Data from 0283_forehead_Reflection__3__213.txt Node

Date: Fri Oct 20 22:25:18 CDT 2023
User: ToomeyLab
Spectrometer: FLMS14357
Trigger mode: 0
Integration Time (sec): 1.000000E-2
Scans to average: 100
Electric dark correction enabled: true
Nonlinearity correction enabled: false
Boxcar width: 0
XAxis mode: Wavelengths
Number of Pixels in Spectrum: 2048
>>>>>Begin Spectral Data<<<<<
189.047	80.19
189.435	80.19
189.823	80.19
190.211	-362.72
190.599	182.21
190.987	119.96
191.375	44.03
191.763	106.18
192.151	-100.19
192.538	-28.7
192.926	-17.93
193.314	51.65
193.702	158.89
194.089	1559.03
194.477	31.92
194.864	255.23
195.252	-50.19
195.639	-1
196.027	92.56
196.414	163.84
196.801	102.92
197.189	657266763874700
197.576	153.43
197.963	-28.75
198.351	52.11
198.738	43.34
199.125	44.05
199.512	68.95
199.899	87.77
200.286	10.54
200.673	98.97
201.06	64.63
201.447	17.58
201.833	43.18
202.22	39.46
202.607	72.21
202.994	40.59
203.38	38.09
203.767	2.18
204.154	61.33
204.54	44.71
204.927	25.58
205.313	10.95
205.699	74.08
206.086	42.58
206.472	48.13
206.858	74.94
207.245	36.79
207.631	45.47
208.017	25.75
208.403	52.38
208.789	46.55
209.175	44.63
209.561	29.51
209.947	26.34
210.333	89.37
210.719	37.91
211.105	65.1
211.491	16.97
211.876	39.89
212.262	52.7
212.648	48.72
213.034	55.12
213.419	43.37
213.805	28.44
214.19	73.36
214.576	29.16
214.961	27.86
215.346	21.96
215.732	55.98
216.117	21.22
216.502	18.85
216.888	35.11
217.273	24.89
217.658	29.6
218.043	5.23
218.428	15.41
218.813	15.21
219.198	6.1
219.583	-2.09
219.968	7.34
220.353	30.81
220.738	37.67
221.122	11.9
221.507	29.09
221.892	41.44
222.276	24.48
222.661	28.72
223.046	16.46
223.43	26.81
223.815	18.55
224.199	25.86
224.583	9.63
224.968	7.61
225.352	15.05
225.736	17.33
226.121	16.43
226.505	18.46
226.889	13.47
227.273	14.77
227.657	17.87
228.041	10.5
228.425	10.8
228.809	12.06
229.193	7.73
229.577	11.66
229.961	6.83
230.344	8.32
230.728	6.18
231.112	7.27
231.495	6.2
231.879	8.07
232.263	8.28
232.646	6.33
233.03	7.33
233.413	6.79
233.797	7.33
234.18	9.45
234.563	8.98
234.946	9.16
235.33	7.91
235.713	9.06
236.096	8.25
236.479	7.09
236.862	8.15
237.245	8
237.628	8.19
238.011	8.34
238.394	7.53
238.777	10.11
239.16	7.38
239.543	9.75
239.925	10.19
240.308	7.14
240.691	6.97
241.073	9.03
241.456	9.14
241.838	9.11
242.221	8.5
242.603	8.39
242.986	7.87
243.368	7.72
243.75	7.64
244.133	7.01
244.515	6.88
244.897	7.11
245.279	7.31
245.661	7.29
246.043	6.23
246.425	6.97
246.807	6.14
247.189	8.06
247.571	6.91
247.953	6.93
248.335	7.51
248.717	6.68
249.098	6.79
249.48	6.93
249.862	7.24
250.243	7.31
250.625	7.33
251.006	7.88
251.388	7.56
251.769	7.67
252.151	6.89
252.532	8.26
252.913	8.11
253.295	7.16
253.676	7.8
254.057	7.41
254.438	7.5
254.819	7.08
255.2	7.43
255.581	6.91
255.962	7.31
256.343	8.12
256.724	6.81
257.105	8.25
257.486	7.61
257.867	7.41
258.247	8.29
258.628	8.15
259.009	7.33
259.389	6.75
259.77	6.99
260.15	7.91
260.531	7.52
260.911	7.35
261.292	6.83
261.672	6.95
262.052	6.74
262.432	6.95
262.813	6.89
263.193	6.82
263.573	7.1
263.953	6.67
264.333	7.38
264.713	7.52
265.093	7.44
265.473	7.87
265.853	7.17
266.233	6.48
266.612	7.17
266.992	7.08
267.372	6.61
267.752	6.98
268.131	7.4
268.511	6.99
268.89	6.52
269.27	6.4
269.649	6.35
270.029	6.83
270.408	6.76
270.787	7.47
271.167	7.31
271.546	6.35
271.925	7.23
272.304	7.04
272.683	7.14
273.062	6.98
273.441	7.07
273.82	6.92
274.199	7.65
274.578	6.82
274.957	6.99
275.336	6.82
275.715	6.73
276.093	6.79
276.472	7.05
276.851	6.93
277.229	6.96
277.608	6.42
277.986	6.31
278.365	7.13
278.743	6.88
279.122	6.47
279.5	6.74
279.878	6.04
280.257	7.12
280.635	6.47
281.013	7.31
281.391	6.8
281.769	6.79
282.147	6.42
282.525	6.64
282.903	6.44
283.281	7.09
283.659	6.77
284.037	6.88
284.415	5.89
284.792	6.69
285.17	7.1
285.548	6.27
285.925	6.03
286.303	6.43
286.68	5.95
287.058	6.83
287.435	6.78
287.813	6.28
288.19	6.6
288.567	6.81
288.945	6.64
289.322	7.37
289.699	6.11
290.076	7.19
290.453	6.54
290.83	6.99
291.207	7.36
291.584	6.6
291.961	6.92
292.338	6.61
292.715	6.6
293.092	7.06
293.469	7.2
293.845	6.9
294.222	6.82
294.599	7.22
294.975	7.65
295.352	7.25
295.728	7.52
296.105	7.04
296.481	7.07
296.858	7.39
297.234	7.83
297.61	7.32
297.986	7.12
298.363	7.68
298.739	7.65
299.115	7.48
299.491	7.74
299.867	7.73
300.243	7.84
300.619	7.63
300.995	7.62
301.371	7.87
301.746	8.17
302.122	8.1
302.498	7.77
302.874	8.12
303.249	8.55
303.625	8.44
304	8.67
304.376	8.17
304.751	8.48
305.127	8.41
305.502	9.24
305.878	8.98
306.253	8.48
306.628	8.6
307.003	8.4
307.378	9
307.754	8.42
308.129	9.56
308.504	9.37
308.879	9.01
309.254	9.29
309.629	9.22
310.003	8.99
310.378	9.41
310.753	9.13
311.128	9.98
311.502	9.9
311.877	9.53
312.252	9.45
312.626	10.18
313.001	9.86
313.375	9.71
313.75	9.86
314.124	9.57
314.498	10.36
314.873	9.91
315.247	10.07
315.621	10.64
315.995	10.52
316.369	10.66
316.743	11.12
317.117	10.91
317.491	10.11
317.865	11.39
318.239	11.13
318.613	11.39
318.987	11.08
319.361	10.69
319.734	11.01
320.108	11.11
320.482	12.29
320.855	11.97
321.229	12.2
321.602	12.11
321.976	12.09
322.349	12.39
322.723	11.71
323.096	12.31
323.469	12.14
323.843	12.38
324.216	11.98
324.589	11.99
324.962	12.45
325.335	12.81
325.708	12.93
326.081	12.76
326.454	12.81
326.827	12.73
327.2	12.95
327.573	12.55
327.945	13.03
328.318	12.39
328.691	13.41
329.063	13.59
329.436	12.64
329.809	13.19
330.181	13.44
330.553	13.3
330.926	13.31
331.298	13.25
331.671	13.21
332.043	13.91
332.415	13.67
332.787	14.08
333.159	13.53
333.532	13.6
333.904	13.69
334.276	13.92
334.648	14.14
335.02	14.17
335.391	13.98
335.763	14.84
336.135	14.32
336.507	14.3
336.879	14.4
337.25	14.42
337.622	14.54
337.993	14.88
338.365	14.49
338.736	14.56
339.108	14.74
339.479	14.32
339.851	14.63
340.222	14.86
340.593	14.9
340.964	14.98
341.336	15.16
341.707	15.1
342.078	15.22
342.449	15.61
342.82	15.22
343.191	15.32
343.562	15.11
343.933	15.43
344.303	15.23
344.674	16.14
345.045	15.94
345.416	15.77
345.786	15.91
346.157	15.9
346.527	15.84
346.898	15.8
347.268	15.92
347.639	15.92
348.009	16.13
348.38	16.08
348.75	15.8
349.12	15.96
349.49	16.1
349.861	16.33
350.231	16.16
350.601	16.37
350.971	16.9
351.341	16.51
351.711	17.25
352.081	16.66
352.45	16.55
352.82	16.98
353.19	17.26
353.56	17.22
353.929	16.95
354.299	17.42
354.669	16.78
355.038	17.35
355.408	17.35
355.777	17.27
356.147	17.07
356.516	17
356.885	17.51
357.254	17.17
357.624	17.46
357.993	17.2
358.362	17.6
358.731	17.13
359.1	17.12
359.469	17.45
359.838	17.9
360.207	17.93
360.576	17.95
360.945	17.68
361.314	18.07
361.682	17.7
362.051	17.68
362.42	17.99
362.788	17.99
363.157	18.08
363.525	18.02
363.894	18.13
364.262	18.36
364.631	18.2
364.999	18.25
365.367	18.65
365.735	18.65
366.104	18.37
366.472	18.34
366.84	18.8
367.208	18.91
367.576	18.92
367.944	19.44
368.312	19.01
368.68	18.99
369.048	19.29
369.416	19.56
369.783	19.59
370.151	19.22
370.519	19.33
370.886	19.72
371.254	19.84
371.621	19.85
371.989	19.3
372.356	20.16
372.724	19.99
373.091	19.97
373.458	19.74
373.826	19.53
374.193	19.8
374.56	20.01
374.927	20.26
375.294	19.94
375.661	20.6
376.028	20.63
376.395	20.45
376.762	19.86
377.129	20.53
377.496	20.72
377.863	20.71
378.229	20.56
378.596	20.67
378.963	20.9
379.329	20.95
379.696	20.82
380.062	20.93
380.429	20.94
380.795	20.89
381.161	21.03
381.528	21.36
381.894	21.32
382.26	21.17
382.626	21.73
382.993	21.31
383.359	21.42
383.725	21.45
384.091	21.59
384.457	21.57
384.823	21.75
385.188	21.93
385.554	21.97
385.92	21.74
386.286	22.06
386.651	21.92
387.017	22.11
387.383	21.96
387.748	21.81
388.114	21.78
388.479	22.26
388.845	22.53
389.21	21.95
389.575	21.96
389.94	22.29
390.306	22.58
390.671	22.68
391.036	22.52
391.401	22.56
391.766	22.76
392.131	22.98
392.496	22.8
392.861	22.82
393.226	22.87
393.591	22.95
393.956	22.86
394.32	23.13
394.685	22.92
395.05	23.26
395.414	23.5
395.779	23.3
396.143	23.56
396.508	23.41
396.872	23.17
397.236	23.3
397.601	23.32
397.965	23.29
398.329	23.67
398.694	23.83
399.058	23.71
399.422	23.85
399.786	23.74
400.15	23.98
400.514	23.64
400.878	23.98
401.242	24.21
401.605	24.32
401.969	23.86
402.333	23.89
402.697	24.4
403.06	24.52
403.424	24.68
403.787	24.66
404.151	24.64
404.514	24.95
404.878	24.68
405.241	24.88
405.604	24.72
405.968	24.74
406.331	24.47
406.694	24.81
407.057	24.59
407.42	25.03
407.783	24.79
408.146	25.01
408.509	24.87
408.872	25.02
409.235	24.83
409.598	25.27
409.961	25.66
410.323	25.41
410.686	25.28
411.049	25.58
411.411	25.44
411.774	25.49
412.136	25.83
412.499	25.69
412.861	25.62
413.223	25.71
413.586	25.9
413.948	25.96
414.31	26.06
414.672	25.92
415.035	25.98
415.397	26
415.759	25.95
416.121	26.09
416.483	26.21
416.845	26.22
417.206	26.2
417.568	26.31
417.93	26.41
418.292	26.04
418.653	26.45
419.015	26.23
419.377	26.3
419.738	26.38
420.1	26.18
420.461	26.44
420.822	26.48
421.184	26.5
421.545	26.44
421.906	26.28
422.267	26.36
422.629	26.36
422.99	26.45
423.351	26.47
423.712	26.59
424.073	26.57
424.434	26.54
424.795	26.84
425.155	26.77
425.516	26.93
425.877	26.89
426.238	26.94
426.598	27.07
426.959	26.83
427.32	27.24
427.68	27.28
428.041	27.31
428.401	27.57
428.761	27.68
429.122	27.64
429.482	27.8
429.842	27.94
430.202	27.91
430.563	27.88
430.923	28.18
431.283	28.37
431.643	28.53
432.003	28.62
432.363	28.46
432.722	28.39
433.082	28.49
433.442	28.67
433.802	28.8
434.161	28.69
434.521	28.65
434.881	28.58
435.24	28.78
435.6	28.67
435.959	28.86
436.319	28.89
436.678	28.87
437.037	28.93
437.396	29.24
437.756	29.18
438.115	29.16
438.474	29.37
438.833	29.19
439.192	29.04
439.551	29.19
439.91	29.43
440.269	29.4
440.628	29.61
440.987	29.48
441.345	29.66
441.704	29.51
442.063	29.67
442.421	29.4
442.78	29.73
443.138	29.66
443.497	29.67
443.855	29.64
444.214	29.91
444.572	29.96
444.93	30.07
445.288	29.98
445.647	30.32
446.005	30.07
446.363	30.13
446.721	30.05
447.079	30.13
447.437	30.23
447.795	30.17
448.153	30.11
448.51	30.19
448.868	30.1
449.226	30.2
449.584	30.3
449.941	30.45
450.299	30.62
450.656	30.55
451.014	30.74
451.371	30.88
451.729	30.79
452.086	31.04
452.443	31.1
452.801	31.17
453.158	31.34
453.515	31.38
453.872	31.35
454.229	31.37
454.586	31.29
454.943	31.24
455.3	31.49
455.657	31.42
456.014	31.48
456.371	31.82
456.727	31.75
457.084	31.67
457.441	31.96
457.797	31.97
458.154	31.87
458.51	32.02
458.867	32.35
459.223	32.09
459.58	32.33
459.936	32.28
460.292	32.35
460.648	32
461.005	32.11
461.361	32.29
461.717	32.05
462.073	32.1
462.429	31.98
462.785	32.2
463.141	32.38
463.496	32.48
463.852	32.62
464.208	32.91
464.564	33.18
464.919	33.12
465.275	33.16
465.631	33.19
465.986	33.05
466.342	33.36
466.697	33.35
467.052	33.26
467.408	33.25
467.763	33.52
468.118	33.59
468.473	33.45
468.829	33.5
469.184	33.44
469.539	33.49
469.894	33.64
470.249	33.7
470.603	33.61
470.958	33.73
471.313	33.95
471.668	33.99
472.023	33.9
472.377	34.09
472.732	34.01
473.086	34.38
473.441	34.31
473.795	34.65
474.15	34.45
474.504	34.4
474.859	34.51
475.213	34.48
475.567	34.41
475.921	34.67
476.275	34.76
476.63	34.72
476.984	34.68
477.338	35.06
477.692	35
478.045	34.82
478.399	34.89
478.753	35.11
479.107	34.95
479.461	34.86
479.814	35.22
480.168	35.2
480.521	35.1
480.875	35.13
481.228	35.31
481.582	35.37
481.935	35.45
482.289	35.54
482.642	35.34
482.995	35.31
483.348	35.37
483.701	35.52
484.055	35.41
484.408	35.07
484.761	35.07
485.114	35.11
485.466	34.64
485.819	34.56
486.172	34.64
486.525	34.63
486.878	34.5
487.23	34.63
487.583	35.02
487.936	35.21
488.288	35.37
488.641	35.6
488.993	35.31
489.345	35.18
489.698	35.23
490.05	35.09
490.402	35.19
490.754	35.34
491.107	35.39
491.459	35.79
491.811	35.95
492.163	36.19
492.515	36.32
492.866	36.27
493.218	36.25
493.57	35.92
493.922	35.86
494.274	35.82
494.625	36
494.977	36.24
495.328	36.59
495.68	36.79
496.031	36.88
496.383	37.24
496.734	37.18
497.086	37.39
497.437	37.63
497.788	37.49
498.139	37.55
498.49	37.41
498.842	37.31
499.193	37.48
499.544	37.48
499.894	37.59
500.245	37.68
500.596	37.77
500.947	37.74
501.298	37.83
501.648	38.01
501.999	38.14
502.35	38.04
502.7	38.19
503.051	38.57
503.401	38.39
503.752	38.43
504.102	38.54
504.452	38.47
504.803	38.45
505.153	38.53
505.503	38.63
505.853	38.69
506.203	38.83
506.553	38.72
506.903	38.74
507.253	38.88
507.603	38.83
507.953	38.84
508.303	39.13
508.652	39.14
509.002	39.13
509.352	39.13
509.701	39.01
510.051	38.98
510.4	39.36
510.75	39.19
511.099	39.2
511.449	39.11
511.798	39.38
512.147	39.18
512.496	39.44
512.846	39.28
513.195	39.54
513.544	39.39
513.893	39.43
514.242	39.52
514.591	39.69
514.939	39.71
515.288	39.74
515.637	39.78
515.986	40.1
516.334	40.08
516.683	40.02
517.032	40
517.38	40.06
517.729	40.36
518.077	40.5
518.426	40.27
518.774	40.3
519.122	40.29
519.47	40.47
519.819	40.35
520.167	40.04
520.515	39.98
520.863	39.87
521.211	39.99
521.559	39.88
521.907	40.26
522.255	40.3
522.602	40.74
522.95	40.62
523.298	41.07
523.645	41.02
523.993	41.1
524.341	41.18
524.688	41.28
525.036	41.27
525.383	41.24
525.73	41.26
526.078	41.45
526.425	41.47
526.772	41.26
527.119	41.34
527.466	41.06
527.814	40.97
528.161	40.98
528.508	41.09
528.854	40.94
529.201	40.97
529.548	41.27
529.895	41.1
530.242	40.65
530.588	40.51
530.935	40.69
531.282	40.76
531.628	40.67
531.975	40.56
532.321	40.96
532.667	41.28
533.014	41.43
533.36	41.49
533.706	41.68
534.052	41.74
534.399	41.81
534.745	41.86
535.091	41.64
535.437	41.6
535.783	41.4
536.129	41.63
536.474	41.84
536.82	41.93
537.166	42.06
537.512	42.34
537.857	42.51
538.203	42.16
538.549	42.49
538.894	42.42
539.239	42.28
539.585	42.36
539.93	42.51
540.276	42.84
540.621	43.05
540.966	42.95
541.311	43.1
541.656	43.17
542.001	43.3
542.346	43.18
542.691	43.01
543.036	42.81
543.381	42.62
543.726	42.47
544.071	42.51
544.415	42.57
544.76	42.68
545.105	42.97
545.449	42.97
545.794	43.19
546.138	43.37
546.483	43.53
546.827	43.54
547.171	43.78
547.516	43.87
547.86	44.05
548.204	43.95
548.548	43.92
548.892	43.73
549.236	43.89
549.58	43.92
549.924	44.01
550.268	44.25
550.612	44.45
550.956	44.67
551.3	44.58
551.643	44.86
551.987	45.37
552.33	45.07
552.674	45.05
553.017	44.95
553.361	45.23
553.704	45.5
554.048	45.21
554.391	45
554.734	45.12
555.077	45.23
555.42	45.16
555.764	45.19
556.107	45.49
556.45	45.44
556.793	45.68
557.135	45.79
557.478	45.7
557.821	45.92
558.164	45.87
558.507	46.02
558.849	46.1
559.192	46.1
559.534	46.17
559.877	46.09
560.219	46.34
560.562	46.17
560.904	46.08
561.246	45.94
561.589	46.4
561.931	46.39
562.273	46.53
562.615	46.42
562.957	46.45
563.299	46.45
563.641	46.65
563.983	46.6
564.325	46.52
564.667	46.39
565.008	46.77
565.35	46.87
565.692	46.83
566.033	46.77
566.375	46.77
566.716	47.13
567.058	46.97
567.399	47.07
567.741	46.88
568.082	47.08
568.423	47.11
568.764	46.68
569.105	46.94
569.447	46.77
569.788	47.02
570.129	47.05
570.47	47.41
570.811	47.3
571.151	47.28
571.492	47.45
571.833	47.7
572.174	47.27
572.514	47.74
572.855	47.38
573.195	47.52
573.536	47.35
573.876	47.64
574.217	47.46
574.557	47.5
574.898	47.63
575.238	47.62
575.578	47.61
575.918	47.66
576.258	47.86
576.598	48.09
576.938	47.86
577.278	48.21
577.618	48.17
577.958	47.93
578.298	48.1
578.638	48.22
578.977	48.11
579.317	48.37
579.657	48.52
579.996	48.61
580.336	48.59
580.675	48.58
581.014	49.06
581.354	48.84
581.693	49.31
582.032	49.09
582.372	49.45
582.711	49.16
583.05	49.08
583.389	49.41
583.728	49.45
584.067	49.1
584.406	48.95
584.745	49.36
585.083	49.58
585.422	49.45
585.761	49.64
586.1	49.65
586.438	49.18
586.777	49.61
587.115	49.63
587.454	49.88
587.792	49.85
588.13	49.82
588.469	49.72
588.807	49.78
589.145	49.81
589.483	49.6
589.821	50.1
590.159	50.07
590.497	50.01
590.835	49.85
591.173	50.03
591.511	50.32
591.849	49.93
592.187	50.15
592.524	50.07
592.862	50.24
593.2	50.35
593.537	50.35
593.875	50.46
594.212	50.53
594.55	50.5
594.887	50.49
595.224	50.48
595.561	50.53
595.899	50.7
596.236	51.1
596.573	50.28
596.91	50.95
597.247	50.91
597.584	50.78
597.921	50.6
598.258	51.25
598.594	50.8
598.931	50.33
599.268	50.55
599.604	50.99
599.941	50.75
600.277	50.44
600.614	50.8
600.95	51.02
601.287	51
601.623	51.23
601.959	51.46
602.296	51.87
602.632	51.65
602.968	51.3
603.304	51.77
603.64	51.56
603.976	51.75
604.312	52
604.648	51.79
604.984	51.98
605.319	51.53
605.655	51.54
605.991	51.73
606.326	51.63
606.662	51.61
606.998	51.64
607.333	51.45
607.668	51.55
608.004	51.51
608.339	51.81
608.674	52.24
609.01	52.04
609.345	52.13
609.68	52.49
610.015	52.56
610.35	52.45
610.685	52.82
611.02	52.75
611.355	52.21
611.689	52.1
612.024	52.33
612.359	52.41
612.694	52.4
613.028	52.74
613.363	52.65
613.697	52.73
614.032	53.19
614.366	52.92
614.7	52.86
615.035	53.37
615.369	53.42
615.703	52.68
616.037	53.31
616.371	52.73
616.705	53.39
617.039	53.07
617.373	53.35
617.707	53.47
618.041	53.06
618.375	53.49
618.709	53.35
619.042	53.88
619.376	54.08
619.71	53.6
620.043	54.36
620.377	53.36
620.71	53.74
621.043	53.57
621.377	53.55
621.71	53.69
622.043	54.01
622.376	54.37
622.709	54.33
623.043	54.13
623.376	54.16
623.709	54.31
624.041	53.55
624.374	54.49
624.707	53.95
625.04	54.37
625.373	54.36
625.705	54.46
626.038	54.92
626.37	54.42
626.703	54.6
627.035	54.71
627.368	54.39
627.7	54.49
628.032	54.25
628.365	54.62
628.697	54.28
629.029	54.75
629.361	54.29
629.693	54.55
630.025	54.68
630.357	54.81
630.689	54.98
631.021	55.25
631.353	55.34
631.684	55.26
632.016	55.46
632.348	54.89
632.679	55.29
633.011	55.15
633.342	55.33
633.674	55.75
634.005	55.25
634.336	55.53
634.668	55.8
634.999	55.35
635.33	55.3
635.661	55.82
635.992	55.6
636.323	55.8
636.654	55.68
636.985	55.92
637.316	55.75
637.647	55.73
637.977	55.73
638.308	55.64
638.639	56.15
638.969	55.51
639.3	55.47
639.63	55.92
639.961	55.82
640.291	56.33
640.622	56.07
640.952	56.95
641.282	56.31
641.612	56.63
641.943	56.47
642.273	56.21
642.603	56.39
642.933	56.94
643.263	56.77
643.592	56.46
643.922	56.76
644.252	56.87
644.582	56.94
644.911	56.45
645.241	56.76
645.571	56.94
645.9	56.95
646.23	57.18
646.559	57.3
646.888	56.66
647.218	56.6
647.547	56.72
647.876	57.31
648.205	57.15
648.534	57.66
648.863	57.22
649.192	57.33
649.521	57.49
649.85	57.03
650.179	57
650.508	57.26
650.837	58.2
651.165	57.86
651.494	57.31
651.822	57.76
652.151	57.41
652.479	57.02
652.808	57.81
653.136	57.3
653.465	57.85
653.793	58.19
654.121	58.08
654.449	57.63
654.777	58.21
655.105	57.8
655.433	58.33
655.761	57.66
656.089	57.53
656.417	57.74
656.745	58.09
657.073	58.51
657.4	58.52
657.728	58.73
658.056	57.36
658.383	57.8
658.711	58.47
659.038	59.12
659.365	58.22
659.693	58.49
660.02	58.26
660.347	57.95
660.674	58.56
661.001	58.75
661.329	58.76
661.656	58.13
661.982	58.62
662.309	58.28
662.636	58.16
662.963	58.44
663.29	58.69
663.616	58.5
663.943	58.79
664.27	59.51
664.596	58.73
664.923	58.27
665.249	58.31
665.576	58.13
665.902	59.19
666.228	59.36
666.554	59.35
666.881	58.05
667.207	58.63
667.533	58.52
667.859	59.44
668.185	58.59
668.511	60.22
668.837	59.36
669.162	59.44
669.488	58.68
669.814	59.98
670.139	58.82
670.465	59.07
670.791	59.97
671.116	58.44
671.442	58.81
671.767	58.73
672.092	59.22
672.418	59.84
672.743	59.73
673.068	59.72
673.393	59.94
673.718	59.82
674.043	59.67
674.368	60.13
674.693	59.42
675.018	60.2
675.343	59.61
675.667	60.64
675.992	60.54
676.317	60.22
676.641	60.6
676.966	60.46
677.29	60.13
677.615	60.82
677.939	60.21
678.264	59.68
678.588	60.17
678.912	60.66
679.236	60.24
679.56	60.36
679.885	60.58
680.209	60.7
680.532	60.86
680.856	59.61
681.18	60.58
681.504	60.23
681.828	60.96
682.152	60.72
682.475	60.54
682.799	60.91
683.122	60.65
683.446	61.07
683.769	60.47
684.093	60.59
684.416	60.65
684.739	60.93
685.062	60.47
685.386	60.7
685.709	61.36
686.032	61.41
686.355	61.25
686.678	61.07
687.001	61.15
687.324	61.05
687.646	60.67
687.969	62.14
688.292	61.98
688.614	60.76
688.937	60.7
689.26	61.57
689.582	61.31
689.904	60.46
690.227	62.06
690.549	61.4
690.871	61.99
691.194	61.66
691.516	61.96
691.838	61.58
692.16	61.04
692.482	61.78
692.804	61.61
693.126	61.63
693.448	62.8
693.769	61.55
694.091	62.27
694.413	62.91
694.735	62.18
695.056	61.02
695.378	60.65
695.699	62.39
696.021	61.99
696.342	61.83
696.663	62.12
696.984	62.22
697.306	61.96
697.627	62.6
697.948	61.4
698.269	61.53
698.59	61.88
698.911	61.79
699.232	61.64
699.553	62.48
699.873	63.28
700.194	62.2
700.515	62.46
700.835	62.69
701.156	62.45
701.477	62.32
701.797	61.99
702.117	62.01
702.438	62.7
702.758	62.68
703.078	63.06
703.398	62.28
703.719	62.26
704.039	62.45
704.359	63.21
704.679	63.07
704.999	62.85
705.319	62.94
705.638	62.2
705.958	62.28
706.278	63.49
706.597	63.48
706.917	62.39
707.237	64.09
707.556	63.4
707.876	63.53
708.195	63.08
708.514	63.23
708.834	63.87
709.153	63.55
709.472	64.37
709.791	64.11
710.11	62.82
710.429	64.94
710.748	64.34
711.067	63.57
711.386	64.25
711.705	63.96
712.023	63.61
712.342	63.08
712.661	63.36
712.979	64.47
713.298	63.75
713.616	64.22
713.935	64.39
714.253	63.2
714.572	65.05
714.89	63.7
715.208	63.77
715.526	63.07
715.844	64.37
716.162	63
716.48	64.06
716.798	64.43
717.116	63.66
717.434	63.82
717.752	64.78
718.069	63.51
718.387	64.32
718.705	62.72
719.022	64.1
719.34	64.11
719.657	64.41
719.975	64.41
720.292	65.16
720.609	64.79
720.927	64.8
721.244	65
721.561	65.19
721.878	64.67
722.195	64.22
722.512	64.73
722.829	65.64
723.146	65.24
723.463	63.02
723.779	65.23
724.096	64.73
724.413	64.22
724.729	64.32
725.046	63.73
725.362	65.89
725.679	65.31
725.995	66.26
726.311	65.88
726.628	64.61
726.944	65.87
727.26	65.67
727.576	65.89
727.892	66.12
728.208	65.35
728.524	64.48
728.84	65.39
729.156	66.28
729.472	65.55
729.787	65.25
730.103	65.68
730.419	65.56
730.734	64.93
731.05	65.83
731.365	65.5
731.681	65.36
731.996	65.77
732.311	64.64
732.626	64.74
732.942	64.61
733.257	66.22
733.572	65.38
733.887	66.64
734.202	65.49
734.517	65.65
734.832	65.51
735.146	65.44
735.461	65.44
735.776	65.49
736.091	66.04
736.405	64.65
736.72	64.3
737.034	66.9
737.349	64.76
737.663	64.03
737.977	65.64
738.292	66.09
738.606	66.3
738.92	65.19
739.234	65.55
739.548	65.67
739.862	67.07
740.176	66.12
740.49	65.76
740.804	67.11
741.117	66.32
741.431	64.31
741.745	66.61
742.058	65.25
742.372	67.24
742.685	66.11
742.999	65.07
743.312	64.91
743.626	64.99
743.939	65.88
744.252	65.08
744.565	66.9
744.878	66.89
745.191	67.17
745.505	66.72
745.817	66.41
746.13	66.53
746.443	67.57
746.756	66.47
747.069	65.69
747.381	65.26
747.694	67.11
748.007	65.76
748.319	67.34
748.632	64.6
748.944	67.49
749.256	66.88
749.569	64.98
749.881	68.63
750.193	66.68
750.505	65.69
750.817	68.92
751.129	65.45
751.441	67.65
751.753	67.25
752.065	67.38
752.377	66.76
752.689	67.62
753	67.2
753.312	65.31
753.624	68.83
753.935	65.4
754.247	68.43
754.558	68.22
754.869	66.17
755.181	67.81
755.492	66.18
755.803	65.91
756.114	69.16
756.425	66.5
756.736	67.98
757.047	65.82
757.358	64.66
757.669	67.94
757.98	67.35
758.291	66.17
758.601	69.06
758.912	68.53
759.223	67.42
759.533	67.61
759.844	66.97
760.154	65.35
760.464	69.63
760.775	68.69
761.085	67.7
761.395	67.41
761.705	68.24
762.016	68.27
762.326	67.22
762.636	69.22
762.945	68.4
763.255	70.13
763.565	67.93
763.875	67.47
764.185	65.84
764.494	68.65
764.804	68.49
765.113	65.77
765.423	68.26
765.732	66.53
766.042	68.35
766.351	68.11
766.66	67.6
766.97	67.17
767.279	68.22
767.588	67.12
767.897	66.14
768.206	67.24
768.515	70.1
768.824	67.98
769.133	66.67
769.441	67.56
769.75	69.46
770.059	65.9
770.367	68.92
770.676	70.05
770.984	68.96
771.293	67.29
771.601	67.61
771.91	67.31
772.218	69.02
772.526	70.29
772.834	68.68
773.142	66.59
773.45	67.85
773.758	68.22
774.066	68.99
774.374	66.89
774.682	66.54
774.99	68.38
775.298	66.59
775.605	67.29
775.913	69.96
776.22	67.97
776.528	69.25
776.835	66.36
777.143	64.56
777.45	67.77
777.757	70.97
778.065	70.91
778.372	66.18
778.679	69.99
778.986	71.05
779.293	71.13
779.6	67.3
779.907	68.02
780.214	67.73
780.52	72.97
780.827	64.43
781.134	68.55
781.44	68.55
781.747	66.54
782.053	70.12
782.36	68.01
782.666	66.22
782.973	65.81
783.279	68.41
783.585	68.68
783.891	70.48
784.197	65.83
784.503	70.68
784.809	72.84
785.115	66.69
785.421	72.67
785.727	67.97
786.033	70.14
786.339	67.32
786.644	64.28
786.95	69.41
787.255	70.73
787.561	66.47
787.866	70.85
788.172	72.06
788.477	69.82
788.782	68.55
789.088	74.65
789.393	72.7
789.698	67.17
790.003	66.95
790.308	68.25
790.613	69.7
790.918	70.75
791.223	68.89
791.527	70.3
791.832	71.77
792.137	67.7
792.441	68.59
792.746	68.06
793.05	75.15
793.355	66.72
793.659	68.8
793.963	69.2
794.268	75.98
794.572	68.75
794.876	69.97
795.18	67.76
795.484	70.6
795.788	68.38
796.092	71.61
796.396	72.2
796.7	72.83
797.004	72.64
797.307	71.13
797.611	73.38
797.915	67.15
798.218	69.44
798.522	68.37
798.825	67.92
799.128	70.04
799.432	70.36
799.735	70.4
800.038	67.84
800.341	66.37
800.644	72.79
800.947	69.7
801.25	70.97
801.553	69.88
801.856	74.19
802.159	69.18
802.462	68.22
802.764	68.62
803.067	71.3
803.37	73.37
803.672	66.66
803.975	68.54
804.277	70.53
804.579	70.06
804.882	70.91
805.184	69.81
805.486	68.6
805.788	70.23
806.09	64.82
806.392	73.86
806.694	71.18
806.996	78.29
807.298	74.64
807.6	74.33
807.902	62.79
808.203	70.3
808.505	73.34
808.807	64.33
809.108	59.29
809.409	71.22
809.711	67.12
810.012	73.05
810.313	74.26
810.615	73.53
810.916	65.38
811.217	67.45
811.518	67.65
811.819	68.39
812.12	77.92
812.421	69.49
812.722	69.22
813.023	73.14
813.323	75.73
813.624	74.03
813.925	69.86
814.225	68.65
814.526	70.96
814.826	76.48
815.126	66.31
815.427	67.92
815.727	71.89
816.027	67.74
816.327	68.05
816.627	69
816.927	72.97
817.227	72.02
817.527	69.98
817.827	77.37
818.127	70.17
818.427	70.67
818.727	68.44
819.026	64.96
819.326	71.52
819.625	70.45
819.925	74.57
820.224	74.49
820.524	72.81
820.823	69.02
821.122	62.88
821.421	67.97
821.72	68.37
822.019	72.12
822.318	68.6
822.617	77.74
822.916	69.89
823.215	68.43
823.514	70.4
823.813	74.21
824.111	69
824.41	71.44
824.709	71.34
825.007	72.46
825.306	71.61
825.604	72.15
825.902	72.47
826.201	71.64
826.499	72.38
826.797	71.4
827.095	70.95
827.393	70.51
827.691	74.1
827.989	71.02
828.287	69.55
828.585	71.38
828.882	72.95
829.18	73.1
829.478	72.89
829.775	71.52
830.073	71.64
830.37	73.14
830.668	71.77
830.965	70.23
831.263	70.82
831.56	69.8
831.857	71.12
832.154	70.12
832.451	69.56
832.748	70.16
833.045	70.37
833.342	71.48
833.639	76.94
833.936	69.94
834.232	65.89
834.529	70.25
834.826	66.97
835.122	72.6
835.419	68.96
835.715	71.38
836.012	71.14
836.308	77.54
836.604	68.4
836.901	75.55
837.197	75.76
837.493	71.64
837.789	71.7
838.085	73.88
838.381	74.75
838.677	72.54
838.972	74.53
839.268	72.56
839.564	74.12
839.86	75.38
840.155	78.58
840.451	67.2
840.746	78.19
841.042	67.01
841.337	76.99
841.632	77.88
841.928	74.1
842.223	72.46
842.518	62.18
842.813	67.32
843.108	74.44
843.403	71.29
843.698	72.34
843.993	74.37
844.287	78.72
844.582	74.91
844.877	62.03
845.171	55.92
845.466	66.03
845.761	75.63
846.055	77.38
846.349	72.34
846.644	65.93
846.938	78.05
847.232	71.74
847.526	64.77
847.82	58.64
848.114	90.79
848.408	82.48
848.702	70.25
848.996	77.58
849.29	71.65
849.584	90.91
849.877	93.71
850.171	74.36
850.465	60.95
850.758	63.07
851.052	75.25
851.345	61.64
851.638	60.37
851.932	78.1
852.225	83.13
852.518	68.72
852.811	88.45
853.104	66.46
853.397	59.14
853.69	73.43
853.983	82.82
854.276	92.31
854.569	95.83
854.861	75.6
855.154	92.18
855.447	101.58
855.739	82.23
856.032	57.61
856.324	67.84
856.616	77.43
856.909	78.15
857.201	63.84
857.493	61.55
857.785	76.49
858.077	80.58
858.369	58.26
858.661	95.94
858.953	97.53
859.245	61.46
859.537	79.43
859.829	88.05
860.12	64.41
860.412	71
860.703	74.4
860.995	74.92
861.286	89.37
861.578	72.37
861.869	112.33
862.16	70.69
862.452	61.58
862.743	95.38
863.034	76.79
863.325	78.21
863.616	55.35
863.907	81.59
864.198	109.76
864.488	73.77
864.779	66.94
865.07	49.15
865.36	81.09
865.651	83.17
865.941	89.16
866.232	47.33
866.522	87.28
866.813	57.83
867.103	72.29
867.393	84.34
867.683	72.6
867.973	84.16
868.263	77.78
868.553	57.76
868.843	84.9
869.133	90.15
869.423	69.93
869.713	75.32
870.002	69.27
870.292	71.16
870.582	93.91
870.871	76.85
871.161	83.26
871.45	103.71
871.739	63.65
872.029	64.59
872.318	80.65
872.607	62.46
872.896	88.3
873.185	73.46
873.474	80.76
873.763	66.24
874.052	98.66
874.341	71.45
874.63	56.01
874.918	39.93
875.207	62.94
875.496	71.62
875.784	82.71
876.073	108.23
876.361	54.68
876.649	78.06
876.938	57.33
877.226	67.01
877.514	60.09
877.802	76
878.09	72.2
878.378	81
878.666	87.74
878.954	83.61
879.242	84.48
879.53	70.77
879.817	57.24
880.105	102.03
880.392	66.08
880.68	79.5
880.967	76.44
881.255	88.99
881.542	93.02
881.83	80.98
882.117	67.98
882.404	69.01
882.691	85.42
882.978	65.78
883.265	58.41
883.552	78.6
883.839	65.36
884.126	61.62
884.413	83.3
884.699	87.39
884.986	67.35
885.273	73.33
885.559	73.33
885.846	73.33
