Data from 0215_chest_Reflection__1__206.txt Node

Date: Fri Sep 22 22:30:18 CDT 2023
User: ToomeyLab
Spectrometer: FLMS14357
Trigger mode: 0
Integration Time (sec): 1.000000E-2
Scans to average: 100
Electric dark correction enabled: true
Nonlinearity correction enabled: false
Boxcar width: 0
XAxis mode: Wavelengths
Number of Pixels in Spectrum: 2048
>>>>>Begin Spectral Data<<<<<
189.047	-1645.32
189.435	-1645.32
189.823	-1645.32
190.211	-2.86
190.599	-123.8
190.987	-37.36
191.375	196.46
191.763	-111.82
192.151	130.1
192.538	89.47
192.926	95.56
193.314	89.66
193.702	188.84
194.089	47
194.477	-97.05
194.864	-2044.19
195.252	127.01
195.639	47.01
196.027	126.32
196.414	224.81
196.801	-777.33
197.189	-47.11
197.576	270.16
197.963	345.09
198.351	-4.64
198.738	11.34
199.125	11.6
199.512	34.01
199.899	30.84
200.286	-12.13
200.673	22.81
201.06	37.09
201.447	54.47
201.833	-65.45
202.22	48.02
202.607	26.48
202.994	24.94
203.38	17.28
203.767	-2.54
204.154	49.38
204.54	33.9
204.927	-0.31
205.313	62.96
205.699	35.8
206.086	44.51
206.472	35.1
206.858	14.96
207.245	11.26
207.631	42.79
208.017	83.06
208.403	-7.25
208.789	41.43
209.175	20.39
209.561	30.85
209.947	44.59
210.333	26.57
210.719	-10.33
211.105	43.19
211.491	-19.67
211.876	56.25
212.262	-2.22
212.648	28.01
213.034	17.01
213.419	23.86
213.805	-1.39
214.19	20.78
214.576	20.3
214.961	26.35
215.346	26.01
215.732	32.32
216.117	22.4
216.502	36.09
216.888	44.83
217.273	27.46
217.658	27.68
218.043	33.62
218.428	31.08
218.813	-15.34
219.198	-17.45
219.583	13.95
219.968	-4.86
220.353	25.15
220.738	-3.76
221.122	15.76
221.507	6.25
221.892	19.14
222.276	-2.89
222.661	-41.81
223.046	15.71
223.43	21.43
223.815	6.13
224.199	4.87
224.583	11.86
224.968	19.87
225.352	7.49
225.736	13.59
226.121	9.89
226.505	13.56
226.889	4.72
227.273	6.59
227.657	8.94
228.041	4.22
228.425	9.33
228.809	0.11
229.193	4.21
229.577	4.16
229.961	4.9
230.344	6.08
230.728	1.35
231.112	3.28
231.495	2.48
231.879	2.71
232.263	2.47
232.646	1.44
233.03	2.66
233.413	1.71
233.797	2.88
234.18	3.42
234.563	6.18
234.946	5.27
235.33	1.04
235.713	2.18
236.096	0.49
236.479	1.59
236.862	3.11
237.245	5
237.628	3.26
238.011	2.79
238.394	3.62
238.777	4.19
239.16	3.58
239.543	6.57
239.925	5.25
240.308	2.82
240.691	3.95
241.073	4.12
241.456	4.55
241.838	3.12
242.221	2.6
242.603	2.81
242.986	3.52
243.368	1.92
243.75	3.03
244.133	3.43
244.515	3.14
244.897	2.32
245.279	2.78
245.661	2.53
246.043	3.21
246.425	2.55
246.807	3.59
247.189	1.86
247.571	3.13
247.953	3.71
248.335	2.67
248.717	2.42
249.098	2.73
249.48	2.36
249.862	2.53
250.243	2.69
250.625	2.73
251.006	2.08
251.388	2.83
251.769	3.41
252.151	1.88
252.532	2.34
252.913	2.71
253.295	3.5
253.676	2.62
254.057	2.52
254.438	3.23
254.819	2.21
255.2	2.58
255.581	2.74
255.962	3.25
256.343	2.63
256.724	0.85
257.105	1.96
257.486	2.71
257.867	3.03
258.247	2.98
258.628	3.99
259.009	2.82
259.389	2.7
259.77	3.39
260.15	2.87
260.531	2.55
260.911	2.56
261.292	2.24
261.672	1.83
262.052	2.38
262.432	2.36
262.813	2.31
263.193	2.12
263.573	3.08
263.953	2.65
264.333	2.17
264.713	2.22
265.093	2.66
265.473	2.16
265.853	2.09
266.233	2.66
266.612	2.54
266.992	2.63
267.372	2.81
267.752	3.26
268.131	2.67
268.511	2.02
268.89	2.62
269.27	2.73
269.649	2.96
270.029	2.44
270.408	2.38
270.787	2.37
271.167	2.59
271.546	1.7
271.925	1.66
272.304	2.16
272.683	2.55
273.062	2.74
273.441	2.38
273.82	2.4
274.199	2.32
274.578	2.54
274.957	2.56
275.336	2.3
275.715	2.43
276.093	1.66
276.472	2.32
276.851	3
277.229	1.97
277.608	2.69
277.986	1.85
278.365	2.71
278.743	2.44
279.122	2.26
279.5	2.7
279.878	2.25
280.257	2.73
280.635	1.9
281.013	2.28
281.391	1.86
281.769	2.57
282.147	2.51
282.525	2.12
282.903	2.25
283.281	2.56
283.659	2.29
284.037	2.31
284.415	2.75
284.792	2.06
285.17	2.92
285.548	2.66
285.925	1.98
286.303	2.3
286.68	1.7
287.058	1.87
287.435	2.25
287.813	2
288.19	1.86
288.567	2.08
288.945	1.71
289.322	2.51
289.699	2.41
290.076	2.45
290.453	1.88
290.83	1.85
291.207	2.27
291.584	2.15
291.961	2
292.338	2.26
292.715	2.5
293.092	2.22
293.469	2.8
293.845	2.03
294.222	2.11
294.599	2.45
294.975	2.64
295.352	2.37
295.728	2.49
296.105	2.53
296.481	2.29
296.858	2.17
297.234	2.22
297.61	2.01
297.986	2.51
298.363	2.35
298.739	2.27
299.115	2.27
299.491	2.45
299.867	2.52
300.243	1.87
300.619	2.7
300.995	2.19
301.371	2.44
301.746	2.5
302.122	2.45
302.498	2.56
302.874	2.06
303.249	2.32
303.625	1.57
304	3
304.376	3.04
304.751	2.44
305.127	2.29
305.502	2.86
305.878	2.01
306.253	2.49
306.628	1.77
307.003	2.73
307.378	2.4
307.754	2.32
308.129	2.16
308.504	2.52
308.879	2.5
309.254	2.34
309.629	2.58
310.003	2.73
310.378	2.93
310.753	2.65
311.128	2.86
311.502	2.52
311.877	1.77
312.252	2.18
312.626	2.28
313.001	2.51
313.375	2.63
313.75	2.46
314.124	2.88
314.498	1.76
314.873	2.13
315.247	2.71
315.621	2.67
315.995	2.22
316.369	2.5
316.743	2.39
317.117	2.25
317.491	2.31
317.865	2.17
318.239	2.4
318.613	2.42
318.987	2.68
319.361	1.99
319.734	2.48
320.108	2.81
320.482	2.19
320.855	2.32
321.229	2.85
321.602	2.87
321.976	2.51
322.349	2.3
322.723	2.05
323.096	1.99
323.469	2.05
323.843	2.94
324.216	2.32
324.589	2.48
324.962	2.13
325.335	2.39
325.708	2.54
326.081	2.61
326.454	2.3
326.827	2.31
327.2	2.41
327.573	3.05
327.945	2.11
328.318	2.89
328.691	2.67
329.063	2.05
329.436	2.73
329.809	2.6
330.181	2.44
330.553	2.39
330.926	2.27
331.298	2.55
331.671	2.63
332.043	1.91
332.415	2.04
332.787	2.29
333.159	1.59
333.532	2.36
333.904	2.24
334.276	2.44
334.648	1.53
335.02	2.25
335.391	1.81
335.763	2.67
336.135	2.64
336.507	2.8
336.879	2.64
337.25	2.45
337.622	2.54
337.993	2.39
338.365	2.93
338.736	2.67
339.108	2.22
339.479	2.45
339.851	2.48
340.222	2.66
340.593	2.19
340.964	1.82
341.336	2.13
341.707	1.71
342.078	2.33
342.449	2.29
342.82	2.27
343.191	2.1
343.562	1.91
343.933	2.36
344.303	2.32
344.674	2.81
345.045	2.49
345.416	2.53
345.786	1.87
346.157	2.37
346.527	2.23
346.898	2.29
347.268	2.09
347.639	2.13
348.009	2.34
348.38	2.57
348.75	2.9
349.12	2.45
349.49	2.51
349.861	2.22
350.231	2.62
350.601	2.11
350.971	2.89
351.341	2.32
351.711	2.29
352.081	2.15
352.45	1.92
352.82	2.7
353.19	2.87
353.56	2.4
353.929	2.43
354.299	2.57
354.669	2.42
355.038	2.67
355.408	2.87
355.777	2.71
356.147	2.27
356.516	2.61
356.885	2.56
357.254	2.81
357.624	1.77
357.993	2.46
358.362	2.53
358.731	2.3
359.1	2.48
359.469	2.67
359.838	1.99
360.207	2.19
360.576	2.34
360.945	2.38
361.314	2.53
361.682	2.5
362.051	2.48
362.42	2.31
362.788	2
363.157	2.74
363.525	2.37
363.894	2.22
364.262	2.42
364.631	2.25
364.999	2.17
365.367	2.53
365.735	2.37
366.104	2.19
366.472	2.54
366.84	2.07
367.208	2.59
367.576	2.21
367.944	2.24
368.312	2.26
368.68	2.51
369.048	2.65
369.416	2.51
369.783	1.86
370.151	2.32
370.519	2.47
370.886	2.42
371.254	2.52
371.621	2.25
371.989	2.67
372.356	1.85
372.724	2.72
373.091	2.49
373.458	2.38
373.826	2.45
374.193	2.65
374.56	2.63
374.927	2.45
375.294	2.72
375.661	2.59
376.028	2.45
376.395	2.42
376.762	2.27
377.129	2.78
377.496	2.87
377.863	2.5
378.229	2.61
378.596	2.39
378.963	2.57
379.329	2.51
379.696	2.78
380.062	2.29
380.429	2.23
380.795	2.48
381.161	2.38
381.528	2.23
381.894	2.12
382.26	2.27
382.626	2.61
382.993	2.73
383.359	2.01
383.725	2.3
384.091	2.43
384.457	2.28
384.823	2.32
385.188	2.63
385.554	2.43
385.92	2.65
386.286	2.58
386.651	2.55
387.017	2.52
387.383	2.4
387.748	2.13
388.114	2.34
388.479	2.6
388.845	2.49
389.21	2.28
389.575	2.91
389.94	2.53
390.306	2.48
390.671	2.74
391.036	2.31
391.401	2.32
391.766	2.24
392.131	2.45
392.496	2.56
392.861	2.3
393.226	2.59
393.591	2.57
393.956	2.36
394.32	2.58
394.685	2.32
395.05	2.85
395.414	2.62
395.779	2.61
396.143	2.52
396.508	2.51
396.872	2.5
397.236	2.5
397.601	2.39
397.965	2.65
398.329	2.47
398.694	2.49
399.058	2.44
399.422	2.52
399.786	2.66
400.15	2.57
400.514	2.54
400.878	2.26
401.242	2.46
401.605	2.49
401.969	2.46
402.333	2.74
402.697	2.5
403.06	2.47
403.424	2.59
403.787	2.55
404.151	2.54
404.514	2.55
404.878	2.57
405.241	2.69
405.604	2.52
405.968	2.36
406.331	2.5
406.694	2.54
407.057	2.45
407.42	2.64
407.783	2.6
408.146	2.54
408.509	2.6
408.872	2.48
409.235	2.49
409.598	2.77
409.961	2.77
410.323	2.47
410.686	2.58
411.049	2.76
411.411	2.48
411.774	2.53
412.136	2.41
412.499	2.63
412.861	2.74
413.223	2.45
413.586	2.41
413.948	2.68
414.31	2.31
414.672	2.56
415.035	2.49
415.397	2.82
415.759	2.84
416.121	2.56
416.483	2.49
416.845	2.43
417.206	2.47
417.568	2.48
417.93	2.47
418.292	2.62
418.653	2.37
419.015	2.55
419.377	2.25
419.738	2.6
420.1	2.48
420.461	2.59
420.822	2.43
421.184	2.44
421.545	2.4
421.906	2.48
422.267	2.49
422.629	2.47
422.99	2.48
423.351	2.3
423.712	2.42
424.073	2.37
424.434	2.49
424.795	2.49
425.155	2.63
425.516	2.46
425.877	2.53
426.238	2.33
426.598	2.35
426.959	2.42
427.32	2.47
427.68	2.48
428.041	2.51
428.401	2.73
428.761	2.62
429.122	2.44
429.482	2.48
429.842	2.39
430.202	2.43
430.563	2.7
430.923	2.66
431.283	2.75
431.643	2.69
432.003	2.76
432.363	2.68
432.722	2.72
433.082	2.63
433.442	2.58
433.802	2.68
434.161	2.53
434.521	2.54
434.881	2.66
435.24	2.6
435.6	2.42
435.959	2.41
436.319	2.49
436.678	2.64
437.037	2.66
437.396	2.45
437.756	2.63
438.115	2.69
438.474	2.55
438.833	2.74
439.192	2.57
439.551	2.65
439.91	2.71
440.269	2.76
440.628	2.58
440.987	2.57
441.345	2.65
441.704	2.62
442.063	2.56
442.421	2.52
442.78	2.62
443.138	2.6
443.497	2.54
443.855	2.65
444.214	2.47
444.572	2.54
444.93	2.59
445.288	2.65
445.647	2.72
446.005	2.51
446.363	2.57
446.721	2.64
447.079	2.65
447.437	2.63
447.795	2.82
448.153	2.5
448.51	2.57
448.868	2.57
449.226	2.52
449.584	2.57
449.941	2.48
450.299	2.66
450.656	2.73
451.014	2.71
451.371	2.65
451.729	2.57
452.086	2.61
452.443	2.82
452.801	2.84
453.158	2.62
453.515	2.79
453.872	2.61
454.229	2.68
454.586	2.8
454.943	2.57
455.3	2.56
455.657	2.55
456.014	2.63
456.371	2.7
456.727	2.77
457.084	2.7
457.441	2.62
457.797	2.74
458.154	2.63
458.51	2.57
458.867	2.56
459.223	2.73
459.58	2.8
459.936	2.65
460.292	2.77
460.648	2.68
461.005	2.57
461.361	2.87
461.717	2.5
462.073	2.64
462.429	2.53
462.785	2.57
463.141	2.61
463.496	2.79
463.852	2.67
464.208	2.71
464.564	2.82
464.919	2.61
465.275	2.8
465.631	2.92
465.986	2.79
466.342	2.82
466.697	2.77
467.052	2.78
467.408	2.65
467.763	2.77
468.118	3
468.473	2.78
468.829	2.68
469.184	2.74
469.539	2.78
469.894	2.72
470.249	2.81
470.603	2.74
470.958	2.83
471.313	2.69
471.668	2.88
472.023	2.78
472.377	2.73
472.732	2.67
473.086	2.92
473.441	2.68
473.795	3.05
474.15	2.69
474.504	2.65
474.859	2.93
475.213	2.59
475.567	2.66
475.921	2.82
476.275	2.78
476.63	2.76
476.984	2.72
477.338	2.9
477.692	2.7
478.045	2.85
478.399	2.87
478.753	2.88
479.107	2.78
479.461	2.84
479.814	2.79
480.168	2.74
480.521	2.9
480.875	2.89
481.228	2.82
481.582	2.64
481.935	2.84
482.289	2.91
482.642	2.77
482.995	2.79
483.348	2.77
483.701	2.8
484.055	2.77
484.408	2.81
484.761	2.84
485.114	2.64
485.466	2.65
485.819	2.6
486.172	2.58
486.525	2.56
486.878	2.58
487.23	2.62
487.583	2.69
487.936	2.75
488.288	2.67
488.641	2.69
488.993	2.75
489.345	2.64
489.698	2.65
490.05	2.65
490.402	2.68
490.754	2.65
491.107	2.69
491.459	2.76
491.811	2.78
492.163	2.8
492.515	2.78
492.866	2.78
493.218	2.82
493.57	2.76
493.922	2.69
494.274	2.69
494.625	2.73
494.977	2.83
495.328	2.88
495.68	2.89
496.031	2.86
496.383	2.91
496.734	2.81
497.086	2.93
497.437	3
497.788	2.97
498.139	2.82
498.49	3.05
498.842	2.84
499.193	2.75
499.544	2.92
499.894	2.85
500.245	2.93
500.596	2.85
500.947	2.95
501.298	3
501.648	2.93
501.999	3.01
502.35	2.97
502.7	3.11
503.051	3
503.401	3.01
503.752	3.03
504.102	2.99
504.452	3.02
504.803	2.92
505.153	2.97
505.503	2.98
505.853	3.02
506.203	3
506.553	3.04
506.903	3.14
507.253	2.97
507.603	3.03
507.953	3.01
508.303	3
508.652	3.03
509.002	3.21
509.352	2.92
509.701	2.86
510.051	3.02
510.4	3.06
510.75	2.99
511.099	2.89
511.449	3.11
511.798	3.05
512.147	2.98
512.496	3.03
512.846	3.04
513.195	3.06
513.544	2.97
513.893	3.13
514.242	3.06
514.591	3.05
514.939	3.12
515.288	3.11
515.637	3.05
515.986	3.04
516.334	3.1
516.683	3.18
517.032	3.2
517.38	3.04
517.729	3.13
518.077	3.21
518.426	3.15
518.774	3.12
519.122	3.16
519.47	3.1
519.819	3.25
520.167	3.18
520.515	3.06
520.863	3.07
521.211	3.07
521.559	3.16
521.907	3.17
522.255	3.14
522.602	3.18
522.95	3.15
523.298	3.19
523.645	3.23
523.993	3.17
524.341	3.22
524.688	3.18
525.036	3.18
525.383	3.21
525.73	3.32
526.078	3.21
526.425	3.32
526.772	3.31
527.119	3.07
527.466	3.17
527.814	3.16
528.161	3.09
528.508	3.24
528.854	3.19
529.201	3.2
529.548	3.26
529.895	3.09
530.242	3.1
530.588	3.12
530.935	3
531.282	3.05
531.628	3.14
531.975	3.09
532.321	3.11
532.667	3.26
533.014	3.22
533.36	3.25
533.706	3.22
534.052	3.27
534.399	3.29
534.745	3.34
535.091	3.17
535.437	3.17
535.783	3.2
536.129	3.24
536.474	3.35
536.82	3.25
537.166	3.39
537.512	3.37
537.857	3.36
538.203	3.46
538.549	3.36
538.894	3.27
539.239	3.32
539.585	3.38
539.93	3.52
540.276	3.4
540.621	3.46
540.966	3.56
541.311	3.56
541.656	3.39
542.001	3.4
542.346	3.46
542.691	3.5
543.036	3.39
543.381	3.33
543.726	3.39
544.071	3.35
544.415	3.37
544.76	3.37
545.105	3.32
545.449	3.43
545.794	3.52
546.138	3.53
546.483	3.52
546.827	3.47
547.171	3.55
547.516	3.66
547.86	3.68
548.204	3.57
548.548	3.6
548.892	3.52
549.236	3.55
549.58	3.67
549.924	3.68
550.268	3.81
550.612	3.6
550.956	3.74
551.3	3.8
551.643	3.85
551.987	3.87
552.33	3.92
552.674	3.71
553.017	3.83
553.361	3.84
553.704	3.94
554.048	3.99
554.391	3.94
554.734	3.98
555.077	3.8
555.42	3.81
555.764	3.91
556.107	3.95
556.45	3.98
556.793	4.05
557.135	4.02
557.478	3.9
557.821	4.08
558.164	4.19
558.507	4.07
558.849	3.9
559.192	4.31
559.534	4.19
559.877	4.17
560.219	4
560.562	4.16
560.904	4.02
561.246	4.3
561.589	4.25
561.931	4.12
562.273	4.03
562.615	4.02
562.957	4.03
563.299	4.18
563.641	4.3
563.983	4.41
564.325	4.19
564.667	4.33
565.008	4.12
565.35	4.35
565.692	4.49
566.033	4.07
566.375	4.34
566.716	4.34
567.058	4.25
567.399	4.26
567.741	4.54
568.082	4.25
568.423	4.38
568.764	4.49
569.105	4.22
569.447	4.4
569.788	4.29
570.129	4.47
570.47	4.67
570.811	4.37
571.151	4.77
571.492	4.34
571.833	4.39
572.174	4.43
572.514	4.62
572.855	4.53
573.195	4.42
573.536	4.59
573.876	4.63
574.217	4.58
574.557	4.43
574.898	4.8
575.238	4.68
575.578	4.73
575.918	4.77
576.258	4.52
576.598	4.64
576.938	4.79
577.278	4.87
577.618	4.57
577.958	4.76
578.298	4.91
578.638	4.7
578.977	4.88
579.317	4.88
579.657	4.8
579.996	5.08
580.336	5.02
580.675	4.96
581.014	4.69
581.354	4.78
581.693	4.9
582.032	4.89
582.372	5.15
582.711	5.3
583.05	5.04
583.389	5.16
583.728	5.05
584.067	4.96
584.406	5.08
584.745	4.87
585.083	5.46
585.422	5.29
585.761	5.1
586.1	5.08
586.438	5.29
586.777	5.36
587.115	5.42
587.454	5.32
587.792	5.45
588.13	5.37
588.469	5.2
588.807	5.36
589.145	5.54
589.483	5.64
589.821	5.55
590.159	5.49
590.497	5.77
590.835	5.61
591.173	5.71
591.511	5.58
591.849	5.73
592.187	5.46
592.524	5.71
592.862	5.73
593.2	5.73
593.537	5.51
593.875	5.74
594.212	5.71
594.55	5.96
594.887	5.58
595.224	5.8
595.561	5.95
595.899	6.09
596.236	6.27
596.573	5.78
596.91	5.81
597.247	5.9
597.584	5.96
597.921	6.22
598.258	6.06
598.594	6.12
598.931	5.93
599.268	6.01
599.604	6.04
599.941	5.91
600.277	5.72
600.614	5.95
600.95	6.14
601.287	6.12
601.623	6.07
601.959	6.13
602.296	6.18
602.632	5.92
602.968	6.13
603.304	6.37
603.64	6.07
603.976	6.41
604.312	6.47
604.648	6.07
604.984	6.15
605.319	6.32
605.655	6.32
605.991	6.41
606.326	6.41
606.662	6.34
606.998	6.36
607.333	6.36
607.668	6.31
608.004	6.63
608.339	6.31
608.674	6.43
609.01	6.67
609.345	6.54
609.68	6.6
610.015	6.77
610.35	6.61
610.685	6.79
611.02	6.84
611.355	6.79
611.689	6.74
612.024	6.83
612.359	6.6
612.694	6.81
613.028	6.96
613.363	6.74
613.697	6.94
614.032	6.87
614.366	6.9
614.7	6.69
615.035	7.06
615.369	6.93
615.703	7.13
616.037	7.3
616.371	7.4
616.705	7.42
617.039	7.25
617.373	7.11
617.707	7.16
618.041	7.31
618.375	7.51
618.709	7.22
619.042	7.69
619.376	7.6
619.71	7.61
620.043	7.12
620.377	6.97
620.71	7.34
621.043	7.5
621.377	7.25
621.71	7.5
622.043	7.56
622.376	8.15
622.709	7.69
623.043	7.5
623.376	8.05
623.709	7.72
624.041	7.54
624.374	7.69
624.707	8.14
625.04	7.78
625.373	7.59
625.705	7.67
626.038	7.59
626.37	8
626.703	7.82
627.035	8.07
627.368	7.82
627.7	8.16
628.032	8.09
628.365	8.31
628.697	7.93
629.029	8.17
629.361	7.71
629.693	8.08
630.025	8.05
630.357	7.84
630.689	8.11
631.021	8.02
631.353	8.13
631.684	8.06
632.016	8.27
632.348	8.15
632.679	8.05
633.011	8.2
633.342	8.14
633.674	8.67
634.005	7.61
634.336	8.83
634.668	8.61
634.999	8.3
635.33	8.59
635.661	8.43
635.992	8.57
636.323	8.47
636.654	8.54
636.985	8.52
637.316	8.46
637.647	8.57
637.977	8.31
638.308	8.55
638.639	8.61
638.969	8.84
639.3	8.65
639.63	9.07
639.961	8.71
640.291	9.02
640.622	8.57
640.952	8.85
641.282	8.84
641.612	8.83
641.943	9.16
642.273	9.25
642.603	8.8
642.933	8.72
643.263	8.55
643.592	9.03
643.922	9.41
644.252	9.08
644.582	9.07
644.911	9.68
645.241	9.23
645.571	9.05
645.9	8.93
646.23	9.49
646.559	9.09
646.888	9.78
647.218	9.55
647.547	9.51
647.876	9.01
648.205	9.3
648.534	9.46
648.863	9.57
649.192	8.85
649.521	9.84
649.85	9.66
650.179	9.76
650.508	9.47
650.837	9.9
651.165	10.23
651.494	9.81
651.822	9.48
652.151	9.25
652.479	9.81
652.808	9.38
653.136	10.11
653.465	9.84
653.793	9.49
654.121	10.08
654.449	9.57
654.777	9.88
655.105	10.01
655.433	9.96
655.761	10.28
656.089	10
656.417	9.67
656.745	9.97
657.073	10.21
657.4	10.28
657.728	9.78
658.056	10.08
658.383	10.67
658.711	10.31
659.038	9.89
659.365	10.49
659.693	10.06
660.02	10.57
660.347	10.82
660.674	10.17
661.001	9.96
661.329	10.49
661.656	10.24
661.982	9.98
662.309	10.58
662.636	10.28
662.963	10.65
663.29	10.29
663.616	10.63
663.943	10.91
664.27	10.73
664.596	10.79
664.923	10.67
665.249	10.74
665.576	10.46
665.902	10.85
666.228	10.68
666.554	10.67
666.881	11.11
667.207	10.48
667.533	10.79
667.859	11.3
668.185	11.2
668.511	11.7
668.837	11.06
669.162	11.24
669.488	10.96
669.814	10.94
670.139	11.33
670.465	11.34
670.791	11.64
671.116	11.35
671.442	11.26
671.767	10.62
672.092	11.41
672.418	12.52
672.743	11.68
673.068	12.23
673.393	10.86
673.718	12.2
674.043	11.96
674.368	11.55
674.693	11.61
675.018	11.69
675.343	11.36
675.667	11.57
675.992	11.33
676.317	12.14
676.641	11.48
676.966	11.55
677.29	11.78
677.615	11.8
677.939	12.41
678.264	12.2
678.588	12.41
678.912	12.27
679.236	12.03
679.56	11.73
679.885	11.45
680.209	12.46
680.532	11.87
680.856	12.04
681.18	12.23
681.504	12.02
681.828	12.39
682.152	11.9
682.475	12.9
682.799	12.6
683.122	11.85
683.446	12.53
683.769	12.2
684.093	12.39
684.416	12.02
684.739	13.23
685.062	12.92
685.386	12.69
685.709	11.85
686.032	12.14
686.355	12.55
686.678	12.71
687.001	13.11
687.324	12.62
687.646	12.54
687.969	13.31
688.292	12.22
688.614	13.46
688.937	12.67
689.26	12.87
689.582	12.71
689.904	13.4
690.227	13.15
690.549	13.4
690.871	12.79
691.194	13.75
691.516	12.84
691.838	13.62
692.16	12.78
692.482	13.75
692.804	13.06
693.126	12.83
693.448	13.51
693.769	12.62
694.091	13.8
694.413	13.53
694.735	13.2
695.056	13.77
695.378	13.02
695.699	13.87
696.021	13.21
696.342	13.82
696.663	12.32
696.984	14.31
697.306	14.1
697.627	13
697.948	13.75
698.269	13.74
698.59	13.3
698.911	12.95
699.232	13.97
699.553	13.52
699.873	14.06
700.194	13.69
700.515	14.01
700.835	14.44
701.156	13.95
701.477	13.46
701.797	13.52
702.117	14.06
702.438	13.96
702.758	13.51
703.078	14.27
703.398	14.25
703.719	14.12
704.039	14.8
704.359	13.47
704.679	13.86
704.999	14.18
705.319	15.35
705.638	14.68
705.958	14.87
706.278	16.15
706.597	16
706.917	14.5
707.237	13.46
707.556	14.56
707.876	13.68
708.195	15.31
708.514	14.95
708.834	14.66
709.153	16.15
709.472	14.99
709.791	14.13
710.11	15.25
710.429	15.64
710.748	15.27
711.067	15.56
711.386	15.1
711.705	15.39
712.023	14.64
712.342	14.35
712.661	15.84
712.979	14.46
713.298	16.29
713.616	15.37
713.935	15.29
714.253	15.99
714.572	15.87
714.89	16.37
715.208	15.81
715.526	14.26
715.844	15.41
716.162	15.11
716.48	15.96
716.798	15.18
717.116	16.29
717.434	15.95
717.752	15.58
718.069	14.89
718.387	15.62
718.705	15.76
719.022	16.45
719.34	15.95
719.657	14.93
719.975	16.08
720.292	15.86
720.609	17.65
720.927	17.29
721.244	16.91
721.561	17.29
721.878	16.16
722.195	15.44
722.512	15.99
722.829	16.87
723.146	18.06
723.463	15.73
723.779	17.85
724.096	17.08
724.413	17.47
724.729	16.32
725.046	17.32
725.362	16.28
725.679	15.67
725.995	17.31
726.311	15.68
726.628	17.02
726.944	16.07
727.26	17.05
727.576	16.08
727.892	14.24
728.208	17.51
728.524	18.8
728.84	16.71
729.156	15.86
729.472	17.28
729.787	16.66
730.103	17.24
730.419	17.73
730.734	17.68
731.05	15.93
731.365	17.39
731.681	16.54
731.996	16.86
732.311	16.86
732.626	15.69
732.942	17.9
733.257	17.23
733.572	16.73
733.887	16.6
734.202	16.69
734.517	18.08
734.832	17.72
735.146	18.5
735.461	17.65
735.776	18
736.091	16.86
736.405	17.19
736.72	17.46
737.034	16.64
737.349	16.23
737.663	17.07
737.977	18.85
738.292	17.66
738.606	18.04
738.92	19.18
739.234	17.98
739.548	19.05
739.862	16.64
740.176	18.89
740.49	17.49
740.804	18.67
741.117	18.36
741.431	17.75
741.745	18.19
742.058	16.65
742.372	17.23
742.685	19.55
742.999	18.43
743.312	18.96
743.626	17.93
743.939	16.04
744.252	20.33
744.565	18.02
744.878	18.62
745.191	17.95
745.505	18.44
745.817	18.89
746.13	19.82
746.443	20.03
746.756	20.01
747.069	20.85
747.381	16.64
747.694	20.29
748.007	18.28
748.319	17.79
748.632	18.78
748.944	20.52
749.256	19.57
749.569	17.44
749.881	17.92
750.193	20.47
750.505	20.9
750.817	20.85
751.129	19.47
751.441	19.56
751.753	18.62
752.065	20.27
752.377	21.1
752.689	19.81
753	20.38
753.312	21.77
753.624	19.12
753.935	21.09
754.247	18.78
754.558	20.55
754.869	20.37
755.181	18.19
755.492	20.25
755.803	21.34
756.114	21.73
756.425	22.9
756.736	17.43
757.047	18.82
757.358	19.45
757.669	20.14
757.98	18.9
758.291	20.73
758.601	18.68
758.912	21.09
759.223	23.16
759.533	20.79
759.844	20.87
760.154	19.82
760.464	19.83
760.775	19.85
761.085	21.31
761.395	19.2
761.705	19.59
762.016	20.41
762.326	19.54
762.636	22.16
762.945	20
763.255	19.7
763.565	19.32
763.875	21.51
764.185	22.17
764.494	20.72
764.804	21.45
765.113	20.91
765.423	19.45
765.732	21.28
766.042	20.91
766.351	20.87
766.66	21.52
766.97	20.96
767.279	20.65
767.588	19.99
767.897	22.29
768.206	21.74
768.515	22.62
768.824	19.6
769.133	21.81
769.441	22.91
769.75	23.02
770.059	23.09
770.367	22.92
770.676	24.58
770.984	19.66
771.293	21.61
771.601	23.06
771.91	23.9
772.218	21.55
772.526	19.65
772.834	21.2
773.142	22.92
773.45	25.6
773.758	22.01
774.066	24.3
774.374	23.36
774.682	21.8
774.99	24.02
775.298	23.58
775.605	20.86
775.913	24.98
776.22	20.05
776.528	20.06
776.835	19.59
777.143	23.23
777.45	24.39
777.757	20.11
778.065	23.75
778.372	24.06
778.679	23.24
778.986	20.77
779.293	23.01
779.6	21.13
779.907	24.18
780.214	24.21
780.52	23.01
780.827	24.51
781.134	23.79
781.44	22.95
781.747	24.57
782.053	20.24
782.36	25.91
782.666	23.84
782.973	24.56
783.279	22.87
783.585	24.29
783.891	25.07
784.197	24.44
784.503	21.92
784.809	20.01
785.115	22.35
785.421	26.7
785.727	24.72
786.033	25.27
786.339	21.19
786.644	22.77
786.95	24.32
787.255	22.16
787.561	25.48
787.866	22.16
788.172	26.98
788.477	19.85
788.782	21.72
789.088	22.85
789.393	18.89
789.698	25.22
790.003	25.02
790.308	24.74
790.613	23.46
790.918	23.95
791.223	19.87
791.527	26.79
791.832	23.87
792.137	22.12
792.441	25.46
792.746	22.17
793.05	23.62
793.355	24.85
793.659	25.19
793.963	27.36
794.268	20.94
794.572	25
794.876	16.94
795.18	22.54
795.484	17.48
795.788	22.13
796.092	24.56
796.396	24.49
796.7	29.25
797.004	20.43
797.307	23.9
797.611	24.66
797.915	21.95
798.218	23.94
798.522	26.26
798.825	25.17
799.128	31.77
799.432	24.15
799.735	24.39
800.038	27.3
800.341	24.63
800.644	26.19
800.947	23.96
801.25	25.26
801.553	26.39
801.856	32.03
802.159	21.94
802.462	27.86
802.764	25.96
803.067	24.91
803.37	28.3
803.672	27.78
803.975	24.33
804.277	30.69
804.579	25.98
804.882	27.53
805.184	26.9
805.486	27.54
805.788	29.4
806.09	32.62
806.392	21.22
806.694	24.83
806.996	29.75
807.298	26.96
807.6	25.56
807.902	25.2
808.203	27.33
808.505	28.19
808.807	27.7
809.108	33.37
809.409	26.34
809.711	23.53
810.012	25.7
810.313	28.52
810.615	27.02
810.916	29.5
811.217	30.35
811.518	24.99
811.819	33.09
812.12	25.19
812.421	24.5
812.722	21.97
813.023	29.58
813.323	24.69
813.624	32.46
813.925	24.71
814.225	27.5
814.526	25.74
814.826	23.9
815.126	26.35
815.427	31.35
815.727	22.74
816.027	20.96
816.327	19.73
816.627	32.15
816.927	27.34
817.227	21.81
817.527	29.51
817.827	19.99
818.127	22.7
818.427	32.37
818.727	30.53
819.026	34.48
819.326	22.65
819.625	25.87
819.925	22.4
820.224	33.21
820.524	25.7
820.823	29.33
821.122	19.61
821.421	31.27
821.72	26.81
822.019	27.09
822.318	32.26
822.617	29.75
822.916	27.9
823.215	28.98
823.514	30.03
823.813	31.52
824.111	29.89
824.41	28.6
824.709	27.06
825.007	28.78
825.306	26.96
825.604	27.57
825.902	28.62
826.201	28.99
826.499	27.36
826.797	28.67
827.095	28.07
827.393	28.94
827.691	28.2
827.989	28.61
828.287	28.05
828.585	27.7
828.882	29.46
829.18	28.96
829.478	30.43
829.775	27.89
830.073	27.76
830.37	26.58
830.668	28.41
830.965	28.72
831.263	29.79
831.56	29.27
831.857	28.37
832.154	29.23
832.451	32.61
832.748	27.8
833.045	31.25
833.342	27.86
833.639	31.76
833.936	32.29
834.232	27.61
834.529	29.6
834.826	31.54
835.122	30.79
835.419	28.77
835.715	29.86
836.012	28.72
836.308	30.84
836.604	32.97
836.901	24.64
837.197	31.17
837.493	30.45
837.789	30.01
838.085	29.77
838.381	27.83
838.677	26.01
838.972	28.6
839.268	32.74
839.564	34.21
839.86	34.51
840.155	34.54
840.451	27.54
840.746	33.18
841.042	27.25
841.337	32.35
841.632	36.23
841.928	30.25
842.223	32.71
842.518	37.05
842.813	33.06
843.108	25.08
843.403	33.45
843.698	35.25
843.993	35.48
844.287	33.38
844.582	33.43
844.877	25.66
845.171	35.9
845.466	34.29
845.761	22.53
846.055	33.77
846.349	35.31
846.644	26.42
846.938	32.88
847.232	28.63
847.526	39.34
847.82	30.86
848.114	33.26
848.408	26.19
848.702	39.08
848.996	14.7
849.29	40.69
849.584	27.22
849.877	37.66
850.171	41.84
850.465	37.59
850.758	22.45
851.052	22.68
851.345	41.72
851.638	29.18
851.932	37.78
852.225	45.05
852.518	33.15
852.811	35.92
853.104	38.96
853.397	31.74
853.69	37.09
853.983	52.81
854.276	30.31
854.569	34.71
854.861	16.27
855.154	48.71
855.447	27.26
855.739	25.37
856.032	33.06
856.324	28.56
856.616	46.57
856.909	28.82
857.201	26.55
857.493	43.51
857.785	47.56
858.077	64.01
858.369	51.07
858.661	61.53
858.953	27.79
859.245	61.93
859.537	50.39
859.829	53.41
860.12	14.8
860.412	32.81
860.703	32.99
860.995	44.5
861.286	56.65
861.578	45.98
861.869	42.54
862.16	-2.28
862.452	-0.86
862.743	43.14
863.034	68.58
863.325	54.99
863.616	9.56
863.907	24.44
864.198	33.71
864.488	61.28
864.779	4.92
865.07	6
865.36	28.73
865.651	28.71
865.941	12.16
866.232	36.88
866.522	50.28
866.813	67.64
867.103	36.92
867.393	38.39
867.683	37.88
867.973	29.13
868.263	50.27
868.553	33.96
868.843	33.06
869.133	52.38
869.423	32.87
869.713	33.77
870.002	53.96
870.292	33.54
870.582	31.45
870.871	20.91
871.161	33.68
871.45	61.8
871.739	31.12
872.029	48.06
872.318	6.2
872.607	40.95
872.896	35.51
873.185	42.87
873.474	40.24
873.763	19.81
874.052	15.57
874.341	50.47
874.63	53.5
874.918	35.25
875.207	46.02
875.496	39.97
875.784	-5.53
876.073	39.48
876.361	20.65
876.649	30.95
876.938	63.57
877.226	31.14
877.514	55.09
877.802	43.27
878.09	53.88
878.378	38.46
878.666	54.53
878.954	11.09
879.242	54.17
879.53	57.72
879.817	51.69
880.105	27.64
880.392	76.02
880.68	16.11
880.967	43.72
881.255	51.59
881.542	61.73
881.83	33.85
882.117	41.62
882.404	47.56
882.691	37.59
882.978	21.83
883.265	10.35
883.552	47.47
883.839	10.8
884.126	44.94
884.413	39.64
884.699	42.53
884.986	37.24
885.273	29.43
885.559	29.43
885.846	29.43
