Data from 0372_forehead_Reflection__1__165.txt Node

Date: Fri Dec 15 18:04:37 CST 2023
User: ToomeyLab
Spectrometer: FLMS14357
Trigger mode: 0
Integration Time (sec): 1.000000E-2
Scans to average: 100
Electric dark correction enabled: true
Nonlinearity correction enabled: false
Boxcar width: 0
XAxis mode: Wavelengths
Number of Pixels in Spectrum: 2048
>>>>>Begin Spectral Data<<<<<
189.047	116.41
189.435	116.41
189.823	116.41
190.211	-150.78
190.599	635.86
190.987	205.71
191.375	-47.5
191.763	211.02
192.151	23.87
192.538	113.2
192.926	-1012.32
193.314	316.08
193.702	2224.3
194.089	20.64
194.477	19.45
194.864	7.98
195.252	116.72
195.639	122.86
196.027	114.31
196.414	97.33
196.801	-445.74
197.189	44.97
197.576	2261.82
197.963	245.49
198.351	-10.83
198.738	-55.83
199.125	60.57
199.512	2.12
199.899	44.62
200.286	56.86
200.673	-29.4
201.06	18.13
201.447	-16.66
201.833	-5.88
202.22	3.14
202.607	64.09
202.994	33.41
203.38	29.03
203.767	34.2
204.154	14.71
204.54	13.32
204.927	-25.94
205.313	4.88
205.699	7.78
206.086	20.92
206.472	31.17
206.858	-16.78
207.245	-34.13
207.631	3.01
208.017	11.69
208.403	-17.28
208.789	24.04
209.175	9.57
209.561	-25.18
209.947	47.48
210.333	6.67
210.719	19.78
211.105	-3.74
211.491	9.91
211.876	4.76
212.262	34.95
212.648	6.11
213.034	35.19
213.419	15.13
213.805	33.05
214.19	-14.38
214.576	-39.04
214.961	-19.59
215.346	-49.69
215.732	0.35
216.117	20.04
216.502	-21.35
216.888	27.66
217.273	47.6
217.658	4
218.043	14.57
218.428	-35.94
218.813	-27.71
219.198	-39.1
219.583	-17.24
219.968	-0.97
220.353	-12.89
220.738	1.16
221.122	13.8
221.507	-31.83
221.892	-35.7
222.276	-20.37
222.661	6.16
223.046	13.77
223.43	11.98
223.815	12.59
224.199	-3.52
224.583	7.96
224.968	15.52
225.352	13.14
225.736	-3.04
226.121	-19.49
226.505	3.84
226.889	3.44
227.273	-8.5
227.657	6.71
228.041	4.13
228.425	-3.58
228.809	6.41
229.193	4.27
229.577	1.87
229.961	4.53
230.344	2.71
230.728	3.21
231.112	3.33
231.495	2.79
231.879	3.55
232.263	2.99
232.646	3.38
233.03	2.49
233.413	0.85
233.797	2.35
234.18	4.17
234.563	3.66
234.946	1.24
235.33	5.06
235.713	2.06
236.096	3.37
236.479	3.64
236.862	1.65
237.245	6.6
237.628	2.17
238.011	3.85
238.394	6.04
238.777	1.95
239.16	1.59
239.543	2
239.925	3.55
240.308	3.52
240.691	6.27
241.073	5.11
241.456	3.32
241.838	2.89
242.221	2
242.603	3.64
242.986	3.63
243.368	4.16
243.75	4.06
244.133	3.51
244.515	3.97
244.897	3.53
245.279	3.76
245.661	2.83
246.043	3.07
246.425	2.38
246.807	3.74
247.189	5.5
247.571	3.45
247.953	3.53
248.335	3.97
248.717	4.04
249.098	3.63
249.48	3.75
249.862	3.78
250.243	3.85
250.625	3.88
251.006	4.29
251.388	2.15
251.769	3.84
252.151	4.9
252.532	4.74
252.913	3.59
253.295	3.07
253.676	3.33
254.057	4
254.438	3.92
254.819	3.49
255.2	3.04
255.581	4.95
255.962	1.86
256.343	4.27
256.724	3.18
257.105	3.67
257.486	3.81
257.867	3.5
258.247	3.66
258.628	3.31
259.009	2.67
259.389	3.49
259.77	3.77
260.15	3.1
260.531	3.39
260.911	4.43
261.292	3.84
261.672	3.98
262.052	3.67
262.432	3.95
262.813	3.6
263.193	4.09
263.573	3.85
263.953	3.32
264.333	4.41
264.713	4.11
265.093	2.88
265.473	3.18
265.853	2.6
266.233	3.79
266.612	1.96
266.992	2.34
267.372	4.83
267.752	3.73
268.131	3.9
268.511	3.88
268.89	4.06
269.27	3.6
269.649	3.17
270.029	3.31
270.408	4.84
270.787	4.25
271.167	3.89
271.546	3.53
271.925	3.63
272.304	3.53
272.683	3.88
273.062	3.37
273.441	3.94
273.82	2.73
274.199	3.55
274.578	3.85
274.957	3.35
275.336	3.26
275.715	3.18
276.093	3.12
276.472	3.07
276.851	3.07
277.229	3.28
277.608	2.9
277.986	3.37
278.365	3.5
278.743	3.43
279.122	3.09
279.5	3.4
279.878	3.74
280.257	4.25
280.635	3.77
281.013	2.62
281.391	3.7
281.769	3.28
282.147	4.04
282.525	4.23
282.903	3.06
283.281	3.47
283.659	3.58
284.037	3.87
284.415	3.93
284.792	3.63
285.17	2.93
285.548	3.53
285.925	3.61
286.303	3.83
286.68	3.46
287.058	3.41
287.435	3.29
287.813	3.75
288.19	3.35
288.567	3.7
288.945	4.07
289.322	3.73
289.699	3.51
290.076	3.99
290.453	3.76
290.83	3.25
291.207	3.85
291.584	3.78
291.961	4
292.338	3.85
292.715	4.15
293.092	3.93
293.469	3.41
293.845	4.26
294.222	3.36
294.599	4.14
294.975	3.42
295.352	4.38
295.728	4.05
296.105	4.25
296.481	4.38
296.858	4.54
297.234	4.2
297.61	4.26
297.986	4.61
298.363	4.88
298.739	4.93
299.115	4.25
299.491	4.12
299.867	4.43
300.243	4.68
300.619	4.1
300.995	4.69
301.371	4.76
301.746	4.44
302.122	5.48
302.498	4.06
302.874	4.75
303.249	4.86
303.625	4.67
304	5.47
304.376	4.68
304.751	4.01
305.127	5.08
305.502	4.22
305.878	4.44
306.253	4.99
306.628	5.21
307.003	4.86
307.378	5.32
307.754	5.18
308.129	4.29
308.504	5.28
308.879	4.29
309.254	5.81
309.629	5.58
310.003	4.94
310.378	5.72
310.753	6.02
311.128	5.27
311.502	5.11
311.877	5.93
312.252	5.7
312.626	5.37
313.001	5.46
313.375	5.73
313.75	5.34
314.124	5.81
314.498	5.56
314.873	5.51
315.247	5.17
315.621	5.89
315.995	4.81
316.369	5.49
316.743	5.61
317.117	6.51
317.491	5.5
317.865	5.92
318.239	6.34
318.613	5.98
318.987	6.26
319.361	5.31
319.734	5.98
320.108	6.46
320.482	5.99
320.855	5.95
321.229	5.86
321.602	5.93
321.976	6.59
322.349	6.05
322.723	6.06
323.096	5.91
323.469	5.17
323.843	6.44
324.216	6.47
324.589	5.91
324.962	5.88
325.335	6.37
325.708	6.27
326.081	6.43
326.454	6
326.827	6.01
327.2	6.29
327.573	6.16
327.945	6.52
328.318	5.95
328.691	5.52
329.063	6.55
329.436	5.99
329.809	6.38
330.181	6.21
330.553	6.41
330.926	5.95
331.298	6.7
331.671	6.04
332.043	6.39
332.415	7.04
332.787	6.78
333.159	7.16
333.532	6.48
333.904	6.59
334.276	6.6
334.648	6.72
335.02	6.71
335.391	6.87
335.763	5.51
336.135	6.4
336.507	6.74
336.879	6.5
337.25	6.35
337.622	6.54
337.993	6.71
338.365	6.71
338.736	6.98
339.108	6.76
339.479	6.28
339.851	6.55
340.222	6.51
340.593	6.94
340.964	6.43
341.336	7.19
341.707	6.32
342.078	7.38
342.449	7.18
342.82	6.29
343.191	6.58
343.562	7.11
343.933	7.29
344.303	6.71
344.674	6.73
345.045	7.12
345.416	6.84
345.786	6.54
346.157	7.81
346.527	6.41
346.898	6.47
347.268	7.29
347.639	6.96
348.009	7.19
348.38	6.58
348.75	7.18
349.12	7.05
349.49	7.63
349.861	7.21
350.231	6.86
350.601	7.54
350.971	7.4
351.341	6.86
351.711	7.48
352.081	7.15
352.45	6.78
352.82	7.37
353.19	6.99
353.56	7
353.929	7.32
354.299	7.2
354.669	6.68
355.038	7.4
355.408	6.89
355.777	7.41
356.147	7.31
356.516	7.53
356.885	7.29
357.254	7.29
357.624	7.42
357.993	7.36
358.362	7.08
358.731	7.35
359.1	7
359.469	7.17
359.838	7.74
360.207	7.6
360.576	7.06
360.945	6.93
361.314	7.53
361.682	7.01
362.051	7.47
362.42	7.7
362.788	7.46
363.157	7.26
363.525	7.66
363.894	7.61
364.262	7.3
364.631	7.3
364.999	7.51
365.367	7.38
365.735	7.68
366.104	7.63
366.472	7.54
366.84	7.29
367.208	7.36
367.576	7.91
367.944	7.73
368.312	7.62
368.68	7.14
369.048	8.24
369.416	7.96
369.783	7.41
370.151	7.98
370.519	8.35
370.886	8.12
371.254	7.57
371.621	8.14
371.989	7.8
372.356	7.54
372.724	7.96
373.091	7.75
373.458	7.76
373.826	7.88
374.193	7.92
374.56	7.81
374.927	8.17
375.294	7.87
375.661	7.87
376.028	7.42
376.395	7.56
376.762	8.15
377.129	8.17
377.496	7.92
377.863	8.35
378.229	7.64
378.596	8.23
378.963	7.95
379.329	8.06
379.696	8.15
380.062	8.27
380.429	8.22
380.795	8.26
381.161	8.44
381.528	8.29
381.894	8.16
382.26	8.26
382.626	8.39
382.993	8.26
383.359	8.81
383.725	8.39
384.091	8.26
384.457	8.32
384.823	8.04
385.188	8.71
385.554	8.2
385.92	8.55
386.286	8.7
386.651	8.85
387.017	8.8
387.383	8.44
387.748	8.32
388.114	8.58
388.479	8.36
388.845	8.57
389.21	8.55
389.575	8.77
389.94	8.48
390.306	8.71
390.671	8.94
391.036	8.38
391.401	8.26
391.766	8.48
392.131	8.61
392.496	8.81
392.861	8.25
393.226	8.97
393.591	8.69
393.956	8.78
394.32	8.73
394.685	8.66
395.05	8.61
395.414	8.78
395.779	8.54
396.143	8.99
396.508	8.67
396.872	9.12
397.236	8.82
397.601	9.06
397.965	8.91
398.329	8.85
398.694	8.87
399.058	8.65
399.422	8.61
399.786	8.77
400.15	9.03
400.514	8.84
400.878	8.85
401.242	9.13
401.605	9.03
401.969	8.95
402.333	8.95
402.697	8.76
403.06	9.18
403.424	8.98
403.787	8.79
404.151	9.09
404.514	8.92
404.878	9.13
405.241	9.14
405.604	9.09
405.968	9.29
406.331	9.12
406.694	9.35
407.057	9.2
407.42	9.23
407.783	9.08
408.146	9.03
408.509	9.21
408.872	9.03
409.235	9.45
409.598	9.52
409.961	9.12
410.323	9.22
410.686	9.08
411.049	9.32
411.411	9.25
411.774	9.23
412.136	9.46
412.499	9.28
412.861	9.14
413.223	9.44
413.586	9.28
413.948	9.16
414.31	9.34
414.672	9.15
415.035	9.07
415.397	9.67
415.759	9.33
416.121	9.61
416.483	9.43
416.845	9.28
417.206	9.23
417.568	9.57
417.93	9.26
418.292	9.5
418.653	9.54
419.015	9.43
419.377	9.39
419.738	9.56
420.1	9.68
420.461	9.6
420.822	9.62
421.184	9.43
421.545	9.6
421.906	9.36
422.267	9.49
422.629	9.48
422.99	9.52
423.351	9.45
423.712	9.57
424.073	9.64
424.434	9.64
424.795	9.68
425.155	9.67
425.516	9.59
425.877	9.61
426.238	9.59
426.598	9.76
426.959	9.68
427.32	9.58
427.68	9.69
428.041	9.86
428.401	9.92
428.761	9.92
429.122	9.93
429.482	9.94
429.842	10.1
430.202	10.08
430.563	9.88
430.923	9.91
431.283	10.13
431.643	10.23
432.003	10.01
432.363	10.32
432.722	10.22
433.082	10.3
433.442	10.14
433.802	10.11
434.161	10.07
434.521	10.31
434.881	10.24
435.24	10.11
435.6	10.25
435.959	10.2
436.319	10.26
436.678	10.24
437.037	10.27
437.396	10.25
437.756	10.38
438.115	10.13
438.474	10.54
438.833	10.12
439.192	10.43
439.551	10.57
439.91	10.48
440.269	10.46
440.628	10.26
440.987	10.41
441.345	10.27
441.704	10.4
442.063	10.38
442.421	10.4
442.78	10.51
443.138	10.3
443.497	10.52
443.855	10.65
444.214	10.61
444.572	10.63
444.93	10.65
445.288	10.66
445.647	10.77
446.005	10.63
446.363	10.64
446.721	10.74
447.079	10.57
447.437	10.59
447.795	10.71
448.153	10.39
448.51	10.63
448.868	10.64
449.226	10.58
449.584	10.66
449.941	10.87
450.299	10.73
450.656	10.75
451.014	10.98
451.371	10.88
451.729	10.77
452.086	11.01
452.443	11.07
452.801	10.97
453.158	10.97
453.515	10.93
453.872	11.05
454.229	11.01
454.586	10.95
454.943	10.9
455.3	11.04
455.657	11.06
456.014	11.02
456.371	11.21
456.727	11.1
457.084	11.32
457.441	11.21
457.797	11.16
458.154	11.29
458.51	11.25
458.867	11.46
459.223	11.33
459.58	11.37
459.936	11.42
460.292	11.3
460.648	11.31
461.005	11.18
461.361	11.3
461.717	11.01
462.073	11.05
462.429	11.22
462.785	11.34
463.141	11.41
463.496	11.37
463.852	11.62
464.208	11.56
464.564	11.6
464.919	11.67
465.275	11.82
465.631	11.83
465.986	11.48
466.342	11.75
466.697	11.57
467.052	11.64
467.408	11.64
467.763	11.77
468.118	11.77
468.473	11.66
468.829	11.74
469.184	11.66
469.539	11.73
469.894	11.76
470.249	12.03
470.603	11.82
470.958	12.12
471.313	12.07
471.668	12.29
472.023	12.09
472.377	11.96
472.732	11.96
473.086	12.01
473.441	11.77
473.795	12.08
474.15	12.04
474.504	12.03
474.859	12.2
475.213	11.9
475.567	12.16
475.921	12.01
476.275	12.3
476.63	12.29
476.984	12.2
477.338	12.2
477.692	11.96
478.045	12.11
478.399	12.25
478.753	12.32
479.107	12.07
479.461	12.28
479.814	12.12
480.168	12.27
480.521	12.44
480.875	12.18
481.228	12.23
481.582	12.37
481.935	12.31
482.289	12.35
482.642	12.36
482.995	12.2
483.348	12.13
483.701	12.26
484.055	12.32
484.408	12.41
484.761	12.13
485.114	11.95
485.466	11.68
485.819	11.71
486.172	11.67
486.525	11.91
486.878	11.97
487.23	12.08
487.583	12.2
487.936	12.25
488.288	12.24
488.641	12.34
488.993	12.17
489.345	12.01
489.698	12.1
490.05	12.04
490.402	12.2
490.754	12.3
491.107	12.47
491.459	12.51
491.811	12.61
492.163	12.68
492.515	12.6
492.866	12.48
493.218	12.47
493.57	12.32
493.922	12.34
494.274	12.52
494.625	12.64
494.977	12.75
495.328	12.91
495.68	13.03
496.031	13.11
496.383	13.12
496.734	13.2
497.086	13.13
497.437	12.93
497.788	13.11
498.139	13.06
498.49	12.99
498.842	12.94
499.193	12.97
499.544	13.16
499.894	13.15
500.245	13.2
500.596	13.08
500.947	13.22
501.298	13.25
501.648	13.24
501.999	13.33
502.35	13.26
502.7	13.39
503.051	13.39
503.401	13.25
503.752	13.65
504.102	13.42
504.452	13.55
504.803	13.43
505.153	13.51
505.503	13.53
505.853	13.6
506.203	13.49
506.553	13.53
506.903	13.59
507.253	13.73
507.603	13.53
507.953	13.71
508.303	13.89
508.652	13.53
509.002	13.76
509.352	13.87
509.701	13.72
510.051	13.69
510.4	13.79
510.75	13.63
511.099	13.75
511.449	13.76
511.798	13.77
512.147	13.87
512.496	13.86
512.846	13.99
513.195	13.84
513.544	13.86
513.893	14.02
514.242	14.03
514.591	14.17
514.939	13.95
515.288	13.99
515.637	14.18
515.986	14.1
516.334	14.14
516.683	14.21
517.032	14.14
517.38	14.37
517.729	14.23
518.077	14.06
518.426	14.21
518.774	14.16
519.122	14.26
519.47	14.26
519.819	14.15
520.167	14.11
520.515	14.1
520.863	14.17
521.211	14.2
521.559	14.37
521.907	14.22
522.255	14.31
522.602	14.5
522.95	14.44
523.298	14.52
523.645	14.57
523.993	14.59
524.341	14.69
524.688	14.77
525.036	14.62
525.383	14.69
525.73	14.76
526.078	14.72
526.425	14.49
526.772	14.61
527.119	14.45
527.466	14.45
527.814	14.4
528.161	14.43
528.508	14.55
528.854	14.59
529.201	14.6
529.548	14.51
529.895	14.31
530.242	14.09
530.588	13.94
530.935	14.08
531.282	14.21
531.628	14.3
531.975	14.51
532.321	14.61
532.667	14.65
533.014	14.81
533.36	14.83
533.706	14.79
534.052	14.88
534.399	14.85
534.745	14.65
535.091	14.59
535.437	14.71
535.783	14.76
536.129	14.9
536.474	14.94
536.82	15.05
537.166	15.08
537.512	15.19
537.857	15.2
538.203	15.29
538.549	14.98
538.894	15.09
539.239	15.26
539.585	15.4
539.93	15.41
540.276	15.56
540.621	15.57
540.966	15.49
541.311	15.42
541.656	15.34
542.001	15.38
542.346	15.46
542.691	15.2
543.036	15.08
543.381	14.92
543.726	15.07
544.071	15.26
544.415	15.35
544.76	15.44
545.105	15.5
545.449	15.49
545.794	15.57
546.138	15.82
546.483	15.92
546.827	15.88
547.171	15.77
547.516	15.89
547.86	15.86
548.204	15.85
548.548	15.83
548.892	15.88
549.236	15.89
549.58	16.03
549.924	15.98
550.268	16.3
550.612	16.28
550.956	16.34
551.3	16.37
551.643	16.36
551.987	16.46
552.33	16.45
552.674	16.3
553.017	16.63
553.361	16.38
553.704	16.64
554.048	16.43
554.391	16.56
554.734	16.27
555.077	16.47
555.42	16.27
555.764	16.49
556.107	16.42
556.45	16.54
556.793	16.57
557.135	16.75
557.478	16.85
557.821	16.69
558.164	16.76
558.507	16.85
558.849	16.66
559.192	16.66
559.534	16.81
559.877	16.96
560.219	16.93
560.562	17.06
560.904	16.87
561.246	17
561.589	17.06
561.931	16.94
562.273	17.07
562.615	17.18
562.957	16.97
563.299	16.85
563.641	17
563.983	17.18
564.325	17.06
564.667	17.15
565.008	17.39
565.35	17.22
565.692	17.1
566.033	17.2
566.375	17.45
566.716	17.47
567.058	17.31
567.399	17.16
567.741	17.06
568.082	17.18
568.423	17.18
568.764	17.33
569.105	17.4
569.447	17.53
569.788	17.64
570.129	17.46
570.47	17.52
570.811	17.59
571.151	17.51
571.492	17.4
571.833	17.49
572.174	17.52
572.514	17.6
572.855	17.57
573.195	17.44
573.536	17.62
573.876	17.55
574.217	17.38
574.557	17.62
574.898	17.48
575.238	17.89
575.578	17.64
575.918	17.84
576.258	17.89
576.598	17.72
576.938	17.6
577.278	17.79
577.618	17.62
577.958	17.81
578.298	17.83
578.638	17.77
578.977	17.89
579.317	17.88
579.657	17.98
579.996	18
580.336	18.29
580.675	18.2
581.014	18.19
581.354	18.21
581.693	18.57
582.032	18.4
582.372	18.14
582.711	18.42
583.05	18.15
583.389	18.34
583.728	18.24
584.067	18.62
584.406	18.62
584.745	18.39
585.083	18.32
585.422	18.61
585.761	18.56
586.1	18.69
586.438	18.48
586.777	18.68
587.115	18.78
587.454	18.73
587.792	19.04
588.13	18.8
588.469	18.53
588.807	18.69
589.145	18.79
589.483	18.93
589.821	18.62
590.159	18.75
590.497	19.03
590.835	19.16
591.173	18.78
591.511	18.82
591.849	18.75
592.187	18.81
592.524	19.15
592.862	18.69
593.2	19.3
593.537	19.07
593.875	18.88
594.212	18.89
594.55	19.01
594.887	19.39
595.224	18.81
595.561	19.09
595.899	19.1
596.236	19.21
596.573	19.19
596.91	18.72
597.247	18.77
597.584	19.2
597.921	18.96
598.258	19.12
598.594	18.96
598.931	19.14
599.268	19.06
599.604	18.97
599.941	19.42
600.277	19.07
600.614	19.43
600.95	19.08
601.287	19.54
601.623	19.68
601.959	19.35
602.296	19.69
602.632	19.52
602.968	19.73
603.304	19.61
603.64	19.62
603.976	19.66
604.312	19.63
604.648	19.55
604.984	19.49
605.319	19.53
605.655	19.54
605.991	19.56
606.326	19.37
606.662	19.45
606.998	19.28
607.333	19.43
607.668	19.4
608.004	19.94
608.339	20.1
608.674	20.06
609.01	19.97
609.345	19.85
609.68	20.13
610.015	19.85
610.35	20
610.685	19.63
611.02	19.67
611.355	19.67
611.689	19.7
612.024	19.98
612.359	19.99
612.694	20.07
613.028	19.85
613.363	20.5
613.697	20.22
614.032	20.65
614.366	20.16
614.7	20.58
615.035	20.66
615.369	20.36
615.703	20.37
616.037	20.5
616.371	20.09
616.705	20.37
617.039	20.4
617.373	20.34
617.707	20.65
618.041	20.56
618.375	20.74
618.709	20.5
619.042	20.5
619.376	20.6
619.71	20.7
620.043	20.99
620.377	20.52
620.71	20.62
621.043	20.5
621.377	20.34
621.71	20.5
622.043	20.67
622.376	20.52
622.709	20.75
623.043	20.7
623.376	20.64
623.709	20.63
624.041	20.95
624.374	20.85
624.707	21.23
625.04	21.25
625.373	20.65
625.705	20.97
626.038	20.76
626.37	20.61
626.703	20.64
627.035	21.31
627.368	21.55
627.7	20.78
628.032	20.97
628.365	21.24
628.697	21.05
629.029	20.6
629.361	20.86
629.693	21.2
630.025	21.09
630.357	21.48
630.689	21.27
631.021	21.03
631.353	21.27
631.684	21.43
632.016	21.18
632.348	21.4
632.679	21.24
633.011	21.43
633.342	21.98
633.674	21.45
634.005	21.78
634.336	21.57
634.668	21.91
634.999	21.58
635.33	21.49
635.661	21.87
635.992	21.14
636.323	21.55
636.654	21.57
636.985	21.6
637.316	21.56
637.647	21.09
637.977	21.91
638.308	21.91
638.639	21.3
638.969	21.31
639.3	21.37
639.63	21.65
639.961	21.19
640.291	22.18
640.622	22.31
640.952	21.88
641.282	22.3
641.612	22.23
641.943	21.89
642.273	22.2
642.603	22.14
642.933	22.27
643.263	22.27
643.592	22.43
643.922	21.67
644.252	21.96
644.582	21.88
644.911	21.55
645.241	21.86
645.571	22.12
645.9	21.87
646.23	22.36
646.559	22.09
646.888	22.27
647.218	22.09
647.547	22.31
647.876	21.8
648.205	21.82
648.534	21.79
648.863	21.7
649.192	22.65
649.521	21.99
649.85	22.15
650.179	21.93
650.508	22.24
650.837	22.12
651.165	22.36
651.494	22.46
651.822	22.3
652.151	22.35
652.479	22.55
652.808	22.16
653.136	22.42
653.465	21.88
653.793	21.73
654.121	22.44
654.449	22.39
654.777	22.44
655.105	22.93
655.433	21.94
655.761	22.76
656.089	22.9
656.417	23.06
656.745	22.56
657.073	22.53
657.4	22.88
657.728	22.51
658.056	22.73
658.383	22.56
658.711	22.66
659.038	23.12
659.365	23.24
659.693	22.97
660.02	22.89
660.347	22.54
660.674	22.79
661.001	22.52
661.329	21.59
661.656	22.7
661.982	22.96
662.309	22.84
662.636	22.41
662.963	23.51
663.29	23.05
663.616	23.05
663.943	22.48
664.27	23.42
664.596	23.56
664.923	22.72
665.249	22.74
665.576	22.67
665.902	23.38
666.228	23.62
666.554	23.71
666.881	22.78
667.207	23.49
667.533	23.07
667.859	23.66
668.185	23.37
668.511	22.73
668.837	22.55
669.162	23.36
669.488	23.16
669.814	23.77
670.139	23.61
670.465	23.23
670.791	23.24
671.116	24.16
671.442	23.64
671.767	23.22
672.092	24.24
672.418	23.58
672.743	23.75
673.068	23.6
673.393	22.98
673.718	23.26
674.043	23.66
674.368	23.2
674.693	24.31
675.018	23.85
675.343	23.19
675.667	23.95
675.992	23.65
676.317	24.04
676.641	24.17
676.966	23.99
677.29	23.24
677.615	24.28
677.939	24.55
678.264	24.14
678.588	24.02
678.912	23.97
679.236	24.8
679.56	23.81
679.885	24.02
680.209	23.78
680.532	23.99
680.856	24.63
681.18	23.34
681.504	23.91
681.828	24.16
682.152	23.78
682.475	23.61
682.799	24.33
683.122	24.16
683.446	23.81
683.769	24.42
684.093	23.46
684.416	24.06
684.739	24.06
685.062	24.05
685.386	24.61
685.709	23.92
686.032	24.32
686.355	24.92
686.678	24.13
687.001	24.71
687.324	24.94
687.646	23.48
687.969	23.82
688.292	23.69
688.614	24.27
688.937	24.89
689.26	24.34
689.582	24.57
689.904	24.4
690.227	24.73
690.549	24.55
690.871	25.05
691.194	24.2
691.516	23.86
691.838	24.52
692.16	24.86
692.482	24.26
692.804	24.44
693.126	24.65
693.448	24.33
693.769	25.51
694.091	25.11
694.413	25.12
694.735	24.29
695.056	25.12
695.378	24.3
695.699	23.71
696.021	24.3
696.342	24.39
696.663	24.57
696.984	25.11
697.306	24.33
697.627	24.64
697.948	25.18
698.269	25.05
698.59	25.68
698.911	23.89
699.232	23.8
699.553	24.84
699.873	24.91
700.194	25.63
700.515	25.11
700.835	24.61
701.156	24.56
701.477	25.08
701.797	24.91
702.117	25.65
702.438	24.54
702.758	25.85
703.078	25.23
703.398	25.57
703.719	25.31
704.039	24.33
704.359	25.65
704.679	25.8
704.999	25.02
705.319	24.49
705.638	25.82
705.958	25.61
706.278	25.3
706.597	25.17
706.917	25.81
707.237	25.87
707.556	26.3
707.876	25.5
708.195	26.68
708.514	24.43
708.834	27.12
709.153	26.16
709.472	26.09
709.791	26.13
710.11	24.68
710.429	27.17
710.748	26.06
711.067	26.09
711.386	25.47
711.705	26.31
712.023	26.7
712.342	24.37
712.661	24.73
712.979	24.74
713.298	24.88
713.616	25.38
713.935	25.38
714.253	25.49
714.572	26.42
714.89	25.5
715.208	27.36
715.526	25.56
715.844	27.54
716.162	26.63
716.48	25.47
716.798	25.96
717.116	26.23
717.434	25.14
717.752	24.73
718.069	25.3
718.387	26.35
718.705	25.99
719.022	25.75
719.34	25.45
719.657	25.05
719.975	26.55
720.292	26.63
720.609	26.63
720.927	26.87
721.244	28.37
721.561	26.52
721.878	27.03
722.195	26.1
722.512	26.4
722.829	26.28
723.146	27.19
723.463	26.54
723.779	25.29
724.096	26.63
724.413	26.53
724.729	26.18
725.046	25.98
725.362	24.82
725.679	24.81
725.995	25.98
726.311	25.8
726.628	26.07
726.944	27.56
727.26	26.88
727.576	27.77
727.892	26.63
728.208	26.61
728.524	26.06
728.84	26.07
729.156	24.65
729.472	26.26
729.787	25.72
730.103	27.49
730.419	27.28
730.734	26.92
731.05	26.04
731.365	26.98
731.681	26.62
731.996	26.31
732.311	25.93
732.626	26.81
732.942	26.38
733.257	27.76
733.572	26.69
733.887	26.24
734.202	27.42
734.517	26.03
734.832	26.12
735.146	27.23
735.461	26.83
735.776	26.75
736.091	26.1
736.405	28.46
736.72	26.69
737.034	27.53
737.349	28.01
737.663	27.55
737.977	25.49
738.292	25.89
738.606	27.22
738.92	28.05
739.234	26.91
739.548	26.89
739.862	26.96
740.176	27.1
740.49	27.01
740.804	28.68
741.117	28.72
741.431	26.61
741.745	25.55
742.058	27.59
742.372	26.27
742.685	25.18
742.999	26.76
743.312	25.86
743.626	27.28
743.939	28.88
744.252	28.5
744.565	26.56
744.878	27.93
745.191	26.71
745.505	25.68
745.817	27.08
746.13	27.49
746.443	29.86
746.756	27.31
747.069	28.68
747.381	27.86
747.694	26.6
748.007	27.4
748.319	25.34
748.632	27.42
748.944	29.63
749.256	27.66
749.569	30.89
749.881	29.6
750.193	27.87
750.505	27.07
750.817	26.33
751.129	29.83
751.441	27.7
751.753	28.79
752.065	30.72
752.377	27.58
752.689	28.32
753	28.75
753.312	29.56
753.624	26.84
753.935	28.29
754.247	29.36
754.558	26.81
754.869	27.56
755.181	28.91
755.492	28.4
755.803	29.12
756.114	27.35
756.425	27.98
756.736	26.29
757.047	28.11
757.358	28.33
757.669	29.21
757.98	27.22
758.291	28.3
758.601	28.67
758.912	28.69
759.223	27.67
759.533	28.01
759.844	27.85
760.154	27.2
760.464	29.14
760.775	31.91
761.085	28.59
761.395	27.85
761.705	27.55
762.016	26.84
762.326	28.4
762.636	27.89
762.945	28.25
763.255	28.86
763.565	27.15
763.875	30.45
764.185	28.41
764.494	28.25
764.804	28.28
765.113	29.62
765.423	27.38
765.732	27.93
766.042	28.09
766.351	28.21
766.66	27.63
766.97	30.46
767.279	27.67
767.588	32.56
767.897	31
768.206	27.2
768.515	29.24
768.824	28.29
769.133	27.87
769.441	27.55
769.75	30.07
770.059	31.29
770.367	27.19
770.676	32.12
770.984	32.39
771.293	29.11
771.601	31.61
771.91	29.22
772.218	28.03
772.526	29.19
772.834	26.92
773.142	23.82
773.45	26.01
773.758	27.4
774.066	30.76
774.374	27.01
774.682	27.06
774.99	31.19
775.298	28.64
775.605	28.15
775.913	29.51
776.22	33.37
776.528	29.55
776.835	29.41
777.143	29.69
777.45	27.37
777.757	32.48
778.065	30.06
778.372	28.83
778.679	24.51
778.986	30.53
779.293	27.53
779.6	29.54
779.907	30.15
780.214	30.52
780.52	31.19
780.827	32.08
781.134	32.09
781.44	26.87
781.747	27.77
782.053	31.78
782.36	27.87
782.666	30.42
782.973	29.01
783.279	27.68
783.585	26.78
783.891	27.74
784.197	27.08
784.503	29.55
784.809	26.79
785.115	32.31
785.421	33.48
785.727	28.48
786.033	28.79
786.339	31.17
786.644	30.6
786.95	29.48
787.255	30.07
787.561	33.18
787.866	29.5
788.172	28
788.477	32.2
788.782	28.49
789.088	31.91
789.393	28.74
789.698	29.9
790.003	26.15
790.308	27.75
790.613	27.07
790.918	31.55
791.223	30.3
791.527	26.9
791.832	30.76
792.137	29.55
792.441	26.48
792.746	27.59
793.05	26.11
793.355	29.57
793.659	33.43
793.963	30.1
794.268	28.55
794.572	33.57
794.876	30.2
795.18	28.79
795.484	26.62
795.788	26.78
796.092	27.69
796.396	31.93
796.7	29.02
797.004	25.71
797.307	24.64
797.611	33.45
797.915	29.32
798.218	27.06
798.522	30.93
798.825	27.89
799.128	34.72
799.432	27.79
799.735	30.74
800.038	34.4
800.341	30.18
800.644	32.14
800.947	33.43
801.25	29.61
801.553	23.06
801.856	27.6
802.159	25.08
802.462	26
802.764	31.78
803.067	27.82
803.37	30.66
803.672	25.54
803.975	28.39
804.277	24.41
804.579	29.98
804.882	25.26
805.184	26.77
805.486	28.22
805.788	29.44
806.09	29.14
806.392	31.35
806.694	30.82
806.996	32.24
807.298	29.96
807.6	30.82
807.902	31.74
808.203	31.65
808.505	27.94
808.807	24.59
809.108	28.19
809.409	30.22
809.711	28.53
810.012	29.88
810.313	31.85
810.615	29.27
810.916	27.47
811.217	28.81
811.518	35.21
811.819	34.72
812.12	35.39
812.421	30.95
812.722	36.17
813.023	33.44
813.323	32.73
813.624	26.37
813.925	37.66
814.225	35.26
814.526	34.9
814.826	28.8
815.126	21.38
815.427	28.44
815.727	33.43
816.027	30.91
816.327	32.93
816.627	26.08
816.927	34.22
817.227	27.36
817.527	30.04
817.827	29.86
818.127	30.33
818.427	30.69
818.727	32.47
819.026	37.39
819.326	33.71
819.625	32.11
819.925	23.8
820.224	34.51
820.524	32.51
820.823	36.73
821.122	35.71
821.421	27.28
821.72	30.22
822.019	27.74
822.318	31.19
822.617	29.51
822.916	29.38
823.215	29.48
823.514	31.5
823.813	31.21
824.111	32.29
824.41	34.07
824.709	31.03
825.007	30.47
825.306	30.84
825.604	31.73
825.902	32.85
826.201	31.94
826.499	31.85
826.797	33.4
827.095	33.98
827.393	33.05
827.691	33.34
827.989	32.32
828.287	32.04
828.585	31.22
828.882	33.8
829.18	34.06
829.478	34.59
829.775	32.32
830.073	32.64
830.37	33.89
830.668	32.36
830.965	34.42
831.263	32.82
831.56	31.99
831.857	31.13
832.154	34.97
832.451	34.22
832.748	36.59
833.045	34.54
833.342	32.43
833.639	32.84
833.936	30.61
834.232	30.28
834.529	32.56
834.826	31.42
835.122	32.63
835.419	33.6
835.715	32.39
836.012	32.37
836.308	30.22
836.604	27.3
836.901	26.32
837.197	33.95
837.493	32.27
837.789	32.32
838.085	32.51
838.381	32.61
838.677	35.48
838.972	31.25
839.268	26.44
839.564	33.95
839.86	37.73
840.155	34.21
840.451	31.06
840.746	33.59
841.042	40.97
841.337	34.02
841.632	34.85
841.928	39.13
842.223	18.64
842.518	33.61
842.813	36.79
843.108	31.91
843.403	38.56
843.698	31.46
843.993	26.3
844.287	31.95
844.582	29.72
844.877	34.98
845.171	36.05
845.466	32.68
845.761	34.69
846.055	39.92
846.349	36.82
846.644	43.16
846.938	23.39
847.232	34.48
847.526	31.34
847.82	33.26
848.114	27.47
848.408	39.45
848.702	33.94
848.996	23.89
849.29	27.13
849.584	21.36
849.877	29.45
850.171	38.78
850.465	24.13
850.758	43.2
851.052	37.66
851.345	23.92
851.638	32.43
851.932	7.22
852.225	37.56
852.518	36.21
852.811	32.56
853.104	24.55
853.397	27.12
853.69	35.67
853.983	26.27
854.276	50.51
854.569	36.96
854.861	26.15
855.154	41.83
855.447	2.02
855.739	23.06
856.032	48.48
856.324	37.66
856.616	46.81
856.909	24.47
857.201	50.61
857.493	20.39
857.785	18.55
858.077	37.6
858.369	33.98
858.661	23.24
858.953	30.6
859.245	17.1
859.537	14.36
859.829	52.33
860.12	47.5
860.412	36.93
860.703	28.44
860.995	22.97
861.286	25.58
861.578	33.3
861.869	33.95
862.16	35.31
862.452	28.1
862.743	17.95
863.034	55.89
863.325	38.98
863.616	33.98
863.907	16.58
864.198	29.13
864.488	35.74
864.779	61.3
865.07	34.66
865.36	9.51
865.651	78.65
865.941	39.08
866.232	34.53
866.522	26.27
866.813	41.5
867.103	33.08
867.393	33.57
867.683	24.09
867.973	-0.62
868.263	40.55
868.553	39.76
868.843	40.19
869.133	12.55
869.423	34
869.713	17.16
870.002	38.09
870.292	42.54
870.582	42.55
870.871	31.56
871.161	16.01
871.45	38.17
871.739	-5.36
872.029	-10.06
872.318	60.77
872.607	47.76
872.896	16.52
873.185	11.25
873.474	21.7
873.763	24.58
874.052	68.65
874.341	34.5
874.63	54.23
874.918	55.41
875.207	47.18
875.496	40.45
875.784	-5.92
876.073	22.35
876.361	-93.35
876.649	-2.63
876.938	29.44
877.226	20.94
877.514	26.31
877.802	30.52
878.09	-2.76
878.378	33.67
878.666	27.71
878.954	29.36
879.242	30.21
879.53	27.35
879.817	32.74
880.105	44.6
880.392	25.8
880.68	14.28
880.967	2.64
881.255	22.58
881.542	34.79
881.83	30.44
882.117	21.94
882.404	-18.16
882.691	27.17
882.978	51.41
883.265	36.66
883.552	49.9
883.839	34.67
884.126	36.34
884.413	44.19
884.699	46.37
884.986	37.14
885.273	44.4
885.559	44.4
885.846	44.4
