Data from 0157_chest_Reflection__1__52.txt Node

Date: Fri Sep 22 20:45:04 CDT 2023
User: ToomeyLab
Spectrometer: FLMS14357
Trigger mode: 0
Integration Time (sec): 1.000000E-2
Scans to average: 100
Electric dark correction enabled: true
Nonlinearity correction enabled: false
Boxcar width: 0
XAxis mode: Wavelengths
Number of Pixels in Spectrum: 2048
>>>>>Begin Spectral Data<<<<<
189.047	175.11
189.435	175.11
189.823	175.11
190.211	-23.55
190.599	-43.15
190.987	23.26
191.375	1032.69
191.763	-65.21
192.151	292.43
192.538	-158.1
192.926	40.05
193.314	7237.5
193.702	121.95
194.089	35.23
194.477	-128.31
194.864	237.99
195.252	-86.07
195.639	36
196.027	70.45
196.414	25.5
196.801	-68.75
197.189	39.58
197.576	310.49
197.963	-96.52
198.351	-3.04
198.738	11.17
199.125	40.44
199.512	78.71
199.899	41.76
200.286	45.23
200.673	5.6
201.06	4.98
201.447	29.57
201.833	5.24
202.22	22.95
202.607	46.4
202.994	43.13
203.38	15.58
203.767	10.11
204.154	42.86
204.54	17.63
204.927	47.35
205.313	23.58
205.699	54.99
206.086	52.92
206.472	67.62
206.858	16.45
207.245	-5.17
207.631	36.03
208.017	40.63
208.403	22.86
208.789	41.7
209.175	42.54
209.561	35.71
209.947	40.69
210.333	32.26
210.719	16.01
211.105	30.87
211.491	-3.72
211.876	46.79
212.262	31.05
212.648	16.61
213.034	35.91
213.419	17.16
213.805	6.92
214.19	12.56
214.576	24.55
214.961	14.52
215.346	5.85
215.732	28.35
216.117	18.41
216.502	35.94
216.888	42.74
217.273	11.48
217.658	-5.09
218.043	30.16
218.428	35.66
218.813	-17.85
219.198	4.26
219.583	-6.32
219.968	0.4
220.353	28.81
220.738	15.71
221.122	31.9
221.507	4.85
221.892	18.15
222.276	6.57
222.661	-22.44
223.046	9.47
223.43	27.08
223.815	9.82
224.199	-4.2
224.583	24.12
224.968	22.15
225.352	10.63
225.736	4.5
226.121	10.69
226.505	12.78
226.889	4.02
227.273	1.72
227.657	8.65
228.041	8.46
228.425	13.15
228.809	3.81
229.193	3.27
229.577	7.96
229.961	7.53
230.344	6.31
230.728	5.28
231.112	6.39
231.495	5.22
231.879	5.69
232.263	5.2
232.646	5.12
233.03	6.55
233.413	5.04
233.797	5.48
234.18	6.42
234.563	7.37
234.946	7.98
235.33	4.82
235.713	4.64
236.096	5.51
236.479	5.36
236.862	8.76
237.245	6.69
237.628	5.3
238.011	6.88
238.394	5.97
238.777	7.68
239.16	6.65
239.543	6.57
239.925	7.2
240.308	6.22
240.691	7.06
241.073	7.7
241.456	6.31
241.838	6.4
242.221	5.81
242.603	5.67
242.986	5.56
243.368	5.8
243.75	5.86
244.133	5.86
244.515	4.76
244.897	4.85
245.279	5.19
245.661	4.84
246.043	4.98
246.425	4.78
246.807	5.32
247.189	3.67
247.571	6.45
247.953	5.05
248.335	4.8
248.717	5.31
249.098	5.01
249.48	4.67
249.862	4.62
250.243	4.93
250.625	4.96
251.006	4.84
251.388	5.53
251.769	5.6
252.151	5.18
252.532	5.27
252.913	5.82
253.295	4.73
253.676	5.3
254.057	5.64
254.438	5.36
254.819	4.74
255.2	4.77
255.581	3.79
255.962	5.3
256.343	6.15
256.724	4.52
257.105	4.6
257.486	5.62
257.867	4.31
258.247	4.16
258.628	4.68
259.009	5.3
259.389	4.42
259.77	5.2
260.15	4.8
260.531	4.78
260.911	5.02
261.292	4.53
261.672	4.43
262.052	4.55
262.432	4.46
262.813	4.82
263.193	3.76
263.573	4.71
263.953	4.19
264.333	4.25
264.713	5.2
265.093	4.83
265.473	4.11
265.853	4.58
266.233	4.1
266.612	4.52
266.992	5.12
267.372	4.47
267.752	4.29
268.131	4.43
268.511	3.79
268.89	4.89
269.27	4.63
269.649	4.76
270.029	4.65
270.408	4.44
270.787	4.2
271.167	4.23
271.546	3.88
271.925	4.41
272.304	3.83
272.683	4.68
273.062	4.66
273.441	4.85
273.82	4.82
274.199	4.34
274.578	4.33
274.957	4.04
275.336	4.3
275.715	4.44
276.093	4.14
276.472	4.18
276.851	4.13
277.229	3.75
277.608	4.81
277.986	3.63
278.365	4.63
278.743	4.42
279.122	4.89
279.5	4.48
279.878	4.39
280.257	5.13
280.635	3.97
281.013	4.83
281.391	4.24
281.769	4.65
282.147	4.57
282.525	3.52
282.903	4.62
283.281	3.86
283.659	4.24
284.037	4.1
284.415	4.15
284.792	3.78
285.17	4.05
285.548	4.09
285.925	4.38
286.303	4.37
286.68	4.21
287.058	3.93
287.435	4.03
287.813	3.93
288.19	3.8
288.567	4.17
288.945	3.7
289.322	4.65
289.699	3.94
290.076	4.5
290.453	3.81
290.83	3.6
291.207	4
291.584	3.73
291.961	4.03
292.338	3.99
292.715	4.22
293.092	3.85
293.469	4.22
293.845	4.17
294.222	4.65
294.599	4.15
294.975	4.25
295.352	4.43
295.728	4.03
296.105	4.28
296.481	3.87
296.858	4
297.234	4.41
297.61	4.02
297.986	4.1
298.363	4.29
298.739	4.14
299.115	4.16
299.491	4.06
299.867	4.24
300.243	3.9
300.619	4.25
300.995	3.97
301.371	4.78
301.746	4.27
302.122	4.21
302.498	4.05
302.874	3.78
303.249	4.11
303.625	3.71
304	4.05
304.376	4.31
304.751	4.3
305.127	3.86
305.502	3.94
305.878	4.13
306.253	4.33
306.628	3.84
307.003	3.81
307.378	3.94
307.754	4.26
308.129	4.37
308.504	4.37
308.879	4.52
309.254	4
309.629	4.17
310.003	4.45
310.378	4.63
310.753	4.04
311.128	4.16
311.502	4.08
311.877	3.56
312.252	4.04
312.626	3.86
313.001	4.42
313.375	4.24
313.75	4.55
314.124	4.91
314.498	3.63
314.873	4.23
315.247	4.31
315.621	4.57
315.995	4.14
316.369	3.81
316.743	3.46
317.117	4.11
317.491	4.5
317.865	3.71
318.239	3.98
318.613	4.37
318.987	3.9
319.361	4.18
319.734	3.81
320.108	4.6
320.482	4.01
320.855	4.14
321.229	4.67
321.602	4.75
321.976	4.18
322.349	4.34
322.723	4
323.096	4.14
323.469	4.51
323.843	4.23
324.216	4.47
324.589	4.38
324.962	4.07
325.335	4
325.708	4.24
326.081	4.66
326.454	4.01
326.827	4.15
327.2	3.97
327.573	4.76
327.945	4.11
328.318	4.12
328.691	4.4
329.063	3.95
329.436	4.28
329.809	4.33
330.181	4.75
330.553	4.3
330.926	4.43
331.298	4.75
331.671	4.27
332.043	3.16
332.415	4.37
332.787	4.65
333.159	4.45
333.532	4.06
333.904	4.41
334.276	4.16
334.648	4.23
335.02	3.93
335.391	4.4
335.763	4.47
336.135	4.46
336.507	4.31
336.879	4.05
337.25	4.33
337.622	4.48
337.993	3.76
338.365	4.54
338.736	4.45
339.108	4.35
339.479	4.1
339.851	3.67
340.222	4.01
340.593	4.3
340.964	4.03
341.336	4.1
341.707	4.25
342.078	4.76
342.449	4.63
342.82	3.84
343.191	3.57
343.562	3.87
343.933	4.5
344.303	4.48
344.674	4.23
345.045	4.5
345.416	4.23
345.786	4.26
346.157	4.19
346.527	4.07
346.898	4.1
347.268	4.1
347.639	4.48
348.009	3.92
348.38	4.44
348.75	4.63
349.12	4.21
349.49	4.16
349.861	4.44
350.231	4.23
350.601	4.39
350.971	4.79
351.341	3.88
351.711	3.72
352.081	3.92
352.45	4.06
352.82	4.01
353.19	4.27
353.56	3.99
353.929	4.17
354.299	4.28
354.669	4.24
355.038	4.01
355.408	4.29
355.777	4.41
356.147	4.59
356.516	4.08
356.885	4.42
357.254	4.59
357.624	3.98
357.993	4.48
358.362	4.49
358.731	4.27
359.1	4.29
359.469	4.14
359.838	3.83
360.207	3.96
360.576	4.33
360.945	4.11
361.314	4.26
361.682	4.33
362.051	4.34
362.42	4.29
362.788	4.07
363.157	4.64
363.525	4.08
363.894	4.05
364.262	4.15
364.631	3.99
364.999	4.15
365.367	4.43
365.735	4.15
366.104	4.16
366.472	4.64
366.84	4.2
367.208	4.49
367.576	4.35
367.944	4.33
368.312	4.46
368.68	4.47
369.048	4.59
369.416	4.23
369.783	4.44
370.151	4.1
370.519	4.57
370.886	4.24
371.254	4.47
371.621	4.24
371.989	4.04
372.356	4.33
372.724	4.56
373.091	4.66
373.458	4.34
373.826	4.45
374.193	4.65
374.56	4.73
374.927	4.56
375.294	4.31
375.661	4.36
376.028	4.21
376.395	4.82
376.762	4.67
377.129	4.44
377.496	4.71
377.863	4.62
378.229	4.53
378.596	4.49
378.963	4.49
379.329	4.4
379.696	4.69
380.062	4.14
380.429	4.26
380.795	4.14
381.161	4.31
381.528	4.38
381.894	3.88
382.26	4.52
382.626	4.4
382.993	4.55
383.359	4.14
383.725	4.12
384.091	4.31
384.457	4.3
384.823	4.4
385.188	4.84
385.554	4.64
385.92	4.85
386.286	4.3
386.651	4.51
387.017	4.57
387.383	4.32
387.748	4.32
388.114	4.26
388.479	4.49
388.845	4.14
389.21	4.16
389.575	4.52
389.94	4.23
390.306	4.54
390.671	4.67
391.036	4.3
391.401	4.22
391.766	4.38
392.131	4.42
392.496	4.6
392.861	4.31
393.226	4.71
393.591	4.56
393.956	4.37
394.32	4.28
394.685	4.32
395.05	4.7
395.414	4.54
395.779	4.36
396.143	4.46
396.508	4.58
396.872	4.47
397.236	4.47
397.601	4.36
397.965	4.46
398.329	4.55
398.694	4.59
399.058	4.45
399.422	4.51
399.786	4.52
400.15	4.69
400.514	4.73
400.878	4.6
401.242	4.47
401.605	4.53
401.969	4.21
402.333	4.44
402.697	4.28
403.06	4.28
403.424	4.35
403.787	4.75
404.151	4.55
404.514	4.46
404.878	4.76
405.241	4.66
405.604	4.61
405.968	4.62
406.331	4.63
406.694	4.47
407.057	4.36
407.42	4.56
407.783	4.51
408.146	4.4
408.509	4.56
408.872	4.6
409.235	4.65
409.598	4.29
409.961	4.57
410.323	4.55
410.686	4.61
411.049	4.55
411.411	4.75
411.774	4.51
412.136	4.57
412.499	4.43
412.861	4.54
413.223	4.64
413.586	4.46
413.948	4.62
414.31	4.52
414.672	4.69
415.035	4.47
415.397	4.69
415.759	4.86
416.121	4.43
416.483	4.42
416.845	4.5
417.206	4.42
417.568	4.65
417.93	4.43
418.292	4.6
418.653	4.51
419.015	4.42
419.377	4.33
419.738	4.48
420.1	4.31
420.461	4.49
420.822	4.32
421.184	4.45
421.545	4.48
421.906	4.45
422.267	4.33
422.629	4.55
422.99	4.42
423.351	4.41
423.712	4.41
424.073	4.33
424.434	4.39
424.795	4.42
425.155	4.53
425.516	4.44
425.877	4.41
426.238	4.25
426.598	4.41
426.959	4.36
427.32	4.49
427.68	4.35
428.041	4.38
428.401	4.51
428.761	4.58
429.122	4.49
429.482	4.55
429.842	4.55
430.202	4.54
430.563	4.54
430.923	4.57
431.283	4.85
431.643	4.53
432.003	4.65
432.363	4.57
432.722	4.7
433.082	4.58
433.442	4.35
433.802	4.83
434.161	4.64
434.521	4.56
434.881	4.54
435.24	4.56
435.6	4.31
435.959	4.47
436.319	4.61
436.678	4.66
437.037	4.58
437.396	4.6
437.756	4.51
438.115	4.58
438.474	4.61
438.833	4.61
439.192	4.63
439.551	4.48
439.91	4.68
440.269	4.69
440.628	4.38
440.987	4.48
441.345	4.65
441.704	4.59
442.063	4.53
442.421	4.56
442.78	4.63
443.138	4.49
443.497	4.59
443.855	4.58
444.214	4.37
444.572	4.65
444.93	4.65
445.288	4.52
445.647	4.65
446.005	4.62
446.363	4.48
446.721	4.62
447.079	4.48
447.437	4.57
447.795	4.61
448.153	4.46
448.51	4.52
448.868	4.49
449.226	4.51
449.584	4.42
449.941	4.39
450.299	4.6
450.656	4.65
451.014	4.72
451.371	4.63
451.729	4.61
452.086	4.6
452.443	4.72
452.801	4.72
453.158	4.57
453.515	4.66
453.872	4.63
454.229	4.65
454.586	4.72
454.943	4.6
455.3	4.69
455.657	4.56
456.014	4.6
456.371	4.8
456.727	4.84
457.084	4.68
457.441	4.5
457.797	4.69
458.154	4.72
458.51	4.65
458.867	4.49
459.223	4.63
459.58	4.83
459.936	4.73
460.292	4.73
460.648	4.82
461.005	4.72
461.361	4.68
461.717	4.56
462.073	4.55
462.429	4.47
462.785	4.57
463.141	4.64
463.496	4.69
463.852	4.55
464.208	4.64
464.564	4.76
464.919	4.8
465.275	4.84
465.631	4.89
465.986	4.8
466.342	4.76
466.697	4.78
467.052	4.71
467.408	4.78
467.763	4.93
468.118	4.69
468.473	4.75
468.829	4.72
469.184	4.65
469.539	4.75
469.894	4.8
470.249	4.83
470.603	4.67
470.958	4.72
471.313	4.85
471.668	4.76
472.023	4.85
472.377	4.89
472.732	4.67
473.086	4.91
473.441	4.65
473.795	5.15
474.15	4.78
474.504	4.76
474.859	4.97
475.213	4.69
475.567	4.61
475.921	4.87
476.275	4.83
476.63	4.59
476.984	4.68
477.338	4.93
477.692	4.79
478.045	5.05
478.399	4.79
478.753	4.74
479.107	4.72
479.461	4.74
479.814	4.81
480.168	4.84
480.521	4.81
480.875	4.87
481.228	4.79
481.582	4.67
481.935	4.72
482.289	4.72
482.642	4.72
482.995	4.78
483.348	4.81
483.701	4.67
484.055	4.67
484.408	4.68
484.761	4.73
485.114	4.59
485.466	4.6
485.819	4.5
486.172	4.46
486.525	4.5
486.878	4.49
487.23	4.58
487.583	4.61
487.936	4.64
488.288	4.66
488.641	4.61
488.993	4.53
489.345	4.6
489.698	4.5
490.05	4.55
490.402	4.58
490.754	4.59
491.107	4.61
491.459	4.69
491.811	4.65
492.163	4.76
492.515	4.69
492.866	4.83
493.218	4.77
493.57	4.74
493.922	4.6
494.274	4.64
494.625	4.66
494.977	4.77
495.328	4.84
495.68	4.83
496.031	4.85
496.383	4.93
496.734	4.79
497.086	4.84
497.437	4.94
497.788	4.87
498.139	4.95
498.49	5.04
498.842	4.91
499.193	4.77
499.544	4.93
499.894	4.93
500.245	4.88
500.596	4.93
500.947	4.98
501.298	4.93
501.648	4.91
501.999	5.03
502.35	5
502.7	5.12
503.051	4.96
503.401	5.08
503.752	5.01
504.102	5.06
504.452	5.04
504.803	4.99
505.153	5.06
505.503	4.93
505.853	5.03
506.203	4.95
506.553	5.01
506.903	5
507.253	5.03
507.603	5.03
507.953	5.16
508.303	5.21
508.652	4.96
509.002	5.19
509.352	4.96
509.701	5.14
510.051	5.21
510.4	5.08
510.75	5.07
511.099	4.97
511.449	5.02
511.798	5.13
512.147	5.04
512.496	5.06
512.846	5.03
513.195	5.07
513.544	5.09
513.893	5.14
514.242	4.96
514.591	5.07
514.939	5.12
515.288	5.05
515.637	5.08
515.986	5.11
516.334	5.16
516.683	5.15
517.032	5.27
517.38	5.22
517.729	5.05
518.077	5.21
518.426	5.21
518.774	5.19
519.122	5.19
519.47	5.11
519.819	5.15
520.167	5.21
520.515	5.12
520.863	5.02
521.211	5.1
521.559	5.18
521.907	5.17
522.255	5.19
522.602	5.2
522.95	5.17
523.298	5.23
523.645	5.25
523.993	5.33
524.341	5.24
524.688	5.28
525.036	5.34
525.383	5.2
525.73	5.3
526.078	5.26
526.425	5.23
526.772	5.39
527.119	5.33
527.466	5.25
527.814	5.14
528.161	5.2
528.508	5.31
528.854	5.21
529.201	5.28
529.548	5.26
529.895	5.17
530.242	5.19
530.588	5.05
530.935	5.05
531.282	5.09
531.628	5.13
531.975	5.12
532.321	5.24
532.667	5.24
533.014	5.3
533.36	5.36
533.706	5.44
534.052	5.48
534.399	5.39
534.745	5.41
535.091	5.34
535.437	5.31
535.783	5.22
536.129	5.3
536.474	5.35
536.82	5.33
537.166	5.54
537.512	5.5
537.857	5.45
538.203	5.49
538.549	5.46
538.894	5.41
539.239	5.47
539.585	5.44
539.93	5.61
540.276	5.56
540.621	5.58
540.966	5.52
541.311	5.67
541.656	5.6
542.001	5.64
542.346	5.73
542.691	5.64
543.036	5.54
543.381	5.5
543.726	5.45
544.071	5.51
544.415	5.48
544.76	5.51
545.105	5.51
545.449	5.58
545.794	5.59
546.138	5.7
546.483	5.63
546.827	5.69
547.171	5.81
547.516	5.85
547.86	5.88
548.204	5.89
548.548	5.78
548.892	5.91
549.236	5.86
549.58	5.84
549.924	6
550.268	5.94
550.612	5.87
550.956	6.02
551.3	6.05
551.643	6.04
551.987	5.96
552.33	6.24
552.674	6.05
553.017	5.88
553.361	6.06
553.704	6.12
554.048	6.11
554.391	6.27
554.734	6.25
555.077	6.07
555.42	6.04
555.764	6.15
556.107	6.13
556.45	6.02
556.793	6.08
557.135	6.26
557.478	6.02
557.821	6.36
558.164	6.29
558.507	6.5
558.849	6.35
559.192	6.46
559.534	6.28
559.877	6.37
560.219	6.55
560.562	6.39
560.904	6.43
561.246	6.52
561.589	6.44
561.931	6.36
562.273	6.32
562.615	6.55
562.957	6.34
563.299	6.63
563.641	6.58
563.983	6.58
564.325	6.69
564.667	6.8
565.008	6.64
565.35	6.5
565.692	6.67
566.033	6.63
566.375	6.63
566.716	6.68
567.058	6.54
567.399	6.73
567.741	6.91
568.082	6.67
568.423	6.73
568.764	6.73
569.105	6.6
569.447	6.83
569.788	6.66
570.129	6.86
570.47	6.91
570.811	6.92
571.151	6.96
571.492	6.89
571.833	6.88
572.174	7.02
572.514	7.12
572.855	6.95
573.195	6.87
573.536	6.96
573.876	6.9
574.217	6.88
574.557	6.96
574.898	7.15
575.238	7.01
575.578	7.04
575.918	7.11
576.258	6.91
576.598	7.13
576.938	7.25
577.278	7.3
577.618	7.15
577.958	7.19
578.298	7.35
578.638	7.18
578.977	7.28
579.317	7.4
579.657	7.43
579.996	7.38
580.336	7.46
580.675	7.58
581.014	7.36
581.354	7.24
581.693	7.44
582.032	7.32
582.372	7.64
582.711	7.63
583.05	7.74
583.389	7.53
583.728	7.61
584.067	7.58
584.406	7.57
584.745	7.62
585.083	8.04
585.422	7.96
585.761	7.75
586.1	7.87
586.438	7.78
586.777	7.88
587.115	8.05
587.454	7.44
587.792	7.9
588.13	8.05
588.469	8.05
588.807	8.1
589.145	7.97
589.483	7.89
589.821	7.97
590.159	8.12
590.497	8.09
590.835	8.3
591.173	8.09
591.511	8.07
591.849	8.27
592.187	8.04
592.524	8.34
592.862	8.14
593.2	8.1
593.537	8.15
593.875	8.28
594.212	8.46
594.55	8.47
594.887	8.17
595.224	8.47
595.561	8.25
595.899	8.56
596.236	8.64
596.573	8.62
596.91	8.35
597.247	8.52
597.584	8.84
597.921	8.61
598.258	8.53
598.594	8.5
598.931	8.46
599.268	8.63
599.604	8.63
599.941	8.64
600.277	8.61
600.614	8.72
600.95	8.76
601.287	8.63
601.623	8.66
601.959	8.94
602.296	9.08
602.632	8.84
602.968	8.91
603.304	8.99
603.64	8.84
603.976	9.01
604.312	9.12
604.648	8.96
604.984	9.05
605.319	8.96
605.655	9.04
605.991	8.89
606.326	9.18
606.662	9.13
606.998	8.91
607.333	9.24
607.668	9.05
608.004	9.35
608.339	9.14
608.674	9.32
609.01	9.47
609.345	9.46
609.68	9.64
610.015	9.44
610.35	9.43
610.685	9.76
611.02	9.69
611.355	9.71
611.689	9.55
612.024	9.34
612.359	9.47
612.694	9.45
613.028	9.45
613.363	9.49
613.697	9.57
614.032	9.55
614.366	9.57
614.7	9.68
615.035	9.64
615.369	9.22
615.703	9.67
616.037	9.88
616.371	10.03
616.705	10.38
617.039	9.88
617.373	9.75
617.707	9.98
618.041	10.15
618.375	10.27
618.709	10.3
619.042	10.43
619.376	10.2
619.71	10.09
620.043	9.83
620.377	10.28
620.71	10.2
621.043	10.55
621.377	10.17
621.71	10.37
622.043	10.71
622.376	10.66
622.709	10.76
623.043	10.29
623.376	10.51
623.709	10.73
624.041	10.62
624.374	10.49
624.707	10.76
625.04	10.64
625.373	10.33
625.705	10.81
626.038	10.25
626.37	11.23
626.703	10.97
627.035	10.66
627.368	10.75
627.7	10.99
628.032	11.1
628.365	11.03
628.697	11.09
629.029	10.99
629.361	11
629.693	10.91
630.025	11.09
630.357	10.57
630.689	11.07
631.021	10.91
631.353	11.04
631.684	11.24
632.016	11.09
632.348	11.12
632.679	11.19
633.011	10.96
633.342	11.25
633.674	11.32
634.005	11.26
634.336	11.56
634.668	11.5
634.999	11.51
635.33	11.72
635.661	11.66
635.992	11.48
636.323	11.1
636.654	11.41
636.985	11.4
637.316	11.39
637.647	11.85
637.977	11.26
638.308	11.97
638.639	11.6
638.969	11.46
639.3	11.83
639.63	12
639.961	11.72
640.291	11.89
640.622	11.57
640.952	11.63
641.282	12.05
641.612	12.03
641.943	11.93
642.273	12.36
642.603	11.75
642.933	12.13
643.263	11.66
643.592	11.95
643.922	12.48
644.252	12.14
644.582	12.15
644.911	12.05
645.241	12.78
645.571	12.25
645.9	12.11
646.23	12.69
646.559	12.41
646.888	12.75
647.218	12.24
647.547	12.08
647.876	12.4
648.205	12.32
648.534	12.69
648.863	12.8
649.192	12.05
649.521	12.51
649.85	12.54
650.179	12.61
650.508	12.42
650.837	13.23
651.165	12.64
651.494	12.95
651.822	12.49
652.151	12.95
652.479	12.57
652.808	12.79
653.136	12.86
653.465	12.61
653.793	12.67
654.121	13.26
654.449	12.43
654.777	13.3
655.105	13.57
655.433	13.06
655.761	13.13
656.089	13.23
656.417	12.88
656.745	13.23
657.073	13.25
657.4	14.01
657.728	13.66
658.056	13.67
658.383	13.7
658.711	13.19
659.038	13.11
659.365	13.23
659.693	13.25
660.02	14.09
660.347	13.62
660.674	13.3
661.001	13.23
661.329	13.6
661.656	13.51
661.982	13.14
662.309	13.75
662.636	13.29
662.963	13.88
663.29	13.95
663.616	13.89
663.943	13.85
664.27	13.93
664.596	13.6
664.923	13.82
665.249	14.11
665.576	13.46
665.902	14
666.228	14.24
666.554	13.9
666.881	14.3
667.207	14.26
667.533	13.69
667.859	14.72
668.185	13.74
668.511	14.7
668.837	13.78
669.162	14.39
669.488	14.23
669.814	14.73
670.139	14.41
670.465	15.02
670.791	14.47
671.116	14.38
671.442	14.91
671.767	14.04
672.092	15.01
672.418	15.27
672.743	14.82
673.068	14.6
673.393	14.35
673.718	15.29
674.043	14.7
674.368	14.9
674.693	14.51
675.018	14.41
675.343	15
675.667	14.94
675.992	14.19
676.317	14.87
676.641	14.86
676.966	15.59
677.29	15.18
677.615	15.1
677.939	15.67
678.264	14.86
678.588	15.65
678.912	15.47
679.236	15.42
679.56	15.36
679.885	14.93
680.209	15.63
680.532	15.28
680.856	15.13
681.18	15.52
681.504	15.47
681.828	16.09
682.152	15.3
682.475	15.64
682.799	15.55
683.122	15.41
683.446	15.23
683.769	15.93
684.093	15.66
684.416	15.7
684.739	15.83
685.062	16.18
685.386	16.23
685.709	16.33
686.032	16.01
686.355	16.46
686.678	15.92
687.001	15.7
687.324	16.55
687.646	16.29
687.969	17.05
688.292	15.93
688.614	15.87
688.937	15.71
689.26	15.49
689.582	16.5
689.904	15.76
690.227	17.07
690.549	16.94
690.871	16.1
691.194	16.49
691.516	16.47
691.838	17
692.16	15.58
692.482	16.48
692.804	16.34
693.126	16.06
693.448	17.06
693.769	16.3
694.091	16.76
694.413	16.47
694.735	16.77
695.056	17.67
695.378	16.69
695.699	16.38
696.021	15.94
696.342	17.13
696.663	16.69
696.984	15.75
697.306	17.18
697.627	16.49
697.948	17.12
698.269	17.02
698.59	16.5
698.911	16.73
699.232	16.82
699.553	17.23
699.873	17.06
700.194	16.4
700.515	16.53
700.835	17.36
701.156	16.84
701.477	17.08
701.797	17.16
702.117	17.68
702.438	17.29
702.758	17.17
703.078	17.55
703.398	16.85
703.719	17.47
704.039	17.8
704.359	17.09
704.679	15.88
704.999	17.37
705.319	17.57
705.638	17.22
705.958	18.13
706.278	19.21
706.597	17.76
706.917	17.95
707.237	19.22
707.556	17.34
707.876	16.77
708.195	19.11
708.514	18.22
708.834	18.07
709.153	19.14
709.472	18.27
709.791	17.6
710.11	18.33
710.429	18.16
710.748	19.05
711.067	18.12
711.386	19.28
711.705	18.27
712.023	18.54
712.342	19.12
712.661	18.74
712.979	17.99
713.298	19.3
713.616	18.24
713.935	19.12
714.253	19.89
714.572	19.28
714.89	18.51
715.208	18.46
715.526	18.34
715.844	18.26
716.162	18.58
716.48	19.06
716.798	18.87
717.116	19.5
717.434	19.01
717.752	18.71
718.069	17.57
718.387	19.8
718.705	18.25
719.022	18.17
719.34	19.13
719.657	18.79
719.975	19.49
720.292	19.32
720.609	20.14
720.927	19.86
721.244	20.35
721.561	19.29
721.878	19.35
722.195	18.62
722.512	18.49
722.829	20.42
723.146	20.73
723.463	18.57
723.779	18.33
724.096	19.49
724.413	20.09
724.729	20.17
725.046	19.31
725.362	19.22
725.679	20.14
725.995	20.31
726.311	18.67
726.628	19.1
726.944	19.09
727.26	20.16
727.576	20.04
727.892	19.55
728.208	20.94
728.524	19.5
728.84	20.8
729.156	20.49
729.472	19.97
729.787	20.4
730.103	19.99
730.419	20.69
730.734	19.95
731.05	20.01
731.365	20.84
731.681	19.54
731.996	19.76
732.311	21.14
732.626	20.69
732.942	20.44
733.257	20.41
733.572	20.25
733.887	20.99
734.202	20.36
734.517	20.44
734.832	20.53
735.146	21.56
735.461	21.2
735.776	20.47
736.091	20.36
736.405	20.69
736.72	21
737.034	19.92
737.349	20.54
737.663	20.1
737.977	21.84
738.292	20.9
738.606	21.85
738.92	21.65
739.234	22.43
739.548	20.07
739.862	20.2
740.176	20.99
740.49	21.5
740.804	21.64
741.117	21.15
741.431	21.05
741.745	22.73
742.058	20.66
742.372	19.7
742.685	22.27
742.999	22.26
743.312	21.4
743.626	20.3
743.939	21.29
744.252	22.21
744.565	20.55
744.878	20.72
745.191	22.14
745.505	19.45
745.817	21.21
746.13	22.23
746.443	22.82
746.756	21.75
747.069	23.27
747.381	16.86
747.694	20.5
748.007	22.86
748.319	23.61
748.632	22.51
748.944	24.22
749.256	22.53
749.569	22.42
749.881	24.48
750.193	23
750.505	22.51
750.817	23.36
751.129	24.03
751.441	24.55
751.753	23.24
752.065	25
752.377	23.07
752.689	22.01
753	20.7
753.312	23.55
753.624	24.09
753.935	23.31
754.247	22.01
754.558	23.5
754.869	23.09
755.181	20.86
755.492	22.6
755.803	23.74
756.114	23.45
756.425	24.28
756.736	22.26
757.047	24.85
757.358	25.04
757.669	22.68
757.98	22.82
758.291	22.41
758.601	22.02
758.912	24.21
759.223	25.58
759.533	22.91
759.844	23.64
760.154	24.75
760.464	22.08
760.775	23.81
761.085	24.24
761.395	24.6
761.705	21.19
762.016	23.04
762.326	24.09
762.636	22.68
762.945	24.19
763.255	23.72
763.565	24.33
763.875	22.8
764.185	25.49
764.494	25.91
764.804	23.35
765.113	25.18
765.423	23.01
765.732	23.62
766.042	24.97
766.351	23.23
766.66	23.5
766.97	23.97
767.279	25.15
767.588	23.88
767.897	24.41
768.206	24.58
768.515	23.6
768.824	25.86
769.133	24.07
769.441	25.68
769.75	25.37
770.059	26.73
770.367	23.07
770.676	25.21
770.984	25.02
771.293	25.29
771.601	24.5
771.91	26.91
772.218	25.2
772.526	25.78
772.834	25.09
773.142	25.31
773.45	26.56
773.758	22.81
774.066	25.37
774.374	27.77
774.682	23.38
774.99	25.12
775.298	24.75
775.605	25.89
775.913	29.27
776.22	23.37
776.528	25.67
776.835	24.11
777.143	25.3
777.45	24.8
777.757	23.01
778.065	23.6
778.372	29.29
778.679	27.32
778.986	23.64
779.293	23.62
779.6	22.44
779.907	26.68
780.214	28.91
780.52	22.92
780.827	26.8
781.134	28.91
781.44	26.4
781.747	22.66
782.053	28.49
782.36	26.89
782.666	27.03
782.973	27.65
783.279	26.37
783.585	25.39
783.891	25.96
784.197	24.47
784.503	26.88
784.809	28.09
785.115	26.33
785.421	25.7
785.727	28.2
786.033	27.99
786.339	25.27
786.644	31.07
786.95	23.15
787.255	25.86
787.561	28.64
787.866	26.22
788.172	29.79
788.477	29.05
788.782	23.18
789.088	26.25
789.393	22.71
789.698	26.57
790.003	26.22
790.308	28.95
790.613	24.82
790.918	28.19
791.223	26.58
791.527	26.04
791.832	27.63
792.137	26.2
792.441	30.52
792.746	25.12
793.05	27.89
793.355	28.98
793.659	28.31
793.963	26.52
794.268	23.13
794.572	30.67
794.876	26.76
795.18	27.53
795.484	26.47
795.788	25.44
796.092	27.49
796.396	27.67
796.7	30.21
797.004	25.61
797.307	24.21
797.611	26.92
797.915	27.73
798.218	29.18
798.522	31.1
798.825	31.55
799.128	26.89
799.432	27.41
799.735	28.3
800.038	29.52
800.341	29.86
800.644	29.35
800.947	29.32
801.25	28.23
801.553	32.25
801.856	33.49
802.159	23.31
802.462	27.49
802.764	30.64
803.067	26.84
803.37	30.2
803.672	29.41
803.975	25.76
804.277	33.4
804.579	31.92
804.882	35.07
805.184	31.21
805.486	29.17
805.788	28.61
806.09	33.08
806.392	27.15
806.694	30.85
806.996	29.97
807.298	30.79
807.6	31.48
807.902	28.82
808.203	30.52
808.505	28.42
808.807	28.36
809.108	30.99
809.409	29.9
809.711	28.29
810.012	32.98
810.313	30.14
810.615	29.34
810.916	27.99
811.217	29.44
811.518	26.92
811.819	35.86
812.12	26.42
812.421	30.75
812.722	27.11
813.023	31.73
813.323	26.87
813.624	39.19
813.925	32.73
814.225	30.62
814.526	30.67
814.826	30.83
815.126	28.34
815.427	27.27
815.727	31.23
816.027	24.41
816.327	33.12
816.627	27.47
816.927	32.32
817.227	23.9
817.527	32.71
817.827	26.08
818.127	27.47
818.427	33.9
818.727	29.97
819.026	36.19
819.326	27.8
819.625	22.11
819.925	26.31
820.224	29.29
820.524	29.22
820.823	26.99
821.122	26.02
821.421	33.24
821.72	32.28
822.019	27.45
822.318	28.04
822.617	29.37
822.916	29.99
823.215	34.79
823.514	27.32
823.813	30.54
824.111	34.31
824.41	31.47
824.709	29.63
825.007	31.91
825.306	31.1
825.604	30.11
825.902	30.24
826.201	30.55
826.499	29.84
826.797	30.72
827.095	30.85
827.393	30.46
827.691	28.54
827.989	29.43
828.287	29.82
828.585	32.05
828.882	30.06
829.18	31.24
829.478	30.01
829.775	32.09
830.073	31.25
830.37	29.45
830.668	30.72
830.965	32.07
831.263	31.86
831.56	30.38
831.857	31.51
832.154	32.1
832.451	29.61
832.748	30.92
833.045	33.98
833.342	31.41
833.639	34.5
833.936	36.59
834.232	27.34
834.529	29.49
834.826	30.86
835.122	33.8
835.419	31.5
835.715	30.86
836.012	34.02
836.308	36.09
836.604	31.79
836.901	28.27
837.197	33.72
837.493	33.73
837.789	31.88
838.085	29.78
838.381	30.68
838.677	33.06
838.972	36.9
839.268	35.4
839.564	34.6
839.86	36.29
840.155	31.6
840.451	33.54
840.746	30.56
841.042	35.71
841.337	31.24
841.632	34.22
841.928	33.91
842.223	37.66
842.518	36.85
842.813	36.3
843.108	36.23
843.403	39.3
843.698	41.7
843.993	31.13
844.287	39.4
844.582	29.57
844.877	28.59
845.171	37.44
845.466	36.55
845.761	27.02
846.055	33.9
846.349	27.22
846.644	37.17
846.938	30.74
847.232	41.39
847.526	22.04
847.82	28.54
848.114	32.91
848.408	37.89
848.702	47.97
848.996	47.59
849.29	49
849.584	45.6
849.877	28.15
850.171	26.42
850.465	28.8
850.758	35.84
851.052	22.89
851.345	53.44
851.638	33.43
851.932	41.75
852.225	34.09
852.518	34.96
852.811	44.03
853.104	49.78
853.397	40.24
853.69	38.56
853.983	49.63
854.276	30.73
854.569	72.68
854.861	12.75
855.154	32.08
855.447	39.91
855.739	35.61
856.032	52.91
856.324	42.95
856.616	26.28
856.909	42.63
857.201	17.16
857.493	53.7
857.785	34.91
858.077	47.61
858.369	35.23
858.661	34.68
858.953	33.57
859.245	65.95
859.537	22.63
859.829	43.75
860.12	38.56
860.412	21.06
860.703	10.13
860.995	26.18
861.286	33.77
861.578	38.68
861.869	21.12
862.16	22.86
862.452	16.18
862.743	43
863.034	33.43
863.325	48.19
863.616	35.54
863.907	28.6
864.198	35.15
864.488	23.89
864.779	34.56
865.07	41.82
865.36	17.12
865.651	29.15
865.941	7.96
866.232	29.64
866.522	33.51
866.813	54.49
867.103	51.76
867.393	40.05
867.683	33.92
867.973	44.92
868.263	48.82
868.553	25.18
868.843	35.5
869.133	38.35
869.423	46.4
869.713	61.73
870.002	32.4
870.292	33.41
870.582	33.98
870.871	29.04
871.161	22.12
871.45	52.35
871.739	57.56
872.029	42.32
872.318	32.55
872.607	39.93
872.896	37.99
873.185	34.19
873.474	30.7
873.763	35.51
874.052	52.6
874.341	35.74
874.63	33.39
874.918	15.05
875.207	72.75
875.496	58.82
875.784	45.61
876.073	23.12
876.361	12.22
876.649	45.88
876.938	63.96
877.226	12.1
877.514	49.98
877.802	38.35
878.09	60.65
878.378	28.54
878.666	55.77
878.954	55.47
879.242	44.66
879.53	30.96
879.817	61.54
880.105	25.99
880.392	47.9
880.68	30.58
880.967	59.95
881.255	21.5
881.542	34.55
881.83	66.22
882.117	40.06
882.404	44.21
882.691	41.36
882.978	26.83
883.265	36.01
883.552	44.33
883.839	42.88
884.126	51.74
884.413	24.63
884.699	53.04
884.986	46.97
885.273	30.33
885.559	30.33
885.846	30.33
