Data from 0157_crown_Reflection__4__60.txt Node

Date: Fri Sep 22 20:47:35 CDT 2023
User: ToomeyLab
Spectrometer: FLMS14357
Trigger mode: 0
Integration Time (sec): 1.000000E-2
Scans to average: 100
Electric dark correction enabled: true
Nonlinearity correction enabled: false
Boxcar width: 0
XAxis mode: Wavelengths
Number of Pixels in Spectrum: 2048
>>>>>Begin Spectral Data<<<<<
189.047	-68.5
189.435	-68.5
189.823	-68.5
190.211	-21.02
190.599	-438.61
190.987	19.37
191.375	489.58
191.763	-7.28
192.151	188.24
192.538	-49.01
192.926	57.72
193.314	-3103.12
193.702	105.04
194.089	50.76
194.477	-17.71
194.864	225.43
195.252	65.74
195.639	98.89
196.027	98.78
196.414	-6.91
196.801	-21.92
197.189	553.23
197.576	362.44
197.963	181.17
198.351	8.48
198.738	45.75
199.125	22.71
199.512	119.04
199.899	24.11
200.286	38.3
200.673	2.58
201.06	49.03
201.447	52.61
201.833	186.53
202.22	49.57
202.607	33.22
202.994	44.73
203.38	33.33
203.767	33.8
204.154	76.59
204.54	38.56
204.927	38.76
205.313	15.47
205.699	38.3
206.086	51.84
206.472	51.14
206.858	25.98
207.245	4.88
207.631	33.3
208.017	57.7
208.403	37.1
208.789	45.36
209.175	59.24
209.561	51.45
209.947	34.71
210.333	42.92
210.719	-1.42
211.105	35.4
211.491	35.72
211.876	40.54
212.262	50.79
212.648	3.48
213.034	41.95
213.419	27.46
213.805	44.43
214.19	17.44
214.576	38.37
214.961	39.86
215.346	4.77
215.732	59.6
216.117	34.28
216.502	33.27
216.888	25.09
217.273	54.93
217.658	9.56
218.043	24.05
218.428	27.82
218.813	25.73
219.198	33.06
219.583	4.72
219.968	28.1
220.353	38.93
220.738	41.03
221.122	28.48
221.507	5.34
221.892	6.67
222.276	5.23
222.661	6.3
223.046	30.94
223.43	31.32
223.815	14.06
224.199	5.59
224.583	10.26
224.968	23.68
225.352	13.47
225.736	17.29
226.121	13
226.505	15.28
226.889	16.06
227.273	13.57
227.657	12.06
228.041	8.29
228.425	13.81
228.809	10.44
229.193	6.18
229.577	9.47
229.961	12.59
230.344	10.55
230.728	9.58
231.112	9.95
231.495	9.32
231.879	8.94
232.263	8.14
232.646	10.36
233.03	9.84
233.413	10.67
233.797	8.62
234.18	8.84
234.563	10.2
234.946	11.44
235.33	6.41
235.713	8.09
236.096	9.78
236.479	8.94
236.862	10.04
237.245	10.66
237.628	9.8
238.011	9.48
238.394	11.73
238.777	10.76
239.16	10.92
239.543	11.17
239.925	10.26
240.308	10.56
240.691	9.13
241.073	11.58
241.456	8.88
241.838	8.74
242.221	9.19
242.603	9.15
242.986	8.98
243.368	8.39
243.75	8.94
244.133	8.76
244.515	8.29
244.897	7.38
245.279	7.95
245.661	8.77
246.043	9.04
246.425	9.01
246.807	8.19
247.189	7.19
247.571	8.01
247.953	8.4
248.335	7.7
248.717	8.13
249.098	7.86
249.48	7.54
249.862	7.37
250.243	7.54
250.625	7.97
251.006	7.13
251.388	7.85
251.769	7.93
252.151	7.64
252.532	7.32
252.913	7.85
253.295	8.7
253.676	7.27
254.057	7.52
254.438	7.63
254.819	7.31
255.2	7.59
255.581	7.6
255.962	8.51
256.343	6.91
256.724	5.99
257.105	6.88
257.486	7.18
257.867	7.7
258.247	8.01
258.628	7.82
259.009	6.41
259.389	6.56
259.77	7.98
260.15	7.76
260.531	7.02
260.911	6.99
261.292	6.97
261.672	6.36
262.052	6.65
262.432	6.68
262.813	6.93
263.193	6.44
263.573	6.94
263.953	7.17
264.333	6.75
264.713	6.51
265.093	6.77
265.473	6.72
265.853	6.03
266.233	6.72
266.612	6.73
266.992	8.06
267.372	7.39
267.752	7.74
268.131	6.94
268.511	6.77
268.89	6.61
269.27	6.24
269.649	6.37
270.029	6.44
270.408	6.68
270.787	6.71
271.167	6.8
271.546	6.14
271.925	6.47
272.304	6.29
272.683	6.35
273.062	6.7
273.441	5.9
273.82	6.6
274.199	6.56
274.578	6.73
274.957	6.39
275.336	6.15
275.715	6.33
276.093	6.17
276.472	5.82
276.851	5.99
277.229	6.04
277.608	6.35
277.986	5.63
278.365	5.99
278.743	6.08
279.122	6.31
279.5	6.44
279.878	6.41
280.257	6.45
280.635	5.79
281.013	6.02
281.391	5.67
281.769	5.84
282.147	6.35
282.525	6.3
282.903	6.69
283.281	5.83
283.659	6.26
284.037	5.85
284.415	6.09
284.792	5.91
285.17	5.92
285.548	6.38
285.925	6.04
286.303	5.7
286.68	5.31
287.058	5.67
287.435	5.58
287.813	5.61
288.19	5
288.567	5.91
288.945	5.32
289.322	5.92
289.699	5.67
290.076	5.77
290.453	5.49
290.83	5.33
291.207	5.39
291.584	5.22
291.961	5.47
292.338	5.33
292.715	5.54
293.092	5.83
293.469	5.64
293.845	5.29
294.222	5.86
294.599	5.86
294.975	6.07
295.352	5.63
295.728	5.52
296.105	5.88
296.481	5.27
296.858	6.05
297.234	5.62
297.61	5.47
297.986	5.76
298.363	5.61
298.739	5.5
299.115	5.64
299.491	5.81
299.867	5.5
300.243	5.15
300.619	5.62
300.995	5.55
301.371	5.43
301.746	5.59
302.122	5.12
302.498	5.5
302.874	5.11
303.249	5.46
303.625	5.24
304	5.49
304.376	5.6
304.751	5.91
305.127	5.31
305.502	5.47
305.878	5.49
306.253	5.58
306.628	5.18
307.003	5.33
307.378	5.23
307.754	5.4
308.129	5.68
308.504	5.44
308.879	5.53
309.254	5.18
309.629	5.45
310.003	5.71
310.378	6.05
310.753	5.47
311.128	5.46
311.502	5.32
311.877	5.08
312.252	5.61
312.626	5.43
313.001	5.42
313.375	5.27
313.75	5.45
314.124	5.65
314.498	4.92
314.873	5.45
315.247	5.21
315.621	5.76
315.995	5.09
316.369	5.16
316.743	5.05
317.117	5.68
317.491	5.93
317.865	4.66
318.239	5.17
318.613	5.18
318.987	5.08
319.361	5.14
319.734	5.14
320.108	5.75
320.482	5.23
320.855	5.4
321.229	5.41
321.602	5.25
321.976	5.3
322.349	5.28
322.723	5.66
323.096	5.54
323.469	5.56
323.843	5.31
324.216	5.9
324.589	6.06
324.962	5.04
325.335	4.98
325.708	5.17
326.081	5.81
326.454	4.95
326.827	5.28
327.2	4.77
327.573	5.93
327.945	4.92
328.318	5.64
328.691	5.32
329.063	4.87
329.436	4.71
329.809	5.39
330.181	5.23
330.553	5.24
330.926	5.62
331.298	5.7
331.671	5.43
332.043	4.7
332.415	4.46
332.787	5.59
333.159	5.37
333.532	5.27
333.904	5.36
334.276	4.74
334.648	4.56
335.02	5.12
335.391	5.12
335.763	5.12
336.135	5.62
336.507	5.45
336.879	5.35
337.25	5.68
337.622	5.47
337.993	4.91
338.365	5.65
338.736	5.29
339.108	5.37
339.479	5.04
339.851	4.73
340.222	5.44
340.593	4.82
340.964	4.52
341.336	5.35
341.707	5.49
342.078	5.49
342.449	5.22
342.82	5.06
343.191	4.75
343.562	5.27
343.933	5.23
344.303	5.15
344.674	5.45
345.045	5.34
345.416	5.43
345.786	5.29
346.157	5.01
346.527	5.07
346.898	5.12
347.268	5.4
347.639	5.34
348.009	5.05
348.38	5.63
348.75	5.5
349.12	5.37
349.49	5.44
349.861	5.58
350.231	5.49
350.601	5.47
350.971	5.49
351.341	5.14
351.711	5.45
352.081	4.95
352.45	5.03
352.82	5.75
353.19	5.44
353.56	5.21
353.929	5.53
354.299	5.54
354.669	5.19
355.038	4.98
355.408	5.15
355.777	5.76
356.147	5.55
356.516	5.89
356.885	5.24
357.254	5.47
357.624	5.24
357.993	5.67
358.362	5.09
358.731	5.29
359.1	5.21
359.469	5.37
359.838	5.07
360.207	5.11
360.576	5.54
360.945	5.54
361.314	5.85
361.682	5.67
362.051	5.72
362.42	5.54
362.788	5.02
363.157	5.46
363.525	5.34
363.894	5.44
364.262	5.31
364.631	5.27
364.999	5.12
365.367	5.82
365.735	5.25
366.104	5.46
366.472	5.75
366.84	5.3
367.208	5.95
367.576	5.8
367.944	5.66
368.312	5.63
368.68	5.65
369.048	5.82
369.416	5.59
369.783	5.42
370.151	5.49
370.519	5.39
370.886	5.83
371.254	5.89
371.621	5.52
371.989	5.71
372.356	5.77
372.724	5.95
373.091	6
373.458	5.73
373.826	5.71
374.193	5.98
374.56	5.82
374.927	5.8
375.294	5.34
375.661	5.57
376.028	5.74
376.395	5.86
376.762	5.35
377.129	5.59
377.496	6.15
377.863	5.61
378.229	5.61
378.596	5.73
378.963	5.92
379.329	5.66
379.696	5.95
380.062	5.55
380.429	5.45
380.795	5.83
381.161	5.35
381.528	5.88
381.894	5.46
382.26	5.71
382.626	5.86
382.993	5.81
383.359	5.49
383.725	5.46
384.091	6.05
384.457	5.55
384.823	5.73
385.188	5.92
385.554	5.91
385.92	6.1
386.286	5.69
386.651	5.98
387.017	5.89
387.383	5.87
387.748	5.82
388.114	5.95
388.479	5.89
388.845	5.79
389.21	5.64
389.575	6.09
389.94	5.72
390.306	5.97
390.671	6.12
391.036	5.5
391.401	6.02
391.766	5.87
392.131	5.95
392.496	5.51
392.861	5.93
393.226	6.07
393.591	5.98
393.956	5.94
394.32	5.65
394.685	5.86
395.05	6.09
395.414	5.99
395.779	5.68
396.143	5.69
396.508	5.87
396.872	6.02
397.236	5.8
397.601	5.91
397.965	6.13
398.329	5.94
398.694	5.8
399.058	5.72
399.422	5.88
399.786	6.21
400.15	5.9
400.514	6.06
400.878	6.09
401.242	5.83
401.605	5.95
401.969	5.69
402.333	5.95
402.697	5.72
403.06	6.06
403.424	5.95
403.787	6.03
404.151	5.96
404.514	6.22
404.878	6.2
405.241	6.21
405.604	5.94
405.968	5.92
406.331	5.82
406.694	5.85
407.057	5.52
407.42	6.08
407.783	5.79
408.146	5.9
408.509	5.72
408.872	5.97
409.235	5.93
409.598	5.86
409.961	6.09
410.323	6.11
410.686	6
411.049	6.31
411.411	6.34
411.774	6.05
412.136	6.15
412.499	5.91
412.861	5.96
413.223	5.96
413.586	5.9
413.948	6.19
414.31	6.13
414.672	6.11
415.035	6.09
415.397	6.15
415.759	6.18
416.121	5.91
416.483	6.22
416.845	6.15
417.206	6.05
417.568	6.05
417.93	6.05
418.292	5.92
418.653	5.78
419.015	5.94
419.377	5.88
419.738	6.07
420.1	5.79
420.461	5.93
420.822	5.96
421.184	5.93
421.545	5.96
421.906	5.79
422.267	5.79
422.629	5.93
422.99	5.88
423.351	5.75
423.712	5.81
424.073	5.74
424.434	5.85
424.795	5.93
425.155	5.93
425.516	5.86
425.877	5.88
426.238	5.72
426.598	5.86
426.959	5.84
427.32	5.95
427.68	5.84
428.041	5.92
428.401	6.03
428.761	6.03
429.122	6.1
429.482	6.06
429.842	6.12
430.202	6.02
430.563	6.22
430.923	6.13
431.283	6.1
431.643	6.1
432.003	6.18
432.363	6.28
432.722	6.09
433.082	6.07
433.442	6.14
433.802	6.19
434.161	6.01
434.521	6.05
434.881	6.06
435.24	6.06
435.6	6.09
435.959	5.99
436.319	5.94
436.678	6.06
437.037	6.16
437.396	6.04
437.756	6.05
438.115	6.1
438.474	6.17
438.833	6.16
439.192	6.13
439.551	6.17
439.91	6.18
440.269	6.1
440.628	6.01
440.987	6.07
441.345	6.1
441.704	6.07
442.063	5.98
442.421	5.95
442.78	6.08
443.138	6.01
443.497	6.01
443.855	6.04
444.214	5.84
444.572	6.17
444.93	6.17
445.288	6.14
445.647	6.11
446.005	6.04
446.363	6.01
446.721	6.18
447.079	5.92
447.437	5.95
447.795	6
448.153	5.9
448.51	5.92
448.868	5.97
449.226	6.03
449.584	5.99
449.941	6
450.299	6.07
450.656	6.17
451.014	6.06
451.371	6.24
451.729	6.18
452.086	6.03
452.443	6.26
452.801	6.12
453.158	6.18
453.515	6.22
453.872	6.17
454.229	6.06
454.586	6.17
454.943	6.15
455.3	6.14
455.657	5.98
456.014	6.13
456.371	6.18
456.727	6.24
457.084	6.26
457.441	6.07
457.797	6.19
458.154	6.25
458.51	6
458.867	6.26
459.223	6.24
459.58	6.19
459.936	6.29
460.292	6.18
460.648	6.28
461.005	6.16
461.361	6.18
461.717	5.82
462.073	6.03
462.429	5.85
462.785	6.04
463.141	6
463.496	6.24
463.852	6.15
464.208	6.15
464.564	6.36
464.919	6.17
465.275	6.39
465.631	6.29
465.986	6.44
466.342	6.17
466.697	6.12
467.052	6.14
467.408	6.32
467.763	6.21
468.118	6.15
468.473	6.15
468.829	6.04
469.184	6.1
469.539	6.23
469.894	6.28
470.249	6.31
470.603	6.14
470.958	6.26
471.313	6.28
471.668	6.32
472.023	6.35
472.377	6.07
472.732	6.18
473.086	6.3
473.441	6.09
473.795	6.23
474.15	6.05
474.504	6.04
474.859	6.31
475.213	6.04
475.567	6.03
475.921	6.23
476.275	6.23
476.63	6.19
476.984	6.26
477.338	6.44
477.692	6.21
478.045	6.35
478.399	6.25
478.753	6.19
479.107	6.19
479.461	6.23
479.814	6.19
480.168	6.17
480.521	6.23
480.875	6.24
481.228	6.16
481.582	6.03
481.935	6.1
482.289	6.16
482.642	6.04
482.995	6.05
483.348	6.23
483.701	6.12
484.055	6.02
484.408	6.08
484.761	6.15
485.114	5.86
485.466	5.91
485.819	5.77
486.172	5.72
486.525	5.73
486.878	5.73
487.23	5.84
487.583	5.88
487.936	5.93
488.288	5.97
488.641	5.96
488.993	5.92
489.345	5.93
489.698	5.83
490.05	5.83
490.402	5.82
490.754	5.87
491.107	5.89
491.459	6
491.811	5.95
492.163	6
492.515	5.98
492.866	6.04
493.218	5.94
493.57	5.95
493.922	5.81
494.274	5.9
494.625	5.91
494.977	6
495.328	6.03
495.68	6.11
496.031	5.99
496.383	6.12
496.734	6.12
497.086	6.09
497.437	6.24
497.788	6.14
498.139	6.21
498.49	6.21
498.842	6.02
499.193	5.98
499.544	6.11
499.894	6.14
500.245	6.18
500.596	6.13
500.947	6.14
501.298	6.1
501.648	6.1
501.999	6.13
502.35	6.16
502.7	6.33
503.051	6.15
503.401	6.09
503.752	6.22
504.102	6.1
504.452	6.14
504.803	6.03
505.153	6.07
505.503	6.06
505.853	6.15
506.203	6.01
506.553	6.22
506.903	6.1
507.253	5.95
507.603	6.13
507.953	6.2
508.303	6.18
508.652	6.04
509.002	6.24
509.352	6.03
509.701	6.18
510.051	6.13
510.4	6.24
510.75	6.16
511.099	5.99
511.449	6.15
511.798	6.18
512.147	6.12
512.496	6.07
512.846	6.14
513.195	6.04
513.544	6.07
513.893	6.13
514.242	5.99
514.591	6.05
514.939	6.14
515.288	5.97
515.637	6.2
515.986	6.11
516.334	6.12
516.683	6.14
517.032	6.15
517.38	6.22
517.729	6.13
518.077	6.08
518.426	6.03
518.774	6.16
519.122	6.14
519.47	5.96
519.819	6.1
520.167	5.96
520.515	6.04
520.863	5.85
521.211	5.99
521.559	6.03
521.907	6.01
522.255	6
522.602	6.01
522.95	6.05
523.298	6.07
523.645	6.05
523.993	6.13
524.341	6.01
524.688	6.13
525.036	6.01
525.383	6.04
525.73	6.18
526.078	6.11
526.425	5.99
526.772	6.18
527.119	5.96
527.466	5.97
527.814	5.91
528.161	5.91
528.508	5.87
528.854	5.91
529.201	5.92
529.548	6.05
529.895	5.86
530.242	5.76
530.588	5.66
530.935	5.66
531.282	5.7
531.628	5.7
531.975	5.72
532.321	5.79
532.667	5.86
533.014	5.93
533.36	5.9
533.706	5.97
534.052	6.05
534.399	5.92
534.745	5.92
535.091	5.83
535.437	5.77
535.783	5.73
536.129	5.76
536.474	5.86
536.82	5.73
537.166	5.89
537.512	5.97
537.857	5.94
538.203	6.04
538.549	5.97
538.894	5.8
539.239	5.85
539.585	5.88
539.93	5.95
540.276	5.88
540.621	5.93
540.966	5.96
541.311	5.95
541.656	5.89
542.001	6.02
542.346	5.94
542.691	6.03
543.036	5.82
543.381	5.71
543.726	5.66
544.071	5.67
544.415	5.72
544.76	5.74
545.105	5.71
545.449	5.79
545.794	5.81
546.138	5.81
546.483	5.84
546.827	5.85
547.171	5.91
547.516	5.97
547.86	5.93
548.204	5.9
548.548	5.9
548.892	5.89
549.236	5.75
549.58	5.79
549.924	6.03
550.268	6
550.612	5.82
550.956	5.94
551.3	5.99
551.643	5.97
551.987	6.03
552.33	6.08
552.674	5.89
553.017	5.88
553.361	5.94
553.704	5.89
554.048	6.09
554.391	5.97
554.734	6.03
555.077	5.62
555.42	5.85
555.764	5.9
556.107	5.92
556.45	5.95
556.793	5.86
557.135	5.95
557.478	5.77
557.821	5.83
558.164	5.99
558.507	6.06
558.849	5.93
559.192	6.03
559.534	5.96
559.877	5.96
560.219	6.01
560.562	5.91
560.904	6.06
561.246	6.31
561.589	5.99
561.931	5.81
562.273	5.85
562.615	5.87
562.957	5.81
563.299	5.89
563.641	5.88
563.983	5.96
564.325	6.04
564.667	5.99
565.008	6.03
565.35	5.82
565.692	6.01
566.033	5.94
566.375	5.84
566.716	5.95
567.058	6.01
567.399	5.88
567.741	6.03
568.082	5.76
568.423	5.91
568.764	6.12
569.105	5.66
569.447	5.83
569.788	5.62
570.129	5.79
570.47	5.8
570.811	5.89
571.151	6.1
571.492	5.8
571.833	5.73
572.174	5.72
572.514	5.89
572.855	5.9
573.195	5.8
573.536	5.88
573.876	5.67
574.217	5.83
574.557	5.7
574.898	5.85
575.238	5.71
575.578	5.84
575.918	5.88
576.258	5.61
576.598	5.6
576.938	5.8
577.278	5.91
577.618	5.62
577.958	5.92
578.298	5.95
578.638	5.71
578.977	5.88
579.317	5.7
579.657	5.85
579.996	5.93
580.336	5.89
580.675	5.88
581.014	5.77
581.354	5.82
581.693	5.88
582.032	5.87
582.372	5.89
582.711	5.89
583.05	5.78
583.389	5.57
583.728	5.75
584.067	5.96
584.406	5.73
584.745	5.8
585.083	6.13
585.422	5.82
585.761	5.94
586.1	5.75
586.438	5.75
586.777	5.78
587.115	5.95
587.454	5.51
587.792	6.2
588.13	5.82
588.469	5.77
588.807	5.84
589.145	6.05
589.483	5.78
589.821	5.65
590.159	5.63
590.497	6.04
590.835	6.01
591.173	5.83
591.511	5.65
591.849	5.98
592.187	5.66
592.524	5.62
592.862	5.79
593.2	5.7
593.537	5.64
593.875	5.76
594.212	5.94
594.55	6.09
594.887	5.72
595.224	5.71
595.561	5.86
595.899	5.94
596.236	6.08
596.573	5.88
596.91	5.94
597.247	5.55
597.584	5.99
597.921	6.02
598.258	5.84
598.594	5.69
598.931	5.86
599.268	5.73
599.604	5.83
599.941	5.67
600.277	5.48
600.614	5.73
600.95	5.65
601.287	5.56
601.623	5.73
601.959	5.82
602.296	5.8
602.632	5.39
602.968	5.92
603.304	5.99
603.64	5.73
603.976	5.77
604.312	5.66
604.648	5.63
604.984	5.97
605.319	5.51
605.655	5.62
605.991	5.81
606.326	5.82
606.662	5.57
606.998	5.44
607.333	5.53
607.668	5.55
608.004	5.72
608.339	5.66
608.674	5.78
609.01	5.59
609.345	5.62
609.68	5.83
610.015	5.65
610.35	5.6
610.685	5.89
611.02	5.79
611.355	5.79
611.689	5.67
612.024	5.64
612.359	5.64
612.694	5.69
613.028	5.51
613.363	5.63
613.697	5.9
614.032	5.67
614.366	5.75
614.7	5.81
615.035	5.6
615.369	5.61
615.703	5.81
616.037	6.15
616.371	6.01
616.705	5.95
617.039	5.72
617.373	5.98
617.707	5.85
618.041	5.79
618.375	6
618.709	5.62
619.042	5.8
619.376	5.88
619.71	5.83
620.043	5.71
620.377	5.25
620.71	5.48
621.043	5.92
621.377	5.5
621.71	5.42
622.043	5.89
622.376	6.03
622.709	5.65
623.043	5.66
623.376	5.86
623.709	5.87
624.041	5.88
624.374	5.9
624.707	5.89
625.04	5.86
625.373	5.38
625.705	5.99
626.038	5.52
626.37	6.11
626.703	5.65
627.035	5.74
627.368	5.72
627.7	5.85
628.032	5.8
628.365	5.83
628.697	5.91
629.029	5.81
629.361	5.8
629.693	5.76
630.025	5.89
630.357	5.67
630.689	5.72
631.021	5.72
631.353	5.59
631.684	5.85
632.016	6.09
632.348	5.83
632.679	5.9
633.011	5.71
633.342	5.75
633.674	6.01
634.005	5.5
634.336	6.13
634.668	5.76
634.999	5.7
635.33	5.79
635.661	5.72
635.992	5.88
636.323	5.3
636.654	5.64
636.985	5.09
637.316	5.73
637.647	5.77
637.977	5.34
638.308	5.95
638.639	5.68
638.969	5.66
639.3	5.8
639.63	6.13
639.961	5.5
640.291	5.49
640.622	5.64
640.952	5.85
641.282	5.73
641.612	5.67
641.943	6.14
642.273	5.75
642.603	5.63
642.933	5.64
643.263	5.44
643.592	5.61
643.922	6.11
644.252	5.86
644.582	5.9
644.911	6.03
645.241	6.07
645.571	5.46
645.9	6.15
646.23	6.49
646.559	5.77
646.888	5.79
647.218	5.93
647.547	5.6
647.876	6.07
648.205	5.49
648.534	6.37
648.863	5.68
649.192	5.41
649.521	5.96
649.85	6.07
650.179	6
650.508	5.55
650.837	6.12
651.165	5.81
651.494	6.01
651.822	5.88
652.151	5.83
652.479	5.75
652.808	5.91
653.136	6.5
653.465	5.79
653.793	5.71
654.121	5.88
654.449	5.17
654.777	5.86
655.105	5.96
655.433	6.19
655.761	6.07
656.089	5.5
656.417	5.67
656.745	5.57
657.073	5.72
657.4	6
657.728	5.93
658.056	5.46
658.383	6.59
658.711	6.01
659.038	5.84
659.365	5.76
659.693	5.81
660.02	5.97
660.347	6.1
660.674	5.54
661.001	5.41
661.329	5.76
661.656	6
661.982	5.51
662.309	6.28
662.636	5.77
662.963	6
663.29	5.71
663.616	5.63
663.943	5.84
664.27	6.07
664.596	5.78
664.923	5.65
665.249	5.53
665.576	5.19
665.902	6.34
666.228	5.78
666.554	5.7
666.881	6.36
667.207	5.72
667.533	5.76
667.859	6.01
668.185	6.3
668.511	6.4
668.837	6.22
669.162	6.08
669.488	6.23
669.814	5.55
670.139	6.37
670.465	6.48
670.791	6.03
671.116	5.71
671.442	6.6
671.767	4.96
672.092	6.14
672.418	6.64
672.743	6.07
673.068	6.19
673.393	6.13
673.718	6.59
674.043	6.11
674.368	6.6
674.693	6.16
675.018	6.03
675.343	5.39
675.667	6.15
675.992	6.13
676.317	6.39
676.641	6.59
676.966	6.81
677.29	5.72
677.615	6.36
677.939	6.5
678.264	5.68
678.588	7.32
678.912	6.26
679.236	5.92
679.56	6.11
679.885	5.89
680.209	6.4
680.532	5.99
680.856	5.95
681.18	6.09
681.504	6.31
681.828	6.66
682.152	5.81
682.475	6.63
682.799	6.04
683.122	6.31
683.446	5.88
683.769	6.27
684.093	5.94
684.416	5.91
684.739	5.73
685.062	7.1
685.386	6.35
685.709	6.37
686.032	5.91
686.355	5.92
686.678	6.15
687.001	5.77
687.324	6.39
687.646	6.15
687.969	6.65
688.292	6.56
688.614	6.52
688.937	6.14
689.26	5.9
689.582	6.2
689.904	6.49
690.227	7.51
690.549	6.5
690.871	5.85
691.194	6.06
691.516	6.44
691.838	5.96
692.16	6.32
692.482	6.2
692.804	6.06
693.126	6.14
693.448	7.25
693.769	5.83
694.091	7.09
694.413	6.97
694.735	6.02
695.056	6.79
695.378	6.9
695.699	6.3
696.021	5.45
696.342	6.79
696.663	6.02
696.984	6.45
697.306	6.76
697.627	5.47
697.948	5.86
698.269	6.61
698.59	6.89
698.911	6.37
699.232	5.79
699.553	6.24
699.873	6.87
700.194	6.43
700.515	5.77
700.835	6.91
701.156	6.48
701.477	6.72
701.797	6
702.117	6.68
702.438	6.09
702.758	5.77
703.078	6.66
703.398	6.52
703.719	6.27
704.039	6.59
704.359	5.73
704.679	4.84
704.999	6.62
705.319	6.29
705.638	6.07
705.958	6.9
706.278	7.25
706.597	7.2
706.917	7.34
707.237	6.43
707.556	5.85
707.876	6.56
708.195	7.35
708.514	6.51
708.834	6.04
709.153	7.88
709.472	6.94
709.791	6.55
710.11	6.73
710.429	7.27
710.748	7.63
711.067	5.91
711.386	7.46
711.705	7.11
712.023	7.33
712.342	6.72
712.661	7.1
712.979	7.48
713.298	6.85
713.616	6.13
713.935	6.76
714.253	7.1
714.572	7.57
714.89	7.23
715.208	7.24
715.526	5.93
715.844	7.3
716.162	5.6
716.48	6.8
716.798	6.47
717.116	7.81
717.434	7.24
717.752	6.51
718.069	6.64
718.387	6.9
718.705	6.26
719.022	6.88
719.34	7.65
719.657	5.99
719.975	7.81
720.292	6.59
720.609	6.63
720.927	7.5
721.244	6.58
721.561	8.07
721.878	6.48
722.195	5.96
722.512	7.15
722.829	8.54
723.146	7.57
723.463	6.82
723.779	7.77
724.096	7.27
724.413	8.31
724.729	7.25
725.046	6.93
725.362	6.8
725.679	7.5
725.995	7.7
726.311	6.69
726.628	6.65
726.944	6.66
727.26	6.37
727.576	5.79
727.892	5.9
728.208	6.97
728.524	8.97
728.84	5.64
729.156	6.5
729.472	8.76
729.787	8.24
730.103	7.18
730.419	8.02
730.734	7.08
731.05	5.78
731.365	7.11
731.681	6.94
731.996	7.57
732.311	8.21
732.626	5.73
732.942	6.58
733.257	7.75
733.572	6.97
733.887	6.71
734.202	8.3
734.517	6.64
734.832	7.98
735.146	7.29
735.461	7.55
735.776	6.53
736.091	7.7
736.405	7.51
736.72	7.32
737.034	5.51
737.349	6.92
737.663	7.04
737.977	7.78
738.292	7.68
738.606	8
738.92	7.56
739.234	7.16
739.548	8.7
739.862	6.49
740.176	7.62
740.49	6.33
740.804	7.93
741.117	7.32
741.431	6.29
741.745	9.3
742.058	8.02
742.372	6.87
742.685	7.99
742.999	7.72
743.312	7.4
743.626	5.99
743.939	6.93
744.252	8.18
744.565	5.75
744.878	8.27
745.191	7.92
745.505	8.39
745.817	7.58
746.13	8.55
746.443	9.23
746.756	8.69
747.069	8.76
747.381	5.42
747.694	6.87
748.007	7.05
748.319	10.2
748.632	9.88
748.944	9.3
749.256	10.03
749.569	7.05
749.881	9.87
750.193	6.86
750.505	9.23
750.817	8.94
751.129	9.57
751.441	7.67
751.753	8.53
752.065	9.63
752.377	8.11
752.689	9.15
753	8.5
753.312	8.39
753.624	7.45
753.935	9.3
754.247	7.59
754.558	7.72
754.869	8.57
755.181	7.88
755.492	6.73
755.803	9.42
756.114	8.95
756.425	11.59
756.736	7.91
757.047	8.47
757.358	8.68
757.669	7.5
757.98	7.76
758.291	7.78
758.601	7.73
758.912	7.86
759.223	10.03
759.533	7.62
759.844	8.17
760.154	7.43
760.464	7.68
760.775	7.44
761.085	9.01
761.395	10.2
761.705	6.66
762.016	7.1
762.326	7.65
762.636	9.2
762.945	5.11
763.255	7.28
763.565	7.02
763.875	9.18
764.185	9.38
764.494	10.19
764.804	7.66
765.113	7.77
765.423	7.19
765.732	8.47
766.042	8.86
766.351	7.47
766.66	7.18
766.97	9
767.279	7.44
767.588	7.52
767.897	8.35
768.206	8.69
768.515	8.33
768.824	8.27
769.133	9.31
769.441	9
769.75	10.36
770.059	10.1
770.367	7.65
770.676	8.91
770.984	8.05
771.293	10.07
771.601	8.8
771.91	10.38
772.218	7.32
772.526	9.53
772.834	10.12
773.142	9.33
773.45	9.54
773.758	9.05
774.066	9.24
774.374	7.24
774.682	7.86
774.99	10.58
775.298	9.25
775.605	9.56
775.913	15.31
776.22	8.79
776.528	9.47
776.835	8.91
777.143	7.62
777.45	9.43
777.757	9.28
778.065	10.1
778.372	9.62
778.679	12.66
778.986	11.19
779.293	7.1
779.6	7.75
779.907	10.06
780.214	11.71
780.52	7.36
780.827	10.31
781.134	12.37
781.44	10.98
781.747	10.47
782.053	13.32
782.36	9.87
782.666	8.8
782.973	10.21
783.279	9.92
783.585	13.33
783.891	6.85
784.197	12.07
784.503	10.16
784.809	7.41
785.115	9.17
785.421	12.48
785.727	11.37
786.033	9.72
786.339	9.15
786.644	11.42
786.95	9.86
787.255	9.67
787.561	11.31
787.866	10.39
788.172	9.8
788.477	9.5
788.782	9.89
789.088	10.5
789.393	6.85
789.698	11.83
790.003	10
790.308	10.08
790.613	12.54
790.918	12.02
791.223	9.75
791.527	7.96
791.832	11.22
792.137	10.01
792.441	13.32
792.746	7.3
793.05	12.44
793.355	15.19
793.659	13.22
793.963	10.58
794.268	8.78
794.572	10.51
794.876	6.76
795.18	8.6
795.484	8.7
795.788	8.91
796.092	12.04
796.396	11.26
796.7	15.58
797.004	13.43
797.307	7.98
797.611	4.31
797.915	3.34
798.218	16.14
798.522	10.55
798.825	9.28
799.128	11.22
799.432	10.4
799.735	11.1
800.038	10
800.341	10.16
800.644	14.77
800.947	15.26
801.25	11.82
801.553	15.21
801.856	15.07
802.159	10.2
802.462	10.5
802.764	13.92
803.067	10.2
803.37	14.39
803.672	10.22
803.975	12.24
804.277	18.15
804.579	11.48
804.882	14.24
805.184	12.3
805.486	6.78
805.788	14.08
806.09	14.17
806.392	10.15
806.694	12.01
806.996	11.91
807.298	12.2
807.6	15.41
807.902	13.37
808.203	11.5
808.505	16.33
808.807	15.49
809.108	17.52
809.409	17.83
809.711	14.67
810.012	17.32
810.313	10.91
810.615	8.03
810.916	6.96
811.217	11.13
811.518	12.1
811.819	14.89
812.12	16.64
812.421	10.68
812.722	16.33
813.023	13.52
813.323	9.45
813.624	16.82
813.925	16.13
814.225	18.32
814.526	14.38
814.826	13.84
815.126	11.59
815.427	10.4
815.727	9.55
816.027	6.01
816.327	15.87
816.627	16.86
816.927	15.59
817.227	8.9
817.527	19.18
817.827	18.2
818.127	9.99
818.427	14.94
818.727	13.91
819.026	23.05
819.326	17.2
819.625	9.38
819.925	13.23
820.224	10.5
820.524	14.34
820.823	12.03
821.122	1.31
821.421	15.91
821.72	22.4
822.019	13.59
822.318	17.29
822.617	12.52
822.916	12.74
823.215	8.92
823.514	11.7
823.813	14.43
824.111	12.59
824.41	9.47
824.709	9.66
825.007	10.79
825.306	9.35
825.604	8.36
825.902	10.28
826.201	9.8
826.499	9.54
826.797	9.55
827.095	10.39
827.393	11.12
827.691	10.45
827.989	9.13
828.287	9.24
828.585	12.25
828.882	9.72
829.18	10.17
829.478	10.5
829.775	10.65
830.073	9.35
830.37	9.47
830.668	8.93
830.965	11.67
831.263	9.22
831.56	11.02
831.857	10.62
832.154	12.8
832.451	12.12
832.748	12.6
833.045	13.01
833.342	13.39
833.639	13.21
833.936	17.07
834.232	18.31
834.529	13.96
834.826	14.92
835.122	11.14
835.419	8.08
835.715	18.98
836.012	16.6
836.308	17.09
836.604	11.6
836.901	8.12
837.197	14.57
837.493	11.66
837.789	9
838.085	6.97
838.381	11.19
838.677	7.63
838.972	15.19
839.268	15.73
839.564	12.14
839.86	12.08
840.155	10.07
840.451	14.29
840.746	18.01
841.042	17.3
841.337	19.93
841.632	20.5
841.928	12.36
842.223	16.17
842.518	13.57
842.813	24.62
843.108	13.58
843.403	18.79
843.698	19.05
843.993	13.67
844.287	17.75
844.582	12.07
844.877	14.93
845.171	19.53
845.466	13.8
845.761	10.11
846.055	19.36
846.349	10.4
846.644	9.5
846.938	29.44
847.232	20
847.526	14.24
847.82	26.59
848.114	19.15
848.408	19.41
848.702	28.34
848.996	18.8
849.29	25.84
849.584	21.56
849.877	18.71
850.171	-1.72
850.465	5.05
850.758	27.36
851.052	14.23
851.345	28.82
851.638	17.5
851.932	31.58
852.225	40.37
852.518	45.19
852.811	28.46
853.104	23.12
853.397	32.84
853.69	25.5
853.983	21.72
854.276	26.18
854.569	26.24
854.861	25.35
855.154	18.06
855.447	35.19
855.739	3.4
856.032	25.58
856.324	28.41
856.616	29.55
856.909	24.61
857.201	11.92
857.493	47.87
857.785	24.09
858.077	41.5
858.369	38
858.661	23.87
858.953	29.52
859.245	40.52
859.537	24.56
859.829	19.6
860.12	16.04
860.412	26.03
860.703	-6.05
860.995	18.71
861.286	33.78
861.578	6.93
861.869	21.97
862.16	9.28
862.452	-11.88
862.743	33.67
863.034	28.79
863.325	23.71
863.616	42.8
863.907	28.27
864.198	35.97
864.488	36.33
864.779	12.79
865.07	5.78
865.36	2.87
865.651	25.92
865.941	2.77
866.232	23.42
866.522	21.77
866.813	38.32
867.103	47.65
867.393	33.02
867.683	16.29
867.973	43.08
868.263	1.2
868.553	43.63
868.843	65.45
869.133	12.41
869.423	34.52
869.713	29.76
870.002	19.07
870.292	27.08
870.582	13.27
870.871	14.36
871.161	17.29
871.45	33.51
871.739	41.13
872.029	40.26
872.318	39.04
872.607	25.67
872.896	28.81
873.185	23.37
873.474	44.28
873.763	18.03
874.052	35.44
874.341	39.06
874.63	19.27
874.918	28.54
875.207	31.81
875.496	5.4
875.784	-4.89
876.073	4.77
876.361	27.7
876.649	10.09
876.938	54.57
877.226	14.12
877.514	25.44
877.802	31.67
878.09	40.07
878.378	36.1
878.666	40.71
878.954	7.26
879.242	33.59
879.53	51.19
879.817	21.25
880.105	7.31
880.392	21.62
880.68	44.03
880.967	23.52
881.255	29.98
881.542	41.32
881.83	56.26
882.117	24.6
882.404	50.08
882.691	17.17
882.978	11.8
883.265	17.02
883.552	18.81
883.839	3.87
884.126	35.16
884.413	9.06
884.699	38.45
884.986	22.92
885.273	18.35
885.559	18.35
885.846	18.35
