Data from 0157_chest_Reflection__2__53.txt Node

Date: Fri Sep 22 20:45:14 CDT 2023
User: ToomeyLab
Spectrometer: FLMS14357
Trigger mode: 0
Integration Time (sec): 1.000000E-2
Scans to average: 100
Electric dark correction enabled: true
Nonlinearity correction enabled: false
Boxcar width: 0
XAxis mode: Wavelengths
Number of Pixels in Spectrum: 2048
>>>>>Begin Spectral Data<<<<<
189.047	63.65
189.435	63.65
189.823	63.65
190.211	34.05
190.599	-160.18
190.987	15.85
191.375	252.08
191.763	125.06
192.151	641.69
192.538	-55.65
192.926	28.28
193.314	5965.62
193.702	111
194.089	29.14
194.477	-41.26
194.864	108.15
195.252	102.71
195.639	70.03
196.027	-30.28
196.414	-75.68
196.801	-162.36
197.189	103.85
197.576	244.03
197.963	65.04
198.351	38.29
198.738	39.19
199.125	23.57
199.512	49.28
199.899	49.12
200.286	55.77
200.673	-1.77
201.06	5.26
201.447	41.34
201.833	-83.17
202.22	18.44
202.607	50.31
202.994	59.27
203.38	23.45
203.767	-28.65
204.154	47.12
204.54	22.73
204.927	9
205.313	38.34
205.699	51.13
206.086	57.17
206.472	58.51
206.858	26.01
207.245	16.62
207.631	30.03
208.017	49.69
208.403	7.22
208.789	24.85
209.175	56.38
209.561	40.83
209.947	30.67
210.333	14.59
210.719	-1.85
211.105	21.64
211.491	25.45
211.876	49.89
212.262	14.37
212.648	24.36
213.034	31.77
213.419	20.89
213.805	2.08
214.19	18.82
214.576	50.79
214.961	14.09
215.346	29.7
215.732	38.54
216.117	26.49
216.502	43.7
216.888	6.04
217.273	31.85
217.658	32.96
218.043	15.01
218.428	49.66
218.813	-24.76
219.198	38.41
219.583	10.89
219.968	-8.48
220.353	43.2
220.738	33.68
221.122	29.25
221.507	5.5
221.892	-3.54
222.276	21.4
222.661	-19.7
223.046	30.17
223.43	24.53
223.815	9.64
224.199	6.51
224.583	6.66
224.968	10.45
225.352	8.82
225.736	18.76
226.121	15.97
226.505	11.14
226.889	12.22
227.273	6.72
227.657	5.57
228.041	4.15
228.425	10.35
228.809	4.48
229.193	3.87
229.577	10.96
229.961	7.36
230.344	6.62
230.728	3.57
231.112	4.69
231.495	4.5
231.879	4.02
232.263	2.95
232.646	5.26
233.03	5.28
233.413	5.57
233.797	4.39
234.18	4.77
234.563	7.3
234.946	8
235.33	1.84
235.713	3.69
236.096	2.76
236.479	3.81
236.862	5.54
237.245	6.2
237.628	6.29
238.011	6.37
238.394	6.56
238.777	5.59
239.16	5.94
239.543	5.71
239.925	7.14
240.308	3.94
240.691	6.11
241.073	6.13
241.456	5.82
241.838	3.88
242.221	4.68
242.603	4.49
242.986	5.44
243.368	5.11
243.75	5.45
244.133	5.53
244.515	4.73
244.897	4.69
245.279	4.82
245.661	5.18
246.043	4.8
246.425	5.06
246.807	5.31
247.189	4.55
247.571	6.21
247.953	4.97
248.335	4.78
248.717	5.16
249.098	5.29
249.48	4.82
249.862	4.96
250.243	5.09
250.625	5.01
251.006	5.08
251.388	5.04
251.769	5.88
252.151	5.22
252.532	4.55
252.913	6.66
253.295	6.35
253.676	5.52
254.057	5.59
254.438	5.68
254.819	5.2
255.2	4.9
255.581	5.07
255.962	6.08
256.343	6.34
256.724	4.36
257.105	5.53
257.486	5.47
257.867	5.68
258.247	5.6
258.628	5.51
259.009	5.12
259.389	5
259.77	5.85
260.15	5.65
260.531	5.05
260.911	4.75
261.292	4.77
261.672	4.68
262.052	4.76
262.432	5.01
262.813	4.74
263.193	4.44
263.573	5.2
263.953	5.03
264.333	5.05
264.713	4.83
265.093	4.9
265.473	4.77
265.853	5.03
266.233	5.05
266.612	4.98
266.992	5.39
267.372	4.79
267.752	5.56
268.131	4.63
268.511	4.54
268.89	4.86
269.27	4.66
269.649	4.94
270.029	5.05
270.408	4.71
270.787	4.49
271.167	5.42
271.546	4.48
271.925	4.46
272.304	4.44
272.683	4.77
273.062	5.27
273.441	4.66
273.82	4.75
274.199	4.52
274.578	4.52
274.957	4.11
275.336	4.34
275.715	4.12
276.093	4.24
276.472	4.11
276.851	4.5
277.229	3.78
277.608	4.8
277.986	4.81
278.365	4.59
278.743	4.74
279.122	4.07
279.5	5.15
279.878	3.92
280.257	5.56
280.635	4.41
281.013	4.63
281.391	4.29
281.769	5.11
282.147	4.84
282.525	4.33
282.903	4.43
283.281	4.17
283.659	4.57
284.037	4.18
284.415	4.83
284.792	4.01
285.17	4.22
285.548	5.08
285.925	4.73
286.303	4.23
286.68	3.9
287.058	4.18
287.435	4.29
287.813	4.34
288.19	4.3
288.567	4.68
288.945	4.2
289.322	4.69
289.699	4.75
290.076	4.56
290.453	5.04
290.83	4.2
291.207	4.52
291.584	4.19
291.961	4.56
292.338	4.91
292.715	5.17
293.092	4.58
293.469	4.51
293.845	4.91
294.222	5.57
294.599	5.46
294.975	5.09
295.352	4.79
295.728	4.93
296.105	5.2
296.481	5.16
296.858	5.1
297.234	5.16
297.61	5.56
297.986	5.45
298.363	4.99
298.739	5.46
299.115	5.55
299.491	5.29
299.867	5.23
300.243	5.36
300.619	5.19
300.995	5.61
301.371	5.64
301.746	5.2
302.122	5.17
302.498	5.31
302.874	5.13
303.249	5.24
303.625	5.56
304	5.76
304.376	6
304.751	5.75
305.127	5.38
305.502	6.23
305.878	6.02
306.253	6
306.628	5.38
307.003	5.54
307.378	5.84
307.754	5.33
308.129	5.71
308.504	5.61
308.879	5.97
309.254	6.03
309.629	5.91
310.003	6.46
310.378	6.53
310.753	6.1
311.128	5.74
311.502	6.14
311.877	5.6
312.252	5.67
312.626	5.98
313.001	6.25
313.375	6.26
313.75	6.1
314.124	6.21
314.498	5.88
314.873	5.72
315.247	6.22
315.621	5.67
315.995	6.55
316.369	5.61
316.743	5.84
317.117	6.34
317.491	6.78
317.865	5.66
318.239	5.8
318.613	6.11
318.987	5.61
319.361	6.52
319.734	6.09
320.108	6.42
320.482	5.62
320.855	6.49
321.229	6.27
321.602	6.24
321.976	6.23
322.349	6.29
322.723	6.03
323.096	6.11
323.469	5.71
323.843	6.07
324.216	6.42
324.589	6.65
324.962	5.95
325.335	6.51
325.708	6.25
326.081	6.6
326.454	5.67
326.827	6.33
327.2	6.19
327.573	6.41
327.945	6.28
328.318	6.86
328.691	6.32
329.063	6.19
329.436	6.12
329.809	6.12
330.181	5.97
330.553	6.28
330.926	6.29
331.298	6.49
331.671	5.79
332.043	5.75
332.415	6.17
332.787	6.23
333.159	5.45
333.532	5.76
333.904	5.86
334.276	6.34
334.648	5.6
335.02	5.94
335.391	6.04
335.763	6.52
336.135	5.88
336.507	6.93
336.879	5.83
337.25	6.04
337.622	6.57
337.993	6.54
338.365	6.36
338.736	6.88
339.108	6.24
339.479	6.27
339.851	5.75
340.222	6.11
340.593	5.77
340.964	6.22
341.336	6.05
341.707	6.25
342.078	5.93
342.449	6.48
342.82	5.86
343.191	5.93
343.562	6.17
343.933	5.91
344.303	6.46
344.674	6.37
345.045	6.36
345.416	6.1
345.786	5.67
346.157	6.01
346.527	6.14
346.898	6.37
347.268	6.36
347.639	5.97
348.009	6.36
348.38	6.56
348.75	6.56
349.12	5.87
349.49	6.82
349.861	6.21
350.231	6.29
350.601	6.39
350.971	6.41
351.341	6.41
351.711	6.21
352.081	5.89
352.45	6.3
352.82	6.38
353.19	6.92
353.56	6.12
353.929	6.65
354.299	6.18
354.669	6.12
355.038	6.01
355.408	6.43
355.777	6.47
356.147	6.02
356.516	6.43
356.885	6.08
357.254	6.65
357.624	5.99
357.993	6.24
358.362	5.94
358.731	5.97
359.1	6.11
359.469	6.36
359.838	5.99
360.207	5.82
360.576	6.37
360.945	6.11
361.314	6.14
361.682	6.33
362.051	6.64
362.42	6.13
362.788	6.07
363.157	6.34
363.525	6.23
363.894	5.91
364.262	6.15
364.631	6.16
364.999	5.97
365.367	6.43
365.735	6.23
366.104	6.13
366.472	6.65
366.84	6.22
367.208	6.63
367.576	6.27
367.944	6.5
368.312	6.46
368.68	6.49
369.048	6.59
369.416	6.35
369.783	6.04
370.151	6.36
370.519	6.05
370.886	6.36
371.254	6.49
371.621	6.34
371.989	6.37
372.356	6.24
372.724	6.42
373.091	6.55
373.458	6.66
373.826	6.46
374.193	6.62
374.56	6.41
374.927	6.31
375.294	6.63
375.661	6.4
376.028	6.64
376.395	6.34
376.762	6.24
377.129	6.9
377.496	6.6
377.863	6.43
378.229	6.85
378.596	6.28
378.963	6.84
379.329	6.44
379.696	6.7
380.062	6.27
380.429	6.29
380.795	6.38
381.161	6.36
381.528	6.34
381.894	6.15
382.26	6.33
382.626	6.52
382.993	6.67
383.359	6.05
383.725	6.32
384.091	6.62
384.457	6.48
384.823	6.71
385.188	6.61
385.554	6.46
385.92	6.52
386.286	6.58
386.651	6.37
387.017	6.67
387.383	6.6
387.748	6.34
388.114	6.38
388.479	6.59
388.845	6.27
389.21	6.28
389.575	6.85
389.94	6.14
390.306	6.62
390.671	6.75
391.036	6.22
391.401	6.26
391.766	6.51
392.131	6.37
392.496	6.67
392.861	6.46
393.226	6.2
393.591	6.72
393.956	6.5
394.32	6.28
394.685	6.38
395.05	6.71
395.414	6.84
395.779	6.39
396.143	6.56
396.508	6.36
396.872	6.49
397.236	6.62
397.601	6.26
397.965	6.67
398.329	6.61
398.694	6.66
399.058	6.75
399.422	6.58
399.786	6.88
400.15	6.61
400.514	6.78
400.878	6.31
401.242	6.85
401.605	6.6
401.969	6.53
402.333	6.7
402.697	6.34
403.06	6.42
403.424	6.51
403.787	6.68
404.151	6.68
404.514	6.59
404.878	6.96
405.241	6.79
405.604	6.87
405.968	6.64
406.331	6.79
406.694	6.71
407.057	6.41
407.42	6.58
407.783	6.38
408.146	6.64
408.509	6.73
408.872	6.54
409.235	6.77
409.598	6.32
409.961	6.85
410.323	6.72
410.686	6.76
411.049	6.79
411.411	6.74
411.774	6.53
412.136	6.54
412.499	6.6
412.861	6.46
413.223	6.54
413.586	6.74
413.948	6.83
414.31	6.56
414.672	6.68
415.035	6.69
415.397	6.77
415.759	6.97
416.121	6.57
416.483	6.64
416.845	6.58
417.206	6.55
417.568	6.7
417.93	6.62
418.292	6.64
418.653	6.54
419.015	6.46
419.377	6.58
419.738	6.86
420.1	6.56
420.461	6.7
420.822	6.66
421.184	6.49
421.545	6.52
421.906	6.48
422.267	6.48
422.629	6.58
422.99	6.56
423.351	6.42
423.712	6.44
424.073	6.42
424.434	6.51
424.795	6.55
425.155	6.73
425.516	6.43
425.877	6.6
426.238	6.47
426.598	6.52
426.959	6.59
427.32	6.54
427.68	6.53
428.041	6.5
428.401	6.69
428.761	6.86
429.122	6.69
429.482	6.79
429.842	6.68
430.202	6.63
430.563	6.74
430.923	6.87
431.283	6.86
431.643	6.74
432.003	6.9
432.363	6.77
432.722	6.89
433.082	6.75
433.442	6.77
433.802	6.83
434.161	6.75
434.521	6.75
434.881	6.89
435.24	6.75
435.6	6.66
435.959	6.7
436.319	6.72
436.678	6.81
437.037	6.72
437.396	6.55
437.756	6.8
438.115	6.65
438.474	6.81
438.833	6.67
439.192	6.75
439.551	6.81
439.91	6.92
440.269	6.85
440.628	6.77
440.987	6.86
441.345	6.78
441.704	6.74
442.063	6.74
442.421	6.82
442.78	6.77
443.138	6.91
443.497	6.73
443.855	6.95
444.214	6.65
444.572	6.9
444.93	6.85
445.288	6.8
445.647	6.83
446.005	6.73
446.363	6.69
446.721	6.89
447.079	6.75
447.437	6.92
447.795	6.92
448.153	6.73
448.51	6.78
448.868	6.7
449.226	6.81
449.584	6.74
449.941	6.59
450.299	6.79
450.656	6.86
451.014	6.88
451.371	6.85
451.729	6.93
452.086	6.95
452.443	7
452.801	6.86
453.158	6.79
453.515	7.01
453.872	6.97
454.229	6.88
454.586	7.09
454.943	7
455.3	7.12
455.657	7.07
456.014	7.04
456.371	7.17
456.727	7.08
457.084	7.17
457.441	6.95
457.797	7.17
458.154	7.08
458.51	6.89
458.867	7.23
459.223	7.13
459.58	7.21
459.936	7.11
460.292	7.15
460.648	7.25
461.005	6.99
461.361	7.18
461.717	6.85
462.073	6.87
462.429	6.8
462.785	6.91
463.141	6.97
463.496	6.99
463.852	7.11
464.208	7.08
464.564	7.28
464.919	7.07
465.275	7.18
465.631	7.26
465.986	7.34
466.342	7.23
466.697	7.22
467.052	7
467.408	7.33
467.763	7.12
468.118	7.32
468.473	7.2
468.829	7.04
469.184	7.36
469.539	7.22
469.894	7.33
470.249	7.25
470.603	7.28
470.958	7.37
471.313	7.29
471.668	7.18
472.023	7.38
472.377	7.35
472.732	7.18
473.086	7.38
473.441	6.99
473.795	7.4
474.15	7.27
474.504	7.29
474.859	7.47
475.213	7.13
475.567	7.21
475.921	7.19
476.275	7.41
476.63	7.39
476.984	7.33
477.338	7.58
477.692	7.42
478.045	7.53
478.399	7.49
478.753	7.33
479.107	7.43
479.461	7.21
479.814	7.43
480.168	7.41
480.521	7.34
480.875	7.47
481.228	7.42
481.582	7.27
481.935	7.38
482.289	7.31
482.642	7.46
482.995	7.37
483.348	7.44
483.701	7.36
484.055	7.18
484.408	7.2
484.761	7.24
485.114	7.18
485.466	7.1
485.819	6.93
486.172	6.85
486.525	6.91
486.878	6.95
487.23	6.91
487.583	7.03
487.936	7.09
488.288	7.21
488.641	7.17
488.993	7.07
489.345	7.09
489.698	7.07
490.05	7.03
490.402	7.07
490.754	7.03
491.107	7.06
491.459	7.19
491.811	7.28
492.163	7.3
492.515	7.28
492.866	7.25
493.218	7.25
493.57	7.31
493.922	7.15
494.274	7.22
494.625	7.18
494.977	7.29
495.328	7.37
495.68	7.5
496.031	7.49
496.383	7.45
496.734	7.55
497.086	7.52
497.437	7.56
497.788	7.54
498.139	7.64
498.49	7.62
498.842	7.49
499.193	7.41
499.544	7.5
499.894	7.45
500.245	7.61
500.596	7.6
500.947	7.71
501.298	7.62
501.648	7.63
501.999	7.7
502.35	7.74
502.7	7.83
503.051	7.76
503.401	7.66
503.752	7.72
504.102	7.87
504.452	7.6
504.803	7.61
505.153	7.65
505.503	7.78
505.853	8.03
506.203	7.74
506.553	7.86
506.903	7.74
507.253	7.67
507.603	7.73
507.953	7.83
508.303	7.75
508.652	7.86
509.002	7.85
509.352	7.71
509.701	7.81
510.051	7.79
510.4	7.84
510.75	7.9
511.099	7.69
511.449	7.83
511.798	7.81
512.147	7.82
512.496	7.62
512.846	7.8
513.195	7.84
513.544	7.77
513.893	7.83
514.242	7.78
514.591	7.95
514.939	7.83
515.288	7.76
515.637	7.79
515.986	7.86
516.334	7.82
516.683	7.95
517.032	8.11
517.38	8.12
517.729	8.07
518.077	8
518.426	7.94
518.774	8.08
519.122	8.05
519.47	7.96
519.819	7.91
520.167	7.93
520.515	7.85
520.863	7.86
521.211	7.94
521.559	7.88
521.907	7.97
522.255	7.98
522.602	7.9
522.95	7.88
523.298	8.1
523.645	8.04
523.993	8.01
524.341	8.12
524.688	8.12
525.036	7.97
525.383	8.05
525.73	8.31
526.078	8.12
526.425	8.19
526.772	8.28
527.119	8.09
527.466	7.95
527.814	7.91
528.161	7.96
528.508	8.02
528.854	7.97
529.201	8.07
529.548	8.08
529.895	7.97
530.242	7.98
530.588	7.8
530.935	7.75
531.282	7.74
531.628	7.82
531.975	7.75
532.321	7.8
532.667	7.98
533.014	8.02
533.36	8.07
533.706	8.16
534.052	8.21
534.399	8.24
534.745	8.19
535.091	8.04
535.437	8.07
535.783	7.99
536.129	8.07
536.474	8.09
536.82	8.06
537.166	8.24
537.512	8.29
537.857	8.36
538.203	8.36
538.549	8.2
538.894	8.27
539.239	8.17
539.585	8.29
539.93	8.43
540.276	8.47
540.621	8.38
540.966	8.46
541.311	8.62
541.656	8.53
542.001	8.42
542.346	8.53
542.691	8.59
543.036	8.46
543.381	8.31
543.726	8.26
544.071	8.21
544.415	8.24
544.76	8.21
545.105	8.26
545.449	8.39
545.794	8.47
546.138	8.49
546.483	8.57
546.827	8.51
547.171	8.57
547.516	8.68
547.86	8.75
548.204	8.71
548.548	8.73
548.892	8.74
549.236	8.62
549.58	8.62
549.924	8.78
550.268	9.02
550.612	8.67
550.956	8.82
551.3	8.83
551.643	8.89
551.987	8.95
552.33	9.07
552.674	8.92
553.017	9
553.361	9.06
553.704	9.01
554.048	9.08
554.391	8.89
554.734	9.08
555.077	9
555.42	8.9
555.764	8.87
556.107	9.08
556.45	8.95
556.793	8.85
557.135	9.09
557.478	8.8
557.821	9.14
558.164	9.24
558.507	9.32
558.849	9.09
559.192	9.37
559.534	9.31
559.877	9.22
560.219	9.29
560.562	9.25
560.904	9.54
561.246	9.51
561.589	9.35
561.931	9.3
562.273	9.32
562.615	9.47
562.957	9.33
563.299	9.2
563.641	9.59
563.983	9.52
564.325	9.48
564.667	9.31
565.008	9.57
565.35	9.43
565.692	9.65
566.033	9.47
566.375	9.37
566.716	9.62
567.058	9.38
567.399	9.64
567.741	9.44
568.082	9.43
568.423	9.44
568.764	9.72
569.105	9.26
569.447	9.66
569.788	9.53
570.129	9.49
570.47	9.72
570.811	9.51
571.151	9.75
571.492	9.5
571.833	9.59
572.174	9.77
572.514	9.83
572.855	9.61
573.195	9.62
573.536	9.71
573.876	9.56
574.217	9.78
574.557	9.48
574.898	9.85
575.238	9.68
575.578	9.73
575.918	9.92
576.258	9.68
576.598	9.86
576.938	9.87
577.278	9.98
577.618	9.72
577.958	10
578.298	10.01
578.638	10.01
578.977	9.84
579.317	10.13
579.657	10.03
579.996	10.16
580.336	10.09
580.675	10.28
581.014	10.04
581.354	10.1
581.693	10.13
582.032	10.32
582.372	10.18
582.711	10.08
583.05	10.34
583.389	10.02
583.728	10.44
584.067	10.31
584.406	10.15
584.745	10.09
585.083	10.46
585.422	10.3
585.761	10.04
586.1	10.22
586.438	10.39
586.777	10.48
587.115	10.41
587.454	10.25
587.792	10.61
588.13	10.53
588.469	10.32
588.807	10.69
589.145	10.65
589.483	10.39
589.821	10.48
590.159	10.68
590.497	10.63
590.835	10.71
591.173	10.47
591.511	10.75
591.849	10.8
592.187	10.65
592.524	10.79
592.862	10.58
593.2	10.74
593.537	10.55
593.875	10.58
594.212	10.74
594.55	10.91
594.887	10.66
595.224	10.64
595.561	11
595.899	10.93
596.236	11.18
596.573	10.88
596.91	10.74
597.247	10.77
597.584	11.13
597.921	10.95
598.258	11.02
598.594	10.91
598.931	10.8
599.268	10.85
599.604	11.06
599.941	10.94
600.277	10.83
600.614	10.96
600.95	11.1
601.287	11.23
601.623	10.81
601.959	11.31
602.296	11.11
602.632	11.1
602.968	11.37
603.304	11.23
603.64	11.14
603.976	11.35
604.312	11.19
604.648	11.24
604.984	11.03
605.319	11.19
605.655	11.02
605.991	11.11
606.326	11.15
606.662	11.32
606.998	11.1
607.333	11.18
607.668	11.1
608.004	11.33
608.339	11.03
608.674	11.33
609.01	11.32
609.345	11.39
609.68	11.65
610.015	11.41
610.35	11.67
610.685	11.67
611.02	11.36
611.355	11.78
611.689	11.58
612.024	11.53
612.359	11.52
612.694	11.4
613.028	11.28
613.363	11.69
613.697	11.6
614.032	11.73
614.366	11.73
614.7	11.85
615.035	11.93
615.369	11.35
615.703	11.67
616.037	12.1
616.371	12
616.705	11.95
617.039	12.08
617.373	11.81
617.707	11.87
618.041	12.08
618.375	11.86
618.709	11.95
619.042	12.27
619.376	12.21
619.71	12.33
620.043	11.95
620.377	12
620.71	12.25
621.043	12.26
621.377	12.03
621.71	12.33
622.043	12.05
622.376	12.54
622.709	12.6
623.043	12.28
623.376	12.54
623.709	12.52
624.041	12.51
624.374	12.43
624.707	12.56
625.04	12.53
625.373	12.32
625.705	12.64
626.038	12.37
626.37	12.62
626.703	12.76
627.035	12.47
627.368	12.73
627.7	12.93
628.032	12.55
628.365	12.5
628.697	12.44
629.029	12.51
629.361	12.46
629.693	12.47
630.025	12.57
630.357	12.24
630.689	12.46
631.021	12.55
631.353	12.67
631.684	12.69
632.016	12.85
632.348	12.7
632.679	12.65
633.011	12.76
633.342	13.01
633.674	13.04
634.005	12.43
634.336	12.97
634.668	13.18
634.999	13.02
635.33	13.02
635.661	13.09
635.992	13.07
636.323	12.75
636.654	12.67
636.985	12.82
637.316	12.76
637.647	13
637.977	12.75
638.308	13.48
638.639	13.28
638.969	13.47
639.3	13.18
639.63	13.37
639.961	12.77
640.291	13.18
640.622	13.34
640.952	13.28
641.282	13.13
641.612	13.66
641.943	13.3
642.273	13.06
642.603	13.14
642.933	13.58
643.263	13.24
643.592	13.41
643.922	13.59
644.252	13.07
644.582	14.21
644.911	13.48
645.241	13.24
645.571	13.28
645.9	13.89
646.23	14.47
646.559	13.57
646.888	14.17
647.218	13.71
647.547	13.59
647.876	13.41
648.205	13.3
648.534	13.77
648.863	13.43
649.192	13.6
649.521	13.36
649.85	13.97
650.179	13.68
650.508	13.45
650.837	14.03
651.165	13.75
651.494	13.59
651.822	13.79
652.151	13.73
652.479	14.31
652.808	13.99
653.136	14.64
653.465	14
653.793	13.75
654.121	14.14
654.449	13.82
654.777	14.01
655.105	14.5
655.433	14.1
655.761	14.35
656.089	14.25
656.417	14.06
656.745	14.33
657.073	14.31
657.4	14.4
657.728	14.47
658.056	14.25
658.383	14.52
658.711	14.03
659.038	14.23
659.365	14.84
659.693	14.28
660.02	14.72
660.347	14.33
660.674	14.31
661.001	14.15
661.329	14.12
661.656	14.18
661.982	14.25
662.309	14.48
662.636	14.42
662.963	14.56
663.29	14.51
663.616	14.62
663.943	14.62
664.27	14.6
664.596	14.59
664.923	14.72
665.249	14.44
665.576	14.29
665.902	14.75
666.228	14.43
666.554	14.56
666.881	15.36
667.207	14.81
667.533	14.52
667.859	15.25
668.185	15.12
668.511	14.93
668.837	14.72
669.162	15.01
669.488	14.82
669.814	14.28
670.139	15.34
670.465	15.68
670.791	15.4
671.116	15.1
671.442	15.02
671.767	14.66
672.092	15.7
672.418	15.26
672.743	14.86
673.068	15.08
673.393	14.82
673.718	15.2
674.043	15.02
674.368	15.47
674.693	15.04
675.018	15.47
675.343	14.69
675.667	15.37
675.992	15.04
676.317	15.92
676.641	15.76
676.966	15.32
677.29	15.36
677.615	15.64
677.939	15.91
678.264	16.28
678.588	16.23
678.912	15.89
679.236	15.25
679.56	14.91
679.885	15.29
680.209	16.43
680.532	15.93
680.856	15.44
681.18	16.14
681.504	15.34
681.828	15.73
682.152	15.8
682.475	15.91
682.799	16.35
683.122	15.65
683.446	15.66
683.769	15.96
684.093	15.42
684.416	15.98
684.739	16.14
685.062	16.58
685.386	16.07
685.709	15.64
686.032	16.15
686.355	16.37
686.678	15.79
687.001	15.95
687.324	16.4
687.646	16.21
687.969	16.85
688.292	16.19
688.614	16.87
688.937	15.89
689.26	16.03
689.582	16.31
689.904	15.84
690.227	16.96
690.549	16.92
690.871	16.67
691.194	16.63
691.516	16.7
691.838	16.47
692.16	15.12
692.482	16.11
692.804	15.7
693.126	16.41
693.448	16.9
693.769	15.63
694.091	17.06
694.413	16.22
694.735	16.54
695.056	17.45
695.378	17.58
695.699	17.22
696.021	15.76
696.342	17.14
696.663	16.65
696.984	16.25
697.306	16.15
697.627	16.02
697.948	17.02
698.269	16.53
698.59	16.35
698.911	17.29
699.232	16.32
699.553	16.2
699.873	16.32
700.194	16.53
700.515	16.06
700.835	17.15
701.156	17.42
701.477	16.9
701.797	16.54
702.117	17.11
702.438	17.13
702.758	16.46
703.078	16.81
703.398	17.25
703.719	16.29
704.039	17.76
704.359	17.08
704.679	15.89
704.999	17.79
705.319	16.93
705.638	17.05
705.958	17.15
706.278	18.26
706.597	18.14
706.917	17.46
707.237	16.74
707.556	16.54
707.876	17.05
708.195	18.04
708.514	17.69
708.834	18.11
709.153	17.42
709.472	16.96
709.791	17.82
710.11	18.02
710.429	17.78
710.748	18.12
711.067	17.34
711.386	17.76
711.705	17.52
712.023	17.73
712.342	18.29
712.661	18.26
712.979	18.43
713.298	17.98
713.616	17.74
713.935	18.5
714.253	19.08
714.572	18.24
714.89	18.35
715.208	18.83
715.526	17.79
715.844	18.51
716.162	17.58
716.48	18.33
716.798	18.29
717.116	18.59
717.434	17.15
717.752	18.23
718.069	17.8
718.387	17.93
718.705	17.19
719.022	18.2
719.34	18.25
719.657	17.34
719.975	18.8
720.292	18.49
720.609	19.48
720.927	17.91
721.244	18.28
721.561	19.32
721.878	18.4
722.195	18.35
722.512	19.34
722.829	18.9
723.146	19.06
723.463	17.4
723.779	17.81
724.096	17.44
724.413	20.43
724.729	20.07
725.046	19.38
725.362	19.43
725.679	18.92
725.995	18.16
726.311	17.78
726.628	19.1
726.944	18.63
727.26	19.54
727.576	18.46
727.892	16.57
728.208	19.82
728.524	19.92
728.84	18.17
729.156	18.72
729.472	20.03
729.787	18.65
730.103	18.74
730.419	20.06
730.734	18.56
731.05	19.44
731.365	20.41
731.681	18.64
731.996	19.17
732.311	19.91
732.626	19.02
732.942	19.63
733.257	19.47
733.572	18.53
733.887	19.1
734.202	19.62
734.517	19.81
734.832	20.16
735.146	20.67
735.461	19.43
735.776	19.57
736.091	19.58
736.405	18.61
736.72	18.8
737.034	18.61
737.349	18.54
737.663	20.15
737.977	20.66
738.292	19
738.606	19.45
738.92	19.26
739.234	20.54
739.548	21.05
739.862	19.12
740.176	19.4
740.49	20.14
740.804	19.09
741.117	19.36
741.431	19.31
741.745	21
742.058	19.32
742.372	20.12
742.685	19.9
742.999	20.22
743.312	19.64
743.626	20.57
743.939	19.98
744.252	19.86
744.565	19.37
744.878	18.08
745.191	20.75
745.505	19.2
745.817	20.41
746.13	20.58
746.443	21.49
746.756	21.29
747.069	20.07
747.381	18.54
747.694	20.58
748.007	20.62
748.319	21.16
748.632	21.46
748.944	19.85
749.256	20.52
749.569	18.73
749.881	21.83
750.193	22.28
750.505	20.4
750.817	22.98
751.129	22.56
751.441	21.18
751.753	21.41
752.065	23.81
752.377	19.61
752.689	20.67
753	20.49
753.312	20.35
753.624	20.85
753.935	23.7
754.247	19.64
754.558	21.37
754.869	21.08
755.181	20.39
755.492	19.55
755.803	21.46
756.114	21.85
756.425	21.2
756.736	20.45
757.047	22.08
757.358	20.89
757.669	21.07
757.98	20.91
758.291	21.45
758.601	21.75
758.912	20.69
759.223	22.28
759.533	21.42
759.844	23.02
760.154	20.59
760.464	21.17
760.775	20.95
761.085	21.55
761.395	21.47
761.705	22.55
762.016	20.72
762.326	20.16
762.636	22.09
762.945	22.02
763.255	21.48
763.565	20.66
763.875	20.31
764.185	22.17
764.494	23.54
764.804	22.4
765.113	21.16
765.423	22.46
765.732	21.67
766.042	22.82
766.351	21.29
766.66	22.18
766.97	21.41
767.279	21.39
767.588	21.85
767.897	21.28
768.206	21.79
768.515	21.26
768.824	22.27
769.133	21.9
769.441	23.7
769.75	23.34
770.059	24.48
770.367	21.66
770.676	23.31
770.984	21.33
771.293	23.24
771.601	22.21
771.91	24.88
772.218	21.28
772.526	22.93
772.834	21.58
773.142	20.88
773.45	22.9
773.758	24.15
774.066	22.19
774.374	22.81
774.682	23.77
774.99	22.43
775.298	21.39
775.605	24.81
775.913	23.84
776.22	20.95
776.528	22.08
776.835	21.09
777.143	22.29
777.45	24.17
777.757	22.54
778.065	20.87
778.372	22.67
778.679	27.39
778.986	26.25
779.293	22.73
779.6	22.35
779.907	24.52
780.214	28.06
780.52	21.89
780.827	22.25
781.134	23.99
781.44	24.11
781.747	23.17
782.053	21.87
782.36	24.11
782.666	24.56
782.973	24.02
783.279	23.59
783.585	25.64
783.891	21.54
784.197	22.93
784.503	21.69
784.809	25.54
785.115	25.15
785.421	25.62
785.727	23.61
786.033	25.91
786.339	21.93
786.644	27.8
786.95	23.11
787.255	25.85
787.561	25.27
787.866	24.49
788.172	28.44
788.477	25.8
788.782	22.36
789.088	23.05
789.393	24.37
789.698	23.81
790.003	24.17
790.308	23.55
790.613	23.09
790.918	24.11
791.223	22.44
791.527	21.42
791.832	25.86
792.137	19.96
792.441	27.26
792.746	22.56
793.05	23.59
793.355	29.49
793.659	28.58
793.963	21.9
794.268	20.61
794.572	22.59
794.876	24.55
795.18	23.81
795.484	23.3
795.788	24.38
796.092	25.48
796.396	27.96
796.7	25.03
797.004	24.56
797.307	20.84
797.611	20.36
797.915	25.16
798.218	29.28
798.522	25.62
798.825	29.4
799.128	25.52
799.432	24.96
799.735	26.13
800.038	27.41
800.341	22.09
800.644	23.98
800.947	26.36
801.25	24.76
801.553	28.64
801.856	25.98
802.159	23.54
802.462	23.72
802.764	27.04
803.067	24.97
803.37	30.14
803.672	22.51
803.975	19.24
804.277	30.29
804.579	26.33
804.882	28.42
805.184	25.75
805.486	23.64
805.788	32.7
806.09	28.49
806.392	25.38
806.694	28.35
806.996	30.85
807.298	26.22
807.6	26.04
807.902	27.7
808.203	27.54
808.505	31.39
808.807	23.08
809.108	27.34
809.409	32.51
809.711	29.44
810.012	29.54
810.313	22.91
810.615	28.14
810.916	23.81
811.217	30.49
811.518	22.26
811.819	28.29
812.12	21.87
812.421	31.04
812.722	26.38
813.023	28.25
813.323	23.75
813.624	25.4
813.925	29.3
814.225	28.9
814.526	28.97
814.826	27.1
815.126	27.08
815.427	25.47
815.727	27.8
816.027	21.3
816.327	29.79
816.627	29.92
816.927	29.21
817.227	30.58
817.527	24.13
817.827	20.88
818.127	24.41
818.427	31.77
818.727	29.95
819.026	32.21
819.326	27.04
819.625	23.5
819.925	30.32
820.224	28.95
820.524	25.33
820.823	25.19
821.122	17.91
821.421	30.61
821.72	30.24
822.019	23.66
822.318	27.23
822.617	26.18
822.916	25.91
823.215	29.03
823.514	28
823.813	33.02
824.111	29.64
824.41	26.35
824.709	27.36
825.007	26.05
825.306	25.83
825.604	25.88
825.902	26.28
826.201	27.05
826.499	26.24
826.797	26.13
827.095	26.82
827.393	27.4
827.691	26.93
827.989	24.98
828.287	27.3
828.585	30.31
828.882	27.6
829.18	27.52
829.478	27.75
829.775	25.6
830.073	26.88
830.37	26.77
830.668	27.2
830.965	29.13
831.263	26.77
831.56	26.36
831.857	27.41
832.154	27.84
832.451	25.15
832.748	28.82
833.045	27.36
833.342	28.8
833.639	24.28
833.936	31.58
834.232	27.28
834.529	33.45
834.826	30.06
835.122	29.59
835.419	29.42
835.715	27.21
836.012	27.35
836.308	32.32
836.604	32.48
836.901	26.48
837.197	28.19
837.493	26.34
837.789	26.83
838.085	25.19
838.381	27.32
838.677	27.26
838.972	31.63
839.268	27.42
839.564	35.75
839.86	28.32
840.155	28.68
840.451	34.37
840.746	31.22
841.042	30.12
841.337	38.34
841.632	27.43
841.928	31.7
842.223	27.01
842.518	30.61
842.813	39.05
843.108	34.62
843.403	27.87
843.698	36.17
843.993	25.34
844.287	29.86
844.582	22.41
844.877	31.52
845.171	32.7
845.466	28.47
845.761	21.88
846.055	28.04
846.349	15.6
846.644	24.45
846.938	24.71
847.232	38.77
847.526	32.9
847.82	39.04
848.114	42.37
848.408	28.87
848.702	35.99
848.996	37.44
849.29	47.39
849.584	26.99
849.877	21.24
850.171	33.41
850.465	23.93
850.758	27.77
851.052	32.01
851.345	40.39
851.638	36.54
851.932	53.91
852.225	30.2
852.518	33.59
852.811	47.63
853.104	45.03
853.397	47.88
853.69	37.46
853.983	45.58
854.276	36.63
854.569	27.06
854.861	21.66
855.154	27.89
855.447	32.04
855.739	34.23
856.032	49.98
856.324	41.97
856.616	38.39
856.909	1.58
857.201	34.83
857.493	50.18
857.785	37.72
858.077	43.51
858.369	36.75
858.661	25.34
858.953	31
859.245	58.1
859.537	48.96
859.829	30.38
860.12	32.29
860.412	35.67
860.703	22.64
860.995	44.41
861.286	26.51
861.578	32.49
861.869	33.12
862.16	21.39
862.452	-13.65
862.743	56.77
863.034	45.88
863.325	45.69
863.616	58.1
863.907	33.31
864.198	28.01
864.488	2.59
864.779	14.6
865.07	58.12
865.36	59.69
865.651	38.22
865.941	16.94
866.232	24.68
866.522	30.98
866.813	70.58
867.103	42.05
867.393	39.26
867.683	36.66
867.973	52.36
868.263	30.97
868.553	26.37
868.843	65.8
869.133	47.91
869.423	63.99
869.713	69.52
870.002	43.54
870.292	34.64
870.582	45.87
870.871	38.47
871.161	-1.13
871.45	21.78
871.739	48.86
872.029	59.01
872.318	42.96
872.607	43.2
872.896	26.38
873.185	39.31
873.474	19.94
873.763	4.73
874.052	73.54
874.341	34.77
874.63	59.14
874.918	23.34
875.207	41.16
875.496	55.3
875.784	35.59
876.073	22.37
876.361	33.72
876.649	37.02
876.938	63.09
877.226	24.98
877.514	49.89
877.802	42.57
878.09	41.81
878.378	39.67
878.666	22.8
878.954	33.8
879.242	23.48
879.53	36.56
879.817	32.27
880.105	-11.76
880.392	21.83
880.68	22.2
880.967	63.15
881.255	11.57
881.542	28.45
881.83	65.96
882.117	39.79
882.404	52.79
882.691	32.35
882.978	42.75
883.265	31.3
883.552	42.74
883.839	27.89
884.126	41.32
884.413	23.53
884.699	56.36
884.986	42.49
885.273	27.77
885.559	27.77
885.846	27.77
