Data from 1710-4_crown_Reflection__2__173.txt Node

Date: Fri Sep 30 19:27:19 CDT 2022
User: ToomeyLab
Spectrometer: FLMS14357
Trigger mode: 0
Integration Time (sec): 1.000000E-2
Scans to average: 100
Electric dark correction enabled: true
Nonlinearity correction enabled: false
Boxcar width: 0
XAxis mode: Wavelengths
Number of Pixels in Spectrum: 2048
>>>>>Begin Spectral Data<<<<<
189.047	54.51
189.435	54.51
189.823	54.51
190.211	-44.32
190.599	58.23
190.987	105.2
191.375	-12.65
191.763	122.12
192.151	-60.39
192.538	-3355.1
192.926	-23.91
193.314	75.06
193.702	18.74
194.089	969.04
194.477	75.71
194.864	5.38
195.252	-450.89
195.639	67.54
196.027	153.28
196.414	49.82
196.801	169.71
197.189	241.76
197.576	212.67
197.963	16.53
198.351	1.41
198.738	-33.24
199.125	-41.22
199.512	20.45
199.899	-35.96
200.286	11.7
200.673	-83.65
201.06	-117.01
201.447	-31.04
201.833	63.3
202.22	-106.36
202.607	58.25
202.994	23.37
203.38	23.52
203.767	24.66
204.154	36.49
204.54	42.02
204.927	-47.94
205.313	10.35
205.699	11.68
206.086	42.88
206.472	31.59
206.858	12.68
207.245	-86.89
207.631	12.32
208.017	14.13
208.403	39.11
208.789	35.89
209.175	21.27
209.561	-21.29
209.947	9.69
210.333	28.15
210.719	1.5
211.105	-56.77
211.491	-0.99
211.876	16.84
212.262	10.58
212.648	25.57
213.034	1.66
213.419	-49.22
213.805	18.2
214.19	19.01
214.576	-0.95
214.961	51.93
215.346	20.91
215.732	-6.38
216.117	-64.39
216.502	-6.33
216.888	-12.57
217.273	18.27
217.658	4.19
218.043	41.9
218.428	12.57
218.813	-29.75
219.198	-21.2
219.583	-2.85
219.968	12.52
220.353	15.82
220.738	33.2
221.122	-7.52
221.507	5.99
221.892	-3.14
222.276	-28.27
222.661	-9.05
223.046	-9.62
223.43	9.04
223.815	8.76
224.199	-4.94
224.583	12.17
224.968	6.6
225.352	-4.44
225.736	6.5
226.121	11.97
226.505	9.41
226.889	7.45
227.273	6.43
227.657	1.71
228.041	2.75
228.425	4.61
228.809	5.67
229.193	4.26
229.577	4.89
229.961	4.75
230.344	5.32
230.728	5.88
231.112	5.94
231.495	4.72
231.879	5.98
232.263	5.31
232.646	5.26
233.03	4.51
233.413	3.72
233.797	0.63
234.18	2.19
234.563	5.16
234.946	3.53
235.33	2.69
235.713	1.12
236.096	5.67
236.479	4
236.862	6.59
237.245	4.51
237.628	5.02
238.011	2.9
238.394	2.87
238.777	4.58
239.16	4.76
239.543	6.18
239.925	-0.19
240.308	3.65
240.691	2.47
241.073	3.47
241.456	4.72
241.838	4.23
242.221	4.53
242.603	4.85
242.986	5.09
243.368	4.83
243.75	3.53
244.133	3.99
244.515	4.03
244.897	3.88
245.279	4.2
245.661	5.52
246.043	3.99
246.425	4.69
246.807	4.53
247.189	4.21
247.571	4.87
247.953	3.8
248.335	4.52
248.717	4.16
249.098	4.37
249.48	4.59
249.862	3.6
250.243	4.28
250.625	4.57
251.006	4.94
251.388	4.37
251.769	4.67
252.151	4.5
252.532	3.44
252.913	3.53
253.295	3.44
253.676	3.86
254.057	4.09
254.438	3.92
254.819	5.04
255.2	4.62
255.581	3.52
255.962	4.16
256.343	2.98
256.724	4.21
257.105	3.22
257.486	4.24
257.867	3.91
258.247	2.97
258.628	3.73
259.009	3.54
259.389	4.78
259.77	3.58
260.15	3.33
260.531	4.19
260.911	3.79
261.292	4.23
261.672	3.79
262.052	4.05
262.432	4.08
262.813	4.04
263.193	3.53
263.573	3.79
263.953	4.05
264.333	4.01
264.713	3.86
265.093	3.92
265.473	3.97
265.853	3.98
266.233	4.28
266.612	4.33
266.992	3.93
267.372	4.33
267.752	3.27
268.131	4.27
268.511	3.53
268.89	3.64
269.27	4.38
269.649	4.43
270.029	3.67
270.408	4.19
270.787	3.93
271.167	3.71
271.546	3.78
271.925	3.56
272.304	4.16
272.683	3.74
273.062	3.9
273.441	3.43
273.82	3.78
274.199	4.14
274.578	3.6
274.957	3.59
275.336	3.41
275.715	3.32
276.093	3.43
276.472	3.57
276.851	4.23
277.229	3.94
277.608	4
277.986	4
278.365	4.4
278.743	3.97
279.122	3
279.5	4.01
279.878	3.11
280.257	3.25
280.635	3.66
281.013	4.23
281.391	3.45
281.769	3.57
282.147	3.86
282.525	4.02
282.903	3.9
283.281	3.9
283.659	3.56
284.037	3.71
284.415	3.11
284.792	3.55
285.17	3.77
285.548	4.15
285.925	3.55
286.303	3.3
286.68	3.93
287.058	3.87
287.435	3.58
287.813	3.29
288.19	3.26
288.567	3.44
288.945	3.56
289.322	4.26
289.699	3.28
290.076	3.65
290.453	3.37
290.83	3.11
291.207	4.01
291.584	3.75
291.961	3.86
292.338	3.39
292.715	3.86
293.092	3.67
293.469	3.38
293.845	3.86
294.222	3.61
294.599	3.87
294.975	3.33
295.352	3.72
295.728	3.28
296.105	4
296.481	3.44
296.858	2.86
297.234	2.96
297.61	3.35
297.986	3.54
298.363	3.41
298.739	3.54
299.115	3.45
299.491	3.37
299.867	3.36
300.243	3.39
300.619	3.67
300.995	3.63
301.371	3.94
301.746	3.85
302.122	3.21
302.498	3
302.874	3
303.249	3.42
303.625	3.12
304	3.39
304.376	3.23
304.751	3.5
305.127	3.7
305.502	3.09
305.878	3.61
306.253	3.77
306.628	3.29
307.003	3.42
307.378	3.56
307.754	3.15
308.129	3.48
308.504	3.28
308.879	3.47
309.254	3.06
309.629	3.47
310.003	3.01
310.378	3.57
310.753	3.27
311.128	3.11
311.502	3.27
311.877	3.35
312.252	2.88
312.626	3.21
313.001	2.95
313.375	3.19
313.75	3.64
314.124	3.03
314.498	3.13
314.873	3.51
315.247	3.1
315.621	2.66
315.995	2.74
316.369	3.66
316.743	2.89
317.117	3.12
317.491	2.66
317.865	2.95
318.239	3.09
318.613	2.85
318.987	3.05
319.361	2.79
319.734	3.19
320.108	2.75
320.482	2.8
320.855	2.97
321.229	2.88
321.602	3.11
321.976	3.44
322.349	2.77
322.723	2.57
323.096	2.68
323.469	2.82
323.843	2.68
324.216	3.31
324.589	2.71
324.962	2.87
325.335	2.87
325.708	3.02
326.081	3.28
326.454	3.19
326.827	3.42
327.2	3.19
327.573	3.14
327.945	3.45
328.318	3.15
328.691	2.75
329.063	3.09
329.436	3.42
329.809	3.5
330.181	2.86
330.553	3.07
330.926	2.9
331.298	2.64
331.671	3.05
332.043	2.9
332.415	3.38
332.787	2.69
333.159	2.94
333.532	3.5
333.904	3.24
334.276	3.12
334.648	2.76
335.02	2.95
335.391	3.4
335.763	2.8
336.135	2.77
336.507	3.13
336.879	2.62
337.25	3.15
337.622	3.14
337.993	2.89
338.365	3.26
338.736	2.55
339.108	3.06
339.479	3.06
339.851	3.04
340.222	2.92
340.593	2.98
340.964	3.01
341.336	3.06
341.707	3.04
342.078	2.96
342.449	2.99
342.82	2.84
343.191	2.93
343.562	3.19
343.933	3.13
344.303	2.68
344.674	2.99
345.045	2.34
345.416	2.84
345.786	2.9
346.157	2.44
346.527	2.93
346.898	3.16
347.268	3.09
347.639	2.63
348.009	2.4
348.38	2.74
348.75	2.79
349.12	2.67
349.49	2.49
349.861	3.08
350.231	3.31
350.601	2.74
350.971	2.51
351.341	2.55
351.711	3.05
352.081	2.62
352.45	2.76
352.82	3.1
353.19	2.73
353.56	3.03
353.929	2.87
354.299	2.68
354.669	3.09
355.038	3.19
355.408	2.76
355.777	2.68
356.147	2.75
356.516	2.95
356.885	2.72
357.254	2.94
357.624	3.02
357.993	2.7
358.362	3.01
358.731	2.75
359.1	2.7
359.469	2.6
359.838	2.65
360.207	3
360.576	3.02
360.945	2.84
361.314	2.87
361.682	2.74
362.051	2.93
362.42	2.58
362.788	2.79
363.157	2.89
363.525	3.09
363.894	2.96
364.262	2.62
364.631	2.83
364.999	2.77
365.367	2.96
365.735	2.9
366.104	2.57
366.472	3.03
366.84	2.76
367.208	2.89
367.576	2.89
367.944	2.79
368.312	2.69
368.68	2.68
369.048	2.97
369.416	2.72
369.783	3.08
370.151	2.58
370.519	3.09
370.886	2.83
371.254	2.98
371.621	3.32
371.989	2.94
372.356	2.55
372.724	2.92
373.091	2.94
373.458	2.63
373.826	2.85
374.193	3.24
374.56	2.9
374.927	3.03
375.294	2.55
375.661	2.8
376.028	3.27
376.395	2.94
376.762	2.83
377.129	2.74
377.496	2.81
377.863	2.75
378.229	2.93
378.596	2.82
378.963	2.7
379.329	2.79
379.696	2.69
380.062	2.93
380.429	2.86
380.795	2.66
381.161	2.85
381.528	2.72
381.894	2.85
382.26	2.84
382.626	2.76
382.993	2.76
383.359	2.6
383.725	3.06
384.091	2.34
384.457	3.08
384.823	3.1
385.188	2.96
385.554	3.09
385.92	2.91
386.286	3.16
386.651	3.01
387.017	2.85
387.383	3.23
387.748	3.18
388.114	3.04
388.479	3.09
388.845	2.69
389.21	2.55
389.575	3.22
389.94	2.82
390.306	2.83
390.671	2.91
391.036	3.03
391.401	2.9
391.766	2.89
392.131	2.93
392.496	2.63
392.861	3.08
393.226	2.79
393.591	2.79
393.956	3.22
394.32	2.95
394.685	2.75
395.05	2.96
395.414	2.81
395.779	2.92
396.143	2.93
396.508	2.93
396.872	2.93
397.236	2.84
397.601	3.08
397.965	2.95
398.329	2.87
398.694	2.94
399.058	3.14
399.422	3.11
399.786	2.96
400.15	3.12
400.514	3.14
400.878	3.07
401.242	2.87
401.605	3.18
401.969	3.07
402.333	3.1
402.697	3.18
403.06	3.04
403.424	2.86
403.787	3.12
404.151	2.98
404.514	2.95
404.878	2.74
405.241	3.22
405.604	3.08
405.968	2.98
406.331	2.95
406.694	2.96
407.057	3
407.42	3.04
407.783	3.32
408.146	2.89
408.509	3.04
408.872	3.07
409.235	3.12
409.598	3.01
409.961	2.99
410.323	2.94
410.686	2.98
411.049	2.99
411.411	2.95
411.774	2.9
412.136	3.31
412.499	3.12
412.861	3.02
413.223	3.12
413.586	3.12
413.948	2.89
414.31	3.09
414.672	3.15
415.035	3
415.397	2.9
415.759	3.2
416.121	3.14
416.483	3
416.845	3.02
417.206	3.31
417.568	3.42
417.93	2.86
418.292	3.26
418.653	3.25
419.015	3.13
419.377	2.99
419.738	3.08
420.1	3
420.461	2.97
420.822	2.94
421.184	2.9
421.545	3.03
421.906	3.16
422.267	3.09
422.629	2.91
422.99	3.03
423.351	3.2
423.712	3.1
424.073	3.07
424.434	3.04
424.795	3.09
425.155	2.93
425.516	2.96
425.877	2.94
426.238	3.1
426.598	3.01
426.959	3.15
427.32	3.11
427.68	3.11
428.041	3.05
428.401	3.19
428.761	3.1
429.122	3.19
429.482	3.23
429.842	2.98
430.202	3.14
430.563	3.07
430.923	3.21
431.283	3.22
431.643	3.29
432.003	3.19
432.363	3.28
432.722	3.03
433.082	3.2
433.442	3.18
433.802	3.02
434.161	3.09
434.521	3.01
434.881	2.99
435.24	3.07
435.6	3.07
435.959	3.24
436.319	3.1
436.678	3.18
437.037	3.39
437.396	3.18
437.756	3.21
438.115	3.21
438.474	3.22
438.833	3.22
439.192	3.11
439.551	3.32
439.91	3.06
440.269	3.15
440.628	2.97
440.987	3.19
441.345	3.19
441.704	3.17
442.063	3.16
442.421	3.2
442.78	3.1
443.138	3.15
443.497	3.19
443.855	3.28
444.214	3.23
444.572	3.32
444.93	3.18
445.288	3.23
445.647	3.15
446.005	3.26
446.363	3.32
446.721	3.12
447.079	3.13
447.437	3.2
447.795	3.13
448.153	3.28
448.51	3.1
448.868	3.18
449.226	3.18
449.584	3.28
449.941	3.16
450.299	3.25
450.656	3.16
451.014	3.18
451.371	3.22
451.729	3.21
452.086	3.31
452.443	3.38
452.801	3.26
453.158	3.25
453.515	3.15
453.872	3.19
454.229	3.23
454.586	3.21
454.943	3.23
455.3	3.16
455.657	3.28
456.014	3.49
456.371	3.32
456.727	3.27
457.084	3.32
457.441	3.31
457.797	3.1
458.154	3.41
458.51	3.4
458.867	3.34
459.223	3.3
459.58	3.26
459.936	3.42
460.292	3.37
460.648	3.11
461.005	3.17
461.361	3.19
461.717	3.18
462.073	3.22
462.429	3.39
462.785	3.34
463.141	3.37
463.496	3.51
463.852	3.46
464.208	3.36
464.564	3.37
464.919	3.22
465.275	3.45
465.631	3.35
465.986	3.29
466.342	3.29
466.697	3.3
467.052	3.36
467.408	3.25
467.763	3.42
468.118	3.33
468.473	3.47
468.829	3.13
469.184	3.31
469.539	3.47
469.894	3.37
470.249	3.43
470.603	3.59
470.958	3.48
471.313	3.33
471.668	3.36
472.023	3.34
472.377	3.48
472.732	3.27
473.086	3.3
473.441	3.34
473.795	3.57
474.15	3.51
474.504	3.22
474.859	3.48
475.213	3.5
475.567	3.31
475.921	3.42
476.275	3.4
476.63	3.35
476.984	3.27
477.338	3.49
477.692	3.47
478.045	3.37
478.399	3.52
478.753	3.55
479.107	3.55
479.461	3.3
479.814	3.53
480.168	3.44
480.521	3.43
480.875	3.58
481.228	3.47
481.582	3.62
481.935	3.23
482.289	3.34
482.642	3.49
482.995	3.39
483.348	3.44
483.701	3.33
484.055	3.45
484.408	3.31
484.761	3.18
485.114	3.11
485.466	3.05
485.819	3.14
486.172	3.29
486.525	3.4
486.878	3.49
487.23	3.52
487.583	3.48
487.936	3.4
488.288	3.38
488.641	3.24
488.993	3.26
489.345	3.25
489.698	3.2
490.05	3.34
490.402	3.37
490.754	3.4
491.107	3.52
491.459	3.5
491.811	3.52
492.163	3.54
492.515	3.37
492.866	3.34
493.218	3.26
493.57	3.3
493.922	3.33
494.274	3.46
494.625	3.6
494.977	3.55
495.328	3.54
495.68	3.57
496.031	3.45
496.383	3.48
496.734	3.53
497.086	3.47
497.437	3.47
497.788	3.35
498.139	3.4
498.49	3.36
498.842	3.49
499.193	3.45
499.544	3.52
499.894	3.49
500.245	3.59
500.596	3.42
500.947	3.57
501.298	3.65
501.648	3.57
501.999	3.43
502.35	3.59
502.7	3.58
503.051	3.59
503.401	3.58
503.752	3.53
504.102	3.63
504.452	3.49
504.803	3.52
505.153	3.51
505.503	3.46
505.853	3.5
506.203	3.54
506.553	3.55
506.903	3.7
507.253	3.69
507.603	3.64
507.953	3.51
508.303	3.63
508.652	3.54
509.002	3.68
509.352	3.55
509.701	3.47
510.051	3.55
510.4	3.58
510.75	3.62
511.099	3.54
511.449	3.45
511.798	3.54
512.147	3.58
512.496	3.65
512.846	3.57
513.195	3.62
513.544	3.62
513.893	3.63
514.242	3.53
514.591	3.7
514.939	3.62
515.288	3.6
515.637	3.58
515.986	3.56
516.334	3.59
516.683	3.62
517.032	3.58
517.38	3.63
517.729	3.63
518.077	3.73
518.426	3.56
518.774	3.67
519.122	3.59
519.47	3.61
519.819	3.51
520.167	3.41
520.515	3.52
520.863	3.57
521.211	3.64
521.559	3.56
521.907	3.65
522.255	3.64
522.602	3.64
522.95	3.7
523.298	3.57
523.645	3.59
523.993	3.66
524.341	3.53
524.688	3.55
525.036	3.46
525.383	3.76
525.73	3.52
526.078	3.64
526.425	3.58
526.772	3.51
527.119	3.52
527.466	3.47
527.814	3.56
528.161	3.66
528.508	3.69
528.854	3.64
529.201	3.53
529.548	3.38
529.895	3.4
530.242	3.32
530.588	3.36
530.935	3.51
531.282	3.61
531.628	3.72
531.975	3.67
532.321	3.63
532.667	3.7
533.014	3.63
533.36	3.67
533.706	3.7
534.052	3.59
534.399	3.49
534.745	3.45
535.091	3.45
535.437	3.58
535.783	3.68
536.129	3.7
536.474	3.74
536.82	3.73
537.166	3.66
537.512	3.61
537.857	3.6
538.203	3.58
538.549	3.62
538.894	3.74
539.239	3.69
539.585	3.73
539.93	3.72
540.276	3.9
540.621	3.72
540.966	3.73
541.311	3.64
541.656	3.59
542.001	3.56
542.346	3.51
542.691	3.46
543.036	3.44
543.381	3.57
543.726	3.64
544.071	3.68
544.415	3.77
544.76	3.69
545.105	3.68
545.449	3.76
545.794	3.72
546.138	3.72
546.483	3.74
546.827	3.7
547.171	3.76
547.516	3.7
547.86	3.72
548.204	3.48
548.548	3.67
548.892	3.71
549.236	3.69
549.58	3.84
549.924	3.8
550.268	3.83
550.612	3.76
550.956	3.84
551.3	3.84
551.643	3.73
551.987	3.73
552.33	3.99
552.674	3.75
553.017	3.85
553.361	3.86
553.704	3.77
554.048	3.74
554.391	3.79
554.734	3.71
555.077	3.71
555.42	3.82
555.764	3.79
556.107	3.83
556.45	3.86
556.793	3.76
557.135	3.88
557.478	3.82
557.821	3.71
558.164	3.87
558.507	3.96
558.849	3.77
559.192	3.77
559.534	3.79
559.877	4.02
560.219	3.77
560.562	3.88
560.904	3.78
561.246	3.91
561.589	3.91
561.931	3.84
562.273	3.67
562.615	3.7
562.957	3.78
563.299	3.75
563.641	3.84
563.983	3.96
564.325	3.66
564.667	3.74
565.008	3.82
565.35	3.88
565.692	3.75
566.033	3.91
566.375	3.87
566.716	3.77
567.058	3.9
567.399	3.75
567.741	3.63
568.082	3.7
568.423	3.78
568.764	3.73
569.105	3.76
569.447	3.87
569.788	3.95
570.129	3.71
570.47	3.79
570.811	3.69
571.151	3.74
571.492	3.81
571.833	3.79
572.174	3.77
572.514	3.7
572.855	3.85
573.195	3.68
573.536	3.79
573.876	3.68
574.217	3.76
574.557	3.79
574.898	3.83
575.238	3.61
575.578	3.72
575.918	3.95
576.258	3.73
576.598	3.72
576.938	3.76
577.278	3.67
577.618	3.88
577.958	3.88
578.298	3.79
578.638	3.88
578.977	3.99
579.317	3.7
579.657	3.76
579.996	3.92
580.336	3.62
580.675	3.89
581.014	3.95
581.354	3.81
581.693	3.96
582.032	3.84
582.372	3.73
582.711	3.73
583.05	4.21
583.389	3.47
583.728	4.03
584.067	3.93
584.406	3.98
584.745	3.93
585.083	3.82
585.422	3.97
585.761	3.92
586.1	3.71
586.438	3.9
586.777	3.78
587.115	3.74
587.454	3.78
587.792	3.83
588.13	3.98
588.469	3.89
588.807	4.05
589.145	4.27
589.483	3.77
589.821	3.9
590.159	3.87
590.497	4.02
590.835	3.92
591.173	4.06
591.511	3.94
591.849	3.92
592.187	3.95
592.524	3.98
592.862	3.73
593.2	3.72
593.537	3.76
593.875	3.78
594.212	3.93
594.55	3.84
594.887	3.81
595.224	3.68
595.561	3.78
595.899	3.9
596.236	3.82
596.573	4.04
596.91	3.98
597.247	3.94
597.584	3.9
597.921	3.89
598.258	3.72
598.594	3.64
598.931	3.82
599.268	3.85
599.604	3.84
599.941	3.82
600.277	4.02
600.614	4.11
600.95	3.94
601.287	3.75
601.623	3.93
601.959	3.74
602.296	4.01
602.632	3.83
602.968	3.67
603.304	4.09
603.64	3.98
603.976	3.87
604.312	3.85
604.648	4.08
604.984	3.66
605.319	3.89
605.655	3.82
605.991	3.75
606.326	3.97
606.662	4.01
606.998	3.99
607.333	3.97
607.668	3.95
608.004	3.89
608.339	3.95
608.674	3.97
609.01	4.11
609.345	3.95
609.68	3.94
610.015	3.72
610.35	3.74
610.685	3.59
611.02	3.87
611.355	3.85
611.689	4.03
612.024	3.82
612.359	3.81
612.694	3.98
613.028	4.07
613.363	3.95
613.697	4.04
614.032	3.86
614.366	4.19
614.7	4.04
615.035	3.98
615.369	3.81
615.703	3.71
616.037	3.68
616.371	4.02
616.705	3.76
617.039	4.04
617.373	3.94
617.707	3.94
618.041	3.74
618.375	3.93
618.709	3.89
619.042	4.14
619.376	3.82
619.71	3.89
620.043	3.97
620.377	4.11
620.71	4.07
621.043	4.02
621.377	3.95
621.71	3.68
622.043	3.7
622.376	4.34
622.709	4.25
623.043	3.63
623.376	4.04
623.709	3.9
624.041	3.68
624.374	3.81
624.707	3.82
625.04	4.15
625.373	3.57
625.705	3.75
626.038	4.14
626.37	3.92
626.703	4.05
627.035	4
627.368	3.62
627.7	3.66
628.032	3.5
628.365	3.9
628.697	3.82
629.029	3.69
629.361	3.84
629.693	3.88
630.025	4.11
630.357	4.11
630.689	3.7
631.021	4.41
631.353	4.27
631.684	3.62
632.016	3.93
632.348	4.03
632.679	4.19
633.011	4
633.342	3.74
633.674	3.88
634.005	4.35
634.336	4.03
634.668	3.98
634.999	3.92
635.33	3.91
635.661	3.92
635.992	4.28
636.323	4.08
636.654	4.07
636.985	4.14
637.316	3.94
637.647	4.26
637.977	3.99
638.308	3.89
638.639	4.42
638.969	4.13
639.3	3.76
639.63	3.71
639.961	4.07
640.291	4
640.622	4.25
640.952	4.09
641.282	3.67
641.612	3.72
641.943	4.09
642.273	3.68
642.603	3.99
642.933	3.82
643.263	3.79
643.592	4.07
643.922	4.07
644.252	3.86
644.582	3.85
644.911	3.76
645.241	3.92
645.571	3.8
645.9	4.11
646.23	4.08
646.559	3.75
646.888	3.86
647.218	3.88
647.547	3.87
647.876	4.22
648.205	3.75
648.534	3.73
648.863	3.84
649.192	4.25
649.521	3.69
649.85	4.48
650.179	3.87
650.508	4.33
650.837	3.67
651.165	3.99
651.494	3.94
651.822	3.85
652.151	3.85
652.479	4.13
652.808	3.93
653.136	4.01
653.465	3.77
653.793	3.64
654.121	3.75
654.449	4.3
654.777	4.27
655.105	4.1
655.433	4.38
655.761	4.21
656.089	3.98
656.417	4.06
656.745	3.75
657.073	3.53
657.4	4.35
657.728	4.17
658.056	3.77
658.383	4.37
658.711	3.55
659.038	4.18
659.365	3.36
659.693	4.41
660.02	4.31
660.347	4.19
660.674	4.38
661.001	3.94
661.329	4.49
661.656	4.09
661.982	3.96
662.309	3.78
662.636	4.17
662.963	4.22
663.29	4.46
663.616	3.53
663.943	4.31
664.27	3.86
664.596	4.12
664.923	4.6
665.249	3.89
665.576	3.72
665.902	4.02
666.228	4.01
666.554	3.88
666.881	4.26
667.207	4.2
667.533	4.06
667.859	3.67
668.185	4.18
668.511	4.08
668.837	4.27
669.162	4.19
669.488	4.22
669.814	4.37
670.139	4.09
670.465	3.63
670.791	3.84
671.116	4.06
671.442	4.16
671.767	4
672.092	4.09
672.418	4.39
672.743	4.27
673.068	4.08
673.393	3.76
673.718	4.14
674.043	3.92
674.368	4.33
674.693	3.6
675.018	4.05
675.343	4.02
675.667	3.89
675.992	3.98
676.317	4.05
676.641	4.11
676.966	4.55
677.29	4.37
677.615	3.95
677.939	4.53
678.264	4.56
678.588	4.29
678.912	4.42
679.236	3.7
679.56	3.72
679.885	4.21
680.209	4.66
680.532	4.1
680.856	3.93
681.18	3.44
681.504	4.32
681.828	4.51
682.152	4.47
682.475	3.96
682.799	4.53
683.122	4.1
683.446	3.69
683.769	4.33
684.093	4.6
684.416	4.19
684.739	4.06
685.062	4.6
685.386	4.53
685.709	4.08
686.032	4.38
686.355	3.58
686.678	4.3
687.001	3.57
687.324	3.72
687.646	4.36
687.969	4.37
688.292	5.05
688.614	4.07
688.937	4.13
689.26	4.25
689.582	3.1
689.904	4.31
690.227	4.02
690.549	4.33
690.871	3.88
691.194	4.63
691.516	3.46
691.838	3.5
692.16	4.16
692.482	3.97
692.804	4.15
693.126	4.05
693.448	4.17
693.769	4.23
694.091	4.75
694.413	4.08
694.735	4.75
695.056	4.63
695.378	3.4
695.699	3.64
696.021	4.56
696.342	4.17
696.663	3.89
696.984	3.94
697.306	4
697.627	3.61
697.948	4.09
698.269	3.6
698.59	4.25
698.911	4.58
699.232	3.96
699.553	4.07
699.873	4.25
700.194	4.37
700.515	3.82
700.835	4.23
701.156	4.49
701.477	4.1
701.797	4.37
702.117	4.1
702.438	4.13
702.758	4.7
703.078	3.65
703.398	4.47
703.719	3.98
704.039	3.73
704.359	3.91
704.679	4.84
704.999	4.41
705.319	5.63
705.638	4.59
705.958	3.85
706.278	4.64
706.597	4.19
706.917	2.81
707.237	4.59
707.556	4.19
707.876	4.28
708.195	4.24
708.514	4.33
708.834	4.54
709.153	4.29
709.472	3.87
709.791	3.98
710.11	4.41
710.429	4.28
710.748	3.97
711.067	4.75
711.386	4.62
711.705	4.37
712.023	4.18
712.342	4.17
712.661	5.22
712.979	4.42
713.298	4.61
713.616	4.18
713.935	4.34
714.253	4.24
714.572	4.1
714.89	4.06
715.208	4.2
715.526	5.05
715.844	4.17
716.162	3.84
716.48	4.7
716.798	3.99
717.116	4.8
717.434	4.06
717.752	4.02
718.069	4.28
718.387	5.59
718.705	5.06
719.022	3.86
719.34	4.24
719.657	5.88
719.975	5.5
720.292	5.04
720.609	3.91
720.927	4.76
721.244	5.51
721.561	4.19
721.878	4.83
722.195	5.26
722.512	4.41
722.829	4.35
723.146	5.69
723.463	4.55
723.779	3.58
724.096	3.65
724.413	3.23
724.729	3.67
725.046	6.33
725.362	5.18
725.679	3.24
725.995	3.85
726.311	6.06
726.628	4.44
726.944	4.78
727.26	5.97
727.576	4.07
727.892	4.4
728.208	3.53
728.524	4.7
728.84	4.38
729.156	4.74
729.472	3.7
729.787	4.56
730.103	4.07
730.419	4.72
730.734	5.29
731.05	4.35
731.365	3.46
731.681	3.83
731.996	4.66
732.311	5.86
732.626	5.68
732.942	3.64
733.257	5.11
733.572	4.82
733.887	3.69
734.202	4.71
734.517	3.9
734.832	3.54
735.146	5.74
735.461	3.93
735.776	4.99
736.091	4.28
736.405	3.72
736.72	4.13
737.034	4.43
737.349	3.95
737.663	5.45
737.977	3.72
738.292	4.16
738.606	4.52
738.92	2.37
739.234	4.48
739.548	4.77
739.862	4.68
740.176	4.39
740.49	6.14
740.804	5.6
741.117	4.09
741.431	3.28
741.745	5.44
742.058	4.01
742.372	4.16
742.685	4.92
742.999	3.97
743.312	4.58
743.626	3.93
743.939	5.56
744.252	4.73
744.565	3.91
744.878	7.08
745.191	5.58
745.505	3.57
745.817	4.1
746.13	4.42
746.443	3.7
746.756	4.74
747.069	4.57
747.381	5.82
747.694	4.6
748.007	3.32
748.319	3.91
748.632	4.79
748.944	7.31
749.256	4.36
749.569	6.07
749.881	4.46
750.193	5.88
750.505	4.77
750.817	4.79
751.129	3.87
751.441	3.21
751.753	6.13
752.065	4.75
752.377	4.83
752.689	5.85
753	3.86
753.312	4.51
753.624	4.28
753.935	3.58
754.247	4.77
754.558	5.57
754.869	4.02
755.181	4.36
755.492	5.29
755.803	3.65
756.114	5.67
756.425	5.63
756.736	5.74
757.047	4.22
757.358	4.12
757.669	4.03
757.98	4.1
758.291	5.52
758.601	5.24
758.912	2.83
759.223	6.94
759.533	4.61
759.844	4.96
760.154	3.5
760.464	3.1
760.775	5.98
761.085	4.26
761.395	3.01
761.705	5.93
762.016	4.85
762.326	6.03
762.636	3.82
762.945	3.07
763.255	4.03
763.565	5.32
763.875	4.78
764.185	5.09
764.494	4.76
764.804	3.25
765.113	5.03
765.423	5.78
765.732	5.33
766.042	5.01
766.351	5.28
766.66	4.61
766.97	3.81
767.279	4.14
767.588	4.35
767.897	4.89
768.206	6.23
768.515	6.57
768.824	3.71
769.133	5.46
769.441	5.7
769.75	5.15
770.059	5.53
770.367	5.5
770.676	4.33
770.984	4.83
771.293	4.47
771.601	6.42
771.91	6.17
772.218	6.27
772.526	6.25
772.834	4.15
773.142	8.38
773.45	3.06
773.758	5.11
774.066	5.25
774.374	5.69
774.682	4.64
774.99	5
775.298	5.42
775.605	7.15
775.913	5.42
776.22	5.6
776.528	3.1
776.835	5.65
777.143	4.21
777.45	3.96
777.757	2.32
778.065	4.23
778.372	6
778.679	8.25
778.986	3.4
779.293	4.21
779.6	6.01
779.907	5.24
780.214	4.53
780.52	3.78
780.827	6.13
781.134	5.72
781.44	3.34
781.747	3.94
782.053	1.77
782.36	4.17
782.666	6.05
782.973	5.04
783.279	5.15
783.585	3.13
783.891	2.92
784.197	7.08
784.503	4.88
784.809	6.28
785.115	5.7
785.421	7.75
785.727	5.31
786.033	0.59
786.339	1.72
786.644	4.4
786.95	7.4
787.255	5.95
787.561	3.9
787.866	5.82
788.172	5.66
788.477	9.02
788.782	3.09
789.088	5.06
789.393	6.12
789.698	9.31
790.003	6.88
790.308	3.86
790.613	5.99
790.918	9.27
791.223	4.6
791.527	6.37
791.832	5.09
792.137	3.34
792.441	3.75
792.746	7.18
793.05	4.49
793.355	6.18
793.659	0
793.963	5.43
794.268	5.09
794.572	6.92
794.876	8.65
795.18	2.37
795.484	4.49
795.788	5.81
796.092	3.33
796.396	7.3
796.7	4.21
797.004	5.43
797.307	8.22
797.611	4.67
797.915	-1.24
798.218	5.64
798.522	2.74
798.825	7.33
799.128	5.82
799.432	8.67
799.735	5.16
800.038	6.14
800.341	6.15
800.644	3.57
800.947	6.26
801.25	5
801.553	4.52
801.856	1.22
802.159	-0.31
802.462	8.57
802.764	4.58
803.067	6.6
803.37	1.43
803.672	5.22
803.975	6.2
804.277	9.46
804.579	4.45
804.882	2.92
805.184	4.05
805.486	8.88
805.788	7.57
806.09	3.78
806.392	2.36
806.694	10.01
806.996	4.85
807.298	-2.67
807.6	1.29
807.902	8.54
808.203	2.84
808.505	1.67
808.807	2.64
809.108	10.07
809.409	8.33
809.711	5.28
810.012	4.98
810.313	0.76
810.615	4.09
810.916	9.31
811.217	1.19
811.518	5.98
811.819	5.47
812.12	4.95
812.421	6.91
812.722	8.55
813.023	7.6
813.323	5.63
813.624	0.74
813.925	1.67
814.225	2.25
814.526	5.26
814.826	11.27
815.126	9.23
815.427	7.8
815.727	4.54
816.027	11.16
816.327	0.93
816.627	8.58
816.927	4.39
817.227	3.52
817.527	4.52
817.827	3.16
818.127	6.95
818.427	5.91
818.727	8.86
819.026	7.76
819.326	2.36
819.625	3.59
819.925	4.46
820.224	-0.94
820.524	2.9
820.823	7.26
821.122	6.19
821.421	8.16
821.72	6.23
822.019	5.06
822.318	8.87
822.617	8.3
822.916	6.15
823.215	5.93
823.514	4.93
823.813	3.05
824.111	7.18
824.41	6.71
824.709	4.92
825.007	5.75
825.306	6.74
825.604	7.01
825.902	6.89
826.201	6.18
826.499	5.75
826.797	5.41
827.095	6.86
827.393	6.52
827.691	5.52
827.989	5.63
828.287	5.92
828.585	5.28
828.882	5.3
829.18	4.18
829.478	4.83
829.775	6.56
830.073	6.13
830.37	5.33
830.668	6.48
830.965	5.51
831.263	5.77
831.56	4.91
831.857	4.67
832.154	6.1
832.451	6.41
832.748	4.11
833.045	5.54
833.342	0.77
833.639	6.67
833.936	3.35
834.232	12.53
834.529	6.35
834.826	9.14
835.122	10.56
835.419	6.89
835.715	7.7
836.012	4.43
836.308	8.66
836.604	7.09
836.901	5.76
837.197	5.8
837.493	6.58
837.789	7.32
838.085	3.42
838.381	4.67
838.677	5.99
838.972	5.35
839.268	8.23
839.564	6.3
839.86	7.53
840.155	15.67
840.451	-1.92
840.746	5.26
841.042	1.95
841.337	9.76
841.632	2.02
841.928	4.09
842.223	8.09
842.518	3.45
842.813	9.19
843.108	10.79
843.403	8.79
843.698	-1.88
843.993	6.11
844.287	-0.09
844.582	1.26
844.877	4.17
845.171	8.09
845.466	12.59
845.761	-7.77
846.055	13.05
846.349	-0.09
846.644	-3
846.938	17.19
847.232	-5.37
847.526	-1.58
847.82	-8.93
848.114	1.89
848.408	10.53
848.702	-0.33
848.996	2.31
849.29	18.92
849.584	1.25
849.877	7.38
850.171	6.21
850.465	2.15
850.758	2.21
851.052	6.42
851.345	6.96
851.638	13.63
851.932	6.75
852.225	6.75
852.518	19.95
852.811	10.52
853.104	12.06
853.397	11.88
853.69	7.86
853.983	13.78
854.276	18.75
854.569	-9.77
854.861	5.26
855.154	-5.47
855.447	5.48
855.739	1.41
856.032	21.81
856.324	-13.8
856.616	17.07
856.909	-1.36
857.201	0.57
857.493	21.16
857.785	-1.96
858.077	-2.24
858.369	21.74
858.661	-6.07
858.953	-25.57
859.245	13.87
859.537	20.64
859.829	-12.55
860.12	5.56
860.412	-1.47
860.703	9.63
860.995	-4.28
861.286	6.67
861.578	20.49
861.869	10.06
862.16	22.31
862.452	31.37
862.743	8.98
863.034	15.26
863.325	-7.45
863.616	12.46
863.907	-2.44
864.198	-5.35
864.488	4.24
864.779	19.57
865.07	-5.54
865.36	22.25
865.651	1.59
865.941	25.48
866.232	-10.35
866.522	18.8
866.813	17.18
867.103	-2.27
867.393	-22.24
867.683	11.03
867.973	-3.93
868.263	1.07
868.553	5.18
868.843	1.35
869.133	4.84
869.423	16.4
869.713	-15.45
870.002	6.14
870.292	19.65
870.582	-34.55
870.871	11.15
871.161	44.76
871.45	29.02
871.739	-3.64
872.029	-10.44
872.318	21.97
872.607	-13.26
872.896	6.6
873.185	-1.19
873.474	15.1
873.763	-7.93
874.052	4.45
874.341	-24.08
874.63	-28.46
874.918	-5.79
875.207	-33.56
875.496	-1.62
875.784	-17.07
876.073	-12.97
876.361	1.38
876.649	23.17
876.938	12.52
877.226	33.97
877.514	13.55
877.802	15.47
878.09	-45.38
878.378	-46.49
878.666	-9.39
878.954	24.14
879.242	-19.78
879.53	10.59
879.817	20.68
880.105	6.88
880.392	-4.61
880.68	14.91
880.967	-7.98
881.255	-20.49
881.542	-12.02
881.83	10.23
882.117	-2.49
882.404	-28.18
882.691	-2.56
882.978	5.37
883.265	0.58
883.552	-4.08
883.839	-1.67
884.126	-1.62
884.413	7.65
884.699	15.76
884.986	0.05
885.273	5.1
885.559	5.1
885.846	5.1
