Data from 1710-4_crown_Reflection__3__174.txt Node

Date: Fri Sep 30 19:27:30 CDT 2022
User: ToomeyLab
Spectrometer: FLMS14357
Trigger mode: 0
Integration Time (sec): 1.000000E-2
Scans to average: 100
Electric dark correction enabled: true
Nonlinearity correction enabled: false
Boxcar width: 0
XAxis mode: Wavelengths
Number of Pixels in Spectrum: 2048
>>>>>Begin Spectral Data<<<<<
189.047	104.87
189.435	104.87
189.823	104.87
190.211	121.79
190.599	168.76
190.987	76.33
191.375	258.12
191.763	178.19
192.151	-68.93
192.538	-9683.67
192.926	37.53
193.314	-14.31
193.702	115.17
194.089	144.35
194.477	103.77
194.864	27.62
195.252	-127.53
195.639	22
196.027	331.15
196.414	84.92
196.801	-165.71
197.189	-208.73
197.576	1.05
197.963	-3.47
198.351	14.65
198.738	-9.7
199.125	22.44
199.512	61.46
199.899	-20.43
200.286	-13.94
200.673	-26.88
201.06	-107.02
201.447	-58.15
201.833	19.07
202.22	12.31
202.607	1.44
202.994	13.75
203.38	38.01
203.767	-11.37
204.154	47.39
204.54	-11.73
204.927	-61.09
205.313	39.2
205.699	16.87
206.086	24.8
206.472	32.75
206.858	32.14
207.245	-64.34
207.631	6.48
208.017	-28.27
208.403	35.78
208.789	7.99
209.175	40.86
209.561	-1.9
209.947	17.55
210.333	0.27
210.719	-1.54
211.105	-16.15
211.491	-13.88
211.876	16.5
212.262	14.43
212.648	-21.35
213.034	25.7
213.419	-27.06
213.805	-12.06
214.19	19.86
214.576	2.16
214.961	43.46
215.346	30.41
215.732	-44.7
216.117	1.13
216.502	2.71
216.888	-28.06
217.273	20.2
217.658	7.16
218.043	3.14
218.428	18.24
218.813	-14.96
219.198	-2.59
219.583	2.72
219.968	10.58
220.353	-34.16
220.738	-0.68
221.122	-26.87
221.507	1.51
221.892	-23.43
222.276	0.18
222.661	-17.97
223.046	-14.45
223.43	0.89
223.815	-11
224.199	1.84
224.583	15.86
224.968	4.97
225.352	-11.8
225.736	10.72
226.121	-5.77
226.505	2.16
226.889	2.56
227.273	-7.35
227.657	-2.11
228.041	0.26
228.425	-3.1
228.809	4.37
229.193	0.22
229.577	2.74
229.961	2.86
230.344	4.19
230.728	3.7
231.112	3.36
231.495	2.3
231.879	2.8
232.263	3.79
232.646	4.17
233.03	1.44
233.413	2.41
233.797	-1.35
234.18	2.13
234.563	5.14
234.946	1.32
235.33	2.83
235.713	-0.1
236.096	3.43
236.479	2.95
236.862	4.49
237.245	2.72
237.628	4.05
238.011	-0.26
238.394	1.24
238.777	-0.91
239.16	2.57
239.543	4.22
239.925	0.91
240.308	1.62
240.691	2.7
241.073	3.11
241.456	1.74
241.838	3.04
242.221	3.77
242.603	3.16
242.986	2.89
243.368	2.77
243.75	2.25
244.133	2.74
244.515	2.23
244.897	2.44
245.279	2.12
245.661	3.41
246.043	2.88
246.425	3.41
246.807	2.52
247.189	2.23
247.571	3.34
247.953	2.61
248.335	2.99
248.717	2.61
249.098	3.17
249.48	2.89
249.862	2.46
250.243	2.67
250.625	2.93
251.006	3.03
251.388	3.06
251.769	1.69
252.151	1.64
252.532	2.1
252.913	2.15
253.295	2.62
253.676	3.12
254.057	2.98
254.438	2.83
254.819	3.33
255.2	2.91
255.581	2.07
255.962	3.29
256.343	2.12
256.724	3.9
257.105	1.6
257.486	3.39
257.867	2
258.247	2.01
258.628	2.33
259.009	2.39
259.389	2.64
259.77	2.38
260.15	2.83
260.531	3.02
260.911	2.27
261.292	2.96
261.672	2.34
262.052	2.87
262.432	2.88
262.813	3.07
263.193	2.27
263.573	3.32
263.953	2.44
264.333	2.6
264.713	2.16
265.093	2.8
265.473	2.51
265.853	2.2
266.233	2.37
266.612	2.85
266.992	2.15
267.372	2.31
267.752	2.3
268.131	2.29
268.511	2.37
268.89	2.05
269.27	2.89
269.649	2.84
270.029	2.61
270.408	2.33
270.787	2.91
271.167	2.09
271.546	2.42
271.925	2.96
272.304	3.12
272.683	2.2
273.062	2.45
273.441	2.13
273.82	2.44
274.199	2.61
274.578	2.29
274.957	2.36
275.336	2.39
275.715	2.37
276.093	2.07
276.472	2.52
276.851	2.54
277.229	2.65
277.608	2.62
277.986	2.7
278.365	2.73
278.743	2.77
279.122	1.74
279.5	2.89
279.878	2.07
280.257	2.01
280.635	2.22
281.013	2.43
281.391	2.32
281.769	2.25
282.147	2.42
282.525	2.97
282.903	1.8
283.281	2.73
283.659	2.66
284.037	2.71
284.415	1.81
284.792	2.7
285.17	2.58
285.548	2.69
285.925	2.46
286.303	2.31
286.68	2.47
287.058	2.28
287.435	2.3
287.813	2.04
288.19	2.2
288.567	2.24
288.945	2.03
289.322	3.09
289.699	1.74
290.076	2.2
290.453	2.35
290.83	2.32
291.207	2.54
291.584	2.37
291.961	2.54
292.338	2.5
292.715	2.33
293.092	2.24
293.469	2.06
293.845	2.63
294.222	2.21
294.599	2.26
294.975	2.57
295.352	2.3
295.728	2.48
296.105	2.67
296.481	2.34
296.858	1.86
297.234	1.73
297.61	2.37
297.986	2.55
298.363	2.27
298.739	2.66
299.115	2.23
299.491	2.41
299.867	2.2
300.243	2.56
300.619	2.35
300.995	2.43
301.371	2.9
301.746	2.55
302.122	2.25
302.498	2.05
302.874	1.94
303.249	2.31
303.625	2.01
304	2.05
304.376	2.04
304.751	2.38
305.127	2.11
305.502	2.37
305.878	2.44
306.253	2.92
306.628	2.27
307.003	2.32
307.378	2.43
307.754	2.42
308.129	2.21
308.504	2.41
308.879	2.75
309.254	1.58
309.629	2.1
310.003	2.01
310.378	2.46
310.753	1.97
311.128	2.07
311.502	2.59
311.877	1.83
312.252	2.14
312.626	2.15
313.001	2.15
313.375	1.97
313.75	2.3
314.124	1.83
314.498	1.91
314.873	1.96
315.247	2.12
315.621	2.27
315.995	1.84
316.369	2.07
316.743	2.07
317.117	1.99
317.491	1.96
317.865	2.24
318.239	1.87
318.613	1.95
318.987	2
319.361	2.34
319.734	1.8
320.108	1.37
320.482	1.86
320.855	2.28
321.229	2.51
321.602	2.51
321.976	2.44
322.349	1.71
322.723	2.17
323.096	2.04
323.469	2.04
323.843	2.09
324.216	2.14
324.589	2.73
324.962	1.89
325.335	2.04
325.708	1.89
326.081	2.73
326.454	2.28
326.827	2.22
327.2	2.22
327.573	2.33
327.945	2.19
328.318	2.54
328.691	2.02
329.063	2.27
329.436	2.22
329.809	1.79
330.181	2.2
330.553	2.51
330.926	2.61
331.298	2.07
331.671	2.36
332.043	1.81
332.415	2.38
332.787	2.32
333.159	2.29
333.532	2.44
333.904	2.11
334.276	2.3
334.648	1.88
335.02	1.83
335.391	2.26
335.763	2.07
336.135	2.09
336.507	3.13
336.879	2.54
337.25	1.91
337.622	1.96
337.993	1.54
338.365	2.41
338.736	2.23
339.108	2.81
339.479	2.62
339.851	2.77
340.222	1.82
340.593	2.06
340.964	2.33
341.336	1.81
341.707	2.07
342.078	2.43
342.449	1.94
342.82	2.07
343.191	1.59
343.562	2.24
343.933	2.29
344.303	2.22
344.674	2.06
345.045	1.96
345.416	2.06
345.786	2.02
346.157	0.96
346.527	1.78
346.898	1.93
347.268	2.12
347.639	1.81
348.009	1.81
348.38	2.19
348.75	1.97
349.12	1.88
349.49	1.9
349.861	2.13
350.231	1.84
350.601	1.91
350.971	1.73
351.341	2.07
351.711	2.27
352.081	1.7
352.45	1.95
352.82	2.18
353.19	1.52
353.56	1.66
353.929	1.71
354.299	2.19
354.669	2.14
355.038	2.22
355.408	1.96
355.777	2.22
356.147	1.9
356.516	2.14
356.885	1.66
357.254	2.33
357.624	2.44
357.993	1.97
358.362	1.91
358.731	2.03
359.1	1.95
359.469	2.21
359.838	1.9
360.207	1.97
360.576	2.1
360.945	2.18
361.314	2.1
361.682	2.12
362.051	2.2
362.42	1.97
362.788	2.33
363.157	2.18
363.525	1.95
363.894	2.05
364.262	1.99
364.631	2.23
364.999	2.24
365.367	2.19
365.735	2.15
366.104	1.63
366.472	2.12
366.84	2.09
367.208	1.94
367.576	1.9
367.944	1.95
368.312	1.82
368.68	2.12
369.048	2.04
369.416	1.75
369.783	2.03
370.151	1.92
370.519	2.22
370.886	1.99
371.254	2.17
371.621	2.47
371.989	1.84
372.356	1.94
372.724	1.87
373.091	2.01
373.458	1.8
373.826	1.85
374.193	2.15
374.56	2.03
374.927	2.31
375.294	1.88
375.661	2.18
376.028	2.21
376.395	2.36
376.762	2.09
377.129	2.17
377.496	2.12
377.863	1.93
378.229	1.91
378.596	1.87
378.963	1.88
379.329	2.04
379.696	1.91
380.062	2.07
380.429	2.01
380.795	1.91
381.161	2.04
381.528	1.92
381.894	1.95
382.26	2.2
382.626	2.11
382.993	2.26
383.359	2.13
383.725	2.07
384.091	1.95
384.457	2.31
384.823	2.42
385.188	2.22
385.554	2.15
385.92	2.19
386.286	1.97
386.651	2.17
387.017	2.1
387.383	2.23
387.748	2.32
388.114	2.31
388.479	2.19
388.845	1.76
389.21	1.89
389.575	2.27
389.94	2
390.306	2.12
390.671	1.96
391.036	2.09
391.401	2.21
391.766	2.02
392.131	1.99
392.496	1.83
392.861	2.17
393.226	2.02
393.591	2.06
393.956	2.19
394.32	2.07
394.685	2.04
395.05	1.98
395.414	2.06
395.779	1.86
396.143	2.06
396.508	2.04
396.872	2.06
397.236	2.35
397.601	2.26
397.965	2.14
398.329	1.98
398.694	2.01
399.058	2.31
399.422	2.34
399.786	2.36
400.15	2.4
400.514	2.23
400.878	2.15
401.242	2.13
401.605	2.22
401.969	2.01
402.333	2.25
402.697	2.27
403.06	2.19
403.424	2.15
403.787	2.1
404.151	1.97
404.514	2.06
404.878	2.1
405.241	2.38
405.604	2.15
405.968	2.03
406.331	2.25
406.694	2.16
407.057	2.32
407.42	2.09
407.783	2.26
408.146	2.12
408.509	2.31
408.872	1.98
409.235	2.06
409.598	2.02
409.961	2.2
410.323	1.85
410.686	2.13
411.049	1.98
411.411	2.01
411.774	2.12
412.136	2.29
412.499	2.18
412.861	2.08
413.223	2.24
413.586	2.21
413.948	2.09
414.31	2.44
414.672	2.13
415.035	2.14
415.397	2.15
415.759	2.19
416.121	2.26
416.483	2.22
416.845	2.04
417.206	2.39
417.568	2.37
417.93	2.22
418.292	2.24
418.653	2.14
419.015	2.16
419.377	2.06
419.738	2.08
420.1	2.02
420.461	2.16
420.822	2.22
421.184	1.99
421.545	2.21
421.906	2.22
422.267	2.1
422.629	2.01
422.99	2.19
423.351	2.25
423.712	2.28
424.073	2.13
424.434	2.09
424.795	2.13
425.155	2.14
425.516	2.08
425.877	2.07
426.238	2.19
426.598	2.15
426.959	2.25
427.32	2.29
427.68	2.27
428.041	2.07
428.401	2.13
428.761	2.06
429.122	2.27
429.482	2.39
429.842	2.15
430.202	2.2
430.563	2.14
430.923	2.33
431.283	2.26
431.643	2.46
432.003	2.21
432.363	2.29
432.722	2.09
433.082	2.18
433.442	2.36
433.802	2.28
434.161	2.19
434.521	2.06
434.881	2.17
435.24	2.2
435.6	2.26
435.959	2.28
436.319	2.18
436.678	2.28
437.037	2.22
437.396	2.18
437.756	2.23
438.115	2.21
438.474	2.25
438.833	2.16
439.192	2.18
439.551	2.38
439.91	2.18
440.269	2.36
440.628	2.11
440.987	2.25
441.345	2.18
441.704	2.18
442.063	2.24
442.421	2.27
442.78	2.23
443.138	2.2
443.497	2.24
443.855	2.17
444.214	2.28
444.572	2.13
444.93	2.19
445.288	2.25
445.647	2.22
446.005	2.36
446.363	2.32
446.721	2.18
447.079	2.22
447.437	2.19
447.795	2.21
448.153	2.26
448.51	2.19
448.868	2.26
449.226	2.21
449.584	2.27
449.941	2.23
450.299	2.24
450.656	2.25
451.014	2.2
451.371	2.36
451.729	2.2
452.086	2.31
452.443	2.46
452.801	2.23
453.158	2.17
453.515	2.08
453.872	2.38
454.229	2.19
454.586	2.18
454.943	2.16
455.3	2.31
455.657	2.42
456.014	2.35
456.371	2.36
456.727	2.25
457.084	2.36
457.441	2.32
457.797	2.26
458.154	2.39
458.51	2.41
458.867	2.41
459.223	2.41
459.58	2.28
459.936	2.29
460.292	2.32
460.648	2.24
461.005	2.03
461.361	2.16
461.717	2.18
462.073	2.3
462.429	2.37
462.785	2.42
463.141	2.51
463.496	2.42
463.852	2.42
464.208	2.39
464.564	2.33
464.919	2.25
465.275	2.33
465.631	2.32
465.986	2.37
466.342	2.43
466.697	2.37
467.052	2.21
467.408	2.35
467.763	2.41
468.118	2.28
468.473	2.36
468.829	2.17
469.184	2.4
469.539	2.28
469.894	2.37
470.249	2.32
470.603	2.4
470.958	2.28
471.313	2.16
471.668	2.29
472.023	2.15
472.377	2.28
472.732	2.32
473.086	2.34
473.441	2.25
473.795	2.4
474.15	2.41
474.504	2.33
474.859	2.36
475.213	2.46
475.567	2.25
475.921	2.3
476.275	2.39
476.63	2.45
476.984	2.21
477.338	2.43
477.692	2.36
478.045	2.27
478.399	2.38
478.753	2.29
479.107	2.43
479.461	2.25
479.814	2.37
480.168	2.32
480.521	2.28
480.875	2.39
481.228	2.48
481.582	2.5
481.935	2.18
482.289	2.1
482.642	2.41
482.995	2.25
483.348	2.28
483.701	2.34
484.055	2.31
484.408	2.32
484.761	2.18
485.114	2.05
485.466	2
485.819	2.08
486.172	2.21
486.525	2.35
486.878	2.41
487.23	2.45
487.583	2.41
487.936	2.39
488.288	2.35
488.641	2.13
488.993	2.14
489.345	2.17
489.698	2.2
490.05	2.27
490.402	2.31
490.754	2.36
491.107	2.43
491.459	2.38
491.811	2.44
492.163	2.4
492.515	2.21
492.866	2.18
493.218	2.17
493.57	2.2
493.922	2.22
494.274	2.46
494.625	2.47
494.977	2.43
495.328	2.47
495.68	2.4
496.031	2.41
496.383	2.45
496.734	2.42
497.086	2.4
497.437	2.29
497.788	2.16
498.139	2.42
498.49	2.26
498.842	2.42
499.193	2.28
499.544	2.26
499.894	2.48
500.245	2.43
500.596	2.33
500.947	2.5
501.298	2.57
501.648	2.31
501.999	2.27
502.35	2.37
502.7	2.48
503.051	2.51
503.401	2.59
503.752	2.37
504.102	2.44
504.452	2.27
504.803	2.36
505.153	2.34
505.503	2.19
505.853	2.39
506.203	2.35
506.553	2.36
506.903	2.45
507.253	2.41
507.603	2.53
507.953	2.29
508.303	2.39
508.652	2.31
509.002	2.45
509.352	2.33
509.701	2.3
510.051	2.38
510.4	2.52
510.75	2.36
511.099	2.38
511.449	2.36
511.798	2.37
512.147	2.39
512.496	2.5
512.846	2.37
513.195	2.39
513.544	2.41
513.893	2.38
514.242	2.34
514.591	2.54
514.939	2.41
515.288	2.49
515.637	2.38
515.986	2.41
516.334	2.39
516.683	2.37
517.032	2.48
517.38	2.43
517.729	2.39
518.077	2.5
518.426	2.43
518.774	2.42
519.122	2.36
519.47	2.44
519.819	2.34
520.167	2.34
520.515	2.31
520.863	2.37
521.211	2.48
521.559	2.41
521.907	2.43
522.255	2.52
522.602	2.57
522.95	2.43
523.298	2.47
523.645	2.44
523.993	2.37
524.341	2.48
524.688	2.43
525.036	2.32
525.383	2.41
525.73	2.4
526.078	2.32
526.425	2.31
526.772	2.22
527.119	2.32
527.466	2.22
527.814	2.36
528.161	2.42
528.508	2.52
528.854	2.41
529.201	2.39
529.548	2.25
529.895	2.18
530.242	2.19
530.588	2.18
530.935	2.34
531.282	2.41
531.628	2.5
531.975	2.45
532.321	2.51
532.667	2.5
533.014	2.52
533.36	2.51
533.706	2.4
534.052	2.38
534.399	2.26
534.745	2.22
535.091	2.29
535.437	2.29
535.783	2.44
536.129	2.5
536.474	2.51
536.82	2.53
537.166	2.43
537.512	2.45
537.857	2.4
538.203	2.33
538.549	2.34
538.894	2.41
539.239	2.51
539.585	2.49
539.93	2.59
540.276	2.58
540.621	2.48
540.966	2.51
541.311	2.38
541.656	2.31
542.001	2.42
542.346	2.29
542.691	2.26
543.036	2.26
543.381	2.25
543.726	2.4
544.071	2.41
544.415	2.6
544.76	2.5
545.105	2.49
545.449	2.51
545.794	2.4
546.138	2.47
546.483	2.61
546.827	2.52
547.171	2.44
547.516	2.46
547.86	2.32
548.204	2.33
548.548	2.41
548.892	2.54
549.236	2.48
549.58	2.5
549.924	2.56
550.268	2.45
550.612	2.6
550.956	2.61
551.3	2.43
551.643	2.56
551.987	2.29
552.33	2.72
552.674	2.53
553.017	2.5
553.361	2.59
553.704	2.51
554.048	2.51
554.391	2.45
554.734	2.46
555.077	2.41
555.42	2.51
555.764	2.57
556.107	2.65
556.45	2.55
556.793	2.64
557.135	2.6
557.478	2.56
557.821	2.49
558.164	2.62
558.507	2.76
558.849	2.5
559.192	2.58
559.534	2.48
559.877	2.7
560.219	2.63
560.562	2.56
560.904	2.54
561.246	2.54
561.589	2.47
561.931	2.52
562.273	2.33
562.615	2.45
562.957	2.44
563.299	2.66
563.641	2.65
563.983	2.52
564.325	2.34
564.667	2.61
565.008	2.54
565.35	2.53
565.692	2.58
566.033	2.54
566.375	2.42
566.716	2.5
567.058	2.56
567.399	2.4
567.741	2.44
568.082	2.49
568.423	2.57
568.764	2.38
569.105	2.53
569.447	2.42
569.788	2.71
570.129	2.57
570.47	2.56
570.811	2.26
571.151	2.42
571.492	2.4
571.833	2.27
572.174	2.44
572.514	2.47
572.855	2.53
573.195	2.49
573.536	2.44
573.876	2.36
574.217	2.49
574.557	2.59
574.898	2.36
575.238	2.39
575.578	2.39
575.918	2.54
576.258	2.42
576.598	2.36
576.938	2.45
577.278	2.41
577.618	2.46
577.958	2.4
578.298	2.52
578.638	2.71
578.977	2.59
579.317	2.45
579.657	2.55
579.996	2.63
580.336	2.54
580.675	2.34
581.014	2.59
581.354	2.53
581.693	2.5
582.032	2.55
582.372	2.44
582.711	2.5
583.05	2.99
583.389	2.29
583.728	2.5
584.067	2.65
584.406	2.45
584.745	2.59
585.083	2.47
585.422	2.74
585.761	2.43
586.1	2.67
586.438	2.57
586.777	2.42
587.115	2.63
587.454	2.65
587.792	2.66
588.13	2.65
588.469	2.41
588.807	2.66
589.145	2.73
589.483	2.42
589.821	2.43
590.159	2.61
590.497	2.53
590.835	2.58
591.173	2.53
591.511	2.62
591.849	2.5
592.187	2.5
592.524	2.71
592.862	2.5
593.2	2.5
593.537	2.58
593.875	2.41
594.212	2.46
594.55	2.6
594.887	2.44
595.224	2.37
595.561	2.31
595.899	2.52
596.236	2.62
596.573	2.71
596.91	2.52
597.247	2.44
597.584	2.52
597.921	2.63
598.258	2.63
598.594	2.31
598.931	2.49
599.268	2.46
599.604	2.46
599.941	2.52
600.277	2.81
600.614	2.71
600.95	2.46
601.287	2.42
601.623	2.75
601.959	2.5
602.296	2.53
602.632	2.42
602.968	2.44
603.304	2.81
603.64	2.59
603.976	2.45
604.312	2.47
604.648	2.74
604.984	2.42
605.319	2.53
605.655	2.36
605.991	2.62
606.326	2.48
606.662	2.59
606.998	2.55
607.333	2.67
607.668	2.46
608.004	2.51
608.339	2.54
608.674	2.63
609.01	2.54
609.345	2.46
609.68	2.45
610.015	2.5
610.35	2.45
610.685	2.22
611.02	2.51
611.355	2.43
611.689	2.73
612.024	2.54
612.359	2.52
612.694	2.45
613.028	2.51
613.363	2.46
613.697	2.83
614.032	2.72
614.366	2.52
614.7	2.39
615.035	2.71
615.369	2.6
615.703	2.68
616.037	2.4
616.371	2.47
616.705	2.38
617.039	2.58
617.373	2.38
617.707	2.21
618.041	2.4
618.375	2.61
618.709	2.66
619.042	2.73
619.376	3.08
619.71	2.7
620.043	2.54
620.377	2.31
620.71	2.62
621.043	2.65
621.377	2.75
621.71	2.59
622.043	2.3
622.376	2.69
622.709	2.53
623.043	2.27
623.376	2.59
623.709	2.49
624.041	2.45
624.374	2.79
624.707	2.59
625.04	2.84
625.373	2.31
625.705	2.73
626.038	2.79
626.37	2.35
626.703	2.4
627.035	2.49
627.368	2.51
627.7	2.32
628.032	2.36
628.365	2.53
628.697	2.74
629.029	2.4
629.361	2.53
629.693	2.56
630.025	2.74
630.357	2.55
630.689	2.43
631.021	2.86
631.353	2.81
631.684	2.14
632.016	2.25
632.348	2.21
632.679	2.38
633.011	2.7
633.342	2.33
633.674	2.63
634.005	2.46
634.336	2.38
634.668	2.38
634.999	2.55
635.33	2.57
635.661	2.76
635.992	2.7
636.323	2.7
636.654	2.38
636.985	2.56
637.316	2.72
637.647	2.59
637.977	2.7
638.308	2.73
638.639	3.02
638.969	2.42
639.3	2.45
639.63	2.44
639.961	2.77
640.291	2.37
640.622	2.51
640.952	2.8
641.282	2.48
641.612	2.42
641.943	2.78
642.273	2.49
642.603	2.76
642.933	2.88
643.263	2.32
643.592	2.56
643.922	2.51
644.252	2.71
644.582	2.84
644.911	2.73
645.241	2.56
645.571	3.25
645.9	2.48
646.23	2.87
646.559	2.41
646.888	2.77
647.218	2.9
647.547	2.48
647.876	2.91
648.205	2.47
648.534	2.11
648.863	2.28
649.192	2.75
649.521	2.62
649.85	3.38
650.179	2.58
650.508	3.24
650.837	2.27
651.165	2.49
651.494	2.91
651.822	2.67
652.151	2.58
652.479	2.86
652.808	2.73
653.136	2.96
653.465	2.09
653.793	2.29
654.121	2.58
654.449	2.98
654.777	2.66
655.105	2.88
655.433	3.07
655.761	2.68
656.089	2.89
656.417	2.64
656.745	2.52
657.073	2.47
657.4	3.03
657.728	2.72
658.056	3.1
658.383	2.8
658.711	2.39
659.038	2.62
659.365	2.15
659.693	2.96
660.02	2.81
660.347	2.77
660.674	2.55
661.001	2.74
661.329	2.83
661.656	2.76
661.982	2.67
662.309	2.57
662.636	2.8
662.963	2.66
663.29	2.91
663.616	2.33
663.943	2.64
664.27	2.59
664.596	2.66
664.923	2.67
665.249	3.31
665.576	2.29
665.902	2.8
666.228	2.19
666.554	2.7
666.881	2.95
667.207	2.86
667.533	2.49
667.859	2.28
668.185	2.85
668.511	2.46
668.837	3.11
669.162	2.82
669.488	3.01
669.814	3.24
670.139	2.6
670.465	2.49
670.791	2.52
671.116	2.64
671.442	2.44
671.767	2.32
672.092	2.46
672.418	2.47
672.743	2.78
673.068	2.54
673.393	2.33
673.718	2.77
674.043	3.22
674.368	2.65
674.693	2.08
675.018	2.76
675.343	2.39
675.667	2.61
675.992	2.81
676.317	2.13
676.641	2.48
676.966	2.7
677.29	2.75
677.615	2.46
677.939	2.44
678.264	2.49
678.588	2.21
678.912	2.34
679.236	2.26
679.56	1.95
679.885	3.24
680.209	2.61
680.532	2.13
680.856	2.81
681.18	2.77
681.504	2.47
681.828	3.15
682.152	2.24
682.475	2.49
682.799	2.65
683.122	2.61
683.446	2.87
683.769	2.16
684.093	3.08
684.416	2.88
684.739	2.66
685.062	2.54
685.386	2.88
685.709	2.56
686.032	2.72
686.355	2.79
686.678	2.17
687.001	2.31
687.324	2.61
687.646	2.92
687.969	2.97
688.292	2.47
688.614	2.42
688.937	1.95
689.26	2.75
689.582	2.54
689.904	3.22
690.227	2.6
690.549	2.81
690.871	2.46
691.194	2.84
691.516	2.27
691.838	2.83
692.16	2.83
692.482	2.31
692.804	2.28
693.126	2.2
693.448	2.35
693.769	3.01
694.091	2.3
694.413	1.7
694.735	3.03
695.056	3.34
695.378	2.28
695.699	1.97
696.021	2.57
696.342	3.22
696.663	2.51
696.984	2.54
697.306	2.29
697.627	1.73
697.948	2.78
698.269	2.45
698.59	3.18
698.911	2.75
699.232	2.63
699.553	2.43
699.873	2.09
700.194	3.02
700.515	2.57
700.835	2.55
701.156	3.13
701.477	2.52
701.797	2.55
702.117	2.56
702.438	3.15
702.758	3.01
703.078	2.84
703.398	2.28
703.719	2.85
704.039	2.62
704.359	3.07
704.679	2.55
704.999	2.58
705.319	3.88
705.638	2.52
705.958	2.85
706.278	2.34
706.597	2.39
706.917	2.59
707.237	3.13
707.556	3.09
707.876	3.58
708.195	3.13
708.514	1.82
708.834	3
709.153	3.29
709.472	2.97
709.791	2.42
710.11	2.89
710.429	2.65
710.748	2.08
711.067	2.43
711.386	2.76
711.705	3.32
712.023	2.78
712.342	2.96
712.661	2.86
712.979	2.21
713.298	3.23
713.616	2.89
713.935	3.06
714.253	2.54
714.572	2.61
714.89	3.19
715.208	2.58
715.526	2.95
715.844	2.75
716.162	2.92
716.48	2.21
716.798	1.9
717.116	4.24
717.434	3.55
717.752	2.53
718.069	3.03
718.387	3.86
718.705	3.88
719.022	2.55
719.34	2.87
719.657	3.86
719.975	3.21
720.292	3.08
720.609	3.54
720.927	2.58
721.244	2.46
721.561	2.46
721.878	3.03
722.195	2.49
722.512	2.72
722.829	2.96
723.146	3.45
723.463	2.67
723.779	1.86
724.096	2.84
724.413	2.13
724.729	2.16
725.046	2.69
725.362	3.12
725.679	2.69
725.995	2.78
726.311	4.72
726.628	2.91
726.944	1.96
727.26	4.12
727.576	1.8
727.892	2.38
728.208	1.93
728.524	3.34
728.84	2.19
729.156	2.44
729.472	3.6
729.787	2.89
730.103	3.05
730.419	3.91
730.734	2.75
731.05	3.1
731.365	2.11
731.681	1.03
731.996	2.78
732.311	3.86
732.626	4.17
732.942	2.68
733.257	3.16
733.572	2.7
733.887	2.63
734.202	3.01
734.517	2.18
734.832	1.18
735.146	3
735.461	2.36
735.776	3.78
736.091	3.04
736.405	3.09
736.72	2.97
737.034	3.67
737.349	0.62
737.663	3.2
737.977	2.25
738.292	2.21
738.606	3.15
738.92	2.72
739.234	3.4
739.548	4.52
739.862	2.53
740.176	2.16
740.49	3.52
740.804	3.21
741.117	2.45
741.431	0.33
741.745	3.91
742.058	1.05
742.372	3.59
742.685	3.86
742.999	2.11
743.312	4.07
743.626	2.4
743.939	4.61
744.252	2.26
744.565	2.69
744.878	6.2
745.191	1.72
745.505	1.59
745.817	1.89
746.13	2.93
746.443	2.24
746.756	4.23
747.069	3.14
747.381	2.52
747.694	3.37
748.007	3.52
748.319	3.26
748.632	2.44
748.944	4.49
749.256	4.43
749.569	4.24
749.881	2.76
750.193	3.04
750.505	2.97
750.817	3.43
751.129	2.64
751.441	2.18
751.753	3.87
752.065	2.07
752.377	1.42
752.689	3.05
753	2.67
753.312	2.19
753.624	2.12
753.935	4.11
754.247	2.59
754.558	3.84
754.869	3.73
755.181	3.31
755.492	3.09
755.803	3.86
756.114	4.27
756.425	2.63
756.736	4.99
757.047	2.22
757.358	0.98
757.669	1.4
757.98	1.96
758.291	4.63
758.601	5.96
758.912	1.51
759.223	3.43
759.533	3.85
759.844	3.77
760.154	3.43
760.464	2.83
760.775	5.57
761.085	2.35
761.395	3.15
761.705	4.61
762.016	2.43
762.326	3.95
762.636	3.03
762.945	0.8
763.255	1.11
763.565	3.93
763.875	3.02
764.185	3.84
764.494	2.99
764.804	1.97
765.113	2.65
765.423	4.45
765.732	4.35
766.042	4.2
766.351	2.62
766.66	2.5
766.97	2.37
767.279	3.04
767.588	3.51
767.897	2.59
768.206	4.91
768.515	5.08
768.824	3.6
769.133	4.39
769.441	4.92
769.75	2.87
770.059	2.69
770.367	3.95
770.676	3.2
770.984	3.39
771.293	4.42
771.601	3.07
771.91	3.54
772.218	5.21
772.526	5.55
772.834	5.14
773.142	3.86
773.45	2.14
773.758	2.76
774.066	2.18
774.374	1.88
774.682	2.73
774.99	4.03
775.298	2.69
775.605	2.8
775.913	2.33
776.22	4.45
776.528	5.03
776.835	3.51
777.143	3.42
777.45	3.97
777.757	0.07
778.065	2.41
778.372	1.91
778.679	5
778.986	3.31
779.293	1.93
779.6	1.64
779.907	0.97
780.214	3
780.52	2.5
780.827	1.44
781.134	1.01
781.44	1.11
781.747	2.08
782.053	3.15
782.36	2.62
782.666	4.94
782.973	3.68
783.279	1.65
783.585	2.48
783.891	4.18
784.197	2.81
784.503	3.34
784.809	4.43
785.115	3.38
785.421	4.09
785.727	3.46
786.033	-1.14
786.339	1.54
786.644	2.64
786.95	3.66
787.255	2.46
787.561	-0.13
787.866	4.13
788.172	2.6
788.477	5.53
788.782	1.01
789.088	3.4
789.393	5.23
789.698	7.64
790.003	3.42
790.308	1.37
790.613	2.36
790.918	6.54
791.223	2.24
791.527	4
791.832	0.04
792.137	-0.22
792.441	0.56
792.746	2.82
793.05	5.09
793.355	3.61
793.659	0.81
793.963	6.88
794.268	-1.36
794.572	3.04
794.876	3.13
795.18	0.42
795.484	-0.75
795.788	5.61
796.092	3.15
796.396	4.78
796.7	0.73
797.004	-2.78
797.307	3.31
797.611	1.11
797.915	3.71
798.218	2.53
798.522	-0.57
798.825	3.56
799.128	3.35
799.432	5.51
799.735	5
800.038	0.74
800.341	6.08
800.644	-1.81
800.947	4.77
801.25	1.9
801.553	5.08
801.856	3.27
802.159	-0.88
802.462	3.51
802.764	7.49
803.067	2.41
803.37	0.44
803.672	3.97
803.975	0.92
804.277	5.91
804.579	1.56
804.882	0.52
805.184	4.03
805.486	5.77
805.788	8.66
806.09	5.68
806.392	0.62
806.694	6.78
806.996	3.47
807.298	0.07
807.6	4.46
807.902	1.93
808.203	0.26
808.505	1.26
808.807	0.54
809.108	0.99
809.409	9.34
809.711	2.11
810.012	6.7
810.313	3.62
810.615	1.17
810.916	4.73
811.217	1.27
811.518	2.82
811.819	2.06
812.12	0.48
812.421	4.18
812.722	7.44
813.023	3.72
813.323	4.71
813.624	3.71
813.925	1.92
814.225	0.95
814.526	7.78
814.826	8.5
815.126	8.24
815.427	13.21
815.727	5.4
816.027	5.83
816.327	-6.91
816.627	7.46
816.927	2.02
817.227	0.68
817.527	3.43
817.827	-3.72
818.127	3.39
818.427	3.66
818.727	9.03
819.026	4.76
819.326	1.22
819.625	3.02
819.925	3.28
820.224	6.96
820.524	3.64
820.823	3.31
821.122	3.91
821.421	-0.57
821.72	-3.29
822.019	-0.1
822.318	4.36
822.617	4.67
822.916	0.82
823.215	5.28
823.514	5.49
823.813	2.48
824.111	5.48
824.41	3.56
824.709	4.42
825.007	3.84
825.306	3.57
825.604	4.58
825.902	3.23
826.201	3.91
826.499	2.46
826.797	2.92
827.095	6.04
827.393	5.41
827.691	3.7
827.989	3.14
828.287	3.04
828.585	5.91
828.882	3.01
829.18	3.57
829.478	5.39
829.775	3.09
830.073	5.04
830.37	2.62
830.668	3.31
830.965	3.09
831.263	3.85
831.56	1.37
831.857	4.93
832.154	3.5
832.451	7.22
832.748	3.26
833.045	3
833.342	4.2
833.639	2.47
833.936	-0.09
834.232	6.25
834.529	7.44
834.826	9.42
835.122	6.13
835.419	3.65
835.715	1.24
836.012	2.44
836.308	6.03
836.604	3.85
836.901	2.15
837.197	5.38
837.493	4.94
837.789	2.59
838.085	4.89
838.381	1.98
838.677	4.94
838.972	6.13
839.268	0.51
839.564	-0.33
839.86	5.26
840.155	9.63
840.451	7.28
840.746	-1.56
841.042	1.09
841.337	7.66
841.632	2.41
841.928	7.25
842.223	6.45
842.518	-4.33
842.813	8.31
843.108	4.6
843.403	5.77
843.698	-5.47
843.993	3.27
844.287	2.39
844.582	10.02
844.877	3.72
845.171	5.41
845.466	10.62
845.761	6.53
846.055	2.37
846.349	-1.03
846.644	-0.48
846.938	14.22
847.232	-7.48
847.526	0.65
847.82	2.89
848.114	-5.03
848.408	7.06
848.702	-0.37
848.996	9.08
849.29	17.62
849.584	0.11
849.877	6.26
850.171	13.35
850.465	10.87
850.758	7.38
851.052	3.64
851.345	10.21
851.638	21.19
851.932	6.31
852.225	-12.35
852.518	7.91
852.811	7.14
853.104	25.08
853.397	6.94
853.69	8.81
853.983	21.77
854.276	21.89
854.569	-9.66
854.861	5.27
855.154	0.75
855.447	-11.2
855.739	-4.72
856.032	18.46
856.324	-1.46
856.616	21.71
856.909	11.01
857.201	-11.19
857.493	-8.19
857.785	-5.83
858.077	-2.17
858.369	21.87
858.661	-7
858.953	-0.86
859.245	-16.57
859.537	-8.45
859.829	-15.63
860.12	-27.44
860.412	8.68
860.703	22.53
860.995	1
861.286	-4.1
861.578	11.07
861.869	2.58
862.16	16.84
862.452	6.02
862.743	18.33
863.034	-17.23
863.325	-3.91
863.616	-8.12
863.907	12.78
864.198	-2.82
864.488	4.65
864.779	8.34
865.07	-16.96
865.36	-6.61
865.651	-0.18
865.941	2.42
866.232	1.5
866.522	17.89
866.813	5.63
867.103	8.82
867.393	15.22
867.683	6.58
867.973	-17.17
868.263	-14.49
868.553	0.19
868.843	11.66
869.133	6.42
869.423	3.31
869.713	-11.47
870.002	3.58
870.292	-5.39
870.582	10.26
870.871	-9.08
871.161	18.8
871.45	5.7
871.739	-9.27
872.029	-0.86
872.318	10.75
872.607	-12.29
872.896	-6.28
873.185	16.67
873.474	11.22
873.763	10.33
874.052	1.77
874.341	5.17
874.63	14.14
874.918	-20.21
875.207	2.16
875.496	7.37
875.784	4.23
876.073	-4.83
876.361	7.99
876.649	18.34
876.938	31.44
877.226	10.87
877.514	18.63
877.802	-5.25
878.09	-24.28
878.378	-0.78
878.666	-9.14
878.954	-1.84
879.242	1.17
879.53	-11.57
879.817	9.53
880.105	8.88
880.392	5.69
880.68	14.06
880.967	-18.21
881.255	-31.32
881.542	-6.76
881.83	17.51
882.117	-4.48
882.404	-12.76
882.691	-12.09
882.978	4.64
883.265	-2.13
883.552	17.66
883.839	-0.31
884.126	8.04
884.413	7.34
884.699	7.49
884.986	1
885.273	3.28
885.559	3.28
885.846	3.28
