Data from 1710-4_chest_Reflection__0__166.txt Node

Date: Fri Sep 30 19:25:26 CDT 2022
User: ToomeyLab
Spectrometer: FLMS14357
Trigger mode: 0
Integration Time (sec): 1.000000E-2
Scans to average: 100
Electric dark correction enabled: true
Nonlinearity correction enabled: false
Boxcar width: 0
XAxis mode: Wavelengths
Number of Pixels in Spectrum: 2048
>>>>>Begin Spectral Data<<<<<
189.047	338.31
189.435	338.31
189.823	338.31
190.211	14.85
190.599	106.15
190.987	88.19
191.375	292.55
191.763	104.87
192.151	7.46
192.538	-528.57
192.926	67.95
193.314	343.02
193.702	78.07
194.089	-808.79
194.477	48.28
194.864	77.41
195.252	-49.74
195.639	66.39
196.027	-253.59
196.414	3.98
196.801	284.78
197.189	345.92
197.576	263.32
197.963	-37.23
198.351	35.13
198.738	4.4
199.125	-40.57
199.512	23.7
199.899	-39.47
200.286	14.83
200.673	-2.84
201.06	-19.24
201.447	48.34
201.833	82.04
202.22	-92.7
202.607	-42.75
202.994	45.12
203.38	12.28
203.767	7.73
204.154	43.61
204.54	36.26
204.927	-21.83
205.313	24.44
205.699	9.9
206.086	31.03
206.472	32.29
206.858	40.47
207.245	-61.88
207.631	-12.49
208.017	12.52
208.403	35.33
208.789	36.47
209.175	18.23
209.561	-8.5
209.947	31.75
210.333	12.14
210.719	22.45
211.105	-14.47
211.491	9.03
211.876	21.26
212.262	61.57
212.648	10.33
213.034	46.92
213.419	55.32
213.805	12.45
214.19	-12.21
214.576	0.51
214.961	25.56
215.346	1.22
215.732	-33.4
216.117	-0.96
216.502	0.51
216.888	-5.64
217.273	31.13
217.658	-0.76
218.043	14.45
218.428	14.7
218.813	1.67
219.198	31.47
219.583	-10.5
219.968	4.27
220.353	17.04
220.738	-4.6
221.122	-26.92
221.507	13.61
221.892	-12.36
222.276	-26.29
222.661	-9.15
223.046	-5.54
223.43	2.85
223.815	0.19
224.199	6.81
224.583	18.74
224.968	1.34
225.352	1.53
225.736	6.93
226.121	9.98
226.505	6.1
226.889	7.37
227.273	1.3
227.657	-1.35
228.041	0.53
228.425	0.13
228.809	3.45
229.193	5.71
229.577	4.72
229.961	5.05
230.344	4.2
230.728	5.58
231.112	5.41
231.495	5.52
231.879	4.29
232.263	5.37
232.646	4.78
233.03	3.77
233.413	3.62
233.797	4.27
234.18	1.79
234.563	9.39
234.946	5.15
235.33	3.16
235.713	1.11
236.096	3.13
236.479	3.13
236.862	6.06
237.245	4.57
237.628	4.66
238.011	4.75
238.394	1.22
238.777	3.79
239.16	4.3
239.543	4.84
239.925	2.89
240.308	4.14
240.691	4
241.073	5.12
241.456	4.83
241.838	3.85
242.221	4.27
242.603	4.4
242.986	5.13
243.368	4.19
243.75	3.32
244.133	3.86
244.515	3.71
244.897	3.59
245.279	4.22
245.661	4.69
246.043	4.18
246.425	4.85
246.807	4.24
247.189	3.11
247.571	4.77
247.953	3.74
248.335	4.61
248.717	3.83
249.098	4.28
249.48	4.23
249.862	3.94
250.243	4.28
250.625	3.76
251.006	4.88
251.388	3.61
251.769	4.02
252.151	2.99
252.532	3.41
252.913	3.98
253.295	3.66
253.676	4.05
254.057	4.18
254.438	3.82
254.819	3.81
255.2	4.23
255.581	4.61
255.962	4.34
256.343	2.49
256.724	5.22
257.105	4.01
257.486	4.3
257.867	3.93
258.247	3.65
258.628	4.61
259.009	4.11
259.389	4.96
259.77	2.97
260.15	3.79
260.531	3.91
260.911	3.69
261.292	4.01
261.672	3.75
262.052	3.87
262.432	3.87
262.813	4.49
263.193	3.95
263.573	4.06
263.953	3.74
264.333	3.93
264.713	3.99
265.093	4.04
265.473	3.97
265.853	4.02
266.233	3.69
266.612	4.32
266.992	3.73
267.372	3.91
267.752	3.29
268.131	3.96
268.511	3.9
268.89	3.34
269.27	3.94
269.649	3.65
270.029	3.13
270.408	4.16
270.787	3.82
271.167	3.62
271.546	3.74
271.925	3.65
272.304	3.96
272.683	3.87
273.062	3.68
273.441	3.37
273.82	3.33
274.199	4.08
274.578	3.62
274.957	3.41
275.336	3.49
275.715	3.52
276.093	3.41
276.472	3.65
276.851	3.7
277.229	3.96
277.608	3.26
277.986	2.71
278.365	3.62
278.743	4.49
279.122	2.83
279.5	3.99
279.878	3.28
280.257	3.5
280.635	3.67
281.013	4.18
281.391	4
281.769	3.92
282.147	3.45
282.525	3.98
282.903	3.48
283.281	3.33
283.659	4.07
284.037	3.96
284.415	3.19
284.792	3.48
285.17	3.64
285.548	3.51
285.925	3.75
286.303	3.7
286.68	3.52
287.058	3.61
287.435	3.38
287.813	3.51
288.19	3.64
288.567	3.57
288.945	3.13
289.322	3.81
289.699	2.93
290.076	3.68
290.453	4.25
290.83	2.97
291.207	3.87
291.584	3.73
291.961	3.87
292.338	3.52
292.715	4.05
293.092	4.38
293.469	3.74
293.845	4.42
294.222	4.2
294.599	3.82
294.975	4.5
295.352	4.13
295.728	4.19
296.105	4.76
296.481	3.87
296.858	3.57
297.234	3.46
297.61	4.01
297.986	4.23
298.363	3.72
298.739	4.3
299.115	4.02
299.491	3.91
299.867	3.91
300.243	4.37
300.619	4.08
300.995	4.37
301.371	4.56
301.746	4.37
302.122	3.89
302.498	3.63
302.874	3.63
303.249	4.06
303.625	3.84
304	4.21
304.376	4.14
304.751	4.39
305.127	4.33
305.502	4.13
305.878	4.42
306.253	4.64
306.628	3.87
307.003	4.49
307.378	3.98
307.754	4.53
308.129	4.54
308.504	4.7
308.879	4.57
309.254	4.47
309.629	4.75
310.003	4.58
310.378	4.31
310.753	4.19
311.128	3.86
311.502	4.46
311.877	4.47
312.252	4.17
312.626	4.84
313.001	4.48
313.375	4.62
313.75	4.62
314.124	4.06
314.498	4.08
314.873	4.21
315.247	4.55
315.621	4.68
315.995	4.37
316.369	4.67
316.743	4.65
317.117	4.68
317.491	4.54
317.865	4.72
318.239	4.74
318.613	4.69
318.987	4.54
319.361	4.35
319.734	3.93
320.108	4.51
320.482	4.83
320.855	4.35
321.229	4.24
321.602	4.74
321.976	5.31
322.349	4.38
322.723	5.04
323.096	4.5
323.469	4.55
323.843	4.78
324.216	4.39
324.589	5.02
324.962	4.1
325.335	4.66
325.708	4.18
326.081	5.29
326.454	4.78
326.827	4.86
327.2	4.6
327.573	4.78
327.945	4.77
328.318	4.78
328.691	4.8
329.063	4.29
329.436	4.04
329.809	4.65
330.181	4.35
330.553	5.32
330.926	4.68
331.298	4.98
331.671	4.94
332.043	4.68
332.415	5.04
332.787	5.01
333.159	5.1
333.532	4.74
333.904	4.75
334.276	4.9
334.648	4.13
335.02	4.81
335.391	4.62
335.763	4.96
336.135	4.71
336.507	4.94
336.879	4.62
337.25	5.09
337.622	4.71
337.993	4.24
338.365	4.96
338.736	4.2
339.108	5.32
339.479	4.77
339.851	4.65
340.222	4.69
340.593	4.78
340.964	5.14
341.336	4.63
341.707	4.57
342.078	5.13
342.449	4.48
342.82	4.67
343.191	4.59
343.562	4.88
343.933	5.25
344.303	4.72
344.674	4.83
345.045	4.77
345.416	4.76
345.786	4.78
346.157	4.13
346.527	4.62
346.898	4.67
347.268	5.1
347.639	4.75
348.009	4.69
348.38	4.54
348.75	4.76
349.12	4.43
349.49	4.7
349.861	4.95
350.231	5.16
350.601	4.87
350.971	4.44
351.341	4.72
351.711	5.22
352.081	4.47
352.45	4.63
352.82	4.94
353.19	4.76
353.56	4.55
353.929	4.67
354.299	4.82
354.669	4.91
355.038	5.05
355.408	4.53
355.777	4.53
356.147	4.53
356.516	4.82
356.885	4.92
357.254	4.75
357.624	5.02
357.993	4.86
358.362	4.54
358.731	4.63
359.1	4.7
359.469	5.12
359.838	4.8
360.207	4.84
360.576	4.95
360.945	4.6
361.314	4.9
361.682	5.04
362.051	5.08
362.42	4.54
362.788	4.87
363.157	4.85
363.525	4.95
363.894	4.99
364.262	4.83
364.631	4.95
364.999	5.01
365.367	4.94
365.735	5.06
366.104	4.79
366.472	5.12
366.84	5.2
367.208	5.11
367.576	4.85
367.944	5.03
368.312	4.83
368.68	4.96
369.048	5.13
369.416	5.2
369.783	4.95
370.151	4.86
370.519	4.66
370.886	5.25
371.254	5.02
371.621	5.27
371.989	5.12
372.356	5.09
372.724	5.03
373.091	4.86
373.458	4.9
373.826	4.91
374.193	5.33
374.56	4.83
374.927	5.1
375.294	4.71
375.661	5.19
376.028	5.21
376.395	5.01
376.762	4.81
377.129	5.01
377.496	5.1
377.863	5.27
378.229	4.97
378.596	5.02
378.963	5.02
379.329	5.21
379.696	4.79
380.062	5.12
380.429	4.89
380.795	4.77
381.161	5.13
381.528	5.06
381.894	5.05
382.26	5.19
382.626	5.1
382.993	5.05
383.359	5.29
383.725	4.95
384.091	4.91
384.457	5.24
384.823	5.29
385.188	5.49
385.554	5.18
385.92	5.45
386.286	5.22
386.651	5.43
387.017	5.09
387.383	5.38
387.748	5.6
388.114	5.2
388.479	5.31
388.845	5.05
389.21	4.79
389.575	5.22
389.94	4.86
390.306	5.45
390.671	5.05
391.036	5.18
391.401	5.22
391.766	5.16
392.131	5.11
392.496	5.07
392.861	5.39
393.226	5.18
393.591	5.24
393.956	5.3
394.32	5.09
394.685	5.05
395.05	5.01
395.414	5.25
395.779	5.17
396.143	5.25
396.508	5.23
396.872	5.25
397.236	5.12
397.601	5.42
397.965	5.39
398.329	4.91
398.694	5.3
399.058	5.55
399.422	5.48
399.786	5.35
400.15	5.44
400.514	5.47
400.878	5.19
401.242	5.23
401.605	5.58
401.969	5.24
402.333	5.21
402.697	5.42
403.06	5.41
403.424	5.47
403.787	5.33
404.151	5.11
404.514	5.3
404.878	5.36
405.241	5.39
405.604	5.32
405.968	5.13
406.331	5.29
406.694	5.37
407.057	5.42
407.42	5.34
407.783	5.25
408.146	5.24
408.509	5.35
408.872	5.25
409.235	5.38
409.598	5.37
409.961	5.5
410.323	5.13
410.686	5.37
411.049	5.09
411.411	5.37
411.774	5.4
412.136	5.75
412.499	5.69
412.861	5.55
413.223	5.67
413.586	5.4
413.948	5.4
414.31	5.59
414.672	5.73
415.035	5.39
415.397	5.32
415.759	5.64
416.121	5.47
416.483	5.37
416.845	5.47
417.206	5.46
417.568	5.72
417.93	5.16
418.292	5.41
418.653	5.48
419.015	5.55
419.377	5.35
419.738	5.48
420.1	5.36
420.461	5.44
420.822	5.38
421.184	5.31
421.545	5.4
421.906	5.47
422.267	5.4
422.629	5.36
422.99	5.44
423.351	5.46
423.712	5.45
424.073	5.49
424.434	5.4
424.795	5.46
425.155	5.39
425.516	5.42
425.877	5.52
426.238	5.51
426.598	5.42
426.959	5.57
427.32	5.52
427.68	5.66
428.041	5.65
428.401	5.71
428.761	5.64
429.122	5.63
429.482	5.65
429.842	5.65
430.202	5.65
430.563	5.63
430.923	5.84
431.283	5.71
431.643	5.91
432.003	5.85
432.363	5.92
432.722	5.7
433.082	5.77
433.442	5.61
433.802	5.69
434.161	5.88
434.521	5.74
434.881	5.6
435.24	5.58
435.6	5.68
435.959	5.81
436.319	5.76
436.678	5.74
437.037	5.87
437.396	5.81
437.756	5.8
438.115	5.91
438.474	5.95
438.833	5.73
439.192	5.9
439.551	5.86
439.91	5.72
440.269	5.86
440.628	5.77
440.987	5.72
441.345	5.68
441.704	5.78
442.063	5.83
442.421	5.84
442.78	5.78
443.138	5.75
443.497	5.68
443.855	5.96
444.214	5.94
444.572	5.85
444.93	5.75
445.288	5.9
445.647	5.96
446.005	5.88
446.363	5.9
446.721	5.87
447.079	5.83
447.437	5.89
447.795	5.8
448.153	5.89
448.51	5.92
448.868	5.84
449.226	5.86
449.584	6.02
449.941	5.88
450.299	5.93
450.656	5.94
451.014	6.09
451.371	5.98
451.729	5.89
452.086	5.97
452.443	6.19
452.801	6.18
453.158	6.11
453.515	5.96
453.872	6.1
454.229	5.99
454.586	6.05
454.943	6.07
455.3	6.1
455.657	6.23
456.014	6.22
456.371	6.21
456.727	6.13
457.084	6.13
457.441	6.19
457.797	6.01
458.154	6.14
458.51	6.24
458.867	6.29
459.223	6.11
459.58	6.16
459.936	6.13
460.292	6.16
460.648	6.14
461.005	6.02
461.361	6.06
461.717	5.97
462.073	6.1
462.429	6.23
462.785	6.24
463.141	6.34
463.496	6.16
463.852	6.31
464.208	6.34
464.564	6.53
464.919	6.23
465.275	6.3
465.631	6.4
465.986	6.44
466.342	6.31
466.697	6.34
467.052	6.3
467.408	6.18
467.763	6.4
468.118	6.29
468.473	6.33
468.829	6.15
469.184	6.42
469.539	6.43
469.894	6.48
470.249	6.43
470.603	6.48
470.958	6.36
471.313	6.48
471.668	6.61
472.023	6.43
472.377	6.45
472.732	6.31
473.086	6.37
473.441	6.36
473.795	6.56
474.15	6.55
474.504	6.44
474.859	6.47
475.213	6.66
475.567	6.36
475.921	6.63
476.275	6.52
476.63	6.69
476.984	6.49
477.338	6.62
477.692	6.62
478.045	6.48
478.399	6.67
478.753	6.58
479.107	6.55
479.461	6.53
479.814	6.56
480.168	6.65
480.521	6.71
480.875	6.67
481.228	6.52
481.582	6.69
481.935	6.58
482.289	6.52
482.642	6.8
482.995	6.62
483.348	6.63
483.701	6.5
484.055	6.63
484.408	6.55
484.761	6.43
485.114	6.26
485.466	6.16
485.819	6.25
486.172	6.33
486.525	6.56
486.878	6.61
487.23	6.65
487.583	6.63
487.936	6.69
488.288	6.51
488.641	6.43
488.993	6.45
489.345	6.46
489.698	6.5
490.05	6.58
490.402	6.61
490.754	6.72
491.107	6.81
491.459	6.82
491.811	6.85
492.163	6.84
492.515	6.76
492.866	6.67
493.218	6.57
493.57	6.62
493.922	6.69
494.274	6.83
494.625	6.99
494.977	6.98
495.328	7.01
495.68	7.06
496.031	7.07
496.383	7.21
496.734	7.03
497.086	7.04
497.437	7.07
497.788	7
498.139	7.05
498.49	7.02
498.842	7.1
499.193	7.06
499.544	7.13
499.894	7.19
500.245	7.17
500.596	7.12
500.947	7.24
501.298	7.34
501.648	7.35
501.999	7.32
502.35	7.28
502.7	7.39
503.051	7.46
503.401	7.45
503.752	7.19
504.102	7.28
504.452	7.3
504.803	7.36
505.153	7.31
505.503	7.33
505.853	7.17
506.203	7.42
506.553	7.49
506.903	7.45
507.253	7.45
507.603	7.53
507.953	7.43
508.303	7.54
508.652	7.34
509.002	7.49
509.352	7.56
509.701	7.57
510.051	7.56
510.4	7.62
510.75	7.47
511.099	7.48
511.449	7.46
511.798	7.42
512.147	7.51
512.496	7.68
512.846	7.62
513.195	7.67
513.544	7.65
513.893	7.65
514.242	7.66
514.591	7.79
514.939	7.79
515.288	7.73
515.637	7.86
515.986	7.84
516.334	7.87
516.683	7.83
517.032	7.9
517.38	7.81
517.729	7.91
518.077	8.01
518.426	7.85
518.774	7.83
519.122	7.87
519.47	7.81
519.819	7.81
520.167	7.78
520.515	7.87
520.863	7.98
521.211	8.03
521.559	8.05
521.907	8.01
522.255	8.16
522.602	8.29
522.95	8.2
523.298	8.16
523.645	8.19
523.993	8.19
524.341	8.21
524.688	8.34
525.036	8.11
525.383	8.3
525.73	8.3
526.078	8.24
526.425	8.34
526.772	8.16
527.119	8.16
527.466	8.18
527.814	8.23
528.161	8.29
528.508	8.36
528.854	8.36
529.201	8.27
529.548	8.18
529.895	8.07
530.242	8.04
530.588	8.15
530.935	8.22
531.282	8.34
531.628	8.43
531.975	8.47
532.321	8.56
532.667	8.59
533.014	8.75
533.36	8.7
533.706	8.78
534.052	8.7
534.399	8.51
534.745	8.47
535.091	8.54
535.437	8.55
535.783	8.68
536.129	8.78
536.474	8.88
536.82	8.97
537.166	8.97
537.512	9.07
537.857	8.9
538.203	8.83
538.549	8.89
538.894	8.97
539.239	9.04
539.585	9.16
539.93	9.29
540.276	9.28
540.621	9.34
540.966	9.32
541.311	9.19
541.656	9.31
542.001	9.28
542.346	9.11
542.691	8.99
543.036	9.01
543.381	9.1
543.726	9.19
544.071	9.26
544.415	9.4
544.76	9.22
545.105	9.44
545.449	9.59
545.794	9.44
546.138	9.62
546.483	9.56
546.827	9.8
547.171	9.71
547.516	9.67
547.86	9.7
548.204	9.65
548.548	9.68
548.892	9.9
549.236	9.74
549.58	9.92
549.924	10
550.268	10.04
550.612	10.07
550.956	10.2
551.3	10.07
551.643	10.12
551.987	10.17
552.33	10.51
552.674	10.23
553.017	10.3
553.361	10.49
553.704	10.23
554.048	10.39
554.391	10.49
554.734	10.62
555.077	10.37
555.42	10.5
555.764	10.63
556.107	10.73
556.45	10.77
556.793	10.75
557.135	10.71
557.478	10.84
557.821	10.9
558.164	10.91
558.507	10.98
558.849	10.91
559.192	11.13
559.534	11.09
559.877	11.3
560.219	11.19
560.562	11.17
560.904	11.24
561.246	11.16
561.589	11.26
561.931	11.41
562.273	11.12
562.615	11.24
562.957	11
563.299	11.3
563.641	11.33
563.983	11.55
564.325	11.37
564.667	11.6
565.008	11.52
565.35	11.64
565.692	11.57
566.033	11.68
566.375	11.46
566.716	11.87
567.058	11.68
567.399	11.74
567.741	11.75
568.082	11.69
568.423	11.82
568.764	11.95
569.105	11.91
569.447	11.96
569.788	12.02
570.129	12.1
570.47	12.12
570.811	11.99
571.151	12.19
571.492	12.38
571.833	12.04
572.174	12.21
572.514	12.29
572.855	12.36
573.195	12.42
573.536	12.36
573.876	12.29
574.217	12.47
574.557	12.49
574.898	12.46
575.238	12.62
575.578	12.6
575.918	12.63
576.258	12.62
576.598	12.59
576.938	12.69
577.278	12.8
577.618	12.82
577.958	12.91
578.298	13.09
578.638	13.16
578.977	13.3
579.317	13.07
579.657	13.06
579.996	13.27
580.336	13.11
580.675	13.34
581.014	13.4
581.354	13.51
581.693	13.56
582.032	13.77
582.372	13.41
582.711	13.52
583.05	13.69
583.389	13.69
583.728	13.81
584.067	14.02
584.406	13.92
584.745	13.97
585.083	14.02
585.422	14
585.761	13.92
586.1	14.23
586.438	14.03
586.777	13.91
587.115	14.31
587.454	14.2
587.792	14.26
588.13	14.25
588.469	14.19
588.807	14.52
589.145	14.67
589.483	14.41
589.821	14.46
590.159	14.6
590.497	14.64
590.835	14.67
591.173	14.78
591.511	14.63
591.849	14.76
592.187	14.72
592.524	14.8
592.862	14.87
593.2	14.85
593.537	15.11
593.875	15.11
594.212	15.15
594.55	15.19
594.887	15.33
595.224	15.28
595.561	15.41
595.899	15.37
596.236	15.22
596.573	15.47
596.91	15.42
597.247	15.61
597.584	15.52
597.921	15.48
598.258	15.58
598.594	15.61
598.931	15.7
599.268	15.49
599.604	15.62
599.941	15.78
600.277	15.72
600.614	16.09
600.95	15.89
601.287	15.8
601.623	16.05
601.959	16.08
602.296	15.95
602.632	15.98
602.968	16.27
603.304	16.44
603.64	16.21
603.976	16.23
604.312	16.32
604.648	16.41
604.984	16.31
605.319	16.46
605.655	16.23
605.991	16.45
606.326	16.46
606.662	16.41
606.998	16.58
607.333	16.7
607.668	16.78
608.004	16.86
608.339	17.01
608.674	17.07
609.01	17.05
609.345	17.04
609.68	16.69
610.015	17.06
610.35	17.1
610.685	16.92
611.02	17.04
611.355	16.98
611.689	17.24
612.024	17.28
612.359	17.38
612.694	17.54
613.028	17.79
613.363	17.75
613.697	17.67
614.032	17.56
614.366	17.8
614.7	17.87
615.035	18.17
615.369	18
615.703	17.96
616.037	17.61
616.371	18.2
616.705	17.99
617.039	18.44
617.373	17.67
617.707	17.94
618.041	18.05
618.375	18.19
618.709	18.28
619.042	18.45
619.376	18.5
619.71	18.19
620.043	18.59
620.377	18.55
620.71	18.51
621.043	18.75
621.377	18.79
621.71	18.78
622.043	18.61
622.376	19.06
622.709	19.1
623.043	18.64
623.376	19.1
623.709	19.17
624.041	18.85
624.374	19.12
624.707	19.01
625.04	19.33
625.373	19.46
625.705	19.36
626.038	19.41
626.37	19.4
626.703	19.63
627.035	19.46
627.368	19.28
627.7	19.47
628.032	19.3
628.365	19.48
628.697	19.67
629.029	19.32
629.361	19.79
629.693	19.67
630.025	19.86
630.357	20.07
630.689	19.87
631.021	20.34
631.353	20.37
631.684	19.87
632.016	20
632.348	20.05
632.679	20.25
633.011	20.16
633.342	20.51
633.674	20.29
634.005	20.23
634.336	20.32
634.668	20.59
634.999	20.56
635.33	20.93
635.661	20.74
635.992	20.68
636.323	20.95
636.654	20.99
636.985	20.88
637.316	21.12
637.647	20.84
637.977	21.35
638.308	21.13
638.639	21.34
638.969	21.15
639.3	20.7
639.63	21.11
639.961	21.39
640.291	21.08
640.622	21.22
640.952	21.58
641.282	21.16
641.612	21.38
641.943	21.59
642.273	21.53
642.603	21.88
642.933	21.7
643.263	21.32
643.592	21.89
643.922	21.76
644.252	21.58
644.582	21.83
644.911	21.53
645.241	22.19
645.571	21.93
645.9	22.37
646.23	22.02
646.559	22.09
646.888	22
647.218	22.75
647.547	22.24
647.876	22.92
648.205	22.52
648.534	22.3
648.863	22.4
649.192	22.59
649.521	22.52
649.85	22.94
650.179	22.8
650.508	22.59
650.837	22.52
651.165	22.31
651.494	22.86
651.822	22.72
652.151	22.52
652.479	23.12
652.808	23.29
653.136	23.38
653.465	23.2
653.793	22.9
654.121	23.14
654.449	23.21
654.777	23.31
655.105	23.49
655.433	23.22
655.761	23.37
656.089	23.75
656.417	23.42
656.745	23.58
657.073	23.44
657.4	24.16
657.728	23.48
658.056	23.7
658.383	24.08
658.711	23.79
659.038	23.88
659.365	23.37
659.693	24.21
660.02	24.04
660.347	23.89
660.674	24.18
661.001	23.78
661.329	23.94
661.656	23.91
661.982	23.88
662.309	24.04
662.636	24.06
662.963	24.31
663.29	24.71
663.616	24.31
663.943	24.47
664.27	24.9
664.596	25.01
664.923	24.7
665.249	24.61
665.576	24.68
665.902	24.91
666.228	24.79
666.554	24.49
666.881	24.75
667.207	25.5
667.533	25.2
667.859	24.58
668.185	24.79
668.511	24.97
668.837	25.24
669.162	25.04
669.488	25.08
669.814	24.96
670.139	24.51
670.465	25.02
670.791	24.68
671.116	24.67
671.442	25.28
671.767	25.09
672.092	25.04
672.418	25.65
672.743	25.64
673.068	25.71
673.393	25.18
673.718	26.16
674.043	25.94
674.368	26.7
674.693	25.15
675.018	26.25
675.343	25.7
675.667	25.32
675.992	26.5
676.317	26.34
676.641	25.27
676.966	26.09
677.29	26.05
677.615	25.36
677.939	26.33
678.264	26.58
678.588	26.13
678.912	26.26
679.236	26.04
679.56	26.19
679.885	26.39
680.209	26.77
680.532	26.34
680.856	25.83
681.18	26.56
681.504	26.39
681.828	26.46
682.152	26.75
682.475	26.75
682.799	26.05
683.122	26.26
683.446	26.5
683.769	27.09
684.093	27.2
684.416	26.51
684.739	27.49
685.062	27.27
685.386	26.76
685.709	26.77
686.032	27.99
686.355	27.39
686.678	27.33
687.001	27.26
687.324	27.01
687.646	27.36
687.969	27.44
688.292	27.32
688.614	27.57
688.937	27.52
689.26	27.8
689.582	27.15
689.904	28.12
690.227	27.59
690.549	28.33
690.871	27.83
691.194	27.99
691.516	27.97
691.838	27.61
692.16	28.63
692.482	28.44
692.804	27.88
693.126	28.17
693.448	27.2
693.769	28.49
694.091	28.35
694.413	28.14
694.735	28.11
695.056	28.2
695.378	27.69
695.699	27.65
696.021	28.72
696.342	28.67
696.663	29.34
696.984	27.91
697.306	29.13
697.627	28.61
697.948	28.29
698.269	28.85
698.59	30.07
698.911	29.04
699.232	28.53
699.553	28.18
699.873	28.99
700.194	29.08
700.515	28.82
700.835	29.07
701.156	29.36
701.477	28.56
701.797	28.87
702.117	29.42
702.438	29.17
702.758	30.58
703.078	29.47
703.398	29.05
703.719	28.51
704.039	29.22
704.359	29.37
704.679	29.27
704.999	29.26
705.319	30.09
705.638	29.65
705.958	29.08
706.278	29.87
706.597	29.79
706.917	28.51
707.237	29.43
707.556	28.94
707.876	29.27
708.195	30.16
708.514	29.45
708.834	29.8
709.153	28.69
709.472	30.94
709.791	28.9
710.11	30.49
710.429	30.24
710.748	30.89
711.067	31.34
711.386	29.67
711.705	31.35
712.023	31.34
712.342	30.87
712.661	30.08
712.979	30.53
713.298	30.76
713.616	30.58
713.935	30.63
714.253	30.54
714.572	29.94
714.89	30.44
715.208	30.19
715.526	30.27
715.844	30.74
716.162	30.64
716.48	30.86
716.798	30.34
717.116	31.45
717.434	30.8
717.752	31.3
718.069	31.53
718.387	31.77
718.705	31.53
719.022	30.72
719.34	31.2
719.657	31.39
719.975	32.67
720.292	30.92
720.609	32.17
720.927	31.47
721.244	31.44
721.561	32.24
721.878	32.23
722.195	31.92
722.512	30.89
722.829	31.82
723.146	33.14
723.463	31.54
723.779	31.17
724.096	31.84
724.413	31.44
724.729	32.78
725.046	32.66
725.362	32.14
725.679	31.73
725.995	31.15
726.311	32.34
726.628	32.2
726.944	32.06
727.26	32.22
727.576	31.47
727.892	32.02
728.208	33.37
728.524	32.73
728.84	32.46
729.156	32.68
729.472	32.89
729.787	32.39
730.103	33
730.419	32.62
730.734	32.23
731.05	33.69
731.365	30.86
731.681	31.07
731.996	32.57
732.311	33.95
732.626	33.22
732.942	33.19
733.257	33.76
733.572	32.98
733.887	32.2
734.202	32.14
734.517	31.96
734.832	32.24
735.146	32.78
735.461	32.07
735.776	33.97
736.091	33.1
736.405	32.47
736.72	33.38
737.034	32.97
737.349	32.76
737.663	33.7
737.977	33.34
738.292	34.45
738.606	33.42
738.92	32.82
739.234	33.08
739.548	34.34
739.862	33.59
740.176	34.07
740.49	34.33
740.804	34.4
741.117	33.99
741.431	32.43
741.745	34.14
742.058	32.85
742.372	33.88
742.685	33.66
742.999	33.68
743.312	33.65
743.626	33.48
743.939	34.16
744.252	35.35
744.565	32.9
744.878	37
745.191	35.53
745.505	33.5
745.817	34.24
746.13	34.26
746.443	32.93
746.756	33.85
747.069	35.54
747.381	34.71
747.694	33.55
748.007	34.36
748.319	34.33
748.632	33.98
748.944	35.02
749.256	35.58
749.569	35.24
749.881	35.34
750.193	36.14
750.505	35.85
750.817	33.94
751.129	36.64
751.441	35.18
751.753	36.17
752.065	35.37
752.377	32.61
752.689	36.34
753	36.33
753.312	35.88
753.624	33.67
753.935	35.15
754.247	35.28
754.558	35.32
754.869	35.06
755.181	34.87
755.492	33.61
755.803	35.94
756.114	35.79
756.425	35.53
756.736	35.56
757.047	33.64
757.358	34.41
757.669	34.95
757.98	33.75
758.291	35.19
758.601	36.34
758.912	34.38
759.223	35.92
759.533	35.33
759.844	35.7
760.154	34.59
760.464	36.32
760.775	36.87
761.085	36.46
761.395	33.94
761.705	35.19
762.016	37.06
762.326	35.21
762.636	35.22
762.945	33.52
763.255	38.49
763.565	36.76
763.875	36.53
764.185	36.33
764.494	36.2
764.804	36.64
765.113	37.26
765.423	36.23
765.732	36.49
766.042	36.47
766.351	35.64
766.66	35.58
766.97	37.02
767.279	36.47
767.588	37.8
767.897	36.25
768.206	38.47
768.515	37.36
768.824	36.45
769.133	36.68
769.441	37.42
769.75	37.55
770.059	36.43
770.367	36.03
770.676	37.48
770.984	36.24
771.293	38.51
771.601	37.43
771.91	37.97
772.218	37.02
772.526	37.01
772.834	37.28
773.142	38.74
773.45	39.02
773.758	38.86
774.066	37.19
774.374	36.63
774.682	34.97
774.99	37.05
775.298	37.5
775.605	35.81
775.913	37.87
776.22	39.31
776.528	37.36
776.835	37.39
777.143	34.79
777.45	35.12
777.757	35.87
778.065	37.74
778.372	36.8
778.679	36.31
778.986	38.63
779.293	40.96
779.6	36.76
779.907	35.35
780.214	36.89
780.52	34.69
780.827	37.91
781.134	35.31
781.44	35.54
781.747	35.53
782.053	39.28
782.36	37.07
782.666	34.81
782.973	37.6
783.279	36.1
783.585	37.72
783.891	38.02
784.197	38.14
784.503	38.28
784.809	38.61
785.115	41.19
785.421	40.54
785.727	35.7
786.033	36.79
786.339	34.94
786.644	38.75
786.95	39.53
787.255	35.34
787.561	38.34
787.866	37.51
788.172	37.11
788.477	38.21
788.782	35.54
789.088	37.98
789.393	39.51
789.698	39.57
790.003	35.27
790.308	38.12
790.613	40.44
790.918	40.8
791.223	39.96
791.527	39.57
791.832	37.21
792.137	37.36
792.441	37
792.746	41.54
793.05	33.78
793.355	37.96
793.659	36.47
793.963	39.35
794.268	42.85
794.572	38.24
794.876	42.71
795.18	35.74
795.484	34.76
795.788	40.33
796.092	35.44
796.396	41.54
796.7	39.85
797.004	38.94
797.307	41.13
797.611	34.95
797.915	37.05
798.218	42.04
798.522	35.93
798.825	40.4
799.128	36.74
799.432	43.74
799.735	38.59
800.038	39.9
800.341	42.07
800.644	36.51
800.947	39.92
801.25	42.02
801.553	38.91
801.856	35.28
802.159	38.02
802.462	38.07
802.764	42.75
803.067	36.9
803.37	35.83
803.672	38.49
803.975	37.43
804.277	42.91
804.579	35.28
804.882	41.6
805.184	36.2
805.486	38.68
805.788	43.26
806.09	39.93
806.392	39.71
806.694	41.34
806.996	34.98
807.298	42.66
807.6	39.71
807.902	41.36
808.203	41.54
808.505	44.31
808.807	38.36
809.108	38.88
809.409	42.91
809.711	45.07
810.012	45.13
810.313	37.91
810.615	43.02
810.916	41.02
811.217	39.59
811.518	38.68
811.819	37.59
812.12	38.24
812.421	37.41
812.722	41.29
813.023	42.55
813.323	40.61
813.624	40.33
813.925	37.18
814.225	40.32
814.526	38.82
814.826	40.49
815.126	41.97
815.427	41.54
815.727	40.97
816.027	41.79
816.327	38.39
816.627	41.34
816.927	42.88
817.227	37.08
817.527	35.96
817.827	34.97
818.127	38.41
818.427	42.84
818.727	38.59
819.026	38.97
819.326	37.13
819.625	41.33
819.925	40.36
820.224	36.85
820.524	38.44
820.823	41.88
821.122	44.03
821.421	46.13
821.72	41.27
822.019	38.45
822.318	42.32
822.617	42.32
822.916	42.48
823.215	41.93
823.514	42.44
823.813	41.42
824.111	43.58
824.41	42
824.709	41.9
825.007	41.8
825.306	40.78
825.604	41.95
825.902	41.92
826.201	42.19
826.499	42.19
826.797	41.97
827.095	41.73
827.393	41.65
827.691	42.19
827.989	40.9
828.287	42.74
828.585	42.48
828.882	42.38
829.18	42.21
829.478	43.19
829.775	42.25
830.073	42.44
830.37	43.49
830.668	41.71
830.965	43.95
831.263	41.58
831.56	38.13
831.857	41.37
832.154	41.89
832.451	42.6
832.748	41.2
833.045	39.68
833.342	44.21
833.639	40.29
833.936	45.24
834.232	37.72
834.529	46.02
834.826	41.93
835.122	49.6
835.419	41.35
835.715	42.44
836.012	40.75
836.308	43.35
836.604	43.84
836.901	44.47
837.197	39.98
837.493	42.24
837.789	42.64
838.085	41.58
838.381	39.09
838.677	43.18
838.972	44.09
839.268	41.47
839.564	42.37
839.86	40.45
840.155	49.55
840.451	46.3
840.746	36.53
841.042	39.5
841.337	35.5
841.632	41.33
841.928	46.76
842.223	44.01
842.518	34.54
842.813	40.25
843.108	44.96
843.403	42.56
843.698	46.51
843.993	38.45
844.287	44.76
844.582	46.38
844.877	38.35
845.171	49.33
845.466	36.06
845.761	31.02
846.055	47.55
846.349	35.98
846.644	43.25
846.938	31.38
847.232	24.89
847.526	30.92
847.82	31.89
848.114	36.75
848.408	45.22
848.702	33.55
848.996	47
849.29	46.85
849.584	49.99
849.877	46.72
850.171	41.53
850.465	42.31
850.758	40.95
851.052	46.53
851.345	39.5
851.638	52.03
851.932	46.65
852.225	31.86
852.518	54.13
852.811	40.6
853.104	27.25
853.397	52.6
853.69	31.58
853.983	36.29
854.276	66.75
854.569	41.8
854.861	31.43
855.154	25.55
855.447	29.16
855.739	42.04
856.032	36.07
856.324	31.08
856.616	53.31
856.909	41.54
857.201	42.38
857.493	34.93
857.785	50.14
858.077	33.93
858.369	35.32
858.661	37.61
858.953	55.42
859.245	57.35
859.537	48.93
859.829	41.02
860.12	38.06
860.412	42.9
860.703	55.1
860.995	54.42
861.286	29.45
861.578	51.69
861.869	30.88
862.16	53.77
862.452	46.58
862.743	55.59
863.034	47.06
863.325	23.47
863.616	38.43
863.907	40.1
864.198	48.69
864.488	41.5
864.779	39.93
865.07	45.21
865.36	41.41
865.651	36.83
865.941	46.4
866.232	46.94
866.522	50.31
866.813	31.52
867.103	42.65
867.393	31.92
867.683	40.72
867.973	28.7
868.263	14.36
868.553	44.59
868.843	65.32
869.133	26.67
869.423	34.37
869.713	10.3
870.002	32.7
870.292	78.7
870.582	32.78
870.871	44.25
871.161	63.5
871.45	50.74
871.739	23.99
872.029	33.97
872.318	44.85
872.607	50.36
872.896	49.81
873.185	58.54
873.474	81.65
873.763	34.87
874.052	52.94
874.341	47.5
874.63	51.08
874.918	34.05
875.207	26.12
875.496	37.26
875.784	29.89
876.073	24.5
876.361	43.62
876.649	44.92
876.938	52.29
877.226	49.82
877.514	16.54
877.802	64.05
878.09	17.34
878.378	26.17
878.666	40.26
878.954	66.24
879.242	31.92
879.53	61.22
879.817	57.26
880.105	42.09
880.392	61.86
880.68	38.13
880.967	39.91
881.255	39.36
881.542	13.21
881.83	53.13
882.117	45.73
882.404	62.46
882.691	32.46
882.978	50.77
883.265	36.51
883.552	48.86
883.839	44.69
884.126	34.72
884.413	36.53
884.699	49.98
884.986	49.75
885.273	41.66
885.559	41.66
885.846	41.66
