Data from 0189_crown_Reflection__4__120.txt Node

Date: Fri Sep 22 21:14:55 CDT 2023
User: ToomeyLab
Spectrometer: FLMS14357
Trigger mode: 0
Integration Time (sec): 1.000000E-2
Scans to average: 100
Electric dark correction enabled: true
Nonlinearity correction enabled: false
Boxcar width: 0
XAxis mode: Wavelengths
Number of Pixels in Spectrum: 2048
>>>>>Begin Spectral Data<<<<<
189.047	-14.94
189.435	-14.94
189.823	-14.94
190.211	-38.46
190.599	163.31
190.987	-831.36
191.375	-62.76
191.763	111.42
192.151	329
192.538	530.01
192.926	135.17
193.314	-27.92
193.702	43.55
194.089	67.97
194.477	18.51
194.864	-53.41
195.252	-80.66
195.639	197.62
196.027	2758.45
196.414	1280.89
196.801	65.84
197.189	-59.27
197.576	92.23
197.963	15.01
198.351	1.69
198.738	19.52
199.125	-6.17
199.512	16.55
199.899	21.99
200.286	1.93
200.673	7.27
201.06	1.1
201.447	40.11
201.833	-22.71
202.22	25.35
202.607	6.67
202.994	39.75
203.38	14.31
203.767	4.43
204.154	36.89
204.54	-0.91
204.927	3.09
205.313	33.61
205.699	16.28
206.086	32.81
206.472	24.88
206.858	28.45
207.245	-36.54
207.631	11.24
208.017	12.43
208.403	-1.44
208.789	13.48
209.175	35.81
209.561	35.45
209.947	31.75
210.333	5.07
210.719	-0.9
211.105	25.07
211.491	18.21
211.876	35.26
212.262	33.14
212.648	40.32
213.034	28.12
213.419	44.44
213.805	24.6
214.19	4.62
214.576	30.82
214.961	14.62
215.346	12.29
215.732	-0.87
216.117	-1.46
216.502	46.18
216.888	15.15
217.273	10.02
217.658	17.93
218.043	32.04
218.428	28.29
218.813	-23.43
219.198	4.58
219.583	11
219.968	-4.43
220.353	19.31
220.738	0.81
221.122	5.85
221.507	7.97
221.892	-4.48
222.276	6.54
222.661	-6.62
223.046	24.54
223.43	11.62
223.815	20.16
224.199	-0.42
224.583	10.9
224.968	19.83
225.352	8.06
225.736	9.64
226.121	7.77
226.505	5.17
226.889	15.58
227.273	3.64
227.657	6.79
228.041	9.31
228.425	12.41
228.809	0.65
229.193	4.59
229.577	8.33
229.961	4.4
230.344	6.54
230.728	4.44
231.112	6.27
231.495	5.66
231.879	5.71
232.263	5
232.646	5.67
233.03	7.34
233.413	4.58
233.797	6.65
234.18	4.25
234.563	7.33
234.946	6.88
235.33	3.36
235.713	4.18
236.096	5.25
236.479	4.28
236.862	7.22
237.245	5.08
237.628	6.6
238.011	5.81
238.394	5.95
238.777	6.84
239.16	5.87
239.543	6.33
239.925	5.36
240.308	6.89
240.691	7.19
241.073	7.43
241.456	6.77
241.838	5.05
242.221	5.46
242.603	4.8
242.986	4.95
243.368	4.63
243.75	5.95
244.133	6.22
244.515	5.2
244.897	5.24
245.279	5.23
245.661	5.35
246.043	5.64
246.425	5.17
246.807	5.25
247.189	3.38
247.571	5.3
247.953	5.44
248.335	5.19
248.717	5.12
249.098	5.17
249.48	4.87
249.862	5.23
250.243	5.48
250.625	5.94
251.006	4.7
251.388	5.25
251.769	5.28
252.151	4.18
252.532	4.26
252.913	5.57
253.295	6.23
253.676	4.5
254.057	4.75
254.438	5.49
254.819	4.65
255.2	5.04
255.581	4.92
255.962	5.61
256.343	4.53
256.724	3.66
257.105	4.78
257.486	6.64
257.867	5.02
258.247	5.47
258.628	6.01
259.009	4.23
259.389	4.49
259.77	5.02
260.15	5.33
260.531	4.64
260.911	5
261.292	4.65
261.672	4.63
262.052	4.51
262.432	4.63
262.813	4.78
263.193	4.7
263.573	5.41
263.953	4.81
264.333	4.71
264.713	4.64
265.093	5.28
265.473	4.84
265.853	4.48
266.233	5.15
266.612	4.91
266.992	5.19
267.372	4.87
267.752	4.73
268.131	4.75
268.511	4.58
268.89	5.1
269.27	4.55
269.649	5.16
270.029	4.27
270.408	4.52
270.787	4.62
271.167	4.8
271.546	4.55
271.925	4.96
272.304	4.57
272.683	4.55
273.062	5.56
273.441	4.42
273.82	4.91
274.199	4.65
274.578	4.82
274.957	4.56
275.336	4.67
275.715	4.69
276.093	4.86
276.472	4.84
276.851	4.84
277.229	4.27
277.608	5.08
277.986	4.56
278.365	4.49
278.743	4.47
279.122	4.94
279.5	5.16
279.878	4.17
280.257	4.99
280.635	4.5
281.013	5.11
281.391	4.3
281.769	4.59
282.147	4.37
282.525	4.47
282.903	4.47
283.281	4.67
283.659	4.64
284.037	4.03
284.415	4.42
284.792	4.71
285.17	4.78
285.548	5.06
285.925	4.81
286.303	4.52
286.68	4.18
287.058	4.36
287.435	4.35
287.813	3.99
288.19	3.91
288.567	4.38
288.945	4.49
289.322	4.65
289.699	4.29
290.076	5.13
290.453	3.72
290.83	4.39
291.207	4.07
291.584	4.09
291.961	3.77
292.338	4.5
292.715	4.39
293.092	4.27
293.469	4.23
293.845	4.26
294.222	4.79
294.599	4.42
294.975	5.08
295.352	4.5
295.728	4.51
296.105	4.36
296.481	4.48
296.858	4.06
297.234	4.12
297.61	4.51
297.986	4.36
298.363	4.11
298.739	4.14
299.115	4.41
299.491	4.35
299.867	4.31
300.243	4.22
300.619	4.58
300.995	4.09
301.371	4.37
301.746	4.33
302.122	3.81
302.498	4.11
302.874	4.43
303.249	3.79
303.625	3.65
304	4.8
304.376	3.83
304.751	4.16
305.127	4
305.502	4.85
305.878	4.33
306.253	4.15
306.628	3.87
307.003	4.38
307.378	4.3
307.754	4.27
308.129	4
308.504	4.12
308.879	4.24
309.254	4.37
309.629	4.69
310.003	4.35
310.378	4.24
310.753	4.69
311.128	4.07
311.502	4.1
311.877	3.41
312.252	4.05
312.626	4.16
313.001	4.31
313.375	4.39
313.75	4.39
314.124	4.52
314.498	4.03
314.873	4.09
315.247	3.95
315.621	3.71
315.995	3.86
316.369	4.3
316.743	3.69
317.117	4.02
317.491	4.49
317.865	3.31
318.239	4.51
318.613	4.37
318.987	3.97
319.361	3.83
319.734	4.22
320.108	4.19
320.482	3.56
320.855	3.99
321.229	4.02
321.602	4.25
321.976	4.1
322.349	3.72
322.723	4.22
323.096	4.7
323.469	3.95
323.843	3.77
324.216	3.89
324.589	3.65
324.962	3.55
325.335	3.73
325.708	3.8
326.081	4.63
326.454	3.56
326.827	4.32
327.2	3.99
327.573	4.45
327.945	3.86
328.318	4.09
328.691	4.14
329.063	3.68
329.436	3.75
329.809	4.2
330.181	4.24
330.553	4.15
330.926	3.9
331.298	3.99
331.671	4.23
332.043	3.92
332.415	3.67
332.787	4.07
333.159	3.93
333.532	3.94
333.904	4.32
334.276	3.99
334.648	4.01
335.02	3.63
335.391	3.67
335.763	4.14
336.135	3.91
336.507	4.11
336.879	3.72
337.25	3.66
337.622	4.64
337.993	4.01
338.365	4.26
338.736	4.42
339.108	4.08
339.479	4.12
339.851	3.73
340.222	3.78
340.593	3.59
340.964	3.4
341.336	3.53
341.707	4.37
342.078	3.99
342.449	4.11
342.82	3.64
343.191	3.66
343.562	3.77
343.933	3.77
344.303	4.08
344.674	4.45
345.045	4.05
345.416	4.22
345.786	3.6
346.157	3.75
346.527	3.35
346.898	3.98
347.268	3.85
347.639	3.86
348.009	3.65
348.38	3.91
348.75	4.12
349.12	3.84
349.49	4.13
349.861	4.12
350.231	3.51
350.601	4.23
350.971	4.34
351.341	3.64
351.711	3.78
352.081	3.76
352.45	4.08
352.82	4.57
353.19	4.35
353.56	3.71
353.929	3.86
354.299	3.79
354.669	3.68
355.038	3.63
355.408	3.76
355.777	4.08
356.147	4.04
356.516	4.04
356.885	3.75
357.254	4.27
357.624	3.59
357.993	3.6
358.362	3.75
358.731	3.88
359.1	4.02
359.469	4.08
359.838	3.39
360.207	3.72
360.576	3.98
360.945	4.07
361.314	4.01
361.682	4.19
362.051	3.96
362.42	3.9
362.788	3.92
363.157	3.8
363.525	3.86
363.894	3.71
364.262	3.95
364.631	3.96
364.999	3.82
365.367	4.12
365.735	3.82
366.104	4
366.472	3.92
366.84	3.52
367.208	3.93
367.576	3.93
367.944	3.83
368.312	4.12
368.68	4
369.048	4.4
369.416	3.93
369.783	3.92
370.151	3.72
370.519	4.01
370.886	4.08
371.254	4.35
371.621	3.97
371.989	3.92
372.356	3.92
372.724	4.28
373.091	3.91
373.458	4.06
373.826	3.82
374.193	4.38
374.56	4.14
374.927	4.23
375.294	3.9
375.661	3.84
376.028	4.38
376.395	3.89
376.762	3.54
377.129	4.16
377.496	4.08
377.863	3.92
378.229	4.22
378.596	3.98
378.963	4.01
379.329	4.1
379.696	4.28
380.062	3.65
380.429	4.09
380.795	4
381.161	3.81
381.528	4.08
381.894	3.66
382.26	3.94
382.626	4
382.993	4.03
383.359	4.03
383.725	3.83
384.091	4.26
384.457	3.93
384.823	4.07
385.188	4.21
385.554	4.12
385.92	4.26
386.286	4.21
386.651	3.93
387.017	4.02
387.383	3.85
387.748	4.08
388.114	4.07
388.479	4.17
388.845	3.86
389.21	3.88
389.575	4.19
389.94	3.97
390.306	3.97
390.671	4.4
391.036	3.89
391.401	4.11
391.766	4.11
392.131	4.11
392.496	4.16
392.861	4.07
393.226	4.34
393.591	4.21
393.956	4.03
394.32	4.17
394.685	4.12
395.05	4.33
395.414	4.19
395.779	4.25
396.143	3.94
396.508	3.85
396.872	3.95
397.236	4.2
397.601	3.91
397.965	4.56
398.329	4.28
398.694	4.16
399.058	4.12
399.422	4.14
399.786	4.17
400.15	3.89
400.514	4.41
400.878	4.31
401.242	4.1
401.605	4.04
401.969	4.02
402.333	4.31
402.697	4.24
403.06	4.28
403.424	4.43
403.787	4.39
404.151	4.18
404.514	4.16
404.878	4.49
405.241	4.46
405.604	4.42
405.968	4.35
406.331	4.38
406.694	4.3
407.057	4.12
407.42	4.32
407.783	4.08
408.146	4.33
408.509	4.2
408.872	4.26
409.235	4.37
409.598	4.05
409.961	4.41
410.323	4.12
410.686	4.41
411.049	4.43
411.411	4.44
411.774	4.21
412.136	4.41
412.499	4.24
412.861	4.26
413.223	4.24
413.586	4.29
413.948	4.37
414.31	4.2
414.672	4.21
415.035	4.24
415.397	4.58
415.759	4.62
416.121	4.21
416.483	4.25
416.845	4.19
417.206	4.24
417.568	4.23
417.93	4.29
418.292	4.2
418.653	4.34
419.015	4.34
419.377	4.25
419.738	4.46
420.1	4.14
420.461	4.27
420.822	4.24
421.184	4.26
421.545	4.18
421.906	4.16
422.267	4.08
422.629	4.24
422.99	4.25
423.351	4.12
423.712	4.08
424.073	4.14
424.434	4.23
424.795	4.23
425.155	4.25
425.516	4.21
425.877	4.27
426.238	4.14
426.598	4.17
426.959	4.28
427.32	4.3
427.68	4.23
428.041	4.22
428.401	4.37
428.761	4.41
429.122	4.32
429.482	4.29
429.842	4.26
430.202	4.34
430.563	4.34
430.923	4.37
431.283	4.44
431.643	4.43
432.003	4.54
432.363	4.53
432.722	4.41
433.082	4.51
433.442	4.27
433.802	4.4
434.161	4.22
434.521	4.23
434.881	4.25
435.24	4.39
435.6	4.2
435.959	4.17
436.319	4.24
436.678	4.45
437.037	4.31
437.396	4.38
437.756	4.34
438.115	4.48
438.474	4.42
438.833	4.3
439.192	4.34
439.551	4.4
439.91	4.32
440.269	4.61
440.628	4.13
440.987	4.36
441.345	4.5
441.704	4.4
442.063	4.34
442.421	4.42
442.78	4.37
443.138	4.38
443.497	4.32
443.855	4.36
444.214	4.24
444.572	4.37
444.93	4.45
445.288	4.42
445.647	4.36
446.005	4.3
446.363	4.31
446.721	4.57
447.079	4.19
447.437	4.33
447.795	4.53
448.153	4.27
448.51	4.22
448.868	4.23
449.226	4.31
449.584	4.32
449.941	4.27
450.299	4.41
450.656	4.38
451.014	4.32
451.371	4.42
451.729	4.39
452.086	4.38
452.443	4.42
452.801	4.44
453.158	4.29
453.515	4.48
453.872	4.41
454.229	4.46
454.586	4.55
454.943	4.52
455.3	4.36
455.657	4.3
456.014	4.46
456.371	4.43
456.727	4.67
457.084	4.47
457.441	4.39
457.797	4.38
458.154	4.42
458.51	4.34
458.867	4.26
459.223	4.53
459.58	4.6
459.936	4.42
460.292	4.56
460.648	4.62
461.005	4.45
461.361	4.46
461.717	4.25
462.073	4.23
462.429	4.23
462.785	4.35
463.141	4.3
463.496	4.59
463.852	4.4
464.208	4.38
464.564	4.49
464.919	4.36
465.275	4.71
465.631	4.41
465.986	4.63
466.342	4.58
466.697	4.52
467.052	4.37
467.408	4.66
467.763	4.52
468.118	4.59
468.473	4.56
468.829	4.52
469.184	4.48
469.539	4.6
469.894	4.42
470.249	4.59
470.603	4.47
470.958	4.49
471.313	4.51
471.668	4.49
472.023	4.52
472.377	4.59
472.732	4.42
473.086	4.69
473.441	4.34
473.795	4.69
474.15	4.38
474.504	4.48
474.859	4.47
475.213	4.24
475.567	4.44
475.921	4.56
476.275	4.65
476.63	4.39
476.984	4.35
477.338	4.56
477.692	4.55
478.045	4.68
478.399	4.6
478.753	4.35
479.107	4.59
479.461	4.39
479.814	4.57
480.168	4.55
480.521	4.48
480.875	4.55
481.228	4.49
481.582	4.43
481.935	4.59
482.289	4.45
482.642	4.41
482.995	4.51
483.348	4.51
483.701	4.47
484.055	4.32
484.408	4.42
484.761	4.43
485.114	4.24
485.466	4.25
485.819	4.15
486.172	4.08
486.525	4.14
486.878	4.19
487.23	4.3
487.583	4.3
487.936	4.38
488.288	4.32
488.641	4.34
488.993	4.27
489.345	4.26
489.698	4.22
490.05	4.21
490.402	4.26
490.754	4.23
491.107	4.29
491.459	4.41
491.811	4.38
492.163	4.39
492.515	4.37
492.866	4.38
493.218	4.36
493.57	4.39
493.922	4.2
494.274	4.31
494.625	4.33
494.977	4.47
495.328	4.5
495.68	4.46
496.031	4.45
496.383	4.6
496.734	4.56
497.086	4.55
497.437	4.59
497.788	4.53
498.139	4.53
498.49	4.54
498.842	4.38
499.193	4.38
499.544	4.53
499.894	4.49
500.245	4.5
500.596	4.45
500.947	4.54
501.298	4.44
501.648	4.48
501.999	4.5
502.35	4.66
502.7	4.59
503.051	4.61
503.401	4.6
503.752	4.5
504.102	4.58
504.452	4.44
504.803	4.48
505.153	4.59
505.503	4.5
505.853	4.57
506.203	4.45
506.553	4.54
506.903	4.54
507.253	4.45
507.603	4.7
507.953	4.71
508.303	4.58
508.652	4.43
509.002	4.7
509.352	4.65
509.701	4.54
510.051	4.57
510.4	4.57
510.75	4.52
511.099	4.4
511.449	4.55
511.798	4.58
512.147	4.58
512.496	4.51
512.846	4.54
513.195	4.47
513.544	4.55
513.893	4.55
514.242	4.54
514.591	4.6
514.939	4.53
515.288	4.49
515.637	4.59
515.986	4.47
516.334	4.6
516.683	4.56
517.032	4.71
517.38	4.59
517.729	4.42
518.077	4.61
518.426	4.53
518.774	4.59
519.122	4.49
519.47	4.38
519.819	4.48
520.167	4.48
520.515	4.57
520.863	4.44
521.211	4.42
521.559	4.56
521.907	4.65
522.255	4.6
522.602	4.69
522.95	4.54
523.298	4.64
523.645	4.6
523.993	4.53
524.341	4.62
524.688	4.62
525.036	4.55
525.383	4.67
525.73	4.66
526.078	4.53
526.425	4.63
526.772	4.6
527.119	4.57
527.466	4.5
527.814	4.49
528.161	4.38
528.508	4.58
528.854	4.53
529.201	4.53
529.548	4.56
529.895	4.43
530.242	4.39
530.588	4.32
530.935	4.26
531.282	4.31
531.628	4.42
531.975	4.44
532.321	4.47
532.667	4.5
533.014	4.54
533.36	4.55
533.706	4.6
534.052	4.64
534.399	4.62
534.745	4.58
535.091	4.51
535.437	4.44
535.783	4.36
536.129	4.47
536.474	4.54
536.82	4.47
537.166	4.68
537.512	4.59
537.857	4.63
538.203	4.67
538.549	4.55
538.894	4.58
539.239	4.56
539.585	4.58
539.93	4.61
540.276	4.63
540.621	4.67
540.966	4.71
541.311	4.63
541.656	4.66
542.001	4.62
542.346	4.62
542.691	4.69
543.036	4.56
543.381	4.46
543.726	4.48
544.071	4.42
544.415	4.45
544.76	4.54
545.105	4.59
545.449	4.51
545.794	4.6
546.138	4.7
546.483	4.64
546.827	4.63
547.171	4.71
547.516	4.71
547.86	4.72
548.204	4.66
548.548	4.6
548.892	4.66
549.236	4.69
549.58	4.63
549.924	4.76
550.268	4.83
550.612	4.61
550.956	4.72
551.3	4.78
551.643	4.66
551.987	4.9
552.33	4.83
552.674	4.78
553.017	4.73
553.361	4.77
553.704	4.88
554.048	4.81
554.391	4.85
554.734	4.84
555.077	4.6
555.42	4.91
555.764	4.86
556.107	4.74
556.45	4.75
556.793	4.73
557.135	4.8
557.478	4.66
557.821	4.76
558.164	4.89
558.507	5.02
558.849	4.6
559.192	4.97
559.534	5.02
559.877	4.97
560.219	4.93
560.562	4.84
560.904	5.07
561.246	5
561.589	4.88
561.931	4.75
562.273	4.77
562.615	4.77
562.957	4.67
563.299	4.96
563.641	4.77
563.983	5.01
564.325	4.89
564.667	4.8
565.008	4.78
565.35	4.97
565.692	4.86
566.033	4.87
566.375	4.83
566.716	4.78
567.058	4.77
567.399	4.96
567.741	5.04
568.082	4.8
568.423	4.94
568.764	5.02
569.105	4.64
569.447	4.83
569.788	4.78
570.129	4.93
570.47	4.93
570.811	4.93
571.151	5
571.492	4.95
571.833	4.84
572.174	4.91
572.514	4.88
572.855	4.86
573.195	4.67
573.536	4.81
573.876	4.76
574.217	4.7
574.557	4.76
574.898	4.97
575.238	4.84
575.578	4.82
575.918	4.91
576.258	4.67
576.598	4.89
576.938	4.83
577.278	5.02
577.618	4.71
577.958	4.99
578.298	5
578.638	4.75
578.977	5.12
579.317	4.97
579.657	4.8
579.996	4.91
580.336	5.01
580.675	4.99
581.014	4.71
581.354	4.82
581.693	5.1
582.032	4.83
582.372	5.07
582.711	5.01
583.05	4.76
583.389	4.93
583.728	4.75
584.067	4.91
584.406	5.11
584.745	4.87
585.083	5.02
585.422	5.12
585.761	4.97
586.1	5
586.438	4.8
586.777	5.05
587.115	5.02
587.454	4.68
587.792	5.07
588.13	5.11
588.469	4.95
588.807	5
589.145	4.87
589.483	4.92
589.821	4.91
590.159	5
590.497	5.05
590.835	5.15
591.173	4.96
591.511	4.9
591.849	5.16
592.187	5.16
592.524	4.87
592.862	5.08
593.2	4.96
593.537	4.93
593.875	5.14
594.212	5.14
594.55	5.46
594.887	4.98
595.224	5.01
595.561	5.28
595.899	5.22
596.236	5.11
596.573	5.08
596.91	4.88
597.247	4.99
597.584	5.12
597.921	5.27
598.258	5.18
598.594	5.16
598.931	5.05
599.268	4.91
599.604	5.16
599.941	5.08
600.277	4.91
600.614	5.04
600.95	5.08
601.287	4.81
601.623	5
601.959	5.02
602.296	5.41
602.632	5.03
602.968	4.9
603.304	5.24
603.64	4.76
603.976	5
604.312	4.96
604.648	4.97
604.984	4.95
605.319	4.88
605.655	4.79
605.991	5.05
606.326	5.11
606.662	4.9
606.998	4.83
607.333	5.12
607.668	5.02
608.004	4.99
608.339	4.85
608.674	5.18
609.01	5.02
609.345	5
609.68	5.36
610.015	5.11
610.35	4.97
610.685	5.48
611.02	5.1
611.355	5.14
611.689	4.95
612.024	4.96
612.359	5.02
612.694	5.14
613.028	4.97
613.363	4.83
613.697	5.01
614.032	4.9
614.366	5.05
614.7	4.84
615.035	5.26
615.369	5.13
615.703	4.93
616.037	5.08
616.371	5.37
616.705	5.34
617.039	5.07
617.373	5.16
617.707	5.15
618.041	4.78
618.375	5.44
618.709	4.77
619.042	5.25
619.376	4.98
619.71	5.17
620.043	4.68
620.377	4.98
620.71	5.15
621.043	5.25
621.377	4.74
621.71	4.92
622.043	5.3
622.376	5.53
622.709	5.21
623.043	5.07
623.376	5.05
623.709	5.13
624.041	4.96
624.374	5.18
624.707	5.47
625.04	5.29
625.373	4.8
625.705	5.24
626.038	4.94
626.37	5.46
626.703	5.17
627.035	4.97
627.368	4.91
627.7	5.53
628.032	5.37
628.365	4.73
628.697	5.05
629.029	5.18
629.361	5.24
629.693	5.01
630.025	5.16
630.357	4.99
630.689	5.03
631.021	5.2
631.353	5.1
631.684	5.01
632.016	5.18
632.348	5.27
632.679	4.93
633.011	5.32
633.342	5.07
633.674	5.28
634.005	4.69
634.336	5.19
634.668	4.93
634.999	5.28
635.33	5.16
635.661	4.95
635.992	5.26
636.323	4.79
636.654	5.13
636.985	4.87
637.316	5.12
637.647	5.18
637.977	4.5
638.308	5.39
638.639	5.25
638.969	5.35
639.3	5.02
639.63	5.44
639.961	4.77
640.291	4.93
640.622	5.52
640.952	4.99
641.282	5.37
641.612	5.12
641.943	5.25
642.273	4.84
642.603	4.98
642.933	4.89
643.263	4.85
643.592	4.78
643.922	5.15
644.252	4.85
644.582	5.67
644.911	5.22
645.241	5.22
645.571	5.04
645.9	5.39
646.23	5.28
646.559	5.18
646.888	5.48
647.218	5.12
647.547	4.59
647.876	5
648.205	5.08
648.534	5.3
648.863	5.31
649.192	5.2
649.521	5.53
649.85	5.29
650.179	5.19
650.508	5.03
650.837	5.31
651.165	5.68
651.494	5.17
651.822	4.99
652.151	4.89
652.479	5.27
652.808	5
653.136	5.61
653.465	5.11
653.793	5.39
654.121	5.57
654.449	4.92
654.777	5.25
655.105	5.12
655.433	5.46
655.761	5.67
656.089	5.17
656.417	5.21
656.745	5.49
657.073	5.1
657.4	5.77
657.728	5.39
658.056	5.49
658.383	5.67
658.711	4.79
659.038	4.96
659.365	5.15
659.693	4.75
660.02	5.34
660.347	5.28
660.674	5.33
661.001	5.08
661.329	5.31
661.656	5.34
661.982	4.91
662.309	5.39
662.636	5.18
662.963	5.28
663.29	5.62
663.616	5.38
663.943	5.51
664.27	5.43
664.596	5.17
664.923	5.43
665.249	4.87
665.576	4.81
665.902	5.13
666.228	5
666.554	4.87
666.881	5.71
667.207	5.12
667.533	5.05
667.859	5.88
668.185	5.54
668.511	5.94
668.837	5.28
669.162	4.94
669.488	5.81
669.814	5.07
670.139	5.48
670.465	6.04
670.791	5.5
671.116	5.28
671.442	6.05
671.767	4.79
672.092	5.82
672.418	5.63
672.743	5.53
673.068	5.88
673.393	5.57
673.718	5.61
674.043	5.51
674.368	5.63
674.693	4.79
675.018	5.42
675.343	5.36
675.667	5.29
675.992	4.99
676.317	5.28
676.641	5.43
676.966	5.65
677.29	5.68
677.615	4.98
677.939	5.14
678.264	5.92
678.588	5.47
678.912	5.99
679.236	5.59
679.56	5.6
679.885	5.17
680.209	6.17
680.532	5.23
680.856	5.24
681.18	5.55
681.504	5.48
681.828	5.15
682.152	5.48
682.475	5.88
682.799	6.18
683.122	5.66
683.446	5.53
683.769	5.49
684.093	5.92
684.416	6.04
684.739	5.52
685.062	5.86
685.386	5.43
685.709	5.31
686.032	5.47
686.355	5.79
686.678	5.78
687.001	5.35
687.324	5.97
687.646	6.19
687.969	5.46
688.292	5.53
688.614	6.18
688.937	5.15
689.26	5.27
689.582	5.64
689.904	4.88
690.227	5.91
690.549	6.04
690.871	5.62
691.194	5.56
691.516	5.58
691.838	5.89
692.16	5.33
692.482	5.86
692.804	5.01
693.126	4.92
693.448	6.71
693.769	5.5
694.091	6.34
694.413	5.56
694.735	5.93
695.056	5.68
695.378	5.96
695.699	6.49
696.021	5.42
696.342	6.32
696.663	5.51
696.984	5.3
697.306	5.35
697.627	5.35
697.948	5.89
698.269	5.54
698.59	5.04
698.911	5.64
699.232	4.96
699.553	5.3
699.873	6.36
700.194	5.73
700.515	4.84
700.835	5.82
701.156	5.68
701.477	5.75
701.797	5.33
702.117	6
702.438	5.64
702.758	5.18
703.078	5.83
703.398	5.57
703.719	5.12
704.039	5.87
704.359	5.09
704.679	4.64
704.999	6.72
705.319	5.56
705.638	5.62
705.958	6.31
706.278	6.99
706.597	5.43
706.917	5.53
707.237	5.9
707.556	5.07
707.876	5.67
708.195	6.33
708.514	5.95
708.834	5.61
709.153	6.83
709.472	6.34
709.791	5.25
710.11	6.64
710.429	6.83
710.748	5.45
711.067	4.9
711.386	6.71
711.705	6.37
712.023	6.18
712.342	5.65
712.661	6.4
712.979	6.55
713.298	7.13
713.616	5.73
713.935	6.34
714.253	6.74
714.572	7.1
714.89	5.98
715.208	6.23
715.526	5.32
715.844	6.5
716.162	5.13
716.48	6.16
716.798	6.15
717.116	6.05
717.434	6.72
717.752	6.86
718.069	5.87
718.387	6.15
718.705	6.06
719.022	5.59
719.34	7.05
719.657	5.76
719.975	6.18
720.292	6.43
720.609	7.29
720.927	6.25
721.244	6.91
721.561	7.02
721.878	5.99
722.195	5.81
722.512	6.58
722.829	7.19
723.146	6.77
723.463	4.69
723.779	5.72
724.096	5.35
724.413	6.07
724.729	6.77
725.046	6.15
725.362	6.68
725.679	5.69
725.995	6.68
726.311	4.78
726.628	5.85
726.944	5.69
727.26	5.51
727.576	6.18
727.892	4.37
728.208	6.41
728.524	7.09
728.84	5.64
729.156	6.8
729.472	7.81
729.787	4.99
730.103	5.62
730.419	6.96
730.734	5.15
731.05	6.18
731.365	5.95
731.681	6.04
731.996	7.21
732.311	7.6
732.626	6.28
732.942	5.29
733.257	5.24
733.572	5.82
733.887	6.5
734.202	7.35
734.517	7.62
734.832	6.11
735.146	7.22
735.461	5.94
735.776	6.11
736.091	6.28
736.405	5.31
736.72	5.85
737.034	5.86
737.349	6.17
737.663	6.07
737.977	7.44
738.292	4.65
738.606	6.39
738.92	6.25
739.234	5.7
739.548	7.91
739.862	5.54
740.176	7.16
740.49	5.27
740.804	6.19
741.117	6.58
741.431	7.07
741.745	6.53
742.058	6.77
742.372	5.21
742.685	8.4
742.999	8.06
743.312	7.04
743.626	6.01
743.939	4.76
744.252	6.06
744.565	5.05
744.878	6.47
745.191	9
745.505	6.11
745.817	7.06
746.13	7.57
746.443	8.46
746.756	6.89
747.069	8.5
747.381	4.48
747.694	6.53
748.007	8.37
748.319	7.26
748.632	7.91
748.944	6.93
749.256	7.63
749.569	5.7
749.881	7.89
750.193	7.29
750.505	9.02
750.817	8.66
751.129	9.22
751.441	8.86
751.753	7.44
752.065	9.27
752.377	7.79
752.689	6.62
753	7.33
753.312	6.87
753.624	6.5
753.935	8.38
754.247	6.48
754.558	9.22
754.869	6.45
755.181	6.13
755.492	5.49
755.803	9.19
756.114	8.37
756.425	8.43
756.736	5.86
757.047	7.24
757.358	7.01
757.669	5.74
757.98	8.27
758.291	6.53
758.601	6.75
758.912	6.87
759.223	10.21
759.533	5.69
759.844	8.32
760.154	7.77
760.464	5.7
760.775	7.69
761.085	6.94
761.395	6.69
761.705	6.86
762.016	7.04
762.326	6.95
762.636	7.72
762.945	6.74
763.255	5.25
763.565	5.56
763.875	6.56
764.185	8.48
764.494	7.62
764.804	6.3
765.113	5.98
765.423	7.36
765.732	7.12
766.042	7.89
766.351	6.72
766.66	8.04
766.97	6.44
767.279	7.8
767.588	6.11
767.897	7.13
768.206	6.97
768.515	7.55
768.824	7.9
769.133	7.72
769.441	6.83
769.75	9.34
770.059	10.83
770.367	5.82
770.676	10.62
770.984	6.59
771.293	6.36
771.601	7.86
771.91	8.32
772.218	6.82
772.526	9.8
772.834	5.2
773.142	8.83
773.45	9.79
773.758	6.43
774.066	9.38
774.374	7.01
774.682	6.19
774.99	8.12
775.298	8.01
775.605	8.1
775.913	12.33
776.22	9.75
776.528	5.64
776.835	7.79
777.143	6.8
777.45	8.75
777.757	7.9
778.065	7.15
778.372	6.76
778.679	7.51
778.986	8.28
779.293	6.81
779.6	6.68
779.907	6.68
780.214	15.46
780.52	6.22
780.827	10.49
781.134	10.44
781.44	8.36
781.747	7.83
782.053	8.84
782.36	5.95
782.666	6.35
782.973	9.51
783.279	8.1
783.585	11.6
783.891	7.86
784.197	7.05
784.503	3.26
784.809	10.34
785.115	7.87
785.421	10.57
785.727	7.33
786.033	10.75
786.339	10.62
786.644	11.15
786.95	7.54
787.255	9.82
787.561	11.08
787.866	4.23
788.172	8.76
788.477	8.01
788.782	9.3
789.088	12.65
789.393	5.48
789.698	11.34
790.003	12.16
790.308	2.29
790.613	7.66
790.918	5.53
791.223	5.38
791.527	4.01
791.832	7.97
792.137	9.2
792.441	13.99
792.746	6.07
793.05	9.75
793.355	9.27
793.659	12.42
793.963	11.44
794.268	8.08
794.572	7.8
794.876	9.62
795.18	6.99
795.484	7.04
795.788	6.05
796.092	8.32
796.396	8.55
796.7	11.07
797.004	7.08
797.307	2.38
797.611	3.89
797.915	8.99
798.218	10.2
798.522	11.06
798.825	11.16
799.128	12.6
799.432	10.55
799.735	12.12
800.038	10.39
800.341	10.4
800.644	11.35
800.947	9.46
801.25	8.67
801.553	12.53
801.856	14.14
802.159	9.23
802.462	3.44
802.764	7.24
803.067	7.59
803.37	12.43
803.672	8.07
803.975	7.74
804.277	16.64
804.579	11.47
804.882	11.79
805.184	10.64
805.486	9.14
805.788	14.17
806.09	13.32
806.392	7.9
806.694	12.81
806.996	11.41
807.298	8.7
807.6	15.95
807.902	8.56
808.203	2.97
808.505	10.12
808.807	12.11
809.108	15.26
809.409	10.13
809.711	12.31
810.012	11.89
810.313	10.44
810.615	11.88
810.916	8.48
811.217	11.76
811.518	11.08
811.819	13.36
812.12	9.98
812.421	11.27
812.722	12.88
813.023	8.37
813.323	8.07
813.624	10.69
813.925	14.15
814.225	14.38
814.526	14.86
814.826	10.98
815.126	15.29
815.427	11.39
815.727	12.84
816.027	0.48
816.327	8.75
816.627	7.92
816.927	19.21
817.227	12.06
817.527	7.5
817.827	3.65
818.127	4.42
818.427	16.09
818.727	12.04
819.026	17.21
819.326	9.04
819.625	4.52
819.925	12.94
820.224	9.66
820.524	7.44
820.823	9.11
821.122	2
821.421	11.28
821.72	12.18
822.019	9.07
822.318	8.42
822.617	11.55
822.916	10.32
823.215	11.8
823.514	9.04
823.813	14
824.111	13.78
824.41	8.56
824.709	9.24
825.007	9.08
825.306	8.83
825.604	9.06
825.902	9.28
826.201	9.72
826.499	8.97
826.797	8.99
827.095	10.31
827.393	9.25
827.691	8.26
827.989	8.15
828.287	8.79
828.585	8.99
828.882	9.77
829.18	9.78
829.478	8.31
829.775	9.5
830.073	9.18
830.37	8.54
830.668	8.6
830.965	10.63
831.263	9.12
831.56	9.33
831.857	9.92
832.154	10.52
832.451	7.56
832.748	9.73
833.045	13.86
833.342	10.42
833.639	15.33
833.936	15.09
834.232	12.17
834.529	14.87
834.826	8.68
835.122	10.29
835.419	12.43
835.715	10.85
836.012	10.95
836.308	19.08
836.604	14.73
836.901	6.72
837.197	12.17
837.493	12.07
837.789	8.02
838.085	7.59
838.381	5.49
838.677	10
838.972	9.91
839.268	11.25
839.564	13.22
839.86	10.44
840.155	9.78
840.451	11.97
840.746	10.26
841.042	8.58
841.337	20.09
841.632	16.29
841.928	13.18
842.223	18.94
842.518	10.84
842.813	19.52
843.108	16.69
843.403	8.34
843.698	16.21
843.993	10.58
844.287	12.7
844.582	13.8
844.877	14.35
845.171	20.48
845.466	6.24
845.761	9.47
846.055	12.61
846.349	7.12
846.644	23.15
846.938	23
847.232	7.7
847.526	18.02
847.82	11.35
848.114	21.36
848.408	8.79
848.702	14.06
848.996	12.01
849.29	11.82
849.584	26.94
849.877	11.66
850.171	-2.55
850.465	15.99
850.758	23.54
851.052	5.93
851.345	20.47
851.638	19.61
851.932	28.7
852.225	31.96
852.518	17.88
852.811	20.29
853.104	22.76
853.397	15.88
853.69	13.57
853.983	6.09
854.276	18.91
854.569	15.38
854.861	11.34
855.154	4.63
855.447	10.01
855.739	14.34
856.032	17.69
856.324	27.08
856.616	14.57
856.909	0.07
857.201	19.74
857.493	23.36
857.785	35.33
858.077	28.84
858.369	22.73
858.661	27.65
858.953	7.85
859.245	27.74
859.537	6.78
859.829	25.05
860.12	22.63
860.412	26.38
860.703	2.43
860.995	-9.59
861.286	32.9
861.578	22.98
861.869	2.73
862.16	0.4
862.452	-12.08
862.743	39.95
863.034	24.45
863.325	19.21
863.616	12.55
863.907	-2.61
864.198	6.68
864.488	7.48
864.779	-21.83
865.07	-1.51
865.36	-13.45
865.651	29.65
865.941	-8
866.232	17.51
866.522	20.52
866.813	7.76
867.103	15.33
867.393	12.42
867.683	17.37
867.973	15.13
868.263	9.91
868.553	10.73
868.843	32.01
869.133	20.57
869.423	18.5
869.713	18.28
870.002	26.31
870.292	10.91
870.582	11.76
870.871	6.77
871.161	-4.6
871.45	7.95
871.739	13.73
872.029	13.31
872.318	12.74
872.607	8.76
872.896	1.92
873.185	27.28
873.474	36.67
873.763	22.68
874.052	18.75
874.341	23.62
874.63	27.27
874.918	19
875.207	24.09
875.496	16.32
875.784	9.2
876.073	14.82
876.361	6.61
876.649	13
876.938	53.34
877.226	22.47
877.514	37.82
877.802	16.98
878.09	31.93
878.378	26.02
878.666	12.47
878.954	26.44
879.242	12.67
879.53	23.36
879.817	8.41
880.105	-22.88
880.392	6.87
880.68	17.82
880.967	38.89
881.255	33.26
881.542	10.25
881.83	13.26
882.117	-12.29
882.404	15.86
882.691	-4.11
882.978	2.05
883.265	-3.53
883.552	31.22
883.839	-5.49
884.126	27.91
884.413	7.77
884.699	13.57
884.986	16.01
885.273	9.07
885.559	9.07
885.846	9.07
