Data from 22-3_chest_Reflection__0__181.txt Node

Date: Thu Dec 15 17:55:19 CST 2022
User: ToomeyLab
Spectrometer: FLMS14357
Trigger mode: 0
Integration Time (sec): 1.000000E-2
Scans to average: 100
Electric dark correction enabled: true
Nonlinearity correction enabled: false
Boxcar width: 0
XAxis mode: Wavelengths
Number of Pixels in Spectrum: 2048
>>>>>Begin Spectral Data<<<<<
189.047	93.96
189.435	93.96
189.823	93.96
190.211	118.44
190.599	51.04
190.987	9.91
191.375	88.98
191.763	37.6
192.151	-80.78
192.538	73.33
192.926	10.79
193.314	-107.41
193.702	-11.09
194.089	-49.08
194.477	177.11
194.864	46.69
195.252	-57.98
195.639	82.53
196.027	99.91
196.414	101.52
196.801	-61.38
197.189	115.7
197.576	143.41
197.963	-1903.38
198.351	11.59
198.738	-50.69
199.125	-48.78
199.512	54.3
199.899	-2.28
200.286	-26.99
200.673	21.46
201.06	-4.12
201.447	19.45
201.833	15.15
202.22	12.08
202.607	-14.39
202.994	29.63
203.38	2.21
203.767	-13.54
204.154	0.99
204.54	25.42
204.927	41.8
205.313	26.55
205.699	20.24
206.086	20.23
206.472	53.46
206.858	6.66
207.245	-13.93
207.631	11.32
208.017	34.47
208.403	-34.4
208.789	9.55
209.175	-9.32
209.561	-108.74
209.947	-17.86
210.333	-11.47
210.719	22.22
211.105	11.51
211.491	17.7
211.876	-19.8
212.262	25.69
212.648	25.13
213.034	-15.6
213.419	-12.62
213.805	-32.3
214.19	-3.45
214.576	-20.94
214.961	-3.36
215.346	-20.19
215.732	-17.96
216.117	9.51
216.502	-12.99
216.888	-6.83
217.273	8.79
217.658	-19.88
218.043	-25.87
218.428	-26.12
218.813	8.87
219.198	-18.34
219.583	1.62
219.968	0.7
220.353	-16.08
220.738	11.47
221.122	-26.79
221.507	-11.77
221.892	-15.11
222.276	-33.53
222.661	-7.12
223.046	-0.72
223.43	7.53
223.815	0.24
224.199	0.48
224.583	-6.01
224.968	-4.38
225.352	-7.51
225.736	7.05
226.121	-9.29
226.505	-1.66
226.889	-1.96
227.273	-2.96
227.657	2.37
228.041	1.22
228.425	-1.75
228.809	-1.6
229.193	3.31
229.577	2.45
229.961	2.25
230.344	2.12
230.728	2.16
231.112	2.4
231.495	0.7
231.879	1.44
232.263	2.17
232.646	2.81
233.03	3.12
233.413	2.18
233.797	0.03
234.18	2.2
234.563	1.57
234.946	0.84
235.33	3.4
235.713	2.36
236.096	2.97
236.479	2.06
236.862	-0.84
237.245	1.87
237.628	1.74
238.011	2.27
238.394	1.56
238.777	1.83
239.16	2.68
239.543	2.62
239.925	1.29
240.308	0.05
240.691	1.93
241.073	1.86
241.456	2.47
241.838	2.14
242.221	2.1
242.603	2.24
242.986	2.33
243.368	2.37
243.75	2.56
244.133	2.99
244.515	2.42
244.897	2.23
245.279	2.45
245.661	2.84
246.043	3.34
246.425	2.56
246.807	2.75
247.189	2.56
247.571	2.48
247.953	2.71
248.335	2.69
248.717	2.69
249.098	3.07
249.48	2.65
249.862	2.69
250.243	2.74
250.625	2.81
251.006	3.19
251.388	2.77
251.769	2.06
252.151	3.15
252.532	2.45
252.913	2.08
253.295	2.54
253.676	3.02
254.057	2.78
254.438	2.91
254.819	2.76
255.2	2.08
255.581	3.81
255.962	3.1
256.343	1.63
256.724	3.78
257.105	2.88
257.486	1.91
257.867	2.33
258.247	3.01
258.628	2.18
259.009	2.69
259.389	2.66
259.77	2.8
260.15	3.4
260.531	2.89
260.911	2.94
261.292	2.77
261.672	2.95
262.052	3.04
262.432	2.64
262.813	2.79
263.193	2.71
263.573	2.61
263.953	2.56
264.333	2.94
264.713	3.08
265.093	2.16
265.473	2.37
265.853	3
266.233	2.49
266.612	2.19
266.992	2.9
267.372	3.29
267.752	2.59
268.131	2.84
268.511	2.52
268.89	2.79
269.27	2.26
269.649	2.08
270.029	2.38
270.408	2.44
270.787	2.6
271.167	2.95
271.546	3.05
271.925	2.72
272.304	2.41
272.683	2.29
273.062	2.37
273.441	2.61
273.82	2.96
274.199	2.5
274.578	2.58
274.957	2.48
275.336	2.58
275.715	2.85
276.093	2.84
276.472	3
276.851	2.68
277.229	2.74
277.608	2.33
277.986	2.53
278.365	2.76
278.743	2.17
279.122	2.56
279.5	2.57
279.878	2.16
280.257	2.83
280.635	2.74
281.013	2.27
281.391	2.08
281.769	2.95
282.147	2.46
282.525	2.59
282.903	2.24
283.281	2.95
283.659	3.25
284.037	2.15
284.415	2.52
284.792	2.82
285.17	2.79
285.548	2.3
285.925	2.65
286.303	2.96
286.68	2.72
287.058	2.66
287.435	2.44
287.813	2.84
288.19	2.58
288.567	2.84
288.945	2.49
289.322	2.65
289.699	2.7
290.076	2.44
290.453	2.41
290.83	3.18
291.207	2.65
291.584	2.8
291.961	2.85
292.338	2.96
292.715	2.86
293.092	3.37
293.469	2.66
293.845	3.1
294.222	3.43
294.599	2.28
294.975	2.48
295.352	3.37
295.728	3.13
296.105	3.05
296.481	3.6
296.858	3.21
297.234	3.04
297.61	3.28
297.986	3.57
298.363	3.44
298.739	3.5
299.115	3.3
299.491	3.58
299.867	3.3
300.243	3.4
300.619	3.07
300.995	3.87
301.371	3.5
301.746	3.61
302.122	3.4
302.498	3.35
302.874	3.91
303.249	3.47
303.625	3.82
304	3.86
304.376	4.28
304.751	4.26
305.127	3.54
305.502	3.99
305.878	3.65
306.253	3.57
306.628	3.88
307.003	4.45
307.378	3.86
307.754	3.86
308.129	3.85
308.504	3.95
308.879	3.87
309.254	4.49
309.629	4.2
310.003	3.98
310.378	4.28
310.753	4.18
311.128	3.88
311.502	4.44
311.877	4.09
312.252	4.36
312.626	4.22
313.001	4.61
313.375	4.67
313.75	4.61
314.124	4.65
314.498	4.49
314.873	4.24
315.247	4.49
315.621	4.5
315.995	4.3
316.369	4.18
316.743	4.57
317.117	4.4
317.491	4.84
317.865	4.04
318.239	5.17
318.613	4.32
318.987	4.18
319.361	4.71
319.734	4.9
320.108	5.32
320.482	4.22
320.855	4.66
321.229	4.79
321.602	5.22
321.976	4.27
322.349	4.91
322.723	5.46
323.096	4.95
323.469	4.89
323.843	4.88
324.216	4.62
324.589	4.7
324.962	4.88
325.335	4.58
325.708	5.19
326.081	5.07
326.454	4.86
326.827	4.75
327.2	4.6
327.573	5.35
327.945	4.8
328.318	5.01
328.691	5
329.063	4.79
329.436	5.02
329.809	5.42
330.181	5.7
330.553	5.43
330.926	4.93
331.298	5.19
331.671	5.29
332.043	5.09
332.415	5.36
332.787	5.45
333.159	5.06
333.532	5.31
333.904	5.3
334.276	5.12
334.648	5.22
335.02	5.21
335.391	5.23
335.763	5.26
336.135	5.41
336.507	5.11
336.879	5.03
337.25	5.01
337.622	5.52
337.993	5.27
338.365	5.18
338.736	5.23
339.108	5.58
339.479	5.2
339.851	5.62
340.222	5.89
340.593	4.97
340.964	5.52
341.336	5.14
341.707	5.02
342.078	5.05
342.449	5.2
342.82	5.15
343.191	5.25
343.562	5.21
343.933	4.88
344.303	5.42
344.674	5.41
345.045	5.59
345.416	5.64
345.786	5.11
346.157	5.21
346.527	5.63
346.898	5.28
347.268	5.4
347.639	4.94
348.009	5.4
348.38	5.29
348.75	5.56
349.12	5.66
349.49	5.64
349.861	5.45
350.231	5.57
350.601	5.49
350.971	5.18
351.341	5.72
351.711	5.88
352.081	5.44
352.45	5.16
352.82	5.02
353.19	5.64
353.56	5.56
353.929	5.71
354.299	5.64
354.669	5.96
355.038	5.85
355.408	5.91
355.777	5.79
356.147	5.42
356.516	5.28
356.885	5.39
357.254	5.67
357.624	5.09
357.993	5.52
358.362	5.88
358.731	5.88
359.1	5.82
359.469	5.53
359.838	5.75
360.207	5.62
360.576	5.63
360.945	5.57
361.314	5.51
361.682	5.52
362.051	5.51
362.42	5.66
362.788	5.85
363.157	5.58
363.525	5.87
363.894	5.54
364.262	5.62
364.631	5.75
364.999	5.75
365.367	5.44
365.735	5.73
366.104	5.5
366.472	5.6
366.84	5.71
367.208	6.24
367.576	5.55
367.944	5.86
368.312	5.47
368.68	5.68
369.048	5.89
369.416	5.74
369.783	5.94
370.151	6.17
370.519	6.39
370.886	6.04
371.254	5.94
371.621	5.94
371.989	5.93
372.356	5.72
372.724	5.88
373.091	5.97
373.458	5.84
373.826	5.93
374.193	5.94
374.56	5.94
374.927	5.74
375.294	6.4
375.661	6.38
376.028	5.61
376.395	5.97
376.762	5.49
377.129	5.84
377.496	5.87
377.863	6.13
378.229	6.13
378.596	5.93
378.963	6.27
379.329	6.06
379.696	5.94
380.062	5.91
380.429	5.79
380.795	6.04
381.161	5.69
381.528	5.79
381.894	6.23
382.26	6.14
382.626	5.96
382.993	6.41
383.359	6.24
383.725	5.57
384.091	6.02
384.457	5.92
384.823	5.91
385.188	6.19
385.554	6.08
385.92	6.1
386.286	6.2
386.651	5.99
387.017	6.43
387.383	5.78
387.748	6.25
388.114	6.36
388.479	5.9
388.845	5.86
389.21	6.26
389.575	6.59
389.94	6.33
390.306	6.02
390.671	6.41
391.036	6.07
391.401	6.08
391.766	5.89
392.131	6.18
392.496	6.15
392.861	6.33
393.226	6.26
393.591	6.3
393.956	6.23
394.32	6.41
394.685	6.27
395.05	6.31
395.414	6.18
395.779	6.41
396.143	5.99
396.508	6.13
396.872	6.19
397.236	6.39
397.601	6.55
397.965	6.24
398.329	6.35
398.694	6.2
399.058	6.36
399.422	6.26
399.786	6.09
400.15	6.28
400.514	6.31
400.878	6.25
401.242	6.48
401.605	6.37
401.969	6.15
402.333	6.28
402.697	6.47
403.06	6.36
403.424	6.54
403.787	6.28
404.151	6.35
404.514	6.46
404.878	6.2
405.241	6.26
405.604	6.31
405.968	6.28
406.331	6.44
406.694	6.36
407.057	6.24
407.42	6.25
407.783	6.32
408.146	6.42
408.509	6.5
408.872	6.45
409.235	6.62
409.598	6.42
409.961	6.48
410.323	6.47
410.686	6.58
411.049	6.56
411.411	6.36
411.774	6.61
412.136	6.7
412.499	6.5
412.861	6.13
413.223	6.32
413.586	6.74
413.948	6.47
414.31	6.6
414.672	6.36
415.035	6.6
415.397	6.61
415.759	6.27
416.121	6.62
416.483	6.47
416.845	6.55
417.206	6.64
417.568	6.36
417.93	6.6
418.292	6.36
418.653	6.32
419.015	6.42
419.377	6.37
419.738	6.48
420.1	6.31
420.461	6.35
420.822	6.53
421.184	6.43
421.545	6.41
421.906	6.48
422.267	6.26
422.629	6.33
422.99	6.4
423.351	6.36
423.712	6.51
424.073	6.52
424.434	6.58
424.795	6.37
425.155	6.49
425.516	6.43
425.877	6.46
426.238	6.43
426.598	6.53
426.959	6.61
427.32	6.49
427.68	6.45
428.041	6.78
428.401	6.54
428.761	6.63
429.122	6.71
429.482	6.69
429.842	6.37
430.202	6.85
430.563	6.5
430.923	6.62
431.283	6.71
431.643	6.99
432.003	6.62
432.363	6.75
432.722	6.68
433.082	6.7
433.442	6.98
433.802	6.61
434.161	6.67
434.521	6.76
434.881	6.54
435.24	6.78
435.6	6.76
435.959	6.79
436.319	6.76
436.678	6.8
437.037	6.83
437.396	6.87
437.756	6.68
438.115	6.79
438.474	6.87
438.833	6.73
439.192	6.74
439.551	6.76
439.91	6.98
440.269	6.8
440.628	6.84
440.987	6.72
441.345	6.8
441.704	6.8
442.063	6.76
442.421	6.74
442.78	6.86
443.138	6.76
443.497	6.81
443.855	6.84
444.214	6.7
444.572	6.98
444.93	6.89
445.288	6.83
445.647	6.79
446.005	7.02
446.363	6.71
446.721	6.79
447.079	6.84
447.437	6.87
447.795	6.9
448.153	6.88
448.51	6.88
448.868	6.77
449.226	6.89
449.584	6.83
449.941	6.88
450.299	6.92
450.656	6.98
451.014	6.94
451.371	7.07
451.729	7.11
452.086	6.99
452.443	7.03
452.801	7.11
453.158	7.05
453.515	6.94
453.872	7.01
454.229	6.83
454.586	7.02
454.943	7
455.3	7.04
455.657	7.02
456.014	7.06
456.371	7.07
456.727	7.12
457.084	7.24
457.441	7.06
457.797	7.11
458.154	7.17
458.51	7.1
458.867	7.19
459.223	7.09
459.58	7.09
459.936	7.05
460.292	7.17
460.648	6.94
461.005	6.96
461.361	6.96
461.717	6.93
462.073	7.08
462.429	7.11
462.785	7.2
463.141	7.24
463.496	7.27
463.852	7.17
464.208	7.34
464.564	7.13
464.919	7.28
465.275	7.14
465.631	7.4
465.986	7.27
466.342	7.14
466.697	7.25
467.052	7.51
467.408	7.44
467.763	7.16
468.118	7.12
468.473	7.31
468.829	7.12
469.184	7.35
469.539	7.14
469.894	7.4
470.249	7.2
470.603	7.45
470.958	7.31
471.313	7.46
471.668	7.33
472.023	7.37
472.377	7.39
472.732	7.35
473.086	7.39
473.441	7.36
473.795	7.54
474.15	7.37
474.504	7.34
474.859	7.17
475.213	7.41
475.567	7.34
475.921	7.54
476.275	7.51
476.63	7.45
476.984	7.34
477.338	7.53
477.692	7.51
478.045	7.39
478.399	7.42
478.753	7.44
479.107	7.49
479.461	7.38
479.814	7.53
480.168	7.43
480.521	7.46
480.875	7.47
481.228	7.46
481.582	7.55
481.935	7.6
482.289	7.4
482.642	7.64
482.995	7.56
483.348	7.48
483.701	7.46
484.055	7.36
484.408	7.31
484.761	7.25
485.114	7.12
485.466	7.07
485.819	7.12
486.172	7.17
486.525	7.23
486.878	7.34
487.23	7.35
487.583	7.39
487.936	7.45
488.288	7.37
488.641	7.26
488.993	7.23
489.345	7.31
489.698	7.3
490.05	7.38
490.402	7.44
490.754	7.43
491.107	7.57
491.459	7.57
491.811	7.53
492.163	7.57
492.515	7.43
492.866	7.33
493.218	7.33
493.57	7.49
493.922	7.52
494.274	7.59
494.625	7.74
494.977	7.65
495.328	7.8
495.68	7.74
496.031	7.81
496.383	7.78
496.734	7.83
497.086	7.95
497.437	7.81
497.788	7.84
498.139	7.85
498.49	7.83
498.842	7.91
499.193	7.8
499.544	7.83
499.894	7.69
500.245	7.94
500.596	7.94
500.947	7.82
501.298	7.83
501.648	7.91
501.999	8.1
502.35	7.78
502.7	8.06
503.051	7.86
503.401	8
503.752	7.84
504.102	7.88
504.452	7.98
504.803	7.88
505.153	8.04
505.503	7.99
505.853	8.07
506.203	8.15
506.553	7.95
506.903	7.92
507.253	8.03
507.603	8.06
507.953	8.15
508.303	8.14
508.652	8.02
509.002	8.09
509.352	8.05
509.701	8
510.051	8.12
510.4	8.1
510.75	8.06
511.099	7.97
511.449	8.24
511.798	8.12
512.147	8.13
512.496	8.17
512.846	8.12
513.195	8.11
513.544	8.25
513.893	8.05
514.242	8.27
514.591	8.15
514.939	8.21
515.288	8.31
515.637	8.27
515.986	8.3
516.334	8.39
516.683	8.33
517.032	8.28
517.38	8.29
517.729	8.34
518.077	8.3
518.426	8.46
518.774	8.32
519.122	8.48
519.47	8.36
519.819	8.27
520.167	8.25
520.515	8.3
520.863	8.32
521.211	8.24
521.559	8.41
521.907	8.54
522.255	8.44
522.602	8.52
522.95	8.37
523.298	8.58
523.645	8.61
523.993	8.54
524.341	8.58
524.688	8.47
525.036	8.56
525.383	8.57
525.73	8.6
526.078	8.62
526.425	8.49
526.772	8.47
527.119	8.49
527.466	8.6
527.814	8.48
528.161	8.56
528.508	8.57
528.854	8.55
529.201	8.51
529.548	8.49
529.895	8.31
530.242	8.33
530.588	8.34
530.935	8.44
531.282	8.42
531.628	8.55
531.975	8.57
532.321	8.59
532.667	8.73
533.014	8.82
533.36	8.78
533.706	8.81
534.052	8.75
534.399	8.73
534.745	8.63
535.091	8.61
535.437	8.75
535.783	8.81
536.129	8.83
536.474	8.87
536.82	8.92
537.166	8.89
537.512	8.92
537.857	8.92
538.203	8.91
538.549	8.82
538.894	9.02
539.239	8.98
539.585	9.07
539.93	9.19
540.276	9.17
540.621	9.25
540.966	9.08
541.311	9.11
541.656	9.13
542.001	9.15
542.346	9.03
542.691	8.86
543.036	8.93
543.381	8.95
543.726	9.09
544.071	9.07
544.415	9.11
544.76	9.16
545.105	9.18
545.449	9.22
545.794	9.25
546.138	9.3
546.483	9.36
546.827	9.36
547.171	9.43
547.516	9.43
547.86	9.4
548.204	9.4
548.548	9.46
548.892	9.46
549.236	9.54
549.58	9.56
549.924	9.66
550.268	9.76
550.612	9.74
550.956	9.72
551.3	9.86
551.643	9.84
551.987	10.04
552.33	9.86
552.674	9.79
553.017	9.75
553.361	9.75
553.704	9.96
554.048	9.74
554.391	9.88
554.734	10.02
555.077	9.87
555.42	9.83
555.764	9.86
556.107	10.2
556.45	10.09
556.793	10.22
557.135	10.17
557.478	10.19
557.821	10.28
558.164	10.08
558.507	10.12
558.849	10.21
559.192	10.27
559.534	10.12
559.877	10.24
560.219	10.3
560.562	10.14
560.904	10.44
561.246	10.29
561.589	10.39
561.931	10.29
562.273	10.28
562.615	10.27
562.957	10.17
563.299	10.28
563.641	10.3
563.983	10.45
564.325	10.6
564.667	10.52
565.008	10.47
565.35	10.6
565.692	10.55
566.033	10.51
566.375	10.63
566.716	10.49
567.058	10.55
567.399	10.62
567.741	10.72
568.082	10.77
568.423	10.57
568.764	10.77
569.105	10.77
569.447	10.63
569.788	10.74
570.129	10.84
570.47	10.81
570.811	10.9
571.151	10.92
571.492	10.87
571.833	10.89
572.174	11.1
572.514	11.01
572.855	10.91
573.195	10.93
573.536	11.06
573.876	11.1
574.217	10.93
574.557	10.94
574.898	11.05
575.238	11.21
575.578	11.22
575.918	11.17
576.258	11.44
576.598	11.21
576.938	11.17
577.278	11.25
577.618	11.23
577.958	11.22
578.298	11.29
578.638	11.36
578.977	11.56
579.317	11.44
579.657	11.53
579.996	11.79
580.336	11.76
580.675	11.46
581.014	11.72
581.354	11.58
581.693	11.88
582.032	11.83
582.372	11.75
582.711	11.72
583.05	11.64
583.389	11.72
583.728	11.96
584.067	11.74
584.406	11.81
584.745	11.6
585.083	11.84
585.422	12.12
585.761	11.99
586.1	11.84
586.438	11.89
586.777	12.06
587.115	12.12
587.454	12.01
587.792	12.08
588.13	12.01
588.469	12.13
588.807	12.2
589.145	12.17
589.483	12.03
589.821	12.09
590.159	12.43
590.497	12.3
590.835	12.28
591.173	12.41
591.511	12.42
591.849	12.33
592.187	12.33
592.524	12.47
592.862	12.36
593.2	12.65
593.537	12.22
593.875	12.52
594.212	12.8
594.55	12.62
594.887	12.7
595.224	12.69
595.561	12.37
595.899	12.77
596.236	12.78
596.573	12.55
596.91	12.64
597.247	12.75
597.584	12.87
597.921	12.78
598.258	12.9
598.594	12.54
598.931	12.79
599.268	12.67
599.604	12.86
599.941	13.03
600.277	13.12
600.614	13.06
600.95	12.93
601.287	12.89
601.623	12.9
601.959	13.22
602.296	13.24
602.632	13.18
602.968	13.19
603.304	13.34
603.64	13.22
603.976	13.15
604.312	13.16
604.648	13.19
604.984	13.18
605.319	13.3
605.655	13.38
605.991	13.25
606.326	13.46
606.662	13.29
606.998	13.59
607.333	13.58
607.668	13.46
608.004	13.52
608.339	13.66
608.674	13.73
609.01	13.74
609.345	13.49
609.68	13.57
610.015	13.76
610.35	13.69
610.685	13.53
611.02	13.59
611.355	13.7
611.689	13.7
612.024	13.8
612.359	13.81
612.694	14.05
613.028	13.91
613.363	13.86
613.697	13.94
614.032	14.01
614.366	14
614.7	14.1
615.035	14.09
615.369	14.36
615.703	14.14
616.037	14.27
616.371	14.05
616.705	14.48
617.039	14.45
617.373	14.33
617.707	14.45
618.041	14.36
618.375	13.9
618.709	14.49
619.042	14.6
619.376	14.36
619.71	14.55
620.043	14.75
620.377	14.69
620.71	14.53
621.043	15.05
621.377	14.62
621.71	14.97
622.043	14.81
622.376	14.77
622.709	15.08
623.043	14.7
623.376	14.72
623.709	15.23
624.041	14.65
624.374	14.42
624.707	14.93
625.04	14.9
625.373	15.25
625.705	15.21
626.038	14.76
626.37	15.04
626.703	15.24
627.035	15.43
627.368	15.56
627.7	15.34
628.032	15.25
628.365	15.01
628.697	15.53
629.029	15.07
629.361	15.36
629.693	15.13
630.025	15.3
630.357	15.42
630.689	15.62
631.021	15.5
631.353	15.32
631.684	15.25
632.016	15.32
632.348	15.39
632.679	15.78
633.011	15.6
633.342	15.5
633.674	15.56
634.005	15.72
634.336	16.05
634.668	15.77
634.999	15.87
635.33	16
635.661	15.82
635.992	15.9
636.323	16.08
636.654	15.95
636.985	15.85
637.316	16.17
637.647	15.87
637.977	15.98
638.308	16.57
638.639	16.02
638.969	15.83
639.3	16.31
639.63	16.27
639.961	16.27
640.291	15.87
640.622	16.12
640.952	16.72
641.282	15.92
641.612	16.38
641.943	16.66
642.273	16.13
642.603	16.42
642.933	16.7
643.263	16.77
643.592	16.66
643.922	16.92
644.252	16.37
644.582	16.72
644.911	16.4
645.241	16.59
645.571	16.54
645.9	16.41
646.23	17.01
646.559	16.63
646.888	17.04
647.218	16.86
647.547	16.83
647.876	16.85
648.205	16.81
648.534	17.1
648.863	17.18
649.192	16.77
649.521	17.5
649.85	17.19
650.179	17.03
650.508	16.93
650.837	17.68
651.165	17.29
651.494	17.36
651.822	17.09
652.151	17.5
652.479	17.44
652.808	17.54
653.136	17.4
653.465	16.86
653.793	17.53
654.121	17.41
654.449	17.29
654.777	17.56
655.105	17.25
655.433	17.79
655.761	17.72
656.089	17.86
656.417	17.93
656.745	17.42
657.073	16.94
657.4	17.84
657.728	17.07
658.056	17.84
658.383	17.64
658.711	17.76
659.038	18.1
659.365	17.7
659.693	18.09
660.02	17.83
660.347	17.88
660.674	17.95
661.001	17.95
661.329	18.04
661.656	17.82
661.982	17.86
662.309	18.03
662.636	17.96
662.963	18.38
663.29	18.17
663.616	18.07
663.943	18.11
664.27	18.11
664.596	17.95
664.923	18.85
665.249	18.78
665.576	18.11
665.902	18.4
666.228	18.25
666.554	18.99
666.881	17.94
667.207	18.84
667.533	18.33
667.859	18.34
668.185	18.69
668.511	18.84
668.837	18.57
669.162	18.9
669.488	17.74
669.814	18.36
670.139	18.58
670.465	18.94
670.791	18.99
671.116	19.11
671.442	18.53
671.767	18.86
672.092	18.54
672.418	19.1
672.743	18.48
673.068	18.56
673.393	19.13
673.718	18.81
674.043	18.45
674.368	18.82
674.693	19.75
675.018	19.12
675.343	19.36
675.667	19.34
675.992	19.57
676.317	18.71
676.641	19.2
676.966	19.31
677.29	18.89
677.615	19.22
677.939	19.66
678.264	18.57
678.588	20.56
678.912	18.83
679.236	19.23
679.56	19.24
679.885	19.95
680.209	19.87
680.532	19.68
680.856	19.61
681.18	20.04
681.504	19.95
681.828	19.28
682.152	19.74
682.475	19.83
682.799	19.47
683.122	19.94
683.446	19.69
683.769	20.03
684.093	19.97
684.416	19.53
684.739	19.72
685.062	20.37
685.386	20.24
685.709	19.96
686.032	19.84
686.355	20.47
686.678	20.11
687.001	20.41
687.324	19.89
687.646	20.3
687.969	19.77
688.292	20.57
688.614	20.39
688.937	20.32
689.26	20.11
689.582	20.04
689.904	21.11
690.227	21.13
690.549	20.36
690.871	20.5
691.194	20.11
691.516	20.26
691.838	21.02
692.16	20.34
692.482	19.94
692.804	20.68
693.126	20.19
693.448	21.22
693.769	20.75
694.091	20.49
694.413	20.42
694.735	20.64
695.056	21.59
695.378	21.19
695.699	20.4
696.021	21.13
696.342	20.43
696.663	21.4
696.984	20.69
697.306	20.68
697.627	21.43
697.948	20.46
698.269	21.37
698.59	21.72
698.911	21.47
699.232	21
699.553	21.48
699.873	20.8
700.194	20.89
700.515	21.07
700.835	21.07
701.156	21.48
701.477	21
701.797	21.21
702.117	21.44
702.438	21.17
702.758	21.12
703.078	21.19
703.398	20.03
703.719	21.72
704.039	21.37
704.359	20.99
704.679	21.09
704.999	20.95
705.319	21.33
705.638	21.26
705.958	21.19
706.278	22.33
706.597	21.63
706.917	22.43
707.237	21.45
707.556	21.9
707.876	22.33
708.195	22.19
708.514	21.86
708.834	22.54
709.153	22.44
709.472	23.21
709.791	21.77
710.11	21.73
710.429	21.9
710.748	22.56
711.067	21.99
711.386	22.64
711.705	21.31
712.023	22.26
712.342	21.62
712.661	22.22
712.979	22.42
713.298	23.51
713.616	22.03
713.935	22.37
714.253	22.16
714.572	22.47
714.89	22.86
715.208	22.88
715.526	22.98
715.844	22.8
716.162	22.51
716.48	22
716.798	23.25
717.116	22.39
717.434	22.36
717.752	22.65
718.069	23.07
718.387	22.52
718.705	21.98
719.022	23.1
719.34	23.2
719.657	22.9
719.975	22.4
720.292	22.48
720.609	22.12
720.927	22.36
721.244	23.24
721.561	22.2
721.878	22.62
722.195	23.39
722.512	23.44
722.829	23.02
723.146	23.09
723.463	24.02
723.779	22.15
724.096	21.9
724.413	22.62
724.729	23.04
725.046	21.89
725.362	23.42
725.679	23.61
725.995	22.27
726.311	22.41
726.628	22.66
726.944	23.34
727.26	23.24
727.576	23.67
727.892	23.11
728.208	22.94
728.524	23.01
728.84	24.24
729.156	23.6
729.472	23.27
729.787	24.64
730.103	22.82
730.419	23.15
730.734	23.65
731.05	23.69
731.365	25
731.681	23.86
731.996	23.81
732.311	22.95
732.626	23.64
732.942	23.68
733.257	24.02
733.572	23.6
733.887	25.08
734.202	24.89
734.517	23.79
734.832	23.15
735.146	24.11
735.461	22.69
735.776	24.48
736.091	24.01
736.405	24.32
736.72	23.95
737.034	24.59
737.349	25.65
737.663	25.72
737.977	24.22
738.292	23.86
738.606	26.48
738.92	25.69
739.234	24.48
739.548	24.1
739.862	24.25
740.176	23.4
740.49	24.48
740.804	24.62
741.117	24.12
741.431	23.79
741.745	23.37
742.058	22.69
742.372	25.25
742.685	25.35
742.999	22.91
743.312	24.77
743.626	25.23
743.939	24.73
744.252	24.72
744.565	25.24
744.878	24.59
745.191	24.78
745.505	25.54
745.817	25.48
746.13	24.9
746.443	23.41
746.756	24.55
747.069	25.65
747.381	23.83
747.694	25.77
748.007	24.69
748.319	26.05
748.632	25.31
748.944	23.78
749.256	26.2
749.569	24.51
749.881	24.35
750.193	25.74
750.505	25.34
750.817	23.86
751.129	25.52
751.441	28.02
751.753	25.16
752.065	24.34
752.377	26.08
752.689	24.34
753	25.08
753.312	25.04
753.624	24.83
753.935	24.98
754.247	24.58
754.558	24.33
754.869	26.11
755.181	26.14
755.492	25.4
755.803	27.27
756.114	24.22
756.425	23.86
756.736	24.95
757.047	24.01
757.358	25.32
757.669	25.53
757.98	25.68
758.291	25.96
758.601	26.74
758.912	25.37
759.223	24.37
759.533	25.76
759.844	25.67
760.154	24.7
760.464	25.81
760.775	28.56
761.085	24.59
761.395	24.2
761.705	24.09
762.016	24.65
762.326	27.29
762.636	27.04
762.945	24.35
763.255	25.36
763.565	26.76
763.875	26.14
764.185	27.74
764.494	25.46
764.804	25.79
765.113	26.91
765.423	26.92
765.732	26.57
766.042	26.38
766.351	26.27
766.66	26.52
766.97	27.39
767.279	25.74
767.588	23.81
767.897	27.22
768.206	26.49
768.515	28
768.824	27.92
769.133	25.64
769.441	23.48
769.75	25.88
770.059	26.66
770.367	25.88
770.676	26.64
770.984	26.72
771.293	26.9
771.601	22.47
771.91	26.02
772.218	26.06
772.526	26.25
772.834	24.77
773.142	27.71
773.45	26.18
773.758	27.35
774.066	26.73
774.374	29.28
774.682	26.93
774.99	27.41
775.298	25.74
775.605	25.2
775.913	21.51
776.22	26.82
776.528	25.22
776.835	28.13
777.143	28.98
777.45	22.98
777.757	30.6
778.065	27.35
778.372	24.8
778.679	26.33
778.986	29.35
779.293	24.5
779.6	25.39
779.907	27.93
780.214	25.94
780.52	27.89
780.827	28.33
781.134	27.86
781.44	30.42
781.747	27.6
782.053	28.12
782.36	27.41
782.666	25.15
782.973	23.28
783.279	27.67
783.585	27.98
783.891	27.81
784.197	27.8
784.503	27.18
784.809	31.35
785.115	30.63
785.421	29.82
785.727	27.26
786.033	26.75
786.339	24.66
786.644	25.29
786.95	24.99
787.255	26.88
787.561	26.67
787.866	28.75
788.172	25.17
788.477	27.02
788.782	25.24
789.088	27.42
789.393	25.34
789.698	24.42
790.003	29.02
790.308	26.86
790.613	29.11
790.918	28.6
791.223	25.5
791.527	30.93
791.832	27.61
792.137	30.63
792.441	27.07
792.746	28.66
793.05	30.63
793.355	26.64
793.659	27.8
793.963	28.7
794.268	28.7
794.572	24.49
794.876	24.71
795.18	27.4
795.484	25.36
795.788	31.04
796.092	24.19
796.396	24.62
796.7	30.16
797.004	25.25
797.307	26.63
797.611	30.68
797.915	28.45
798.218	28.45
798.522	25.18
798.825	27.3
799.128	32.1
799.432	29.85
799.735	25.34
800.038	28.46
800.341	22.48
800.644	25.68
800.947	23.96
801.25	28.03
801.553	29.25
801.856	32.14
802.159	26.39
802.462	26.02
802.764	30.54
803.067	27.53
803.37	25.91
803.672	25.51
803.975	26.73
804.277	23.36
804.579	26.47
804.882	32.19
805.184	27.34
805.486	30.51
805.788	35.44
806.09	26.93
806.392	30.59
806.694	22.1
806.996	29.47
807.298	27.08
807.6	31.52
807.902	26.93
808.203	24.29
808.505	26.43
808.807	30.47
809.108	28.33
809.409	28.76
809.711	24.63
810.012	29.73
810.313	26.98
810.615	29.91
810.916	27.65
811.217	23.79
811.518	24.13
811.819	26.55
812.12	26.84
812.421	20.83
812.722	24.06
813.023	28.57
813.323	24.28
813.624	30.81
813.925	29.46
814.225	29.79
814.526	24.9
814.826	27.54
815.126	29.16
815.427	28.33
815.727	26
816.027	31.89
816.327	29.82
816.627	29.77
816.927	30.25
817.227	27.44
817.527	26.14
817.827	28.77
818.127	28.22
818.427	25.35
818.727	22.7
819.026	24.25
819.326	23.5
819.625	26.22
819.925	28.75
820.224	37.92
820.524	29.81
820.823	32.39
821.122	22.19
821.421	28.93
821.72	28.61
822.019	27.82
822.318	31.22
822.617	26.69
822.916	25.64
823.215	28.75
823.514	28.93
823.813	29.66
824.111	29.67
824.41	29.83
824.709	29.62
825.007	31.11
825.306	31.13
825.604	30.43
825.902	31.03
826.201	31.07
826.499	29.92
826.797	29.52
827.095	32.04
827.393	30.67
827.691	31.74
827.989	31.12
828.287	30.37
828.585	27.28
828.882	28.51
829.18	32.53
829.478	31.73
829.775	29.74
830.073	29.41
830.37	30.09
830.668	31.73
830.965	33.23
831.263	29.23
831.56	28.14
831.857	31.24
832.154	31.01
832.451	34.32
832.748	34.5
833.045	31.66
833.342	24.86
833.639	28.81
833.936	29.17
834.232	26.23
834.529	26.94
834.826	29.74
835.122	25.49
835.419	33.98
835.715	27.23
836.012	29.5
836.308	31.7
836.604	29.99
836.901	29.75
837.197	32.16
837.493	31.59
837.789	31.35
838.085	26.89
838.381	29.93
838.677	33.17
838.972	25.76
839.268	28.24
839.564	32.84
839.86	31.92
840.155	33.4
840.451	31.22
840.746	32.07
841.042	26.46
841.337	28.95
841.632	27.15
841.928	29.19
842.223	25.41
842.518	30.13
842.813	28.33
843.108	30.37
843.403	26.59
843.698	29.07
843.993	32.94
844.287	28.57
844.582	29.71
844.877	25.06
845.171	28.51
845.466	23.39
845.761	28.76
846.055	33.29
846.349	32.91
846.644	13.32
846.938	40
847.232	12.46
847.526	28.63
847.82	39.61
848.114	27.97
848.408	20.22
848.702	22.89
848.996	28.88
849.29	40.84
849.584	15.11
849.877	23.16
850.171	35.16
850.465	12.79
850.758	24.74
851.052	22.42
851.345	30.63
851.638	35.01
851.932	28.88
852.225	20
852.518	21.64
852.811	20.49
853.104	11.12
853.397	17.44
853.69	21.49
853.983	34.3
854.276	20.27
854.569	17.38
854.861	12.87
855.154	35.43
855.447	33.52
855.739	8.21
856.032	21.23
856.324	31
856.616	27.8
856.909	16.01
857.201	22.45
857.493	1.48
857.785	18.64
858.077	28.71
858.369	-0.62
858.661	33.79
858.953	44.21
859.245	21.28
859.537	9.04
859.829	5.13
860.12	41.37
860.412	8.43
860.703	30.27
860.995	34.6
861.286	-3.72
861.578	38.59
861.869	44.54
862.16	20.51
862.452	21.26
862.743	4.97
863.034	21.08
863.325	15.85
863.616	20.53
863.907	32.25
864.198	12.28
864.488	31.43
864.779	31.24
865.07	17.95
865.36	35.14
865.651	54.13
865.941	18.57
866.232	46.28
866.522	14.12
866.813	17.02
867.103	17.51
867.393	31.21
867.683	25.53
867.973	27.16
868.263	17.47
868.553	31.68
868.843	18.36
869.133	9.52
869.423	26.47
869.713	11.4
870.002	42.93
870.292	29.9
870.582	13.61
870.871	49.42
871.161	18.92
871.45	6.79
871.739	28.92
872.029	31.01
872.318	20.85
872.607	24.42
872.896	8.27
873.185	31.67
873.474	18.43
873.763	49.42
874.052	14.53
874.341	12.26
874.63	32.47
874.918	47.13
875.207	15.48
875.496	11.57
875.784	14.15
876.073	18.17
876.361	30.92
876.649	-3.61
876.938	10.94
877.226	29.58
877.514	29.23
877.802	-7.41
878.09	48.29
878.378	13.25
878.666	11.4
878.954	25.84
879.242	42.51
879.53	33.34
879.817	10.2
880.105	44.01
880.392	28.24
880.68	57.06
880.967	29.05
881.255	36.04
881.542	-1.15
881.83	29.23
882.117	35.94
882.404	-1.27
882.691	46.56
882.978	51.52
883.265	27.83
883.552	25.61
883.839	45.46
884.126	34.94
884.413	38.77
884.699	28.3
884.986	37.65
885.273	31.97
885.559	31.97
885.846	31.97
