Data from 0411_forehead_Reflection__4__277.txt Node

Date: Fri Dec 15 18:43:52 CST 2023
User: ToomeyLab
Spectrometer: FLMS14357
Trigger mode: 0
Integration Time (sec): 1.000000E-2
Scans to average: 100
Electric dark correction enabled: true
Nonlinearity correction enabled: false
Boxcar width: 0
XAxis mode: Wavelengths
Number of Pixels in Spectrum: 2048
>>>>>Begin Spectral Data<<<<<
189.047	-146.47
189.435	-146.47
189.823	-146.47
190.211	-68.17
190.599	-249.71
190.987	45.6
191.375	27.59
191.763	39.46
192.151	120.34
192.538	23.09
192.926	-6.54
193.314	196.3
193.702	343.53
194.089	239.35
194.477	48.4
194.864	-561.27
195.252	84.3
195.639	90.13
196.027	116.7
196.414	33.93
196.801	-129.85
197.189	120.01
197.576	243.12
197.963	-253.52
198.351	-3.02
198.738	-19.04
199.125	66.77
199.512	-56.28
199.899	50.33
200.286	8.05
200.673	-13.01
201.06	-21.99
201.447	11.15
201.833	5.67
202.22	6.29
202.607	43.53
202.994	-6.94
203.38	4.8
203.767	88.83
204.154	24.86
204.54	22.99
204.927	-15.18
205.313	-0.99
205.699	35.28
206.086	101.27
206.472	34.89
206.858	3.84
207.245	-6.2
207.631	5.16
208.017	21.75
208.403	37.43
208.789	11.53
209.175	-11.36
209.561	-22.49
209.947	20.15
210.333	-27.91
210.719	28.14
211.105	-3.2
211.491	-44.48
211.876	7.17
212.262	-39.15
212.648	27.55
213.034	-4.78
213.419	-30.21
213.805	-13.95
214.19	-19.56
214.576	-2.05
214.961	9.12
215.346	-84.99
215.732	-2.38
216.117	29.1
216.502	-18.91
216.888	22.03
217.273	7.8
217.658	-4.68
218.043	39.85
218.428	-23.82
218.813	-28.13
219.198	-14.48
219.583	18.86
219.968	9.6
220.353	15.96
220.738	17.25
221.122	20.76
221.507	-23.71
221.892	-15.78
222.276	-6.37
222.661	-8.43
223.046	14.15
223.43	11.77
223.815	14.86
224.199	-0.61
224.583	1.27
224.968	1.32
225.352	6.09
225.736	0.65
226.121	-19.21
226.505	2.95
226.889	7.57
227.273	-1.37
227.657	9.25
228.041	7.05
228.425	6.88
228.809	6.37
229.193	5.12
229.577	3.29
229.961	4.34
230.344	5.34
230.728	4.86
231.112	5.42
231.495	5.01
231.879	4.2
232.263	5.44
232.646	5.63
233.03	5.17
233.413	2.78
233.797	6.37
234.18	5.22
234.563	5.01
234.946	1.68
235.33	7.21
235.713	4.44
236.096	4.47
236.479	6.86
236.862	4.38
237.245	6.11
237.628	4.38
238.011	5.07
238.394	5.88
238.777	6.1
239.16	4.29
239.543	7.21
239.925	4.78
240.308	3.98
240.691	4.49
241.073	4.84
241.456	5.68
241.838	3.97
242.221	3.47
242.603	6.42
242.986	4.59
243.368	5.41
243.75	5.5
244.133	5.13
244.515	5.07
244.897	4.89
245.279	5.01
245.661	5.94
246.043	3.8
246.425	3.26
246.807	5.57
247.189	4.41
247.571	5.17
247.953	5.35
248.335	5.23
248.717	5
249.098	4.96
249.48	5.15
249.862	5.33
250.243	5.16
250.625	5.01
251.006	5.38
251.388	4.76
251.769	5.11
252.151	5.05
252.532	5.04
252.913	4.72
253.295	4.09
253.676	5.18
254.057	4.65
254.438	5.27
254.819	4.74
255.2	4.21
255.581	4.26
255.962	4.03
256.343	5.31
256.724	5.41
257.105	4.37
257.486	5.22
257.867	4.99
258.247	5.17
258.628	3.89
259.009	5.34
259.389	4.64
259.77	5.3
260.15	4.65
260.531	4.48
260.911	5.53
261.292	4.82
261.672	5.24
262.052	5.1
262.432	4.98
262.813	5.31
263.193	5.32
263.573	5.45
263.953	5.63
264.333	5.38
264.713	4.65
265.093	4.81
265.473	4.96
265.853	4.1
266.233	4.93
266.612	3.27
266.992	3.24
267.372	5.21
267.752	5.02
268.131	4.88
268.511	5.58
268.89	5.49
269.27	5.04
269.649	4.98
270.029	4.06
270.408	5.48
270.787	5
271.167	5.13
271.546	5.6
271.925	4.47
272.304	5.1
272.683	4.95
273.062	4.53
273.441	5.11
273.82	4.35
274.199	5
274.578	4.95
274.957	4.56
275.336	4.48
275.715	4.84
276.093	4.47
276.472	4.53
276.851	5.27
277.229	4.41
277.608	4.04
277.986	4.79
278.365	4.52
278.743	4.03
279.122	4.58
279.5	4.94
279.878	5.49
280.257	5.34
280.635	4.16
281.013	4.3
281.391	5.4
281.769	4.83
282.147	5.26
282.525	5.8
282.903	4.96
283.281	4.67
283.659	5.21
284.037	5
284.415	5.44
284.792	5.12
285.17	4.34
285.548	4.85
285.925	4.78
286.303	4.88
286.68	4.53
287.058	4.93
287.435	4.87
287.813	4.82
288.19	4.84
288.567	4.73
288.945	5.34
289.322	4.96
289.699	4.67
290.076	4.78
290.453	5
290.83	4.57
291.207	5.03
291.584	5.2
291.961	5.47
292.338	4.98
292.715	5.23
293.092	4.64
293.469	4.52
293.845	5.29
294.222	5.56
294.599	5.41
294.975	5.22
295.352	6.03
295.728	5.11
296.105	5.66
296.481	5.82
296.858	5.88
297.234	5.41
297.61	5.78
297.986	5.51
298.363	5.58
298.739	5.79
299.115	5.59
299.491	5.85
299.867	5.89
300.243	5.9
300.619	5.31
300.995	6.07
301.371	6.36
301.746	5.74
302.122	6.02
302.498	5.88
302.874	6.19
303.249	5.98
303.625	6.23
304	6.25
304.376	5.79
304.751	5.83
305.127	6.7
305.502	6.31
305.878	5.94
306.253	6.3
306.628	6.49
307.003	5.87
307.378	6.24
307.754	6.23
308.129	5.9
308.504	6.33
308.879	6.03
309.254	7.37
309.629	7.34
310.003	6.52
310.378	7.08
310.753	7.07
311.128	6.63
311.502	6.14
311.877	7.23
312.252	6.6
312.626	6.74
313.001	6.74
313.375	6.76
313.75	6.43
314.124	7.03
314.498	6.92
314.873	6.97
315.247	6.55
315.621	6.56
315.995	6.52
316.369	7.41
316.743	7.18
317.117	7.51
317.491	7.11
317.865	7.6
318.239	7.18
318.613	7.78
318.987	7.74
319.361	7.11
319.734	8.04
320.108	7.04
320.482	7.69
320.855	7.14
321.229	7.97
321.602	7.35
321.976	7.74
322.349	7.68
322.723	8.22
323.096	7.97
323.469	7.04
323.843	8.11
324.216	8.59
324.589	7.53
324.962	8.15
325.335	7.38
325.708	7.73
326.081	7.66
326.454	8.09
326.827	7.97
327.2	8.21
327.573	8.4
327.945	8.47
328.318	8.22
328.691	7.91
329.063	8.14
329.436	7.82
329.809	8.94
330.181	7.71
330.553	8.65
330.926	8.02
331.298	8.37
331.671	8.23
332.043	9.3
332.415	8.43
332.787	8.46
333.159	9.02
333.532	8.19
333.904	8.82
334.276	8.48
334.648	8.7
335.02	8.63
335.391	8.46
335.763	8.21
336.135	8.66
336.507	9.63
336.879	8.85
337.25	8.36
337.622	9.17
337.993	8.61
338.365	9.07
338.736	8.8
339.108	9.06
339.479	8.92
339.851	9.05
340.222	9.11
340.593	8.64
340.964	8.57
341.336	9.88
341.707	8.77
342.078	9.33
342.449	9.42
342.82	9.33
343.191	9.3
343.562	9.01
343.933	9.56
344.303	9.04
344.674	9.54
345.045	9.5
345.416	9.91
345.786	9.2
346.157	9.58
346.527	8.99
346.898	8.98
347.268	9.55
347.639	9.57
348.009	10.31
348.38	9.62
348.75	9.77
349.12	9.75
349.49	9.91
349.861	10.27
350.231	9.38
350.601	9.76
350.971	9.7
351.341	9.93
351.711	9.71
352.081	9.98
352.45	9.72
352.82	9.74
353.19	9.83
353.56	9.52
353.929	10.4
354.299	9.6
354.669	9.86
355.038	10.62
355.408	10.15
355.777	10.63
356.147	9.97
356.516	10.28
356.885	10.25
357.254	10.56
357.624	10.6
357.993	10.53
358.362	10.43
358.731	10.38
359.1	10.51
359.469	10.35
359.838	10.38
360.207	10.23
360.576	10.34
360.945	10.35
361.314	10.98
361.682	10.53
362.051	10.47
362.42	11.21
362.788	10.68
363.157	10.96
363.525	11.08
363.894	10.81
364.262	10.73
364.631	10.86
364.999	10.92
365.367	10.72
365.735	11.45
366.104	11.38
366.472	11.17
366.84	11.18
367.208	10.99
367.576	11.32
367.944	11.44
368.312	11.12
368.68	11.28
369.048	11.23
369.416	11.28
369.783	10.93
370.151	11.33
370.519	11.42
370.886	11.44
371.254	11.04
371.621	11.49
371.989	12.1
372.356	11.38
372.724	11.64
373.091	11.44
373.458	11.69
373.826	11.68
374.193	11.33
374.56	11.59
374.927	11.56
375.294	11.67
375.661	11.65
376.028	11.6
376.395	11.71
376.762	11.86
377.129	11.77
377.496	11.99
377.863	12.29
378.229	11.8
378.596	12.06
378.963	11.86
379.329	11.81
379.696	12.1
380.062	12.23
380.429	12.15
380.795	12.02
381.161	11.91
381.528	12.55
381.894	12.31
382.26	12.28
382.626	12.47
382.993	12.27
383.359	12.49
383.725	12.39
384.091	12.32
384.457	12.35
384.823	12.33
385.188	12.64
385.554	12.88
385.92	12.73
386.286	12.85
386.651	12.48
387.017	12.65
387.383	12.69
387.748	12.54
388.114	12.84
388.479	12.84
388.845	13.18
389.21	13.06
389.575	12.91
389.94	13.3
390.306	13.08
390.671	13.06
391.036	12.66
391.401	12.9
391.766	13.21
392.131	12.98
392.496	13.15
392.861	13.2
393.226	13.38
393.591	13.43
393.956	13.09
394.32	13.09
394.685	12.62
395.05	13.24
395.414	13.43
395.779	13.39
396.143	13.34
396.508	13.41
396.872	13.44
397.236	13.53
397.601	13.65
397.965	13.71
398.329	13.93
398.694	13.78
399.058	13.58
399.422	13.6
399.786	13.75
400.15	14.11
400.514	13.77
400.878	13.81
401.242	14.21
401.605	14.03
401.969	14.1
402.333	13.69
402.697	13.95
403.06	13.91
403.424	14.25
403.787	14.02
404.151	14.27
404.514	14.04
404.878	14.12
405.241	14.68
405.604	14.32
405.968	14.2
406.331	14.17
406.694	14.24
407.057	14.45
407.42	14.49
407.783	14.24
408.146	14.44
408.509	14.39
408.872	14.62
409.235	14.69
409.598	14.87
409.961	14.94
410.323	14.71
410.686	14.65
411.049	14.84
411.411	14.63
411.774	14.84
412.136	14.69
412.499	14.87
412.861	14.76
413.223	14.88
413.586	14.65
413.948	15.28
414.31	14.99
414.672	14.96
415.035	14.87
415.397	15.54
415.759	15.04
416.121	15.22
416.483	15.19
416.845	15.27
417.206	15.16
417.568	15.69
417.93	15.18
418.292	14.98
418.653	15.11
419.015	15.21
419.377	15.23
419.738	15.36
420.1	15.28
420.461	15.38
420.822	15.25
421.184	15.4
421.545	15.26
421.906	15.37
422.267	15.33
422.629	15.35
422.99	15.36
423.351	15.25
423.712	15.36
424.073	15.39
424.434	15.36
424.795	15.49
425.155	15.61
425.516	15.51
425.877	15.56
426.238	15.63
426.598	15.59
426.959	15.69
427.32	15.6
427.68	15.64
428.041	15.79
428.401	15.95
428.761	15.94
429.122	15.93
429.482	16.14
429.842	16.14
430.202	16.13
430.563	16.33
430.923	16.14
431.283	16.3
431.643	16.27
432.003	16.3
432.363	16.59
432.722	16.21
433.082	16.5
433.442	16.39
433.802	16.45
434.161	16.52
434.521	16.73
434.881	16.66
435.24	16.43
435.6	16.47
435.959	16.73
436.319	16.63
436.678	16.63
437.037	16.83
437.396	16.75
437.756	16.7
438.115	16.61
438.474	17.14
438.833	16.85
439.192	16.99
439.551	16.97
439.91	16.99
440.269	16.85
440.628	17.04
440.987	16.96
441.345	16.8
441.704	17.01
442.063	17.11
442.421	17.11
442.78	17.07
443.138	17.15
443.497	17.07
443.855	17.1
444.214	17.33
444.572	17.46
444.93	17.29
445.288	17.31
445.647	17.63
446.005	17.54
446.363	17.47
446.721	17.66
447.079	17.44
447.437	17.44
447.795	17.56
448.153	17.34
448.51	17.46
448.868	17.53
449.226	17.49
449.584	17.45
449.941	17.64
450.299	17.77
450.656	17.79
451.014	17.75
451.371	17.91
451.729	17.88
452.086	18.16
452.443	18.07
452.801	18
453.158	18.13
453.515	18.05
453.872	18.3
454.229	18.16
454.586	18.06
454.943	18.24
455.3	18.44
455.657	18.3
456.014	18.28
456.371	18.41
456.727	18.3
457.084	18.57
457.441	18.47
457.797	18.71
458.154	18.78
458.51	18.75
458.867	18.7
459.223	18.84
459.58	18.79
459.936	18.8
460.292	18.84
460.648	18.9
461.005	18.8
461.361	18.96
461.717	18.75
462.073	18.67
462.429	18.53
462.785	18.6
463.141	18.8
463.496	18.91
463.852	19.09
464.208	19.08
464.564	19.27
464.919	19.25
465.275	19.3
465.631	19.34
465.986	19.29
466.342	19.41
466.697	19.44
467.052	19.36
467.408	19.39
467.763	19.37
468.118	19.45
468.473	19.67
468.829	19.58
469.184	19.56
469.539	19.64
469.894	19.46
470.249	19.82
470.603	19.91
470.958	20.05
471.313	19.81
471.668	19.86
472.023	20
472.377	19.77
472.732	19.92
473.086	19.94
473.441	19.97
473.795	20.25
474.15	20.23
474.504	20.01
474.859	20.17
475.213	20.14
475.567	20.15
475.921	20.26
476.275	20.42
476.63	20.37
476.984	20.46
477.338	20.42
477.692	20.32
478.045	20.49
478.399	20.55
478.753	20.44
479.107	20.62
479.461	20.51
479.814	20.7
480.168	20.46
480.521	20.64
480.875	20.7
481.228	20.67
481.582	20.78
481.935	20.68
482.289	20.96
482.642	20.83
482.995	20.9
483.348	20.85
483.701	20.81
484.055	20.88
484.408	20.82
484.761	20.77
485.114	20.59
485.466	20.37
485.819	20.42
486.172	20.17
486.525	20.02
486.878	19.93
487.23	20.16
487.583	20.33
487.936	20.64
488.288	20.71
488.641	20.96
488.993	20.78
489.345	20.71
489.698	20.61
490.05	20.57
490.402	20.64
490.754	20.66
491.107	20.8
491.459	20.96
491.811	21.07
492.163	21.36
492.515	21.46
492.866	21.55
493.218	21.4
493.57	21.31
493.922	21.13
494.274	21.03
494.625	21.18
494.977	21.34
495.328	21.59
495.68	21.72
496.031	21.88
496.383	22.03
496.734	22.31
497.086	22.12
497.437	22.24
497.788	22.2
498.139	22.17
498.49	22.32
498.842	22.21
499.193	22.29
499.544	22.23
499.894	22.51
500.245	22.47
500.596	22.52
500.947	22.52
501.298	22.42
501.648	22.68
501.999	22.64
502.35	22.76
502.7	22.84
503.051	22.64
503.401	22.98
503.752	23.23
504.102	23.03
504.452	23.04
504.803	23.12
505.153	23.08
505.503	23.04
505.853	22.95
506.203	23.13
506.553	23.3
506.903	23.16
507.253	23.33
507.603	23.26
507.953	23.32
508.303	23.4
508.652	23.58
509.002	23.51
509.352	23.44
509.701	23.43
510.051	23.58
510.4	23.61
510.75	23.57
511.099	23.74
511.449	23.53
511.798	23.71
512.147	23.47
512.496	23.61
512.846	23.79
513.195	23.77
513.544	23.93
513.893	23.89
514.242	23.75
514.591	24.04
514.939	23.88
515.288	23.83
515.637	24.04
515.986	24.2
516.334	24.13
516.683	24.19
517.032	24.19
517.38	24.18
517.729	24.52
518.077	24.42
518.426	24.36
518.774	24.57
519.122	24.5
519.47	24.6
519.819	24.5
520.167	24.34
520.515	24.36
520.863	24.44
521.211	24.29
521.559	24.29
521.907	24.28
522.255	24.38
522.602	24.63
522.95	24.65
523.298	24.66
523.645	25.02
523.993	24.89
524.341	25.23
524.688	25.09
525.036	25.22
525.383	25.38
525.73	25.4
526.078	25.38
526.425	25.14
526.772	25.29
527.119	25.28
527.466	25.15
527.814	25.19
528.161	25.09
528.508	25.09
528.854	25.11
529.201	25.1
529.548	25.26
529.895	25.28
530.242	25.1
530.588	25.01
530.935	24.96
531.282	24.76
531.628	24.7
531.975	24.87
532.321	25.03
532.667	25.34
533.014	25.39
533.36	25.55
533.706	25.73
534.052	25.79
534.399	25.77
534.745	25.78
535.091	25.76
535.437	25.71
535.783	25.66
536.129	25.74
536.474	25.79
536.82	25.89
537.166	26.08
537.512	26.3
537.857	26.42
538.203	26.47
538.549	26.38
538.894	26.38
539.239	26.35
539.585	26.43
539.93	26.54
540.276	26.6
540.621	26.7
540.966	26.81
541.311	26.92
541.656	27.04
542.001	27.1
542.346	26.99
542.691	27.06
543.036	26.76
543.381	26.59
543.726	26.45
544.071	26.49
544.415	26.59
544.76	26.56
545.105	26.85
545.449	26.88
545.794	27.04
546.138	27.15
546.483	27.23
546.827	27.59
547.171	27.5
547.516	27.81
547.86	27.6
548.204	27.66
548.548	27.76
548.892	27.72
549.236	27.64
549.58	27.76
549.924	27.87
550.268	27.9
550.612	27.98
550.956	28.09
551.3	28.25
551.643	28.48
551.987	28.64
552.33	28.62
552.674	28.59
553.017	28.67
553.361	28.9
553.704	28.99
554.048	28.75
554.391	28.73
554.734	28.67
555.077	28.88
555.42	28.72
555.764	28.75
556.107	28.79
556.45	28.75
556.793	28.97
557.135	29.04
557.478	29.3
557.821	29.08
558.164	29.31
558.507	29.5
558.849	29.31
559.192	29.7
559.534	29.61
559.877	29.54
560.219	29.66
560.562	29.86
560.904	29.75
561.246	29.71
561.589	29.87
561.931	29.79
562.273	29.92
562.615	29.97
562.957	29.73
563.299	29.73
563.641	30.17
563.983	29.95
564.325	30.06
564.667	29.94
565.008	30.29
565.35	30.17
565.692	30.11
566.033	30.2
566.375	30.5
566.716	30.62
567.058	30.53
567.399	30.67
567.741	30.36
568.082	30.51
568.423	30.41
568.764	30.55
569.105	30.52
569.447	30.62
569.788	30.6
570.129	30.61
570.47	30.84
570.811	30.94
571.151	31.02
571.492	30.92
571.833	31.29
572.174	31.02
572.514	31.06
572.855	31.03
573.195	31.09
573.536	31.18
573.876	31.21
574.217	31.18
574.557	31.25
574.898	31.37
575.238	31.15
575.578	31.36
575.918	31.83
576.258	31.56
576.598	31.79
576.938	31.76
577.278	31.51
577.618	31.74
577.958	31.61
578.298	31.81
578.638	31.8
578.977	32.12
579.317	31.87
579.657	32.19
579.996	32.1
580.336	32.21
580.675	32.33
581.014	32.4
581.354	32.45
581.693	32.43
582.032	32.73
582.372	32.26
582.711	32.71
583.05	32.78
583.389	32.72
583.728	32.54
584.067	32.69
584.406	33
584.745	32.71
585.083	32.97
585.422	33.31
585.761	32.73
586.1	33.4
586.438	33.29
586.777	33.4
587.115	33.2
587.454	33.31
587.792	33.13
588.13	33.37
588.469	33.74
588.807	33.53
589.145	33.15
589.483	33.61
589.821	33.46
590.159	33.82
590.497	33.82
590.835	33.81
591.173	34.01
591.511	33.68
591.849	33.97
592.187	34.15
592.524	33.66
592.862	33.85
593.2	33.91
593.537	33.67
593.875	34.05
594.212	34.43
594.55	34.31
594.887	34.36
595.224	34.16
595.561	34.57
595.899	34.27
596.236	34.57
596.573	34.57
596.91	34.25
597.247	34.43
597.584	34.98
597.921	34.38
598.258	34.66
598.594	34.84
598.931	34.35
599.268	34.53
599.604	34.55
599.941	34.73
600.277	34.58
600.614	34.59
600.95	34.75
601.287	35.14
601.623	35.06
601.959	34.89
602.296	35.07
602.632	35.28
602.968	35.49
603.304	35.37
603.64	35.51
603.976	35.79
604.312	35.12
604.648	35.41
604.984	35.59
605.319	35.47
605.655	35.68
605.991	35.28
606.326	35.68
606.662	35.59
606.998	35.34
607.333	35.47
607.668	35.54
608.004	35.82
608.339	35.68
608.674	35.87
609.01	36.03
609.345	36.02
609.68	36.33
610.015	35.66
610.35	36.42
610.685	36.33
611.02	36.51
611.355	36.33
611.689	36.29
612.024	36.35
612.359	36.27
612.694	36.52
613.028	36.18
613.363	36.76
613.697	36.49
614.032	36.56
614.366	36.58
614.7	36.59
615.035	36.73
615.369	36.72
615.703	37.08
616.037	36.92
616.371	36.55
616.705	36.66
617.039	37.22
617.373	37.15
617.707	36.59
618.041	37.27
618.375	37.12
618.709	37.96
619.042	36.99
619.376	37.29
619.71	37.71
620.043	37.37
620.377	37.68
620.71	37.66
621.043	37.9
621.377	37.78
621.71	37.46
622.043	37.49
622.376	37.34
622.709	38.19
623.043	38.17
623.376	38.23
623.709	37.83
624.041	38.7
624.374	38.22
624.707	37.97
625.04	38.41
625.373	38.42
625.705	38.1
626.038	38.33
626.37	38.36
626.703	38.38
627.035	38.91
627.368	38.72
627.7	38.02
628.032	38.36
628.365	38.73
628.697	38.76
629.029	38.68
629.361	38.66
629.693	39.05
630.025	38.63
630.357	38.71
630.689	38.64
631.021	39.05
631.353	38.72
631.684	39.04
632.016	38.67
632.348	39.28
632.679	39.15
633.011	39.23
633.342	39.1
633.674	39.13
634.005	39.26
634.336	39.43
634.668	39.97
634.999	39.14
635.33	39.63
635.661	39.86
635.992	39.27
636.323	39.75
636.654	39.42
636.985	39.73
637.316	39.73
637.647	39.6
637.977	39.57
638.308	40.02
638.639	39.79
638.969	39.8
639.3	39.76
639.63	39.9
639.961	39.86
640.291	39.9
640.622	39.95
640.952	40.13
641.282	40.67
641.612	40.26
641.943	39.98
642.273	40.15
642.603	40.2
642.933	40.74
643.263	40.27
643.592	40.71
643.922	40.57
644.252	40.21
644.582	40.28
644.911	40.81
645.241	40.67
645.571	40.55
645.9	40.92
646.23	40.96
646.559	41.35
646.888	40.5
647.218	40.83
647.547	40.91
647.876	40.62
648.205	41.49
648.534	41.26
648.863	40.79
649.192	41.53
649.521	41.09
649.85	41.12
650.179	41.92
650.508	41.39
650.837	41.23
651.165	41.15
651.494	41.87
651.822	41.4
652.151	41.49
652.479	41.95
652.808	41.76
653.136	42.16
653.465	41.23
653.793	41.69
654.121	41.53
654.449	41.97
654.777	41.73
655.105	42.34
655.433	41.14
655.761	41.69
656.089	41.28
656.417	41.76
656.745	41.67
657.073	41.41
657.4	42.44
657.728	42.37
658.056	42.29
658.383	42.06
658.711	42.17
659.038	42.33
659.365	42.73
659.693	42.66
660.02	42.42
660.347	42.2
660.674	42.54
661.001	42.66
661.329	41.95
661.656	42.58
661.982	42.74
662.309	41.9
662.636	42.94
662.963	43.16
663.29	42.76
663.616	42.57
663.943	42.68
664.27	42.38
664.596	42.97
664.923	43.03
665.249	43.02
665.576	43.32
665.902	43.33
666.228	43.8
666.554	42.89
666.881	42.89
667.207	43.45
667.533	43.09
667.859	43.62
668.185	43.34
668.511	43.83
668.837	43.17
669.162	43.02
669.488	42.73
669.814	43.83
670.139	43.42
670.465	43.69
670.791	43.68
671.116	43.97
671.442	43.33
671.767	43.43
672.092	43.41
672.418	43.87
672.743	44.47
673.068	43.76
673.393	44.77
673.718	43.51
674.043	44.46
674.368	43.74
674.693	44.49
675.018	44.02
675.343	44.12
675.667	43.85
675.992	44.99
676.317	44.39
676.641	44.79
676.966	44.63
677.29	44.62
677.615	44.65
677.939	44.36
678.264	45.38
678.588	44.9
678.912	44.68
679.236	45.18
679.56	44.76
679.885	44.72
680.209	44.4
680.532	44.92
680.856	44.69
681.18	45.14
681.504	45.01
681.828	44.72
682.152	44.76
682.475	45.2
682.799	44.75
683.122	45.06
683.446	44.87
683.769	44.76
684.093	45.52
684.416	45.51
684.739	45.94
685.062	44.62
685.386	45.46
685.709	45.09
686.032	45.46
686.355	46.13
686.678	45.43
687.001	44.42
687.324	45.91
687.646	45.71
687.969	45.14
688.292	45.53
688.614	45.89
688.937	45.54
689.26	45.39
689.582	46.56
689.904	45.71
690.227	45.59
690.549	46.1
690.871	46.48
691.194	46.26
691.516	45.8
691.838	46.08
692.16	46.09
692.482	45.44
692.804	46.11
693.126	46.2
693.448	46.68
693.769	47.03
694.091	46.61
694.413	46.38
694.735	46.22
695.056	46.92
695.378	46.35
695.699	45.79
696.021	46.63
696.342	46.26
696.663	46.75
696.984	46.78
697.306	46.35
697.627	47.38
697.948	47.53
698.269	46.96
698.59	46.59
698.911	47.39
699.232	46.81
699.553	47.46
699.873	47.05
700.194	47.33
700.515	47
700.835	47.46
701.156	47.43
701.477	46.59
701.797	47.23
702.117	47.19
702.438	47.94
702.758	46.79
703.078	46.56
703.398	47.91
703.719	47.6
704.039	46.78
704.359	47.7
704.679	47.21
704.999	47.89
705.319	46.78
705.638	46.65
705.958	47.29
706.278	46.69
706.597	46.95
706.917	47.71
707.237	47.44
707.556	48.01
707.876	48.18
708.195	47.99
708.514	48.19
708.834	47.75
709.153	48.79
709.472	48.43
709.791	48.67
710.11	48.14
710.429	48.4
710.748	48.43
711.067	47.78
711.386	48.38
711.705	47.97
712.023	48.46
712.342	46.3
712.661	47.49
712.979	47.97
713.298	47.6
713.616	49.59
713.935	49.36
714.253	47.84
714.572	48.4
714.89	47.33
715.208	48.73
715.526	48.49
715.844	48.35
716.162	49.38
716.48	48.78
716.798	49.26
717.116	50.16
717.434	49.84
717.752	48.22
718.069	49.44
718.387	48.52
718.705	48.35
719.022	48.2
719.34	48.8
719.657	48.81
719.975	49.18
720.292	49.38
720.609	49.34
720.927	50.66
721.244	49.13
721.561	48.94
721.878	49.38
722.195	47.55
722.512	48.75
722.829	47.88
723.146	49.18
723.463	49.9
723.779	48.57
724.096	48.51
724.413	49.08
724.729	47.83
725.046	48.1
725.362	48.64
725.679	48.46
725.995	48.88
726.311	49.89
726.628	50.04
726.944	51.14
727.26	49.05
727.576	49.77
727.892	50.9
728.208	50.18
728.524	49.91
728.84	49.39
729.156	49.11
729.472	49.65
729.787	49.34
730.103	50.65
730.419	49.49
730.734	49.13
731.05	49.32
731.365	50.52
731.681	50.09
731.996	49.28
732.311	49.22
732.626	49.63
732.942	49.21
733.257	50.56
733.572	49.07
733.887	49.6
734.202	50.28
734.517	50.4
734.832	51.06
735.146	50.09
735.461	50.44
735.776	49.54
736.091	50.66
736.405	50.36
736.72	50.27
737.034	52.01
737.349	51.97
737.663	50.7
737.977	50.64
738.292	50.24
738.606	50.27
738.92	52.02
739.234	49.75
739.548	51.13
739.862	49.99
740.176	51.28
740.49	51.07
740.804	53.47
741.117	50.2
741.431	51.52
741.745	50
742.058	52.36
742.372	50.52
742.685	52.59
742.999	50.18
743.312	51.19
743.626	51.15
743.939	51.13
744.252	51.17
744.565	50.25
744.878	51.89
745.191	48.92
745.505	48.79
745.817	53.17
746.13	50.84
746.443	50.19
746.756	51.56
747.069	51.59
747.381	50.48
747.694	51.6
748.007	47.36
748.319	50.45
748.632	53.95
748.944	51.48
749.256	53.43
749.569	49.9
749.881	51.53
750.193	52.22
750.505	52.58
750.817	50.39
751.129	52.89
751.441	50.31
751.753	51.17
752.065	49.7
752.377	51.22
752.689	52.8
753	54.21
753.312	51.82
753.624	52.73
753.935	51.5
754.247	52.17
754.558	51.18
754.869	51.48
755.181	51.93
755.492	52.48
755.803	52.99
756.114	51.18
756.425	53.56
756.736	52.92
757.047	54.54
757.358	51.81
757.669	52.41
757.98	51.2
758.291	50.99
758.601	51.47
758.912	53.8
759.223	52.47
759.533	52.22
759.844	50.82
760.154	54.07
760.464	51.95
760.775	52.47
761.085	53.47
761.395	52.66
761.705	52.61
762.016	50.07
762.326	54.11
762.636	54.61
762.945	52.75
763.255	52.92
763.565	52.43
763.875	52.63
764.185	53.15
764.494	53.85
764.804	56.61
765.113	54.28
765.423	51.91
765.732	52.61
766.042	52.33
766.351	53.57
766.66	52.85
766.97	54.45
767.279	52.66
767.588	53.83
767.897	54.17
768.206	52.25
768.515	52.83
768.824	52.68
769.133	51.15
769.441	51.63
769.75	54.76
770.059	52.71
770.367	53.09
770.676	54.65
770.984	53.07
771.293	53.88
771.601	54.64
771.91	51.5
772.218	52.99
772.526	53.2
772.834	53.83
773.142	53.63
773.45	50.82
773.758	52.08
774.066	51.76
774.374	52.93
774.682	52.13
774.99	52.57
775.298	54.62
775.605	52.39
775.913	51.81
776.22	53.6
776.528	52.28
776.835	52.63
777.143	51.06
777.45	52.29
777.757	57.89
778.065	51.67
778.372	52.25
778.679	52.3
778.986	50.65
779.293	51.69
779.6	52.99
779.907	53.63
780.214	60.42
780.52	52.24
780.827	56.13
781.134	55.28
781.44	52.31
781.747	53.78
782.053	55.02
782.36	53.1
782.666	53.48
782.973	52.02
783.279	54.44
783.585	53.13
783.891	54.27
784.197	53.17
784.503	52.63
784.809	56.36
785.115	52.96
785.421	53.64
785.727	51.09
786.033	54.91
786.339	55.89
786.644	53.11
786.95	51.84
787.255	53.48
787.561	54.61
787.866	54.36
788.172	48.75
788.477	50.57
788.782	58.93
789.088	54.26
789.393	56.49
789.698	53.24
790.003	49.69
790.308	55.95
790.613	53.11
790.918	53.76
791.223	54.56
791.527	53.07
791.832	54.56
792.137	53.14
792.441	56.07
792.746	56.66
793.05	53.93
793.355	55.71
793.659	58.88
793.963	53.25
794.268	54.21
794.572	56.48
794.876	57.17
795.18	53.41
795.484	53.05
795.788	56.52
796.092	50.94
796.396	50.49
796.7	54.88
797.004	52.79
797.307	55.95
797.611	56.24
797.915	57.07
798.218	54.96
798.522	53.64
798.825	56.87
799.128	51.44
799.432	52.67
799.735	53.02
800.038	57.47
800.341	58.16
800.644	61.26
800.947	51.79
801.25	55.78
801.553	52.86
801.856	51.96
802.159	54.03
802.462	52.41
802.764	55.31
803.067	52.34
803.37	56.29
803.672	54.41
803.975	55.14
804.277	57.75
804.579	56.11
804.882	61.58
805.184	57.05
805.486	53.1
805.788	59.83
806.09	60.11
806.392	54.75
806.694	56.61
806.996	51.52
807.298	59.41
807.6	48.15
807.902	55.34
808.203	56.88
808.505	54.97
808.807	55.44
809.108	52.48
809.409	49.75
809.711	52.3
810.012	55.23
810.313	58.69
810.615	63.56
810.916	50.43
811.217	54.59
811.518	53.07
811.819	51.63
812.12	58.98
812.421	51.3
812.722	64.21
813.023	58.14
813.323	53.35
813.624	55.68
813.925	59.04
814.225	53.12
814.526	54.1
814.826	58.31
815.126	51.47
815.427	50.12
815.727	50.91
816.027	53.96
816.327	57.65
816.627	53.17
816.927	57.96
817.227	54.8
817.527	55.45
817.827	56.19
818.127	58.12
818.427	47.05
818.727	56.19
819.026	60.65
819.326	54.68
819.625	49.51
819.925	50.26
820.224	49.69
820.524	52.66
820.823	58.23
821.122	53.19
821.421	54.78
821.72	54.37
822.019	54.15
822.318	56.22
822.617	52.89
822.916	59.11
823.215	57.95
823.514	54.87
823.813	56.89
824.111	58.14
824.41	60.24
824.709	59.29
825.007	59.08
825.306	57.72
825.604	58.25
825.902	58.15
826.201	58
826.499	58.91
826.797	56.78
827.095	58.44
827.393	58.64
827.691	57.29
827.989	56.49
828.287	59.07
828.585	57.1
828.882	55.69
829.18	57.65
829.478	57.92
829.775	57.62
830.073	60.15
830.37	58.9
830.668	57.79
830.965	59.57
831.263	57.6
831.56	58.33
831.857	56.14
832.154	56.38
832.451	56.91
832.748	53.67
833.045	59.02
833.342	60.69
833.639	57.46
833.936	51.51
834.232	54.24
834.529	58.48
834.826	53.63
835.122	57.66
835.419	54.52
835.715	59.37
836.012	57.7
836.308	55.29
836.604	57.5
836.901	59.68
837.197	55.08
837.493	54.53
837.789	58.82
838.085	55.17
838.381	55.29
838.677	55.82
838.972	59.25
839.268	55.12
839.564	55.39
839.86	57.23
840.155	57.63
840.451	45.45
840.746	57.7
841.042	48.97
841.337	52.98
841.632	50.4
841.928	58.79
842.223	53.59
842.518	47.73
842.813	58.49
843.108	52.26
843.403	60.7
843.698	60.5
843.993	59.38
844.287	50.54
844.582	49.58
844.877	43.71
845.171	49.29
845.466	58.09
845.761	48.2
846.055	56.74
846.349	54.06
846.644	55.04
846.938	41.81
847.232	63.89
847.526	54.69
847.82	47.44
848.114	46.06
848.408	51.99
848.702	44.61
848.996	50.15
849.29	54.56
849.584	57.72
849.877	36.1
850.171	42.91
850.465	51.1
850.758	54.66
851.052	55.96
851.345	79.02
851.638	46.72
851.932	22.7
852.225	43.95
852.518	41.83
852.811	50.53
853.104	23.61
853.397	75.1
853.69	38.51
853.983	37.49
854.276	48.83
854.569	42.48
854.861	36.33
855.154	56.09
855.447	66.88
855.739	47.09
856.032	48.89
856.324	61.13
856.616	39.89
856.909	50.04
857.201	67.63
857.493	33.69
857.785	25.88
858.077	54.7
858.369	41.68
858.661	75.37
858.953	42.63
859.245	38.34
859.537	72.7
859.829	63.02
860.12	59.15
860.412	33.35
860.703	59.51
860.995	52.29
861.286	44.99
861.578	58.62
861.869	42.97
862.16	49.42
862.452	53.42
862.743	51.61
863.034	48.31
863.325	35.79
863.616	61.02
863.907	37.82
864.198	62.42
864.488	50.23
864.779	38.64
865.07	35.38
865.36	15.03
865.651	49.58
865.941	61.55
866.232	35.59
866.522	16.32
866.813	32.42
867.103	52.31
867.393	26.46
867.683	44.45
867.973	18.04
868.263	41.27
868.553	53.23
868.843	77.53
869.133	56.72
869.423	54.12
869.713	46.46
870.002	96.67
870.292	36.36
870.582	47.28
870.871	50.64
871.161	28.01
871.45	16.74
871.739	27.15
872.029	43.73
872.318	49.69
872.607	76.55
872.896	39.81
873.185	13.66
873.474	19.09
873.763	78.06
874.052	46.45
874.341	52.48
874.63	57.1
874.918	43.72
875.207	58.75
875.496	55.69
875.784	48.45
876.073	11.6
876.361	6.61
876.649	46.1
876.938	37.16
877.226	73.78
877.514	55.6
877.802	52.3
878.09	86.33
878.378	79.08
878.666	35.62
878.954	23.45
879.242	18.59
879.53	75.58
879.817	41.81
880.105	36.67
880.392	51.65
880.68	74.81
880.967	44.1
881.255	50.74
881.542	78.51
881.83	19.44
882.117	67.76
882.404	35.9
882.691	40.44
882.978	50.58
883.265	33.59
883.552	55.31
883.839	61.46
884.126	76.31
884.413	63.42
884.699	73.8
884.986	65.15
885.273	61.21
885.559	61.21
885.846	61.21
