Data from 0411_chest_Reflection__1__263.txt Node

Date: Fri Dec 15 18:40:19 CST 2023
User: ToomeyLab
Spectrometer: FLMS14357
Trigger mode: 0
Integration Time (sec): 1.000000E-2
Scans to average: 100
Electric dark correction enabled: true
Nonlinearity correction enabled: false
Boxcar width: 0
XAxis mode: Wavelengths
Number of Pixels in Spectrum: 2048
>>>>>Begin Spectral Data<<<<<
189.047	-42.41
189.435	-42.41
189.823	-42.41
190.211	150.77
190.599	-280.42
190.987	23.23
191.375	-23.6
191.763	292.01
192.151	91.88
192.538	135.56
192.926	12.43
193.314	384.42
193.702	148.53
194.089	-16.6
194.477	79.33
194.864	16.41
195.252	68.58
195.639	65.8
196.027	52.66
196.414	44.52
196.801	-431.11
197.189	272.87
197.576	67.97
197.963	45.95
198.351	-35.11
198.738	0.05
199.125	-17.18
199.512	-33.16
199.899	25.11
200.286	16.06
200.673	-3.61
201.06	-8.66
201.447	-18.71
201.833	-1.63
202.22	47.2
202.607	16.02
202.994	-9.01
203.38	8.02
203.767	43.35
204.154	6.1
204.54	20.33
204.927	-29.36
205.313	-92.27
205.699	49.9
206.086	33.04
206.472	16.97
206.858	8.24
207.245	-62.86
207.631	20.2
208.017	-2.63
208.403	17.41
208.789	31.6
209.175	23.76
209.561	-31.45
209.947	8.47
210.333	-40.5
210.719	6.78
211.105	9.63
211.491	-3.43
211.876	20.82
212.262	2.51
212.648	17.48
213.034	24.35
213.419	11.56
213.805	9.46
214.19	-36.27
214.576	3.33
214.961	-13.33
215.346	-70.93
215.732	-25.56
216.117	13.19
216.502	-42.09
216.888	-16.78
217.273	23.73
217.658	1.25
218.043	32.03
218.428	-41.2
218.813	-27.74
219.198	-30.63
219.583	-1.18
219.968	10.23
220.353	-6.87
220.738	33.14
221.122	0.5
221.507	-22.81
221.892	-23.2
222.276	-11.57
222.661	4.79
223.046	17.45
223.43	25.6
223.815	9.32
224.199	-17.15
224.583	2.38
224.968	-0.72
225.352	9.73
225.736	-4.3
226.121	-5.97
226.505	2.83
226.889	9.02
227.273	-2.21
227.657	8.99
228.041	5.62
228.425	2.64
228.809	7.77
229.193	4.59
229.577	1.27
229.961	6.25
230.344	4.06
230.728	4.43
231.112	4.94
231.495	4.79
231.879	4.95
232.263	5.89
232.646	3.67
233.03	4.86
233.413	3.29
233.797	4.01
234.18	5.51
234.563	3.38
234.946	3.2
235.33	5.76
235.713	4.09
236.096	4.24
236.479	4.77
236.862	3.13
237.245	4.19
237.628	4.99
238.011	6.27
238.394	4.81
238.777	5.19
239.16	3.16
239.543	4.68
239.925	4.39
240.308	4.76
240.691	4.59
241.073	4.27
241.456	3.07
241.838	4.23
242.221	2.93
242.603	4.82
242.986	4.77
243.368	4.99
243.75	4.9
244.133	4.39
244.515	5.08
244.897	4.69
245.279	4.66
245.661	4.45
246.043	2.56
246.425	3.06
246.807	6.1
247.189	5.91
247.571	5.28
247.953	4.81
248.335	4.72
248.717	4.18
249.098	4.6
249.48	4.58
249.862	4.37
250.243	4.37
250.625	4.52
251.006	4.73
251.388	4.07
251.769	4.11
252.151	4.33
252.532	4.79
252.913	4.38
253.295	3.92
253.676	4.12
254.057	4.58
254.438	4.37
254.819	4.12
255.2	3.48
255.581	4.23
255.962	4.08
256.343	4.48
256.724	2.71
257.105	4.58
257.486	3.96
257.867	4.32
258.247	4.04
258.628	2.9
259.009	4.3
259.389	4.6
259.77	3.21
260.15	3.64
260.531	3.49
260.911	4.66
261.292	4.45
261.672	4.34
262.052	4.26
262.432	4.46
262.813	4.25
263.193	4.23
263.573	4.39
263.953	4
264.333	4.27
264.713	4.52
265.093	3.87
265.473	3.52
265.853	3.91
266.233	4.04
266.612	3.82
266.992	2.93
267.372	4.58
267.752	4.49
268.131	4.12
268.511	4.79
268.89	4.11
269.27	3.81
269.649	4.22
270.029	4.02
270.408	4.74
270.787	4.34
271.167	4.42
271.546	4.4
271.925	4.1
272.304	4.15
272.683	4.29
273.062	3.68
273.441	4.53
273.82	3.98
274.199	4.18
274.578	3.99
274.957	3.83
275.336	4.01
275.715	3.45
276.093	3.43
276.472	4.4
276.851	3.76
277.229	3.76
277.608	3.58
277.986	3.98
278.365	4.39
278.743	3.3
279.122	3.57
279.5	3.99
279.878	4.56
280.257	3.61
280.635	3.38
281.013	4.01
281.391	4.61
281.769	4.6
282.147	3.7
282.525	3.9
282.903	3.18
283.281	3.78
283.659	4.01
284.037	4.29
284.415	3.87
284.792	4.32
285.17	3.41
285.548	3.91
285.925	3.73
286.303	3.95
286.68	3.95
287.058	3.69
287.435	3.79
287.813	4.14
288.19	4.14
288.567	3.9
288.945	4.23
289.322	3.97
289.699	3.62
290.076	3.75
290.453	3.98
290.83	3.2
291.207	3.7
291.584	3.74
291.961	4.16
292.338	3.84
292.715	4.55
293.092	3.67
293.469	3.6
293.845	4.45
294.222	3.26
294.599	4.1
294.975	3.88
295.352	4.22
295.728	3.65
296.105	3.84
296.481	3.91
296.858	3.86
297.234	3.81
297.61	3.81
297.986	3.86
298.363	3.9
298.739	3.81
299.115	3.63
299.491	3.59
299.867	3.96
300.243	3.71
300.619	3.92
300.995	3.68
301.371	4.16
301.746	3.46
302.122	4.23
302.498	3.5
302.874	3.42
303.249	3.95
303.625	3.7
304	4.32
304.376	3.46
304.751	3.55
305.127	4.52
305.502	3.23
305.878	3.5
306.253	4.03
306.628	4.26
307.003	3.78
307.378	4.13
307.754	4.22
308.129	3.2
308.504	3.65
308.879	3.37
309.254	4.56
309.629	4.06
310.003	3.94
310.378	4.26
310.753	4.61
311.128	3.76
311.502	4.38
311.877	4.38
312.252	3.24
312.626	3.88
313.001	3.63
313.375	4.3
313.75	3.69
314.124	3.83
314.498	3.58
314.873	3.83
315.247	3.7
315.621	3.62
315.995	3.43
316.369	3.74
316.743	3.55
317.117	3.97
317.491	3.51
317.865	3.36
318.239	3.57
318.613	4.27
318.987	3.95
319.361	3.41
319.734	3.92
320.108	4.07
320.482	3.58
320.855	4.3
321.229	3.97
321.602	3.55
321.976	4.32
322.349	4.4
322.723	3.89
323.096	4.49
323.469	3.55
323.843	3.82
324.216	3.85
324.589	3.52
324.962	3.52
325.335	3.19
325.708	3.86
326.081	3.85
326.454	3.68
326.827	3.59
327.2	3.74
327.573	3.65
327.945	3.41
328.318	3.39
328.691	3.68
329.063	3.72
329.436	3.58
329.809	4.17
330.181	3.76
330.553	4.29
330.926	3.96
331.298	4.01
331.671	3.52
332.043	3.95
332.415	3.95
332.787	3.62
333.159	4.68
333.532	3.91
333.904	3.9
334.276	3.75
334.648	3.82
335.02	3.67
335.391	3.45
335.763	3.43
336.135	4.03
336.507	4.2
336.879	3.83
337.25	3.48
337.622	3.31
337.993	4.03
338.365	4.05
338.736	4.57
339.108	3.83
339.479	3.82
339.851	3.76
340.222	3.42
340.593	3.67
340.964	3.37
341.336	4.45
341.707	3.25
342.078	3.72
342.449	4.11
342.82	3.62
343.191	3.74
343.562	4.15
343.933	3.98
344.303	3.59
344.674	4.05
345.045	3.82
345.416	4.4
345.786	3.72
346.157	3.96
346.527	3.78
346.898	3.38
347.268	4.17
347.639	3.98
348.009	3.87
348.38	3.66
348.75	3.88
349.12	3.82
349.49	4.47
349.861	3.65
350.231	3.54
350.601	4.08
350.971	4.55
351.341	3.7
351.711	3.72
352.081	3.8
352.45	4.12
352.82	3.87
353.19	4.1
353.56	3.56
353.929	3.88
354.299	3.98
354.669	3.54
355.038	3.91
355.408	3.75
355.777	4.05
356.147	3.91
356.516	4.09
356.885	4.17
357.254	3.83
357.624	4.11
357.993	3.88
358.362	3.89
358.731	3.66
359.1	3.77
359.469	3.59
359.838	4.08
360.207	3.85
360.576	3.79
360.945	3.89
361.314	4.28
361.682	3.73
362.051	3.68
362.42	4.13
362.788	3.86
363.157	4.13
363.525	4.07
363.894	3.99
364.262	4.12
364.631	3.93
364.999	3.94
365.367	3.71
365.735	4.49
366.104	3.95
366.472	4.03
366.84	4.01
367.208	3.82
367.576	4.11
367.944	4.38
368.312	3.66
368.68	3.52
369.048	4.08
369.416	4.21
369.783	3.78
370.151	4.19
370.519	4.32
370.886	4.04
371.254	3.79
371.621	4.1
371.989	3.97
372.356	3.81
372.724	4.3
373.091	3.66
373.458	4.15
373.826	3.87
374.193	4.06
374.56	4.3
374.927	4.11
375.294	4.09
375.661	3.9
376.028	3.89
376.395	3.61
376.762	4.37
377.129	4.1
377.496	3.92
377.863	3.9
378.229	3.98
378.596	4.28
378.963	3.92
379.329	4.15
379.696	4.07
380.062	3.92
380.429	4.09
380.795	4.13
381.161	4.18
381.528	4.42
381.894	4.01
382.26	3.72
382.626	4.25
382.993	3.59
383.359	4.23
383.725	3.77
384.091	4.19
384.457	4.1
384.823	3.95
385.188	4.14
385.554	3.73
385.92	4.19
386.286	4.11
386.651	4.17
387.017	4.47
387.383	4.15
387.748	4.09
388.114	4.08
388.479	3.99
388.845	4.07
389.21	4.26
389.575	4.23
389.94	4.23
390.306	4.2
390.671	4.27
391.036	3.81
391.401	4.01
391.766	3.78
392.131	3.66
392.496	4.11
392.861	4.28
393.226	4.37
393.591	4.35
393.956	4.1
394.32	4.17
394.685	3.89
395.05	4.24
395.414	4.2
395.779	3.9
396.143	4.16
396.508	4.28
396.872	4.16
397.236	4.35
397.601	3.79
397.965	3.99
398.329	4.08
398.694	4.24
399.058	4.2
399.422	3.99
399.786	4.11
400.15	4.21
400.514	4.3
400.878	4.24
401.242	4.45
401.605	4.36
401.969	4.08
402.333	4.32
402.697	4.16
403.06	4.23
403.424	4.5
403.787	4.09
404.151	4.17
404.514	4.15
404.878	4.04
405.241	4.42
405.604	4.31
405.968	4.23
406.331	4.28
406.694	4.36
407.057	4.3
407.42	4.26
407.783	4.04
408.146	4.34
408.509	4.24
408.872	4.11
409.235	4.43
409.598	4.38
409.961	4.15
410.323	4.14
410.686	4.43
411.049	4.31
411.411	4.37
411.774	4.06
412.136	4.31
412.499	4.37
412.861	4.28
413.223	4.4
413.586	4.23
413.948	4.32
414.31	4.35
414.672	4.4
415.035	4.1
415.397	4.38
415.759	4.11
416.121	4.54
416.483	4.22
416.845	4.1
417.206	4.3
417.568	4.18
417.93	4
418.292	4.19
418.653	4.3
419.015	4.3
419.377	4.38
419.738	4.22
420.1	4.24
420.461	4.3
420.822	4.35
421.184	4.1
421.545	4.22
421.906	4.19
422.267	4.28
422.629	4.28
422.99	4.23
423.351	4.2
423.712	4.24
424.073	4.27
424.434	4.25
424.795	4.09
425.155	4.27
425.516	4.1
425.877	4.19
426.238	4.17
426.598	4.26
426.959	4.31
427.32	4.22
427.68	4.12
428.041	4.17
428.401	4.26
428.761	4.25
429.122	4.3
429.482	4.3
429.842	4.35
430.202	4.39
430.563	4.27
430.923	4.28
431.283	4.49
431.643	4.33
432.003	4.58
432.363	4.46
432.722	4.28
433.082	4.26
433.442	4.25
433.802	4.36
434.161	4.28
434.521	4.43
434.881	4.54
435.24	4.35
435.6	4.3
435.959	4.32
436.319	4.27
436.678	4.41
437.037	4.37
437.396	4.59
437.756	4.44
438.115	4.43
438.474	4.47
438.833	4.16
439.192	4.31
439.551	4.5
439.91	4.45
440.269	4.32
440.628	4.34
440.987	4.39
441.345	4.29
441.704	4.44
442.063	4.31
442.421	4.4
442.78	4.32
443.138	4.27
443.497	4.36
443.855	4.31
444.214	4.33
444.572	4.52
444.93	4.43
445.288	4.48
445.647	4.45
446.005	4.36
446.363	4.52
446.721	4.41
447.079	4.28
447.437	4.26
447.795	4.41
448.153	4.29
448.51	4.3
448.868	4.3
449.226	4.34
449.584	4.35
449.941	4.53
450.299	4.39
450.656	4.38
451.014	4.53
451.371	4.43
451.729	4.37
452.086	4.58
452.443	4.36
452.801	4.45
453.158	4.36
453.515	4.35
453.872	4.53
454.229	4.35
454.586	4.46
454.943	4.51
455.3	4.62
455.657	4.41
456.014	4.26
456.371	4.41
456.727	4.51
457.084	4.7
457.441	4.68
457.797	4.3
458.154	4.66
458.51	4.38
458.867	4.59
459.223	4.56
459.58	4.44
459.936	4.46
460.292	4.52
460.648	4.47
461.005	4.4
461.361	4.49
461.717	4.43
462.073	4.35
462.429	4.42
462.785	4.57
463.141	4.51
463.496	4.61
463.852	4.58
464.208	4.51
464.564	4.86
464.919	4.68
465.275	4.59
465.631	4.78
465.986	4.75
466.342	4.36
466.697	4.43
467.052	4.55
467.408	4.63
467.763	4.63
468.118	4.41
468.473	4.48
468.829	4.47
469.184	4.36
469.539	4.6
469.894	4.41
470.249	4.68
470.603	4.74
470.958	4.81
471.313	4.71
471.668	4.75
472.023	4.63
472.377	4.57
472.732	4.53
473.086	4.57
473.441	4.67
473.795	4.79
474.15	4.52
474.504	4.52
474.859	4.62
475.213	4.56
475.567	4.51
475.921	4.4
476.275	4.58
476.63	4.79
476.984	4.75
477.338	4.77
477.692	4.62
478.045	4.61
478.399	4.66
478.753	4.59
479.107	4.65
479.461	4.53
479.814	4.7
480.168	4.64
480.521	4.61
480.875	4.66
481.228	4.59
481.582	4.65
481.935	4.7
482.289	4.65
482.642	4.67
482.995	4.58
483.348	4.49
483.701	4.54
484.055	4.61
484.408	4.66
484.761	4.47
485.114	4.46
485.466	4.34
485.819	4.29
486.172	4.33
486.525	4.38
486.878	4.47
487.23	4.49
487.583	4.6
487.936	4.54
488.288	4.55
488.641	4.53
488.993	4.45
489.345	4.42
489.698	4.42
490.05	4.4
490.402	4.46
490.754	4.49
491.107	4.59
491.459	4.6
491.811	4.62
492.163	4.68
492.515	4.62
492.866	4.63
493.218	4.54
493.57	4.47
493.922	4.51
494.274	4.59
494.625	4.7
494.977	4.69
495.328	4.75
495.68	4.77
496.031	4.8
496.383	4.66
496.734	4.82
497.086	4.74
497.437	4.87
497.788	4.77
498.139	4.82
498.49	4.81
498.842	4.64
499.193	4.69
499.544	4.83
499.894	4.71
500.245	4.77
500.596	4.78
500.947	4.79
501.298	4.78
501.648	4.91
501.999	4.88
502.35	4.89
502.7	4.81
503.051	4.62
503.401	4.74
503.752	5.01
504.102	4.78
504.452	4.87
504.803	4.74
505.153	4.96
505.503	4.89
505.853	4.85
506.203	4.91
506.553	4.83
506.903	4.83
507.253	4.88
507.603	4.85
507.953	4.98
508.303	5.02
508.652	4.79
509.002	4.91
509.352	4.91
509.701	4.94
510.051	4.84
510.4	4.75
510.75	4.81
511.099	4.97
511.449	4.9
511.798	4.91
512.147	4.88
512.496	4.87
512.846	4.87
513.195	4.92
513.544	4.82
513.893	5
514.242	4.86
514.591	5.04
514.939	5.06
515.288	4.89
515.637	5.08
515.986	5.06
516.334	4.99
516.683	5.04
517.032	5.03
517.38	5
517.729	4.95
518.077	4.93
518.426	5.02
518.774	5.04
519.122	4.87
519.47	4.99
519.819	4.82
520.167	4.94
520.515	4.96
520.863	5.01
521.211	4.96
521.559	5.02
521.907	4.99
522.255	4.98
522.602	5.08
522.95	5.04
523.298	5.1
523.645	5.22
523.993	5.08
524.341	5.19
524.688	5.1
525.036	5.2
525.383	5.07
525.73	5.27
526.078	5.07
526.425	5.14
526.772	5.15
527.119	5.08
527.466	5.03
527.814	5.11
528.161	5.04
528.508	5.1
528.854	5.08
529.201	5.07
529.548	5.04
529.895	5.03
530.242	4.85
530.588	4.85
530.935	4.94
531.282	5.01
531.628	5.04
531.975	5.1
532.321	5.15
532.667	5.17
533.014	5.26
533.36	5.16
533.706	5.16
534.052	5.26
534.399	5.17
534.745	5.12
535.091	5.1
535.437	5.08
535.783	5.13
536.129	5.31
536.474	5.23
536.82	5.4
537.166	5.45
537.512	5.38
537.857	5.32
538.203	5.35
538.549	5.27
538.894	5.26
539.239	5.39
539.585	5.43
539.93	5.35
540.276	5.44
540.621	5.57
540.966	5.46
541.311	5.39
541.656	5.34
542.001	5.32
542.346	5.49
542.691	5.34
543.036	5.26
543.381	5.2
543.726	5.3
544.071	5.47
544.415	5.52
544.76	5.42
545.105	5.47
545.449	5.48
545.794	5.63
546.138	5.52
546.483	5.65
546.827	5.7
547.171	5.65
547.516	5.77
547.86	5.53
548.204	5.58
548.548	5.52
548.892	5.66
549.236	5.71
549.58	5.66
549.924	5.65
550.268	5.84
550.612	5.76
550.956	6
551.3	5.79
551.643	5.92
551.987	5.97
552.33	5.86
552.674	5.93
553.017	5.92
553.361	5.9
553.704	6.23
554.048	5.88
554.391	5.82
554.734	5.84
555.077	5.85
555.42	5.73
555.764	5.95
556.107	5.77
556.45	5.95
556.793	5.89
557.135	6.14
557.478	6.06
557.821	6.24
558.164	5.94
558.507	6.11
558.849	6.07
559.192	6.21
559.534	6.2
559.877	6.34
560.219	5.99
560.562	6.35
560.904	6.24
561.246	6.15
561.589	6.36
561.931	6.21
562.273	6.09
562.615	6.2
562.957	6.21
563.299	6.1
563.641	6.2
563.983	6.36
564.325	6.24
564.667	6.21
565.008	6.17
565.35	6.44
565.692	6.37
566.033	6.35
566.375	6.47
566.716	6.63
567.058	6.55
567.399	6.43
567.741	6.22
568.082	6.51
568.423	6.32
568.764	6.41
569.105	6.58
569.447	6.67
569.788	6.46
570.129	6.56
570.47	6.44
570.811	6.61
571.151	6.6
571.492	6.62
571.833	6.57
572.174	6.59
572.514	6.76
572.855	6.75
573.195	6.79
573.536	6.67
573.876	6.52
574.217	6.58
574.557	6.91
574.898	6.87
575.238	6.94
575.578	6.8
575.918	6.89
576.258	7.08
576.598	6.94
576.938	6.86
577.278	6.94
577.618	7.06
577.958	6.87
578.298	6.85
578.638	6.96
578.977	6.98
579.317	6.93
579.657	7.02
579.996	7.18
580.336	7.08
580.675	7.08
581.014	7.32
581.354	7.4
581.693	7.13
582.032	7.09
582.372	7.17
582.711	7.61
583.05	7.07
583.389	7.22
583.728	7.26
584.067	7.25
584.406	7.57
584.745	7.3
585.083	7.43
585.422	7.56
585.761	7.53
586.1	7.64
586.438	7.39
586.777	7.64
587.115	7.73
587.454	7.64
587.792	7.62
588.13	7.87
588.469	7.54
588.807	7.69
589.145	7.32
589.483	7.59
589.821	7.64
590.159	7.91
590.497	8.13
590.835	8.02
591.173	7.87
591.511	7.9
591.849	7.83
592.187	7.93
592.524	7.88
592.862	7.7
593.2	8.01
593.537	7.94
593.875	7.83
594.212	7.9
594.55	8.1
594.887	8.35
595.224	8.01
595.561	7.89
595.899	8.02
596.236	7.94
596.573	8.17
596.91	7.97
597.247	7.95
597.584	8.45
597.921	8.19
598.258	7.98
598.594	8.1
598.931	7.97
599.268	8.25
599.604	8.2
599.941	8.36
600.277	8.32
600.614	8.39
600.95	8.32
601.287	8.4
601.623	8.53
601.959	8.45
602.296	8.48
602.632	8.84
602.968	8.57
603.304	8.79
603.64	8.68
603.976	8.58
604.312	8.56
604.648	8.56
604.984	8.65
605.319	8.69
605.655	8.51
605.991	8.63
606.326	8.75
606.662	8.61
606.998	8.64
607.333	8.86
607.668	8.8
608.004	8.93
608.339	9
608.674	9.03
609.01	8.93
609.345	8.71
609.68	9.15
610.015	9.06
610.35	9.15
610.685	8.83
611.02	9.08
611.355	9.05
611.689	8.89
612.024	9.12
612.359	9.18
612.694	9.39
613.028	9.32
613.363	9.23
613.697	9.31
614.032	9.49
614.366	9.18
614.7	9.48
615.035	9.66
615.369	9.37
615.703	9.68
616.037	9.55
616.371	9.04
616.705	9.05
617.039	9.87
617.373	9.2
617.707	9.54
618.041	9.45
618.375	9.38
618.709	10.03
619.042	9.48
619.376	9.98
619.71	9.8
620.043	10.23
620.377	9.87
620.71	9.98
621.043	9.77
621.377	9.87
621.71	10.03
622.043	9.79
622.376	9.84
622.709	10.12
623.043	10.42
623.376	10.27
623.709	9.67
624.041	10.37
624.374	10.24
624.707	10.04
625.04	10.28
625.373	10.05
625.705	10.13
626.038	10.27
626.37	10.15
626.703	10.29
627.035	10.47
627.368	10.64
627.7	10.26
628.032	10.26
628.365	10.62
628.697	10.61
629.029	10.39
629.361	10.51
629.693	10.61
630.025	10.65
630.357	11
630.689	10.86
631.021	10.63
631.353	10.38
631.684	10.79
632.016	10.56
632.348	10.99
632.679	10.85
633.011	10.85
633.342	11.26
633.674	10.91
634.005	11.46
634.336	10.92
634.668	11.51
634.999	11
635.33	11.72
635.661	11.1
635.992	11.01
636.323	11.19
636.654	11.44
636.985	11.17
637.316	11.11
637.647	11.13
637.977	11.46
638.308	11.67
638.639	10.76
638.969	11.29
639.3	10.94
639.63	10.98
639.961	11.69
640.291	11.19
640.622	11.73
640.952	11.6
641.282	11.99
641.612	11.45
641.943	11.41
642.273	11.55
642.603	11.71
642.933	11.83
643.263	11.8
643.592	11.97
643.922	11.66
644.252	11.73
644.582	11.51
644.911	12.02
645.241	11.95
645.571	12.03
645.9	11.39
646.23	11.88
646.559	12.81
646.888	11.69
647.218	12.17
647.547	12.01
647.876	12.13
648.205	12.31
648.534	11.93
648.863	12.03
649.192	12.41
649.521	12.27
649.85	12.24
650.179	12.43
650.508	12.21
650.837	12.04
651.165	12.21
651.494	12.57
651.822	12.43
652.151	12.12
652.479	12.46
652.808	12.23
653.136	12.43
653.465	12.63
653.793	12.26
654.121	12.07
654.449	13.02
654.777	12.83
655.105	13.1
655.433	12.21
655.761	12.75
656.089	12.56
656.417	13.34
656.745	12.74
657.073	12.78
657.4	13.69
657.728	13.2
658.056	13.1
658.383	12.97
658.711	13.17
659.038	13.38
659.365	13.39
659.693	13.56
660.02	13.14
660.347	13.08
660.674	13.39
661.001	13.12
661.329	12.57
661.656	13.11
661.982	13.57
662.309	13.22
662.636	13
662.963	13.78
663.29	13.49
663.616	13.82
663.943	13.71
664.27	13.72
664.596	13.82
664.923	13.42
665.249	13.44
665.576	13.69
665.902	13.89
666.228	13.69
666.554	13.56
666.881	13.2
667.207	14.21
667.533	13.88
667.859	14.42
668.185	14.4
668.511	13.27
668.837	12.89
669.162	14.44
669.488	13.49
669.814	13.99
670.139	14.46
670.465	14.36
670.791	14.52
671.116	14.32
671.442	13.95
671.767	14.06
672.092	14.52
672.418	14.59
672.743	14.45
673.068	13.94
673.393	14.38
673.718	14.59
674.043	14.55
674.368	14.19
674.693	15.44
675.018	14.45
675.343	14.58
675.667	15.01
675.992	15.13
676.317	15.12
676.641	15.04
676.966	15.01
677.29	14.86
677.615	14.86
677.939	14.86
678.264	15.42
678.588	15.09
678.912	14.85
679.236	15.16
679.56	14.27
679.885	15.21
680.209	14.52
680.532	14.65
680.856	15.78
681.18	14.96
681.504	14.76
681.828	15.55
682.152	14.95
682.475	15.54
682.799	15.39
683.122	15.24
683.446	14.67
683.769	15.91
684.093	15.33
684.416	15.88
684.739	15.21
685.062	15.57
685.386	15.83
685.709	14.89
686.032	15.38
686.355	15.55
686.678	15.84
687.001	15.66
687.324	15.85
687.646	15.32
687.969	15.25
688.292	16.23
688.614	15.31
688.937	16.36
689.26	15.69
689.582	16.42
689.904	15.83
690.227	16.26
690.549	16.48
690.871	17.36
691.194	16.09
691.516	16.2
691.838	15.91
692.16	15.68
692.482	16.45
692.804	16
693.126	17.03
693.448	16.42
693.769	17.06
694.091	16.8
694.413	16.78
694.735	15.79
695.056	16.98
695.378	16.75
695.699	16.37
696.021	15.63
696.342	16.31
696.663	16.59
696.984	16.67
697.306	15.46
697.627	17.08
697.948	16.96
698.269	17.33
698.59	17.06
698.911	16.28
699.232	16.26
699.553	17.38
699.873	17.87
700.194	17.23
700.515	16.98
700.835	17.04
701.156	16.92
701.477	17.08
701.797	16.46
702.117	18.05
702.438	17.15
702.758	16.4
703.078	17.16
703.398	16.61
703.719	17.14
704.039	16.94
704.359	18.36
704.679	17.6
704.999	16.89
705.319	17.02
705.638	16.68
705.958	16.62
706.278	17.53
706.597	17.17
706.917	16.94
707.237	17.61
707.556	18.53
707.876	17.89
708.195	16.85
708.514	17.85
708.834	17.57
709.153	17.76
709.472	18.97
709.791	18.12
710.11	17.95
710.429	17.59
710.748	18.33
711.067	18.48
711.386	18.63
711.705	18.35
712.023	19.29
712.342	17.01
712.661	17.27
712.979	18.55
713.298	18.39
713.616	19.2
713.935	18.09
714.253	17.55
714.572	18.59
714.89	19.15
715.208	19.88
715.526	19
715.844	20.01
716.162	18.78
716.48	18.93
716.798	19.21
717.116	18.66
717.434	18.45
717.752	18.06
718.069	18.91
718.387	18.47
718.705	20.2
719.022	18.86
719.34	18.94
719.657	18.42
719.975	18.28
720.292	19.4
720.609	19.19
720.927	20
721.244	20.29
721.561	20.17
721.878	20.48
722.195	17.35
722.512	19.11
722.829	19.77
723.146	18.84
723.463	20.43
723.779	18.34
724.096	19.57
724.413	19.29
724.729	19.26
725.046	18.07
725.362	20.05
725.679	19.17
725.995	18.54
726.311	20.19
726.628	18.89
726.944	20.37
727.26	19.85
727.576	19.84
727.892	20.39
728.208	18.9
728.524	19.03
728.84	18.76
729.156	19.4
729.472	19.26
729.787	18.98
730.103	19.92
730.419	18.92
730.734	19.95
731.05	20.23
731.365	20.07
731.681	20.3
731.996	20.29
732.311	20.87
732.626	21.27
732.942	19.1
733.257	19.77
733.572	18.92
733.887	20.63
734.202	20.83
734.517	21.1
734.832	20.58
735.146	20.68
735.461	20.06
735.776	19.86
736.091	21.05
736.405	21.76
736.72	20.24
737.034	21.22
737.349	22.76
737.663	19.96
737.977	21.99
738.292	21.53
738.606	22.69
738.92	21.7
739.234	20.05
739.548	21.68
739.862	20.12
740.176	21.67
740.49	22.52
740.804	23.49
741.117	20.46
741.431	20.67
741.745	21.05
742.058	21.23
742.372	21.31
742.685	21.9
742.999	19.45
743.312	20.86
743.626	20.74
743.939	20.62
744.252	22.13
744.565	20.2
744.878	22.75
745.191	22.36
745.505	21.6
745.817	23.03
746.13	21.05
746.443	23.07
746.756	21.91
747.069	21.14
747.381	23.07
747.694	21.67
748.007	21.28
748.319	20.75
748.632	24.13
748.944	22.93
749.256	21.57
749.569	21.11
749.881	23.12
750.193	21.79
750.505	21.06
750.817	21.24
751.129	24.05
751.441	21.49
751.753	22.96
752.065	22.6
752.377	22.57
752.689	23.44
753	21.91
753.312	23.86
753.624	22.72
753.935	25.02
754.247	22.48
754.558	22.38
754.869	22.54
755.181	22.96
755.492	22.55
755.803	22.98
756.114	22.05
756.425	22.64
756.736	22.34
757.047	24.25
757.358	23.31
757.669	22.4
757.98	23.75
758.291	21.95
758.601	22.32
758.912	21.99
759.223	23.57
759.533	22.46
759.844	22.39
760.154	21.48
760.464	24.4
760.775	23.93
761.085	22.42
761.395	24.71
761.705	22.24
762.016	22.58
762.326	23.36
762.636	23.71
762.945	24.72
763.255	24.78
763.565	22.49
763.875	25.71
764.185	20.61
764.494	25.25
764.804	24.94
765.113	22.95
765.423	24.57
765.732	23.35
766.042	23.43
766.351	24.01
766.66	24.26
766.97	25.41
767.279	23.78
767.588	25.83
767.897	24.82
768.206	23.79
768.515	24.93
768.824	24.3
769.133	24.73
769.441	24.2
769.75	24.12
770.059	25.28
770.367	26.26
770.676	24.67
770.984	25.39
771.293	22.57
771.601	26.64
771.91	23.41
772.218	25.61
772.526	25.97
772.834	22.39
773.142	22.77
773.45	24.24
773.758	23.43
774.066	23.96
774.374	24.74
774.682	23.24
774.99	25.23
775.298	22.47
775.605	25.61
775.913	24.53
776.22	28.5
776.528	24.17
776.835	24.56
777.143	24.8
777.45	27.13
777.757	28.26
778.065	24.4
778.372	24.09
778.679	23.7
778.986	22.03
779.293	23.85
779.6	27.16
779.907	24.65
780.214	28.49
780.52	25.79
780.827	28.76
781.134	28.38
781.44	22.07
781.747	23.92
782.053	26.77
782.36	23.16
782.666	28.87
782.973	24.8
783.279	25.29
783.585	25.26
783.891	27.79
784.197	24.6
784.503	27.01
784.809	19.84
785.115	27.15
785.421	26.73
785.727	27.76
786.033	28.1
786.339	26.78
786.644	26.36
786.95	27.14
787.255	27.17
787.561	31.07
787.866	27.02
788.172	25.05
788.477	23.85
788.782	29.47
789.088	23.17
789.393	24.66
789.698	22.28
790.003	25.97
790.308	25.21
790.613	25.23
790.918	29.91
791.223	26.03
791.527	25.72
791.832	28.03
792.137	21.5
792.441	26.57
792.746	29.72
793.05	23.58
793.355	27.23
793.659	33.35
793.963	28.11
794.268	26.04
794.572	27.41
794.876	29.66
795.18	26.64
795.484	25.87
795.788	25.44
796.092	27.33
796.396	27.05
796.7	24.46
797.004	27.9
797.307	23.19
797.611	26.96
797.915	24.2
798.218	26.36
798.522	27.68
798.825	23.83
799.128	28.3
799.432	28.48
799.735	26.79
800.038	30.21
800.341	28.5
800.644	28.05
800.947	29.14
801.25	27.61
801.553	26.15
801.856	21.54
802.159	23.64
802.462	29.75
802.764	25.66
803.067	24.48
803.37	25.2
803.672	25.54
803.975	25.13
804.277	23.82
804.579	28.71
804.882	28.06
805.184	28.71
805.486	27.26
805.788	29.08
806.09	29.71
806.392	27.04
806.694	28.33
806.996	29.71
807.298	27.42
807.6	27.91
807.902	32.87
808.203	26.56
808.505	29.53
808.807	27.44
809.108	22.7
809.409	29.63
809.711	23.27
810.012	22.34
810.313	30.96
810.615	29.57
810.916	24.72
811.217	30.54
811.518	33.73
811.819	27.04
812.12	27.99
812.421	25.74
812.722	32.14
813.023	32.08
813.323	25.27
813.624	28.41
813.925	31.47
814.225	25.03
814.526	31.03
814.826	33.22
815.126	20.78
815.427	26.61
815.727	28.38
816.027	30.75
816.327	22.43
816.627	28.64
816.927	31.07
817.227	21.77
817.527	29.6
817.827	30.39
818.127	25.22
818.427	30.22
818.727	30.91
819.026	33.41
819.326	37.16
819.625	25.88
819.925	28.19
820.224	29.2
820.524	23.73
820.823	35.42
821.122	32.08
821.421	32.04
821.72	24.37
822.019	30.87
822.318	36.03
822.617	28.69
822.916	32.11
823.215	30.15
823.514	31.16
823.813	33.17
824.111	31.04
824.41	32.02
824.709	32.48
825.007	31.95
825.306	31.31
825.604	32.29
825.902	31.87
826.201	32.81
826.499	32.96
826.797	31.86
827.095	32.43
827.393	31.82
827.691	33.57
827.989	31.86
828.287	33.51
828.585	32.98
828.882	30.77
829.18	34.01
829.478	32.42
829.775	34.85
830.073	35.37
830.37	34.11
830.668	30.7
830.965	33.93
831.263	29.65
831.56	32.31
831.857	31.68
832.154	32.08
832.451	33.89
832.748	34.06
833.045	30.26
833.342	34.33
833.639	31.66
833.936	28.48
834.232	33.47
834.529	31.46
834.826	32.67
835.122	32.08
835.419	32.54
835.715	30.74
836.012	32.48
836.308	29.44
836.604	29.96
836.901	32.2
837.197	29.44
837.493	34.59
837.789	29.3
838.085	33.99
838.381	27.96
838.677	35.08
838.972	31.72
839.268	30.35
839.564	32.23
839.86	30.08
840.155	31.09
840.451	25.54
840.746	35.57
841.042	33.55
841.337	34.25
841.632	38.45
841.928	49.74
842.223	29.3
842.518	25.31
842.813	38.42
843.108	23.01
843.403	40.85
843.698	27.26
843.993	25.95
844.287	30.35
844.582	25.25
844.877	27.92
845.171	26.71
845.466	30.03
845.761	23.92
846.055	35.28
846.349	32.21
846.644	40.23
846.938	20.2
847.232	27.83
847.526	20.18
847.82	25.62
848.114	8.32
848.408	37.32
848.702	44.61
848.996	37.58
849.29	39.97
849.584	41.28
849.877	10.68
850.171	36.4
850.465	22.38
850.758	38.76
851.052	15.77
851.345	33.94
851.638	41.69
851.932	20.99
852.225	1.86
852.518	38.87
852.811	21.61
853.104	-7.76
853.397	56.15
853.69	31.35
853.983	10.83
854.276	29.17
854.569	13.67
854.861	20.85
855.154	21.03
855.447	35.01
855.739	36.97
856.032	16.15
856.324	35.05
856.616	29.87
856.909	22.7
857.201	54.23
857.493	19.15
857.785	5.35
858.077	26.38
858.369	40.49
858.661	32.03
858.953	13.55
859.245	13.55
859.537	30.9
859.829	28.48
860.12	36.11
860.412	9.13
860.703	-0.87
860.995	25.12
861.286	33.94
861.578	59.82
861.869	33.84
862.16	40.25
862.452	41.55
862.743	17.11
863.034	25.02
863.325	51.78
863.616	8.1
863.907	13.05
864.198	29.95
864.488	36.92
864.779	14.32
865.07	26.26
865.36	-1.5
865.651	8.04
865.941	41.22
866.232	9.2
866.522	-7.35
866.813	35.36
867.103	36.76
867.393	9.1
867.683	44.9
867.973	7.37
868.263	17.84
868.553	47.89
868.843	37.79
869.133	-4.04
869.423	38.2
869.713	29.26
870.002	58.79
870.292	31.34
870.582	35.34
870.871	-0.88
871.161	19.7
871.45	33.7
871.739	26.28
872.029	16.18
872.318	37.94
872.607	40.87
872.896	2.52
873.185	13.51
873.474	-37.19
873.763	34.8
874.052	-2.63
874.341	29.15
874.63	38.94
874.918	45.3
875.207	30.48
875.496	20.79
875.784	11.37
876.073	5.72
876.361	-12.58
876.649	0.83
876.938	6.78
877.226	43.43
877.514	46.51
877.802	16.28
878.09	68.87
878.378	50.74
878.666	67.67
878.954	20.16
879.242	34.36
879.53	45.11
879.817	19.19
880.105	16.46
880.392	26.12
880.68	11.12
880.967	54.75
881.255	27.77
881.542	11.68
881.83	-20.91
882.117	43.34
882.404	13.51
882.691	38.34
882.978	30.23
883.265	26.31
883.552	36.17
883.839	45.29
884.126	22.13
884.413	44.77
884.699	42.61
884.986	46.75
885.273	41.57
885.559	41.57
885.846	41.57
