Data from 0411_crown_Reflection__0__267.txt Node

Date: Fri Dec 15 18:41:37 CST 2023
User: ToomeyLab
Spectrometer: FLMS14357
Trigger mode: 0
Integration Time (sec): 1.000000E-2
Scans to average: 100
Electric dark correction enabled: true
Nonlinearity correction enabled: false
Boxcar width: 0
XAxis mode: Wavelengths
Number of Pixels in Spectrum: 2048
>>>>>Begin Spectral Data<<<<<
189.047	-134.74
189.435	-134.74
189.823	-134.74
190.211	123.01
190.599	-44.53
190.987	58.92
191.375	-4.27
191.763	-184.62
192.151	-157.87
192.538	110.93
192.926	-79.24
193.314	220.36
193.702	112.3
194.089	-92.8
194.477	-3.51
194.864	-222.32
195.252	39.38
195.639	68.2
196.027	-99.93
196.414	27.92
196.801	-267.28
197.189	51.1
197.576	127
197.963	-544.27
198.351	-81.64
198.738	-6.39
199.125	36.73
199.512	-37.94
199.899	41.42
200.286	6.89
200.673	-2.67
201.06	-16.52
201.447	-55.44
201.833	-11.13
202.22	57.54
202.607	35.17
202.994	-27.25
203.38	-3.3
203.767	-18.91
204.154	4.03
204.54	19.54
204.927	-12.98
205.313	-52.06
205.699	7.99
206.086	33.88
206.472	-15.25
206.858	-11.09
207.245	7.46
207.631	-2.23
208.017	-1.66
208.403	2.19
208.789	12.62
209.175	23.2
209.561	-19.75
209.947	-45.61
210.333	-23.08
210.719	18.83
211.105	2.58
211.491	-106.78
211.876	4.47
212.262	33.09
212.648	1.13
213.034	12.87
213.419	-9.38
213.805	-35.04
214.19	-3.15
214.576	1.92
214.961	-53.73
215.346	-72.04
215.732	-21.69
216.117	5.05
216.502	-47.52
216.888	-39.32
217.273	36.86
217.658	-50.85
218.043	9.2
218.428	-33.63
218.813	-10.67
219.198	-17.62
219.583	-2.29
219.968	-21.99
220.353	-1.88
220.738	-5.64
221.122	-20.38
221.507	-13.69
221.892	-42.51
222.276	-13.89
222.661	7.34
223.046	6.98
223.43	4.26
223.815	4.26
224.199	-6.32
224.583	-7.4
224.968	-3.15
225.352	6.39
225.736	-6.89
226.121	-13.99
226.505	1.72
226.889	4.89
227.273	1.29
227.657	8.99
228.041	3.6
228.425	2.41
228.809	1.74
229.193	0.38
229.577	3.75
229.961	3.85
230.344	3.17
230.728	3.86
231.112	4.81
231.495	3.81
231.879	2.68
232.263	4.06
232.646	3.49
233.03	3.99
233.413	3.34
233.797	3.01
234.18	2.22
234.563	6.3
234.946	-0.17
235.33	5.29
235.713	2.98
236.096	3.27
236.479	4.33
236.862	3.62
237.245	3.89
237.628	4.36
238.011	3.61
238.394	4
238.777	4.42
239.16	0.65
239.543	3.53
239.925	4.29
240.308	4.6
240.691	5.14
241.073	4.09
241.456	4.31
241.838	3.06
242.221	3.06
242.603	3.84
242.986	4.08
243.368	4.7
243.75	4.07
244.133	4.12
244.515	3.87
244.897	4.46
245.279	4.25
245.661	4.09
246.043	3.52
246.425	3.56
246.807	4.7
247.189	4.55
247.571	3.7
247.953	3.65
248.335	3.66
248.717	4.08
249.098	4
249.48	3.84
249.862	4.18
250.243	3.95
250.625	4.43
251.006	4.38
251.388	3.13
251.769	3.08
252.151	4.11
252.532	4.11
252.913	3.01
253.295	3.71
253.676	3.71
254.057	4.27
254.438	3.94
254.819	3.87
255.2	3.46
255.581	2.99
255.962	2.94
256.343	3.05
256.724	2.57
257.105	4.43
257.486	2.18
257.867	3.64
258.247	4.1
258.628	2.93
259.009	3.44
259.389	3.68
259.77	3.36
260.15	2.85
260.531	3.21
260.911	4.09
261.292	4
261.672	4.05
262.052	4.12
262.432	4.01
262.813	3.84
263.193	3.59
263.573	3.15
263.953	3.54
264.333	4.08
264.713	3.52
265.093	3.18
265.473	2.9
265.853	2.72
266.233	3.45
266.612	1.22
266.992	1.57
267.372	3.95
267.752	2.69
268.131	3.87
268.511	4.06
268.89	4.16
269.27	3.66
269.649	3.26
270.029	3.07
270.408	4.6
270.787	3.68
271.167	3.52
271.546	3.28
271.925	2.93
272.304	3.4
272.683	3.55
273.062	3.43
273.441	3.7
273.82	3
274.199	3.49
274.578	3.31
274.957	3.16
275.336	3.58
275.715	3.06
276.093	3.45
276.472	3.59
276.851	3.22
277.229	3.17
277.608	2.6
277.986	2.95
278.365	3.57
278.743	2.56
279.122	3.32
279.5	2.78
279.878	3.23
280.257	3.52
280.635	3.2
281.013	1.91
281.391	3.66
281.769	3.59
282.147	3.38
282.525	4.24
282.903	3.36
283.281	3.49
283.659	3.64
284.037	3.82
284.415	3.72
284.792	4.01
285.17	2.71
285.548	3.03
285.925	3.51
286.303	3.17
286.68	3.13
287.058	3.46
287.435	3.13
287.813	3.2
288.19	3.15
288.567	3.15
288.945	3.17
289.322	3.08
289.699	3.3
290.076	3.31
290.453	3
290.83	2.77
291.207	2.89
291.584	3.13
291.961	3.57
292.338	3.35
292.715	3.64
293.092	3.44
293.469	3.27
293.845	3.72
294.222	2.64
294.599	3.07
294.975	2.99
295.352	3.16
295.728	2.8
296.105	3.01
296.481	3.64
296.858	3.32
297.234	3.37
297.61	3.01
297.986	3.07
298.363	3.61
298.739	3.19
299.115	3.18
299.491	3.06
299.867	3.31
300.243	3.13
300.619	2.77
300.995	2.63
301.371	3.44
301.746	3.18
302.122	3.76
302.498	3.17
302.874	3.57
303.249	3.11
303.625	2.9
304	3.18
304.376	2.93
304.751	2.32
305.127	3.23
305.502	2.32
305.878	2.82
306.253	3.56
306.628	3.56
307.003	2.71
307.378	3.09
307.754	3.3
308.129	2.39
308.504	3.47
308.879	3.01
309.254	3.79
309.629	3.4
310.003	2.62
310.378	3.52
310.753	3.46
311.128	3.17
311.502	3
311.877	3.35
312.252	2.21
312.626	3.06
313.001	2.73
313.375	3.33
313.75	2.77
314.124	3.36
314.498	3.02
314.873	3.05
315.247	3.01
315.621	2.9
315.995	2.48
316.369	2.79
316.743	2.66
317.117	3.61
317.491	2.94
317.865	3.41
318.239	3.11
318.613	2.81
318.987	2.82
319.361	2.5
319.734	3.33
320.108	2.95
320.482	2.73
320.855	3.53
321.229	2.9
321.602	2.76
321.976	3.15
322.349	2.82
322.723	3.34
323.096	3.14
323.469	1.98
323.843	3.15
324.216	3.53
324.589	2.52
324.962	3.07
325.335	2.75
325.708	2.61
326.081	2.99
326.454	3.06
326.827	3.02
327.2	3.19
327.573	3.16
327.945	2.85
328.318	2.47
328.691	2.58
329.063	3.39
329.436	2.51
329.809	3.33
330.181	2.58
330.553	2.85
330.926	3.37
331.298	3.14
331.671	2.34
332.043	3.15
332.415	3.38
332.787	3.47
333.159	3.28
333.532	3.26
333.904	2.93
334.276	2.59
334.648	2.92
335.02	2.54
335.391	2.54
335.763	3.03
336.135	3.26
336.507	3.6
336.879	3.08
337.25	2.68
337.622	2.54
337.993	2.76
338.365	2.91
338.736	3.4
339.108	2.82
339.479	2.88
339.851	2.9
340.222	2.91
340.593	2.74
340.964	3.18
341.336	3.88
341.707	2.44
342.078	3.18
342.449	3.02
342.82	3.22
343.191	3.37
343.562	2.73
343.933	3.91
344.303	3.09
344.674	3.33
345.045	3.28
345.416	3.11
345.786	2.75
346.157	3.39
346.527	2.6
346.898	3.34
347.268	3.22
347.639	2.68
348.009	3.55
348.38	2.82
348.75	2.91
349.12	2.97
349.49	3.17
349.861	3
350.231	2.92
350.601	3.08
350.971	3.57
351.341	2.64
351.711	2.96
352.081	3.03
352.45	3.37
352.82	3.41
353.19	2.79
353.56	3.02
353.929	3.36
354.299	3.26
354.669	2.68
355.038	3.47
355.408	2.85
355.777	3.43
356.147	2.85
356.516	3.52
356.885	3.24
357.254	3.26
357.624	3.22
357.993	3.37
358.362	2.92
358.731	3.02
359.1	3.22
359.469	3.25
359.838	3.31
360.207	3.03
360.576	2.98
360.945	3.21
361.314	3.78
361.682	3.01
362.051	2.95
362.42	3.51
362.788	3.29
363.157	3.47
363.525	3.48
363.894	3.5
364.262	3.3
364.631	3.43
364.999	3.57
365.367	2.97
365.735	3.85
366.104	3.37
366.472	3.06
366.84	3.06
367.208	3.27
367.576	3.56
367.944	3.71
368.312	3.2
368.68	3.1
369.048	3.22
369.416	3.51
369.783	3.27
370.151	3.42
370.519	3.61
370.886	3.68
371.254	3.15
371.621	3.57
371.989	3.45
372.356	2.98
372.724	3.04
373.091	3.14
373.458	3.18
373.826	3.4
374.193	3.29
374.56	3.48
374.927	3.3
375.294	3.47
375.661	3.26
376.028	3.05
376.395	3.01
376.762	3.48
377.129	3.38
377.496	3.28
377.863	3.35
378.229	2.86
378.596	3.51
378.963	3.39
379.329	3.31
379.696	3.77
380.062	3.28
380.429	3.12
380.795	3.27
381.161	3.34
381.528	3.44
381.894	3.35
382.26	2.98
382.626	3.47
382.993	3.36
383.359	3.91
383.725	3.32
384.091	3.65
384.457	3.6
384.823	3.48
385.188	3.53
385.554	3.48
385.92	3.51
386.286	3.68
386.651	3.83
387.017	3.36
387.383	3.52
387.748	3.26
388.114	3.54
388.479	3.46
388.845	3.37
389.21	3.87
389.575	3.73
389.94	3.47
390.306	3.7
390.671	3.84
391.036	3.09
391.401	3.02
391.766	3.5
392.131	3.33
392.496	3.43
392.861	3.32
393.226	3.74
393.591	3.58
393.956	3.41
394.32	3.62
394.685	3.26
395.05	3.48
395.414	3.34
395.779	3.36
396.143	3.57
396.508	3.65
396.872	3.7
397.236	3.8
397.601	3.56
397.965	3.46
398.329	3.54
398.694	3.53
399.058	3.7
399.422	3.28
399.786	3.8
400.15	3.64
400.514	3.65
400.878	3.82
401.242	3.85
401.605	3.73
401.969	3.78
402.333	3.81
402.697	3.73
403.06	3.81
403.424	3.83
403.787	3.48
404.151	3.87
404.514	3.71
404.878	3.89
405.241	3.65
405.604	4.03
405.968	3.73
406.331	3.59
406.694	3.83
407.057	3.74
407.42	3.7
407.783	3.63
408.146	3.55
408.509	3.71
408.872	3.65
409.235	3.59
409.598	3.97
409.961	3.57
410.323	3.75
410.686	3.61
411.049	3.76
411.411	3.61
411.774	3.82
412.136	3.71
412.499	3.67
412.861	3.68
413.223	3.41
413.586	3.77
413.948	3.82
414.31	3.82
414.672	3.81
415.035	3.64
415.397	4.05
415.759	3.55
416.121	3.79
416.483	3.53
416.845	3.77
417.206	3.6
417.568	3.89
417.93	3.48
418.292	3.69
418.653	3.93
419.015	3.72
419.377	3.74
419.738	3.83
420.1	3.79
420.461	3.71
420.822	3.8
421.184	3.8
421.545	3.73
421.906	3.72
422.267	3.9
422.629	3.76
422.99	3.73
423.351	3.59
423.712	3.64
424.073	3.71
424.434	3.77
424.795	3.65
425.155	3.69
425.516	3.66
425.877	3.58
426.238	3.67
426.598	3.81
426.959	3.73
427.32	3.73
427.68	3.62
428.041	3.76
428.401	3.93
428.761	3.87
429.122	3.85
429.482	3.66
429.842	4.01
430.202	3.89
430.563	3.78
430.923	3.65
431.283	3.99
431.643	3.59
432.003	3.74
432.363	3.83
432.722	3.94
433.082	3.92
433.442	3.7
433.802	3.72
434.161	3.79
434.521	4.1
434.881	3.97
435.24	3.75
435.6	3.89
435.959	3.67
436.319	3.77
436.678	3.78
437.037	3.72
437.396	3.92
437.756	3.81
438.115	3.68
438.474	3.91
438.833	3.65
439.192	3.81
439.551	4.12
439.91	3.74
440.269	3.73
440.628	3.79
440.987	3.77
441.345	3.79
441.704	3.83
442.063	3.72
442.421	3.8
442.78	3.76
443.138	3.71
443.497	3.71
443.855	3.78
444.214	3.87
444.572	4.01
444.93	3.85
445.288	3.89
445.647	4.03
446.005	3.64
446.363	3.83
446.721	3.97
447.079	3.82
447.437	3.89
447.795	3.91
448.153	3.83
448.51	3.77
448.868	3.86
449.226	3.82
449.584	3.83
449.941	3.96
450.299	3.97
450.656	3.98
451.014	3.94
451.371	3.84
451.729	3.83
452.086	4.11
452.443	3.85
452.801	3.9
453.158	3.79
453.515	3.84
453.872	4.1
454.229	3.93
454.586	3.88
454.943	3.82
455.3	3.93
455.657	3.86
456.014	3.95
456.371	4.02
456.727	3.94
457.084	3.97
457.441	3.99
457.797	3.94
458.154	4.17
458.51	4
458.867	4.06
459.223	4.1
459.58	3.84
459.936	3.97
460.292	3.87
460.648	3.86
461.005	3.85
461.361	3.93
461.717	3.84
462.073	3.83
462.429	3.82
462.785	4.01
463.141	3.95
463.496	4.01
463.852	4.11
464.208	4.11
464.564	4.01
464.919	3.85
465.275	4.09
465.631	4.17
465.986	3.79
466.342	3.83
466.697	3.82
467.052	4.01
467.408	3.89
467.763	3.9
468.118	4.01
468.473	4.01
468.829	3.85
469.184	3.86
469.539	3.92
469.894	3.77
470.249	4.11
470.603	4.03
470.958	4.1
471.313	4.03
471.668	4.1
472.023	4.14
472.377	4.03
472.732	3.99
473.086	3.88
473.441	3.88
473.795	4.1
474.15	4
474.504	4.07
474.859	4.02
475.213	3.9
475.567	4.09
475.921	3.85
476.275	4.03
476.63	4.22
476.984	4.07
477.338	4.08
477.692	3.9
478.045	3.94
478.399	3.97
478.753	4.09
479.107	3.95
479.461	4.02
479.814	3.99
480.168	4.06
480.521	3.95
480.875	4.07
481.228	3.97
481.582	4.06
481.935	3.9
482.289	4.08
482.642	4.07
482.995	3.98
483.348	3.95
483.701	3.99
484.055	3.98
484.408	3.99
484.761	3.87
485.114	3.83
485.466	3.68
485.819	3.75
486.172	3.77
486.525	3.85
486.878	3.92
487.23	3.95
487.583	4.03
487.936	3.97
488.288	3.91
488.641	4
488.993	3.81
489.345	3.79
489.698	3.85
490.05	3.83
490.402	3.95
490.754	3.95
491.107	4.05
491.459	4.03
491.811	4.12
492.163	3.96
492.515	3.97
492.866	3.93
493.218	3.88
493.57	3.88
493.922	3.86
494.274	4
494.625	4.08
494.977	4.1
495.328	4.26
495.68	4.13
496.031	4.14
496.383	4.09
496.734	4.14
497.086	4.12
497.437	4.24
497.788	3.96
498.139	4.04
498.49	4.11
498.842	3.91
499.193	4.05
499.544	4.02
499.894	4.11
500.245	4.07
500.596	4.17
500.947	4.13
501.298	3.94
501.648	4.01
501.999	4.24
502.35	4.09
502.7	4.13
503.051	3.9
503.401	3.88
503.752	4.17
504.102	4.05
504.452	4.07
504.803	4.08
505.153	4.07
505.503	4.13
505.853	4.03
506.203	4.11
506.553	4.02
506.903	3.97
507.253	4.02
507.603	4.06
507.953	4.12
508.303	4.14
508.652	3.99
509.002	4.13
509.352	4.05
509.701	4.06
510.051	4.05
510.4	3.91
510.75	4.01
511.099	4.03
511.449	3.98
511.798	4.09
512.147	3.96
512.496	3.96
512.846	4.08
513.195	4.02
513.544	4.03
513.893	4.05
514.242	4.05
514.591	4.14
514.939	3.93
515.288	4.02
515.637	3.98
515.986	4.09
516.334	4.01
516.683	4.04
517.032	3.95
517.38	4.16
517.729	4.09
518.077	3.86
518.426	4.07
518.774	4.15
519.122	3.97
519.47	3.99
519.819	3.88
520.167	3.93
520.515	3.91
520.863	3.99
521.211	4.03
521.559	4.1
521.907	3.92
522.255	4.03
522.602	4.13
522.95	4.03
523.298	3.96
523.645	4.11
523.993	3.89
524.341	4.19
524.688	4.09
525.036	4.05
525.383	4.02
525.73	4.15
526.078	3.98
526.425	3.95
526.772	4.08
527.119	3.9
527.466	3.82
527.814	3.94
528.161	3.96
528.508	3.95
528.854	3.9
529.201	3.89
529.548	3.88
529.895	3.89
530.242	3.74
530.588	3.74
530.935	3.78
531.282	3.91
531.628	3.9
531.975	3.94
532.321	3.96
532.667	4.02
533.014	4.02
533.36	4
533.706	3.82
534.052	3.98
534.399	3.92
534.745	3.85
535.091	3.87
535.437	3.87
535.783	3.89
536.129	3.98
536.474	3.94
536.82	3.97
537.166	4.01
537.512	4.08
537.857	3.95
538.203	3.93
538.549	3.87
538.894	3.89
539.239	3.94
539.585	3.92
539.93	4.05
540.276	4.1
540.621	4.08
540.966	4.16
541.311	3.94
541.656	3.96
542.001	3.93
542.346	4.01
542.691	3.85
543.036	3.83
543.381	3.8
543.726	3.83
544.071	3.92
544.415	3.93
544.76	3.87
545.105	4.01
545.449	3.99
545.794	3.99
546.138	3.95
546.483	4.07
546.827	4.03
547.171	4.09
547.516	4.13
547.86	3.94
548.204	3.85
548.548	3.94
548.892	3.89
549.236	3.9
549.58	3.88
549.924	4
550.268	4.11
550.612	4.13
550.956	4.12
551.3	3.98
551.643	4.2
551.987	4.19
552.33	4.06
552.674	4.04
553.017	4.02
553.361	3.94
553.704	4.19
554.048	3.91
554.391	3.87
554.734	3.82
555.077	4.03
555.42	3.83
555.764	3.9
556.107	3.86
556.45	3.76
556.793	3.83
557.135	4.06
557.478	4.23
557.821	4.03
558.164	3.9
558.507	4.01
558.849	3.91
559.192	3.9
559.534	3.96
559.877	3.92
560.219	3.91
560.562	4.09
560.904	3.86
561.246	4.22
561.589	3.95
561.931	4.03
562.273	4.02
562.615	4.06
562.957	4.2
563.299	3.81
563.641	3.99
563.983	4.14
564.325	3.83
564.667	3.92
565.008	3.99
565.35	3.98
565.692	3.82
566.033	3.85
566.375	4.17
566.716	4.13
567.058	3.8
567.399	4.01
567.741	3.73
568.082	3.92
568.423	3.92
568.764	3.87
569.105	4.04
569.447	3.99
569.788	4.15
570.129	4.07
570.47	3.86
570.811	4.04
571.151	4.03
571.492	3.95
571.833	3.96
572.174	3.81
572.514	4.03
572.855	4.1
573.195	4.09
573.536	3.95
573.876	3.84
574.217	3.77
574.557	4.07
574.898	4.12
575.238	3.99
575.578	3.89
575.918	4.11
576.258	4.06
576.598	4.12
576.938	4
577.278	3.95
577.618	4.03
577.958	3.86
578.298	3.98
578.638	3.81
578.977	4
579.317	3.9
579.657	3.99
579.996	3.9
580.336	3.88
580.675	3.85
581.014	3.89
581.354	4.06
581.693	3.98
582.032	3.8
582.372	3.66
582.711	4.07
583.05	3.74
583.389	4.05
583.728	3.81
584.067	4.12
584.406	4.13
584.745	4.09
585.083	4.14
585.422	3.95
585.761	4.04
586.1	4.02
586.438	3.69
586.777	4.14
587.115	3.91
587.454	3.7
587.792	3.81
588.13	4.21
588.469	3.69
588.807	3.78
589.145	3.74
589.483	4.12
589.821	3.88
590.159	3.79
590.497	4.16
590.835	4.17
591.173	3.99
591.511	4.07
591.849	3.88
592.187	4.03
592.524	3.93
592.862	3.8
593.2	3.96
593.537	3.94
593.875	3.69
594.212	3.83
594.55	3.61
594.887	3.93
595.224	3.82
595.561	3.93
595.899	3.77
596.236	3.82
596.573	3.92
596.91	3.56
597.247	3.78
597.584	4
597.921	4.09
598.258	3.87
598.594	3.8
598.931	3.74
599.268	3.98
599.604	3.83
599.941	3.96
600.277	3.87
600.614	3.89
600.95	3.81
601.287	4.16
601.623	3.87
601.959	3.84
602.296	3.92
602.632	3.83
602.968	4.03
603.304	3.83
603.64	3.7
603.976	4.03
604.312	3.55
604.648	3.74
604.984	3.91
605.319	3.91
605.655	3.87
605.991	3.89
606.326	3.92
606.662	3.9
606.998	3.6
607.333	3.87
607.668	3.76
608.004	3.93
608.339	4.11
608.674	4.04
609.01	3.87
609.345	3.99
609.68	4.03
610.015	3.51
610.35	3.69
610.685	3.78
611.02	3.78
611.355	3.73
611.689	3.9
612.024	3.95
612.359	3.71
612.694	3.69
613.028	3.88
613.363	4.09
613.697	3.88
614.032	3.75
614.366	3.83
614.7	3.79
615.035	3.7
615.369	3.7
615.703	3.92
616.037	3.98
616.371	3.46
616.705	3.84
617.039	4.04
617.373	3.74
617.707	3.5
618.041	3.61
618.375	3.74
618.709	3.74
619.042	3.83
619.376	4.22
619.71	4.13
620.043	4.04
620.377	3.94
620.71	3.99
621.043	4.01
621.377	3.69
621.71	3.68
622.043	3.35
622.376	3.65
622.709	3.97
623.043	3.87
623.376	3.76
623.709	3.65
624.041	3.94
624.374	3.89
624.707	3.86
625.04	4.17
625.373	3.38
625.705	3.81
626.038	3.93
626.37	3.48
626.703	3.89
627.035	3.77
627.368	3.86
627.7	3.53
628.032	3.83
628.365	3.91
628.697	3.78
629.029	3.67
629.361	3.67
629.693	3.79
630.025	3.81
630.357	4.12
630.689	3.68
631.021	3.78
631.353	3.78
631.684	3.59
632.016	3.63
632.348	4.15
632.679	4.13
633.011	3.83
633.342	3.99
633.674	4.13
634.005	4.14
634.336	3.67
634.668	4.38
634.999	3.53
635.33	3.88
635.661	3.81
635.992	3.76
636.323	4.05
636.654	3.92
636.985	3.85
637.316	3.78
637.647	3.69
637.977	4.09
638.308	4.08
638.639	3.69
638.969	3.23
639.3	3.57
639.63	3.85
639.961	3.81
640.291	3.95
640.622	3.75
640.952	3.63
641.282	3.9
641.612	4
641.943	3.35
642.273	3.36
642.603	4.19
642.933	3.62
643.263	4.11
643.592	3.79
643.922	3.42
644.252	3.86
644.582	3.93
644.911	3.49
645.241	3.38
645.571	3.79
645.9	3.57
646.23	3.44
646.559	4.02
646.888	3.48
647.218	3.42
647.547	4.39
647.876	3.74
648.205	3.91
648.534	3.6
648.863	2.89
649.192	3.94
649.521	3.69
649.85	3.49
650.179	3.69
650.508	3.31
650.837	3.73
651.165	3.3
651.494	4.35
651.822	3.43
652.151	3.64
652.479	3.7
652.808	3.73
653.136	3.93
653.465	3.02
653.793	3.55
654.121	3.29
654.449	4.07
654.777	3.96
655.105	4.17
655.433	3.46
655.761	3.6
656.089	3.78
656.417	4.12
656.745	3.81
657.073	3.75
657.4	4.38
657.728	3.68
658.056	3.86
658.383	3.94
658.711	3.99
659.038	3.74
659.365	4.03
659.693	3.92
660.02	3.91
660.347	3.83
660.674	3.91
661.001	4.05
661.329	3.16
661.656	3.9
661.982	4
662.309	3.58
662.636	3.46
662.963	4.17
663.29	3.65
663.616	3.74
663.943	3.42
664.27	3.42
664.596	3.67
664.923	4.06
665.249	3.65
665.576	4.03
665.902	4.32
666.228	3.49
666.554	3.93
666.881	3.34
667.207	3.71
667.533	3.57
667.859	3.57
668.185	3.68
668.511	3.07
668.837	3.4
669.162	3.67
669.488	3.36
669.814	4.09
670.139	3.9
670.465	3.95
670.791	3.86
671.116	4.33
671.442	3.44
671.767	4.2
672.092	3.97
672.418	3.94
672.743	3.82
673.068	3.63
673.393	3.57
673.718	3.78
674.043	3.28
674.368	3.34
674.693	4
675.018	3.82
675.343	3.88
675.667	4.27
675.992	4.21
676.317	4.08
676.641	3.92
676.966	3.6
677.29	3.63
677.615	3.93
677.939	3.93
678.264	4.57
678.588	4.06
678.912	3.88
679.236	4.64
679.56	3.73
679.885	4.6
680.209	3.44
680.532	3.76
680.856	4.29
681.18	3.68
681.504	3.66
681.828	4.08
682.152	3.13
682.475	3.94
682.799	3.78
683.122	4.55
683.446	3.75
683.769	4.08
684.093	3.81
684.416	4.12
684.739	4.55
685.062	4.15
685.386	4.34
685.709	3.34
686.032	3.58
686.355	4.62
686.678	2.8
687.001	3.64
687.324	4.87
687.646	3.04
687.969	3.03
688.292	3.91
688.614	3.21
688.937	4.28
689.26	3.83
689.582	4.12
689.904	3.65
690.227	4.11
690.549	3.69
690.871	3.86
691.194	3.37
691.516	3.21
691.838	3.85
692.16	3.91
692.482	4.07
692.804	3.78
693.126	3.92
693.448	3.88
693.769	4.42
694.091	3.76
694.413	3.66
694.735	3.73
695.056	4.07
695.378	2.86
695.699	2.29
696.021	2.83
696.342	3.24
696.663	4.02
696.984	3.74
697.306	2.68
697.627	4.06
697.948	4.15
698.269	4.28
698.59	4.25
698.911	3.52
699.232	3.29
699.553	3.73
699.873	3.83
700.194	4.82
700.515	3.72
700.835	3.83
701.156	4.08
701.477	3.97
701.797	3.95
702.117	4.72
702.438	3.64
702.758	3.86
703.078	3.61
703.398	3.2
703.719	4.56
704.039	3.78
704.359	4.35
704.679	4.31
704.999	3.5
705.319	2.66
705.638	3.45
705.958	3.2
706.278	3.15
706.597	2.98
706.917	2.59
707.237	3.72
707.556	3.98
707.876	2.44
708.195	4.04
708.514	4.2
708.834	4.52
709.153	4.47
709.472	5
709.791	5
710.11	3.5
710.429	3.2
710.748	5.04
711.067	3
711.386	3.4
711.705	3.19
712.023	3.73
712.342	3.68
712.661	3.81
712.979	2.66
713.298	3.91
713.616	3
713.935	3.9
714.253	3.35
714.572	4.77
714.89	3.7
715.208	4.31
715.526	3.93
715.844	3.77
716.162	3.89
716.48	3.93
716.798	4.24
717.116	4.45
717.434	3.59
717.752	3.49
718.069	4.3
718.387	4.22
718.705	3.71
719.022	3.09
719.34	4.66
719.657	2.99
719.975	4.23
720.292	3.88
720.609	3.92
720.927	3.68
721.244	4.61
721.561	3.06
721.878	3.65
722.195	2.77
722.512	3.89
722.829	4.43
723.146	3.81
723.463	3.4
723.779	3.17
724.096	3.55
724.413	2.7
724.729	3.76
725.046	1.67
725.362	3.06
725.679	2.77
725.995	3.4
726.311	2.98
726.628	3.64
726.944	5.29
727.26	5.2
727.576	5.26
727.892	4.65
728.208	2.9
728.524	3.51
728.84	2.84
729.156	3.43
729.472	2.92
729.787	2.56
730.103	3.65
730.419	3.51
730.734	3.24
731.05	4
731.365	2.83
731.681	3.67
731.996	4.71
732.311	4
732.626	3.89
732.942	2.6
733.257	4.4
733.572	4.08
733.887	3.48
734.202	4.44
734.517	2.78
734.832	4.37
735.146	4.36
735.461	4.22
735.776	3.36
736.091	3.25
736.405	4.11
736.72	3.14
737.034	4.33
737.349	5.17
737.663	2.51
737.977	3.94
738.292	2.45
738.606	3.24
738.92	3.65
739.234	4.79
739.548	4.18
739.862	3.88
740.176	4.01
740.49	5.34
740.804	4.17
741.117	4.06
741.431	3.84
741.745	3.2
742.058	3.85
742.372	3.15
742.685	4.03
742.999	2.05
743.312	2.04
743.626	4.43
743.939	3.57
744.252	3.04
744.565	2.16
744.878	3.73
745.191	3.52
745.505	2.47
745.817	4.76
746.13	3.03
746.443	4.1
746.756	7.55
747.069	2.45
747.381	3.29
747.694	2.43
748.007	3.93
748.319	3.4
748.632	5.55
748.944	3.35
749.256	3.58
749.569	4.06
749.881	5.46
750.193	3.92
750.505	3.08
750.817	3.77
751.129	3.08
751.441	4.02
751.753	5.31
752.065	5.19
752.377	2.63
752.689	4.54
753	5.03
753.312	3.17
753.624	4.82
753.935	5.01
754.247	3.53
754.558	3.86
754.869	5.13
755.181	4.51
755.492	4.51
755.803	3.77
756.114	3.46
756.425	2.23
756.736	3.11
757.047	5.74
757.358	4.53
757.669	2.81
757.98	4.21
758.291	1.95
758.601	4.53
758.912	4.25
759.223	5.63
759.533	1.61
759.844	3.15
760.154	2.88
760.464	4.66
760.775	3.2
761.085	4.59
761.395	5.79
761.705	3.43
762.016	3.17
762.326	2.95
762.636	2.52
762.945	3.06
763.255	4.01
763.565	3.79
763.875	4.57
764.185	2.63
764.494	3.1
764.804	5.27
765.113	3.66
765.423	5.17
765.732	4.4
766.042	3.53
766.351	4.45
766.66	5.13
766.97	6.17
767.279	4.49
767.588	3.03
767.897	5.2
768.206	3.56
768.515	5.74
768.824	4.96
769.133	3.44
769.441	3.53
769.75	3.31
770.059	6.05
770.367	3.8
770.676	4.83
770.984	6.66
771.293	4.02
771.601	7.11
771.91	0.69
772.218	3.25
772.526	6.65
772.834	3.03
773.142	3.47
773.45	1.89
773.758	2.28
774.066	5.19
774.374	4.03
774.682	4.06
774.99	4.52
775.298	2.28
775.605	3.21
775.913	-0.02
776.22	6.42
776.528	3.22
776.835	6.89
777.143	2.59
777.45	2.26
777.757	4.74
778.065	3.09
778.372	0.78
778.679	0.9
778.986	4.5
779.293	1.37
779.6	2.15
779.907	3.57
780.214	4.83
780.52	4.61
780.827	2.86
781.134	0.21
781.44	2.59
781.747	3.4
782.053	1.34
782.36	3.06
782.666	5.11
782.973	5
783.279	3.28
783.585	3.99
783.891	4.02
784.197	1.88
784.503	4.17
784.809	-1.35
785.115	8.05
785.421	6.05
785.727	5.98
786.033	5.19
786.339	5.49
786.644	-0.04
786.95	2.83
787.255	3.99
787.561	5.28
787.866	1.52
788.172	2.57
788.477	2.01
788.782	2.64
789.088	3.35
789.393	2.23
789.698	1.87
790.003	1.56
790.308	4.64
790.613	1.97
790.918	3.52
791.223	4.58
791.527	-0.2
791.832	5.5
792.137	0.33
792.441	1.89
792.746	3.24
793.05	-0.86
793.355	3.68
793.659	9.16
793.963	4.32
794.268	2.1
794.572	3
794.876	5.68
795.18	2.78
795.484	2.84
795.788	4.49
796.092	3.42
796.396	-1.38
796.7	2.55
797.004	6.48
797.307	-0.7
797.611	7.08
797.915	4.63
798.218	4.19
798.522	3.26
798.825	1.7
799.128	0.02
799.432	-1.74
799.735	0.97
800.038	4.72
800.341	4.68
800.644	4.22
800.947	1.5
801.25	3.2
801.553	-1.98
801.856	-0.33
802.159	-0.64
802.462	1.26
802.764	5.87
803.067	2.52
803.37	2.68
803.672	-1.58
803.975	3.22
804.277	2.76
804.579	1.14
804.882	-2.23
805.184	0.17
805.486	2.02
805.788	2.37
806.09	11.42
806.392	-0.11
806.694	3.17
806.996	7.68
807.298	3.84
807.6	5.99
807.902	3.43
808.203	2.01
808.505	6.95
808.807	-0.19
809.108	0.39
809.409	2.01
809.711	-1.67
810.012	2.09
810.313	1.96
810.615	0.19
810.916	-1.6
811.217	7.9
811.518	8.05
811.819	2.66
812.12	1.33
812.421	-0.66
812.722	8.97
813.023	6.31
813.323	2.83
813.624	0.64
813.925	12.5
814.225	1.85
814.526	7.15
814.826	8.72
815.126	-0.03
815.427	2.76
815.727	4.17
816.027	3.19
816.327	-2.52
816.627	-4.1
816.927	1.75
817.227	-0.65
817.527	1.51
817.827	6.41
818.127	2.09
818.427	0.94
818.727	5.75
819.026	4.08
819.326	4.83
819.625	5.17
819.925	4.32
820.224	4.78
820.524	2.1
820.823	7.23
821.122	3.87
821.421	-0.01
821.72	-6
822.019	-0.17
822.318	1.23
822.617	-1.71
822.916	4.81
823.215	4.39
823.514	5.26
823.813	4.73
824.111	2.7
824.41	6.27
824.709	5.36
825.007	4.87
825.306	5.29
825.604	5.95
825.902	5.57
826.201	5.64
826.499	4.72
826.797	5.64
827.095	4.67
827.393	4.3
827.691	6.12
827.989	3.59
828.287	4.91
828.585	4.76
828.882	5.91
829.18	5.8
829.478	5.91
829.775	5.68
830.073	6.76
830.37	5.97
830.668	4.62
830.965	8.3
831.263	4.46
831.56	2.89
831.857	4.01
832.154	4.69
832.451	3.91
832.748	6.4
833.045	4.49
833.342	6.21
833.639	3.86
833.936	2.03
834.232	8.88
834.529	-0.1
834.826	1.65
835.122	-0.3
835.419	-2.5
835.715	4.3
836.012	3.51
836.308	2.17
836.604	-0.2
836.901	-0.83
837.197	2.87
837.493	5.12
837.789	2.07
838.085	4.99
838.381	5.97
838.677	3.13
838.972	4.36
839.268	6.05
839.564	4.7
839.86	10.86
840.155	-2.75
840.451	-7.08
840.746	3.94
841.042	9.95
841.337	1.83
841.632	7.73
841.928	9.12
842.223	-4.27
842.518	-1.67
842.813	15.93
843.108	-3.13
843.403	8.68
843.698	-6.42
843.993	1.6
844.287	-4.34
844.582	-12.67
844.877	-0.14
845.171	3.02
845.466	-6.07
845.761	-4.64
846.055	7.22
846.349	3.97
846.644	-2.64
846.938	-19.03
847.232	-0.07
847.526	-5.42
847.82	7.89
848.114	-12.43
848.408	-4.86
848.702	15.6
848.996	-19.79
849.29	16.72
849.584	-2.29
849.877	3.86
850.171	-5.96
850.465	7.76
850.758	2.17
851.052	-13.61
851.345	-3.87
851.638	-0.03
851.932	-33.4
852.225	-2.62
852.518	-8.11
852.811	-22.73
853.104	-36.01
853.397	-1.88
853.69	-1.4
853.983	-25.46
854.276	0.31
854.569	-5.37
854.861	1.02
855.154	-2.65
855.447	10.49
855.739	10.55
856.032	4.98
856.324	7.63
856.616	5.64
856.909	-14.11
857.201	33.46
857.493	-20.77
857.785	-19.27
858.077	19.62
858.369	-2.91
858.661	-11.12
858.953	-36.81
859.245	-20.73
859.537	-4.33
859.829	-18.01
860.12	11.49
860.412	-30.27
860.703	3.4
860.995	-13.45
861.286	-9.8
861.578	-9.81
861.869	4.66
862.16	-7.64
862.452	-13.24
862.743	-16.45
863.034	14.83
863.325	-24.16
863.616	-19.26
863.907	-20.5
864.198	-14.44
864.488	9.71
864.779	-5.24
865.07	-30.9
865.36	-41.67
865.651	-5.2
865.941	-28.12
866.232	-34.61
866.522	-49.52
866.813	2.17
867.103	20.32
867.393	-25.6
867.683	-17.32
867.973	-67.44
868.263	-10.41
868.553	19.53
868.843	2.55
869.133	-67.4
869.423	-20.44
869.713	14.84
870.002	44.01
870.292	10.93
870.582	3.32
870.871	-39.49
871.161	4.94
871.45	-12
871.739	-36.18
872.029	-30.28
872.318	1.93
872.607	14.24
872.896	-32.07
873.185	-22.66
873.474	-54.01
873.763	-27.96
874.052	-12.96
874.341	1.72
874.63	4.08
874.918	-25.09
875.207	23.4
875.496	-15.8
875.784	-90.96
876.073	-198.56
876.361	-69.82
876.649	-19.02
876.938	-26.49
877.226	-33.34
877.514	10.72
877.802	-16.44
878.09	-15.78
878.378	16.82
878.666	-49.91
878.954	-31.11
879.242	1.48
879.53	-8.79
879.817	-7.16
880.105	1.08
880.392	-13.38
880.68	-11.01
880.967	-34.65
881.255	-2.27
881.542	-21.3
881.83	-39.49
882.117	-3.15
882.404	-22.76
882.691	5.83
882.978	0.2
883.265	-15.08
883.552	26.47
883.839	3.68
884.126	-24.22
884.413	17.49
884.699	3.39
884.986	10.54
885.273	-0.46
885.559	-0.46
885.846	-0.46
