Data from 0059_forehead_Reflection__3__176.txt Node

Date: Fri Dec 16 15:23:32 CST 2022
User: ToomeyLab
Spectrometer: FLMS14357
Trigger mode: 0
Integration Time (sec): 1.000000E-2
Scans to average: 100
Electric dark correction enabled: true
Nonlinearity correction enabled: false
Boxcar width: 0
XAxis mode: Wavelengths
Number of Pixels in Spectrum: 2048
>>>>>Begin Spectral Data<<<<<
189.047	82.89
189.435	82.89
189.823	82.89
190.211	-359.48
190.599	72.13
190.987	-2052.59
191.375	-2.84
191.763	-6.12
192.151	437.25
192.538	356.98
192.926	-52.2
193.314	-11553.57
193.702	25.22
194.089	-91.79
194.477	34.56
194.864	-3183.14
195.252	53.06
195.639	141.99
196.027	-43.07
196.414	29.77
196.801	-1359.92
197.189	117.04
197.576	102.77
197.963	-26.34
198.351	2.82
198.738	-88.08
199.125	19.81
199.512	-44.03
199.899	-28.11
200.286	-14.6
200.673	13.96
201.06	28.89
201.447	38.06
201.833	36.27
202.22	-12.06
202.607	-4.38
202.994	17.98
203.38	-3.09
203.767	-48.31
204.154	-23.39
204.54	32.48
204.927	0.77
205.313	5.13
205.699	-19.85
206.086	-24.84
206.472	10.81
206.858	-21.9
207.245	-0.83
207.631	-11.86
208.017	29.19
208.403	-3.4
208.789	-6.88
209.175	24.99
209.561	-6.34
209.947	-23.99
210.333	-3.71
210.719	-20.14
211.105	-3.1
211.491	-10.94
211.876	-11.77
212.262	-11.77
212.648	-49.94
213.034	-35.9
213.419	-0.59
213.805	-13.47
214.19	5.64
214.576	-15.66
214.961	-28.18
215.346	-40.41
215.732	-20.57
216.117	-4
216.502	4.56
216.888	-26.55
217.273	21.94
217.658	-8.28
218.043	0.84
218.428	-14.12
218.813	-7.52
219.198	-75.13
219.583	10.16
219.968	-3.01
220.353	9.86
220.738	-2.64
221.122	-3.37
221.507	-7.25
221.892	14.33
222.276	13
222.661	7.29
223.046	0.15
223.43	-5.8
223.815	-3.51
224.199	1.56
224.583	1.06
224.968	3.1
225.352	-0.38
225.736	3.2
226.121	-8.47
226.505	-0.89
226.889	10.46
227.273	1.5
227.657	2.77
228.041	2.76
228.425	2.1
228.809	1.27
229.193	-0.26
229.577	2.47
229.961	1.88
230.344	1.75
230.728	1.88
231.112	1.8
231.495	0.5
231.879	1.42
232.263	1.62
232.646	1.94
233.03	0.8
233.413	1.96
233.797	3.43
234.18	-0.4
234.563	2.09
234.946	2.39
235.33	1.75
235.713	2.66
236.096	1.35
236.479	1.67
236.862	2.43
237.245	3.01
237.628	3.35
238.011	0.26
238.394	3.11
238.777	0.87
239.16	1.21
239.543	-0.33
239.925	1.98
240.308	2.03
240.691	1.68
241.073	2.49
241.456	2.22
241.838	2.55
242.221	2.11
242.603	2.39
242.986	2.7
243.368	2.48
243.75	2.61
244.133	2.1
244.515	2.17
244.897	1.59
245.279	1.91
245.661	2.31
246.043	3.22
246.425	1.12
246.807	2.37
247.189	2.33
247.571	2.58
247.953	2.31
248.335	2.73
248.717	2.58
249.098	2.33
249.48	2.24
249.862	2.22
250.243	2.65
250.625	2.87
251.006	2.36
251.388	2.37
251.769	3.11
252.151	2.63
252.532	1.85
252.913	2.42
253.295	2.49
253.676	2.71
254.057	2.18
254.438	1.77
254.819	2.07
255.2	2.05
255.581	1.53
255.962	2.24
256.343	2.43
256.724	2.62
257.105	2.69
257.486	1.43
257.867	1.55
258.247	2.29
258.628	3.22
259.009	2.85
259.389	1.93
259.77	1.79
260.15	2.82
260.531	2.46
260.911	2.77
261.292	2.54
261.672	2.4
262.052	2.29
262.432	1.87
262.813	1.97
263.193	2.62
263.573	2.47
263.953	2.21
264.333	1.96
264.713	2.59
265.093	2.48
265.473	3.61
265.853	2.09
266.233	2.49
266.612	2.42
266.992	2.34
267.372	2.78
267.752	2.01
268.131	2.12
268.511	2.32
268.89	2.93
269.27	2.6
269.649	2.31
270.029	2.46
270.408	1.55
270.787	2.22
271.167	2.31
271.546	1.54
271.925	2.22
272.304	2.22
272.683	2.2
273.062	2.4
273.441	2.48
273.82	2.7
274.199	2.29
274.578	1.92
274.957	2.72
275.336	2.49
275.715	2.89
276.093	2.42
276.472	2.42
276.851	2.53
277.229	2.66
277.608	1.87
277.986	2.51
278.365	1.89
278.743	2.11
279.122	1.84
279.5	1.48
279.878	1.82
280.257	2.78
280.635	1.72
281.013	2.66
281.391	2.14
281.769	1.82
282.147	2.13
282.525	2.32
282.903	2.71
283.281	1.94
283.659	2.41
284.037	2.26
284.415	2.51
284.792	2.57
285.17	2.17
285.548	2.08
285.925	2.18
286.303	1.88
286.68	2.55
287.058	2.3
287.435	2.15
287.813	2.24
288.19	2.47
288.567	2.18
288.945	2.76
289.322	2.66
289.699	2.18
290.076	3.07
290.453	2.61
290.83	2.83
291.207	1.97
291.584	2.13
291.961	2.41
292.338	2.59
292.715	2.63
293.092	2.68
293.469	3.05
293.845	2.76
294.222	2.83
294.599	3.28
294.975	2.66
295.352	2.42
295.728	2.63
296.105	2.88
296.481	2.97
296.858	2.98
297.234	2.76
297.61	2.5
297.986	2.85
298.363	2.44
298.739	3.08
299.115	2.7
299.491	3.12
299.867	3.11
300.243	2.94
300.619	3.25
300.995	3.17
301.371	3.12
301.746	3.2
302.122	3.04
302.498	3.42
302.874	2.72
303.249	3.07
303.625	2.94
304	2.45
304.376	2.82
304.751	3.16
305.127	3.34
305.502	3.38
305.878	2.88
306.253	3.46
306.628	3.88
307.003	3.73
307.378	3.08
307.754	3.73
308.129	3.39
308.504	2.58
308.879	3.71
309.254	3.95
309.629	3.39
310.003	3.78
310.378	3.83
310.753	3.61
311.128	3.34
311.502	3.65
311.877	3.71
312.252	3.57
312.626	3.41
313.001	3.8
313.375	3.54
313.75	3.89
314.124	4.09
314.498	3.29
314.873	4.1
315.247	3.3
315.621	4.07
315.995	3.95
316.369	3.86
316.743	3.9
317.117	3.72
317.491	4.02
317.865	3.22
318.239	4.52
318.613	3.34
318.987	3.64
319.361	4.03
319.734	4.18
320.108	3.72
320.482	3.98
320.855	3.58
321.229	4.1
321.602	3.79
321.976	3.51
322.349	3.62
322.723	3.59
323.096	3.91
323.469	3.8
323.843	3.91
324.216	3.66
324.589	3.85
324.962	4.08
325.335	3.97
325.708	4.22
326.081	4.38
326.454	4.59
326.827	4.2
327.2	4.72
327.573	4.3
327.945	4.53
328.318	4.63
328.691	4.24
329.063	4.28
329.436	4.42
329.809	4.36
330.181	4.57
330.553	4.57
330.926	4.39
331.298	4.33
331.671	3.97
332.043	4.46
332.415	4.35
332.787	4.81
333.159	4.53
333.532	4.35
333.904	4.85
334.276	4.31
334.648	4.77
335.02	4.24
335.391	4.57
335.763	3.94
336.135	4.88
336.507	4.89
336.879	4.54
337.25	4.66
337.622	4.32
337.993	4.91
338.365	4.79
338.736	4.61
339.108	4.73
339.479	4.96
339.851	4.66
340.222	4.68
340.593	4.79
340.964	5.28
341.336	4.36
341.707	4.89
342.078	4.9
342.449	5.12
342.82	4.95
343.191	4.63
343.562	4.72
343.933	4.98
344.303	5.18
344.674	5.08
345.045	5.04
345.416	4.95
345.786	4.68
346.157	4.83
346.527	4.79
346.898	5.28
347.268	5.3
347.639	4.54
348.009	5.08
348.38	4.75
348.75	5.09
349.12	5.35
349.49	4.9
349.861	5.56
350.231	5.41
350.601	5.38
350.971	5.14
351.341	5.56
351.711	5.39
352.081	5.33
352.45	5.71
352.82	5.65
353.19	5.35
353.56	4.93
353.929	5.42
354.299	5.19
354.669	5.54
355.038	5.27
355.408	5.93
355.777	5.37
356.147	5.65
356.516	5.69
356.885	5.44
357.254	5.6
357.624	5.58
357.993	5.04
358.362	5.69
358.731	5.34
359.1	5.4
359.469	5.74
359.838	5.45
360.207	5.61
360.576	5.52
360.945	5.35
361.314	5.58
361.682	5.5
362.051	5.42
362.42	5.7
362.788	5.73
363.157	5.76
363.525	5.74
363.894	5.56
364.262	5.75
364.631	6.35
364.999	5.31
365.367	6.02
365.735	5.21
366.104	5.82
366.472	5.9
366.84	6.15
367.208	5.67
367.576	5.77
367.944	5.98
368.312	5.49
368.68	5.89
369.048	6.15
369.416	5.75
369.783	5.77
370.151	5.82
370.519	6.06
370.886	5.78
371.254	6.06
371.621	6.08
371.989	6.02
372.356	6.35
372.724	6.37
373.091	6.01
373.458	5.94
373.826	5.94
374.193	6.56
374.56	6.04
374.927	6.42
375.294	6.51
375.661	6.23
376.028	6.05
376.395	6.17
376.762	6.33
377.129	6.5
377.496	6.41
377.863	6.33
378.229	6.05
378.596	6.31
378.963	6.37
379.329	6.45
379.696	6.5
380.062	6.6
380.429	6.33
380.795	6.52
381.161	6.57
381.528	6.14
381.894	6.56
382.26	6.38
382.626	6.56
382.993	6.15
383.359	6.55
383.725	6.66
384.091	6.49
384.457	6.49
384.823	6.55
385.188	6.68
385.554	6.81
385.92	7.01
386.286	6.94
386.651	6.66
387.017	7.14
387.383	6.66
387.748	6.67
388.114	6.86
388.479	6.92
388.845	6.68
389.21	6.95
389.575	6.74
389.94	6.8
390.306	6.98
390.671	6.9
391.036	6.85
391.401	7.12
391.766	6.82
392.131	7.02
392.496	6.78
392.861	6.99
393.226	7.02
393.591	7.23
393.956	6.98
394.32	7.05
394.685	7.27
395.05	6.98
395.414	7.09
395.779	7.19
396.143	7.3
396.508	7.29
396.872	7.37
397.236	6.77
397.601	7.25
397.965	6.86
398.329	7.48
398.694	7.25
399.058	7.42
399.422	7.49
399.786	7.28
400.15	7.37
400.514	7.4
400.878	7.48
401.242	7.71
401.605	7.34
401.969	7.56
402.333	7.26
402.697	7.64
403.06	7.75
403.424	7.38
403.787	7.84
404.151	7.32
404.514	7.41
404.878	7.52
405.241	7.86
405.604	7.37
405.968	7.66
406.331	7.56
406.694	7.45
407.057	7.85
407.42	7.69
407.783	7.49
408.146	7.78
408.509	7.42
408.872	7.35
409.235	7.82
409.598	8.04
409.961	7.73
410.323	7.8
410.686	7.72
411.049	7.63
411.411	7.66
411.774	7.79
412.136	7.92
412.499	7.99
412.861	7.97
413.223	7.91
413.586	7.72
413.948	7.94
414.31	8.18
414.672	7.81
415.035	8.02
415.397	8.18
415.759	7.97
416.121	8.13
416.483	8.23
416.845	7.93
417.206	8.11
417.568	8.11
417.93	8.02
418.292	8.07
418.653	7.91
419.015	8.13
419.377	8.08
419.738	7.97
420.1	8.01
420.461	8.08
420.822	8.01
421.184	8.07
421.545	8.05
421.906	8.12
422.267	7.93
422.629	8.17
422.99	8.1
423.351	8.12
423.712	8.26
424.073	8.28
424.434	8.25
424.795	8.17
425.155	8.26
425.516	8.21
425.877	8.39
426.238	8.21
426.598	8.47
426.959	8.44
427.32	8.34
427.68	8.56
428.041	8.73
428.401	8.51
428.761	8.66
429.122	8.68
429.482	8.66
429.842	8.66
430.202	8.49
430.563	8.64
430.923	8.71
431.283	8.61
431.643	8.88
432.003	8.83
432.363	8.87
432.722	8.83
433.082	8.78
433.442	8.74
433.802	8.8
434.161	8.83
434.521	8.87
434.881	8.91
435.24	8.84
435.6	8.95
435.959	8.99
436.319	8.82
436.678	8.98
437.037	9.13
437.396	9.04
437.756	8.94
438.115	9.07
438.474	9.25
438.833	9.2
439.192	9.2
439.551	9.12
439.91	9.04
440.269	9.19
440.628	9.08
440.987	9.06
441.345	9.06
441.704	9.23
442.063	9.24
442.421	9.23
442.78	9.22
443.138	9.26
443.497	9.29
443.855	9.4
444.214	9.36
444.572	9.29
444.93	9.59
445.288	9.39
445.647	9.45
446.005	9.37
446.363	9.45
446.721	9.38
447.079	9.41
447.437	9.29
447.795	9.41
448.153	9.44
448.51	9.46
448.868	9.6
449.226	9.69
449.584	9.64
449.941	9.81
450.299	9.67
450.656	9.75
451.014	9.7
451.371	9.88
451.729	9.86
452.086	9.71
452.443	9.87
452.801	9.89
453.158	9.72
453.515	9.73
453.872	9.93
454.229	9.96
454.586	9.98
454.943	10.02
455.3	10.11
455.657	10.02
456.014	10.15
456.371	10.1
456.727	10.05
457.084	10.13
457.441	10.07
457.797	10.04
458.154	10.22
458.51	10.25
458.867	10.13
459.223	10.25
459.58	10.21
459.936	10.1
460.292	10.25
460.648	9.99
461.005	10.03
461.361	10.07
461.717	10.11
462.073	10.26
462.429	10.35
462.785	10.45
463.141	10.43
463.496	10.39
463.852	10.57
464.208	10.52
464.564	10.44
464.919	10.49
465.275	10.66
465.631	10.61
465.986	10.55
466.342	10.58
466.697	10.64
467.052	10.82
467.408	10.61
467.763	10.51
468.118	10.63
468.473	10.9
468.829	10.81
469.184	10.97
469.539	10.85
469.894	10.85
470.249	11.02
470.603	10.88
470.958	10.9
471.313	10.94
471.668	11.14
472.023	11.12
472.377	11.05
472.732	10.95
473.086	10.77
473.441	11.15
473.795	11.1
474.15	10.89
474.504	11.19
474.859	11.13
475.213	11.12
475.567	11.09
475.921	11.31
476.275	11.19
476.63	11.18
476.984	11.16
477.338	11.48
477.692	11.27
478.045	11.12
478.399	11.35
478.753	11.25
479.107	11.31
479.461	11.32
479.814	11.3
480.168	11.54
480.521	11.39
480.875	11.57
481.228	11.46
481.582	11.31
481.935	11.39
482.289	11.42
482.642	11.47
482.995	11.43
483.348	11.34
483.701	11.37
484.055	11.16
484.408	11.15
484.761	10.91
485.114	10.7
485.466	10.8
485.819	11.05
486.172	11.32
486.525	11.47
486.878	11.53
487.23	11.49
487.583	11.53
487.936	11.57
488.288	11.35
488.641	11.23
488.993	11.17
489.345	11.31
489.698	11.45
490.05	11.55
490.402	11.76
490.754	11.88
491.107	11.9
491.459	11.84
491.811	11.94
492.163	11.83
492.515	11.67
492.866	11.39
493.218	11.46
493.57	11.75
493.922	12.05
494.274	12.17
494.625	12.18
494.977	12.21
495.328	12.46
495.68	12.45
496.031	12.4
496.383	12.34
496.734	12.46
497.086	12.37
497.437	12.45
497.788	12.31
498.139	12.41
498.49	12.51
498.842	12.51
499.193	12.48
499.544	12.8
499.894	12.73
500.245	12.65
500.596	12.68
500.947	12.77
501.298	12.8
501.648	12.74
501.999	12.99
502.35	12.86
502.7	12.81
503.051	13
503.401	13.01
503.752	12.77
504.102	12.93
504.452	13.02
504.803	12.73
505.153	12.96
505.503	12.94
505.853	12.95
506.203	13.11
506.553	13.13
506.903	13.16
507.253	13.14
507.603	13.03
507.953	13.39
508.303	13.23
508.652	13.21
509.002	13.29
509.352	13.24
509.701	13.26
510.051	13.21
510.4	13.2
510.75	13.25
511.099	13.24
511.449	13.32
511.798	13.45
512.147	13.42
512.496	13.48
512.846	13.32
513.195	13.37
513.544	13.55
513.893	13.25
514.242	13.59
514.591	13.67
514.939	13.62
515.288	13.81
515.637	13.79
515.986	13.74
516.334	13.89
516.683	13.88
517.032	13.78
517.38	13.77
517.729	13.7
518.077	13.84
518.426	13.82
518.774	13.79
519.122	13.65
519.47	13.62
519.819	13.65
520.167	13.73
520.515	13.77
520.863	13.9
521.211	13.94
521.559	14.01
521.907	14.25
522.255	14.14
522.602	14.17
522.95	14.26
523.298	14.2
523.645	14.26
523.993	14.49
524.341	14.32
524.688	14.37
525.036	14.38
525.383	14.31
525.73	14.34
526.078	14.35
526.425	14.2
526.772	14.06
527.119	14.1
527.466	14.14
527.814	14.32
528.161	14.33
528.508	14.39
528.854	14.21
529.201	13.97
529.548	13.83
529.895	13.66
530.242	13.74
530.588	14.04
530.935	14.27
531.282	14.44
531.628	14.49
531.975	14.45
532.321	14.64
532.667	14.84
533.014	14.77
533.36	14.76
533.706	14.66
534.052	14.46
534.399	14.34
534.745	14.24
535.091	14.43
535.437	14.75
535.783	14.99
536.129	15.07
536.474	15.11
536.82	15.06
537.166	15.07
537.512	14.93
537.857	14.78
538.203	14.84
538.549	15.02
538.894	15.25
539.239	15.39
539.585	15.42
539.93	15.59
540.276	15.52
540.621	15.45
540.966	15.5
541.311	15.56
541.656	15.4
542.001	15.23
542.346	14.94
542.691	14.77
543.036	14.9
543.381	15.1
543.726	15.35
544.071	15.52
544.415	15.47
544.76	15.38
545.105	15.55
545.449	15.6
545.794	15.8
546.138	15.98
546.483	15.89
546.827	15.87
547.171	15.84
547.516	15.96
547.86	15.8
548.204	15.79
548.548	15.9
548.892	15.97
549.236	16.22
549.58	16.28
549.924	16.37
550.268	16.44
550.612	16.53
550.956	16.44
551.3	16.45
551.643	16.62
551.987	16.56
552.33	16.5
552.674	16.73
553.017	16.7
553.361	16.59
553.704	16.64
554.048	16.73
554.391	16.64
554.734	16.73
555.077	16.82
555.42	16.91
555.764	16.8
556.107	16.88
556.45	16.86
556.793	17.2
557.135	17.15
557.478	17.22
557.821	16.93
558.164	17.29
558.507	17.19
558.849	17.14
559.192	17.15
559.534	17.08
559.877	17.29
560.219	17.43
560.562	17.26
560.904	17.5
561.246	17.56
561.589	17.57
561.931	17.52
562.273	17.27
562.615	17.43
562.957	17.6
563.299	17.51
563.641	17.72
563.983	17.56
564.325	17.58
564.667	17.44
565.008	17.59
565.35	18.04
565.692	17.89
566.033	17.66
566.375	17.56
566.716	17.82
567.058	17.77
567.399	17.62
567.741	17.61
568.082	17.83
568.423	17.94
568.764	18.01
569.105	17.9
569.447	18.02
569.788	17.93
570.129	18.21
570.47	18.16
570.811	18.09
571.151	18.07
571.492	18.35
571.833	18.13
572.174	18.09
572.514	18.14
572.855	18.16
573.195	18.22
573.536	18.25
573.876	18.35
574.217	18.35
574.557	18.42
574.898	18.41
575.238	18.39
575.578	18.57
575.918	18.42
576.258	18.45
576.598	18.38
576.938	18.7
577.278	18.61
577.618	18.58
577.958	18.82
578.298	18.91
578.638	18.78
578.977	18.73
579.317	18.84
579.657	18.92
579.996	18.94
580.336	18.93
580.675	19.13
581.014	18.95
581.354	19.08
581.693	19.06
582.032	19.17
582.372	19.26
582.711	19.49
583.05	19.38
583.389	19.54
583.728	19.63
584.067	19.43
584.406	19.33
584.745	19.47
585.083	19.84
585.422	19.5
585.761	19.55
586.1	19.61
586.438	19.73
586.777	19.75
587.115	19.72
587.454	19.7
587.792	19.6
588.13	20
588.469	19.93
588.807	19.76
589.145	20.13
589.483	19.89
589.821	20.03
590.159	19.73
590.497	19.79
590.835	20.03
591.173	20.3
591.511	19.94
591.849	20.14
592.187	20.32
592.524	20.11
592.862	20.4
593.2	20.43
593.537	20.15
593.875	20.29
594.212	20.51
594.55	20.33
594.887	20.5
595.224	20.2
595.561	20.24
595.899	20.14
596.236	20.43
596.573	20.28
596.91	20.49
597.247	20.46
597.584	20.34
597.921	20.38
598.258	20.48
598.594	20.2
598.931	20.51
599.268	20.63
599.604	20.77
599.941	20.89
600.277	20.82
600.614	20.76
600.95	21.34
601.287	20.96
601.623	21.1
601.959	20.9
602.296	20.83
602.632	21.13
602.968	21.15
603.304	20.94
603.64	20.82
603.976	21.11
604.312	21.11
604.648	21.13
604.984	20.98
605.319	21.04
605.655	21.13
605.991	21.13
606.326	20.96
606.662	21.11
606.998	21.31
607.333	21.43
607.668	21.47
608.004	21.63
608.339	21.85
608.674	21.73
609.01	21.84
609.345	21.74
609.68	21.61
610.015	21.63
610.35	21.48
610.685	21.53
611.02	21.49
611.355	21.71
611.689	21.57
612.024	21.92
612.359	21.9
612.694	22.05
613.028	22
613.363	21.83
613.697	21.92
614.032	22.01
614.366	22.12
614.7	22.25
615.035	22.21
615.369	22.17
615.703	22.54
616.037	22.14
616.371	22.21
616.705	22.2
617.039	22.29
617.373	22.37
617.707	22.49
618.041	22.76
618.375	22.17
618.709	22.43
619.042	22.31
619.376	22.43
619.71	22.42
620.043	22.6
620.377	22.63
620.71	22.39
621.043	22.53
621.377	22.65
621.71	22.77
622.043	22.82
622.376	22.8
622.709	23.37
623.043	22.81
623.376	22.96
623.709	23.27
624.041	22.8
624.374	22.75
624.707	22.99
625.04	23.23
625.373	22.67
625.705	22.98
626.038	22.65
626.37	23.55
626.703	22.69
627.035	23.07
627.368	23.15
627.7	23.16
628.032	23.34
628.365	22.96
628.697	23.2
629.029	23.12
629.361	23.31
629.693	23.78
630.025	23.57
630.357	23.33
630.689	23.75
631.021	23.37
631.353	23.62
631.684	23.67
632.016	23.96
632.348	23.6
632.679	23.59
633.011	23.9
633.342	23.81
633.674	23.5
634.005	23.67
634.336	23.59
634.668	24.13
634.999	23.52
635.33	23.72
635.661	24.09
635.992	23.64
636.323	24.22
636.654	24
636.985	23.97
637.316	24.17
637.647	24
637.977	24.23
638.308	23.99
638.639	23.97
638.969	24.03
639.3	24.24
639.63	24.2
639.961	24.17
640.291	24.65
640.622	24.6
640.952	24.34
641.282	24.21
641.612	23.89
641.943	24.56
642.273	24.45
642.603	24.62
642.933	24.57
643.263	24.59
643.592	24.85
643.922	24.83
644.252	24.7
644.582	24.96
644.911	24.96
645.241	24.59
645.571	24.91
645.9	24.89
646.23	24.46
646.559	25.12
646.888	24.72
647.218	24.65
647.547	25.12
647.876	24.97
648.205	25
648.534	24.7
648.863	25.2
649.192	24.86
649.521	24.65
649.85	25.25
650.179	25.31
650.508	25.64
650.837	25.17
651.165	25.52
651.494	25.27
651.822	25.67
652.151	25.68
652.479	25.71
652.808	24.84
653.136	25.35
653.465	25.68
653.793	25.67
654.121	25.72
654.449	25.39
654.777	25.57
655.105	25.73
655.433	25.41
655.761	25.73
656.089	25.59
656.417	25.41
656.745	25.77
657.073	25.79
657.4	25.98
657.728	26.1
658.056	25.85
658.383	25.67
658.711	26.13
659.038	26.09
659.365	25.69
659.693	25.92
660.02	25.64
660.347	25.56
660.674	25.6
661.001	25.56
661.329	25.87
661.656	25.67
661.982	26.09
662.309	26.32
662.636	26.24
662.963	26.22
663.29	26.24
663.616	26.04
663.943	26.75
664.27	26.31
664.596	26.51
664.923	26.61
665.249	26.53
665.576	26.14
665.902	26.26
666.228	25.92
666.554	26.37
666.881	26.81
667.207	26.38
667.533	27.06
667.859	26.35
668.185	26.88
668.511	25.95
668.837	26.8
669.162	26.68
669.488	26.34
669.814	27.06
670.139	26.81
670.465	26.3
670.791	26.84
671.116	26.47
671.442	27.22
671.767	27.19
672.092	27.15
672.418	26.85
672.743	26.66
673.068	26.76
673.393	26.8
673.718	26.61
674.043	26.83
674.368	27.36
674.693	27.38
675.018	27.08
675.343	27.66
675.667	27.28
675.992	26.68
676.317	27.84
676.641	27.39
676.966	26.76
677.29	26.64
677.615	27.32
677.939	27.52
678.264	27.51
678.588	27.54
678.912	27.55
679.236	27.29
679.56	27.39
679.885	27.63
680.209	26.85
680.532	27.18
680.856	27.83
681.18	27.64
681.504	27.3
681.828	27.08
682.152	27.48
682.475	27.88
682.799	27.8
683.122	27.31
683.446	27.62
683.769	28.02
684.093	28.17
684.416	27.39
684.739	28.12
685.062	28
685.386	27.93
685.709	28.08
686.032	27.8
686.355	28.02
686.678	28.35
687.001	27.55
687.324	27.7
687.646	28.1
687.969	28.17
688.292	28.31
688.614	28.87
688.937	28.35
689.26	27.7
689.582	28.48
689.904	27.76
690.227	28.15
690.549	28.46
690.871	28.33
691.194	28.27
691.516	27.82
691.838	28.43
692.16	28.48
692.482	28.98
692.804	28.38
693.126	28.27
693.448	28.16
693.769	27.83
694.091	29.24
694.413	28.42
694.735	29.02
695.056	28.96
695.378	27.85
695.699	28.92
696.021	28.7
696.342	28.89
696.663	28.39
696.984	28.49
697.306	28.15
697.627	28.85
697.948	28.98
698.269	28.26
698.59	29
698.911	28.32
699.232	29.04
699.553	28.61
699.873	28.62
700.194	28.76
700.515	28.74
700.835	28.87
701.156	28.72
701.477	29.24
701.797	29.33
702.117	29.3
702.438	29.75
702.758	29.37
703.078	28.97
703.398	29.68
703.719	29.72
704.039	29.33
704.359	29.48
704.679	29.35
704.999	30.21
705.319	28.87
705.638	29.37
705.958	29.23
706.278	29.81
706.597	29.51
706.917	29.32
707.237	29.57
707.556	29.7
707.876	29.62
708.195	28.91
708.514	29.4
708.834	30.32
709.153	29.33
709.472	29.74
709.791	29.8
710.11	29.21
710.429	29.38
710.748	29.88
711.067	29.98
711.386	29.71
711.705	29.43
712.023	29.1
712.342	29.86
712.661	30.18
712.979	30.33
713.298	30.46
713.616	30.91
713.935	29.8
714.253	30.03
714.572	29.66
714.89	29.4
715.208	29.94
715.526	30.39
715.844	29.97
716.162	29.98
716.48	29.9
716.798	32.08
717.116	30.71
717.434	30.92
717.752	30.39
718.069	29.66
718.387	30.26
718.705	29.84
719.022	30.53
719.34	30.23
719.657	30.78
719.975	29.81
720.292	29.37
720.609	29.54
720.927	30.89
721.244	30.9
721.561	30.07
721.878	30.45
722.195	30.21
722.512	31.06
722.829	30.24
723.146	29.24
723.463	30.55
723.779	30.75
724.096	28.76
724.413	30.53
724.729	31.47
725.046	31.86
725.362	28.71
725.679	31.07
725.995	30
726.311	31.19
726.628	30.63
726.944	31.9
727.26	29.71
727.576	31.17
727.892	30.55
728.208	30.38
728.524	31.5
728.84	30.93
729.156	31.54
729.472	32.77
729.787	31.67
730.103	31.03
730.419	31.04
730.734	30.03
731.05	31.4
731.365	31.58
731.681	30.63
731.996	30.49
732.311	31.93
732.626	31.85
732.942	30.9
733.257	31.27
733.572	30.79
733.887	30.77
734.202	31.93
734.517	31.79
734.832	31.46
735.146	31.2
735.461	30.13
735.776	30.74
736.091	32.72
736.405	30.9
736.72	31.8
737.034	31.06
737.349	31.05
737.663	30.42
737.977	31.89
738.292	31.86
738.606	30.84
738.92	32.73
739.234	31.93
739.548	32.43
739.862	32.56
740.176	31.7
740.49	31.93
740.804	33.18
741.117	30.79
741.431	32.62
741.745	32.42
742.058	30.49
742.372	32.3
742.685	32.27
742.999	32.85
743.312	32.45
743.626	31.2
743.939	30.61
744.252	29.94
744.565	30.9
744.878	31.83
745.191	32.72
745.505	33.16
745.817	32.58
746.13	30.97
746.443	32.59
746.756	33.65
747.069	31.42
747.381	31.87
747.694	29.97
748.007	33.94
748.319	33.27
748.632	32.65
748.944	32.49
749.256	34.8
749.569	32.43
749.881	31.75
750.193	33.37
750.505	34.47
750.817	32.74
751.129	33.38
751.441	32.94
751.753	32.04
752.065	33.06
752.377	32.61
752.689	34.01
753	32.44
753.312	30.97
753.624	33.9
753.935	29.44
754.247	33.38
754.558	31.85
754.869	33.23
755.181	33.41
755.492	34.46
755.803	33.06
756.114	32.23
756.425	32.59
756.736	31.69
757.047	33.37
757.358	34.59
757.669	34.01
757.98	34.23
758.291	34.54
758.601	34.09
758.912	34.1
759.223	31.42
759.533	33.14
759.844	33.12
760.154	34.71
760.464	32.39
760.775	34.43
761.085	32.33
761.395	34.43
761.705	34.1
762.016	32.59
762.326	33.09
762.636	33.18
762.945	32.87
763.255	34.27
763.565	33.61
763.875	35.1
764.185	33.47
764.494	34.08
764.804	33.86
765.113	33.69
765.423	33.22
765.732	33.39
766.042	33.71
766.351	33.67
766.66	34.4
766.97	34.8
767.279	34.32
767.588	33.72
767.897	34.14
768.206	32.83
768.515	33.46
768.824	33.7
769.133	33.55
769.441	37.54
769.75	34.6
770.059	33.53
770.367	33.74
770.676	33.23
770.984	34.3
771.293	34.08
771.601	34.01
771.91	35.56
772.218	31.58
772.526	34.29
772.834	34.96
773.142	34.36
773.45	29.78
773.758	34.39
774.066	33.94
774.374	30.36
774.682	33.13
774.99	35.89
775.298	31.57
775.605	34.43
775.913	33.73
776.22	36.03
776.528	33.85
776.835	36.25
777.143	36.74
777.45	34.79
777.757	38.13
778.065	35.49
778.372	31.21
778.679	33.17
778.986	34.47
779.293	34.29
779.6	35.43
779.907	32.85
780.214	34.25
780.52	39.05
780.827	33.33
781.134	34.7
781.44	34.82
781.747	37.1
782.053	39.31
782.36	35.07
782.666	36.29
782.973	32.57
783.279	34.22
783.585	36.5
783.891	34.27
784.197	34.33
784.503	35.13
784.809	37.19
785.115	31.37
785.421	37.5
785.727	35.15
786.033	35.34
786.339	34.46
786.644	35.64
786.95	38.41
787.255	36.12
787.561	37.44
787.866	35.42
788.172	34.18
788.477	35.94
788.782	31.93
789.088	35.75
789.393	34.38
789.698	34.2
790.003	37.01
790.308	30.38
790.613	34.2
790.918	37.09
791.223	32.37
791.527	38.09
791.832	35.07
792.137	38.69
792.441	34.97
792.746	35
793.05	35.46
793.355	36.37
793.659	38
793.963	34.26
794.268	37.16
794.572	37.13
794.876	35.88
795.18	35.43
795.484	30.71
795.788	31.82
796.092	39.92
796.396	36.13
796.7	34.9
797.004	35.97
797.307	33.45
797.611	30.95
797.915	35.29
798.218	37.71
798.522	33.73
798.825	34.57
799.128	37.73
799.432	38.88
799.735	36.31
800.038	31.57
800.341	35.07
800.644	36.1
800.947	37.48
801.25	32.34
801.553	33.67
801.856	35.59
802.159	32.7
802.462	34.06
802.764	33.62
803.067	34.48
803.37	36.46
803.672	37.49
803.975	35.67
804.277	40.41
804.579	39.08
804.882	31.51
805.184	38.39
805.486	36.66
805.788	39.3
806.09	39.75
806.392	38.61
806.694	36.28
806.996	38.7
807.298	34.77
807.6	33.61
807.902	35.64
808.203	36.09
808.505	33.57
808.807	37.39
809.108	31.08
809.409	37.98
809.711	32.49
810.012	34.97
810.313	37.42
810.615	36.52
810.916	30.15
811.217	40.48
811.518	43.4
811.819	39.32
812.12	34.69
812.421	35.41
812.722	34.88
813.023	38.06
813.323	38.08
813.624	42.28
813.925	37.33
814.225	41.44
814.526	40.36
814.826	37.87
815.126	37.68
815.427	39
815.727	35.19
816.027	39.76
816.327	42.67
816.627	33.41
816.927	37.99
817.227	31.78
817.527	31.83
817.827	36
818.127	42.61
818.427	33.18
818.727	44.92
819.026	38.87
819.326	41.39
819.625	40.24
819.925	37.23
820.224	37.57
820.524	36.98
820.823	32.04
821.122	40.77
821.421	37.92
821.72	40.91
822.019	37.15
822.318	41.13
822.617	38.05
822.916	36.99
823.215	38.94
823.514	37.84
823.813	39.34
824.111	39.5
824.41	37.86
824.709	38.99
825.007	38.8
825.306	38.82
825.604	41.2
825.902	38.81
826.201	40.84
826.499	41.39
826.797	39.89
827.095	40.2
827.393	41.24
827.691	42.43
827.989	40.61
828.287	41.38
828.585	36.72
828.882	38.79
829.18	37.58
829.478	38.75
829.775	41.41
830.073	41.26
830.37	37.86
830.668	38.96
830.965	38.7
831.263	39.3
831.56	42.93
831.857	41.49
832.154	42.48
832.451	39.16
832.748	39.17
833.045	44.71
833.342	39.49
833.639	38.86
833.936	37.34
834.232	42.04
834.529	32.92
834.826	34.01
835.122	37.4
835.419	38.33
835.715	32.09
836.012	42.8
836.308	41.61
836.604	41.35
836.901	42.08
837.197	41.07
837.493	40.45
837.789	39.32
838.085	40.95
838.381	39.19
838.677	41.31
838.972	35.15
839.268	36.96
839.564	36.14
839.86	36.71
840.155	39.9
840.451	39.43
840.746	43.77
841.042	31.59
841.337	29.68
841.632	41.31
841.928	42.12
842.223	38.3
842.518	42.96
842.813	38.44
843.108	38.04
843.403	43.29
843.698	37.85
843.993	41.92
844.287	34.36
844.582	46.38
844.877	39.72
845.171	44.53
845.466	42.5
845.761	38.21
846.055	36.46
846.349	6.21
846.644	42.24
846.938	38.61
847.232	31.42
847.526	39.28
847.82	40.67
848.114	42.62
848.408	38.85
848.702	29.76
848.996	38.77
849.29	26.63
849.584	32.6
849.877	26.61
850.171	32.92
850.465	43.99
850.758	27.89
851.052	46.72
851.345	28.17
851.638	28.44
851.932	38.17
852.225	26.14
852.518	36.41
852.811	37.36
853.104	69.55
853.397	23.78
853.69	50.45
853.983	31.32
854.276	22.89
854.569	18.74
854.861	35.79
855.154	29.78
855.447	26.87
855.739	44.22
856.032	24.9
856.324	31.55
856.616	46.36
856.909	45.43
857.201	37.63
857.493	48.09
857.785	25.53
858.077	36.7
858.369	31.97
858.661	47.79
858.953	12.53
859.245	36.06
859.537	63.58
859.829	42.99
860.12	33.23
860.412	36.76
860.703	36.7
860.995	9.24
861.286	50.31
861.578	19.84
861.869	34.7
862.16	24.92
862.452	39.45
862.743	51.91
863.034	51.2
863.325	37.55
863.616	34.58
863.907	48
864.198	38.01
864.488	24.26
864.779	46.69
865.07	30.82
865.36	39.29
865.651	23.88
865.941	59.21
866.232	37.62
866.522	36.77
866.813	45.22
867.103	33.48
867.393	14.63
867.683	35.87
867.973	28.31
868.263	25.11
868.553	27.42
868.843	-1.36
869.133	46.06
869.423	32.17
869.713	39.4
870.002	9.15
870.292	23.13
870.582	39.11
870.871	20.54
871.161	6.68
871.45	46.72
871.739	46.82
872.029	26.17
872.318	35.65
872.607	46.95
872.896	31.54
873.185	36.73
873.474	36.83
873.763	43.8
874.052	22.75
874.341	3.4
874.63	33.53
874.918	36.01
875.207	42.14
875.496	36.27
875.784	31.72
876.073	40.44
876.361	46.3
876.649	55.68
876.938	36.99
877.226	43.73
877.514	6.06
877.802	29.5
878.09	39
878.378	34.23
878.666	31.37
878.954	58.95
879.242	48.64
879.53	-3.89
879.817	48.7
880.105	66.79
880.392	46.18
880.68	39.82
880.967	36.13
881.255	26.74
881.542	47.38
881.83	30.03
882.117	40.16
882.404	29.92
882.691	19.27
882.978	25.88
883.265	44.54
883.552	34.82
883.839	56.54
884.126	43.93
884.413	43.78
884.699	45.46
884.986	44.18
885.273	45.43
885.559	45.43
885.846	45.43
