Data from 0059_chest_Reflection__3__166.txt Node

Date: Fri Dec 16 15:20:38 CST 2022
User: ToomeyLab
Spectrometer: FLMS14357
Trigger mode: 0
Integration Time (sec): 1.000000E-2
Scans to average: 100
Electric dark correction enabled: true
Nonlinearity correction enabled: false
Boxcar width: 0
XAxis mode: Wavelengths
Number of Pixels in Spectrum: 2048
>>>>>Begin Spectral Data<<<<<
189.047	-113.52
189.435	-113.52
189.823	-113.52
190.211	1086.78
190.599	-21.87
190.987	-2584.48
191.375	14.55
191.763	11
192.151	168.07
192.538	18.15
192.926	44.39
193.314	-22092.86
193.702	340.67
194.089	-54.44
194.477	-333.93
194.864	-768.6
195.252	27.89
195.639	203.42
196.027	-119.48
196.414	0.75
196.801	-1216.67
197.189	143.32
197.576	38.26
197.963	-146.79
198.351	18.41
198.738	-58.59
199.125	13.87
199.512	13.58
199.899	-18.12
200.286	-8.44
200.673	20.28
201.06	23.73
201.447	30.98
201.833	26.7
202.22	-1.38
202.607	19.32
202.994	4.2
203.38	-32.97
203.767	-38.94
204.154	-35.93
204.54	11.81
204.927	28.68
205.313	21.25
205.699	8.05
206.086	-4.23
206.472	10.85
206.858	27.85
207.245	13.88
207.631	-18.03
208.017	22.75
208.403	17.39
208.789	-10.81
209.175	40.79
209.561	-18.74
209.947	-3.94
210.333	-60.29
210.719	-15.42
211.105	-19.58
211.491	-1.46
211.876	-17.97
212.262	-47.26
212.648	-61.25
213.034	-5.61
213.419	21.52
213.805	12.93
214.19	-24.39
214.576	-7.35
214.961	-24.2
215.346	10.52
215.732	16.02
216.117	-42.63
216.502	-7.52
216.888	-43.71
217.273	18.3
217.658	-9.48
218.043	-0.67
218.428	-36.37
218.813	-2.84
219.198	-31.51
219.583	-3.9
219.968	2.78
220.353	16.78
220.738	-0.73
221.122	0.51
221.507	0.25
221.892	-15.84
222.276	-3
222.661	-14.97
223.046	7.41
223.43	-10.04
223.815	4.97
224.199	7.89
224.583	-0.47
224.968	-6.05
225.352	-3.46
225.736	6.2
226.121	-10.12
226.505	-4.33
226.889	2.98
227.273	2.49
227.657	0.92
228.041	5.29
228.425	7.45
228.809	1.58
229.193	0.49
229.577	2.41
229.961	2.05
230.344	3.32
230.728	1.73
231.112	2.41
231.495	2.29
231.879	2.84
232.263	-0.01
232.646	0.9
233.03	-0.92
233.413	-0.49
233.797	5.16
234.18	-1.59
234.563	1.6
234.946	1.99
235.33	2.08
235.713	2.92
236.096	2.27
236.479	2.53
236.862	1.92
237.245	2.86
237.628	0.91
238.011	2.48
238.394	3.66
238.777	3.03
239.16	-2.69
239.543	2.08
239.925	3.74
240.308	3.04
240.691	1.92
241.073	2.46
241.456	2.22
241.838	1.76
242.221	2.35
242.603	2.64
242.986	2.75
243.368	2.19
243.75	2.39
244.133	2.37
244.515	1.95
244.897	1.87
245.279	2.04
245.661	1.67
246.043	2.44
246.425	1.11
246.807	2.14
247.189	2.24
247.571	2.48
247.953	2.17
248.335	2.62
248.717	2.37
249.098	2.67
249.48	2.24
249.862	2.61
250.243	2.12
250.625	1.99
251.006	2.4
251.388	3.02
251.769	2.31
252.151	3.68
252.532	2.24
252.913	2.43
253.295	2.26
253.676	2.82
254.057	2.06
254.438	2.06
254.819	2.18
255.2	2.15
255.581	2.47
255.962	2.07
256.343	2.6
256.724	3.46
257.105	3.79
257.486	1.92
257.867	1.01
258.247	2.46
258.628	3.17
259.009	2.29
259.389	3.19
259.77	2.31
260.15	2.82
260.531	2.64
260.911	2.46
261.292	2.19
261.672	2.28
262.052	2.37
262.432	2.19
262.813	2.2
263.193	1.92
263.573	2.04
263.953	2.07
264.333	1.82
264.713	1.47
265.093	1.85
265.473	3.38
265.853	2.46
266.233	1.63
266.612	2.67
266.992	1.45
267.372	2.2
267.752	1.9
268.131	2.67
268.511	2.24
268.89	2.67
269.27	2.2
269.649	3.04
270.029	2.21
270.408	2.46
270.787	1.68
271.167	2.45
271.546	1.64
271.925	1.7
272.304	2.19
272.683	2.27
273.062	2.95
273.441	2.61
273.82	2.32
274.199	2.8
274.578	2.31
274.957	2.34
275.336	2.74
275.715	2.87
276.093	2.81
276.472	2.12
276.851	2.77
277.229	2.94
277.608	1.71
277.986	2.09
278.365	2.32
278.743	2.61
279.122	2.06
279.5	1.76
279.878	1.73
280.257	2.13
280.635	1.55
281.013	2.33
281.391	1.94
281.769	1.86
282.147	1.75
282.525	2.39
282.903	2.43
283.281	2.28
283.659	2.45
284.037	1.94
284.415	2.48
284.792	2.21
285.17	1.53
285.548	1.91
285.925	2.63
286.303	2.3
286.68	2.67
287.058	2.25
287.435	1.95
287.813	2.45
288.19	2.56
288.567	1.84
288.945	2.66
289.322	1.61
289.699	1.84
290.076	2.46
290.453	2.19
290.83	2.35
291.207	1.91
291.584	2.33
291.961	2.33
292.338	2.4
292.715	2.96
293.092	2.56
293.469	2.32
293.845	2.37
294.222	2.46
294.599	2.28
294.975	2.24
295.352	1.95
295.728	2.2
296.105	2.61
296.481	3.04
296.858	2.85
297.234	2.48
297.61	2.61
297.986	2.24
298.363	2.16
298.739	2.45
299.115	2.26
299.491	2.12
299.867	2.42
300.243	2.24
300.619	2.68
300.995	2.53
301.371	2.73
301.746	2.36
302.122	2.69
302.498	2.55
302.874	2.74
303.249	2.76
303.625	2.88
304	2.16
304.376	2.3
304.751	2.76
305.127	1.91
305.502	2.91
305.878	2.53
306.253	2.19
306.628	3.34
307.003	2.8
307.378	2.62
307.754	2.62
308.129	2.07
308.504	2.69
308.879	2.61
309.254	2.94
309.629	2.68
310.003	2.88
310.378	2.56
310.753	2.82
311.128	2.53
311.502	2.62
311.877	2.95
312.252	2.86
312.626	2.47
313.001	3.07
313.375	2.5
313.75	2.84
314.124	2.89
314.498	2.38
314.873	2.1
315.247	2
315.621	3.29
315.995	2.82
316.369	2.77
316.743	2.53
317.117	3.06
317.491	2.74
317.865	2.09
318.239	3.36
318.613	2.9
318.987	2.63
319.361	2.53
319.734	2.85
320.108	2.72
320.482	2.68
320.855	2.69
321.229	3.01
321.602	2.66
321.976	2.8
322.349	2.18
322.723	2.25
323.096	2.35
323.469	2.28
323.843	2.67
324.216	2.13
324.589	3.71
324.962	3.03
325.335	2.93
325.708	2.98
326.081	3.14
326.454	2.59
326.827	3.15
327.2	3.03
327.573	3.16
327.945	2.97
328.318	3.03
328.691	2.97
329.063	2.8
329.436	2.53
329.809	2.4
330.181	3.01
330.553	3.14
330.926	3.14
331.298	2.41
331.671	3.04
332.043	3.32
332.415	2.92
332.787	3.3
333.159	2.55
333.532	2.69
333.904	3.27
334.276	2.64
334.648	2.85
335.02	2.45
335.391	2.82
335.763	2.73
336.135	2.86
336.507	2.68
336.879	2.59
337.25	2.4
337.622	2.99
337.993	2.83
338.365	2.97
338.736	3.2
339.108	2.81
339.479	2.81
339.851	3.37
340.222	3.08
340.593	2.88
340.964	2.89
341.336	2.38
341.707	2.77
342.078	2.35
342.449	3.14
342.82	2.61
343.191	2.49
343.562	2.8
343.933	2.75
344.303	2.61
344.674	2.8
345.045	3.29
345.416	3.13
345.786	2.37
346.157	3.3
346.527	2.42
346.898	3.11
347.268	2.93
347.639	2.97
348.009	3.3
348.38	3.12
348.75	3.13
349.12	2.96
349.49	2.72
349.861	3.08
350.231	3.35
350.601	2.83
350.971	2.78
351.341	2.92
351.711	3.12
352.081	3.2
352.45	2.91
352.82	2.99
353.19	2.88
353.56	2.74
353.929	3.1
354.299	2.57
354.669	3.41
355.038	2.86
355.408	3.39
355.777	2.6
356.147	3.28
356.516	3.6
356.885	3.12
357.254	3
357.624	3.27
357.993	2.87
358.362	3.15
358.731	2.99
359.1	3.31
359.469	3.13
359.838	3.21
360.207	2.95
360.576	2.79
360.945	3.06
361.314	3.26
361.682	2.84
362.051	3.1
362.42	3.15
362.788	3.32
363.157	3.04
363.525	2.84
363.894	2.92
364.262	2.76
364.631	3.84
364.999	2.77
365.367	3.47
365.735	3.08
366.104	3.18
366.472	3.44
366.84	3.19
367.208	2.98
367.576	3.1
367.944	3.13
368.312	2.74
368.68	3.1
369.048	3.12
369.416	2.9
369.783	2.9
370.151	3.37
370.519	3.22
370.886	3.07
371.254	3.26
371.621	3.12
371.989	3.26
372.356	3.17
372.724	3.58
373.091	3.1
373.458	3.14
373.826	3.3
374.193	3.48
374.56	3
374.927	3.21
375.294	3.55
375.661	3.03
376.028	3.64
376.395	3.12
376.762	3.53
377.129	3.3
377.496	3.05
377.863	3.11
378.229	3.17
378.596	3.07
378.963	3
379.329	3.17
379.696	3.39
380.062	3.54
380.429	3.2
380.795	3.47
381.161	3.46
381.528	2.58
381.894	3.23
382.26	3.12
382.626	3.2
382.993	3.06
383.359	3.01
383.725	3.3
384.091	3.2
384.457	3.24
384.823	3.17
385.188	3.35
385.554	3.27
385.92	3.42
386.286	3.31
386.651	3.25
387.017	3.27
387.383	3.2
387.748	3.21
388.114	3.37
388.479	3.31
388.845	3.64
389.21	3.53
389.575	3.47
389.94	3.6
390.306	3.31
390.671	3.16
391.036	3.42
391.401	3.45
391.766	3.34
392.131	3.36
392.496	3.34
392.861	3.17
393.226	3.34
393.591	3.38
393.956	3.28
394.32	3.2
394.685	3.27
395.05	3.29
395.414	3.51
395.779	3.49
396.143	3.29
396.508	3.62
396.872	3.45
397.236	3.13
397.601	3.54
397.965	3.13
398.329	3.37
398.694	3.37
399.058	3.3
399.422	3.56
399.786	3.5
400.15	3.34
400.514	3.48
400.878	3.36
401.242	3.67
401.605	3.35
401.969	3.33
402.333	3.19
402.697	3.57
403.06	3.65
403.424	3.42
403.787	3.7
404.151	3.53
404.514	3.42
404.878	3.48
405.241	3.59
405.604	3.57
405.968	3.37
406.331	3.18
406.694	3.48
407.057	3.71
407.42	3.6
407.783	3.53
408.146	3.53
408.509	3.51
408.872	3.29
409.235	3.59
409.598	3.61
409.961	3.55
410.323	3.62
410.686	3.36
411.049	3.75
411.411	3.58
411.774	3.48
412.136	3.55
412.499	3.44
412.861	3.33
413.223	3.8
413.586	3.42
413.948	3.61
414.31	3.48
414.672	3.27
415.035	3.54
415.397	3.63
415.759	3.38
416.121	3.81
416.483	3.77
416.845	3.65
417.206	3.53
417.568	3.64
417.93	3.43
418.292	3.38
418.653	3.56
419.015	3.5
419.377	3.66
419.738	3.59
420.1	3.45
420.461	3.46
420.822	3.65
421.184	3.63
421.545	3.58
421.906	3.61
422.267	3.49
422.629	3.56
422.99	3.52
423.351	3.6
423.712	3.55
424.073	3.59
424.434	3.5
424.795	3.52
425.155	3.59
425.516	3.5
425.877	3.54
426.238	3.5
426.598	3.56
426.959	3.48
427.32	3.68
427.68	3.68
428.041	3.72
428.401	3.68
428.761	3.51
429.122	3.54
429.482	3.56
429.842	3.66
430.202	3.71
430.563	3.71
430.923	3.62
431.283	3.69
431.643	3.69
432.003	3.7
432.363	3.74
432.722	3.56
433.082	3.66
433.442	3.58
433.802	3.67
434.161	3.59
434.521	3.78
434.881	3.81
435.24	3.78
435.6	3.71
435.959	3.83
436.319	3.68
436.678	3.76
437.037	3.66
437.396	3.76
437.756	3.85
438.115	3.7
438.474	3.89
438.833	3.86
439.192	3.81
439.551	3.68
439.91	3.89
440.269	3.82
440.628	3.84
440.987	3.59
441.345	3.74
441.704	3.74
442.063	3.9
442.421	3.86
442.78	3.67
443.138	3.77
443.497	3.61
443.855	3.88
444.214	3.73
444.572	3.69
444.93	3.85
445.288	3.76
445.647	3.78
446.005	3.74
446.363	3.79
446.721	3.67
447.079	3.75
447.437	3.82
447.795	3.78
448.153	3.8
448.51	3.79
448.868	3.86
449.226	3.81
449.584	3.83
449.941	3.96
450.299	3.87
450.656	3.95
451.014	3.85
451.371	3.96
451.729	3.86
452.086	3.8
452.443	3.95
452.801	4.03
453.158	3.9
453.515	3.91
453.872	4.03
454.229	3.87
454.586	3.77
454.943	3.92
455.3	3.96
455.657	3.82
456.014	3.99
456.371	4
456.727	3.9
457.084	3.85
457.441	3.88
457.797	4.14
458.154	3.96
458.51	3.93
458.867	3.87
459.223	4.04
459.58	3.87
459.936	3.89
460.292	3.97
460.648	3.92
461.005	3.84
461.361	3.92
461.717	3.89
462.073	3.95
462.429	3.97
462.785	3.99
463.141	4.08
463.496	3.96
463.852	4.02
464.208	4.06
464.564	4.01
464.919	4.04
465.275	4
465.631	3.97
465.986	4.04
466.342	4.15
466.697	4.12
467.052	4.04
467.408	4.03
467.763	3.87
468.118	3.99
468.473	4.14
468.829	4.05
469.184	4.13
469.539	3.96
469.894	4.01
470.249	4.02
470.603	4.12
470.958	4.21
471.313	4.15
471.668	4.34
472.023	4.28
472.377	4.04
472.732	4.01
473.086	4.03
473.441	4.13
473.795	4.22
474.15	4.07
474.504	4.09
474.859	4.24
475.213	4.02
475.567	4.11
475.921	4.11
476.275	4.08
476.63	4.2
476.984	4.18
477.338	4.54
477.692	4.26
478.045	4.07
478.399	4.35
478.753	3.98
479.107	4.22
479.461	4.17
479.814	4.07
480.168	4.18
480.521	4.23
480.875	4.25
481.228	4.3
481.582	4.11
481.935	4.2
482.289	4.16
482.642	4.21
482.995	4.18
483.348	4.17
483.701	4.22
484.055	4.07
484.408	4.1
484.761	3.97
485.114	4
485.466	3.95
485.819	4
486.172	4.05
486.525	4.18
486.878	4.14
487.23	4.21
487.583	4.13
487.936	4.16
488.288	4.15
488.641	4.08
488.993	4.02
489.345	4.09
489.698	4.19
490.05	4.16
490.402	4.23
490.754	4.24
491.107	4.29
491.459	4.34
491.811	4.34
492.163	4.33
492.515	4.23
492.866	4.16
493.218	4.1
493.57	4.19
493.922	4.23
494.274	4.34
494.625	4.36
494.977	4.32
495.328	4.42
495.68	4.57
496.031	4.49
496.383	4.5
496.734	4.55
497.086	4.31
497.437	4.57
497.788	4.41
498.139	4.41
498.49	4.53
498.842	4.38
499.193	4.44
499.544	4.53
499.894	4.41
500.245	4.44
500.596	4.66
500.947	4.48
501.298	4.42
501.648	4.45
501.999	4.67
502.35	4.71
502.7	4.57
503.051	4.72
503.401	4.71
503.752	4.51
504.102	4.49
504.452	4.39
504.803	4.37
505.153	4.58
505.503	4.58
505.853	4.55
506.203	4.69
506.553	4.67
506.903	4.69
507.253	4.7
507.603	4.59
507.953	4.81
508.303	4.64
508.652	4.65
509.002	4.78
509.352	4.72
509.701	4.72
510.051	4.62
510.4	4.67
510.75	4.71
511.099	4.62
511.449	4.71
511.798	4.76
512.147	4.72
512.496	4.73
512.846	4.69
513.195	4.79
513.544	4.69
513.893	4.63
514.242	4.75
514.591	4.72
514.939	4.79
515.288	4.82
515.637	4.74
515.986	4.8
516.334	4.87
516.683	4.99
517.032	4.79
517.38	4.87
517.729	4.84
518.077	5
518.426	4.86
518.774	4.91
519.122	4.86
519.47	4.83
519.819	4.86
520.167	4.82
520.515	4.79
520.863	4.86
521.211	4.92
521.559	4.85
521.907	4.98
522.255	5.06
522.602	5.11
522.95	5.09
523.298	5
523.645	4.98
523.993	5.13
524.341	5.02
524.688	5.1
525.036	5.12
525.383	5.1
525.73	5.13
526.078	5.19
526.425	5.02
526.772	4.99
527.119	4.93
527.466	5.01
527.814	4.98
528.161	5.09
528.508	5.04
528.854	5.04
529.201	4.95
529.548	4.92
529.895	4.88
530.242	4.86
530.588	4.97
530.935	4.96
531.282	5.02
531.628	5.04
531.975	5.17
532.321	5.08
532.667	5.14
533.014	5.23
533.36	5.22
533.706	5.29
534.052	5.19
534.399	5.12
534.745	5.09
535.091	5.12
535.437	5.29
535.783	5.31
536.129	5.23
536.474	5.37
536.82	5.32
537.166	5.37
537.512	5.31
537.857	5.36
538.203	5.29
538.549	5.44
538.894	5.37
539.239	5.53
539.585	5.55
539.93	5.56
540.276	5.49
540.621	5.53
540.966	5.56
541.311	5.59
541.656	5.46
542.001	5.6
542.346	5.47
542.691	5.33
543.036	5.4
543.381	5.43
543.726	5.54
544.071	5.6
544.415	5.6
544.76	5.48
545.105	5.62
545.449	5.63
545.794	5.63
546.138	5.75
546.483	5.71
546.827	5.73
547.171	5.82
547.516	5.86
547.86	5.72
548.204	5.74
548.548	5.89
548.892	5.73
549.236	5.94
549.58	5.83
549.924	5.9
550.268	6.04
550.612	5.94
550.956	5.91
551.3	5.99
551.643	6.17
551.987	6.05
552.33	6.07
552.674	6.2
553.017	6.19
553.361	6.08
553.704	6.11
554.048	6.11
554.391	6.08
554.734	6.23
555.077	6.23
555.42	6.27
555.764	6.3
556.107	6.28
556.45	6.35
556.793	6.48
557.135	6.39
557.478	6.36
557.821	6.39
558.164	6.45
558.507	6.3
558.849	6.34
559.192	6.39
559.534	6.35
559.877	6.6
560.219	6.55
560.562	6.35
560.904	6.58
561.246	6.51
561.589	6.55
561.931	6.69
562.273	6.56
562.615	6.52
562.957	6.64
563.299	6.63
563.641	6.79
563.983	6.48
564.325	6.64
564.667	6.75
565.008	6.48
565.35	6.78
565.692	7.02
566.033	6.98
566.375	6.76
566.716	6.86
567.058	6.82
567.399	6.81
567.741	7.03
568.082	6.86
568.423	6.73
568.764	6.9
569.105	7
569.447	6.94
569.788	7.07
570.129	6.98
570.47	7.16
570.811	7.01
571.151	7.2
571.492	7.03
571.833	7.19
572.174	7.08
572.514	7.12
572.855	7.26
573.195	7.08
573.536	7.23
573.876	7.21
574.217	7.26
574.557	7.23
574.898	7.17
575.238	7.3
575.578	7.48
575.918	7.31
576.258	7.49
576.598	7.43
576.938	7.45
577.278	7.33
577.618	7.39
577.958	7.52
578.298	7.52
578.638	7.51
578.977	7.68
579.317	7.6
579.657	7.76
579.996	7.7
580.336	7.55
580.675	7.69
581.014	7.62
581.354	7.91
581.693	8.15
582.032	7.6
582.372	7.9
582.711	7.62
583.05	7.94
583.389	8
583.728	7.76
584.067	8.1
584.406	8.03
584.745	8
585.083	8.28
585.422	8.01
585.761	8.01
586.1	8.16
586.438	8.16
586.777	8.21
587.115	8.2
587.454	8.27
587.792	8
588.13	8.62
588.469	8.33
588.807	8.15
589.145	8.62
589.483	8.27
589.821	8.43
590.159	8.44
590.497	8.24
590.835	8.35
591.173	8.54
591.511	8.37
591.849	8.77
592.187	8.63
592.524	8.52
592.862	8.66
593.2	8.73
593.537	8.5
593.875	8.65
594.212	8.84
594.55	8.59
594.887	8.8
595.224	8.8
595.561	8.71
595.899	8.69
596.236	8.74
596.573	8.71
596.91	8.81
597.247	8.81
597.584	8.9
597.921	8.94
598.258	8.83
598.594	8.85
598.931	8.83
599.268	8.93
599.604	9.12
599.941	9.03
600.277	9.11
600.614	9.35
600.95	9.31
601.287	9.17
601.623	9.36
601.959	9.16
602.296	9.21
602.632	9.56
602.968	9.39
603.304	9.16
603.64	9.22
603.976	9.43
604.312	9.66
604.648	9.39
604.984	9.48
605.319	9.37
605.655	9.55
605.991	9.34
606.326	9.38
606.662	9.37
606.998	9.64
607.333	9.49
607.668	9.6
608.004	9.68
608.339	9.43
608.674	9.64
609.01	9.72
609.345	9.81
609.68	9.73
610.015	9.94
610.35	9.87
610.685	9.81
611.02	10.03
611.355	9.91
611.689	9.88
612.024	10.24
612.359	9.95
612.694	10.15
613.028	10.08
613.363	10.04
613.697	10.13
614.032	10.42
614.366	10.05
614.7	10.48
615.035	9.89
615.369	10.21
615.703	10.79
616.037	10.41
616.371	10.13
616.705	10.46
617.039	10.06
617.373	10.41
617.707	10.24
618.041	10.54
618.375	10.44
618.709	10.4
619.042	10.18
619.376	10.17
619.71	10.58
620.043	10.56
620.377	10.53
620.71	10.99
621.043	10.65
621.377	10.43
621.71	10.76
622.043	10.94
622.376	10.6
622.709	11.12
623.043	10.66
623.376	10.81
623.709	11.32
624.041	11.14
624.374	10.57
624.707	11.05
625.04	11.28
625.373	10.71
625.705	11.2
626.038	10.96
626.37	11.08
626.703	10.96
627.035	10.98
627.368	11.39
627.7	11.42
628.032	11.53
628.365	11.21
628.697	11.04
629.029	11.6
629.361	11.24
629.693	11.39
630.025	11.52
630.357	11.41
630.689	11.79
631.021	11.35
631.353	11.56
631.684	11.57
632.016	11.76
632.348	11.8
632.679	11.99
633.011	11.56
633.342	11.72
633.674	12.04
634.005	11.59
634.336	11.93
634.668	11.63
634.999	11.9
635.33	12.03
635.661	12.37
635.992	12.09
636.323	12.12
636.654	12.37
636.985	12.16
637.316	12.35
637.647	12.57
637.977	12.05
638.308	11.99
638.639	12.09
638.969	12.27
639.3	12.5
639.63	12.38
639.961	12.33
640.291	12.74
640.622	12.26
640.952	12.74
641.282	12.68
641.612	12.12
641.943	12.92
642.273	12.54
642.603	12.64
642.933	12.57
643.263	13.25
643.592	12.55
643.922	13.23
644.252	12.93
644.582	12.67
644.911	12.65
645.241	12.57
645.571	12.75
645.9	12.68
646.23	12.57
646.559	12.53
646.888	12.72
647.218	12.89
647.547	13.07
647.876	13.31
648.205	12.77
648.534	12.7
648.863	13.6
649.192	13.08
649.521	12.94
649.85	13.48
650.179	13.06
650.508	13.24
650.837	13.2
651.165	13.5
651.494	13.46
651.822	13.42
652.151	13.95
652.479	13.69
652.808	13.44
653.136	13.59
653.465	13.3
653.793	13.69
654.121	13.48
654.449	13.57
654.777	13.58
655.105	13.92
655.433	14.18
655.761	13.53
656.089	13.78
656.417	13.32
656.745	13.91
657.073	14.29
657.4	13.79
657.728	13.92
658.056	13.74
658.383	14.34
658.711	13.7
659.038	14.24
659.365	14.28
659.693	14.02
660.02	13.8
660.347	14.44
660.674	14.03
661.001	13.79
661.329	14.16
661.656	14.08
661.982	14.31
662.309	14.33
662.636	14.28
662.963	14.71
663.29	14.36
663.616	14.42
663.943	14.28
664.27	14.64
664.596	14.39
664.923	15.13
665.249	14.31
665.576	13.87
665.902	14.49
666.228	14.29
666.554	14.72
666.881	14.72
667.207	14.42
667.533	14.88
667.859	14.92
668.185	15.13
668.511	14.7
668.837	13.73
669.162	14.41
669.488	14.57
669.814	15.24
670.139	14.99
670.465	15.52
670.791	15.32
671.116	14.72
671.442	15.3
671.767	14.94
672.092	15.31
672.418	15.09
672.743	15.43
673.068	14.74
673.393	14.78
673.718	14.87
674.043	15.3
674.368	15.69
674.693	15.79
675.018	15.34
675.343	15.61
675.667	15.42
675.992	15.34
676.317	15.42
676.641	15.48
676.966	15.59
677.29	15.34
677.615	15.99
677.939	15.66
678.264	15.25
678.588	15.34
678.912	15.74
679.236	15.48
679.56	15.13
679.885	15.69
680.209	15.36
680.532	16.03
680.856	16.19
681.18	15.97
681.504	15.61
681.828	15.94
682.152	15.65
682.475	15.59
682.799	16.09
683.122	15.67
683.446	15.74
683.769	16.03
684.093	16.05
684.416	16.13
684.739	15.86
685.062	16.3
685.386	15.99
685.709	16.29
686.032	16.08
686.355	15.85
686.678	16.81
687.001	15.53
687.324	15.55
687.646	16.08
687.969	16.81
688.292	16.98
688.614	16.81
688.937	16.65
689.26	16.07
689.582	16.55
689.904	16.48
690.227	16.82
690.549	16.37
690.871	16.25
691.194	16.87
691.516	16.63
691.838	16.24
692.16	16.75
692.482	16.94
692.804	16.73
693.126	16.94
693.448	16.51
693.769	17.41
694.091	17.68
694.413	16.73
694.735	17.95
695.056	16.68
695.378	17.5
695.699	18.02
696.021	17.15
696.342	16.48
696.663	17.35
696.984	17.34
697.306	17.29
697.627	17.57
697.948	17.02
698.269	16.09
698.59	16.99
698.911	16.92
699.232	17.45
699.553	17.89
699.873	17.07
700.194	17.36
700.515	17.36
700.835	17.81
701.156	17.79
701.477	17.46
701.797	17.7
702.117	18.08
702.438	17.57
702.758	17.8
703.078	17.14
703.398	17.36
703.719	17.58
704.039	18.47
704.359	17.85
704.679	17.25
704.999	18.46
705.319	17.31
705.638	17.79
705.958	18.06
706.278	18.15
706.597	17.94
706.917	17.66
707.237	18.08
707.556	18.18
707.876	17.98
708.195	17.61
708.514	18.09
708.834	18.15
709.153	18.55
709.472	18.23
709.791	18.1
710.11	18.48
710.429	17.72
710.748	18.53
711.067	18.6
711.386	18.86
711.705	18.72
712.023	18.56
712.342	18.34
712.661	19.83
712.979	18.53
713.298	18.57
713.616	19.46
713.935	18.93
714.253	19.5
714.572	18.38
714.89	18.96
715.208	19.77
715.526	18.79
715.844	19.34
716.162	18.8
716.48	18.89
716.798	19.09
717.116	19.51
717.434	19.14
717.752	19.21
718.069	18.54
718.387	19.53
718.705	18.89
719.022	19.86
719.34	19.2
719.657	18.84
719.975	18.68
720.292	19.06
720.609	18.62
720.927	20.01
721.244	19.62
721.561	19.13
721.878	19.02
722.195	19.76
722.512	20.44
722.829	19.37
723.146	19.02
723.463	19.27
723.779	18.36
724.096	18.91
724.413	18.76
724.729	19.52
725.046	20.16
725.362	18.94
725.679	20.02
725.995	19.15
726.311	20.73
726.628	20.03
726.944	19.98
727.26	20.74
727.576	20.31
727.892	19.27
728.208	19.61
728.524	20.53
728.84	18.98
729.156	20.13
729.472	20.65
729.787	22.3
730.103	19.96
730.419	21.04
730.734	19.28
731.05	20.58
731.365	19.93
731.681	20.61
731.996	19.8
732.311	21.41
732.626	21.14
732.942	20.42
733.257	20.51
733.572	21.5
733.887	21.24
734.202	21.39
734.517	20.36
734.832	20.07
735.146	21.31
735.461	21.31
735.776	20.72
736.091	20.6
736.405	20.61
736.72	20.59
737.034	20.64
737.349	21.26
737.663	20.59
737.977	22.6
738.292	21.5
738.606	20.8
738.92	21.06
739.234	21.35
739.548	22.24
739.862	21.43
740.176	21.03
740.49	20.62
740.804	20.96
741.117	20.66
741.431	20.83
741.745	21.31
742.058	20.66
742.372	20.31
742.685	20.23
742.999	22.5
743.312	21.63
743.626	19.85
743.939	21.44
744.252	22.23
744.565	22.12
744.878	20.77
745.191	20.59
745.505	20.94
745.817	21.71
746.13	21.75
746.443	22.21
746.756	21.98
747.069	22.46
747.381	22.71
747.694	20.41
748.007	25.09
748.319	23.35
748.632	21.53
748.944	22.97
749.256	23.67
749.569	20.64
749.881	20.85
750.193	22.8
750.505	22.57
750.817	20.61
751.129	22.25
751.441	21.39
751.753	21.91
752.065	22.16
752.377	20.86
752.689	21.59
753	21.85
753.312	22.49
753.624	23.49
753.935	22.22
754.247	23.12
754.558	21.6
754.869	24.23
755.181	24
755.492	23.82
755.803	22.09
756.114	22.43
756.425	22.55
756.736	21.17
757.047	22.79
757.358	22.36
757.669	24.16
757.98	23.91
758.291	23.2
758.601	22.19
758.912	24.27
759.223	22.48
759.533	22.71
759.844	23.99
760.154	23.97
760.464	24.27
760.775	26.14
761.085	22.86
761.395	25.71
761.705	25.03
762.016	23.1
762.326	24.52
762.636	25.6
762.945	21.26
763.255	21.88
763.565	23.24
763.875	24.31
764.185	23.76
764.494	22.74
764.804	22.28
765.113	23
765.423	23.83
765.732	24.22
766.042	24.56
766.351	23.97
766.66	24.77
766.97	23.44
767.279	23.16
767.588	23.76
767.897	23.38
768.206	22.76
768.515	24.09
768.824	24.75
769.133	24.13
769.441	24.12
769.75	23.72
770.059	24.76
770.367	24.27
770.676	23.58
770.984	25.47
771.293	24.1
771.601	23.77
771.91	25.97
772.218	23.55
772.526	23.47
772.834	25.51
773.142	24.07
773.45	20.37
773.758	23.6
774.066	23.85
774.374	22.57
774.682	21.45
774.99	21.94
775.298	23.05
775.605	24.56
775.913	25.01
776.22	24.79
776.528	25.41
776.835	25.11
777.143	24.72
777.45	25.19
777.757	24.14
778.065	24.95
778.372	23.53
778.679	24.34
778.986	23.06
779.293	24.64
779.6	23.01
779.907	23.51
780.214	26.99
780.52	25.27
780.827	27.08
781.134	26.11
781.44	25.7
781.747	26.09
782.053	27.5
782.36	25.08
782.666	25.27
782.973	20.41
783.279	24.36
783.585	28.35
783.891	24.26
784.197	26.23
784.503	29.4
784.809	26.95
785.115	23.46
785.421	26.69
785.727	25.88
786.033	23.72
786.339	28.85
786.644	26.03
786.95	28.02
787.255	24.82
787.561	24.68
787.866	25.4
788.172	27.14
788.477	23.49
788.782	23.49
789.088	26.23
789.393	23.43
789.698	22.94
790.003	27.4
790.308	24.26
790.613	25.09
790.918	28.64
791.223	25.9
791.527	26.8
791.832	26.09
792.137	27.85
792.441	29.02
792.746	24.28
793.05	28.78
793.355	29.63
793.659	28.82
793.963	24.5
794.268	21.78
794.572	29.03
794.876	24.39
795.18	25.66
795.484	24.57
795.788	23.09
796.092	23.39
796.396	30.86
796.7	25.28
797.004	26.23
797.307	22.53
797.611	25.13
797.915	26.7
798.218	30.54
798.522	23.05
798.825	29.56
799.128	25.79
799.432	30.17
799.735	23.68
800.038	23.09
800.341	30.49
800.644	27.95
800.947	24.56
801.25	24.57
801.553	29.48
801.856	27.73
802.159	22.97
802.462	24.99
802.764	23.57
803.067	23.13
803.37	26.97
803.672	25.4
803.975	26.83
804.277	32.73
804.579	29.4
804.882	26.88
805.184	31.01
805.486	22.76
805.788	28.07
806.09	26.36
806.392	27.76
806.694	21.61
806.996	25.48
807.298	25.3
807.6	27
807.902	29.42
808.203	30.62
808.505	21.7
808.807	30.79
809.108	23.81
809.409	28.44
809.711	25.06
810.012	27.37
810.313	28.14
810.615	23.54
810.916	24.59
811.217	29.57
811.518	32.69
811.819	24.3
812.12	26.19
812.421	24.19
812.722	27.19
813.023	25.57
813.323	33.51
813.624	34.66
813.925	27.95
814.225	29.57
814.526	30.47
814.826	27.83
815.126	28.36
815.427	29.76
815.727	33.16
816.027	31.35
816.327	24
816.627	26.28
816.927	29.17
817.227	26.09
817.527	26.7
817.827	27.4
818.127	29.12
818.427	28.27
818.727	28.81
819.026	33.7
819.326	32.01
819.625	22.89
819.925	27.66
820.224	27.39
820.524	27.05
820.823	23.21
821.122	31.87
821.421	26.68
821.72	32.39
822.019	29.13
822.318	33.32
822.617	28.73
822.916	26.76
823.215	30.39
823.514	30.6
823.813	29.38
824.111	30.59
824.41	29.22
824.709	30.71
825.007	31.52
825.306	29.91
825.604	32.17
825.902	30.75
826.201	30.76
826.499	30.17
826.797	31.05
827.095	27.85
827.393	29.25
827.691	31.21
827.989	29.79
828.287	33.06
828.585	26.78
828.882	29.54
829.18	29.25
829.478	30.02
829.775	31.86
830.073	31.59
830.37	31.78
830.668	28.59
830.965	28.41
831.263	32.21
831.56	32.42
831.857	31.57
832.154	32.23
832.451	31.11
832.748	29.67
833.045	30.27
833.342	32.32
833.639	35.75
833.936	27.72
834.232	28.63
834.529	32.82
834.826	27.71
835.122	32.88
835.419	27.49
835.715	28.82
836.012	30.36
836.308	32.07
836.604	29.83
836.901	35.76
837.197	33.18
837.493	34.84
837.789	29.25
838.085	31.85
838.381	32.02
838.677	27.86
838.972	31.59
839.268	30.92
839.564	31.57
839.86	25.88
840.155	34.79
840.451	27.76
840.746	29.98
841.042	23.13
841.337	32.22
841.632	31.44
841.928	31.66
842.223	29.92
842.518	32.15
842.813	25.55
843.108	28.44
843.403	35.78
843.698	21.6
843.993	28.71
844.287	31.31
844.582	37.63
844.877	34.71
845.171	32.6
845.466	28.03
845.761	29.71
846.055	31.32
846.349	18.59
846.644	27.27
846.938	31.71
847.232	19.92
847.526	25.96
847.82	16.26
848.114	11.72
848.408	27.82
848.702	25.03
848.996	34.91
849.29	35.17
849.584	18.86
849.877	14.05
850.171	21.24
850.465	38.64
850.758	26.09
851.052	27.58
851.345	37.16
851.638	37.01
851.932	27.13
852.225	16.8
852.518	46.68
852.811	28.04
853.104	33.35
853.397	12.35
853.69	31.75
853.983	17.68
854.276	25.19
854.569	15.59
854.861	17.44
855.154	36.54
855.447	34.8
855.739	39.7
856.032	24.87
856.324	24.71
856.616	43.24
856.909	53.91
857.201	37.6
857.493	31.75
857.785	29.84
858.077	29.18
858.369	8.86
858.661	30.87
858.953	31.19
859.245	33.63
859.537	45.36
859.829	33.4
860.12	19.84
860.412	21.59
860.703	31.4
860.995	27.79
861.286	44.1
861.578	15.19
861.869	19.62
862.16	10.5
862.452	29.23
862.743	44.32
863.034	32.28
863.325	13.94
863.616	49.68
863.907	32.74
864.198	33.64
864.488	4.05
864.779	31.34
865.07	38.92
865.36	42.59
865.651	41.2
865.941	32.06
866.232	22.4
866.522	37.66
866.813	23.38
867.103	34.61
867.393	16.88
867.683	44.97
867.973	7.72
868.263	22.62
868.553	21.79
868.843	6.95
869.133	32.25
869.423	41.1
869.713	31.11
870.002	-25.52
870.292	-0.73
870.582	26.09
870.871	29.73
871.161	49.21
871.45	29.21
871.739	-10.92
872.029	-5.61
872.318	28.05
872.607	65.09
872.896	32.75
873.185	24.62
873.474	40.52
873.763	54.26
874.052	26.33
874.341	-9.22
874.63	21.71
874.918	16.07
875.207	17.86
875.496	62.29
875.784	9.61
876.073	29.44
876.361	5.77
876.649	28.03
876.938	46.09
877.226	27.46
877.514	19.85
877.802	26.34
878.09	27.39
878.378	19.16
878.666	48.71
878.954	34.87
879.242	57.08
879.53	9.25
879.817	45.8
880.105	-12.9
880.392	34.36
880.68	32.15
880.967	36.23
881.255	-10.71
881.542	36.49
881.83	22.99
882.117	29.1
882.404	31.3
882.691	14.86
882.978	30.89
883.265	44.89
883.552	29.83
883.839	44.21
884.126	31.77
884.413	36.43
884.699	36.92
884.986	36.71
885.273	32.86
885.559	32.86
885.846	32.86
