Data from 0059_forehead_Reflection__2__175.txt Node

Date: Fri Dec 16 15:23:21 CST 2022
User: ToomeyLab
Spectrometer: FLMS14357
Trigger mode: 0
Integration Time (sec): 1.000000E-2
Scans to average: 100
Electric dark correction enabled: true
Nonlinearity correction enabled: false
Boxcar width: 0
XAxis mode: Wavelengths
Number of Pixels in Spectrum: 2048
>>>>>Begin Spectral Data<<<<<
189.047	105.3
189.435	105.3
189.823	105.3
190.211	-622.99
190.599	146.61
190.987	337.93
191.375	89.51
191.763	135.73
192.151	-45.78
192.538	212.53
192.926	-31.95
193.314	-14542.86
193.702	111.11
194.089	-44.4
194.477	-80.33
194.864	860.47
195.252	44.73
195.639	123.39
196.027	188.76
196.414	366.83
196.801	-1412.7
197.189	159.5
197.576	126.86
197.963	-81.89
198.351	48.51
198.738	-60.98
199.125	40.24
199.512	-13.73
199.899	-56.77
200.286	-49.45
200.673	17.35
201.06	32.35
201.447	5.65
201.833	104.11
202.22	78.66
202.607	-28.76
202.994	-8.65
203.38	6.29
203.767	15.65
204.154	-4.34
204.54	54.42
204.927	-17.22
205.313	30.52
205.699	5.95
206.086	14.68
206.472	-0.24
206.858	-23.7
207.245	23.2
207.631	-4.21
208.017	27.78
208.403	-3.59
208.789	29.25
209.175	48.61
209.561	-4.52
209.947	10.76
210.333	-15.06
210.719	-3.6
211.105	-34.15
211.491	-3.12
211.876	4.28
212.262	-19.42
212.648	-59.62
213.034	-42
213.419	28.36
213.805	3.66
214.19	-22.63
214.576	-26.64
214.961	-16.84
215.346	4.43
215.732	-28.42
216.117	-12.97
216.502	-10.9
216.888	-32.84
217.273	37.41
217.658	-10.29
218.043	-5.42
218.428	-10.61
218.813	-24.14
219.198	-22.76
219.583	12.25
219.968	-9.15
220.353	6.33
220.738	-22.01
221.122	-18.57
221.507	7.84
221.892	-19
222.276	5.81
222.661	-3.34
223.046	7.75
223.43	2.98
223.815	-0.61
224.199	13.26
224.583	0.77
224.968	12.45
225.352	-0.55
225.736	10.01
226.121	-5.77
226.505	7.65
226.889	6.41
227.273	6.07
227.657	-2.73
228.041	4.11
228.425	5.54
228.809	0.28
229.193	-0.38
229.577	1.23
229.961	3.84
230.344	2.96
230.728	3.47
231.112	3.92
231.495	1.95
231.879	3.31
232.263	2.45
232.646	3.39
233.03	1.92
233.413	3.5
233.797	5.69
234.18	1.84
234.563	3.73
234.946	2.34
235.33	3.52
235.713	3.29
236.096	2.13
236.479	3.6
236.862	4.08
237.245	4.96
237.628	3.95
238.011	3.68
238.394	4.2
238.777	3.71
239.16	2.69
239.543	3.6
239.925	3.57
240.308	3.25
240.691	3.15
241.073	4.72
241.456	3.86
241.838	3.72
242.221	2.95
242.603	2.92
242.986	4.21
243.368	3.47
243.75	3.39
244.133	2.88
244.515	3.22
244.897	3.07
245.279	3.51
245.661	4.46
246.043	3.1
246.425	3.02
246.807	3.77
247.189	3.26
247.571	3.64
247.953	3.25
248.335	3.57
248.717	3.64
249.098	3.41
249.48	3.34
249.862	3.61
250.243	3.26
250.625	3.57
251.006	4.06
251.388	4.45
251.769	3.66
252.151	3.2
252.532	3.59
252.913	3.87
253.295	3.49
253.676	3.89
254.057	3.55
254.438	3.1
254.819	4.48
255.2	4.17
255.581	2.42
255.962	3.34
256.343	3.79
256.724	3.46
257.105	2.64
257.486	4.52
257.867	2.83
258.247	4.38
258.628	4.29
259.009	3.73
259.389	4.19
259.77	3.69
260.15	4.39
260.531	3.65
260.911	3.41
261.292	3.54
261.672	3.35
262.052	3.15
262.432	3.34
262.813	3.62
263.193	3.05
263.573	3.15
263.953	3.14
264.333	3.2
264.713	3.44
265.093	2.72
265.473	3.66
265.853	3.25
266.233	3.25
266.612	3.88
266.992	2.9
267.372	3.35
267.752	3
268.131	3.48
268.511	3.73
268.89	3.87
269.27	3.31
269.649	3.66
270.029	3.59
270.408	3.68
270.787	3.73
271.167	3.38
271.546	3.05
271.925	2.91
272.304	3.49
272.683	3.24
273.062	3.48
273.441	3.39
273.82	3.5
274.199	3.66
274.578	3.2
274.957	3.46
275.336	3.39
275.715	3.75
276.093	3.93
276.472	3.55
276.851	3.88
277.229	3.93
277.608	2.97
277.986	3.62
278.365	3.47
278.743	3.52
279.122	2.74
279.5	2.92
279.878	3.03
280.257	3.5
280.635	3.43
281.013	4.04
281.391	3.26
281.769	3.19
282.147	3.55
282.525	3.27
282.903	3.37
283.281	3.19
283.659	3.13
284.037	3.79
284.415	3.6
284.792	3.39
285.17	3.31
285.548	3.27
285.925	3.5
286.303	3.08
286.68	3.52
287.058	3.04
287.435	3.23
287.813	3.4
288.19	3.63
288.567	3.27
288.945	3.36
289.322	3.55
289.699	3.64
290.076	4.07
290.453	3.01
290.83	4.16
291.207	3.6
291.584	3.38
291.961	3.96
292.338	3.39
292.715	3.75
293.092	3.47
293.469	3.43
293.845	3.94
294.222	3.59
294.599	4.31
294.975	3.45
295.352	3.49
295.728	3.91
296.105	4.13
296.481	3.97
296.858	4.22
297.234	3.93
297.61	3.86
297.986	4.05
298.363	3.51
298.739	3.88
299.115	3.64
299.491	3.99
299.867	4.45
300.243	3.96
300.619	4.11
300.995	4.72
301.371	4.04
301.746	3.58
302.122	4.69
302.498	4.26
302.874	4.49
303.249	4.23
303.625	4.04
304	3.93
304.376	4.43
304.751	3.98
305.127	4.43
305.502	3.94
305.878	4.47
306.253	3.97
306.628	4.5
307.003	4.24
307.378	4.07
307.754	3.98
308.129	3.95
308.504	3.95
308.879	4.53
309.254	5.3
309.629	4.34
310.003	5.17
310.378	4.95
310.753	4.57
311.128	4.64
311.502	4.45
311.877	5
312.252	4.83
312.626	4.7
313.001	4.75
313.375	4.61
313.75	4.85
314.124	5.33
314.498	4.43
314.873	4.71
315.247	4.89
315.621	5.23
315.995	4.73
316.369	4.66
316.743	5.29
317.117	5.05
317.491	4.92
317.865	4.8
318.239	5.28
318.613	5.37
318.987	5.47
319.361	4.8
319.734	5.37
320.108	5.09
320.482	5.04
320.855	5.35
321.229	6.03
321.602	4.96
321.976	5.19
322.349	5.43
322.723	4.82
323.096	5.65
323.469	5.32
323.843	5.71
324.216	4.78
324.589	5.91
324.962	5.94
325.335	5.66
325.708	5.66
326.081	5.94
326.454	5.62
326.827	5.98
327.2	6.18
327.573	6.33
327.945	5.95
328.318	6.03
328.691	5.81
329.063	5.7
329.436	5.89
329.809	5.19
330.181	5.7
330.553	6.05
330.926	6.14
331.298	5.71
331.671	5.99
332.043	6.24
332.415	6.43
332.787	6.01
333.159	5.81
333.532	6.27
333.904	6.22
334.276	5.82
334.648	6.34
335.02	6.01
335.391	6.47
335.763	6
336.135	6.12
336.507	6.37
336.879	6.01
337.25	5.96
337.622	6.54
337.993	6.66
338.365	6.35
338.736	6.75
339.108	5.98
339.479	6.07
339.851	6.94
340.222	6.21
340.593	6.12
340.964	6.61
341.336	6.08
341.707	6.27
342.078	6.36
342.449	6.74
342.82	6.05
343.191	6.45
343.562	6.26
343.933	6.54
344.303	6.33
344.674	6.55
345.045	6.84
345.416	6.75
345.786	6.23
346.157	6.8
346.527	6.54
346.898	6.53
347.268	6.74
347.639	6.89
348.009	7.31
348.38	7.04
348.75	7.13
349.12	7.04
349.49	6.34
349.861	7.3
350.231	7.18
350.601	6.95
350.971	7.08
351.341	6.38
351.711	6.77
352.081	6.88
352.45	7.46
352.82	6.95
353.19	6.57
353.56	7.09
353.929	7.23
354.299	6.78
354.669	7.37
355.038	7.25
355.408	7.79
355.777	7.32
356.147	7.59
356.516	7.23
356.885	7.09
357.254	7.4
357.624	7.37
357.993	7.21
358.362	7.49
358.731	7.35
359.1	7.63
359.469	7.32
359.838	7.26
360.207	7.11
360.576	7.2
360.945	7.32
361.314	7.58
361.682	7.33
362.051	7.58
362.42	7.39
362.788	7.65
363.157	7.46
363.525	7.64
363.894	7.55
364.262	7.68
364.631	8.1
364.999	7.46
365.367	7.99
365.735	7.36
366.104	7.75
366.472	8.08
366.84	8.12
367.208	7.57
367.576	7.72
367.944	8.09
368.312	7.52
368.68	7.75
369.048	7.94
369.416	8.03
369.783	8.04
370.151	7.9
370.519	8.04
370.886	8.24
371.254	8.15
371.621	7.97
371.989	8.29
372.356	8.29
372.724	8.09
373.091	8.22
373.458	8.19
373.826	8.35
374.193	8.66
374.56	8.05
374.927	8.48
375.294	8.74
375.661	8.52
376.028	8.4
376.395	8.54
376.762	8.82
377.129	8.72
377.496	8.59
377.863	8.8
378.229	8.4
378.596	8.23
378.963	8.32
379.329	8.45
379.696	8.77
380.062	9.02
380.429	8.61
380.795	8.44
381.161	8.9
381.528	8.32
381.894	8.87
382.26	8.78
382.626	8.96
382.993	8.71
383.359	8.63
383.725	9.04
384.091	9.09
384.457	9.09
384.823	8.98
385.188	9.1
385.554	8.97
385.92	9.21
386.286	9.27
386.651	9.25
387.017	9.04
387.383	8.83
387.748	9.26
388.114	9.04
388.479	9.31
388.845	9.35
389.21	9.39
389.575	9.52
389.94	9.26
390.306	9.29
390.671	9.34
391.036	9.48
391.401	9.83
391.766	9.34
392.131	9.54
392.496	9.46
392.861	9.22
393.226	9.52
393.591	9.63
393.956	9.78
394.32	9.7
394.685	9.98
395.05	9.51
395.414	9.64
395.779	9.54
396.143	9.65
396.508	9.9
396.872	9.82
397.236	9.56
397.601	9.83
397.965	9.74
398.329	10.07
398.694	9.66
399.058	9.96
399.422	10.16
399.786	9.88
400.15	9.75
400.514	9.9
400.878	9.94
401.242	10.27
401.605	10.01
401.969	10.17
402.333	10
402.697	10.12
403.06	9.9
403.424	9.99
403.787	10.47
404.151	10.1
404.514	10.38
404.878	10.48
405.241	10.18
405.604	10.23
405.968	10.24
406.331	10.2
406.694	10.1
407.057	10.61
407.42	10.48
407.783	10.35
408.146	10.42
408.509	10.41
408.872	10.26
409.235	10.5
409.598	10.71
409.961	10.67
410.323	10.53
410.686	10.4
411.049	10.39
411.411	10.73
411.774	10.58
412.136	10.8
412.499	10.64
412.861	10.56
413.223	10.66
413.586	10.66
413.948	10.71
414.31	11.01
414.672	10.85
415.035	10.81
415.397	11
415.759	10.78
416.121	10.95
416.483	11.01
416.845	10.65
417.206	11.18
417.568	11.04
417.93	10.94
418.292	10.95
418.653	11.01
419.015	10.98
419.377	10.99
419.738	10.73
420.1	10.87
420.461	10.9
420.822	10.96
421.184	10.97
421.545	10.98
421.906	11.09
422.267	10.85
422.629	10.99
422.99	10.99
423.351	11.09
423.712	11.16
424.073	11.2
424.434	11.15
424.795	11.2
425.155	11.21
425.516	11.11
425.877	11.37
426.238	11.15
426.598	11.41
426.959	11.42
427.32	11.51
427.68	11.5
428.041	11.71
428.401	11.66
428.761	11.65
429.122	11.82
429.482	11.77
429.842	11.86
430.202	12.01
430.563	11.83
430.923	11.76
431.283	12.19
431.643	11.96
432.003	12.06
432.363	12.01
432.722	11.99
433.082	12
433.442	11.95
433.802	11.99
434.161	11.85
434.521	12.12
434.881	12.14
435.24	12.07
435.6	12.08
435.959	12.31
436.319	12.24
436.678	12.44
437.037	12.43
437.396	12.43
437.756	12.39
438.115	12.56
438.474	12.47
438.833	12.51
439.192	12.56
439.551	12.57
439.91	12.57
440.269	12.73
440.628	12.54
440.987	12.45
441.345	12.48
441.704	12.6
442.063	12.56
442.421	12.56
442.78	12.64
443.138	12.72
443.497	12.74
443.855	12.84
444.214	12.97
444.572	12.91
444.93	13.02
445.288	12.98
445.647	13.04
446.005	12.77
446.363	13
446.721	12.84
447.079	12.95
447.437	12.89
447.795	12.89
448.153	12.9
448.51	12.93
448.868	13.09
449.226	13.14
449.584	13.22
449.941	13.28
450.299	13.25
450.656	13.4
451.014	13.37
451.371	13.52
451.729	13.52
452.086	13.63
452.443	13.66
452.801	13.59
453.158	13.71
453.515	13.59
453.872	13.73
454.229	13.8
454.586	13.75
454.943	13.74
455.3	13.91
455.657	13.74
456.014	13.95
456.371	13.89
456.727	13.97
457.084	13.88
457.441	13.77
457.797	14.02
458.154	14
458.51	14.15
458.867	14.03
459.223	14.06
459.58	14.07
459.936	14.02
460.292	14.03
460.648	14.01
461.005	13.83
461.361	13.95
461.717	13.97
462.073	14.19
462.429	14.23
462.785	14.38
463.141	14.41
463.496	14.46
463.852	14.57
464.208	14.65
464.564	14.59
464.919	14.71
465.275	14.75
465.631	14.78
465.986	14.67
466.342	14.84
466.697	14.76
467.052	14.92
467.408	14.87
467.763	14.8
468.118	14.9
468.473	15.05
468.829	14.9
469.184	14.89
469.539	14.93
469.894	14.97
470.249	15.15
470.603	15.18
470.958	15.26
471.313	15.12
471.668	15.26
472.023	15.53
472.377	15.25
472.732	15.3
473.086	15.35
473.441	15.53
473.795	15.64
474.15	15.35
474.504	15.39
474.859	15.62
475.213	15.59
475.567	15.33
475.921	15.62
476.275	15.69
476.63	15.53
476.984	15.74
477.338	15.94
477.692	15.61
478.045	15.68
478.399	15.71
478.753	15.81
479.107	15.78
479.461	15.83
479.814	15.85
480.168	15.96
480.521	15.85
480.875	15.94
481.228	16.02
481.582	15.91
481.935	16.16
482.289	15.92
482.642	16.08
482.995	16.04
483.348	15.94
483.701	15.85
484.055	15.8
484.408	15.49
484.761	15.3
485.114	15.25
485.466	15.24
485.819	15.41
486.172	15.55
486.525	15.82
486.878	15.89
487.23	16.06
487.583	16.11
487.936	16.14
488.288	15.89
488.641	15.86
488.993	15.71
489.345	15.83
489.698	15.92
490.05	16
490.402	16.24
490.754	16.42
491.107	16.61
491.459	16.71
491.811	16.73
492.163	16.63
492.515	16.37
492.866	16.17
493.218	16.12
493.57	16.39
493.922	16.57
494.274	16.75
494.625	17
494.977	17.06
495.328	17.23
495.68	17.3
496.031	17.36
496.383	17.4
496.734	17.39
497.086	17.37
497.437	17.45
497.788	17.34
498.139	17.31
498.49	17.37
498.842	17.39
499.193	17.44
499.544	17.63
499.894	17.71
500.245	17.6
500.596	17.81
500.947	17.88
501.298	17.71
501.648	17.91
501.999	18.05
502.35	18.05
502.7	18.03
503.051	18.16
503.401	18.21
503.752	18.2
504.102	18.1
504.452	18.19
504.803	18.15
505.153	18.28
505.503	18.32
505.853	18.11
506.203	18.33
506.553	18.43
506.903	18.39
507.253	18.41
507.603	18.48
507.953	18.59
508.303	18.53
508.652	18.6
509.002	18.52
509.352	18.63
509.701	18.63
510.051	18.62
510.4	18.59
510.75	18.59
511.099	18.54
511.449	18.86
511.798	18.85
512.147	18.78
512.496	18.81
512.846	18.92
513.195	18.87
513.544	18.86
513.893	18.73
514.242	19.07
514.591	19.18
514.939	19.05
515.288	19.12
515.637	19.29
515.986	19.24
516.334	19.39
516.683	19.4
517.032	19.44
517.38	19.44
517.729	19.49
518.077	19.39
518.426	19.43
518.774	19.36
519.122	19.2
519.47	19.19
519.819	19.19
520.167	19.07
520.515	19.22
520.863	19.36
521.211	19.45
521.559	19.4
521.907	19.77
522.255	19.8
522.602	19.74
522.95	19.78
523.298	19.95
523.645	20.02
523.993	20.12
524.341	19.94
524.688	20.19
525.036	20.09
525.383	20.12
525.73	20.11
526.078	20.12
526.425	20.01
526.772	19.79
527.119	19.69
527.466	19.84
527.814	19.8
528.161	20.09
528.508	19.94
528.854	19.86
529.201	19.71
529.548	19.48
529.895	19.23
530.242	19.4
530.588	19.68
530.935	19.81
531.282	19.94
531.628	20.02
531.975	20.16
532.321	20.39
532.667	20.5
533.014	20.5
533.36	20.47
533.706	20.53
534.052	20.34
534.399	20.2
534.745	20.06
535.091	20.25
535.437	20.49
535.783	20.68
536.129	20.8
536.474	21.01
536.82	20.92
537.166	20.91
537.512	21.02
537.857	20.82
538.203	20.92
538.549	21.01
538.894	21.01
539.239	21.35
539.585	21.36
539.93	21.46
540.276	21.58
540.621	21.65
540.966	21.69
541.311	21.63
541.656	21.46
542.001	21.33
542.346	21.05
542.691	20.8
543.036	20.87
543.381	21.15
543.726	21.31
544.071	21.42
544.415	21.45
544.76	21.38
545.105	21.56
545.449	21.73
545.794	21.9
546.138	22.08
546.483	22.07
546.827	22.18
547.171	22.17
547.516	22.16
547.86	22.14
548.204	22
548.548	22.28
548.892	22.21
549.236	22.42
549.58	22.63
549.924	22.77
550.268	22.86
550.612	22.91
550.956	22.93
551.3	23.31
551.643	23.07
551.987	23.2
552.33	23.16
552.674	23.11
553.017	23.21
553.361	23.14
553.704	23.21
554.048	23.22
554.391	23.23
554.734	23.29
555.077	23.38
555.42	23.2
555.764	23.49
556.107	23.56
556.45	23.59
556.793	23.73
557.135	23.73
557.478	23.78
557.821	23.78
558.164	23.83
558.507	23.76
558.849	23.97
559.192	24.02
559.534	24.16
559.877	24.19
560.219	24.33
560.562	24.32
560.904	24.05
561.246	24.22
561.589	24.43
561.931	24.35
562.273	24.37
562.615	24.15
562.957	24.28
563.299	24.28
563.641	24.48
563.983	24.33
564.325	24.52
564.667	24.43
565.008	24.57
565.35	24.78
565.692	24.9
566.033	24.58
566.375	24.59
566.716	24.74
567.058	24.68
567.399	24.57
567.741	24.6
568.082	24.77
568.423	24.69
568.764	24.78
569.105	24.73
569.447	24.79
569.788	25.32
570.129	25
570.47	25.31
570.811	25.24
571.151	25.22
571.492	25.47
571.833	25.12
572.174	25.15
572.514	25.28
572.855	25.15
573.195	25.1
573.536	25.19
573.876	25.12
574.217	25.44
574.557	25.34
574.898	25.35
575.238	25.31
575.578	25.76
575.918	25.68
576.258	25.33
576.598	25.76
576.938	25.72
577.278	25.69
577.618	25.91
577.958	25.88
578.298	26.02
578.638	25.93
578.977	26.01
579.317	26.12
579.657	26.3
579.996	26.25
580.336	26.21
580.675	26.34
581.014	26.57
581.354	26.43
581.693	26.45
582.032	26.52
582.372	26.61
582.711	26.67
583.05	26.77
583.389	26.79
583.728	26.59
584.067	26.93
584.406	26.92
584.745	27.12
585.083	27.02
585.422	27.08
585.761	27.08
586.1	27.16
586.438	27.28
586.777	27.21
587.115	27.25
587.454	27.11
587.792	26.94
588.13	27.5
588.469	27.48
588.807	27.41
589.145	27.53
589.483	27.24
589.821	27.61
590.159	27.44
590.497	27.34
590.835	27.56
591.173	27.86
591.511	27.49
591.849	27.6
592.187	27.43
592.524	27.62
592.862	27.84
593.2	27.99
593.537	27.84
593.875	27.82
594.212	28
594.55	28.01
594.887	28.22
595.224	27.92
595.561	28.08
595.899	27.91
596.236	28.01
596.573	27.9
596.91	28.12
597.247	28.09
597.584	28.16
597.921	27.8
598.258	27.98
598.594	27.86
598.931	28.12
599.268	28.26
599.604	28.48
599.941	28.43
600.277	28.32
600.614	28.82
600.95	28.72
601.287	28.91
601.623	28.9
601.959	28.81
602.296	28.45
602.632	28.87
602.968	28.84
603.304	28.87
603.64	29.12
603.976	28.73
604.312	29.02
604.648	28.87
604.984	28.9
605.319	28.96
605.655	28.91
605.991	28.76
606.326	28.68
606.662	28.72
606.998	28.99
607.333	29.15
607.668	29.33
608.004	29.25
608.339	29.33
608.674	29.45
609.01	29.74
609.345	29.65
609.68	29.53
610.015	29.61
610.35	29.5
610.685	29.36
611.02	29.58
611.355	29.54
611.689	29.62
612.024	29.64
612.359	29.97
612.694	30
613.028	29.9
613.363	30.13
613.697	30.36
614.032	30.09
614.366	30.17
614.7	30.41
615.035	30.38
615.369	30.51
615.703	30.56
616.037	30.54
616.371	30.22
616.705	30.16
617.039	30.77
617.373	30.8
617.707	30.57
618.041	30.59
618.375	30.75
618.709	30.63
619.042	30.73
619.376	31.12
619.71	30.91
620.043	30.79
620.377	30.95
620.71	30.82
621.043	30.93
621.377	30.91
621.71	30.7
622.043	30.95
622.376	30.85
622.709	31.27
623.043	31.18
623.376	31.14
623.709	31.71
624.041	30.85
624.374	31.15
624.707	31.38
625.04	31.36
625.373	31.22
625.705	31.14
626.038	31.27
626.37	31.87
626.703	31.16
627.035	31.51
627.368	31.53
627.7	31.43
628.032	31.47
628.365	31.36
628.697	31.45
629.029	31.84
629.361	31.74
629.693	31.74
630.025	31.88
630.357	31.8
630.689	32.38
631.021	31.77
631.353	32.39
631.684	32.08
632.016	31.94
632.348	32.3
632.679	32.06
633.011	31.91
633.342	32.01
633.674	32.32
634.005	31.95
634.336	32.05
634.668	32.27
634.999	32.2
635.33	32.37
635.661	32.68
635.992	32.2
636.323	32.49
636.654	32.24
636.985	32.72
637.316	32.72
637.647	32.55
637.977	33.02
638.308	32.73
638.639	32.69
638.969	32.94
639.3	32.7
639.63	32.7
639.961	33.05
640.291	33.16
640.622	33.56
640.952	33.41
641.282	32.93
641.612	32.99
641.943	33.61
642.273	33.19
642.603	33.29
642.933	33.46
643.263	33.57
643.592	33.35
643.922	33.5
644.252	33.56
644.582	33.12
644.911	33.72
645.241	33.2
645.571	33.49
645.9	34.08
646.23	33.73
646.559	33.76
646.888	33.6
647.218	33.94
647.547	33.69
647.876	33.83
648.205	34.06
648.534	33.71
648.863	33.97
649.192	33.69
649.521	33.39
649.85	34.19
650.179	33.71
650.508	33.95
650.837	34.02
651.165	34.4
651.494	34.25
651.822	34.4
652.151	34.54
652.479	34.35
652.808	33.89
653.136	34.12
653.465	34.4
653.793	34.35
654.121	34.48
654.449	34.51
654.777	34.36
655.105	34.37
655.433	34.9
655.761	34.72
656.089	34.53
656.417	35.13
656.745	34.58
657.073	34.98
657.4	35.22
657.728	35.26
658.056	34.51
658.383	35.25
658.711	35.13
659.038	35.52
659.365	35.14
659.693	35.09
660.02	34.91
660.347	34.89
660.674	35.15
661.001	34.76
661.329	34.94
661.656	34.46
661.982	35.58
662.309	35.03
662.636	35.46
662.963	35.27
663.29	35.41
663.616	35.18
663.943	35.54
664.27	35.65
664.596	35.55
664.923	35.85
665.249	35.63
665.576	36.03
665.902	35.31
666.228	34.91
666.554	36.26
666.881	35.7
667.207	35.86
667.533	36.54
667.859	35.66
668.185	36.28
668.511	36.11
668.837	36.35
669.162	35.68
669.488	36.45
669.814	36.19
670.139	35.99
670.465	35.87
670.791	36.28
671.116	35.81
671.442	36.16
671.767	36.25
672.092	36.62
672.418	36.16
672.743	36.33
673.068	36.36
673.393	35.93
673.718	36.11
674.043	36.63
674.368	36.29
674.693	36.81
675.018	36.65
675.343	36.68
675.667	36.81
675.992	36.76
676.317	36.84
676.641	37.35
676.966	37.07
677.29	36.96
677.615	36.37
677.939	37.57
678.264	37.15
678.588	37.44
678.912	36.67
679.236	36.94
679.56	37.08
679.885	37.32
680.209	36.51
680.532	36.41
680.856	37.7
681.18	36.9
681.504	37.05
681.828	37.1
682.152	36.78
682.475	36.97
682.799	37.37
683.122	37.63
683.446	37.46
683.769	37.97
684.093	37.95
684.416	37
684.739	37.6
685.062	37.34
685.386	37.75
685.709	37.05
686.032	37.41
686.355	37.47
686.678	37.42
687.001	37.17
687.324	37.56
687.646	37.65
687.969	38
688.292	38.16
688.614	37.54
688.937	37.74
689.26	37.92
689.582	37.63
689.904	38.2
690.227	37.38
690.549	37.99
690.871	37.75
691.194	38.45
691.516	38.06
691.838	37.46
692.16	37.78
692.482	38.16
692.804	38.06
693.126	38.11
693.448	37.87
693.769	38.69
694.091	38.33
694.413	37.98
694.735	38.79
695.056	38.73
695.378	38.58
695.699	39.05
696.021	38.93
696.342	38.02
696.663	37.78
696.984	38.94
697.306	37.98
697.627	38.59
697.948	38.43
698.269	38.06
698.59	38.62
698.911	37.87
699.232	39.22
699.553	39.01
699.873	38.76
700.194	38.66
700.515	38.52
700.835	38.78
701.156	39.28
701.477	38.85
701.797	39.11
702.117	38.59
702.438	39.33
702.758	39.5
703.078	39.1
703.398	39.01
703.719	39.29
704.039	39.09
704.359	38.46
704.679	38.69
704.999	40.01
705.319	39.42
705.638	38.91
705.958	40.03
706.278	39.57
706.597	40.08
706.917	39.38
707.237	39.93
707.556	39.82
707.876	39.63
708.195	38.87
708.514	40.22
708.834	40.13
709.153	39.35
709.472	39.44
709.791	39.55
710.11	40.76
710.429	39.62
710.748	38.83
711.067	40.3
711.386	40.68
711.705	39.67
712.023	40.38
712.342	40.28
712.661	40.06
712.979	39.76
713.298	40.02
713.616	41.18
713.935	40.39
714.253	40.61
714.572	39.84
714.89	40.1
715.208	40.53
715.526	40.44
715.844	40.39
716.162	40.39
716.48	40.19
716.798	40.93
717.116	41.21
717.434	40.2
717.752	39.69
718.069	40.57
718.387	40.43
718.705	39.75
719.022	41.36
719.34	40.5
719.657	40.9
719.975	40.84
720.292	39.5
720.609	40.76
720.927	40.49
721.244	40.51
721.561	41.1
721.878	40.48
722.195	40.78
722.512	40.05
722.829	40.8
723.146	41.16
723.463	41.12
723.779	40.21
724.096	41.3
724.413	40.75
724.729	41.1
725.046	41.56
725.362	42.36
725.679	41.4
725.995	40.82
726.311	41.71
726.628	41.73
726.944	42
727.26	41.76
727.576	41.32
727.892	40.97
728.208	40.33
728.524	40.71
728.84	41.8
729.156	42.55
729.472	41.99
729.787	42.08
730.103	41.86
730.419	42.34
730.734	41.29
731.05	41.41
731.365	42.16
731.681	41.57
731.996	41.55
732.311	42.58
732.626	41.78
732.942	41.01
733.257	40.92
733.572	42.9
733.887	41.67
734.202	41.95
734.517	41.65
734.832	41.32
735.146	41.23
735.461	42.21
735.776	42.3
736.091	42.09
736.405	41.65
736.72	42.47
737.034	40.95
737.349	42.26
737.663	43.35
737.977	43.99
738.292	42.66
738.606	41.73
738.92	42.81
739.234	42.19
739.548	42.78
739.862	42.46
740.176	42.4
740.49	43.14
740.804	44.34
741.117	42.5
741.431	41.34
741.745	43.31
742.058	40.25
742.372	42
742.685	42.56
742.999	43.26
743.312	43.29
743.626	42.03
743.939	41.45
744.252	43.45
744.565	43.37
744.878	41.19
745.191	42.63
745.505	41.7
745.817	42.86
746.13	42.17
746.443	44.31
746.756	43.65
747.069	42.05
747.381	43.51
747.694	42.01
748.007	44.33
748.319	42.77
748.632	41.91
748.944	43.07
749.256	42.73
749.569	42.53
749.881	42.46
750.193	44.46
750.505	42.88
750.817	42.11
751.129	43.36
751.441	44.08
751.753	43.9
752.065	43.92
752.377	42.55
752.689	44.05
753	42.77
753.312	41.75
753.624	44.68
753.935	42.98
754.247	43.43
754.558	43.86
754.869	43.46
755.181	44.82
755.492	43.98
755.803	45.61
756.114	42.05
756.425	43.08
756.736	43.61
757.047	45.28
757.358	45.12
757.669	43.89
757.98	44.02
758.291	43.63
758.601	43.38
758.912	43.56
759.223	43.66
759.533	43.56
759.844	43.62
760.154	44.07
760.464	44.94
760.775	45.27
761.085	44.35
761.395	43.93
761.705	43.92
762.016	42.96
762.326	45.07
762.636	43.5
762.945	43.74
763.255	43.74
763.565	42.63
763.875	44.38
764.185	43.26
764.494	43.61
764.804	43.22
765.113	43.6
765.423	44.97
765.732	44.32
766.042	44.89
766.351	46.12
766.66	45.39
766.97	45.72
767.279	45.69
767.588	45.96
767.897	46.05
768.206	45.45
768.515	45.83
768.824	45.33
769.133	42.35
769.441	46.75
769.75	43.07
770.059	45.14
770.367	44.45
770.676	45.96
770.984	45.29
771.293	43.02
771.601	44.1
771.91	45.02
772.218	45.07
772.526	43.76
772.834	45.86
773.142	43.28
773.45	41.92
773.758	43.67
774.066	44.65
774.374	44.23
774.682	44.62
774.99	44.19
775.298	42.26
775.605	45.61
775.913	41.72
776.22	44.42
776.528	45.8
776.835	46.35
777.143	44.24
777.45	46.85
777.757	42.56
778.065	44.24
778.372	45.66
778.679	45.62
778.986	44.9
779.293	47.59
779.6	41.67
779.907	42.8
780.214	45.79
780.52	46.1
780.827	44.31
781.134	44.76
781.44	48.02
781.747	46.69
782.053	48.05
782.36	47.07
782.666	47.36
782.973	39.76
783.279	47.62
783.585	48.02
783.891	47.29
784.197	45.25
784.503	47.59
784.809	44.77
785.115	45.49
785.421	43.85
785.727	47.75
786.033	43.52
786.339	46.57
786.644	47.08
786.95	45.25
787.255	46.79
787.561	44.33
787.866	42.98
788.172	47.81
788.477	44.92
788.782	45.02
789.088	46.99
789.393	43.78
789.698	42.3
790.003	47.3
790.308	42.76
790.613	47.11
790.918	44.97
791.223	46.37
791.527	46.69
791.832	48.02
792.137	49.11
792.441	50.5
792.746	46.01
793.05	47.15
793.355	46.26
793.659	45.74
793.963	45.45
794.268	46.39
794.572	46.28
794.876	46.63
795.18	48.38
795.484	45.7
795.788	46.64
796.092	45.16
796.396	47.8
796.7	47.86
797.004	46.76
797.307	45.62
797.611	45.4
797.915	46.3
798.218	45.11
798.522	44.22
798.825	45.76
799.128	43.97
799.432	44
799.735	48.03
800.038	44.76
800.341	48.6
800.644	49.49
800.947	45.04
801.25	46.48
801.553	43.89
801.856	48.42
802.159	48.46
802.462	41.67
802.764	41.78
803.067	47.2
803.37	46.07
803.672	46.4
803.975	46.74
804.277	48.89
804.579	44.07
804.882	43.62
805.184	49.37
805.486	42.87
805.788	46.1
806.09	45.83
806.392	47.96
806.694	45.12
806.996	44.22
807.298	44.58
807.6	42.37
807.902	46.44
808.203	42.91
808.505	42.56
808.807	50.39
809.108	43.41
809.409	46.52
809.711	45.84
810.012	40.36
810.313	45.07
810.615	46.51
810.916	45.42
811.217	43.53
811.518	51.24
811.819	42.55
812.12	46.72
812.421	46.17
812.722	44.77
813.023	46.68
813.323	52.03
813.624	51.93
813.925	51.95
814.225	49.36
814.526	50.68
814.826	48.59
815.126	44.79
815.427	48.82
815.727	45.66
816.027	46.07
816.327	42.22
816.627	48.35
816.927	44.4
817.227	44.83
817.527	45.67
817.827	48.09
818.127	50.08
818.427	43.07
818.727	52.57
819.026	48.21
819.326	51.92
819.625	43.27
819.925	48.78
820.224	53.72
820.524	45.71
820.823	43.67
821.122	50.09
821.421	45.52
821.72	47.41
822.019	41.6
822.318	48.33
822.617	50.39
822.916	45.52
823.215	48.94
823.514	48.35
823.813	49.75
824.111	48.61
824.41	48.75
824.709	50.21
825.007	49.95
825.306	49.22
825.604	51.71
825.902	50.55
826.201	51.53
826.499	49.87
826.797	49.9
827.095	48.74
827.393	50.12
827.691	52.06
827.989	50.99
828.287	51.17
828.585	49.05
828.882	50.63
829.18	46.49
829.478	49.39
829.775	50.6
830.073	50.55
830.37	52.46
830.668	50.66
830.965	48.44
831.263	48.88
831.56	51.09
831.857	51.98
832.154	49.43
832.451	46.07
832.748	48.22
833.045	50.95
833.342	49.4
833.639	50.09
833.936	46.05
834.232	48.65
834.529	48.13
834.826	44.47
835.122	47.79
835.419	45.41
835.715	46.81
836.012	47.87
836.308	50.7
836.604	52.36
836.901	51.06
837.197	50.28
837.493	53.54
837.789	48.72
838.085	48.99
838.381	47.67
838.677	46.73
838.972	48.11
839.268	47.71
839.564	47.24
839.86	41.64
840.155	51.4
840.451	44.92
840.746	45.46
841.042	42.95
841.337	39.83
841.632	59.39
841.928	50.46
842.223	47.58
842.518	51.48
842.813	49.91
843.108	52.99
843.403	51.11
843.698	55.44
843.993	49
844.287	44.95
844.582	53.25
844.877	54.04
845.171	49.1
845.466	43.03
845.761	41.11
846.055	41.67
846.349	49.73
846.644	42.5
846.938	35.79
847.232	36.47
847.526	55.59
847.82	38.44
848.114	40.66
848.408	48.02
848.702	53.77
848.996	50.55
849.29	52.04
849.584	46.93
849.877	37.25
850.171	45.1
850.465	48.39
850.758	37.9
851.052	54.05
851.345	45.13
851.638	50.85
851.932	39.54
852.225	34.07
852.518	47.8
852.811	42.69
853.104	45.24
853.397	43.26
853.69	40.03
853.983	33.8
854.276	46.61
854.569	56.59
854.861	40.09
855.154	45.07
855.447	50.88
855.739	33.32
856.032	22.21
856.324	48.28
856.616	38.71
856.909	52.37
857.201	48.24
857.493	28.38
857.785	39.24
858.077	47.3
858.369	39.61
858.661	37.86
858.953	52.94
859.245	42.98
859.537	52.17
859.829	49.14
860.12	30.58
860.412	42.63
860.703	46.31
860.995	34.57
861.286	57.31
861.578	45.23
861.869	48.45
862.16	23.29
862.452	32.64
862.743	48.9
863.034	50.99
863.325	54.83
863.616	36
863.907	57.51
864.198	54.02
864.488	43.64
864.779	31.43
865.07	52.68
865.36	59.89
865.651	53.2
865.941	41.99
866.232	43.37
866.522	67.69
866.813	58.7
867.103	39.13
867.393	36.97
867.683	44.53
867.973	52.34
868.263	72.32
868.553	48.65
868.843	41.62
869.133	33.09
869.423	66.9
869.713	50.27
870.002	15.56
870.292	50.04
870.582	69.23
870.871	34
871.161	57.75
871.45	37.57
871.739	23.11
872.029	46.21
872.318	31.95
872.607	38.06
872.896	63.45
873.185	45.43
873.474	45.58
873.763	75.28
874.052	52.93
874.341	48.23
874.63	40.59
874.918	49.56
875.207	58.12
875.496	61.78
875.784	58.47
876.073	46.33
876.361	34.43
876.649	69.33
876.938	40.7
877.226	41.62
877.514	45.2
877.802	81.66
878.09	41.86
878.378	52.72
878.666	51.79
878.954	61.82
879.242	62.32
879.53	30.25
879.817	35.44
880.105	46.37
880.392	53.46
880.68	12.01
880.967	60.32
881.255	25.68
881.542	54.44
881.83	16.59
882.117	48.91
882.404	59.54
882.691	13.1
882.978	30.67
883.265	54.53
883.552	56.37
883.839	40.72
884.126	47.11
884.413	58.45
884.699	52.77
884.986	46.16
885.273	51.96
885.559	51.96
885.846	51.96
