Data from 0188_crown_Reflection__2__149.txt Node

Date: Fri Sep 22 21:29:02 CDT 2023
User: ToomeyLab
Spectrometer: FLMS14357
Trigger mode: 0
Integration Time (sec): 1.000000E-2
Scans to average: 100
Electric dark correction enabled: true
Nonlinearity correction enabled: false
Boxcar width: 0
XAxis mode: Wavelengths
Number of Pixels in Spectrum: 2048
>>>>>Begin Spectral Data<<<<<
189.047	-171.61
189.435	-171.61
189.823	-171.61
190.211	38.77
190.599	-1433.33
190.987	64.79
191.375	76.12
191.763	620.91
192.151	771.87
192.538	-93.06
192.926	98.63
193.314	119.36
193.702	11.38
194.089	95.46
194.477	330.77
194.864	-3.95
195.252	102.76
195.639	49
196.027	-36.24
196.414	-56.97
196.801	87.79
197.189	-50.55
197.576	90.24
197.963	659.91
198.351	81.55
198.738	42.3
199.125	-5.94
199.512	30.9
199.899	95.9
200.286	21.42
200.673	29.9
201.06	2.48
201.447	57.25
201.833	-212.5
202.22	38.39
202.607	100.4
202.994	62.28
203.38	40.71
203.767	-3.3
204.154	45.7
204.54	36.92
204.927	16.25
205.313	66.89
205.699	54.69
206.086	67.38
206.472	70.81
206.858	53.25
207.245	18.23
207.631	27.59
208.017	27.01
208.403	8.72
208.789	47.51
209.175	51.46
209.561	39.36
209.947	41.52
210.333	56.88
210.719	21.14
211.105	38.46
211.491	57.34
211.876	58.31
212.262	30.61
212.648	29.5
213.034	17.75
213.419	7.22
213.805	25.81
214.19	19.27
214.576	10.98
214.961	25.07
215.346	30.3
215.732	51.02
216.117	-0.34
216.502	28.96
216.888	38.82
217.273	9.51
217.658	-28.56
218.043	31.9
218.428	26.21
218.813	-12.39
219.198	6.7
219.583	23.75
219.968	9.71
220.353	39.18
220.738	19.17
221.122	20.08
221.507	6.34
221.892	17.52
222.276	21.97
222.661	-4.81
223.046	43.72
223.43	25.53
223.815	8.6
224.199	10.48
224.583	25.14
224.968	21.16
225.352	11.33
225.736	13.39
226.121	17.22
226.505	11.66
226.889	18.52
227.273	10.78
227.657	9.81
228.041	11.52
228.425	17.72
228.809	15.31
229.193	13.08
229.577	12.36
229.961	12.05
230.344	12.69
230.728	9.62
231.112	10.5
231.495	10.44
231.879	10.63
232.263	9.07
232.646	9.76
233.03	9.54
233.413	10.59
233.797	9.82
234.18	10.24
234.563	12.11
234.946	12.19
235.33	6.32
235.713	9.69
236.096	8.2
236.479	8.06
236.862	12.26
237.245	9.35
237.628	11.18
238.011	10.69
238.394	11.02
238.777	10.38
239.16	10.23
239.543	10.91
239.925	11.38
240.308	10.69
240.691	9.13
241.073	9.96
241.456	8.66
241.838	7.98
242.221	9.66
242.603	10.03
242.986	8.47
243.368	8.92
243.75	9.74
244.133	10.02
244.515	9.2
244.897	8.58
245.279	9.21
245.661	9.04
246.043	9.21
246.425	9.79
246.807	9.57
247.189	7.06
247.571	8.55
247.953	10.23
248.335	8.5
248.717	8.8
249.098	8.93
249.48	8.54
249.862	8.71
250.243	8.18
250.625	9.14
251.006	8.51
251.388	7.84
251.769	8.71
252.151	8.48
252.532	8.95
252.913	8
253.295	9.98
253.676	8.55
254.057	8.45
254.438	8.8
254.819	7.67
255.2	8.66
255.581	8.54
255.962	9.04
256.343	9.03
256.724	6.8
257.105	8.21
257.486	8.04
257.867	8.84
258.247	9.73
258.628	9.77
259.009	7.15
259.389	7.44
259.77	8.78
260.15	8.09
260.531	8.16
260.911	8.15
261.292	7.99
261.672	7.41
262.052	7.81
262.432	7.8
262.813	7.55
263.193	7.55
263.573	7.96
263.953	7.96
264.333	7.91
264.713	7.64
265.093	7.18
265.473	7.81
265.853	7.29
266.233	8.38
266.612	6.44
266.992	9.56
267.372	7.81
267.752	7.67
268.131	7.56
268.511	7.21
268.89	8.03
269.27	7.47
269.649	7.41
270.029	7.54
270.408	7.84
270.787	7.24
271.167	7.93
271.546	6.99
271.925	7.47
272.304	6.94
272.683	7.67
273.062	7.85
273.441	7.1
273.82	7.53
274.199	7.52
274.578	7.65
274.957	7.12
275.336	7.34
275.715	7.31
276.093	6.8
276.472	7.16
276.851	7.31
277.229	6.45
277.608	6.95
277.986	6.48
278.365	7.68
278.743	6.46
279.122	7.51
279.5	7.23
279.878	6.93
280.257	7.69
280.635	7.07
281.013	7.75
281.391	6.43
281.769	7.01
282.147	6.77
282.525	7.16
282.903	7.63
283.281	6.75
283.659	6.95
284.037	6.66
284.415	7.31
284.792	6.83
285.17	7.07
285.548	7.47
285.925	6.73
286.303	6.44
286.68	6.26
287.058	6.31
287.435	6.72
287.813	6.56
288.19	6.59
288.567	6.65
288.945	6.01
289.322	6.6
289.699	6.84
290.076	6.71
290.453	6.77
290.83	5.97
291.207	5.97
291.584	6.21
291.961	6.23
292.338	6.56
292.715	6.42
293.092	6.05
293.469	6.64
293.845	5.9
294.222	6.16
294.599	6.79
294.975	6.58
295.352	6.43
295.728	6.39
296.105	6.59
296.481	6.58
296.858	6.02
297.234	6.52
297.61	6.14
297.986	6.32
298.363	6.39
298.739	6.22
299.115	6.37
299.491	6.19
299.867	6.43
300.243	5.78
300.619	6.23
300.995	5.84
301.371	6.61
301.746	6.15
302.122	5.93
302.498	5.75
302.874	5.7
303.249	5.69
303.625	5.41
304	6.83
304.376	5.99
304.751	6.37
305.127	5.6
305.502	6.18
305.878	5.41
306.253	5.64
306.628	5.48
307.003	6.28
307.378	5.68
307.754	5.86
308.129	5.84
308.504	6.28
308.879	6.57
309.254	6.31
309.629	5.98
310.003	5.73
310.378	6.31
310.753	5.96
311.128	5.82
311.502	5.89
311.877	5
312.252	5.49
312.626	5.67
313.001	6.13
313.375	5.87
313.75	6.16
314.124	6.03
314.498	5.19
314.873	6.29
315.247	5.83
315.621	5.89
315.995	5.78
316.369	5.56
316.743	6.01
317.117	5.49
317.491	6.36
317.865	5.61
318.239	5.71
318.613	6.09
318.987	5.93
319.361	5.69
319.734	5.12
320.108	5.92
320.482	5.62
320.855	5.72
321.229	5.8
321.602	5.93
321.976	5.52
322.349	5.69
322.723	6.26
323.096	5.69
323.469	5.5
323.843	5.27
324.216	6.28
324.589	5.74
324.962	5.78
325.335	5.27
325.708	5.26
326.081	5.85
326.454	5.36
326.827	5.79
327.2	5.45
327.573	6.08
327.945	5.33
328.318	5.6
328.691	5.72
329.063	5.39
329.436	5.74
329.809	5.52
330.181	5.47
330.553	5.17
330.926	5.66
331.298	5.94
331.671	5.79
332.043	5.13
332.415	5.18
332.787	5.92
333.159	5.69
333.532	5.14
333.904	5.31
334.276	5.37
334.648	4.85
335.02	5.4
335.391	5.74
335.763	5.63
336.135	5.67
336.507	5.49
336.879	5.08
337.25	5.86
337.622	5.96
337.993	5.84
338.365	5.92
338.736	5.56
339.108	5.78
339.479	5.15
339.851	4.53
340.222	5.7
340.593	5.5
340.964	5.16
341.336	5.2
341.707	5.36
342.078	6.04
342.449	5.38
342.82	4.69
343.191	4.83
343.562	4.9
343.933	5.83
344.303	5.43
344.674	5.45
345.045	5.84
345.416	5.97
345.786	5.5
346.157	5.42
346.527	5.24
346.898	5.6
347.268	5.1
347.639	5.27
348.009	5.54
348.38	5.7
348.75	5.88
349.12	5.63
349.49	5.93
349.861	5.42
350.231	5.33
350.601	5.71
350.971	5.65
351.341	5.11
351.711	5.49
352.081	5.3
352.45	5.58
352.82	5.55
353.19	5.61
353.56	5.6
353.929	5.48
354.299	5.51
354.669	5.83
355.038	5.8
355.408	5.48
355.777	5.92
356.147	5.9
356.516	6.22
356.885	5.42
357.254	5.97
357.624	5.2
357.993	5.5
358.362	5.62
358.731	5.36
359.1	5.72
359.469	5.77
359.838	5.34
360.207	5.67
360.576	5.97
360.945	5.81
361.314	5.64
361.682	5.73
362.051	5.92
362.42	5.42
362.788	5.5
363.157	5.67
363.525	5.57
363.894	5.64
364.262	5.71
364.631	5.7
364.999	5.42
365.367	6.09
365.735	5.73
366.104	5.87
366.472	5.99
366.84	5.57
367.208	6.22
367.576	6.18
367.944	5.73
368.312	5.88
368.68	5.81
369.048	6
369.416	5.6
369.783	5.63
370.151	5.7
370.519	5.97
370.886	5.91
371.254	6.26
371.621	5.69
371.989	5.86
372.356	5.56
372.724	6.22
373.091	6.17
373.458	6.28
373.826	6.26
374.193	6.35
374.56	5.99
374.927	5.82
375.294	5.8
375.661	5.95
376.028	6.13
376.395	6.2
376.762	6.04
377.129	6.1
377.496	6.41
377.863	6.03
378.229	5.96
378.596	6.12
378.963	6.12
379.329	6.03
379.696	6.15
380.062	5.86
380.429	6.05
380.795	6.19
381.161	6.12
381.528	6.09
381.894	5.87
382.26	6.12
382.626	6.17
382.993	6.21
383.359	5.77
383.725	5.98
384.091	6.19
384.457	6.25
384.823	6.11
385.188	6.31
385.554	6
385.92	6.32
386.286	6.21
386.651	6.1
387.017	6.4
387.383	6.06
387.748	5.97
388.114	6.04
388.479	6.09
388.845	5.93
389.21	5.81
389.575	6.37
389.94	6.14
390.306	6.24
390.671	6.52
391.036	6.13
391.401	6.32
391.766	5.99
392.131	6.36
392.496	6.4
392.861	6.04
393.226	6.4
393.591	6.31
393.956	6.32
394.32	6.09
394.685	6.22
395.05	6.3
395.414	6.45
395.779	6.35
396.143	6.23
396.508	6.41
396.872	6.32
397.236	6.47
397.601	6.42
397.965	6.52
398.329	6.46
398.694	6.43
399.058	6.25
399.422	6.24
399.786	6.37
400.15	6.47
400.514	6.48
400.878	6.45
401.242	6.67
401.605	6.35
401.969	6.06
402.333	6.52
402.697	6.37
403.06	6.49
403.424	6.47
403.787	6.38
404.151	6.39
404.514	6.43
404.878	6.6
405.241	6.49
405.604	6.42
405.968	6.39
406.331	6.18
406.694	6.76
407.057	6.43
407.42	6.57
407.783	6.59
408.146	6.54
408.509	6.38
408.872	6.34
409.235	6.67
409.598	6.27
409.961	6.51
410.323	6.5
410.686	6.69
411.049	6.68
411.411	6.52
411.774	6.51
412.136	6.6
412.499	6.4
412.861	6.62
413.223	6.59
413.586	6.62
413.948	6.44
414.31	6.37
414.672	6.57
415.035	6.58
415.397	6.78
415.759	6.74
416.121	6.56
416.483	6.6
416.845	6.5
417.206	6.62
417.568	6.68
417.93	6.65
418.292	6.54
418.653	6.38
419.015	6.48
419.377	6.52
419.738	6.6
420.1	6.35
420.461	6.45
420.822	6.43
421.184	6.56
421.545	6.52
421.906	6.36
422.267	6.42
422.629	6.57
422.99	6.47
423.351	6.35
423.712	6.41
424.073	6.42
424.434	6.54
424.795	6.51
425.155	6.55
425.516	6.49
425.877	6.43
426.238	6.41
426.598	6.43
426.959	6.48
427.32	6.68
427.68	6.51
428.041	6.53
428.401	6.59
428.761	6.59
429.122	6.54
429.482	6.47
429.842	6.57
430.202	6.67
430.563	6.62
430.923	6.62
431.283	6.83
431.643	6.66
432.003	6.78
432.363	6.84
432.722	6.83
433.082	6.84
433.442	6.65
433.802	6.73
434.161	6.57
434.521	6.75
434.881	6.65
435.24	6.72
435.6	6.61
435.959	6.66
436.319	6.55
436.678	6.73
437.037	6.77
437.396	6.71
437.756	6.67
438.115	6.6
438.474	6.82
438.833	6.82
439.192	6.78
439.551	6.68
439.91	6.9
440.269	6.75
440.628	6.6
440.987	6.93
441.345	6.81
441.704	6.82
442.063	6.74
442.421	6.56
442.78	6.68
443.138	6.67
443.497	6.69
443.855	6.77
444.214	6.67
444.572	6.9
444.93	6.69
445.288	6.88
445.647	6.87
446.005	6.84
446.363	6.64
446.721	6.91
447.079	6.7
447.437	6.79
447.795	6.85
448.153	6.67
448.51	6.73
448.868	6.64
449.226	6.68
449.584	6.75
449.941	6.7
450.299	6.8
450.656	6.86
451.014	6.81
451.371	6.83
451.729	6.91
452.086	6.87
452.443	6.77
452.801	6.87
453.158	6.92
453.515	6.91
453.872	6.75
454.229	7
454.586	6.85
454.943	6.94
455.3	6.83
455.657	6.98
456.014	6.91
456.371	6.95
456.727	7.04
457.084	6.97
457.441	6.78
457.797	6.98
458.154	6.86
458.51	6.91
458.867	6.96
459.223	6.92
459.58	7.01
459.936	7.01
460.292	6.95
460.648	7.03
461.005	6.9
461.361	6.9
461.717	6.71
462.073	6.76
462.429	6.71
462.785	6.74
463.141	6.83
463.496	6.94
463.852	6.83
464.208	6.82
464.564	7.15
464.919	6.79
465.275	7.15
465.631	7.13
465.986	7.05
466.342	6.91
466.697	7.22
467.052	6.93
467.408	7.12
467.763	7.03
468.118	7.15
468.473	7.05
468.829	6.87
469.184	6.9
469.539	6.94
469.894	7.03
470.249	6.88
470.603	7.04
470.958	7.08
471.313	6.88
471.668	7.08
472.023	7.2
472.377	6.93
472.732	6.93
473.086	7.01
473.441	6.72
473.795	7.31
474.15	7.15
474.504	6.89
474.859	7.25
475.213	6.79
475.567	6.85
475.921	6.97
476.275	6.91
476.63	6.99
476.984	7.13
477.338	7.18
477.692	6.98
478.045	7.07
478.399	7.07
478.753	6.93
479.107	7.03
479.461	7.01
479.814	7.01
480.168	7.11
480.521	7.03
480.875	7.15
481.228	7.04
481.582	6.75
481.935	6.9
482.289	6.83
482.642	6.93
482.995	7.14
483.348	7.01
483.701	6.99
484.055	6.98
484.408	6.96
484.761	6.94
485.114	6.85
485.466	6.69
485.819	6.65
486.172	6.56
486.525	6.58
486.878	6.58
487.23	6.66
487.583	6.71
487.936	6.78
488.288	6.81
488.641	6.8
488.993	6.77
489.345	6.77
489.698	6.67
490.05	6.68
490.402	6.69
490.754	6.68
491.107	6.68
491.459	6.79
491.811	6.76
492.163	6.94
492.515	6.95
492.866	6.88
493.218	6.86
493.57	6.83
493.922	6.66
494.274	6.69
494.625	6.7
494.977	6.8
495.328	6.93
495.68	6.95
496.031	6.97
496.383	6.97
496.734	7.15
497.086	7.04
497.437	7
497.788	7
498.139	6.94
498.49	7.14
498.842	6.95
499.193	6.89
499.544	7
499.894	7.07
500.245	6.93
500.596	7.09
500.947	7.05
501.298	7.01
501.648	7
501.999	7.07
502.35	7.13
502.7	7.15
503.051	7.15
503.401	7.08
503.752	7.05
504.102	6.96
504.452	7.08
504.803	6.98
505.153	7.06
505.503	7.06
505.853	7.13
506.203	6.92
506.553	7.11
506.903	6.99
507.253	6.99
507.603	7.13
507.953	7.15
508.303	7.15
508.652	7
509.002	7.17
509.352	7.13
509.701	7.1
510.051	6.95
510.4	7.11
510.75	7.02
511.099	6.84
511.449	7.04
511.798	7.1
512.147	7.03
512.496	6.93
512.846	6.92
513.195	7.05
513.544	7.12
513.893	7.09
514.242	7
514.591	7.02
514.939	7.03
515.288	6.87
515.637	6.97
515.986	6.95
516.334	7
516.683	7.09
517.032	7.24
517.38	7.1
517.729	7.09
518.077	7.06
518.426	7.02
518.774	7.02
519.122	6.99
519.47	7
519.819	6.99
520.167	6.96
520.515	6.97
520.863	6.87
521.211	6.83
521.559	6.92
521.907	6.83
522.255	6.89
522.602	7
522.95	6.92
523.298	7.05
523.645	6.91
523.993	7.05
524.341	7.01
524.688	7.06
525.036	6.97
525.383	6.94
525.73	7.03
526.078	7.02
526.425	7.02
526.772	7.05
527.119	6.95
527.466	6.9
527.814	6.81
528.161	6.81
528.508	6.86
528.854	6.91
529.201	6.93
529.548	6.88
529.895	6.84
530.242	6.69
530.588	6.65
530.935	6.57
531.282	6.58
531.628	6.65
531.975	6.64
532.321	6.65
532.667	6.73
533.014	6.86
533.36	6.81
533.706	6.88
534.052	6.86
534.399	6.94
534.745	6.92
535.091	6.72
535.437	6.64
535.783	6.6
536.129	6.68
536.474	6.82
536.82	6.73
537.166	6.97
537.512	6.85
537.857	6.89
538.203	6.96
538.549	6.71
538.894	6.77
539.239	6.81
539.585	6.75
539.93	6.9
540.276	6.93
540.621	6.87
540.966	6.82
541.311	6.94
541.656	6.82
542.001	6.82
542.346	6.94
542.691	6.83
543.036	6.77
543.381	6.62
543.726	6.63
544.071	6.61
544.415	6.63
544.76	6.67
545.105	6.61
545.449	6.7
545.794	6.77
546.138	6.73
546.483	6.82
546.827	6.73
547.171	6.85
547.516	6.95
547.86	6.81
548.204	6.72
548.548	6.78
548.892	6.83
549.236	6.7
549.58	6.72
549.924	6.85
550.268	6.9
550.612	6.81
550.956	6.93
551.3	6.9
551.643	6.92
551.987	6.96
552.33	6.99
552.674	6.95
553.017	6.88
553.361	6.76
553.704	6.91
554.048	6.86
554.391	6.96
554.734	6.95
555.077	6.96
555.42	6.72
555.764	6.79
556.107	6.86
556.45	6.81
556.793	6.77
557.135	6.83
557.478	6.58
557.821	6.79
558.164	7.03
558.507	7.06
558.849	6.81
559.192	7.02
559.534	6.87
559.877	7.01
560.219	6.75
560.562	6.85
560.904	6.98
561.246	6.97
561.589	6.98
561.931	6.81
562.273	6.78
562.615	6.54
562.957	6.71
563.299	6.85
563.641	6.79
563.983	6.9
564.325	6.84
564.667	6.91
565.008	6.81
565.35	6.82
565.692	6.82
566.033	6.77
566.375	6.8
566.716	6.76
567.058	6.63
567.399	6.79
567.741	6.9
568.082	6.66
568.423	6.97
568.764	6.86
569.105	6.45
569.447	6.87
569.788	6.58
570.129	6.82
570.47	6.88
570.811	6.61
571.151	6.7
571.492	6.68
571.833	6.62
572.174	6.61
572.514	6.91
572.855	6.65
573.195	6.69
573.536	6.62
573.876	6.67
574.217	6.59
574.557	6.52
574.898	6.75
575.238	6.5
575.578	6.7
575.918	6.64
576.258	6.49
576.598	6.51
576.938	6.6
577.278	6.71
577.618	6.44
577.958	6.61
578.298	6.64
578.638	6.64
578.977	6.55
579.317	6.63
579.657	6.71
579.996	6.81
580.336	6.78
580.675	6.79
581.014	6.55
581.354	6.6
581.693	6.83
582.032	6.53
582.372	6.8
582.711	6.79
583.05	6.56
583.389	6.62
583.728	6.51
584.067	6.62
584.406	6.67
584.745	6.48
585.083	6.62
585.422	6.75
585.761	6.57
586.1	6.72
586.438	6.49
586.777	6.52
587.115	6.65
587.454	6.33
587.792	6.65
588.13	6.89
588.469	6.59
588.807	6.72
589.145	6.71
589.483	6.57
589.821	6.5
590.159	6.64
590.497	6.8
590.835	6.76
591.173	6.39
591.511	6.55
591.849	6.93
592.187	6.48
592.524	6.65
592.862	6.66
593.2	6.6
593.537	6.61
593.875	6.61
594.212	6.61
594.55	6.86
594.887	6.66
595.224	6.54
595.561	6.63
595.899	6.82
596.236	6.9
596.573	6.69
596.91	6.46
597.247	6.42
597.584	6.83
597.921	6.5
598.258	6.43
598.594	6.48
598.931	6.48
599.268	6.45
599.604	6.55
599.941	6.48
600.277	6.48
600.614	6.41
600.95	6.37
601.287	6.47
601.623	6.68
601.959	6.34
602.296	6.47
602.632	6.24
602.968	6.28
603.304	6.64
603.64	6.6
603.976	6.46
604.312	6.46
604.648	6.37
604.984	6.51
605.319	6.29
605.655	6.39
605.991	6.42
606.326	6.49
606.662	6.27
606.998	6.35
607.333	6.43
607.668	6.34
608.004	6.49
608.339	6.06
608.674	6.37
609.01	6.36
609.345	6.44
609.68	6.38
610.015	6.28
610.35	6.38
610.685	6.47
611.02	6.42
611.355	6.52
611.689	6.34
612.024	6.45
612.359	6.22
612.694	6.25
613.028	6.17
613.363	6.12
613.697	6.36
614.032	6.14
614.366	6.12
614.7	6.42
615.035	6.5
615.369	6.41
615.703	6.31
616.037	6.16
616.371	6.41
616.705	6.82
617.039	6.54
617.373	6.35
617.707	6.44
618.041	6.54
618.375	6.77
618.709	6.26
619.042	6.62
619.376	6.58
619.71	6.45
620.043	5.95
620.377	5.77
620.71	6.14
621.043	6.67
621.377	6.13
621.71	6.11
622.043	6.05
622.376	6.5
622.709	6.05
623.043	6.53
623.376	6.32
623.709	6.46
624.041	6.55
624.374	6.36
624.707	6.55
625.04	6.63
625.373	5.98
625.705	6.36
626.038	6.25
626.37	6.68
626.703	5.92
627.035	6.41
627.368	6.21
627.7	6.59
628.032	6.33
628.365	6.4
628.697	6.23
629.029	6.45
629.361	6.34
629.693	6.53
630.025	6.27
630.357	5.98
630.689	6.28
631.021	6.22
631.353	5.88
631.684	6.4
632.016	6.74
632.348	6.11
632.679	6.05
633.011	6.32
633.342	6.66
633.674	6.78
634.005	5.89
634.336	6.46
634.668	6.6
634.999	6.3
635.33	6.41
635.661	6.39
635.992	6.29
636.323	5.92
636.654	6.04
636.985	5.78
637.316	6.01
637.647	6.5
637.977	6.17
638.308	6.6
638.639	6.32
638.969	6.41
639.3	6.17
639.63	6.53
639.961	5.93
640.291	6.49
640.622	6.06
640.952	6.53
641.282	6.47
641.612	6.37
641.943	6.44
642.273	6.3
642.603	6.2
642.933	6.09
643.263	5.87
643.592	5.97
643.922	6.32
644.252	5.97
644.582	6.36
644.911	6.49
645.241	6.4
645.571	6.23
645.9	6.55
646.23	6.62
646.559	6.49
646.888	6.81
647.218	6.5
647.547	6.19
647.876	6.44
648.205	5.79
648.534	6.54
648.863	6.45
649.192	6.19
649.521	6.08
649.85	6.61
650.179	6.15
650.508	6.16
650.837	6.67
651.165	5.86
651.494	6.31
651.822	6.25
652.151	6.19
652.479	6.14
652.808	5.95
653.136	6.64
653.465	5.93
653.793	5.8
654.121	6.41
654.449	5.51
654.777	6.26
655.105	6.19
655.433	6.38
655.761	6.72
656.089	6.32
656.417	6.5
656.745	5.84
657.073	6.13
657.4	6.84
657.728	6.32
658.056	5.9
658.383	6.35
658.711	6.25
659.038	6.05
659.365	6.41
659.693	6.18
660.02	6.11
660.347	6.66
660.674	5.96
661.001	5.8
661.329	6.1
661.656	6.15
661.982	5.95
662.309	6.36
662.636	6.14
662.963	6.01
663.29	6.19
663.616	6.29
663.943	6.48
664.27	6.23
664.596	5.94
664.923	6.14
665.249	6.39
665.576	5.55
665.902	6.13
666.228	6.2
666.554	5.63
666.881	6.97
667.207	6
667.533	5.78
667.859	6.01
668.185	6.54
668.511	6.46
668.837	6.18
669.162	6.62
669.488	6.37
669.814	6
670.139	5.91
670.465	6.93
670.791	6.36
671.116	6.3
671.442	6.84
671.767	5.64
672.092	6.91
672.418	6.8
672.743	6.42
673.068	6.61
673.393	6.23
673.718	6.68
674.043	6.28
674.368	6.61
674.693	6.63
675.018	6.15
675.343	6.14
675.667	6.4
675.992	6.07
676.317	6.29
676.641	6.01
676.966	5.68
677.29	6.23
677.615	6.64
677.939	6.23
678.264	6.29
678.588	6.89
678.912	6.61
679.236	6.66
679.56	6.55
679.885	6.6
680.209	6.77
680.532	6.15
680.856	6.35
681.18	6.97
681.504	6.29
681.828	6.48
682.152	6.32
682.475	7.32
682.799	6.31
683.122	6.42
683.446	5.83
683.769	5.83
684.093	6.82
684.416	6.33
684.739	6.24
685.062	7.59
685.386	6.41
685.709	6.22
686.032	6.27
686.355	5.82
686.678	6.39
687.001	6.37
687.324	6.79
687.646	6.73
687.969	7.36
688.292	6.5
688.614	6.66
688.937	6.1
689.26	6.52
689.582	6.86
689.904	6.17
690.227	6.64
690.549	7.1
690.871	6.71
691.194	6.84
691.516	6.07
691.838	6.45
692.16	6.2
692.482	6.59
692.804	6.1
693.126	5.6
693.448	6.41
693.769	6.32
694.091	7.51
694.413	7.43
694.735	6.82
695.056	6.69
695.378	6.18
695.699	6.79
696.021	5.7
696.342	6.79
696.663	6.47
696.984	5.78
697.306	6.28
697.627	6.79
697.948	6.71
698.269	6.75
698.59	5.42
698.911	5.82
699.232	6.27
699.553	6.61
699.873	6.76
700.194	6.33
700.515	6.25
700.835	7.33
701.156	7.01
701.477	6.12
701.797	6.36
702.117	6.66
702.438	6.12
702.758	5.52
703.078	6.39
703.398	7.24
703.719	6.77
704.039	7.11
704.359	6.22
704.679	5.75
704.999	7.36
705.319	6.38
705.638	6.53
705.958	6.45
706.278	7.72
706.597	6.13
706.917	6.62
707.237	5.43
707.556	6.24
707.876	6.2
708.195	7.3
708.514	7.26
708.834	6.02
709.153	6.76
709.472	5.92
709.791	6.62
710.11	6.93
710.429	7.88
710.748	6.9
711.067	7.5
711.386	6.91
711.705	6.74
712.023	6.24
712.342	7.39
712.661	6.81
712.979	5.96
713.298	7.37
713.616	6.47
713.935	6.16
714.253	7.36
714.572	7.15
714.89	7.08
715.208	6.77
715.526	5.86
715.844	7.01
716.162	6.43
716.48	7.4
716.798	7.25
717.116	7.4
717.434	6.65
717.752	6.31
718.069	6.26
718.387	7.47
718.705	6.56
719.022	7.05
719.34	7.51
719.657	6.25
719.975	7.04
720.292	7.54
720.609	6.9
720.927	6.85
721.244	8.41
721.561	8.55
721.878	6.53
722.195	6.44
722.512	6.14
722.829	6.56
723.146	7.42
723.463	7.89
723.779	8.02
724.096	6.48
724.413	8.54
724.729	7.82
725.046	6.89
725.362	5.83
725.679	5.9
725.995	8.7
726.311	6.2
726.628	5.27
726.944	5.63
727.26	7.97
727.576	6.46
727.892	5.35
728.208	7.78
728.524	7.28
728.84	6.85
729.156	7.29
729.472	7.08
729.787	7.17
730.103	7.16
730.419	7.56
730.734	7.42
731.05	5.73
731.365	6.21
731.681	7.17
731.996	6.45
732.311	7.27
732.626	6.11
732.942	6.72
733.257	6.59
733.572	5.47
733.887	7.61
734.202	7.05
734.517	6.68
734.832	8.13
735.146	7.63
735.461	7.93
735.776	6.72
736.091	6.8
736.405	5.97
736.72	6.9
737.034	5.91
737.349	6.14
737.663	6.11
737.977	8.12
738.292	6.87
738.606	7.26
738.92	5.95
739.234	7.33
739.548	8.14
739.862	7.53
740.176	8.17
740.49	4.39
740.804	6.77
741.117	8.58
741.431	6.59
741.745	7.64
742.058	6.68
742.372	6.83
742.685	7.4
742.999	6.87
743.312	7.92
743.626	6.31
743.939	6.87
744.252	7.62
744.565	6.47
744.878	7.39
745.191	5.98
745.505	7.65
745.817	8.14
746.13	7.11
746.443	9.23
746.756	7.4
747.069	9.12
747.381	6.22
747.694	9.64
748.007	7.78
748.319	8.33
748.632	7.52
748.944	10.94
749.256	9.25
749.569	7.18
749.881	7.76
750.193	8.55
750.505	8.37
750.817	8.37
751.129	7.67
751.441	7.43
751.753	7.33
752.065	10.04
752.377	8.35
752.689	7.69
753	6.9
753.312	8.24
753.624	6.55
753.935	8.5
754.247	6.23
754.558	7.71
754.869	8.78
755.181	6.44
755.492	7.08
755.803	9.19
756.114	6.86
756.425	8.83
756.736	6.53
757.047	6.49
757.358	8.2
757.669	7.36
757.98	8.05
758.291	7.94
758.601	8.61
758.912	6.93
759.223	10.53
759.533	6.31
759.844	8.92
760.154	6.63
760.464	5.58
760.775	7.78
761.085	10.35
761.395	7.31
761.705	8.54
762.016	6.36
762.326	8.78
762.636	8.51
762.945	6.55
763.255	7.1
763.565	7.66
763.875	8.1
764.185	10.27
764.494	10.18
764.804	7.89
765.113	6.88
765.423	7.13
765.732	8.82
766.042	8.26
766.351	7.41
766.66	6.64
766.97	8.14
767.279	6.51
767.588	7.55
767.897	7.49
768.206	8.1
768.515	9.06
768.824	7.23
769.133	9.86
769.441	7.03
769.75	10.43
770.059	9.41
770.367	7.79
770.676	8.74
770.984	8.45
771.293	8.78
771.601	8.44
771.91	9.04
772.218	7.7
772.526	7.15
772.834	7.45
773.142	7.96
773.45	10.25
773.758	8.9
774.066	11.27
774.374	7.42
774.682	7.08
774.99	7.85
775.298	6.62
775.605	9.08
775.913	12.77
776.22	6.51
776.528	5.55
776.835	7.73
777.143	9.74
777.45	8.85
777.757	9.46
778.065	10.29
778.372	8.22
778.679	9.7
778.986	8.87
779.293	5.37
779.6	9.25
779.907	7.24
780.214	14.47
780.52	8.14
780.827	7.89
781.134	8.94
781.44	11.94
781.747	7.4
782.053	9.69
782.36	10.43
782.666	10.42
782.973	12.59
783.279	7.67
783.585	10.42
783.891	9.86
784.197	11.85
784.503	5.99
784.809	6.17
785.115	9.06
785.421	9.57
785.727	11.92
786.033	9.87
786.339	9.49
786.644	14.5
786.95	9.97
787.255	6.74
787.561	7.42
787.866	6.74
788.172	8.48
788.477	9.31
788.782	6.5
789.088	9.74
789.393	2.18
789.698	8.96
790.003	10.35
790.308	7.75
790.613	9.52
790.918	11.2
791.223	5.63
791.527	6.05
791.832	10.64
792.137	10.02
792.441	16.61
792.746	14.37
793.05	11.23
793.355	13.49
793.659	7.98
793.963	12.76
794.268	11.4
794.572	10.46
794.876	8.72
795.18	10.41
795.484	8.93
795.788	5.94
796.092	10.58
796.396	14.11
796.7	13.66
797.004	11.85
797.307	7.33
797.611	5.28
797.915	10.24
798.218	8.71
798.522	7.03
798.825	10.56
799.128	10.07
799.432	6.49
799.735	6.03
800.038	11.8
800.341	8.37
800.644	10.18
800.947	7.72
801.25	13.11
801.553	12.25
801.856	16.14
802.159	6.23
802.462	8.21
802.764	7.86
803.067	9.75
803.37	16.45
803.672	11.31
803.975	4.31
804.277	11.92
804.579	14.14
804.882	8.6
805.184	13.19
805.486	3.16
805.788	12.5
806.09	7.64
806.392	6.22
806.694	12.8
806.996	11.72
807.298	14.22
807.6	14.64
807.902	10.51
808.203	12.88
808.505	12.6
808.807	12.66
809.108	14.11
809.409	16.45
809.711	12.68
810.012	11.55
810.313	11.96
810.615	12.06
810.916	10.38
811.217	10.51
811.518	11.87
811.819	11.22
812.12	8.16
812.421	9.98
812.722	6.02
813.023	10.87
813.323	9.67
813.624	16.45
813.925	14.16
814.225	14.16
814.526	11.89
814.826	17.32
815.126	13.07
815.427	12.67
815.727	1.7
816.027	7.56
816.327	7.83
816.627	20.2
816.927	16.23
817.227	13.1
817.527	12.3
817.827	5.6
818.127	13.98
818.427	11.97
818.727	15.97
819.026	10.6
819.326	9.17
819.625	14.64
819.925	16.97
820.224	10.52
820.524	7.54
820.823	8.58
821.122	8.03
821.421	15.44
821.72	16.19
822.019	9.42
822.318	10.23
822.617	10.13
822.916	14.79
823.215	14.4
823.514	8.89
823.813	11.59
824.111	12.57
824.41	12.7
824.709	8.98
825.007	8.32
825.306	9.18
825.604	7.86
825.902	9.63
826.201	8.7
826.499	9.74
826.797	8.91
827.095	10.32
827.393	10.18
827.691	8.94
827.989	8.84
828.287	7.75
828.585	10.36
828.882	10.34
829.18	11.03
829.478	10.92
829.775	7.82
830.073	9.7
830.37	8.78
830.668	7.58
830.965	10.36
831.263	8.97
831.56	7.09
831.857	8.9
832.154	11.14
832.451	10.12
832.748	11.39
833.045	12.23
833.342	13.63
833.639	13.79
833.936	17.46
834.232	19.92
834.529	15.77
834.826	14.96
835.122	7.93
835.419	10.08
835.715	11.97
836.012	15
836.308	14.85
836.604	13.99
836.901	11.41
837.197	12.42
837.493	13.68
837.789	10.97
838.085	8.5
838.381	11.16
838.677	9.77
838.972	14.29
839.268	14.57
839.564	15.58
839.86	13.12
840.155	11.14
840.451	12.11
840.746	15.08
841.042	8.61
841.337	20.21
841.632	23.67
841.928	14.46
842.223	21.54
842.518	12.7
842.813	19.85
843.108	9.06
843.403	11.45
843.698	15.51
843.993	8.85
844.287	14.45
844.582	10.26
844.877	5.71
845.171	17.75
845.466	17.55
845.761	5.56
846.055	4.98
846.349	27.44
846.644	23.78
846.938	19.09
847.232	19.37
847.526	9.27
847.82	22.78
848.114	27.6
848.408	5.43
848.702	12.67
848.996	26.64
849.29	11.02
849.584	38.82
849.877	29.1
850.171	-14.46
850.465	16.31
850.758	29.56
851.052	24.68
851.345	46.51
851.638	0.4
851.932	39.93
852.225	15.84
852.518	13.77
852.811	29.48
853.104	24.93
853.397	17.2
853.69	30.14
853.983	31.3
854.276	16.2
854.569	26.98
854.861	5.38
855.154	7.27
855.447	16.01
855.739	-1.25
856.032	7.72
856.324	18.15
856.616	13.98
856.909	0.98
857.201	10.82
857.493	16.69
857.785	28.17
858.077	26.12
858.369	30.51
858.661	19.95
858.953	27.15
859.245	16.2
859.537	-12.78
859.829	18.28
860.12	27.46
860.412	12.27
860.703	25.95
860.995	6.36
861.286	24.99
861.578	14.82
861.869	-17.44
862.16	24.94
862.452	-16.81
862.743	46.76
863.034	46.68
863.325	40.74
863.616	14.3
863.907	21.97
864.198	12.28
864.488	2.5
864.779	-4.98
865.07	10.69
865.36	0.52
865.651	29.85
865.941	-20.04
866.232	-4.84
866.522	48.09
866.813	23.45
867.103	47.08
867.393	8.99
867.683	17.59
867.973	35.44
868.263	7.15
868.553	23.5
868.843	18.52
869.133	25.7
869.423	37.39
869.713	23.11
870.002	8.3
870.292	4.13
870.582	18.74
870.871	13.25
871.161	2.24
871.45	-3.46
871.739	3.7
872.029	2.44
872.318	13.26
872.607	5.39
872.896	27.12
873.185	33.17
873.474	41.64
873.763	22.46
874.052	48.57
874.341	22.17
874.63	34.08
874.918	20.19
875.207	76.32
875.496	30.23
875.784	-5.17
876.073	3.91
876.361	46.47
876.649	21.59
876.938	37.77
877.226	49.13
877.514	42.62
877.802	1.33
878.09	42.7
878.378	12.4
878.666	32.85
878.954	27.89
879.242	22.79
879.53	13.43
879.817	15.02
880.105	2.52
880.392	34.23
880.68	11.93
880.967	24.52
881.255	45.04
881.542	44.45
881.83	31.59
882.117	-13.84
882.404	35.42
882.691	29.12
882.978	21.85
883.265	15.54
883.552	22.12
883.839	-21.02
884.126	54.22
884.413	4.92
884.699	39.1
884.986	14.92
885.273	8.72
885.559	8.72
885.846	8.72
