Data from 0188_chest_Reflection__2__144.txt Node

Date: Fri Sep 22 21:27:26 CDT 2023
User: ToomeyLab
Spectrometer: FLMS14357
Trigger mode: 0
Integration Time (sec): 1.000000E-2
Scans to average: 100
Electric dark correction enabled: true
Nonlinearity correction enabled: false
Boxcar width: 0
XAxis mode: Wavelengths
Number of Pixels in Spectrum: 2048
>>>>>Begin Spectral Data<<<<<
189.047	-79.03
189.435	-79.03
189.823	-79.03
190.211	-22.47
190.599	568.57
190.987	126.56
191.375	42.16
191.763	-512.93
192.151	955.79
192.538	90.36
192.926	498.9
193.314	94.37
193.702	229.19
194.089	77.84
194.477	1187.47
194.864	69.88
195.252	6.76
195.639	298.98
196.027	-569.47
196.414	-75.27
196.801	32.98
197.189	-132.65
197.576	72.63
197.963	217.54
198.351	32.45
198.738	-19.54
199.125	-9.97
199.512	58.65
199.899	23.05
200.286	19.81
200.673	15.32
201.06	28.32
201.447	56.68
201.833	-1.01
202.22	57.14
202.607	66.21
202.994	66.42
203.38	11.62
203.767	14.18
204.154	23.51
204.54	28.51
204.927	36.03
205.313	51.63
205.699	57.51
206.086	29.46
206.472	62.3
206.858	32.76
207.245	1.28
207.631	28.66
208.017	38.89
208.403	24.91
208.789	47.77
209.175	48.84
209.561	26.9
209.947	26.75
210.333	21.28
210.719	17.79
211.105	27.19
211.491	12.58
211.876	67.38
212.262	16.52
212.648	49.8
213.034	27.93
213.419	36.96
213.805	28.11
214.19	10.45
214.576	32.35
214.961	7.33
215.346	36
215.732	32.03
216.117	6.44
216.502	41.17
216.888	12.5
217.273	27.92
217.658	-6.85
218.043	15.49
218.428	31.12
218.813	-1.66
219.198	4.09
219.583	19.53
219.968	0.87
220.353	33.77
220.738	15.04
221.122	7.04
221.507	5.38
221.892	-1.5
222.276	11.07
222.661	-2.72
223.046	18.53
223.43	20.43
223.815	9.82
224.199	-8.53
224.583	18.36
224.968	23.76
225.352	10.07
225.736	14.54
226.121	8.33
226.505	6.77
226.889	4.89
227.273	7.89
227.657	7.91
228.041	5.57
228.425	12.64
228.809	2.75
229.193	6.62
229.577	9.51
229.961	7.84
230.344	6.56
230.728	3.95
231.112	4.1
231.495	3.27
231.879	4.76
232.263	4.75
232.646	3.39
233.03	4.47
233.413	4.75
233.797	4.83
234.18	3.05
234.563	5.01
234.946	7.5
235.33	4.91
235.713	3.17
236.096	4.78
236.479	3.95
236.862	6.55
237.245	2.75
237.628	5.9
238.011	4.93
238.394	4.63
238.777	7.35
239.16	6.62
239.543	6.3
239.925	3.64
240.308	4.12
240.691	5.29
241.073	4.42
241.456	5.15
241.838	3.11
242.221	4.53
242.603	5.03
242.986	4.37
243.368	4.3
243.75	3.72
244.133	5.05
244.515	4.14
244.897	4.27
245.279	4.43
245.661	4.7
246.043	4.69
246.425	3.98
246.807	5.76
247.189	3.05
247.571	5.06
247.953	5.1
248.335	4.21
248.717	4.31
249.098	4.47
249.48	4.05
249.862	4.07
250.243	4.33
250.625	4.49
251.006	3.7
251.388	4.59
251.769	5.08
252.151	4.7
252.532	4.49
252.913	5.05
253.295	6.02
253.676	4.43
254.057	4.16
254.438	5.06
254.819	3.83
255.2	4.33
255.581	4.78
255.962	5.22
256.343	5.12
256.724	3.66
257.105	4.19
257.486	4
257.867	4.88
258.247	4.09
258.628	4.6
259.009	4.4
259.389	4.19
259.77	4.1
260.15	4.97
260.531	4.08
260.911	4.15
261.292	3.46
261.672	3.69
262.052	3.91
262.432	4.15
262.813	4.24
263.193	3.78
263.573	5.18
263.953	3.74
264.333	4.66
264.713	4.36
265.093	4.81
265.473	3.67
265.853	4.27
266.233	3.52
266.612	4.77
266.992	4.31
267.372	3.16
267.752	5.15
268.131	4.31
268.511	3.61
268.89	4.09
269.27	4.19
269.649	4.06
270.029	3.99
270.408	4.09
270.787	4.37
271.167	4.21
271.546	4.24
271.925	4.14
272.304	3.67
272.683	4.57
273.062	4.86
273.441	4.34
273.82	4.36
274.199	4.02
274.578	3.99
274.957	3.68
275.336	3.9
275.715	3.97
276.093	3.74
276.472	3.88
276.851	4.06
277.229	3.17
277.608	3.81
277.986	2.85
278.365	4.49
278.743	4.08
279.122	3.92
279.5	4.41
279.878	3.83
280.257	5.01
280.635	3.58
281.013	4.04
281.391	3.69
281.769	4.23
282.147	4.03
282.525	4.18
282.903	4.02
283.281	4.14
283.659	3.9
284.037	3.7
284.415	4.08
284.792	3.35
285.17	3.76
285.548	4.73
285.925	3.5
286.303	4.31
286.68	4.16
287.058	3.5
287.435	3.84
287.813	3.65
288.19	3.37
288.567	4.23
288.945	3.94
289.322	4.4
289.699	3.63
290.076	3.68
290.453	3.68
290.83	3.76
291.207	3.63
291.584	3.51
291.961	3.42
292.338	3.67
292.715	4.06
293.092	3.83
293.469	3.8
293.845	3.82
294.222	4.01
294.599	3.66
294.975	4.04
295.352	3.92
295.728	3.97
296.105	4.14
296.481	3.57
296.858	3.81
297.234	3.67
297.61	3.8
297.986	3.89
298.363	4.07
298.739	3.84
299.115	3.7
299.491	3.87
299.867	3.83
300.243	3.37
300.619	4.27
300.995	3.43
301.371	4.32
301.746	4.1
302.122	3.48
302.498	3.81
302.874	3.41
303.249	3.98
303.625	3.36
304	3.8
304.376	3.99
304.751	4.2
305.127	3.87
305.502	4.38
305.878	3.61
306.253	4.05
306.628	3.82
307.003	4.47
307.378	4.01
307.754	3.51
308.129	3.72
308.504	3.75
308.879	4.44
309.254	4.35
309.629	3.56
310.003	4.28
310.378	4.31
310.753	3.44
311.128	4.12
311.502	4.11
311.877	3.34
312.252	3.85
312.626	3.58
313.001	3.82
313.375	3.92
313.75	4.03
314.124	4.15
314.498	3.46
314.873	3.85
315.247	3.86
315.621	3.62
315.995	3.99
316.369	3.9
316.743	4.04
317.117	4.09
317.491	4.08
317.865	3.6
318.239	3.58
318.613	4.38
318.987	3.94
319.361	3.71
319.734	3.92
320.108	4.67
320.482	3.21
320.855	4.13
321.229	4.29
321.602	3.9
321.976	3.84
322.349	3.7
322.723	4.18
323.096	3.94
323.469	3.78
323.843	3.3
324.216	3.89
324.589	4.18
324.962	3.37
325.335	3.63
325.708	3.55
326.081	4.5
326.454	3.54
326.827	4.19
327.2	4.24
327.573	4.29
327.945	4.33
328.318	3.92
328.691	3.96
329.063	3.8
329.436	4
329.809	3.83
330.181	4.37
330.553	3.9
330.926	3.99
331.298	3.56
331.671	3.81
332.043	2.99
332.415	3.64
332.787	4.02
333.159	3.42
333.532	3.79
333.904	3.23
334.276	3.43
334.648	3.32
335.02	3.51
335.391	3.62
335.763	4.43
336.135	4.24
336.507	3.62
336.879	3.74
337.25	3.69
337.622	4.1
337.993	3.81
338.365	4.08
338.736	4.45
339.108	3.93
339.479	3.74
339.851	3.33
340.222	3.53
340.593	3.33
340.964	3.46
341.336	3.9
341.707	3.79
342.078	3.91
342.449	3.78
342.82	3.81
343.191	3.11
343.562	3.76
343.933	3.68
344.303	3.63
344.674	4.1
345.045	3.68
345.416	3.42
345.786	3.62
346.157	4.05
346.527	3.25
346.898	3.46
347.268	3.31
347.639	3.77
348.009	3.86
348.38	3.8
348.75	3.96
349.12	3.75
349.49	4.04
349.861	4.04
350.231	3.61
350.601	3.79
350.971	3.46
351.341	3.47
351.711	3.97
352.081	3.87
352.45	3.4
352.82	3.99
353.19	3.92
353.56	3.6
353.929	3.65
354.299	3.67
354.669	3.94
355.038	3.74
355.408	3.54
355.777	3.95
356.147	3.73
356.516	3.78
356.885	3.41
357.254	4.11
357.624	3.65
357.993	3.64
358.362	3.95
358.731	3.43
359.1	3.69
359.469	3.8
359.838	3.73
360.207	3.56
360.576	3.93
360.945	3.69
361.314	4.23
361.682	3.91
362.051	3.65
362.42	3.65
362.788	3.55
363.157	3.69
363.525	3.65
363.894	3.88
364.262	3.63
364.631	3.58
364.999	3.46
365.367	3.94
365.735	3.86
366.104	3.55
366.472	3.97
366.84	3.8
367.208	4.31
367.576	4.18
367.944	3.81
368.312	4.2
368.68	3.87
369.048	4.05
369.416	3.82
369.783	3.85
370.151	3.77
370.519	3.85
370.886	3.76
371.254	4.01
371.621	3.6
371.989	3.9
372.356	3.79
372.724	4.23
373.091	3.82
373.458	3.8
373.826	4.06
374.193	3.97
374.56	3.93
374.927	3.86
375.294	3.85
375.661	3.86
376.028	3.9
376.395	3.95
376.762	3.37
377.129	4.2
377.496	4.23
377.863	3.93
378.229	4.07
378.596	4.22
378.963	4.05
379.329	3.82
379.696	4.31
380.062	3.96
380.429	4.13
380.795	3.85
381.161	3.85
381.528	3.97
381.894	3.51
382.26	3.5
382.626	4.04
382.993	4.04
383.359	3.76
383.725	3.79
384.091	3.9
384.457	3.77
384.823	3.72
385.188	4.1
385.554	3.75
385.92	4.05
386.286	4.05
386.651	3.77
387.017	3.87
387.383	3.63
387.748	3.86
388.114	3.83
388.479	3.86
388.845	3.8
389.21	3.66
389.575	3.97
389.94	3.79
390.306	3.95
390.671	4.18
391.036	3.76
391.401	3.92
391.766	3.88
392.131	3.89
392.496	3.82
392.861	3.77
393.226	4.2
393.591	4.24
393.956	3.8
394.32	3.94
394.685	3.85
395.05	4.21
395.414	4.14
395.779	4.02
396.143	3.88
396.508	4.04
396.872	4
397.236	4.04
397.601	3.79
397.965	4.11
398.329	4.04
398.694	3.9
399.058	4.04
399.422	3.99
399.786	4.2
400.15	4
400.514	4.12
400.878	3.79
401.242	4.1
401.605	3.96
401.969	3.5
402.333	4.07
402.697	4.04
403.06	3.94
403.424	3.93
403.787	4.26
404.151	4.06
404.514	4.26
404.878	4.07
405.241	4.35
405.604	4.05
405.968	3.98
406.331	4
406.694	3.96
407.057	3.73
407.42	4.08
407.783	3.9
408.146	4.16
408.509	4
408.872	3.99
409.235	4.12
409.598	3.99
409.961	4.22
410.323	3.94
410.686	4.09
411.049	4.28
411.411	4.25
411.774	4.15
412.136	4.01
412.499	3.94
412.861	4.32
413.223	4.13
413.586	4.09
413.948	3.95
414.31	4.36
414.672	4.08
415.035	4.12
415.397	4.12
415.759	4.36
416.121	3.8
416.483	4.3
416.845	3.93
417.206	4
417.568	4.05
417.93	4.05
418.292	3.98
418.653	3.99
419.015	3.98
419.377	3.94
419.738	4.05
420.1	3.84
420.461	3.94
420.822	4.02
421.184	4.07
421.545	3.95
421.906	3.92
422.267	3.84
422.629	3.97
422.99	3.91
423.351	3.88
423.712	3.98
424.073	3.88
424.434	3.97
424.795	3.99
425.155	3.99
425.516	3.97
425.877	3.96
426.238	3.87
426.598	3.91
426.959	4.08
427.32	4.05
427.68	3.93
428.041	4.11
428.401	4.11
428.761	4.22
429.122	4.11
429.482	4.13
429.842	3.94
430.202	3.93
430.563	3.99
430.923	4.16
431.283	4.26
431.643	4.21
432.003	4.12
432.363	4.32
432.722	4.14
433.082	4.24
433.442	3.99
433.802	4.37
434.161	4.15
434.521	4.17
434.881	4.17
435.24	4.05
435.6	4.07
435.959	4.03
436.319	4.1
436.678	4.32
437.037	4.27
437.396	4.18
437.756	4.2
438.115	4.37
438.474	4.13
438.833	4.21
439.192	4.08
439.551	4.07
439.91	4.29
440.269	4.36
440.628	4
440.987	4.15
441.345	4.25
441.704	4.16
442.063	4.1
442.421	4.03
442.78	4.08
443.138	4.16
443.497	4.01
443.855	4.15
444.214	3.92
444.572	4.22
444.93	4.3
445.288	4.22
445.647	4.17
446.005	4.16
446.363	4.19
446.721	4.31
447.079	4.08
447.437	4.16
447.795	4.19
448.153	4.03
448.51	4.07
448.868	4.1
449.226	4.02
449.584	4.19
449.941	3.95
450.299	4.12
450.656	4.19
451.014	4.27
451.371	4.21
451.729	4.16
452.086	4.14
452.443	4.2
452.801	4.25
453.158	4.19
453.515	4.37
453.872	4.3
454.229	4.3
454.586	4.37
454.943	4.23
455.3	4.32
455.657	4.2
456.014	4.18
456.371	4.29
456.727	4.38
457.084	4.33
457.441	4.08
457.797	4.23
458.154	4.38
458.51	4.32
458.867	4.35
459.223	4.27
459.58	4.41
459.936	4.37
460.292	4.21
460.648	4.39
461.005	4.39
461.361	4.38
461.717	4.04
462.073	4.21
462.429	4.11
462.785	4.12
463.141	4.28
463.496	4.37
463.852	4.3
464.208	4.35
464.564	4.32
464.919	4.31
465.275	4.48
465.631	4.43
465.986	4.23
466.342	4.36
466.697	4.45
467.052	4.37
467.408	4.5
467.763	4.44
468.118	4.53
468.473	4.27
468.829	4.22
469.184	4.37
469.539	4.27
469.894	4.46
470.249	4.41
470.603	4.38
470.958	4.38
471.313	4.42
471.668	4.41
472.023	4.44
472.377	4.42
472.732	4.47
473.086	4.55
473.441	4.14
473.795	4.55
474.15	4.27
474.504	4.27
474.859	4.42
475.213	4.13
475.567	4.23
475.921	4.38
476.275	4.39
476.63	4.32
476.984	4.32
477.338	4.53
477.692	4.44
478.045	4.46
478.399	4.5
478.753	4.41
479.107	4.41
479.461	4.35
479.814	4.49
480.168	4.55
480.521	4.57
480.875	4.52
481.228	4.49
481.582	4.28
481.935	4.39
482.289	4.34
482.642	4.4
482.995	4.4
483.348	4.45
483.701	4.46
484.055	4.35
484.408	4.29
484.761	4.39
485.114	4.29
485.466	4.22
485.819	4.08
486.172	4.08
486.525	4.12
486.878	4.15
487.23	4.23
487.583	4.27
487.936	4.34
488.288	4.4
488.641	4.34
488.993	4.27
489.345	4.27
489.698	4.29
490.05	4.21
490.402	4.29
490.754	4.26
491.107	4.24
491.459	4.41
491.811	4.41
492.163	4.35
492.515	4.35
492.866	4.38
493.218	4.4
493.57	4.36
493.922	4.22
494.274	4.36
494.625	4.37
494.977	4.48
495.328	4.57
495.68	4.58
496.031	4.44
496.383	4.61
496.734	4.6
497.086	4.43
497.437	4.7
497.788	4.49
498.139	4.71
498.49	4.72
498.842	4.5
499.193	4.48
499.544	4.61
499.894	4.48
500.245	4.5
500.596	4.6
500.947	4.69
501.298	4.71
501.648	4.7
501.999	4.79
502.35	4.69
502.7	4.72
503.051	4.69
503.401	4.71
503.752	4.75
504.102	4.66
504.452	4.57
504.803	4.73
505.153	4.68
505.503	4.66
505.853	4.83
506.203	4.64
506.553	4.7
506.903	4.75
507.253	4.7
507.603	4.8
507.953	4.85
508.303	4.74
508.652	4.69
509.002	4.79
509.352	4.68
509.701	4.87
510.051	4.79
510.4	4.78
510.75	4.8
511.099	4.53
511.449	4.71
511.798	4.8
512.147	4.78
512.496	4.73
512.846	4.77
513.195	4.83
513.544	4.87
513.893	4.84
514.242	4.8
514.591	4.8
514.939	4.85
515.288	4.78
515.637	4.83
515.986	4.8
516.334	4.84
516.683	4.93
517.032	5.1
517.38	4.99
517.729	4.88
518.077	5.06
518.426	4.85
518.774	4.82
519.122	4.91
519.47	4.93
519.819	4.92
520.167	4.9
520.515	4.91
520.863	4.87
521.211	4.81
521.559	4.87
521.907	4.95
522.255	4.94
522.602	4.98
522.95	4.91
523.298	4.97
523.645	5.01
523.993	5
524.341	5.03
524.688	5.08
525.036	5.18
525.383	5.15
525.73	5.13
526.078	5.07
526.425	5.13
526.772	5.29
527.119	4.98
527.466	4.99
527.814	4.97
528.161	4.91
528.508	4.98
528.854	5.02
529.201	4.99
529.548	5.04
529.895	4.99
530.242	4.92
530.588	4.85
530.935	4.79
531.282	4.82
531.628	4.92
531.975	4.95
532.321	4.99
532.667	4.99
533.014	5.05
533.36	5.15
533.706	5.12
534.052	5.27
534.399	5.19
534.745	5.18
535.091	5.1
535.437	5.04
535.783	5.02
536.129	5.12
536.474	5.19
536.82	5.11
537.166	5.31
537.512	5.29
537.857	5.26
538.203	5.44
538.549	5.21
538.894	5.21
539.239	5.19
539.585	5.24
539.93	5.42
540.276	5.39
540.621	5.38
540.966	5.42
541.311	5.47
541.656	5.44
542.001	5.5
542.346	5.58
542.691	5.48
543.036	5.38
543.381	5.26
543.726	5.27
544.071	5.32
544.415	5.37
544.76	5.44
545.105	5.31
545.449	5.38
545.794	5.5
546.138	5.49
546.483	5.53
546.827	5.53
547.171	5.63
547.516	5.64
547.86	5.72
548.204	5.68
548.548	5.66
548.892	5.78
549.236	5.59
549.58	5.64
549.924	5.77
550.268	5.79
550.612	5.88
550.956	5.86
551.3	5.84
551.643	6
551.987	5.78
552.33	6.12
552.674	5.9
553.017	5.9
553.361	5.93
553.704	6.23
554.048	6.09
554.391	6.06
554.734	6.18
555.077	5.95
555.42	5.92
555.764	5.94
556.107	6.05
556.45	6.08
556.793	6.13
557.135	6.11
557.478	5.94
557.821	6.19
558.164	6.32
558.507	6.22
558.849	6.1
559.192	6.41
559.534	6.48
559.877	6.37
560.219	6.45
560.562	6.23
560.904	6.56
561.246	6.65
561.589	6.4
561.931	6.28
562.273	6.17
562.615	6.32
562.957	6.35
563.299	6.5
563.641	6.4
563.983	6.68
564.325	6.55
564.667	6.56
565.008	6.46
565.35	6.76
565.692	6.55
566.033	6.61
566.375	6.73
566.716	6.58
567.058	6.63
567.399	6.72
567.741	6.68
568.082	6.54
568.423	6.82
568.764	6.88
569.105	6.56
569.447	6.9
569.788	6.6
570.129	6.88
570.47	7.05
570.811	6.99
571.151	6.9
571.492	6.8
571.833	6.69
572.174	7.07
572.514	7.14
572.855	6.93
573.195	6.87
573.536	7.1
573.876	7.08
574.217	7.04
574.557	7.01
574.898	7.15
575.238	7.02
575.578	7.19
575.918	7.22
576.258	7.08
576.598	7.4
576.938	7.24
577.278	7.4
577.618	7.17
577.958	7.27
578.298	7.41
578.638	7.33
578.977	7.35
579.317	7.4
579.657	7.53
579.996	7.59
580.336	7.55
580.675	7.68
581.014	7.38
581.354	7.63
581.693	7.63
582.032	7.64
582.372	7.66
582.711	7.77
583.05	7.35
583.389	7.5
583.728	7.76
584.067	7.85
584.406	7.87
584.745	7.66
585.083	8.04
585.422	8.02
585.761	7.84
586.1	7.87
586.438	7.8
586.777	8.03
587.115	8.1
587.454	8.08
587.792	7.99
588.13	8.11
588.469	7.84
588.807	8.21
589.145	8.29
589.483	8.34
589.821	8.27
590.159	8.19
590.497	8.45
590.835	8.25
591.173	8.26
591.511	8.22
591.849	8.47
592.187	8.46
592.524	8.47
592.862	8.59
593.2	8.49
593.537	8.25
593.875	8.52
594.212	8.57
594.55	8.92
594.887	8.53
595.224	8.51
595.561	8.85
595.899	8.75
596.236	8.98
596.573	9.1
596.91	8.81
597.247	8.68
597.584	9.05
597.921	8.9
598.258	8.94
598.594	8.82
598.931	8.93
599.268	8.89
599.604	8.98
599.941	9.02
600.277	8.75
600.614	8.91
600.95	9.15
601.287	9.25
601.623	9.05
601.959	9.3
602.296	9.3
602.632	9.19
602.968	9.15
603.304	9.25
603.64	9.21
603.976	9.42
604.312	9.25
604.648	9.34
604.984	9.46
605.319	9.39
605.655	9.36
605.991	9.34
606.326	9.47
606.662	9.41
606.998	9.4
607.333	9.69
607.668	9.47
608.004	9.64
608.339	9.58
608.674	9.57
609.01	9.75
609.345	10.07
609.68	9.76
610.015	9.98
610.35	9.89
610.685	9.87
611.02	9.99
611.355	10.13
611.689	9.81
612.024	9.94
612.359	10.01
612.694	10.03
613.028	10
613.363	9.94
613.697	9.88
614.032	10.11
614.366	10.26
614.7	10.28
615.035	10.38
615.369	10.2
615.703	10.23
616.037	10.61
616.371	10.45
616.705	10.74
617.039	10.67
617.373	10.49
617.707	10.65
618.041	10.68
618.375	10.73
618.709	10.74
619.042	11.34
619.376	10.75
619.71	11.02
620.043	10.53
620.377	10.6
620.71	10.76
621.043	11.05
621.377	10.65
621.71	11.29
622.043	11.12
622.376	11.47
622.709	11.14
623.043	10.81
623.376	10.91
623.709	11.09
624.041	11.27
624.374	11.32
624.707	11.48
625.04	11.26
625.373	10.92
625.705	11.34
626.038	11.06
626.37	11.6
626.703	11.55
627.035	11.6
627.368	11.64
627.7	11.73
628.032	11.59
628.365	11.84
628.697	11.87
629.029	11.59
629.361	11.75
629.693	11.63
630.025	12.07
630.357	11.52
630.689	11.88
631.021	11.79
631.353	11.82
631.684	11.7
632.016	12.19
632.348	12.04
632.679	11.92
633.011	11.89
633.342	12.06
633.674	12.17
634.005	11.71
634.336	11.85
634.668	12.1
634.999	12.14
635.33	12.4
635.661	12.46
635.992	12.24
636.323	12.26
636.654	12.13
636.985	12.25
637.316	12.28
637.647	12.75
637.977	11.98
638.308	12.51
638.639	12.73
638.969	12.55
639.3	12.64
639.63	13.01
639.961	12.25
640.291	12.65
640.622	12.84
640.952	12.66
641.282	13.04
641.612	13.11
641.943	12.7
642.273	12.76
642.603	13.09
642.933	12.99
643.263	12.65
643.592	12.75
643.922	13.34
644.252	13.08
644.582	13.16
644.911	12.89
645.241	13.62
645.571	13.13
645.9	13.23
646.23	13.76
646.559	13.54
646.888	13.59
647.218	13.08
647.547	13.53
647.876	13.47
648.205	13.33
648.534	13.86
648.863	13.46
649.192	13.36
649.521	13.68
649.85	13.6
650.179	13.44
650.508	13.67
650.837	14.2
651.165	14.11
651.494	13.77
651.822	13.79
652.151	13.29
652.479	13.77
652.808	13.87
653.136	14.63
653.465	13.98
653.793	14.04
654.121	14.04
654.449	13.36
654.777	14.03
655.105	14.62
655.433	14.17
655.761	14.86
656.089	14.14
656.417	14.47
656.745	14.68
657.073	14.22
657.4	14.43
657.728	14.53
658.056	14.55
658.383	14.75
658.711	14.48
659.038	14.67
659.365	14.91
659.693	14.7
660.02	14.92
660.347	14.67
660.674	14.34
661.001	14.63
661.329	14.62
661.656	14.9
661.982	14.49
662.309	14.99
662.636	15.25
662.963	14.94
663.29	15.07
663.616	14.91
663.943	14.95
664.27	15.22
664.596	15.71
664.923	15.25
665.249	15.82
665.576	14.56
665.902	14.85
666.228	15.19
666.554	14.87
666.881	15.47
667.207	15.27
667.533	15.43
667.859	15.13
668.185	15.75
668.511	15.92
668.837	15.17
669.162	15.96
669.488	15.74
669.814	15.71
670.139	15.45
670.465	16.33
670.791	15.81
671.116	16.2
671.442	16.27
671.767	15.45
672.092	16.15
672.418	16.4
672.743	16.3
673.068	15.92
673.393	15.12
673.718	15.93
674.043	16.31
674.368	16.17
674.693	15.35
675.018	16.25
675.343	16.71
675.667	16.16
675.992	16.48
676.317	16.56
676.641	16.32
676.966	16.85
677.29	16.75
677.615	16.74
677.939	16.55
678.264	16.56
678.588	17.17
678.912	16.6
679.236	16.39
679.56	16.42
679.885	16.07
680.209	17.76
680.532	16.49
680.856	16.17
681.18	16.78
681.504	17.39
681.828	17.44
682.152	16.8
682.475	17.37
682.799	17.28
683.122	17.1
683.446	17.15
683.769	17.28
684.093	17.39
684.416	17.04
684.739	16.87
685.062	17.99
685.386	17.15
685.709	17.17
686.032	16.68
686.355	17.37
686.678	16.89
687.001	17.73
687.324	18.47
687.646	17.9
687.969	18.32
688.292	17.37
688.614	18.08
688.937	17.86
689.26	17.64
689.582	17.6
689.904	17.08
690.227	17.93
690.549	18
690.871	18.17
691.194	18.38
691.516	18.41
691.838	18.4
692.16	18.72
692.482	18.53
692.804	18.01
693.126	17.73
693.448	18.47
693.769	18.4
694.091	18.92
694.413	19.1
694.735	19.05
695.056	19.09
695.378	17.82
695.699	17.77
696.021	17.44
696.342	18.69
696.663	18.14
696.984	18.28
697.306	18.56
697.627	18.19
697.948	18.36
698.269	18.65
698.59	18.43
698.911	18.47
699.232	19.58
699.553	18.84
699.873	19.3
700.194	18.3
700.515	18.23
700.835	18.97
701.156	19.31
701.477	19
701.797	18.67
702.117	19.4
702.438	18.69
702.758	18.9
703.078	19.87
703.398	19.35
703.719	19.25
704.039	20.06
704.359	19.43
704.679	19.32
704.999	20.26
705.319	19.42
705.638	19.13
705.958	20.29
706.278	20.79
706.597	19.91
706.917	20.15
707.237	20.46
707.556	18.88
707.876	19.32
708.195	19.95
708.514	20.78
708.834	19.5
709.153	20.21
709.472	19.97
709.791	19.8
710.11	19.42
710.429	21.36
710.748	20.33
711.067	20.35
711.386	19.69
711.705	19.33
712.023	20.97
712.342	21.22
712.661	19.76
712.979	20.59
713.298	21.87
713.616	21.22
713.935	21.03
714.253	21.52
714.572	21.52
714.89	21
715.208	20.44
715.526	20.45
715.844	20.9
716.162	20.32
716.48	21.61
716.798	20.33
717.116	20.64
717.434	20.82
717.752	21.3
718.069	19.91
718.387	20.74
718.705	21.48
719.022	21.73
719.34	21.79
719.657	19.97
719.975	23.43
720.292	22.17
720.609	21.32
720.927	21.59
721.244	21.12
721.561	22.57
721.878	22.14
722.195	21.01
722.512	20.99
722.829	22.73
723.146	20.85
723.463	22.74
723.779	21.4
724.096	20.61
724.413	23.42
724.729	22.28
725.046	22.83
725.362	23.1
725.679	21.24
725.995	22.44
726.311	21.93
726.628	20.83
726.944	20.65
727.26	21.94
727.576	22.71
727.892	21.43
728.208	22.48
728.524	22.86
728.84	21.86
729.156	22.05
729.472	23.64
729.787	23.16
730.103	22.3
730.419	23.09
730.734	23.12
731.05	21.1
731.365	22.07
731.681	23.22
731.996	23.93
732.311	24.68
732.626	22.72
732.942	23.42
733.257	21.73
733.572	21.38
733.887	23.04
734.202	24.13
734.517	23.97
734.832	23.1
735.146	23.66
735.461	23.66
735.776	22.7
736.091	23.85
736.405	22.09
736.72	22.44
737.034	22.75
737.349	22.89
737.663	22.6
737.977	24.15
738.292	22.21
738.606	21.98
738.92	23.38
739.234	23.71
739.548	24.04
739.862	22.88
740.176	24.42
740.49	23.57
740.804	24.17
741.117	23.38
741.431	22.45
741.745	25.37
742.058	24.1
742.372	21.8
742.685	22.7
742.999	24.67
743.312	25.48
743.626	25.14
743.939	23.22
744.252	24.95
744.565	23.61
744.878	23.39
745.191	23.73
745.505	24.09
745.817	23.88
746.13	26.72
746.443	26.48
746.756	24
747.069	26.74
747.381	25.62
747.694	24.03
748.007	24.79
748.319	25.29
748.632	24.16
748.944	26.11
749.256	27.8
749.569	25.58
749.881	25.41
750.193	25.59
750.505	24.06
750.817	25.34
751.129	26.9
751.441	25.7
751.753	27.75
752.065	27.93
752.377	25.72
752.689	24.96
753	26.28
753.312	25.17
753.624	25.47
753.935	25.91
754.247	26.49
754.558	27.02
754.869	26.01
755.181	25.01
755.492	25.06
755.803	28.48
756.114	25.97
756.425	27.79
756.736	25.26
757.047	26.3
757.358	26.11
757.669	24.06
757.98	26.37
758.291	26.89
758.601	26.07
758.912	25.94
759.223	28.16
759.533	27.5
759.844	27.76
760.154	26.69
760.464	27.04
760.775	27.37
761.085	29.22
761.395	28.73
761.705	25.03
762.016	26.3
762.326	26.69
762.636	27.15
762.945	26.93
763.255	26.48
763.565	24.99
763.875	27.63
764.185	28.19
764.494	28.06
764.804	25.82
765.113	28.28
765.423	27.5
765.732	26.74
766.042	28.24
766.351	27.69
766.66	27.46
766.97	27.5
767.279	27.71
767.588	27.31
767.897	28.14
768.206	29.64
768.515	28.45
768.824	28.21
769.133	29.88
769.441	29.34
769.75	28.94
770.059	29.81
770.367	27.86
770.676	28.97
770.984	28.9
771.293	27.59
771.601	30.22
771.91	31.06
772.218	27.42
772.526	28.08
772.834	26.44
773.142	27.4
773.45	30.86
773.758	28.84
774.066	29.11
774.374	26.17
774.682	27.43
774.99	26.19
775.298	27.14
775.605	27.47
775.913	34.56
776.22	28.85
776.528	25.72
776.835	27.76
777.143	28.51
777.45	27.64
777.757	29.23
778.065	26.81
778.372	29.51
778.679	29.82
778.986	28.64
779.293	28.63
779.6	27.44
779.907	30.43
780.214	35.7
780.52	28.23
780.827	28.75
781.134	29.11
781.44	33.64
781.747	32.13
782.053	26.37
782.36	29.93
782.666	28.16
782.973	29.9
783.279	29.86
783.585	31.46
783.891	31.64
784.197	32.99
784.503	33.61
784.809	31.69
785.115	28.22
785.421	29.45
785.727	30.58
786.033	33.6
786.339	29.64
786.644	31.36
786.95	30.23
787.255	34.66
787.561	36.86
787.866	30.76
788.172	29.49
788.477	33.05
788.782	28.93
789.088	30
789.393	29.84
789.698	32.17
790.003	29.85
790.308	28.51
790.613	34.78
790.918	31.82
791.223	32.15
791.527	27.98
791.832	32.06
792.137	29.79
792.441	32.12
792.746	32.93
793.05	30.1
793.355	31.79
793.659	30.79
793.963	34.74
794.268	31.08
794.572	29.82
794.876	31.44
795.18	31.22
795.484	29.09
795.788	30.1
796.092	31.6
796.396	33.52
796.7	27.1
797.004	31.66
797.307	28.5
797.611	27.1
797.915	29.93
798.218	34.99
798.522	31.91
798.825	32.57
799.128	35.29
799.432	33.2
799.735	30.6
800.038	32.9
800.341	35.18
800.644	36.76
800.947	31.59
801.25	32.92
801.553	37.29
801.856	36.85
802.159	34.44
802.462	29.86
802.764	31.55
803.067	33.16
803.37	33.67
803.672	31.08
803.975	32.51
804.277	38.39
804.579	34.24
804.882	38.21
805.184	35.06
805.486	30.48
805.788	39.84
806.09	36.7
806.392	34.11
806.694	33.83
806.996	28.86
807.298	34.53
807.6	34.26
807.902	31.6
808.203	30.78
808.505	37.71
808.807	36.62
809.108	33.02
809.409	40.13
809.711	35.1
810.012	38.99
810.313	37.37
810.615	36.68
810.916	36.71
811.217	32.84
811.518	31.73
811.819	35.66
812.12	35.85
812.421	30.07
812.722	31.57
813.023	29.86
813.323	33
813.624	32.82
813.925	36.85
814.225	37.7
814.526	33.62
814.826	40.01
815.126	34.36
815.427	32.83
815.727	27.45
816.027	34.69
816.327	31.61
816.627	37.48
816.927	38.16
817.227	33.48
817.527	32.29
817.827	38.96
818.127	32.03
818.427	42.59
818.727	35.37
819.026	34.28
819.326	33.67
819.625	34.02
819.925	36.19
820.224	33.97
820.524	35.01
820.823	30
821.122	29.89
821.421	37.88
821.72	38.86
822.019	35.92
822.318	30.9
822.617	36.52
822.916	37.52
823.215	37.73
823.514	38.04
823.813	38.26
824.111	40.49
824.41	35.72
824.709	33.24
825.007	36.1
825.306	35.92
825.604	34.4
825.902	35.1
826.201	37.34
826.499	35.32
826.797	36.49
827.095	37.63
827.393	35.69
827.691	36.32
827.989	36.4
828.287	35.26
828.585	37.01
828.882	36.76
829.18	36.97
829.478	36.54
829.775	35.27
830.073	34.63
830.37	36.49
830.668	35.04
830.965	36.83
831.263	36.5
831.56	35.56
831.857	37.57
832.154	37.24
832.451	38.53
832.748	38.83
833.045	35.21
833.342	39.58
833.639	39.6
833.936	42.45
834.232	37.33
834.529	40.06
834.826	38.65
835.122	39.96
835.419	35.62
835.715	37.1
836.012	39.19
836.308	41.57
836.604	39.08
836.901	33.7
837.197	40.51
837.493	42.17
837.789	41.94
838.085	37.78
838.381	35.46
838.677	37.15
838.972	41.06
839.268	40.02
839.564	41.34
839.86	41.4
840.155	43.05
840.451	36.3
840.746	40.89
841.042	47.69
841.337	46.07
841.632	35.74
841.928	38.06
842.223	43.82
842.518	39.99
842.813	38.95
843.108	34.37
843.403	35.22
843.698	44.09
843.993	43.77
844.287	34.76
844.582	38.31
844.877	39.38
845.171	41.45
845.466	33.93
845.761	37.6
846.055	41.88
846.349	46.06
846.644	45.77
846.938	29.86
847.232	35.15
847.526	43.83
847.82	38.97
848.114	54.13
848.408	36.33
848.702	31.22
848.996	41.62
849.29	41.8
849.584	43.59
849.877	36.86
850.171	32.21
850.465	45.6
850.758	36.73
851.052	37.53
851.345	47.08
851.638	53.49
851.932	57.87
852.225	50.44
852.518	53.1
852.811	38.08
853.104	50.8
853.397	50.65
853.69	31.08
853.983	34.29
854.276	52.55
854.569	31.14
854.861	23.33
855.154	43.1
855.447	33.1
855.739	25.08
856.032	32.55
856.324	51.36
856.616	51.65
856.909	47.55
857.201	23.79
857.493	19.12
857.785	49.49
858.077	47.73
858.369	37.63
858.661	52.58
858.953	37.92
859.245	47.37
859.537	26.23
859.829	66.18
860.12	50.82
860.412	33.59
860.703	69.65
860.995	41.26
861.286	66.94
861.578	47.28
861.869	48.8
862.16	48.27
862.452	31.91
862.743	60.95
863.034	51.07
863.325	54.11
863.616	23.19
863.907	45.73
864.198	28.44
864.488	45.32
864.779	40.34
865.07	37.13
865.36	31.8
865.651	48.16
865.941	12.54
866.232	52.17
866.522	48.65
866.813	34.01
867.103	51.47
867.393	31.9
867.683	62.86
867.973	45.27
868.263	59.85
868.553	43.75
868.843	27.3
869.133	38.37
869.423	53.02
869.713	38.49
870.002	58.09
870.292	45.46
870.582	43.06
870.871	34.06
871.161	23.76
871.45	28.37
871.739	60.48
872.029	48.36
872.318	28.64
872.607	45.4
872.896	67.67
873.185	53.61
873.474	34.35
873.763	49.21
874.052	35.38
874.341	37.66
874.63	51.5
874.918	48.23
875.207	77.22
875.496	47.3
875.784	45.4
876.073	21.53
876.361	44.52
876.649	34.84
876.938	47.13
877.226	59.44
877.514	56.15
877.802	14.31
878.09	58.74
878.378	37.02
878.666	43.83
878.954	33.1
879.242	74.16
879.53	79.81
879.817	33.46
880.105	21.3
880.392	52.79
880.68	52.2
880.967	49.69
881.255	35.51
881.542	51.84
881.83	56.24
882.117	38.05
882.404	62.5
882.691	42.93
882.978	30.75
883.265	36.41
883.552	37.85
883.839	26.75
884.126	62.71
884.413	50.82
884.699	58.42
884.986	46.19
885.273	53.95
885.559	53.95
885.846	53.95
