Data from 0188_crown_Reflection__4__151.txt Node

Date: Fri Sep 22 21:29:20 CDT 2023
User: ToomeyLab
Spectrometer: FLMS14357
Trigger mode: 0
Integration Time (sec): 1.000000E-2
Scans to average: 100
Electric dark correction enabled: true
Nonlinearity correction enabled: false
Boxcar width: 0
XAxis mode: Wavelengths
Number of Pixels in Spectrum: 2048
>>>>>Begin Spectral Data<<<<<
189.047	-397.19
189.435	-397.19
189.823	-397.19
190.211	15.73
190.599	305.71
190.987	38.71
191.375	131.55
191.763	-992.02
192.151	1463.59
192.538	31.85
192.926	390.81
193.314	234.75
193.702	70.04
194.089	78.17
194.477	587.03
194.864	63.86
195.252	113.93
195.639	0.79
196.027	-136.99
196.414	-48.82
196.801	-26.18
197.189	646.43
197.576	84.96
197.963	-14.81
198.351	51.88
198.738	-6.14
199.125	6.27
199.512	33.74
199.899	81.61
200.286	35.39
200.673	29.92
201.06	16.71
201.447	73.35
201.833	65.09
202.22	50.96
202.607	93.4
202.994	32.56
203.38	23.18
203.767	53.25
204.154	34.12
204.54	62.29
204.927	-22.43
205.313	34.9
205.699	71.01
206.086	65.79
206.472	52.96
206.858	44.9
207.245	34.82
207.631	66.84
208.017	39.35
208.403	26.52
208.789	30.48
209.175	34.59
209.561	48.19
209.947	53.09
210.333	56.71
210.719	5.43
211.105	32.87
211.491	34.57
211.876	77.96
212.262	20.05
212.648	21.1
213.034	25.19
213.419	19.27
213.805	16.27
214.19	30.96
214.576	26.21
214.961	27.88
215.346	16.16
215.732	37.29
216.117	12.26
216.502	45.54
216.888	27.02
217.273	37.82
217.658	7.51
218.043	-5.02
218.428	33.99
218.813	-14.35
219.198	25.83
219.583	30.67
219.968	-9.2
220.353	40.94
220.738	26.88
221.122	-2.63
221.507	26.76
221.892	15.13
222.276	7.54
222.661	9.1
223.046	34.69
223.43	20.61
223.815	8.6
224.199	-1.18
224.583	17.41
224.968	24.53
225.352	7.39
225.736	13.98
226.121	13.47
226.505	7.69
226.889	18.46
227.273	8.12
227.657	12.32
228.041	12.87
228.425	13.8
228.809	5.58
229.193	5.01
229.577	10.19
229.961	11.09
230.344	10.93
230.728	5.31
231.112	7.81
231.495	7.13
231.879	6.63
232.263	6.42
232.646	6.87
233.03	5
233.413	7.68
233.797	7.1
234.18	7.01
234.563	7.7
234.946	8.01
235.33	5.77
235.713	5.36
236.096	5.96
236.479	6.36
236.862	8.15
237.245	7.54
237.628	8.69
238.011	7.69
238.394	8.22
238.777	8.14
239.16	6.6
239.543	7.13
239.925	6.31
240.308	7.78
240.691	7.88
241.073	7.58
241.456	7.64
241.838	6.99
242.221	7.37
242.603	6.56
242.986	6.22
243.368	5.26
243.75	6.71
244.133	6.6
244.515	5.83
244.897	5.61
245.279	5.39
245.661	5.81
246.043	6.39
246.425	5.02
246.807	6.57
247.189	3.39
247.571	6.14
247.953	6.68
248.335	5.61
248.717	6.34
249.098	5.84
249.48	5.48
249.862	5.64
250.243	5.74
250.625	6.26
251.006	5.09
251.388	5.75
251.769	5.98
252.151	5.55
252.532	5.3
252.913	6.53
253.295	6.88
253.676	6.38
254.057	5.84
254.438	6.29
254.819	5.49
255.2	5.83
255.581	6.04
255.962	6.27
256.343	5.02
256.724	5.37
257.105	5.57
257.486	6.54
257.867	5.87
258.247	7.31
258.628	6.36
259.009	5.32
259.389	5.64
259.77	6.67
260.15	5.71
260.531	5.46
260.911	5.53
261.292	4.74
261.672	5.3
262.052	5.07
262.432	5.17
262.813	5.31
263.193	4.88
263.573	6.1
263.953	5.04
264.333	5.45
264.713	4.9
265.093	4.81
265.473	5.12
265.853	5.41
266.233	5.25
266.612	5.21
266.992	5.19
267.372	4.94
267.752	5.56
268.131	4.26
268.511	5
268.89	5.12
269.27	4.9
269.649	5.2
270.029	5.46
270.408	5.35
270.787	5.19
271.167	5.6
271.546	4.48
271.925	4.73
272.304	4.27
272.683	5.06
273.062	5.21
273.441	4.77
273.82	5.31
274.199	5.14
274.578	4.9
274.957	4.7
275.336	4.97
275.715	5.02
276.093	4.62
276.472	4.49
276.851	4.74
277.229	4.45
277.608	4.89
277.986	5.15
278.365	4.97
278.743	5.43
279.122	5.31
279.5	4.95
279.878	4.16
280.257	4.9
280.635	4.8
281.013	5.48
281.391	4.17
281.769	5.13
282.147	4.64
282.525	4.86
282.903	4.79
283.281	5.09
283.659	4.88
284.037	4.29
284.415	4.97
284.792	4.51
285.17	5.09
285.548	5.01
285.925	4.81
286.303	4.78
286.68	4.52
287.058	4.5
287.435	4.51
287.813	4.45
288.19	3.89
288.567	4.91
288.945	4.32
289.322	4.7
289.699	4.36
290.076	4.97
290.453	4.07
290.83	4.18
291.207	4.28
291.584	4.2
291.961	4.19
292.338	4.32
292.715	4.39
293.092	4.18
293.469	3.88
293.845	4.26
294.222	4.3
294.599	4.56
294.975	5.35
295.352	4.53
295.728	4.06
296.105	4.51
296.481	4.11
296.858	4.15
297.234	4.29
297.61	4.6
297.986	4.55
298.363	4.21
298.739	4.06
299.115	4.45
299.491	4.31
299.867	4.34
300.243	4.03
300.619	3.64
300.995	4.19
301.371	4.69
301.746	4.64
302.122	4.29
302.498	3.96
302.874	3.61
303.249	4.04
303.625	4.18
304	4.28
304.376	4.6
304.751	4.19
305.127	3.84
305.502	4.35
305.878	4.48
306.253	4.46
306.628	4.35
307.003	4.59
307.378	4.05
307.754	4.24
308.129	3.55
308.504	4.68
308.879	4.19
309.254	4.38
309.629	4.09
310.003	4.31
310.378	4.37
310.753	4.62
311.128	4.44
311.502	4.15
311.877	3.81
312.252	3.7
312.626	4.12
313.001	4.44
313.375	4.25
313.75	4.02
314.124	4.42
314.498	4
314.873	4.15
315.247	3.92
315.621	3.96
315.995	4.13
316.369	3.83
316.743	4.51
317.117	4.62
317.491	4.37
317.865	3.77
318.239	4.1
318.613	4.66
318.987	4.32
319.361	3.73
319.734	4.04
320.108	4.6
320.482	3.85
320.855	4.34
321.229	4.96
321.602	4.3
321.976	3.88
322.349	4.28
322.723	4.19
323.096	4.59
323.469	3.6
323.843	3.9
324.216	3.89
324.589	4.04
324.962	3.58
325.335	3.66
325.708	4.11
326.081	3.66
326.454	3.51
326.827	4.37
327.2	3.99
327.573	5.03
327.945	4.07
328.318	4.49
328.691	4.06
329.063	3.6
329.436	4.51
329.809	4.24
330.181	4.19
330.553	3.5
330.926	4.11
331.298	4.43
331.671	4.11
332.043	3.44
332.415	3.99
332.787	4.68
333.159	3.91
333.532	4.02
333.904	3.85
334.276	3.64
334.648	3.55
335.02	3.92
335.391	4.03
335.763	4.2
336.135	4.1
336.507	4.91
336.879	4.04
337.25	4.15
337.622	4.17
337.993	4.17
338.365	4.25
338.736	4.07
339.108	4.26
339.479	3.72
339.851	3.99
340.222	3.88
340.593	3.98
340.964	3.84
341.336	4.21
341.707	3.7
342.078	4.13
342.449	4.37
342.82	3.55
343.191	3.91
343.562	4.04
343.933	4.05
344.303	3.74
344.674	4.03
345.045	4.29
345.416	4.09
345.786	3.96
346.157	3.68
346.527	4.01
346.898	3.72
347.268	3.83
347.639	3.84
348.009	3.76
348.38	4.31
348.75	4.32
349.12	3.99
349.49	4.25
349.861	4.32
350.231	4.4
350.601	4.07
350.971	3.8
351.341	3.92
351.711	3.78
352.081	3.57
352.45	3.82
352.82	3.85
353.19	4.5
353.56	3.95
353.929	4.05
354.299	4.48
354.669	4.08
355.038	3.93
355.408	3.72
355.777	4.56
356.147	4.11
356.516	4.42
356.885	3.98
357.254	4.67
357.624	3.63
357.993	3.91
358.362	3.98
358.731	3.93
359.1	4.01
359.469	4.05
359.838	3.62
360.207	3.76
360.576	4.23
360.945	3.98
361.314	4.19
361.682	4.13
362.051	4.2
362.42	4.07
362.788	3.83
363.157	4.28
363.525	4.15
363.894	3.91
364.262	4.05
364.631	3.82
364.999	3.69
365.367	4.09
365.735	3.88
366.104	3.93
366.472	4.36
366.84	3.72
367.208	4.32
367.576	4.31
367.944	4.03
368.312	4.1
368.68	4.21
369.048	4.09
369.416	4.1
369.783	4.03
370.151	3.75
370.519	3.96
370.886	4.23
371.254	4.48
371.621	3.89
371.989	4.01
372.356	4.04
372.724	4.47
373.091	4.25
373.458	4.57
373.826	4.45
374.193	4.21
374.56	4.4
374.927	4.29
375.294	3.92
375.661	3.97
376.028	4.29
376.395	4.17
376.762	3.96
377.129	4.4
377.496	4.7
377.863	4.24
378.229	4.44
378.596	4.27
378.963	4.83
379.329	4.32
379.696	4.46
380.062	4.39
380.429	4.27
380.795	4.35
381.161	4.25
381.528	4.26
381.894	3.99
382.26	4.28
382.626	4.31
382.993	4.36
383.359	4.18
383.725	4.26
384.091	4.4
384.457	4.07
384.823	3.98
385.188	4.34
385.554	4.25
385.92	4.77
386.286	4.28
386.651	4.03
387.017	4.23
387.383	4.16
387.748	4.29
388.114	4.22
388.479	4.26
388.845	4.24
389.21	4.28
389.575	4.56
389.94	3.95
390.306	4.4
390.671	4.66
391.036	3.86
391.401	4.29
391.766	4.33
392.131	4.22
392.496	4.33
392.861	4.16
393.226	4.44
393.591	4.51
393.956	4.28
394.32	4.3
394.685	4.08
395.05	4.28
395.414	4.35
395.779	4.39
396.143	4.42
396.508	4.57
396.872	4.17
397.236	4.34
397.601	4.23
397.965	4.77
398.329	4.32
398.694	4.36
399.058	4.4
399.422	4.58
399.786	4.29
400.15	4.55
400.514	4.7
400.878	4.12
401.242	4.53
401.605	4.35
401.969	4.28
402.333	4.5
402.697	4.24
403.06	4.58
403.424	4.22
403.787	4.51
404.151	4.41
404.514	4.79
404.878	4.55
405.241	4.51
405.604	4.39
405.968	4.42
406.331	4.48
406.694	4.44
407.057	4.14
407.42	4.45
407.783	4.37
408.146	4.53
408.509	4.42
408.872	4.58
409.235	4.51
409.598	4.39
409.961	4.32
410.323	4.28
410.686	4.56
411.049	4.66
411.411	4.48
411.774	4.46
412.136	4.44
412.499	4.24
412.861	4.53
413.223	4.68
413.586	4.45
413.948	4.43
414.31	4.52
414.672	4.33
415.035	4.48
415.397	4.61
415.759	4.59
416.121	4.4
416.483	4.39
416.845	4.6
417.206	4.34
417.568	4.5
417.93	4.63
418.292	4.63
418.653	4.45
419.015	4.47
419.377	4.37
419.738	4.47
420.1	4.31
420.461	4.6
420.822	4.35
421.184	4.5
421.545	4.39
421.906	4.34
422.267	4.3
422.629	4.53
422.99	4.36
423.351	4.28
423.712	4.27
424.073	4.33
424.434	4.35
424.795	4.3
425.155	4.56
425.516	4.28
425.877	4.32
426.238	4.3
426.598	4.33
426.959	4.35
427.32	4.48
427.68	4.37
428.041	4.28
428.401	4.57
428.761	4.6
429.122	4.43
429.482	4.51
429.842	4.43
430.202	4.5
430.563	4.63
430.923	4.6
431.283	4.58
431.643	4.61
432.003	4.68
432.363	4.62
432.722	4.69
433.082	4.56
433.442	4.6
433.802	4.8
434.161	4.65
434.521	4.49
434.881	4.58
435.24	4.48
435.6	4.43
435.959	4.47
436.319	4.58
436.678	4.54
437.037	4.61
437.396	4.44
437.756	4.52
438.115	4.57
438.474	4.6
438.833	4.61
439.192	4.55
439.551	4.5
439.91	4.62
440.269	4.73
440.628	4.6
440.987	4.56
441.345	4.6
441.704	4.64
442.063	4.68
442.421	4.57
442.78	4.62
443.138	4.67
443.497	4.5
443.855	4.59
444.214	4.46
444.572	4.68
444.93	4.56
445.288	4.59
445.647	4.71
446.005	4.49
446.363	4.41
446.721	4.7
447.079	4.65
447.437	4.62
447.795	4.66
448.153	4.43
448.51	4.56
448.868	4.52
449.226	4.53
449.584	4.53
449.941	4.54
450.299	4.62
450.656	4.64
451.014	4.73
451.371	4.56
451.729	4.59
452.086	4.52
452.443	4.69
452.801	4.73
453.158	4.65
453.515	4.8
453.872	4.8
454.229	4.69
454.586	4.75
454.943	4.59
455.3	4.68
455.657	4.6
456.014	4.75
456.371	4.87
456.727	4.83
457.084	4.87
457.441	4.78
457.797	4.79
458.154	4.69
458.51	4.7
458.867	4.79
459.223	4.65
459.58	4.91
459.936	4.79
460.292	4.9
460.648	4.88
461.005	4.79
461.361	4.77
461.717	4.55
462.073	4.66
462.429	4.52
462.785	4.56
463.141	4.71
463.496	4.73
463.852	4.79
464.208	4.63
464.564	4.96
464.919	4.7
465.275	4.98
465.631	4.99
465.986	4.79
466.342	4.77
466.697	4.94
467.052	4.78
467.408	4.89
467.763	4.91
468.118	5
468.473	4.88
468.829	4.72
469.184	4.65
469.539	4.75
469.894	4.8
470.249	4.98
470.603	4.84
470.958	4.98
471.313	4.88
471.668	4.94
472.023	4.83
472.377	4.83
472.732	4.86
473.086	4.94
473.441	4.58
473.795	5.05
474.15	4.74
474.504	4.66
474.859	4.89
475.213	4.68
475.567	4.59
475.921	4.89
476.275	4.86
476.63	4.8
476.984	4.75
477.338	4.95
477.692	4.82
478.045	5.13
478.399	4.93
478.753	4.79
479.107	4.66
479.461	4.68
479.814	4.88
480.168	4.89
480.521	4.89
480.875	4.91
481.228	4.83
481.582	4.75
481.935	4.71
482.289	4.81
482.642	4.77
482.995	4.75
483.348	4.9
483.701	4.85
484.055	4.75
484.408	4.76
484.761	4.79
485.114	4.64
485.466	4.55
485.819	4.44
486.172	4.45
486.525	4.44
486.878	4.5
487.23	4.56
487.583	4.61
487.936	4.65
488.288	4.69
488.641	4.7
488.993	4.63
489.345	4.63
489.698	4.52
490.05	4.55
490.402	4.56
490.754	4.54
491.107	4.6
491.459	4.72
491.811	4.7
492.163	4.84
492.515	4.75
492.866	4.77
493.218	4.73
493.57	4.68
493.922	4.49
494.274	4.61
494.625	4.63
494.977	4.72
495.328	4.87
495.68	4.85
496.031	4.84
496.383	4.93
496.734	4.95
497.086	4.85
497.437	4.86
497.788	4.85
498.139	4.77
498.49	5.04
498.842	4.8
499.193	4.8
499.544	4.88
499.894	4.82
500.245	4.96
500.596	4.88
500.947	4.88
501.298	4.85
501.648	5.01
501.999	4.93
502.35	4.92
502.7	5.01
503.051	4.93
503.401	4.87
503.752	4.95
504.102	4.96
504.452	5.01
504.803	4.9
505.153	4.97
505.503	4.94
505.853	5.08
506.203	4.98
506.553	4.9
506.903	4.95
507.253	4.87
507.603	4.97
507.953	4.95
508.303	4.95
508.652	4.97
509.002	4.93
509.352	4.91
509.701	5.03
510.051	4.96
510.4	4.92
510.75	4.96
511.099	4.91
511.449	4.93
511.798	4.98
512.147	4.92
512.496	4.89
512.846	4.88
513.195	4.96
513.544	4.91
513.893	5
514.242	4.88
514.591	4.95
514.939	4.97
515.288	4.82
515.637	4.97
515.986	4.81
516.334	5.04
516.683	4.98
517.032	5.08
517.38	5.04
517.729	4.94
518.077	4.9
518.426	5.09
518.774	5.01
519.122	4.9
519.47	4.92
519.819	4.98
520.167	4.91
520.515	4.83
520.863	4.86
521.211	4.89
521.559	4.85
521.907	4.93
522.255	4.88
522.602	4.86
522.95	4.88
523.298	5.06
523.645	4.97
523.993	5.02
524.341	4.85
524.688	4.98
525.036	5.04
525.383	4.97
525.73	5.09
526.078	5
526.425	5.01
526.772	5.11
527.119	4.87
527.466	4.77
527.814	4.77
528.161	4.74
528.508	4.8
528.854	4.76
529.201	4.93
529.548	4.84
529.895	4.76
530.242	4.68
530.588	4.62
530.935	4.58
531.282	4.62
531.628	4.71
531.975	4.72
532.321	4.74
532.667	4.8
533.014	4.83
533.36	4.84
533.706	4.8
534.052	4.88
534.399	4.91
534.745	4.81
535.091	4.76
535.437	4.65
535.783	4.63
536.129	4.72
536.474	4.79
536.82	4.76
537.166	4.98
537.512	4.96
537.857	4.9
538.203	4.88
538.549	4.75
538.894	4.81
539.239	4.85
539.585	4.86
539.93	4.96
540.276	4.87
540.621	4.85
540.966	4.9
541.311	4.95
541.656	4.72
542.001	5.02
542.346	4.97
542.691	4.84
543.036	4.86
543.381	4.73
543.726	4.68
544.071	4.69
544.415	4.69
544.76	4.7
545.105	4.7
545.449	4.79
545.794	4.85
546.138	4.83
546.483	4.86
546.827	4.79
547.171	4.91
547.516	4.91
547.86	4.87
548.204	4.83
548.548	4.86
548.892	4.96
549.236	4.72
549.58	4.84
549.924	4.9
550.268	5.07
550.612	5.03
550.956	4.95
551.3	5.08
551.643	5.09
551.987	5.07
552.33	5.12
552.674	5.03
553.017	4.98
553.361	4.98
553.704	4.98
554.048	5.08
554.391	5.03
554.734	5.04
555.077	4.94
555.42	4.83
555.764	5
556.107	5.02
556.45	5.07
556.793	5.01
557.135	5.04
557.478	4.85
557.821	5.17
558.164	5.15
558.507	5.18
558.849	4.86
559.192	5.04
559.534	5.27
559.877	5
560.219	5.14
560.562	5.08
560.904	5.2
561.246	5.32
561.589	5.04
561.931	4.95
562.273	4.94
562.615	4.94
562.957	4.97
563.299	5.16
563.641	5.04
563.983	5.19
564.325	5.11
564.667	5.12
565.008	5
565.35	5
565.692	4.97
566.033	5.29
566.375	5.01
566.716	4.98
567.058	5.05
567.399	5.09
567.741	5.16
568.082	4.98
568.423	4.92
568.764	5.15
569.105	4.7
569.447	5.2
569.788	4.95
570.129	5.11
570.47	5.24
570.811	4.9
571.151	4.98
571.492	4.86
571.833	4.95
572.174	4.8
572.514	4.97
572.855	5.01
573.195	5.14
573.536	5.02
573.876	4.93
574.217	4.94
574.557	4.99
574.898	5.02
575.238	4.97
575.578	5.04
575.918	5.16
576.258	4.8
576.598	4.88
576.938	5.07
577.278	5.07
577.618	4.91
577.958	5.2
578.298	5.01
578.638	4.93
578.977	5.07
579.317	5.07
579.657	4.99
579.996	5.18
580.336	5.04
580.675	5.12
581.014	5.02
581.354	5.07
581.693	5.14
582.032	5.35
582.372	5.13
582.711	4.98
583.05	5.16
583.389	5.02
583.728	4.85
584.067	5.15
584.406	5.23
584.745	4.68
585.083	5.19
585.422	4.92
585.761	5.18
586.1	5.28
586.438	5.1
586.777	4.92
587.115	5.26
587.454	4.95
587.792	5.18
588.13	5.23
588.469	4.98
588.807	5.09
589.145	5.05
589.483	5
589.821	5.17
590.159	5.02
590.497	5.13
590.835	5.18
591.173	5.09
591.511	4.97
591.849	5.06
592.187	4.95
592.524	5.28
592.862	5.05
593.2	4.81
593.537	5.08
593.875	4.98
594.212	4.96
594.55	5.34
594.887	5.13
595.224	5.14
595.561	5.25
595.899	5.42
596.236	5.35
596.573	5.4
596.91	5.1
597.247	5.14
597.584	5.11
597.921	5.25
598.258	5.27
598.594	4.86
598.931	5
599.268	4.88
599.604	5.1
599.941	4.9
600.277	4.98
600.614	5.13
600.95	5.11
601.287	4.83
601.623	5.06
601.959	5.38
602.296	4.96
602.632	4.69
602.968	5.17
603.304	5.2
603.64	4.95
603.976	5.02
604.312	4.98
604.648	5.1
604.984	5.05
605.319	4.95
605.655	4.98
605.991	5
606.326	5.05
606.662	4.82
606.998	4.83
607.333	5.05
607.668	4.96
608.004	5.11
608.339	4.94
608.674	5.07
609.01	5.04
609.345	5.12
609.68	5.18
610.015	5.22
610.35	4.97
610.685	5.21
611.02	5.24
611.355	5.18
611.689	4.81
612.024	5.14
612.359	4.87
612.694	5
613.028	4.99
613.363	5.11
613.697	4.92
614.032	5.05
614.366	4.87
614.7	5.16
615.035	5.24
615.369	5.14
615.703	4.74
616.037	5.16
616.371	5.46
616.705	5.37
617.039	4.95
617.373	5.16
617.707	5.32
618.041	5.24
618.375	5.1
618.709	5.4
619.042	5.35
619.376	5.1
619.71	5.32
620.043	5.03
620.377	4.93
620.71	5.33
621.043	5.38
621.377	5.13
621.71	5.24
622.043	5.01
622.376	5.44
622.709	5.15
623.043	5.1
623.376	5.23
623.709	5.29
624.041	5.04
624.374	4.95
624.707	5.32
625.04	5.2
625.373	4.87
625.705	5.25
626.038	5.22
626.37	5.19
626.703	5.2
627.035	5.17
627.368	5.44
627.7	5.39
628.032	5.24
628.365	5.23
628.697	5.11
629.029	4.89
629.361	5.1
629.693	5.02
630.025	5.16
630.357	4.77
630.689	5.2
631.021	5.24
631.353	5.1
631.684	5.16
632.016	5.3
632.348	5.17
632.679	4.89
633.011	4.98
633.342	5.51
633.674	5.37
634.005	4.98
634.336	5.38
634.668	5.12
634.999	5.43
635.33	5.19
635.661	5.26
635.992	5.12
636.323	4.94
636.654	5.19
636.985	5.08
637.316	5.23
637.647	5.22
637.977	4.68
638.308	5.63
638.639	5.05
638.969	5.42
639.3	5.08
639.63	5.63
639.961	5.09
640.291	5.07
640.622	5.86
640.952	5.03
641.282	5.48
641.612	4.85
641.943	5.27
642.273	5.47
642.603	5.07
642.933	5.16
643.263	4.71
643.592	5.36
643.922	5.36
644.252	5.16
644.582	5.68
644.911	5.42
645.241	5.54
645.571	5.41
645.9	5.39
646.23	5.19
646.559	5.21
646.888	5.12
647.218	5.49
647.547	4.76
647.876	4.99
648.205	5.14
648.534	5.49
648.863	5.77
649.192	5.14
649.521	5.37
649.85	5.63
650.179	5.19
650.508	5.09
650.837	5.47
651.165	5.33
651.494	5.04
651.822	4.95
652.151	5.37
652.479	5.43
652.808	5.39
653.136	5.6
653.465	5.44
653.793	4.97
654.121	5.52
654.449	4.95
654.777	5.49
655.105	5.47
655.433	5.84
655.761	5.86
656.089	5.13
656.417	5.27
656.745	5.65
657.073	5.32
657.4	6.04
657.728	5.52
658.056	5.36
658.383	6.05
658.711	5.32
659.038	4.99
659.365	5.56
659.693	5.01
660.02	5.81
660.347	5.31
660.674	4.82
661.001	5.38
661.329	5.28
661.656	5.22
661.982	5.23
662.309	5.11
662.636	5.39
662.963	5.5
663.29	5.49
663.616	5.19
663.943	5.71
664.27	5.71
664.596	5.44
664.923	5.31
665.249	5.22
665.576	4.93
665.902	5.03
666.228	5.61
666.554	5.57
666.881	5.66
667.207	5.31
667.533	4.93
667.859	5.71
668.185	5.16
668.511	6.28
668.837	4.91
669.162	5.17
669.488	5.07
669.814	5.24
670.139	5.31
670.465	5.78
670.791	5.82
671.116	5.54
671.442	5.53
671.767	4.82
672.092	5.79
672.418	6.36
672.743	5.81
673.068	5.68
673.393	5.19
673.718	6.14
674.043	6.13
674.368	5.97
674.693	5.01
675.018	5.39
675.343	5.65
675.667	6.07
675.992	5.12
676.317	5.13
676.641	5.36
676.966	5.83
677.29	5.53
677.615	5.9
677.939	6.11
678.264	5.7
678.588	5.9
678.912	6.18
679.236	5.5
679.56	5.74
679.885	5.32
680.209	6.17
680.532	5.55
680.856	5.15
681.18	5.56
681.504	5.62
681.828	5.73
682.152	5.54
682.475	6.03
682.799	6.04
683.122	5.24
683.446	5.34
683.769	5.59
684.093	5.63
684.416	5.74
684.739	6.26
685.062	6.43
685.386	5.55
685.709	5.04
686.032	5.44
686.355	6.11
686.678	5.79
687.001	5.51
687.324	6.55
687.646	5.69
687.969	6.3
688.292	5.38
688.614	6.29
688.937	5.68
689.26	5.37
689.582	6.73
689.904	5.59
690.227	6.3
690.549	6.53
690.871	5.78
691.194	5.57
691.516	5.62
691.838	5.68
692.16	5.49
692.482	6.26
692.804	5.71
693.126	5.48
693.448	6.6
693.769	5.55
694.091	6.36
694.413	6.92
694.735	5.66
695.056	6.27
695.378	6.49
695.699	6.24
696.021	5.48
696.342	7.06
696.663	5.59
696.984	6.7
697.306	5.99
697.627	4.85
697.948	5.02
698.269	5.76
698.59	5.61
698.911	5.9
699.232	6.09
699.553	6.14
699.873	6.3
700.194	5.94
700.515	4.65
700.835	6.73
701.156	5.62
701.477	6.3
701.797	5.45
702.117	6.11
702.438	5.14
702.758	5.24
703.078	5.91
703.398	5.85
703.719	5.88
704.039	6.49
704.359	5.47
704.679	5.46
704.999	5.59
705.319	5.96
705.638	5.35
705.958	6.41
706.278	7.51
706.597	6.24
706.917	6.93
707.237	5.69
707.556	5.2
707.876	5.35
708.195	7.11
708.514	6.24
708.834	5.83
709.153	6.51
709.472	6.16
709.791	5.23
710.11	5.95
710.429	5.9
710.748	6.12
711.067	5.64
711.386	6.67
711.705	6.61
712.023	6.98
712.342	7.54
712.661	6.11
712.979	6.62
713.298	6.78
713.616	6.08
713.935	7.33
714.253	7.4
714.572	5.8
714.89	7.57
715.208	6.51
715.526	5.67
715.844	6.71
716.162	5.88
716.48	6.05
716.798	6.14
717.116	6.79
717.434	6.37
717.752	7.11
718.069	5.53
718.387	6.01
718.705	5.79
719.022	6.86
719.34	6.84
719.657	5.59
719.975	7.66
720.292	5.81
720.609	6.62
720.927	7.12
721.244	7.73
721.561	8.04
721.878	7.04
722.195	6.24
722.512	7.05
722.829	6.77
723.146	7.22
723.463	6.46
723.779	6.31
724.096	5.81
724.413	7.45
724.729	7.92
725.046	6.07
725.362	6.2
725.679	6
725.995	8.03
726.311	5.88
726.628	5.9
726.944	5.58
727.26	6.08
727.576	6.69
727.892	5.97
728.208	8.11
728.524	7.44
728.84	5.56
729.156	6.79
729.472	8.93
729.787	5.99
730.103	5.72
730.419	7.06
730.734	6.02
731.05	5.43
731.365	6.58
731.681	6.72
731.996	7.48
732.311	7.47
732.626	6.55
732.942	5.84
733.257	7.36
733.572	5.86
733.887	7.8
734.202	7.34
734.517	7.62
734.832	6.12
735.146	6.16
735.461	7.46
735.776	6.15
736.091	6.68
736.405	6.46
736.72	7.01
737.034	6.78
737.349	5.51
737.663	5.97
737.977	7.77
738.292	7.19
738.606	6.29
738.92	6.47
739.234	7.13
739.548	6.61
739.862	7.59
740.176	5.95
740.49	4.76
740.804	7.59
741.117	7.7
741.431	7.19
741.745	7.42
742.058	6.81
742.372	5.76
742.685	8.12
742.999	7.65
743.312	7.91
743.626	5.68
743.939	6.19
744.252	5.06
744.565	6.05
744.878	8.93
745.191	7.59
745.505	6.83
745.817	6.94
746.13	8.57
746.443	8.92
746.756	7.32
747.069	9.24
747.381	3.47
747.694	7.53
748.007	7.43
748.319	9.05
748.632	7.55
748.944	7.59
749.256	9.83
749.569	7.5
749.881	7.59
750.193	7.86
750.505	8.27
750.817	6.99
751.129	8.46
751.441	7.37
751.753	8.44
752.065	9.49
752.377	8.6
752.689	6.51
753	8.59
753.312	7.92
753.624	7.43
753.935	8.76
754.247	7.92
754.558	10.21
754.869	7.75
755.181	6.48
755.492	6.72
755.803	9.38
756.114	7.98
756.425	10.58
756.736	6.68
757.047	7.01
757.358	7.63
757.669	5.96
757.98	7.63
758.291	8.13
758.601	7.78
758.912	6.5
759.223	10.56
759.533	7.66
759.844	8.37
760.154	7.63
760.464	6.37
760.775	8.17
761.085	8.35
761.395	7.11
761.705	8.21
762.016	6.79
762.326	7.2
762.636	7.96
762.945	6.28
763.255	8.9
763.565	8.19
763.875	6.89
764.185	7.75
764.494	8.58
764.804	6.98
765.113	6.9
765.423	6.58
765.732	7.22
766.042	7.47
766.351	7.55
766.66	7.05
766.97	7.34
767.279	7.79
767.588	8.01
767.897	7.41
768.206	7.19
768.515	7.33
768.824	9.21
769.133	8.33
769.441	7.65
769.75	9.35
770.059	8.89
770.367	5.92
770.676	8.12
770.984	6.18
771.293	9.95
771.601	9.5
771.91	8.89
772.218	6.41
772.526	9.23
772.834	7.73
773.142	8.11
773.45	6.38
773.758	7.07
774.066	8.13
774.374	6.96
774.682	5.66
774.99	8.37
775.298	7.35
775.605	9.64
775.913	15.03
776.22	7.68
776.528	8.55
776.835	7.27
777.143	8.71
777.45	9.09
777.757	10.46
778.065	10.14
778.372	10.52
778.679	9.06
778.986	9.06
779.293	9.32
779.6	9.41
779.907	11.52
780.214	11.72
780.52	4.65
780.827	10.98
781.134	12.73
781.44	8.65
781.747	7.68
782.053	8.62
782.36	10.36
782.666	9.43
782.973	10.69
783.279	7.28
783.585	6.47
783.891	7.93
784.197	12.77
784.503	7.08
784.809	10.78
785.115	6.61
785.421	11.31
785.727	11.96
786.033	8.02
786.339	12.35
786.644	12.42
786.95	7.14
787.255	11.89
787.561	10.2
787.866	10.33
788.172	10.6
788.477	8.47
788.782	8.33
789.088	7.02
789.393	6.47
789.698	10.32
790.003	10.25
790.308	11.51
790.613	9.07
790.918	6.98
791.223	5.53
791.527	8.05
791.832	12.79
792.137	9.97
792.441	16.76
792.746	9.45
793.05	11.4
793.355	13.67
793.659	8.19
793.963	8.93
794.268	9.9
794.572	8.97
794.876	8.29
795.18	6.97
795.484	8.87
795.788	8.32
796.092	6.73
796.396	9.97
796.7	11.16
797.004	7.77
797.307	7.47
797.611	6.15
797.915	5.24
798.218	10.95
798.522	12.26
798.825	12.27
799.128	12.9
799.432	11.66
799.735	11.35
800.038	9.83
800.341	7.16
800.644	13.31
800.947	9.08
801.25	9.34
801.553	12.53
801.856	17.85
802.159	8.7
802.462	10.51
802.764	9.18
803.067	9.43
803.37	13.81
803.672	14.42
803.975	7.71
804.277	13.87
804.579	11.66
804.882	9.65
805.184	12.05
805.486	14.07
805.788	13.26
806.09	16.29
806.392	11.2
806.694	17.12
806.996	5.09
807.298	9.93
807.6	10.27
807.902	16.06
808.203	11.58
808.505	10.94
808.807	15.51
809.108	14.94
809.409	14.19
809.711	9.68
810.012	13.08
810.313	13.36
810.615	11.69
810.916	8.88
811.217	9.38
811.518	11.44
811.819	10.87
812.12	12.06
812.421	11.04
812.722	9.57
813.023	14.96
813.323	8.71
813.624	13.76
813.925	17.97
814.225	10.4
814.526	16.96
814.826	17.09
815.126	11.84
815.427	7.02
815.727	12.12
816.027	12.17
816.327	5.34
816.627	14.03
816.927	12.86
817.227	10.56
817.527	15.33
817.827	10.59
818.127	10.35
818.427	13.33
818.727	13.35
819.026	16.11
819.326	8.42
819.625	12.42
819.925	12.64
820.224	11.49
820.524	11.88
820.823	15.56
821.122	8.77
821.421	12.59
821.72	14.24
822.019	18.35
822.318	12.95
822.617	11.07
822.916	12.74
823.215	13.29
823.514	8.31
823.813	15.95
824.111	15.29
824.41	11.74
824.709	8.51
825.007	9.81
825.306	9.26
825.604	8.52
825.902	10.01
826.201	9.54
826.499	8.95
826.797	8.93
827.095	11.13
827.393	9.1
827.691	10.41
827.989	8.35
828.287	10.3
828.585	10.51
828.882	10.33
829.18	8.92
829.478	9.51
829.775	9.95
830.073	7.81
830.37	9.19
830.668	10.61
830.965	11.16
831.263	9.27
831.56	13.79
831.857	7.96
832.154	12.52
832.451	9.62
832.748	10.99
833.045	7.25
833.342	12.85
833.639	12.18
833.936	15.31
834.232	11.21
834.529	11
834.826	10.98
835.122	10.14
835.419	11.31
835.715	14.43
836.012	14.29
836.308	12.55
836.604	14.85
836.901	7.94
837.197	14.36
837.493	11.79
837.789	11.04
838.085	7.1
838.381	8.14
838.677	7.06
838.972	11.4
839.268	12.14
839.564	12.23
839.86	9.43
840.155	11.17
840.451	9.56
840.746	14.8
841.042	8.97
841.337	16.28
841.632	22.74
841.928	22.35
842.223	22.06
842.518	19.85
842.813	16.26
843.108	15.6
843.403	21.5
843.698	13.58
843.993	11.75
844.287	14.68
844.582	11.46
844.877	5.22
845.171	22.77
845.466	24.21
845.761	8.54
846.055	22.36
846.349	10.64
846.644	14.61
846.938	15.95
847.232	20.89
847.526	13.87
847.82	16.52
848.114	14.6
848.408	14.18
848.702	25.87
848.996	15.74
849.29	27.48
849.584	22.83
849.877	42.2
850.171	21.61
850.465	19.43
850.758	12.01
851.052	7.19
851.345	33.81
851.638	17.29
851.932	46.54
852.225	20.99
852.518	29.46
852.811	31.38
853.104	23.48
853.397	31.91
853.69	23.6
853.983	22.84
854.276	43.2
854.569	8.08
854.861	-1.28
855.154	-1.14
855.447	26.92
855.739	-19.72
856.032	1.89
856.324	4.05
856.616	4.23
856.909	15.48
857.201	21.37
857.493	18.14
857.785	23.64
858.077	42.46
858.369	26.82
858.661	17.92
858.953	35.17
859.245	22.41
859.537	15.66
859.829	33.12
860.12	38.89
860.412	28.6
860.703	33.66
860.995	-3.18
861.286	37.8
861.578	30.91
861.869	-1.04
862.16	17.62
862.452	-22.75
862.743	43.66
863.034	41.91
863.325	38.71
863.616	6.96
863.907	19.02
864.198	15.19
864.488	17.81
864.779	42.85
865.07	10.04
865.36	-11.69
865.651	40.25
865.941	12.62
866.232	11.88
866.522	13.57
866.813	26.54
867.103	42.9
867.393	10.58
867.683	35.7
867.973	5.88
868.263	21.46
868.553	16.18
868.843	14.8
869.133	40.87
869.423	41.39
869.713	20.22
870.002	26.11
870.292	18.88
870.582	5.56
870.871	14.47
871.161	23.2
871.45	26.15
871.739	28.72
872.029	29.19
872.318	46.45
872.607	20
872.896	13.91
873.185	23.89
873.474	14.81
873.763	40.06
874.052	17.3
874.341	38.85
874.63	35.39
874.918	13.22
875.207	11.07
875.496	14.9
875.784	21.47
876.073	10.15
876.361	0.21
876.649	21.46
876.938	61.95
877.226	20.15
877.514	39.73
877.802	10.26
878.09	42.25
878.378	23.16
878.666	53.59
878.954	26.31
879.242	29.31
879.53	15.4
879.817	38.72
880.105	0.55
880.392	20.66
880.68	62.61
880.967	40.2
881.255	34.42
881.542	13.68
881.83	40.43
882.117	20.81
882.404	52.54
882.691	13.56
882.978	11.33
883.265	16.68
883.552	25.08
883.839	11.24
884.126	33.25
884.413	7.7
884.699	28.78
884.986	24.23
885.273	11.68
885.559	11.68
885.846	11.68
