Data from 0233_forehead_Reflection__3__45.txt Node

Date: Fri Oct 20 21:00:50 CDT 2023
User: ToomeyLab
Spectrometer: FLMS14357
Trigger mode: 0
Integration Time (sec): 1.000000E-2
Scans to average: 100
Electric dark correction enabled: true
Nonlinearity correction enabled: false
Boxcar width: 0
XAxis mode: Wavelengths
Number of Pixels in Spectrum: 2048
>>>>>Begin Spectral Data<<<<<
189.047	1.97
189.435	1.97
189.823	1.97
190.211	94.19
190.599	-172.89
190.987	66.03
191.375	204.51
191.763	73.73
192.151	134.69
192.538	-282.95
192.926	228.15
193.314	265.24
193.702	163.56
194.089	86.11
194.477	-173.21
194.864	54.49
195.252	-676.83
195.639	26.83
196.027	-53.52
196.414	3.25
196.801	856.48
197.189	28.92
197.576	44.41
197.963	-69.74
198.351	87.18
198.738	45.95
199.125	74.03
199.512	73.62
199.899	55.25
200.286	27.31
200.673	51.08
201.06	52.3
201.447	31.37
201.833	101.09
202.22	53.9
202.607	38.44
202.994	81.34
203.38	54.2
203.767	56.37
204.154	30.22
204.54	62.05
204.927	40.07
205.313	49.62
205.699	49.25
206.086	44.18
206.472	70.42
206.858	48.32
207.245	3.63
207.631	38.81
208.017	51.87
208.403	10.08
208.789	51.98
209.175	-11.11
209.561	42.01
209.947	22.88
210.333	52.71
210.719	33.8
211.105	40.1
211.491	55.65
211.876	14.11
212.262	41.42
212.648	35.8
213.034	41.12
213.419	39.24
213.805	51.05
214.19	40.39
214.576	34.98
214.961	53
215.346	44.74
215.732	30.78
216.117	-1.34
216.502	33.83
216.888	41.36
217.273	27.07
217.658	31.47
218.043	26.54
218.428	9.26
218.813	18.54
219.198	2.79
219.583	20.23
219.968	-7.28
220.353	35.89
220.738	28.02
221.122	11.52
221.507	17.33
221.892	19.15
222.276	13.55
222.661	30.37
223.046	18.19
223.43	24.6
223.815	27.19
224.199	27.86
224.583	-3.01
224.968	15.81
225.352	8.41
225.736	16.35
226.121	12.97
226.505	2.98
226.889	13.25
227.273	8.03
227.657	13.18
228.041	17.41
228.425	13.42
228.809	11.12
229.193	8.06
229.577	7.85
229.961	4.98
230.344	4.89
230.728	3.23
231.112	4.72
231.495	3.8
231.879	5.25
232.263	5.77
232.646	3.4
233.03	3.49
233.413	4.77
233.797	5.04
234.18	6.06
234.563	5.61
234.946	7.3
235.33	7.88
235.713	6.53
236.096	6.19
236.479	5.6
236.862	5.49
237.245	3.73
237.628	4.99
238.011	5.89
238.394	5.91
238.777	5.5
239.16	6.96
239.543	7.21
239.925	8.06
240.308	5.01
240.691	5.55
241.073	5.66
241.456	4.44
241.838	5.68
242.221	5.06
242.603	5.26
242.986	5.15
243.368	4.61
243.75	4.32
244.133	3.56
244.515	3.69
244.897	4.05
245.279	3.82
245.661	3.84
246.043	3.98
246.425	4.24
246.807	4.96
247.189	4.42
247.571	4.47
247.953	3.47
248.335	4.17
248.717	3.36
249.098	3.52
249.48	3.5
249.862	3.73
250.243	3.95
250.625	3.96
251.006	4.26
251.388	4.4
251.769	4.39
252.151	4.52
252.532	4.7
252.913	4.46
253.295	3.24
253.676	3.78
254.057	3.97
254.438	3.61
254.819	4.34
255.2	4.32
255.581	4.64
255.962	5.23
256.343	4.71
256.724	4.54
257.105	4.55
257.486	5.2
257.867	4.66
258.247	4.55
258.628	5.12
259.009	3.76
259.389	4.01
259.77	3.76
260.15	4.34
260.531	4.52
260.911	4.33
261.292	3.72
261.672	3.74
262.052	3.82
262.432	3.57
262.813	3.94
263.193	4.22
263.573	3.94
263.953	4.17
264.333	4.75
264.713	4.37
265.093	4.76
265.473	5
265.853	4.79
266.233	5.01
266.612	4.47
266.992	4.73
267.372	3.69
267.752	4.04
268.131	3.77
268.511	4.07
268.89	4.37
269.27	3.93
269.649	3.59
270.029	4.06
270.408	4.34
270.787	3.98
271.167	4.22
271.546	4.63
271.925	4.68
272.304	4.11
272.683	4.45
273.062	4.75
273.441	3.91
273.82	3.93
274.199	4.35
274.578	4.19
274.957	4.1
275.336	4.11
275.715	4.27
276.093	3.71
276.472	4
276.851	4.32
277.229	4.27
277.608	3.52
277.986	3.56
278.365	4.98
278.743	3.82
279.122	3.87
279.5	3.83
279.878	3.91
280.257	4.23
280.635	3.99
281.013	4.24
281.391	4.53
281.769	3.81
282.147	3.75
282.525	3.99
282.903	3.71
283.281	4.08
283.659	4.29
284.037	3.97
284.415	3.34
284.792	3.67
285.17	4.4
285.548	3.78
285.925	3.96
286.303	3.61
286.68	3.55
287.058	4.34
287.435	4.03
287.813	3.12
288.19	3.83
288.567	3.71
288.945	4.31
289.322	4.47
289.699	3.89
290.076	4.65
290.453	4.03
290.83	4.05
291.207	4.52
291.584	3.84
291.961	4.47
292.338	4.16
292.715	4.48
293.092	3.94
293.469	4.47
293.845	4.18
294.222	3.91
294.599	4.55
294.975	5.11
295.352	4.39
295.728	4.71
296.105	4.09
296.481	4.04
296.858	4.39
297.234	4.48
297.61	4.03
297.986	4.48
298.363	4.61
298.739	4.64
299.115	4.36
299.491	4.54
299.867	4.34
300.243	4.48
300.619	4.61
300.995	4.65
301.371	5.31
301.746	4.59
302.122	4.67
302.498	4.97
302.874	4.64
303.249	4.88
303.625	5.1
304	5.37
304.376	4.8
304.751	4.4
305.127	4.9
305.502	5.35
305.878	5.61
306.253	5.33
306.628	5.68
307.003	5.17
307.378	5.33
307.754	5.04
308.129	5.98
308.504	5.43
308.879	6.06
309.254	5.6
309.629	5.3
310.003	4.95
310.378	6.04
310.753	5.61
311.128	5.69
311.502	5.78
311.877	5.65
312.252	5.21
312.626	5.94
313.001	6.05
313.375	5.96
313.75	5.83
314.124	6.03
314.498	6.28
314.873	6.11
315.247	6.1
315.621	6.31
315.995	6.78
316.369	6.56
316.743	6.74
317.117	6.43
317.491	5.74
317.865	6.9
318.239	6.92
318.613	7.08
318.987	6.87
319.361	6.57
319.734	6.34
320.108	6.49
320.482	6.9
320.855	7.1
321.229	7.62
321.602	7.17
321.976	6.85
322.349	7.19
322.723	7.31
323.096	7.88
323.469	7.96
323.843	7.88
324.216	7.74
324.589	7.32
324.962	8.05
325.335	7.5
325.708	7.55
326.081	7.55
326.454	7.67
326.827	8.34
327.2	8.09
327.573	8.46
327.945	8.23
328.318	7.62
328.691	8
329.063	8.36
329.436	8.36
329.809	7.86
330.181	8.71
330.553	8.52
330.926	8.55
331.298	8.11
331.671	7.97
332.043	8.54
332.415	8.3
332.787	9.12
333.159	8.33
333.532	8.95
333.904	9.06
334.276	8.66
334.648	8.52
335.02	8.86
335.391	8.86
335.763	9.6
336.135	8.9
336.507	9.32
336.879	8.7
337.25	9.24
337.622	9.81
337.993	9.58
338.365	8.98
338.736	9.45
339.108	9.47
339.479	9.35
339.851	9.3
340.222	9.27
340.593	9.27
340.964	9.46
341.336	9.42
341.707	9.63
342.078	9.93
342.449	9.84
342.82	9.72
343.191	9.48
343.562	10.03
343.933	9.8
344.303	9.92
344.674	10.54
345.045	10.27
345.416	10.32
345.786	9.83
346.157	9.63
346.527	9.8
346.898	10.25
347.268	10.4
347.639	10.47
348.009	10.11
348.38	10.55
348.75	10.59
349.12	10.51
349.49	10.49
349.861	10.54
350.231	10.94
350.601	10.48
350.971	11.13
351.341	11.16
351.711	11.86
352.081	10.88
352.45	10.87
352.82	10.81
353.19	11.62
353.56	11.38
353.929	11.08
354.299	11.02
354.669	11.34
355.038	11.58
355.408	11.6
355.777	11.18
356.147	11.15
356.516	11.02
356.885	11.35
357.254	11.46
357.624	11.35
357.993	11.47
358.362	11.28
358.731	11.24
359.1	10.8
359.469	11.39
359.838	11.31
360.207	11.72
360.576	11.92
360.945	11.43
361.314	11.38
361.682	11.75
362.051	11.69
362.42	11.76
362.788	12.02
363.157	11.81
363.525	11.69
363.894	11.93
364.262	11.92
364.631	12.29
364.999	12.19
365.367	12.23
365.735	11.88
366.104	12.35
366.472	12.09
366.84	12.79
367.208	12.46
367.576	12.21
367.944	12.86
368.312	12.38
368.68	12.92
369.048	12.88
369.416	12.93
369.783	13.21
370.151	12.62
370.519	13.01
370.886	12.86
371.254	13.12
371.621	13.2
371.989	12.93
372.356	13.32
372.724	13.22
373.091	13.22
373.458	13.06
373.826	13.29
374.193	12.76
374.56	13.01
374.927	13.38
375.294	13.68
375.661	13.67
376.028	13.72
376.395	13.57
376.762	13.41
377.129	13.86
377.496	13.82
377.863	14.13
378.229	13.92
378.596	13.98
378.963	13.93
379.329	13.92
379.696	13.98
380.062	14.01
380.429	13.91
380.795	13.52
381.161	14.35
381.528	14.05
381.894	14.59
382.26	14.35
382.626	14.8
382.993	14.49
383.359	14.44
383.725	14.82
384.091	14.53
384.457	15.06
384.823	14.6
385.188	15.13
385.554	14.82
385.92	14.8
386.286	15.19
386.651	14.57
387.017	14.85
387.383	14.95
387.748	14.76
388.114	15.03
388.479	15
388.845	15.17
389.21	14.88
389.575	15.16
389.94	15.29
390.306	15.34
390.671	15.06
391.036	15.86
391.401	15.68
391.766	15.4
392.131	15.46
392.496	15.79
392.861	15.61
393.226	15.86
393.591	15.5
393.956	15.77
394.32	15.95
394.685	15.91
395.05	15.86
395.414	16.18
395.779	15.94
396.143	16.07
396.508	15.93
396.872	16.23
397.236	16.23
397.601	16.28
397.965	16.09
398.329	16.25
398.694	16.4
399.058	16.37
399.422	16.47
399.786	16.54
400.15	16.42
400.514	16.49
400.878	17.01
401.242	17.01
401.605	17.05
401.969	16.55
402.333	16.74
402.697	16.82
403.06	17.14
403.424	16.89
403.787	17.29
404.151	17.35
404.514	17.21
404.878	17.1
405.241	17.12
405.604	17.13
405.968	17.3
406.331	17.31
406.694	17.2
407.057	17.14
407.42	17.61
407.783	17.26
408.146	17.49
408.509	17.57
408.872	18
409.235	17.62
409.598	17.58
409.961	17.95
410.323	17.84
410.686	18.04
411.049	18.02
411.411	18.08
411.774	17.95
412.136	18.07
412.499	17.98
412.861	18.12
413.223	18.18
413.586	18.23
413.948	18.48
414.31	18.58
414.672	18.45
415.035	18.21
415.397	18.41
415.759	18.67
416.121	18.46
416.483	18.62
416.845	18.64
417.206	19.01
417.568	19
417.93	18.67
418.292	18.74
418.653	18.87
419.015	18.71
419.377	18.7
419.738	18.86
420.1	18.75
420.461	18.88
420.822	18.71
421.184	18.9
421.545	18.83
421.906	18.85
422.267	18.94
422.629	18.99
422.99	18.88
423.351	18.84
423.712	18.88
424.073	18.93
424.434	19.04
424.795	19.17
425.155	19.3
425.516	19.16
425.877	19.14
426.238	19.16
426.598	19.25
426.959	19.28
427.32	19.44
427.68	19.52
428.041	19.72
428.401	19.79
428.761	19.9
429.122	19.99
429.482	20.11
429.842	20.04
430.202	20.33
430.563	20.28
430.923	20.46
431.283	20.56
431.643	20.55
432.003	20.63
432.363	20.77
432.722	20.66
433.082	20.66
433.442	20.85
433.802	20.9
434.161	20.78
434.521	20.71
434.881	20.64
435.24	20.76
435.6	20.77
435.959	20.71
436.319	20.94
436.678	20.91
437.037	20.94
437.396	21.39
437.756	21.27
438.115	21.2
438.474	21.32
438.833	21.45
439.192	21.48
439.551	21.57
439.91	21.53
440.269	21.56
440.628	21.71
440.987	21.3
441.345	21.49
441.704	21.43
442.063	21.45
442.421	21.44
442.78	21.54
443.138	21.76
443.497	21.76
443.855	21.64
444.214	21.9
444.572	22.03
444.93	22.09
445.288	22.3
445.647	22.33
446.005	22.28
446.363	22.17
446.721	22.33
447.079	22.3
447.437	22.29
447.795	22.1
448.153	22.03
448.51	22.07
448.868	22.16
449.226	21.94
449.584	22.08
449.941	22.4
450.299	22.53
450.656	22.56
451.014	22.86
451.371	22.81
451.729	22.98
452.086	23.17
452.443	23.07
452.801	23.14
453.158	23.45
453.515	23.23
453.872	23.31
454.229	23.55
454.586	23.29
454.943	23.34
455.3	23.28
455.657	23.44
456.014	23.56
456.371	23.52
456.727	23.64
457.084	23.63
457.441	23.82
457.797	23.98
458.154	23.74
458.51	23.98
458.867	23.99
459.223	24.01
459.58	23.91
459.936	24.06
460.292	23.89
460.648	23.96
461.005	23.8
461.361	23.82
461.717	23.65
462.073	23.74
462.429	23.86
462.785	23.79
463.141	24.15
463.496	24.28
463.852	24.59
464.208	24.53
464.564	24.82
464.919	24.55
465.275	24.95
465.631	25.01
465.986	25.08
466.342	24.92
466.697	25.16
467.052	24.94
467.408	24.95
467.763	25.15
468.118	25.35
468.473	25.22
468.829	25.22
469.184	25.32
469.539	25.32
469.894	25.37
470.249	25.49
470.603	25.36
470.958	25.62
471.313	25.81
471.668	25.72
472.023	25.74
472.377	25.77
472.732	25.65
473.086	25.88
473.441	25.82
473.795	26.22
474.15	25.86
474.504	25.74
474.859	25.97
475.213	26.25
475.567	26.19
475.921	26.1
476.275	26.22
476.63	26.4
476.984	26.55
477.338	26.38
477.692	26.51
478.045	26.31
478.399	26.42
478.753	26.6
479.107	26.38
479.461	26.43
479.814	26.61
480.168	26.68
480.521	26.74
480.875	26.64
481.228	26.57
481.582	26.91
481.935	26.82
482.289	26.83
482.642	26.88
482.995	26.82
483.348	26.88
483.701	26.72
484.055	26.79
484.408	26.7
484.761	26.56
485.114	26.36
485.466	26.01
485.819	25.77
486.172	25.84
486.525	26.05
486.878	26.1
487.23	26.36
487.583	26.61
487.936	26.7
488.288	26.88
488.641	26.87
488.993	26.61
489.345	26.67
489.698	26.59
490.05	26.58
490.402	26.6
490.754	26.8
491.107	27.04
491.459	27.17
491.811	27.48
492.163	27.72
492.515	27.64
492.866	27.72
493.218	27.36
493.57	27.08
493.922	27.09
494.274	27.32
494.625	27.43
494.977	27.69
495.328	27.91
495.68	28.08
496.031	28.19
496.383	28.58
496.734	28.74
497.086	28.75
497.437	28.74
497.788	28.67
498.139	28.74
498.49	28.49
498.842	28.51
499.193	28.6
499.544	28.5
499.894	28.71
500.245	28.89
500.596	28.82
500.947	28.96
501.298	29.09
501.648	29.02
501.999	29.25
502.35	29.3
502.7	29.49
503.051	29.48
503.401	29.49
503.752	29.51
504.102	29.86
504.452	29.78
504.803	29.81
505.153	29.87
505.503	29.73
505.853	30.01
506.203	29.7
506.553	29.57
506.903	29.94
507.253	29.83
507.603	30.1
507.953	29.98
508.303	30.07
508.652	30.12
509.002	30.09
509.352	30.26
509.701	30.15
510.051	30.16
510.4	30.09
510.75	30.09
511.099	30.18
511.449	30.13
511.798	30.34
512.147	30.3
512.496	30.43
512.846	30.58
513.195	30.62
513.544	30.61
513.893	30.53
514.242	30.77
514.591	30.58
514.939	30.64
515.288	30.85
515.637	30.82
515.986	31.05
516.334	30.96
516.683	30.99
517.032	30.99
517.38	30.95
517.729	31.31
518.077	31.5
518.426	31.39
518.774	31.32
519.122	31.24
519.47	31.26
519.819	31.15
520.167	31.08
520.515	30.86
520.863	30.91
521.211	31.16
521.559	31.05
521.907	31.31
522.255	31.24
522.602	31.43
522.95	31.52
523.298	31.89
523.645	31.95
523.993	31.87
524.341	32.03
524.688	32.08
525.036	32.19
525.383	31.96
525.73	32.24
526.078	32.2
526.425	32.23
526.772	32.18
527.119	32.02
527.466	31.62
527.814	31.83
528.161	31.85
528.508	31.79
528.854	31.89
529.201	31.94
529.548	31.95
529.895	32.01
530.242	31.55
530.588	31.31
530.935	31.43
531.282	31.51
531.628	31.62
531.975	31.7
532.321	31.91
532.667	32.23
533.014	32.45
533.36	32.6
533.706	32.59
534.052	32.76
534.399	32.66
534.745	32.48
535.091	32.37
535.437	32.33
535.783	32.45
536.129	32.56
536.474	32.6
536.82	32.77
537.166	32.93
537.512	33.15
537.857	33.3
538.203	33.29
538.549	33.34
538.894	33.13
539.239	33.16
539.585	33.16
539.93	33.45
540.276	33.76
540.621	33.9
540.966	34
541.311	34.16
541.656	34.14
542.001	34.16
542.346	34.07
542.691	33.85
543.036	33.32
543.381	33.1
543.726	33.21
544.071	33.25
544.415	33.43
544.76	33.59
545.105	33.84
545.449	33.63
545.794	34.12
546.138	33.96
546.483	34.12
546.827	34.43
547.171	34.46
547.516	34.54
547.86	34.67
548.204	34.56
548.548	34.65
548.892	34.5
549.236	34.56
549.58	34.67
549.924	34.77
550.268	35
550.612	35.12
550.956	35.36
551.3	35.43
551.643	35.48
551.987	35.47
552.33	35.7
552.674	35.66
553.017	35.65
553.361	35.72
553.704	35.77
554.048	35.68
554.391	35.83
554.734	35.55
555.077	35.47
555.42	35.64
555.764	35.85
556.107	36.09
556.45	36.16
556.793	35.83
557.135	36.25
557.478	36.31
557.821	36.41
558.164	36.58
558.507	36.28
558.849	36.63
559.192	36.49
559.534	36.64
559.877	36.47
560.219	36.68
560.562	36.71
560.904	36.62
561.246	36.74
561.589	36.57
561.931	37.13
562.273	37.02
562.615	36.91
562.957	36.83
563.299	37.03
563.641	37.16
563.983	37.07
564.325	37.08
564.667	37.25
565.008	37.37
565.35	37.24
565.692	37.13
566.033	37.3
566.375	37.4
566.716	37.4
567.058	37.53
567.399	37.58
567.741	37.41
568.082	37.25
568.423	37.16
568.764	37.47
569.105	37.48
569.447	37.53
569.788	37.46
570.129	37.62
570.47	37.87
570.811	37.84
571.151	37.72
571.492	38.05
571.833	38.22
572.174	37.87
572.514	38.44
572.855	37.94
573.195	37.96
573.536	37.85
573.876	37.9
574.217	37.96
574.557	37.95
574.898	37.86
575.238	38.05
575.578	38.31
575.918	38.15
576.258	38.13
576.598	38.5
576.938	38.39
577.278	38.35
577.618	38.26
577.958	38.4
578.298	38.64
578.638	38.65
578.977	38.73
579.317	39.02
579.657	38.98
579.996	39.15
580.336	39.05
580.675	39.16
581.014	39.23
581.354	39.49
581.693	39.42
582.032	39.58
582.372	39.53
582.711	39.67
583.05	39.89
583.389	39.57
583.728	39.82
584.067	39.59
584.406	39.5
584.745	39.68
585.083	39.64
585.422	39.62
585.761	39.93
586.1	40.11
586.438	40.04
586.777	39.81
587.115	40.33
587.454	40.07
587.792	39.96
588.13	39.98
588.469	40.19
588.807	40
589.145	39.99
589.483	40.13
589.821	40.64
590.159	40.64
590.497	40.34
590.835	40.4
591.173	40.3
591.511	40.24
591.849	40.26
592.187	40.63
592.524	40.23
592.862	40.48
593.2	40.81
593.537	40.67
593.875	40.6
594.212	40.95
594.55	40.98
594.887	40.53
595.224	40.81
595.561	40.81
595.899	41.04
596.236	40.93
596.573	41.22
596.91	41
597.247	41.19
597.584	40.77
597.921	41.13
598.258	40.84
598.594	41.17
598.931	40.74
599.268	40.93
599.604	41
599.941	41.07
600.277	41.2
600.614	41.33
600.95	41.12
601.287	41.44
601.623	41.84
601.959	41.62
602.296	41.72
602.632	42.1
602.968	41.61
603.304	41.76
603.64	41.93
603.976	41.92
604.312	41.69
604.648	42.1
604.984	41.76
605.319	41.65
605.655	41.99
605.991	41.85
606.326	41.63
606.662	41.56
606.998	41.56
607.333	41.73
607.668	41.63
608.004	41.99
608.339	41.81
608.674	42.11
609.01	42.35
609.345	42.66
609.68	42.87
610.015	42.82
610.35	42.4
610.685	42.55
611.02	42.46
611.355	42.41
611.689	42.48
612.024	42.34
612.359	42.61
612.694	42.69
613.028	42.8
613.363	42.91
613.697	42.84
614.032	43.01
614.366	42.87
614.7	42.99
615.035	42.9
615.369	43.05
615.703	42.96
616.037	43.35
616.371	43.53
616.705	43.41
617.039	43.74
617.373	43.28
617.707	43.49
618.041	43.47
618.375	43.64
618.709	43.6
619.042	43.79
619.376	43.75
619.71	43.48
620.043	43.98
620.377	43.68
620.71	43.75
621.043	43.69
621.377	43.62
621.71	43.62
622.043	43.25
622.376	44.16
622.709	44.47
623.043	44.11
623.376	43.67
623.709	44.1
624.041	44.45
624.374	44.67
624.707	44.31
625.04	44.34
625.373	44.5
625.705	44.4
626.038	44.55
626.37	44.04
626.703	44.76
627.035	44.26
627.368	44.38
627.7	44.8
628.032	44.56
628.365	44.61
628.697	44.25
629.029	44.49
629.361	44.53
629.693	44.75
630.025	44.6
630.357	44.99
630.689	44.9
631.021	44.61
631.353	44.99
631.684	44.58
632.016	45.2
632.348	44.93
632.679	44.78
633.011	44.97
633.342	45.1
633.674	45.55
634.005	45.51
634.336	45.43
634.668	45.21
634.999	45.24
635.33	45.36
635.661	45.18
635.992	45.27
636.323	45.01
636.654	45.24
636.985	45.51
637.316	45.71
637.647	45.61
637.977	45.37
638.308	45.5
638.639	45.77
638.969	45.64
639.3	45.31
639.63	45.68
639.961	46.05
640.291	45.64
640.622	45.95
640.952	45.75
641.282	45.84
641.612	45.83
641.943	46.04
642.273	45.84
642.603	45.73
642.933	46.35
643.263	47.13
643.592	46.13
643.922	46.43
644.252	46.72
644.582	45.96
644.911	46.78
645.241	47.23
645.571	46.42
645.9	46.53
646.23	46.87
646.559	47.11
646.888	46.95
647.218	46.54
647.547	46.42
647.876	46.39
648.205	46.68
648.534	46.46
648.863	46.85
649.192	46.64
649.521	46.57
649.85	47.21
650.179	47.2
650.508	46.53
650.837	46.55
651.165	46.7
651.494	46.51
651.822	47.06
652.151	46.74
652.479	47.14
652.808	46.6
653.136	47.19
653.465	47.15
653.793	46.98
654.121	47.01
654.449	47.04
654.777	47.29
655.105	46.95
655.433	47.31
655.761	47.3
656.089	48.08
656.417	46.88
656.745	47.82
657.073	47.45
657.4	48.1
657.728	47.57
658.056	47.9
658.383	46.97
658.711	47.88
659.038	47.83
659.365	47.67
659.693	46.96
660.02	47.85
660.347	47.67
660.674	47.87
661.001	47.7
661.329	47.65
661.656	47.84
661.982	48.04
662.309	48.18
662.636	47.9
662.963	47.42
663.29	47.81
663.616	48.03
663.943	48.12
664.27	47.93
664.596	48.26
664.923	48
665.249	47.67
665.576	48.61
665.902	48.49
666.228	48.61
666.554	48.45
666.881	48.51
667.207	48.35
667.533	47.86
667.859	49.23
668.185	48.52
668.511	49.36
668.837	48.45
669.162	48.3
669.488	48.9
669.814	48.53
670.139	48.83
670.465	48.82
670.791	49.39
671.116	49.66
671.442	49.09
671.767	48.82
672.092	49.11
672.418	49.2
672.743	49.5
673.068	48.97
673.393	49.47
673.718	48.51
674.043	49.24
674.368	48.88
674.693	49.41
675.018	49.27
675.343	48.75
675.667	49.65
675.992	49.33
676.317	49.19
676.641	49.68
676.966	48.97
677.29	49.11
677.615	49.98
677.939	49.27
678.264	49.5
678.588	48.6
678.912	50.23
679.236	50.17
679.56	49.77
679.885	50.37
680.209	49.37
680.532	49.01
680.856	49.51
681.18	49.65
681.504	50.05
681.828	50.26
682.152	50.09
682.475	49.65
682.799	50.15
683.122	49.61
683.446	50.94
683.769	50.24
684.093	50.19
684.416	50.02
684.739	50.1
685.062	49.73
685.386	49.97
685.709	49.99
686.032	50.47
686.355	49.81
686.678	50.72
687.001	49.88
687.324	50.9
687.646	51.12
687.969	49.96
688.292	50.57
688.614	49.78
688.937	49.96
689.26	49.95
689.582	50.54
689.904	49.73
690.227	51.04
690.549	51.73
690.871	50.35
691.194	50.61
691.516	50.72
691.838	51.2
692.16	51.28
692.482	50.9
692.804	50.61
693.126	50.69
693.448	51.51
693.769	51.18
694.091	51.03
694.413	50.57
694.735	51.8
695.056	51.04
695.378	51.64
695.699	51
696.021	51.57
696.342	50.45
696.663	51.01
696.984	50.34
697.306	51.42
697.627	50.77
697.948	51.97
698.269	50.24
698.59	51.22
698.911	51.66
699.232	51.21
699.553	51.32
699.873	52.16
700.194	52.37
700.515	51.64
700.835	51.39
701.156	51.25
701.477	51.85
701.797	51.24
702.117	51.96
702.438	52.04
702.758	51.61
703.078	51.67
703.398	51.72
703.719	52.66
704.039	50.65
704.359	52.03
704.679	52.69
704.999	50.95
705.319	52.4
705.638	52.76
705.958	51.97
706.278	52.21
706.597	52.18
706.917	51.91
707.237	52.42
707.556	52.17
707.876	52.58
708.195	52.9
708.514	52.56
708.834	53.79
709.153	52.93
709.472	52.43
709.791	53.26
710.11	51.63
710.429	51.66
710.748	53.34
711.067	52.08
711.386	52.35
711.705	53.05
712.023	52.82
712.342	52.73
712.661	51.91
712.979	52.8
713.298	52.37
713.616	53.53
713.935	52.4
714.253	52.4
714.572	52.41
714.89	53.51
715.208	52.48
715.526	52.18
715.844	52.2
716.162	52.86
716.48	53.93
716.798	53.01
717.116	52.92
717.434	53.13
717.752	52.57
718.069	53.1
718.387	52.06
718.705	52.66
719.022	53.4
719.34	52.79
719.657	52.84
719.975	53.55
720.292	53.68
720.609	53.95
720.927	54.66
721.244	52.61
721.561	53.41
721.878	53.76
722.195	54.54
722.512	54.64
722.829	52.69
723.146	53.54
723.463	53.08
723.779	54.18
724.096	52.38
724.413	54.01
724.729	54.06
725.046	53.99
725.362	54.57
725.679	53.77
725.995	54.61
726.311	56.18
726.628	54.87
726.944	54.58
727.26	53.63
727.576	54.55
727.892	54.01
728.208	54.7
728.524	53.67
728.84	53.96
729.156	55.51
729.472	53.86
729.787	55.36
730.103	54.39
730.419	54.19
730.734	53.38
731.05	54.7
731.365	54.4
731.681	53.95
731.996	55.3
732.311	54.73
732.626	55.57
732.942	55.35
733.257	54.19
733.572	54.85
733.887	54.33
734.202	54.29
734.517	54.78
734.832	55.33
735.146	56.24
735.461	54.46
735.776	55.37
736.091	53.8
736.405	54.53
736.72	55.02
737.034	54.34
737.349	54.45
737.663	54.8
737.977	55.33
738.292	54.08
738.606	53.07
738.92	54.24
739.234	56
739.548	54.05
739.862	53.3
740.176	54.92
740.49	54.54
740.804	55.95
741.117	54.04
741.431	55.11
741.745	55.65
742.058	54.98
742.372	53.74
742.685	55.8
742.999	54.86
743.312	55.37
743.626	55.45
743.939	56.46
744.252	56.86
744.565	55.27
744.878	54.49
745.191	55.99
745.505	54.83
745.817	54.29
746.13	54.64
746.443	55.43
746.756	55.82
747.069	56.44
747.381	55.57
747.694	54.9
748.007	56.29
748.319	57.03
748.632	54.82
748.944	54.97
749.256	54.63
749.569	55.45
749.881	55.14
750.193	55.15
750.505	54.4
750.817	57.27
751.129	54.63
751.441	55.25
751.753	55.03
752.065	57.42
752.377	55.43
752.689	57.15
753	56.9
753.312	54.8
753.624	54.4
753.935	56.11
754.247	56.28
754.558	56.67
754.869	55.94
755.181	54.17
755.492	54.87
755.803	55.82
756.114	56.22
756.425	56.85
756.736	57.92
757.047	55.09
757.358	56.2
757.669	55.75
757.98	55.28
758.291	57.03
758.601	56.44
758.912	57.1
759.223	56.85
759.533	57.15
759.844	56.19
760.154	57.05
760.464	56.74
760.775	55.68
761.085	54.77
761.395	59.47
761.705	57.15
762.016	56.37
762.326	58.08
762.636	57.93
762.945	55.66
763.255	56.83
763.565	56.2
763.875	56.49
764.185	57.85
764.494	57.94
764.804	57.72
765.113	56.39
765.423	55.77
765.732	56.15
766.042	57.55
766.351	57.39
766.66	56.64
766.97	56.19
767.279	57.55
767.588	56.06
767.897	55.86
768.206	55.4
768.515	55.65
768.824	56.12
769.133	54.77
769.441	56.78
769.75	56.4
770.059	56.03
770.367	57.18
770.676	57.69
770.984	59.59
771.293	54.98
771.601	55.81
771.91	57.69
772.218	58.79
772.526	56.84
772.834	57.95
773.142	56.43
773.45	55.19
773.758	55.46
774.066	59.92
774.374	59.44
774.682	57.42
774.99	56.9
775.298	57.6
775.605	56.83
775.913	60.08
776.22	58.46
776.528	55.65
776.835	56.6
777.143	56.54
777.45	61.43
777.757	56.42
778.065	58.23
778.372	57.18
778.679	57.21
778.986	60.56
779.293	58.97
779.6	58.27
779.907	62.21
780.214	58.74
780.52	63.27
780.827	55.87
781.134	57.68
781.44	55.92
781.747	61.72
782.053	57.66
782.36	57.61
782.666	57.62
782.973	61.31
783.279	60.87
783.585	59.68
783.891	60.02
784.197	57.73
784.503	59.56
784.809	61.24
785.115	56.04
785.421	60.85
785.727	57.66
786.033	60.14
786.339	54.86
786.644	63.1
786.95	56.82
787.255	59.77
787.561	59.33
787.866	55.67
788.172	62.04
788.477	60.26
788.782	59.27
789.088	57.83
789.393	58.67
789.698	58.33
790.003	58.74
790.308	58.51
790.613	59.33
790.918	59.24
791.223	60.08
791.527	53.8
791.832	58.29
792.137	58.92
792.441	61.59
792.746	61.17
793.05	54.2
793.355	61.15
793.659	58.47
793.963	60.98
794.268	59.62
794.572	59.8
794.876	61
795.18	55.57
795.484	56.86
795.788	63.66
796.092	61.66
796.396	58.92
796.7	61.76
797.004	59.98
797.307	64.38
797.611	57.95
797.915	60.09
798.218	55.76
798.522	57.56
798.825	67.62
799.128	56.22
799.432	60.7
799.735	58.42
800.038	57.76
800.341	59
800.644	60.89
800.947	57.21
801.25	57.53
801.553	60.63
801.856	58.31
802.159	60.43
802.462	58.64
802.764	59.24
803.067	59.35
803.37	60.86
803.672	57.52
803.975	59.32
804.277	57.97
804.579	59.26
804.882	58.45
805.184	62.09
805.486	53.05
805.788	58.77
806.09	64.81
806.392	61.57
806.694	62.03
806.996	57.83
807.298	61.59
807.6	58.54
807.902	54.72
808.203	58.58
808.505	62.85
808.807	59.61
809.108	58.09
809.409	63.5
809.711	57.91
810.012	59.79
810.313	55.44
810.615	58.94
810.916	57.2
811.217	63.79
811.518	58.69
811.819	61.53
812.12	62.99
812.421	60.75
812.722	63.42
813.023	54.46
813.323	60.41
813.624	61.11
813.925	64.31
814.225	54.51
814.526	57.27
814.826	60.74
815.126	53.29
815.427	64.76
815.727	59.82
816.027	61.99
816.327	67.13
816.627	63.44
816.927	57.31
817.227	56.76
817.527	57.1
817.827	59.26
818.127	57.58
818.427	64.81
818.727	60.06
819.026	53.56
819.326	59.04
819.625	60.64
819.925	62.94
820.224	64.89
820.524	61.98
820.823	56.07
821.122	58.55
821.421	64.08
821.72	64.96
822.019	52.7
822.318	61.1
822.617	54.39
822.916	60.25
823.215	56.4
823.514	61.66
823.813	60.31
824.111	61.4
824.41	59.34
824.709	59.38
825.007	60.29
825.306	60.58
825.604	59.35
825.902	59.88
826.201	60.41
826.499	58.77
826.797	59.12
827.095	59.19
827.393	58.29
827.691	59.04
827.989	59.56
828.287	60.9
828.585	58.61
828.882	58.93
829.18	60.96
829.478	61.17
829.775	60.82
830.073	60.56
830.37	60.83
830.668	59.61
830.965	60.13
831.263	59.25
831.56	61.13
831.857	56.71
832.154	58.76
832.451	59.16
832.748	65.53
833.045	57.98
833.342	65.25
833.639	63.76
833.936	57
834.232	58.84
834.529	59.4
834.826	57.52
835.122	66.27
835.419	64.78
835.715	60.83
836.012	64.82
836.308	63.58
836.604	64.28
836.901	61.85
837.197	64.01
837.493	65.99
837.789	58.64
838.085	62.06
838.381	63.53
838.677	62.05
838.972	63.16
839.268	60.14
839.564	58.83
839.86	62.63
840.155	58.65
840.451	74.48
840.746	67.36
841.042	63.25
841.337	57.2
841.632	59.45
841.928	61.11
842.223	63.97
842.518	56.92
842.813	52.44
843.108	63.58
843.403	62.62
843.698	72.94
843.993	65.94
844.287	71.23
844.582	58.53
844.877	62.56
845.171	64.57
845.466	72.72
845.761	55.14
846.055	65.94
846.349	60.93
846.644	66.36
846.938	66.13
847.232	68.69
847.526	60.45
847.82	55.4
848.114	73.29
848.408	65.82
848.702	55.73
848.996	60.41
849.29	68.3
849.584	72.8
849.877	65.18
850.171	64.03
850.465	78
850.758	53.37
851.052	59.12
851.345	60.85
851.638	70.59
851.932	59.16
852.225	64.47
852.518	77.82
852.811	81.71
853.104	90.13
853.397	71.92
853.69	77.3
853.983	52.58
854.276	59.75
854.569	58.52
854.861	70.99
855.154	75.63
855.447	61.54
855.739	70.22
856.032	83.9
856.324	69.47
856.616	50.14
856.909	77.55
857.201	73.18
857.493	68.24
857.785	69.13
858.077	77.15
858.369	68.3
858.661	75.04
858.953	66.76
859.245	49.04
859.537	57.15
859.829	72.97
860.12	68.7
860.412	88.85
860.703	71.92
860.995	68.02
861.286	63.43
861.578	75.48
861.869	70.32
862.16	91.47
862.452	62.91
862.743	81.49
863.034	45.68
863.325	45.27
863.616	61.32
863.907	68.45
864.198	73.76
864.488	70.03
864.779	69.46
865.07	75.02
865.36	56.83
865.651	89.95
865.941	83.58
866.232	68.76
866.522	69.41
866.813	73
867.103	119.63
867.393	91.23
867.683	82.93
867.973	79.51
868.263	64.33
868.553	77.31
868.843	60.65
869.133	60.59
869.423	49.05
869.713	57.93
870.002	70.64
870.292	94.09
870.582	113
870.871	91.67
871.161	101.55
871.45	79.57
871.739	67.69
872.029	67.61
872.318	94.44
872.607	73.58
872.896	64.59
873.185	80.56
873.474	65.52
873.763	91.87
874.052	71.15
874.341	65.7
874.63	76.28
874.918	59.02
875.207	98.49
875.496	67.12
875.784	57.99
876.073	68.48
876.361	114.99
876.649	68.84
876.938	61.93
877.226	57.47
877.514	63.67
877.802	59.32
878.09	104.92
878.378	62.24
878.666	55.91
878.954	42.48
879.242	48.78
879.53	75.98
879.817	76.22
880.105	77.07
880.392	70.39
880.68	52.95
880.967	69.45
881.255	72.83
881.542	57.69
881.83	79.27
882.117	81.24
882.404	80.82
882.691	79.95
882.978	67.5
883.265	51.16
883.552	74.54
883.839	56.66
884.126	75.97
884.413	76.96
884.699	65.84
884.986	59.57
885.273	68.92
885.559	68.92
885.846	68.92
