Data from 0233_forehead_Reflection__2__44.txt Node

Date: Fri Oct 20 21:00:40 CDT 2023
User: ToomeyLab
Spectrometer: FLMS14357
Trigger mode: 0
Integration Time (sec): 1.000000E-2
Scans to average: 100
Electric dark correction enabled: true
Nonlinearity correction enabled: false
Boxcar width: 0
XAxis mode: Wavelengths
Number of Pixels in Spectrum: 2048
>>>>>Begin Spectral Data<<<<<
189.047	87.08
189.435	87.08
189.823	87.08
190.211	264.3
190.599	-258.65
190.987	-21.14
191.375	92.4
191.763	95.27
192.151	-131.69
192.538	-56.97
192.926	133.57
193.314	242.94
193.702	225.55
194.089	114.85
194.477	193.51
194.864	138.47
195.252	-505.67
195.639	-33.45
196.027	-189.3
196.414	88.36
196.801	503.42
197.189	77.65
197.576	6.83
197.963	150.21
198.351	50.79
198.738	72.16
199.125	59.36
199.512	47.06
199.899	44.04
200.286	24.77
200.673	68.44
201.06	26.43
201.447	56.56
201.833	59.1
202.22	54.75
202.607	69.14
202.994	53.98
203.38	74.2
203.767	36.76
204.154	69.03
204.54	79.19
204.927	44.04
205.313	52.78
205.699	41.76
206.086	106.97
206.472	53.47
206.858	40.82
207.245	38.3
207.631	43.06
208.017	36.51
208.403	39.11
208.789	42.29
209.175	34.56
209.561	77.03
209.947	36.89
210.333	6.04
210.719	19.41
211.105	48.19
211.491	54.22
211.876	-1.85
212.262	38.55
212.648	51.81
213.034	31.21
213.419	38.16
213.805	43.23
214.19	30
214.576	12.67
214.961	32.5
215.346	58.18
215.732	28.01
216.117	3.25
216.502	40.38
216.888	36.11
217.273	39.37
217.658	45.07
218.043	17.69
218.428	15.37
218.813	24.33
219.198	38.8
219.583	1.61
219.968	10
220.353	23.88
220.738	33.79
221.122	16.55
221.507	26.38
221.892	14.23
222.276	19.33
222.661	31.75
223.046	39.03
223.43	32.08
223.815	25.77
224.199	25.21
224.583	9.37
224.968	13.95
225.352	12.97
225.736	11.29
226.121	14.29
226.505	16.27
226.889	4.97
227.273	10.14
227.657	16.07
228.041	12.11
228.425	11.97
228.809	11.56
229.193	11.47
229.577	9.71
229.961	3.98
230.344	5.44
230.728	3.87
231.112	5.62
231.495	4.88
231.879	5.29
232.263	5.85
232.646	4.24
233.03	4.89
233.413	4.86
233.797	7.67
234.18	6.93
234.563	9.01
234.946	7.92
235.33	9.16
235.713	5.42
236.096	6.83
236.479	5.06
236.862	5.53
237.245	4.47
237.628	5.88
238.011	7.5
238.394	5.12
238.777	6.6
239.16	5.85
239.543	8
239.925	8.73
240.308	7.04
240.691	7.01
241.073	7.7
241.456	7.49
241.838	4.96
242.221	6.09
242.603	6.27
242.986	4.98
243.368	4.93
243.75	4.25
244.133	4.51
244.515	4.09
244.897	4.29
245.279	4.18
245.661	4.22
246.043	4.51
246.425	4.38
246.807	5.17
247.189	4.77
247.571	5.49
247.953	4.64
248.335	5.01
248.717	4.43
249.098	4.11
249.48	3.96
249.862	4.48
250.243	4.9
250.625	4.76
251.006	5.11
251.388	5.4
251.769	5.42
252.151	4.46
252.532	4.51
252.913	5.79
253.295	3.47
253.676	5.45
254.057	4.14
254.438	4.58
254.819	4.87
255.2	4.91
255.581	5.69
255.962	5.24
256.343	6.41
256.724	4.18
257.105	5.62
257.486	5.94
257.867	4.58
258.247	5.76
258.628	5.08
259.009	4.82
259.389	4.92
259.77	4.31
260.15	5.01
260.531	4.47
260.911	5.28
261.292	4.42
261.672	4.48
262.052	4.5
262.432	4.36
262.813	4.19
263.193	4.95
263.573	5.22
263.953	5.07
264.333	5.09
264.713	5.13
265.093	5.37
265.473	5.21
265.853	4.93
266.233	5.25
266.612	5.33
266.992	5.28
267.372	4.94
267.752	4.88
268.131	4.96
268.511	5.13
268.89	4.88
269.27	4.84
269.649	4.01
270.029	4.3
270.408	5.4
270.787	5.15
271.167	4.86
271.546	5.01
271.925	5.47
272.304	5.37
272.683	4.8
273.062	5.06
273.441	4.76
273.82	4.78
274.199	4.73
274.578	4.98
274.957	4.75
275.336	4.9
275.715	4.3
276.093	4.97
276.472	4.96
276.851	4.84
277.229	4.75
277.608	4.65
277.986	4.7
278.365	5.36
278.743	4.43
279.122	4.68
279.5	4.54
279.878	4.2
280.257	4.32
280.635	4.86
281.013	4.45
281.391	4.82
281.769	4.46
282.147	4.44
282.525	4.69
282.903	4.27
283.281	5.01
283.659	4.74
284.037	4.93
284.415	4.17
284.792	4.57
285.17	4.74
285.548	4.42
285.925	4.54
286.303	4.29
286.68	4.65
287.058	4.94
287.435	4.57
287.813	4.17
288.19	4.43
288.567	4.46
288.945	4.88
289.322	5.42
289.699	3.98
290.076	5.23
290.453	5.15
290.83	4.89
291.207	5.16
291.584	4.69
291.961	4.92
292.338	4.66
292.715	4.92
293.092	4.68
293.469	5.42
293.845	5.2
294.222	5.29
294.599	5.57
294.975	5.88
295.352	5.51
295.728	5.65
296.105	4.91
296.481	5.18
296.858	5.36
297.234	4.85
297.61	5.05
297.986	5.25
298.363	5.68
298.739	5.25
299.115	5.43
299.491	5.51
299.867	5.34
300.243	5.25
300.619	5.62
300.995	5.27
301.371	5.93
301.746	5.98
302.122	5.74
302.498	5.99
302.874	5.7
303.249	6.17
303.625	6.16
304	6.25
304.376	6.06
304.751	5.56
305.127	6.32
305.502	6.73
305.878	6.51
306.253	6.64
306.628	6.04
307.003	6.31
307.378	6.47
307.754	6.6
308.129	6.68
308.504	6.78
308.879	6.75
309.254	7.21
309.629	6.85
310.003	6.61
310.378	7.29
310.753	6.94
311.128	7.13
311.502	7.46
311.877	7.04
312.252	6.84
312.626	7.16
313.001	6.99
313.375	7.19
313.75	7.25
314.124	7.28
314.498	7.52
314.873	7.16
315.247	7.73
315.621	7.36
315.995	7.76
316.369	7.31
316.743	7.86
317.117	7.66
317.491	7.36
317.865	8.67
318.239	8.56
318.613	7.99
318.987	8.11
319.361	8.03
319.734	8.18
320.108	8.15
320.482	8.44
320.855	8.45
321.229	9.06
321.602	8.87
321.976	8.75
322.349	8.99
322.723	8.74
323.096	8.96
323.469	9.11
323.843	9.13
324.216	8.43
324.589	8.78
324.962	9.74
325.335	9.25
325.708	8.65
326.081	9.87
326.454	8.99
326.827	9.94
327.2	9.68
327.573	9.88
327.945	9.61
328.318	9.11
328.691	9.28
329.063	9.84
329.436	9.5
329.809	9.86
330.181	10.41
330.553	9.84
330.926	10.22
331.298	10.53
331.671	10.23
332.043	9.93
332.415	9.95
332.787	11.19
333.159	10.15
333.532	10.37
333.904	10.7
334.276	10.74
334.648	10.55
335.02	10.9
335.391	9.96
335.763	11.13
336.135	11.15
336.507	11.04
336.879	10.75
337.25	11
337.622	11.05
337.993	11.31
338.365	10.76
338.736	11.3
339.108	11.35
339.479	11.11
339.851	11.07
340.222	11.45
340.593	11.16
340.964	10.93
341.336	11.77
341.707	11.71
342.078	11.77
342.449	11.7
342.82	11.32
343.191	11.45
343.562	11.78
343.933	11.45
344.303	11.93
344.674	12.24
345.045	12.46
345.416	12.23
345.786	12.06
346.157	12.42
346.527	12.03
346.898	12.38
347.268	12.21
347.639	12.46
348.009	12.09
348.38	12.48
348.75	12.48
349.12	12.66
349.49	12.22
349.861	12.83
350.231	12.44
350.601	12.59
350.971	13.19
351.341	12.99
351.711	13.27
352.081	13.14
352.45	13.07
352.82	13.35
353.19	13.91
353.56	13.35
353.929	13.04
354.299	13.18
354.669	13.5
355.038	13.59
355.408	13.35
355.777	13.78
356.147	13.26
356.516	13.29
356.885	13.54
357.254	13.58
357.624	13.66
357.993	13.49
358.362	13.58
358.731	13.69
359.1	13.26
359.469	13.68
359.838	13.75
360.207	14
360.576	14.09
360.945	13.88
361.314	13.87
361.682	13.9
362.051	14.01
362.42	13.99
362.788	14.28
363.157	13.93
363.525	14.1
363.894	13.93
364.262	14.18
364.631	14.07
364.999	14.61
365.367	14.47
365.735	14.55
366.104	14.75
366.472	14.65
366.84	14.62
367.208	14.83
367.576	14.68
367.944	14.94
368.312	15.06
368.68	15.3
369.048	15.01
369.416	15.37
369.783	15.35
370.151	14.95
370.519	14.99
370.886	15.67
371.254	15.51
371.621	15.72
371.989	15.59
372.356	15.73
372.724	16.04
373.091	15.66
373.458	15.78
373.826	15.96
374.193	15.68
374.56	16.03
374.927	16.06
375.294	15.94
375.661	16.32
376.028	16.42
376.395	16.04
376.762	16.09
377.129	16.51
377.496	16.64
377.863	16.55
378.229	16.54
378.596	16.47
378.963	16.59
379.329	16.4
379.696	16.61
380.062	16.71
380.429	16.68
380.795	16.42
381.161	17.13
381.528	17.24
381.894	16.97
382.26	17.17
382.626	17.31
382.993	17.17
383.359	17.01
383.725	17.48
384.091	17.29
384.457	17.8
384.823	17.5
385.188	17.8
385.554	17.43
385.92	17.44
386.286	17.71
386.651	17.23
387.017	17.84
387.383	17.55
387.748	17.65
388.114	17.85
388.479	18.15
388.845	18.14
389.21	18.14
389.575	17.7
389.94	17.97
390.306	18.15
390.671	18.17
391.036	18.4
391.401	18.52
391.766	18.54
392.131	18.47
392.496	18.57
392.861	18.72
393.226	18.55
393.591	18.59
393.956	18.53
394.32	18.66
394.685	18.7
395.05	19.12
395.414	19.01
395.779	18.68
396.143	19.11
396.508	18.86
396.872	19.07
397.236	19.08
397.601	19.1
397.965	19.07
398.329	19.1
398.694	19.58
399.058	19.44
399.422	19.64
399.786	19.54
400.15	19.65
400.514	19.43
400.878	19.66
401.242	19.93
401.605	19.8
401.969	19.67
402.333	20.04
402.697	20.3
403.06	19.95
403.424	20.21
403.787	20
404.151	20.07
404.514	20.31
404.878	20.37
405.241	20.45
405.604	20.26
405.968	20.56
406.331	20.44
406.694	20.06
407.057	20.43
407.42	20.78
407.783	20.79
408.146	21
408.509	20.72
408.872	20.95
409.235	21.16
409.598	20.95
409.961	21.5
410.323	21.28
410.686	20.94
411.049	21.47
411.411	21.62
411.774	21.47
412.136	21.16
412.499	21.52
412.861	21.63
413.223	21.67
413.586	21.74
413.948	21.76
414.31	21.88
414.672	21.9
415.035	21.95
415.397	22.23
415.759	22
416.121	21.97
416.483	22.04
416.845	22.09
417.206	22.46
417.568	22.44
417.93	22.04
418.292	22.05
418.653	22.2
419.015	22.1
419.377	22.15
419.738	22.29
420.1	22.21
420.461	22.16
420.822	22.26
421.184	22.16
421.545	22.34
421.906	22.42
422.267	22.27
422.629	22.37
422.99	22.42
423.351	22.22
423.712	22.37
424.073	22.57
424.434	22.56
424.795	22.75
425.155	22.83
425.516	22.86
425.877	22.95
426.238	22.69
426.598	22.62
426.959	22.89
427.32	23.02
427.68	23.05
428.041	23.26
428.401	23.26
428.761	23.61
429.122	23.6
429.482	23.9
429.842	23.73
430.202	23.97
430.563	24.04
430.923	24.1
431.283	24.22
431.643	24.37
432.003	24.3
432.363	24.33
432.722	24.52
433.082	24.42
433.442	24.58
433.802	24.36
434.161	24.42
434.521	24.61
434.881	24.41
435.24	24.49
435.6	24.5
435.959	24.5
436.319	24.55
436.678	24.86
437.037	24.69
437.396	25.27
437.756	25.02
438.115	25.12
438.474	25.26
438.833	25.15
439.192	25.07
439.551	25.21
439.91	25.38
440.269	25.35
440.628	25.49
440.987	25.28
441.345	25.28
441.704	25.35
442.063	25.4
442.421	25.5
442.78	25.44
443.138	25.67
443.497	25.63
443.855	25.81
444.214	25.77
444.572	25.8
444.93	26.13
445.288	26.35
445.647	26.28
446.005	26.12
446.363	26.24
446.721	26.17
447.079	26.31
447.437	26.22
447.795	25.94
448.153	25.96
448.51	25.95
448.868	26.04
449.226	26.08
449.584	26.26
449.941	26.25
450.299	26.47
450.656	26.62
451.014	26.89
451.371	26.88
451.729	26.94
452.086	27.03
452.443	27.07
452.801	27.09
453.158	27.46
453.515	27.33
453.872	27.47
454.229	27.51
454.586	27.53
454.943	27.56
455.3	27.52
455.657	27.67
456.014	27.76
456.371	27.66
456.727	27.87
457.084	27.76
457.441	27.93
457.797	27.99
458.154	27.96
458.51	28.13
458.867	28.08
459.223	28.28
459.58	28.39
459.936	28.32
460.292	28.03
460.648	28.22
461.005	28.3
461.361	28.3
461.717	27.8
462.073	27.81
462.429	28.11
462.785	28.14
463.141	28.49
463.496	28.67
463.852	28.84
464.208	29.01
464.564	29.09
464.919	29.09
465.275	29.24
465.631	29.68
465.986	29.53
466.342	29.47
466.697	29.48
467.052	29.38
467.408	29.35
467.763	29.6
468.118	30.03
468.473	29.52
468.829	29.72
469.184	29.63
469.539	29.9
469.894	30
470.249	29.75
470.603	29.93
470.958	30.21
471.313	30.22
471.668	30.15
472.023	30.12
472.377	30.44
472.732	30.32
473.086	30.61
473.441	30.46
473.795	30.85
474.15	30.61
474.504	30.42
474.859	30.76
475.213	30.77
475.567	30.8
475.921	30.74
476.275	30.87
476.63	31.18
476.984	31.37
477.338	31.13
477.692	31.25
478.045	31.19
478.399	30.86
478.753	31.23
479.107	31.07
479.461	31.33
479.814	31.33
480.168	31.38
480.521	31.21
480.875	31.38
481.228	31.42
481.582	31.62
481.935	31.65
482.289	31.52
482.642	31.54
482.995	31.53
483.348	31.52
483.701	31.52
484.055	31.55
484.408	31.38
484.761	31.21
485.114	31.04
485.466	30.75
485.819	30.59
486.172	30.66
486.525	30.74
486.878	30.91
487.23	31.11
487.583	31.43
487.936	31.53
488.288	31.66
488.641	31.76
488.993	31.55
489.345	31.4
489.698	31.42
490.05	31.42
490.402	31.4
490.754	31.55
491.107	31.85
491.459	32.16
491.811	32.37
492.163	32.6
492.515	32.66
492.866	32.45
493.218	32.29
493.57	32.1
493.922	32.02
494.274	32.11
494.625	32.34
494.977	32.7
495.328	32.94
495.68	33.37
496.031	33.35
496.383	33.69
496.734	33.71
497.086	33.74
497.437	33.92
497.788	33.7
498.139	33.89
498.49	33.61
498.842	33.59
499.193	33.74
499.544	33.75
499.894	33.75
500.245	33.88
500.596	34.11
500.947	33.97
501.298	34.22
501.648	34.03
501.999	34.57
502.35	34.49
502.7	34.71
503.051	34.7
503.401	34.73
503.752	34.95
504.102	34.92
504.452	35.33
504.803	34.99
505.153	35.12
505.503	34.93
505.853	35.07
506.203	34.81
506.553	35.09
506.903	35.07
507.253	35.3
507.603	35.29
507.953	35.47
508.303	35.4
508.652	35.33
509.002	35.42
509.352	35.75
509.701	35.5
510.051	35.46
510.4	35.55
510.75	35.47
511.099	35.44
511.449	35.62
511.798	35.57
512.147	35.57
512.496	35.85
512.846	35.79
513.195	35.9
513.544	35.94
513.893	35.95
514.242	35.93
514.591	36.04
514.939	36.1
515.288	36.13
515.637	36.31
515.986	36.53
516.334	36.27
516.683	36.55
517.032	36.6
517.38	36.58
517.729	36.77
518.077	36.88
518.426	36.84
518.774	36.97
519.122	36.76
519.47	36.7
519.819	36.7
520.167	36.61
520.515	36.46
520.863	36.44
521.211	36.7
521.559	36.61
521.907	36.63
522.255	36.91
522.602	37.2
522.95	37.34
523.298	37.59
523.645	37.61
523.993	37.79
524.341	37.61
524.688	37.89
525.036	37.72
525.383	37.73
525.73	38.11
526.078	38
526.425	38.07
526.772	37.96
527.119	37.72
527.466	37.49
527.814	37.65
528.161	37.66
528.508	37.62
528.854	37.7
529.201	37.78
529.548	37.83
529.895	37.63
530.242	37.29
530.588	37.05
530.935	37.28
531.282	37.34
531.628	37.53
531.975	37.56
532.321	37.83
532.667	38.06
533.014	38.51
533.36	38.46
533.706	38.58
534.052	38.57
534.399	38.54
534.745	38.45
535.091	38.38
535.437	38
535.783	38.16
536.129	38.53
536.474	38.61
536.82	38.87
537.166	38.89
537.512	39.16
537.857	39.13
538.203	39.29
538.549	39.19
538.894	39.17
539.239	39.09
539.585	39.37
539.93	39.58
540.276	39.7
540.621	40.01
540.966	40.03
541.311	40.25
541.656	40.12
542.001	40.33
542.346	40.07
542.691	39.78
543.036	39.54
543.381	39.06
543.726	39.22
544.071	39.35
544.415	39.47
544.76	39.79
545.105	39.83
545.449	39.92
545.794	40.25
546.138	40.2
546.483	40.22
546.827	40.67
547.171	40.85
547.516	40.76
547.86	40.78
548.204	40.89
548.548	40.96
548.892	40.66
549.236	40.89
549.58	40.98
549.924	40.95
550.268	41.26
550.612	41.71
550.956	41.73
551.3	41.95
551.643	41.66
551.987	41.79
552.33	41.92
552.674	41.97
553.017	42.22
553.361	42.13
553.704	42.19
554.048	42.18
554.391	42.26
554.734	42.23
555.077	42.09
555.42	42.22
555.764	42.16
556.107	42.24
556.45	42.52
556.793	42.41
557.135	42.34
557.478	42.76
557.821	43.03
558.164	43.24
558.507	42.78
558.849	43.21
559.192	43.12
559.534	43.29
559.877	43.16
560.219	43.35
560.562	43.37
560.904	43.2
561.246	43.67
561.589	43.16
561.931	43.74
562.273	43.62
562.615	43.59
562.957	43.44
563.299	43.61
563.641	44.04
563.983	43.53
564.325	43.9
564.667	43.68
565.008	43.98
565.35	43.87
565.692	43.84
566.033	44.2
566.375	44.02
566.716	44.21
567.058	44.13
567.399	44.27
567.741	44.12
568.082	44.02
568.423	44.13
568.764	44.01
569.105	44.39
569.447	44.01
569.788	44.37
570.129	44.48
570.47	44.56
570.811	44.5
571.151	44.72
571.492	44.87
571.833	44.76
572.174	44.82
572.514	45.11
572.855	44.87
573.195	45.12
573.536	44.58
573.876	44.86
574.217	44.54
574.557	44.82
574.898	44.8
575.238	45.08
575.578	45.08
575.918	45.33
576.258	45.22
576.598	45.51
576.938	45.36
577.278	45.28
577.618	45.45
577.958	45.42
578.298	45.44
578.638	45.66
578.977	45.79
579.317	45.98
579.657	46.05
579.996	46.08
580.336	46.07
580.675	46.05
581.014	46.44
581.354	46.31
581.693	46.17
582.032	46.83
582.372	46.54
582.711	46.7
583.05	47.02
583.389	46.91
583.728	47.01
584.067	46.65
584.406	46.87
584.745	47.01
585.083	47.04
585.422	47.12
585.761	47.1
586.1	47.23
586.438	47.19
586.777	46.78
587.115	47.23
587.454	47.15
587.792	47.11
588.13	47.17
588.469	47.05
588.807	47.29
589.145	47.44
589.483	47.58
589.821	47.56
590.159	47.69
590.497	47.89
590.835	47.62
591.173	47.42
591.511	47.55
591.849	47.91
592.187	47.73
592.524	47.53
592.862	47.9
593.2	47.96
593.537	48
593.875	48.13
594.212	48.35
594.55	48.12
594.887	48.19
595.224	47.92
595.561	48.25
595.899	48.62
596.236	48.47
596.573	48.52
596.91	48.36
597.247	48.21
597.584	48.39
597.921	48.38
598.258	48.48
598.594	48.59
598.931	48.33
599.268	48.12
599.604	48.32
599.941	48.54
600.277	48.61
600.614	48.67
600.95	49.2
601.287	49.02
601.623	49.43
601.959	49.24
602.296	49.13
602.632	49.67
602.968	49.12
603.304	49.51
603.64	49.37
603.976	49.39
604.312	49.71
604.648	49.57
604.984	48.94
605.319	49.19
605.655	49.54
605.991	49.43
606.326	49.12
606.662	49.3
606.998	49.25
607.333	49.26
607.668	49.03
608.004	49.4
608.339	49.51
608.674	49.77
609.01	49.75
609.345	50.38
609.68	50.31
610.015	50.4
610.35	50.2
610.685	50.24
611.02	50.15
611.355	50.09
611.689	50
612.024	49.98
612.359	50.04
612.694	50.29
613.028	50.39
613.363	50.27
613.697	50.68
614.032	50.81
614.366	50.58
614.7	50.91
615.035	50.95
615.369	51
615.703	51.16
616.037	51.39
616.371	51.05
616.705	51.21
617.039	51.47
617.373	51.35
617.707	51.39
618.041	51.16
618.375	51.23
618.709	51.3
619.042	51.18
619.376	51.43
619.71	51.48
620.043	51.75
620.377	51.22
620.71	51.67
621.043	51.22
621.377	51.12
621.71	51.92
622.043	51.54
622.376	52.58
622.709	51.89
623.043	51.83
623.376	51.94
623.709	52.06
624.041	51.79
624.374	52.31
624.707	52.16
625.04	52.35
625.373	52.47
625.705	52.1
626.038	52.77
626.37	52.28
626.703	52.12
627.035	52.61
627.368	52.67
627.7	52.55
628.032	52.71
628.365	52.49
628.697	52.76
629.029	52.52
629.361	52.87
629.693	52.62
630.025	52.19
630.357	52.83
630.689	53.22
631.021	52.59
631.353	53.06
631.684	52.8
632.016	53.42
632.348	52.99
632.679	52.79
633.011	53.1
633.342	53.34
633.674	53.59
634.005	53.74
634.336	53.62
634.668	52.96
634.999	53.88
635.33	53.24
635.661	53.61
635.992	53.57
636.323	53.68
636.654	53.76
636.985	53.72
637.316	53.47
637.647	53.32
637.977	53.72
638.308	54.13
638.639	54.03
638.969	53.35
639.3	53.79
639.63	54.01
639.961	53.85
640.291	53.9
640.622	54.26
640.952	54.32
641.282	53.65
641.612	53.99
641.943	54.15
642.273	53.98
642.603	54.22
642.933	54.65
643.263	55.01
643.592	54.66
643.922	54.37
644.252	54.75
644.582	54.93
644.911	54.68
645.241	55.25
645.571	55.43
645.9	54.43
646.23	54.64
646.559	55.09
646.888	54.9
647.218	55.53
647.547	54.82
647.876	55.32
648.205	55.11
648.534	54.92
648.863	55.65
649.192	55.02
649.521	54.76
649.85	55.56
650.179	55.03
650.508	55.29
650.837	55.19
651.165	55.42
651.494	55.93
651.822	55.72
652.151	55.17
652.479	55.43
652.808	55.53
653.136	55.25
653.465	55.81
653.793	55.03
654.121	55.29
654.449	55.41
654.777	55.91
655.105	55.17
655.433	55.76
655.761	55.73
656.089	55.68
656.417	55.83
656.745	56.68
657.073	55.72
657.4	56.34
657.728	55.44
658.056	56.68
658.383	55.95
658.711	56.61
659.038	56.01
659.365	56.48
659.693	56.14
660.02	56.43
660.347	56.9
660.674	55.9
661.001	55.8
661.329	56.37
661.656	56.37
661.982	56.34
662.309	56.88
662.636	56.4
662.963	55.78
663.29	56.24
663.616	56.73
663.943	56.76
664.27	57.41
664.596	56.48
664.923	56.54
665.249	56.73
665.576	57.33
665.902	56.66
666.228	56.47
666.554	57.6
666.881	57.18
667.207	57.49
667.533	57.3
667.859	57.64
668.185	57.57
668.511	57.01
668.837	57.06
669.162	57.51
669.488	57.6
669.814	56.41
670.139	58.06
670.465	57.34
670.791	57.6
671.116	57.52
671.442	57.92
671.767	57.6
672.092	58.46
672.418	58.08
672.743	57.43
673.068	58.16
673.393	57.91
673.718	57.75
674.043	58.43
674.368	57
674.693	58.66
675.018	58.29
675.343	57.76
675.667	58.33
675.992	58.38
676.317	57.55
676.641	58.28
676.966	58.23
677.29	57.4
677.615	58.12
677.939	57.53
678.264	58.14
678.588	58.39
678.912	58.5
679.236	58.24
679.56	58.61
679.885	58.43
680.209	57.82
680.532	57.78
680.856	58.04
681.18	59.24
681.504	59.09
681.828	59.14
682.152	58.12
682.475	58.42
682.799	58.55
683.122	59.05
683.446	58.95
683.769	59.45
684.093	58.63
684.416	59.08
684.739	59.14
685.062	59.05
685.386	58.73
685.709	59.34
686.032	58.38
686.355	58.96
686.678	59.39
687.001	59.41
687.324	58.53
687.646	60.97
687.969	59.32
688.292	60.4
688.614	58.51
688.937	59.33
689.26	59.29
689.582	59.69
689.904	59.6
690.227	59.72
690.549	59.36
690.871	60.08
691.194	60.5
691.516	59.21
691.838	59.94
692.16	59.77
692.482	59.78
692.804	59.47
693.126	60.66
693.448	60.72
693.769	60.07
694.091	60.62
694.413	60.15
694.735	60.53
695.056	60.82
695.378	60.09
695.699	60.46
696.021	60.48
696.342	59.86
696.663	60.42
696.984	60.51
697.306	60.21
697.627	60.22
697.948	61.72
698.269	60.11
698.59	60.66
698.911	60.61
699.232	60.66
699.553	60.1
699.873	60.8
700.194	60.52
700.515	60.95
700.835	60.14
701.156	60.41
701.477	60.99
701.797	60.52
702.117	60.54
702.438	61.39
702.758	60.6
703.078	60.62
703.398	61.63
703.719	61.47
704.039	60.4
704.359	60.47
704.679	61.75
704.999	61.22
705.319	61.34
705.638	62.42
705.958	61.68
706.278	61.66
706.597	61.08
706.917	60.57
707.237	61.39
707.556	61.13
707.876	61.94
708.195	61.35
708.514	62.38
708.834	62.71
709.153	61.51
709.472	61.68
709.791	62.2
710.11	62.33
710.429	61.15
710.748	61.36
711.067	62.12
711.386	61.75
711.705	61.4
712.023	62.06
712.342	61.72
712.661	61.25
712.979	62.36
713.298	61.73
713.616	61.67
713.935	61.62
714.253	62.14
714.572	62.46
714.89	62.01
715.208	60.93
715.526	61.39
715.844	62.34
716.162	61.79
716.48	64.09
716.798	62.56
717.116	63.15
717.434	62.58
717.752	61.79
718.069	61.69
718.387	62.35
718.705	62.52
719.022	63.3
719.34	62.03
719.657	62.27
719.975	62.42
720.292	63.6
720.609	63.88
720.927	62.75
721.244	62.62
721.561	63.31
721.878	62.24
722.195	63.48
722.512	63.84
722.829	63.41
723.146	63.07
723.463	62.41
723.779	62.86
724.096	61.83
724.413	63.32
724.729	63.38
725.046	63.35
725.362	62.42
725.679	62.98
725.995	64.43
726.311	63.01
726.628	62.44
726.944	62.71
727.26	61.96
727.576	64.16
727.892	64.4
728.208	63.38
728.524	64.27
728.84	64.92
729.156	64.02
729.472	62.86
729.787	63.71
730.103	63.38
730.419	63.26
730.734	62.38
731.05	62.2
731.365	63.11
731.681	64.08
731.996	63.28
732.311	65.59
732.626	63.74
732.942	64.1
733.257	63.11
733.572	64.29
733.887	64.11
734.202	64.51
734.517	63.75
734.832	63.63
735.146	65.08
735.461	63.84
735.776	63.35
736.091	63.61
736.405	64.04
736.72	65.18
737.034	63.03
737.349	64.39
737.663	64.44
737.977	62.75
738.292	63.75
738.606	63.52
738.92	64.2
739.234	64.34
739.548	62.83
739.862	63.37
740.176	64.56
740.49	63.82
740.804	63.86
741.117	64.96
741.431	64.13
741.745	65
742.058	63.71
742.372	64.1
742.685	64.16
742.999	65.66
743.312	66.24
743.626	65.6
743.939	64.11
744.252	67.09
744.565	65.67
744.878	62.82
745.191	66.23
745.505	63.63
745.817	64.95
746.13	65.9
746.443	65.12
746.756	64.13
747.069	64.77
747.381	65.95
747.694	66.53
748.007	65.75
748.319	65.95
748.632	67.16
748.944	64.97
749.256	65.66
749.569	66.06
749.881	66.2
750.193	66.82
750.505	64.64
750.817	66.44
751.129	65.34
751.441	63.95
751.753	64.43
752.065	65.35
752.377	65.78
752.689	64.6
753	64.17
753.312	67.2
753.624	64.86
753.935	66.99
754.247	65.35
754.558	66.06
754.869	65.82
755.181	66.43
755.492	65.35
755.803	65.32
756.114	64.41
756.425	66.89
756.736	65.76
757.047	66.79
757.358	64.08
757.669	66.35
757.98	67.36
758.291	66.88
758.601	66.29
758.912	66.35
759.223	64.62
759.533	66.1
759.844	67.83
760.154	66.57
760.464	65.02
760.775	65.09
761.085	65.36
761.395	66.94
761.705	68.91
762.016	65.66
762.326	67.62
762.636	68.74
762.945	64.71
763.255	67.57
763.565	66.09
763.875	66.27
764.185	65.79
764.494	67.7
764.804	67.14
765.113	69.08
765.423	68.41
765.732	65.03
766.042	66.53
766.351	65.9
766.66	67.34
766.97	65.7
767.279	67.41
767.588	65.99
767.897	67.23
768.206	66.14
768.515	66.33
768.824	67.29
769.133	64.94
769.441	66.85
769.75	65.98
770.059	66.08
770.367	68.47
770.676	67.35
770.984	69.79
771.293	66.56
771.601	68.47
771.91	68.1
772.218	66.7
772.526	65.91
772.834	66.93
773.142	68
773.45	62.86
773.758	69.06
774.066	66.57
774.374	67.94
774.682	67.18
774.99	65.77
775.298	67.08
775.605	67.1
775.913	68.12
776.22	67.74
776.528	68.78
776.835	64.91
777.143	68.25
777.45	69.93
777.757	66.46
778.065	68.21
778.372	64.59
778.679	68.21
778.986	70.26
779.293	67.39
779.6	68.79
779.907	67.33
780.214	64.05
780.52	68.47
780.827	68.32
781.134	68.17
781.44	66.8
781.747	70.36
782.053	71.65
782.36	65.9
782.666	68.5
782.973	68.45
783.279	65.32
783.585	66.78
783.891	69.47
784.197	68.15
784.503	68.19
784.809	70.89
785.115	68.69
785.421	69.47
785.727	67.68
786.033	72.64
786.339	63.82
786.644	68.33
786.95	65.85
787.255	71.22
787.561	69.06
787.866	69.36
788.172	69.76
788.477	70.31
788.782	68.21
789.088	68.34
789.393	70.07
789.698	68.34
790.003	67.92
790.308	66.25
790.613	66.66
790.918	70.73
791.223	72.01
791.527	67.46
791.832	66.75
792.137	67.92
792.441	69.15
792.746	68.27
793.05	66.02
793.355	72.95
793.659	66.57
793.963	70.78
794.268	68.49
794.572	67.35
794.876	69.44
795.18	62.74
795.484	68.54
795.788	73.3
796.092	66.49
796.396	69.85
796.7	68.67
797.004	71.04
797.307	73.5
797.611	68.31
797.915	70.09
798.218	70.89
798.522	66.89
798.825	71.11
799.128	66.82
799.432	70.14
799.735	67.61
800.038	70.48
800.341	64.15
800.644	72.65
800.947	67.92
801.25	66.34
801.553	68.97
801.856	68.52
802.159	65.75
802.462	68.53
802.764	72.09
803.067	68.65
803.37	67.75
803.672	70.73
803.975	68.81
804.277	70.01
804.579	69.26
804.882	69.36
805.184	69.69
805.486	67.41
805.788	69.69
806.09	68.36
806.392	72.05
806.694	68.55
806.996	72.48
807.298	68.62
807.6	67.17
807.902	68.27
808.203	65.75
808.505	71.62
808.807	71.19
809.108	73.57
809.409	75.33
809.711	69.46
810.012	71.53
810.313	66.96
810.615	70.36
810.916	73.49
811.217	69.46
811.518	68
811.819	72.92
812.12	71.99
812.421	64.68
812.722	74.85
813.023	66.95
813.323	61.9
813.624	72.91
813.925	75.04
814.225	65.06
814.526	71.82
814.826	68.15
815.126	69.44
815.427	73.78
815.727	69.83
816.027	66.87
816.327	71.44
816.627	75.48
816.927	73.52
817.227	62.16
817.527	67.74
817.827	69.44
818.127	65.34
818.427	69.1
818.727	68.16
819.026	68.51
819.326	70.62
819.625	69.42
819.925	76.83
820.224	77.32
820.524	71.27
820.823	72.25
821.122	67.75
821.421	75.82
821.72	71.3
822.019	63.94
822.318	72.28
822.617	68.17
822.916	70.25
823.215	67.05
823.514	73.09
823.813	69.1
824.111	67.9
824.41	72.52
824.709	69.8
825.007	69.28
825.306	70.12
825.604	69.49
825.902	70.26
826.201	70.55
826.499	70.15
826.797	69.07
827.095	69.25
827.393	69.18
827.691	70.43
827.989	69.18
828.287	74.54
828.585	70.22
828.882	71.55
829.18	71.04
829.478	70.01
829.775	73.18
830.073	71.22
830.37	70.96
830.668	70.94
830.965	72.89
831.263	67.3
831.56	71.49
831.857	68.69
832.154	71.94
832.451	72.06
832.748	71.6
833.045	68.96
833.342	72.99
833.639	71.32
833.936	71.51
834.232	69.51
834.529	74.61
834.826	71.64
835.122	67.75
835.419	70.88
835.715	74.66
836.012	72.18
836.308	72.29
836.604	69.86
836.901	74.46
837.197	71.29
837.493	70.56
837.789	71.52
838.085	73.36
838.381	72.98
838.677	71.55
838.972	70
839.268	68.53
839.564	67.99
839.86	73.58
840.155	80.31
840.451	77.63
840.746	68.84
841.042	77.87
841.337	73.09
841.632	73.43
841.928	76.7
842.223	76.02
842.518	62.57
842.813	71.17
843.108	72.75
843.403	74.74
843.698	77.45
843.993	68.63
844.287	73.91
844.582	77.69
844.877	81.46
845.171	85.11
845.466	74.58
845.761	66.66
846.055	68.91
846.349	65.99
846.644	80.57
846.938	77.12
847.232	72.18
847.526	65.37
847.82	57.11
848.114	83.5
848.408	88.98
848.702	81.65
848.996	61.56
849.29	81.34
849.584	84.87
849.877	72.59
850.171	83.9
850.465	78.39
850.758	61.57
851.052	79.59
851.345	78.65
851.638	64.35
851.932	70.16
852.225	70.02
852.518	72.8
852.811	87.54
853.104	90.3
853.397	79.85
853.69	85.89
853.983	76.23
854.276	75.51
854.569	93.91
854.861	77.65
855.154	88.28
855.447	102.23
855.739	60.66
856.032	71.4
856.324	105.4
856.616	89.65
856.909	80.7
857.201	55.84
857.493	70.57
857.785	92.56
858.077	76.44
858.369	89.53
858.661	58.58
858.953	85.35
859.245	57.15
859.537	65.07
859.829	76.48
860.12	95.36
860.412	76.8
860.703	94.12
860.995	82.08
861.286	92.89
861.578	67.46
861.869	99.25
862.16	60.53
862.452	82.63
862.743	67.4
863.034	85.89
863.325	70.67
863.616	71.21
863.907	85.2
864.198	79.35
864.488	83.61
864.779	80.73
865.07	105.08
865.36	79.67
865.651	96.38
865.941	98.24
866.232	72.95
866.522	97.23
866.813	72.38
867.103	69.06
867.393	98.97
867.683	112.46
867.973	98.38
868.263	88.99
868.553	87.79
868.843	75.39
869.133	81.62
869.423	81.94
869.713	88.04
870.002	61.4
870.292	74.5
870.582	94.23
870.871	93.15
871.161	73.12
871.45	86.49
871.739	91.72
872.029	76.84
872.318	84.24
872.607	85.95
872.896	88.27
873.185	87.14
873.474	97.45
873.763	92.35
874.052	75.41
874.341	77.3
874.63	78.17
874.918	75.48
875.207	57.15
875.496	59.33
875.784	49.08
876.073	76.36
876.361	106.95
876.649	71.19
876.938	61.5
877.226	75.96
877.514	94.03
877.802	51.27
878.09	93.61
878.378	82.88
878.666	103.03
878.954	105.39
879.242	74.82
879.53	77.2
879.817	86.28
880.105	91.79
880.392	67.9
880.68	92.28
880.967	68.07
881.255	70.68
881.542	65.73
881.83	96.57
882.117	79.08
882.404	92.93
882.691	98.37
882.978	84.34
883.265	77.57
883.552	84.02
883.839	74.64
884.126	85.24
884.413	92.56
884.699	83.66
884.986	75.98
885.273	77.95
885.559	77.95
885.846	77.95
