Data from 0233_crown_Reflection__0__37.txt Node

Date: Fri Oct 20 20:58:56 CDT 2023
User: ToomeyLab
Spectrometer: FLMS14357
Trigger mode: 0
Integration Time (sec): 1.000000E-2
Scans to average: 100
Electric dark correction enabled: true
Nonlinearity correction enabled: false
Boxcar width: 0
XAxis mode: Wavelengths
Number of Pixels in Spectrum: 2048
>>>>>Begin Spectral Data<<<<<
189.047	-23.98
189.435	-23.98
189.823	-23.98
190.211	67.61
190.599	-240.48
190.987	171.74
191.375	90
191.763	109.38
192.151	-219.84
192.538	-88.61
192.926	255.23
193.314	120.94
193.702	-52.85
194.089	50.33
194.477	171.71
194.864	77.4
195.252	-448.23
195.639	-185.1
196.027	-144.34
196.414	55.42
196.801	1371.15
197.189	16.9
197.576	31.58
197.963	-41.88
198.351	78.43
198.738	8.01
199.125	79.26
199.512	23.39
199.899	45.46
200.286	9.47
200.673	47.66
201.06	36.85
201.447	-28.86
201.833	61.72
202.22	25.11
202.607	35.71
202.994	19.15
203.38	10.27
203.767	-5.56
204.154	54.15
204.54	46.87
204.927	1.23
205.313	-37.49
205.699	35.29
206.086	34.43
206.472	51.51
206.858	44.52
207.245	-20.58
207.631	28.7
208.017	19.41
208.403	12.91
208.789	37.4
209.175	12.22
209.561	44.29
209.947	-20.03
210.333	50.07
210.719	15.8
211.105	40.5
211.491	6.12
211.876	4.85
212.262	46.68
212.648	44.32
213.034	2.27
213.419	22.44
213.805	35.51
214.19	-0.05
214.576	9.29
214.961	13.27
215.346	47.7
215.732	29.11
216.117	-0.67
216.502	30.94
216.888	8.02
217.273	17.33
217.658	23.3
218.043	23.41
218.428	4.87
218.813	15.93
219.198	13.75
219.583	-7.06
219.968	-2.87
220.353	19.42
220.738	8.79
221.122	6.99
221.507	20.99
221.892	15.42
222.276	16.41
222.661	22.74
223.046	18.85
223.43	9.98
223.815	23
224.199	18.7
224.583	-4.05
224.968	11.37
225.352	-5.08
225.736	6.23
226.121	3.08
226.505	2.17
226.889	13.68
227.273	1.92
227.657	14.3
228.041	14.1
228.425	8.81
228.809	11.9
229.193	10.24
229.577	9.47
229.961	6.17
230.344	8.74
230.728	7.93
231.112	8.96
231.495	8.28
231.879	8.7
232.263	8.62
232.646	6.88
233.03	6.91
233.413	7.12
233.797	7.45
234.18	7.16
234.563	11.04
234.946	11.05
235.33	9.26
235.713	8.81
236.096	8.37
236.479	8.74
236.862	8.45
237.245	6.64
237.628	7.45
238.011	7.15
238.394	7.54
238.777	9.39
239.16	7.8
239.543	10.07
239.925	10.19
240.308	7.89
240.691	8.38
241.073	10.35
241.456	8.11
241.838	8.12
242.221	7.64
242.603	8.1
242.986	8.67
243.368	8.53
243.75	7.52
244.133	7.54
244.515	7.36
244.897	7.56
245.279	7.49
245.661	7.19
246.043	7.62
246.425	8.2
246.807	6.79
247.189	7.79
247.571	7.03
247.953	7.09
248.335	7.83
248.717	7.02
249.098	6.93
249.48	6.92
249.862	7.52
250.243	7.61
250.625	7.42
251.006	7.4
251.388	7.2
251.769	7.33
252.151	6.2
252.532	7.98
252.913	7.12
253.295	7.07
253.676	7.51
254.057	6.81
254.438	6.59
254.819	6.81
255.2	7.07
255.581	6.67
255.962	6.81
256.343	6.69
256.724	5.98
257.105	7.54
257.486	6.86
257.867	6.82
258.247	7.66
258.628	6.27
259.009	6.93
259.389	5.91
259.77	6.46
260.15	7.37
260.531	6.71
260.911	6.9
261.292	6.51
261.672	6.06
262.052	6.44
262.432	6.4
262.813	6.3
263.193	6.3
263.573	6.22
263.953	6.55
264.333	7.07
264.713	6.94
265.093	6.84
265.473	6.55
265.853	6.91
266.233	6.81
266.612	7.12
266.992	6.49
267.372	6.31
267.752	6.22
268.131	6.19
268.511	6.11
268.89	6.59
269.27	5.72
269.649	5.58
270.029	5.88
270.408	6.17
270.787	6.4
271.167	6.39
271.546	6.74
271.925	5.93
272.304	6.86
272.683	5.89
273.062	6.33
273.441	6.08
273.82	5.99
274.199	6.31
274.578	5.73
274.957	6.03
275.336	6.11
275.715	6.09
276.093	5.8
276.472	6.42
276.851	5.82
277.229	6.43
277.608	5.29
277.986	5.53
278.365	6.13
278.743	5.48
279.122	6.09
279.5	5.44
279.878	4.93
280.257	5.51
280.635	5.43
281.013	5.32
281.391	5.83
281.769	5.59
282.147	5.68
282.525	5.47
282.903	5.8
283.281	6.29
283.659	5.74
284.037	5.84
284.415	4.89
284.792	5.51
285.17	5.64
285.548	5.83
285.925	5.42
286.303	4.95
286.68	5.48
287.058	5.93
287.435	5.63
287.813	4.99
288.19	5.44
288.567	5.21
288.945	5.51
289.322	5.85
289.699	4.6
290.076	5.89
290.453	5.37
290.83	5
291.207	5.64
291.584	4.77
291.961	4.92
292.338	5.12
292.715	4.93
293.092	5.21
293.469	5.57
293.845	4.99
294.222	5.38
294.599	5.11
294.975	5.4
295.352	5.4
295.728	5.1
296.105	4.86
296.481	5.01
296.858	5.6
297.234	4.97
297.61	4.73
297.986	5.08
298.363	5.23
298.739	5.1
299.115	4.92
299.491	5.05
299.867	4.84
300.243	5.14
300.619	4.78
300.995	4.7
301.371	5.58
301.746	4.99
302.122	5.33
302.498	4.66
302.874	4.95
303.249	5.06
303.625	4.88
304	5.16
304.376	4.78
304.751	4.39
305.127	4.34
305.502	5.4
305.878	4.68
306.253	5.37
306.628	4.98
307.003	4.6
307.378	4.99
307.754	4.89
308.129	5.4
308.504	5.1
308.879	4.99
309.254	5.43
309.629	4.01
310.003	4.27
310.378	5.05
310.753	4.76
311.128	5.13
311.502	4.99
311.877	4.81
312.252	4.66
312.626	4.82
313.001	5.01
313.375	4.75
313.75	4.63
314.124	4.6
314.498	4.9
314.873	4.37
315.247	4.77
315.621	4.67
315.995	5.02
316.369	4.35
316.743	4.87
317.117	4.82
317.491	3.97
317.865	4.97
318.239	5
318.613	4.87
318.987	4.35
319.361	4.54
319.734	4.35
320.108	4.2
320.482	5.28
320.855	4.64
321.229	5.25
321.602	4.85
321.976	4.1
322.349	5.01
322.723	4.26
323.096	5.14
323.469	4.4
323.843	4.71
324.216	4.67
324.589	4.69
324.962	4.77
325.335	5.01
325.708	4.45
326.081	4.57
326.454	5.02
326.827	5.24
327.2	5.24
327.573	4.88
327.945	4.48
328.318	4.35
328.691	4.92
329.063	4.94
329.436	4.31
329.809	4.51
330.181	5
330.553	4.9
330.926	4.92
331.298	4.26
331.671	4.16
332.043	4.61
332.415	4.83
332.787	4.62
333.159	4.33
333.532	4.66
333.904	4.71
334.276	4.26
334.648	4.72
335.02	4.78
335.391	3.92
335.763	4.94
336.135	4.91
336.507	4.29
336.879	4.84
337.25	5.13
337.622	4.82
337.993	4.93
338.365	4.64
338.736	4.87
339.108	5.04
339.479	4.09
339.851	4.81
340.222	4.62
340.593	4.86
340.964	4.5
341.336	4.64
341.707	4.86
342.078	4.94
342.449	4.51
342.82	4.42
343.191	4.5
343.562	4.76
343.933	4.78
344.303	4.86
344.674	5.36
345.045	4.68
345.416	5.49
345.786	4.71
346.157	4.7
346.527	4.89
346.898	4.59
347.268	4.91
347.639	5.39
348.009	4.96
348.38	5.04
348.75	4.88
349.12	4.78
349.49	5.18
349.861	5.04
350.231	4.54
350.601	4.98
350.971	5.09
351.341	4.97
351.711	5.62
352.081	4.94
352.45	5
352.82	5.29
353.19	5.59
353.56	5.39
353.929	5
354.299	5.09
354.669	5.25
355.038	5.06
355.408	5.57
355.777	5.13
356.147	4.87
356.516	5.03
356.885	5.29
357.254	5.25
357.624	5.26
357.993	4.79
358.362	5.13
358.731	4.85
359.1	4.56
359.469	5.05
359.838	5.07
360.207	5.18
360.576	5.15
360.945	5.03
361.314	4.97
361.682	5.03
362.051	4.95
362.42	4.83
362.788	4.97
363.157	5.18
363.525	4.98
363.894	5.19
364.262	5.06
364.631	5.3
364.999	5.25
365.367	5.13
365.735	5.08
366.104	5.05
366.472	4.89
366.84	5.31
367.208	5.27
367.576	5.16
367.944	5.47
368.312	5.26
368.68	5.23
369.048	5.29
369.416	5.38
369.783	5.71
370.151	5.36
370.519	5.26
370.886	5.35
371.254	5.36
371.621	5.66
371.989	5.09
372.356	5.5
372.724	5.62
373.091	5.06
373.458	4.97
373.826	5.2
374.193	4.99
374.56	5.3
374.927	5.44
375.294	5.35
375.661	5.47
376.028	5.7
376.395	5.47
376.762	4.99
377.129	5.62
377.496	5.39
377.863	5.63
378.229	5.46
378.596	5.55
378.963	5.61
379.329	5.52
379.696	5.56
380.062	5.5
380.429	5.3
380.795	5.41
381.161	5.55
381.528	5.84
381.894	5.43
382.26	5.58
382.626	5.82
382.993	5.66
383.359	5.45
383.725	5.25
384.091	5.6
384.457	5.66
384.823	5.47
385.188	5.9
385.554	5.48
385.92	5.7
386.286	5.93
386.651	5.4
387.017	5.76
387.383	5.43
387.748	5.39
388.114	5.24
388.479	5.49
388.845	5.87
389.21	5.44
389.575	5.54
389.94	5.65
390.306	5.55
390.671	5.6
391.036	5.53
391.401	5.81
391.766	5.98
392.131	5.54
392.496	5.51
392.861	5.51
393.226	5.86
393.591	5.51
393.956	5.77
394.32	5.64
394.685	5.61
395.05	5.76
395.414	5.94
395.779	5.78
396.143	5.7
396.508	5.65
396.872	5.83
397.236	5.67
397.601	5.78
397.965	5.49
398.329	5.54
398.694	5.89
399.058	5.71
399.422	5.67
399.786	5.76
400.15	5.57
400.514	5.82
400.878	5.95
401.242	5.96
401.605	5.78
401.969	5.59
402.333	5.74
402.697	5.92
403.06	5.85
403.424	5.71
403.787	5.87
404.151	5.81
404.514	5.82
404.878	5.87
405.241	5.92
405.604	5.77
405.968	5.84
406.331	5.82
406.694	5.71
407.057	5.62
407.42	5.91
407.783	5.96
408.146	5.69
408.509	5.9
408.872	5.98
409.235	5.72
409.598	5.8
409.961	6.16
410.323	5.95
410.686	5.97
411.049	5.9
411.411	5.85
411.774	5.67
412.136	5.93
412.499	5.89
412.861	6.02
413.223	5.92
413.586	5.93
413.948	6.1
414.31	6.04
414.672	5.78
415.035	5.92
415.397	6
415.759	5.98
416.121	5.92
416.483	5.89
416.845	5.85
417.206	6.07
417.568	6.08
417.93	5.87
418.292	5.85
418.653	6.05
419.015	5.81
419.377	5.98
419.738	5.78
420.1	5.74
420.461	5.81
420.822	5.74
421.184	5.85
421.545	5.83
421.906	5.81
422.267	5.66
422.629	5.95
422.99	5.77
423.351	5.67
423.712	5.71
424.073	5.68
424.434	5.77
424.795	5.78
425.155	5.78
425.516	5.69
425.877	5.77
426.238	5.64
426.598	5.74
426.959	5.68
427.32	5.74
427.68	5.83
428.041	5.84
428.401	5.81
428.761	5.89
429.122	5.93
429.482	6.07
429.842	5.99
430.202	5.95
430.563	5.83
430.923	6.05
431.283	6.07
431.643	6.05
432.003	6.14
432.363	5.92
432.722	5.86
433.082	6.05
433.442	5.74
433.802	6.07
434.161	5.83
434.521	5.93
434.881	5.87
435.24	5.83
435.6	5.84
435.959	5.74
436.319	5.8
436.678	5.92
437.037	5.9
437.396	6.03
437.756	5.99
438.115	5.74
438.474	6.02
438.833	5.96
439.192	5.79
439.551	5.68
439.91	5.91
440.269	5.98
440.628	6.02
440.987	6.05
441.345	5.71
441.704	5.9
442.063	5.91
442.421	5.86
442.78	5.87
443.138	5.97
443.497	5.94
443.855	5.92
444.214	5.91
444.572	5.89
444.93	6.05
445.288	5.97
445.647	6.26
446.005	5.77
446.363	5.84
446.721	5.78
447.079	6.03
447.437	5.83
447.795	5.73
448.153	5.79
448.51	5.81
448.868	5.68
449.226	5.77
449.584	5.81
449.941	5.84
450.299	5.88
450.656	5.94
451.014	5.96
451.371	5.9
451.729	6.02
452.086	5.92
452.443	6.01
452.801	5.83
453.158	5.93
453.515	6.06
453.872	6.05
454.229	6.1
454.586	5.95
454.943	6.06
455.3	5.96
455.657	5.97
456.014	5.74
456.371	5.84
456.727	5.94
457.084	6.03
457.441	6.15
457.797	5.9
458.154	5.88
458.51	5.78
458.867	5.98
459.223	5.87
459.58	5.89
459.936	5.94
460.292	5.83
460.648	5.83
461.005	5.77
461.361	5.85
461.717	5.72
462.073	5.71
462.429	5.76
462.785	5.74
463.141	5.87
463.496	5.9
463.852	5.97
464.208	6.03
464.564	5.98
464.919	5.89
465.275	6.15
465.631	5.97
465.986	6.1
466.342	5.99
466.697	6
467.052	6.01
467.408	6.03
467.763	5.97
468.118	6.09
468.473	6
468.829	5.83
469.184	6.08
469.539	5.99
469.894	6.02
470.249	5.99
470.603	5.86
470.958	5.98
471.313	6.17
471.668	5.98
472.023	6.08
472.377	6.1
472.732	5.86
473.086	6.1
473.441	5.93
473.795	6.09
474.15	5.91
474.504	5.86
474.859	5.95
475.213	6.04
475.567	6.02
475.921	6.02
476.275	6.04
476.63	6.12
476.984	6.1
477.338	5.86
477.692	5.89
478.045	6
478.399	5.96
478.753	6
479.107	5.9
479.461	5.96
479.814	5.87
480.168	6.01
480.521	6.03
480.875	5.77
481.228	5.99
481.582	6.03
481.935	5.82
482.289	5.94
482.642	5.9
482.995	5.74
483.348	5.83
483.701	5.93
484.055	5.8
484.408	5.76
484.761	5.7
485.114	5.69
485.466	5.54
485.819	5.45
486.172	5.38
486.525	5.4
486.878	5.5
487.23	5.58
487.583	5.66
487.936	5.74
488.288	5.69
488.641	5.68
488.993	5.6
489.345	5.55
489.698	5.54
490.05	5.5
490.402	5.51
490.754	5.59
491.107	5.57
491.459	5.72
491.811	5.77
492.163	5.8
492.515	5.89
492.866	5.75
493.218	5.65
493.57	5.51
493.922	5.47
494.274	5.58
494.625	5.63
494.977	5.72
495.328	5.72
495.68	5.85
496.031	5.76
496.383	5.87
496.734	5.94
497.086	5.79
497.437	5.83
497.788	5.75
498.139	5.82
498.49	5.8
498.842	5.61
499.193	5.8
499.544	5.79
499.894	5.83
500.245	5.7
500.596	5.81
500.947	5.84
501.298	5.86
501.648	5.8
501.999	5.9
502.35	5.82
502.7	5.96
503.051	5.88
503.401	5.87
503.752	5.79
504.102	6.01
504.452	5.91
504.803	5.85
505.153	5.97
505.503	5.72
505.853	5.82
506.203	5.73
506.553	5.72
506.903	5.94
507.253	5.85
507.603	5.86
507.953	5.78
508.303	5.81
508.652	5.72
509.002	5.89
509.352	5.95
509.701	5.76
510.051	5.68
510.4	5.54
510.75	5.7
511.099	5.69
511.449	5.81
511.798	5.73
512.147	5.7
512.496	5.75
512.846	5.73
513.195	5.74
513.544	5.69
513.893	5.58
514.242	5.7
514.591	5.72
514.939	5.59
515.288	5.59
515.637	5.79
515.986	5.76
516.334	5.74
516.683	5.71
517.032	5.61
517.38	5.63
517.729	5.71
518.077	5.78
518.426	5.64
518.774	5.59
519.122	5.69
519.47	5.58
519.819	5.58
520.167	5.48
520.515	5.55
520.863	5.64
521.211	5.59
521.559	5.59
521.907	5.64
522.255	5.55
522.602	5.67
522.95	5.5
523.298	5.65
523.645	5.65
523.993	5.6
524.341	5.7
524.688	5.65
525.036	5.72
525.383	5.51
525.73	5.69
526.078	5.65
526.425	5.62
526.772	5.64
527.119	5.52
527.466	5.55
527.814	5.62
528.161	5.53
528.508	5.43
528.854	5.56
529.201	5.53
529.548	5.54
529.895	5.51
530.242	5.36
530.588	5.26
530.935	5.28
531.282	5.3
531.628	5.39
531.975	5.29
532.321	5.38
532.667	5.47
533.014	5.47
533.36	5.49
533.706	5.54
534.052	5.54
534.399	5.4
534.745	5.37
535.091	5.44
535.437	5.43
535.783	5.35
536.129	5.42
536.474	5.47
536.82	5.53
537.166	5.51
537.512	5.6
537.857	5.58
538.203	5.59
538.549	5.54
538.894	5.4
539.239	5.4
539.585	5.45
539.93	5.47
540.276	5.55
540.621	5.52
540.966	5.56
541.311	5.59
541.656	5.56
542.001	5.66
542.346	5.51
542.691	5.51
543.036	5.37
543.381	5.26
543.726	5.25
544.071	5.29
544.415	5.36
544.76	5.35
545.105	5.42
545.449	5.32
545.794	5.46
546.138	5.43
546.483	5.44
546.827	5.45
547.171	5.58
547.516	5.36
547.86	5.5
548.204	5.4
548.548	5.52
548.892	5.45
549.236	5.4
549.58	5.42
549.924	5.39
550.268	5.6
550.612	5.56
550.956	5.72
551.3	5.55
551.643	5.55
551.987	5.63
552.33	5.65
552.674	5.58
553.017	5.59
553.361	5.55
553.704	5.55
554.048	5.54
554.391	5.51
554.734	5.41
555.077	5.44
555.42	5.44
555.764	5.45
556.107	5.52
556.45	5.39
556.793	5.39
557.135	5.33
557.478	5.43
557.821	5.47
558.164	5.68
558.507	5.68
558.849	5.65
559.192	5.61
559.534	5.51
559.877	5.28
560.219	5.73
560.562	5.47
560.904	5.28
561.246	5.46
561.589	5.32
561.931	5.53
562.273	5.53
562.615	5.84
562.957	5.66
563.299	5.53
563.641	5.58
563.983	5.26
564.325	5.29
564.667	5.55
565.008	5.33
565.35	5.55
565.692	5.35
566.033	5.42
566.375	5.44
566.716	5.53
567.058	5.38
567.399	5.47
567.741	5.33
568.082	5.29
568.423	5.27
568.764	5.2
569.105	5.38
569.447	5.31
569.788	5.37
570.129	5.54
570.47	5.37
570.811	5.59
571.151	5.4
571.492	5.46
571.833	5.5
572.174	5.58
572.514	5.36
572.855	5.41
573.195	5.37
573.536	5.22
573.876	5.34
574.217	5.08
574.557	5.27
574.898	5.22
575.238	5.24
575.578	5.39
575.918	5.28
576.258	5.33
576.598	5.39
576.938	5.3
577.278	5.33
577.618	5.09
577.958	5.18
578.298	5.12
578.638	5.3
578.977	5.38
579.317	5.19
579.657	5.39
579.996	5.39
580.336	5.52
580.675	5.19
581.014	5.15
581.354	5.13
581.693	5.2
582.032	5.28
582.372	5.22
582.711	5.43
583.05	5.42
583.389	5.2
583.728	5.33
584.067	5.22
584.406	5.46
584.745	5.28
585.083	5.25
585.422	5.1
585.761	5.31
586.1	5.37
586.438	4.9
586.777	5.39
587.115	5.41
587.454	5.43
587.792	5.43
588.13	5.09
588.469	5.25
588.807	4.94
589.145	5.33
589.483	5.11
589.821	5.09
590.159	5.19
590.497	5.19
590.835	5.31
591.173	4.99
591.511	5.38
591.849	5.3
592.187	5.15
592.524	4.95
592.862	5.02
593.2	5.23
593.537	5.26
593.875	5.01
594.212	5.32
594.55	5.21
594.887	5.17
595.224	5.15
595.561	5.02
595.899	5.2
596.236	5.26
596.573	5.41
596.91	5.13
597.247	5.09
597.584	4.91
597.921	5.24
598.258	5.14
598.594	5.39
598.931	4.85
599.268	4.93
599.604	5.13
599.941	5.11
600.277	5.08
600.614	4.88
600.95	5.09
601.287	5.05
601.623	5.19
601.959	5.22
602.296	5.2
602.632	5.19
602.968	5.03
603.304	5.18
603.64	5.14
603.976	5.09
604.312	5.24
604.648	4.85
604.984	5.18
605.319	5
605.655	5.02
605.991	4.98
606.326	4.93
606.662	4.79
606.998	4.76
607.333	4.82
607.668	4.78
608.004	4.98
608.339	4.86
608.674	4.96
609.01	5.12
609.345	5.33
609.68	5.18
610.015	5.1
610.35	5.13
610.685	5
611.02	5.06
611.355	4.76
611.689	4.85
612.024	5.02
612.359	4.87
612.694	5.07
613.028	4.91
613.363	4.87
613.697	5.05
614.032	4.98
614.366	4.97
614.7	4.71
615.035	5.12
615.369	4.8
615.703	4.86
616.037	5.34
616.371	4.8
616.705	5.09
617.039	5.14
617.373	5.16
617.707	5.15
618.041	4.85
618.375	4.74
618.709	4.76
619.042	4.79
619.376	5.04
619.71	5.16
620.043	5.48
620.377	4.75
620.71	4.88
621.043	5.01
621.377	4.8
621.71	4.81
622.043	5.01
622.376	4.96
622.709	4.96
623.043	4.99
623.376	4.8
623.709	4.8
624.041	4.72
624.374	4.87
624.707	4.9
625.04	5.07
625.373	5.05
625.705	4.75
626.038	5.01
626.37	4.65
626.703	4.91
627.035	4.47
627.368	4.87
627.7	5.22
628.032	4.6
628.365	5.05
628.697	4.74
629.029	4.91
629.361	5.02
629.693	4.87
630.025	5.01
630.357	4.96
630.689	4.84
631.021	4.95
631.353	5.23
631.684	4.74
632.016	4.99
632.348	4.69
632.679	4.62
633.011	5.02
633.342	4.79
633.674	4.95
634.005	5.14
634.336	4.95
634.668	4.6
634.999	4.56
635.33	4.38
635.661	4.96
635.992	5.03
636.323	5.09
636.654	4.93
636.985	4.75
637.316	4.67
637.647	4.74
637.977	4.21
638.308	4.83
638.639	4.94
638.969	4.99
639.3	4.33
639.63	4.88
639.961	4.99
640.291	4.82
640.622	4.76
640.952	4.96
641.282	4.71
641.612	4.65
641.943	4.92
642.273	4.4
642.603	4.88
642.933	4.64
643.263	5.24
643.592	4.79
643.922	5.39
644.252	4.68
644.582	4.83
644.911	4.61
645.241	5.29
645.571	5.11
645.9	4.78
646.23	4.93
646.559	4.7
646.888	5.01
647.218	4.98
647.547	4.68
647.876	4.46
648.205	4.97
648.534	4.77
648.863	5.02
649.192	4.65
649.521	4.67
649.85	5.04
650.179	4.49
650.508	4.12
650.837	5.16
651.165	4.7
651.494	4.41
651.822	4.6
652.151	5.06
652.479	4.9
652.808	4.52
653.136	4.08
653.465	4.81
653.793	4.89
654.121	5.02
654.449	4.98
654.777	4.57
655.105	4.61
655.433	5.17
655.761	4.61
656.089	4.59
656.417	5.07
656.745	4.94
657.073	4.75
657.4	5.39
657.728	4.63
658.056	4.9
658.383	4.73
658.711	4.56
659.038	4.67
659.365	4.66
659.693	4.84
660.02	4.67
660.347	4.68
660.674	4.51
661.001	4.61
661.329	4.83
661.656	4.45
661.982	4.36
662.309	4.9
662.636	4.54
662.963	4.56
663.29	4.79
663.616	4.77
663.943	4.32
664.27	4.99
664.596	4.76
664.923	4.24
665.249	4.88
665.576	4.36
665.902	4.36
666.228	4.66
666.554	5.08
666.881	4.21
667.207	4.81
667.533	4.9
667.859	4.67
668.185	5.06
668.511	4.9
668.837	5.27
669.162	5.06
669.488	4.83
669.814	4.01
670.139	4.94
670.465	4.66
670.791	5.26
671.116	4.69
671.442	4.13
671.767	4.88
672.092	5.12
672.418	4.99
672.743	4.77
673.068	4.98
673.393	4.64
673.718	4.35
674.043	4.92
674.368	4.33
674.693	5.04
675.018	5.48
675.343	4.49
675.667	4.75
675.992	5.09
676.317	4.64
676.641	5.02
676.966	5.41
677.29	5.13
677.615	5.03
677.939	4.23
678.264	4.86
678.588	3.78
678.912	5.01
679.236	4.33
679.56	4.89
679.885	5.34
680.209	5.13
680.532	4.51
680.856	4.11
681.18	5.17
681.504	4.76
681.828	4.82
682.152	4.63
682.475	4.3
682.799	4.93
683.122	4.75
683.446	4.94
683.769	5.25
684.093	5.13
684.416	4.68
684.739	4.8
685.062	3.25
685.386	4.3
685.709	4.4
686.032	4.69
686.355	4.51
686.678	5.08
687.001	4.9
687.324	4.24
687.646	4.98
687.969	5.19
688.292	5.46
688.614	4.92
688.937	4.34
689.26	4.55
689.582	4.46
689.904	3.84
690.227	5.42
690.549	5.22
690.871	5.29
691.194	5.22
691.516	4.88
691.838	5.07
692.16	4.29
692.482	4.62
692.804	4.7
693.126	4.2
693.448	5.55
693.769	4.55
694.091	5.06
694.413	4.37
694.735	4.79
695.056	4.01
695.378	5.01
695.699	5.37
696.021	5.21
696.342	4.74
696.663	4.57
696.984	4.42
697.306	5.14
697.627	4.83
697.948	4.69
698.269	5.23
698.59	5.28
698.911	4.94
699.232	4.74
699.553	5.08
699.873	4.85
700.194	5.09
700.515	4.51
700.835	5.27
701.156	4.69
701.477	4.19
701.797	4.44
702.117	4.43
702.438	4.88
702.758	4.26
703.078	4.8
703.398	5.12
703.719	5.68
704.039	5.03
704.359	5.09
704.679	4.06
704.999	4.43
705.319	5.66
705.638	4.7
705.958	4.77
706.278	4.58
706.597	4.63
706.917	4.11
707.237	5.06
707.556	3.74
707.876	4.77
708.195	5.65
708.514	4.87
708.834	5.08
709.153	4.43
709.472	4.32
709.791	6.36
710.11	5.06
710.429	4.78
710.748	4.75
711.067	4.41
711.386	3.63
711.705	5.3
712.023	4.37
712.342	5.1
712.661	5.08
712.979	4.56
713.298	4.76
713.616	4.45
713.935	5.25
714.253	5.1
714.572	4.17
714.89	4.67
715.208	5.37
715.526	5.04
715.844	4.73
716.162	5.52
716.48	5.82
716.798	5.22
717.116	4.78
717.434	4.16
717.752	5.36
718.069	4.28
718.387	4.43
718.705	4.1
719.022	4.99
719.34	5.04
719.657	5.14
719.975	4.63
720.292	3.77
720.609	5.11
720.927	5.18
721.244	5.51
721.561	6.93
721.878	4.85
722.195	5.04
722.512	4.99
722.829	5.62
723.146	4.6
723.463	5.1
723.779	5.83
724.096	5.31
724.413	4.93
724.729	5.38
725.046	5.4
725.362	6.54
725.679	4.53
725.995	6.91
726.311	6.75
726.628	6.5
726.944	4.6
727.26	5.21
727.576	6.1
727.892	5.78
728.208	5.5
728.524	5.23
728.84	4.61
729.156	6.86
729.472	5.82
729.787	4.66
730.103	5.62
730.419	5.3
730.734	4.49
731.05	4.69
731.365	3.38
731.681	6.38
731.996	6.14
732.311	5.9
732.626	5.39
732.942	3.93
733.257	6.18
733.572	6.09
733.887	5.05
734.202	5.12
734.517	4.76
734.832	5.68
735.146	5.85
735.461	5.21
735.776	5.32
736.091	4.27
736.405	3.96
736.72	5.43
737.034	5.68
737.349	5.95
737.663	4.92
737.977	7.35
738.292	3.68
738.606	4.13
738.92	5.22
739.234	5.04
739.548	4.56
739.862	5.71
740.176	4.76
740.49	4.17
740.804	5.74
741.117	5.46
741.431	4.06
741.745	5.14
742.058	5.41
742.372	4.88
742.685	5.09
742.999	5.04
743.312	5.92
743.626	4.7
743.939	5.45
744.252	3.17
744.565	5.45
744.878	3.72
745.191	6.18
745.505	4.48
745.817	7.66
746.13	3.95
746.443	6.79
746.756	5.48
747.069	4.09
747.381	7.2
747.694	5.64
748.007	6.17
748.319	6.37
748.632	5.06
748.944	6.15
749.256	6.8
749.569	4.5
749.881	6.96
750.193	4.22
750.505	4.65
750.817	6.07
751.129	5.09
751.441	4.12
751.753	6.13
752.065	7.01
752.377	5.01
752.689	3.71
753	6.43
753.312	3.55
753.624	3.69
753.935	4.85
754.247	5.35
754.558	6.16
754.869	5.37
755.181	6.32
755.492	4.45
755.803	6.01
756.114	4.75
756.425	5.31
756.736	4.89
757.047	5.45
757.358	4.26
757.669	6.44
757.98	4.7
758.291	5.18
758.601	6.77
758.912	7.2
759.223	4.44
759.533	6.24
759.844	7.22
760.154	6.3
760.464	5.57
760.775	6.23
761.085	5.3
761.395	5.61
761.705	6.59
762.016	7.25
762.326	5.46
762.636	7.84
762.945	3.95
763.255	5.74
763.565	5.21
763.875	5.97
764.185	5.38
764.494	7.35
764.804	7
765.113	3.71
765.423	5.3
765.732	4.58
766.042	4.85
766.351	6.13
766.66	4.99
766.97	5.16
767.279	5.25
767.588	5.03
767.897	4.96
768.206	4.65
768.515	4.35
768.824	4.57
769.133	3.82
769.441	5.37
769.75	6.97
770.059	4.77
770.367	5.83
770.676	9.08
770.984	6.86
771.293	4.84
771.601	3.3
771.91	4.52
772.218	8.53
772.526	5.62
772.834	5.52
773.142	4.89
773.45	3.75
773.758	5.7
774.066	5.64
774.374	6.79
774.682	6.06
774.99	4.24
775.298	1.08
775.605	5.95
775.913	7.56
776.22	2.05
776.528	6.7
776.835	6.13
777.143	1.89
777.45	8.89
777.757	4.62
778.065	7.7
778.372	9.16
778.679	6.93
778.986	7.16
779.293	5.47
779.6	5.4
779.907	6.19
780.214	5.38
780.52	8.94
780.827	5.08
781.134	6.04
781.44	5.88
781.747	8.28
782.053	10.18
782.36	8.38
782.666	4.32
782.973	7.63
783.279	4.31
783.585	2.66
783.891	6.2
784.197	7.5
784.503	4.7
784.809	3.08
785.115	5.67
785.421	5.23
785.727	7.92
786.033	9.72
786.339	9.82
786.644	4.61
786.95	9.22
787.255	10.37
787.561	5.16
787.866	3.72
788.172	9.61
788.477	6.53
788.782	3.74
789.088	12.18
789.393	4.26
789.698	1.38
790.003	6.47
790.308	7.65
790.613	4.83
790.918	8.49
791.223	6.01
791.527	2.93
791.832	10.18
792.137	6.78
792.441	4.17
792.746	3.86
793.05	3.87
793.355	7.09
793.659	5.57
793.963	7.03
794.268	2.67
794.572	4.22
794.876	7.87
795.18	4.88
795.484	5.42
795.788	7.53
796.092	7.3
796.396	6.9
796.7	6.78
797.004	5.13
797.307	4.1
797.611	8.11
797.915	6.53
798.218	4.33
798.522	0.34
798.825	10.4
799.128	5.24
799.432	2.14
799.735	6.34
800.038	6.42
800.341	4.06
800.644	12.43
800.947	5.48
801.25	8.14
801.553	9.31
801.856	3.98
802.159	-1.72
802.462	7.22
802.764	9.12
803.067	8.03
803.37	4.34
803.672	5.98
803.975	8.25
804.277	5.62
804.579	-0.75
804.882	6.57
805.184	6.89
805.486	10.21
805.788	13.78
806.09	3.66
806.392	7.89
806.694	8.45
806.996	6.2
807.298	5.7
807.6	8.41
807.902	5.04
808.203	8.41
808.505	9.38
808.807	2.48
809.108	2.91
809.409	7.8
809.711	1.88
810.012	5.66
810.313	4.28
810.615	4.51
810.916	11.65
811.217	9.58
811.518	4.66
811.819	1.41
812.12	9.38
812.421	4.36
812.722	4.77
813.023	14.18
813.323	2.14
813.624	8.74
813.925	5.78
814.225	7.1
814.526	15.16
814.826	9.14
815.126	9.22
815.427	3.86
815.727	15.34
816.027	6.69
816.327	12.88
816.627	17.15
816.927	4.14
817.227	8.42
817.527	3.64
817.827	8.95
818.127	3.91
818.427	5.68
818.727	1.27
819.026	-0.46
819.326	7.19
819.625	10.24
819.925	11.82
820.224	17.39
820.524	13.86
820.823	-0.44
821.122	7.36
821.421	11.99
821.72	12.47
822.019	4.03
822.318	9.03
822.617	4.99
822.916	8.42
823.215	9.5
823.514	6.65
823.813	7.86
824.111	7.49
824.41	7.19
824.709	8.91
825.007	5.59
825.306	6.91
825.604	6.23
825.902	6.76
826.201	6.64
826.499	6.57
826.797	5.74
827.095	5.79
827.393	6.04
827.691	7.41
827.989	6.02
828.287	7.17
828.585	7.44
828.882	6.88
829.18	5.15
829.478	8.78
829.775	6.42
830.073	6.05
830.37	6.7
830.668	6.48
830.965	7.83
831.263	8.1
831.56	7.31
831.857	3.88
832.154	6.23
832.451	8.27
832.748	5.71
833.045	4.65
833.342	9.33
833.639	9.45
833.936	9.62
834.232	6.17
834.529	7.3
834.826	6.88
835.122	9.83
835.419	9.45
835.715	7.3
836.012	7.79
836.308	5.49
836.604	5.87
836.901	8.43
837.197	8.26
837.493	8.65
837.789	5.82
838.085	5.16
838.381	7.56
838.677	6.38
838.972	9.29
839.268	3.98
839.564	12.39
839.86	6.22
840.155	12.7
840.451	8.21
840.746	13.7
841.042	8.97
841.337	8.65
841.632	13.44
841.928	18
842.223	18.31
842.518	-3.87
842.813	5.17
843.108	-0.62
843.403	11.24
843.698	20.9
843.993	3.64
844.287	11.61
844.582	10.64
844.877	17.19
845.171	14.25
845.466	8.5
845.761	6.34
846.055	12.62
846.349	15.87
846.644	10.93
846.938	13.72
847.232	11.66
847.526	15.14
847.82	1.87
848.114	18.97
848.408	23.31
848.702	2.89
848.996	22.15
849.29	10.29
849.584	13.96
849.877	26.89
850.171	23.69
850.465	-2.37
850.758	19.57
851.052	12.77
851.345	17.09
851.638	-0.72
851.932	1.15
852.225	15.33
852.518	28.27
852.811	15.61
853.104	6.22
853.397	7.6
853.69	7.08
853.983	-10.39
854.276	9.9
854.569	24.78
854.861	3.93
855.154	23.82
855.447	7.57
855.739	17.99
856.032	5.79
856.324	26.27
856.616	15.54
856.909	18.18
857.201	17.09
857.493	8.56
857.785	30.4
858.077	27.39
858.369	31.12
858.661	15.83
858.953	-4.7
859.245	7.53
859.537	-8.01
859.829	13.29
860.12	30.84
860.412	23.37
860.703	3.07
860.995	26.76
861.286	8.98
861.578	6.8
861.869	-3.57
862.16	23.13
862.452	17.98
862.743	16.41
863.034	24.69
863.325	28.5
863.616	-15
863.907	26.9
864.198	9.12
864.488	27.36
864.779	15.78
865.07	21.98
865.36	22.78
865.651	17.52
865.941	36.23
866.232	20.32
866.522	11.54
866.813	7.53
867.103	-21.15
867.393	30.2
867.683	29.03
867.973	42.92
868.263	20.48
868.553	4.08
868.843	1.83
869.133	38.82
869.423	1.54
869.713	21.41
870.002	6.28
870.292	-7.73
870.582	32.53
870.871	1.78
871.161	29.99
871.45	19.59
871.739	7.78
872.029	1.97
872.318	32
872.607	32.23
872.896	7.97
873.185	5.23
873.474	4.65
873.763	28.51
874.052	12.13
874.341	17.07
874.63	26.37
874.918	34.85
875.207	29.27
875.496	-15.49
875.784	-6.55
876.073	-1.21
876.361	12.51
876.649	9.52
876.938	26.45
877.226	3.98
877.514	6.01
877.802	-17.77
878.09	-29.83
878.378	14.55
878.666	-16.37
878.954	5.26
879.242	19.97
879.53	24.25
879.817	44.86
880.105	14.3
880.392	23.1
880.68	5.89
880.967	16.75
881.255	23.33
881.542	4.77
881.83	14.18
882.117	40.78
882.404	8.1
882.691	25.68
882.978	20.63
883.265	19.3
883.552	13.21
883.839	-9.07
884.126	11.66
884.413	14.83
884.699	17.95
884.986	13.05
885.273	9.32
885.559	9.32
885.846	9.32
