Data from 0233_chest_Reflection__3__35.txt Node

Date: Fri Oct 20 20:57:38 CDT 2023
User: ToomeyLab
Spectrometer: FLMS14357
Trigger mode: 0
Integration Time (sec): 1.000000E-2
Scans to average: 100
Electric dark correction enabled: true
Nonlinearity correction enabled: false
Boxcar width: 0
XAxis mode: Wavelengths
Number of Pixels in Spectrum: 2048
>>>>>Begin Spectral Data<<<<<
189.047	18.79
189.435	18.79
189.823	18.79
190.211	240.37
190.599	41.73
190.987	-15.49
191.375	-47.55
191.763	78.06
192.151	6.64
192.538	-191
192.926	22.14
193.314	355.35
193.702	200.21
194.089	72.36
194.477	263.06
194.864	125.54
195.252	-309.46
195.639	88.57
196.027	-703.67
196.414	61.56
196.801	-348.9
197.189	20.66
197.576	100.54
197.963	34.12
198.351	66.57
198.738	7.39
199.125	51.13
199.512	37.14
199.899	4.88
200.286	-17.11
200.673	32.72
201.06	38.36
201.447	-26.67
201.833	51.86
202.22	2.6
202.607	54.14
202.994	26.58
203.38	-12.65
203.767	20.29
204.154	50.26
204.54	47.39
204.927	24.21
205.313	7.82
205.699	33.62
206.086	63.08
206.472	62.35
206.858	33.15
207.245	5.7
207.631	54.95
208.017	15.81
208.403	13.49
208.789	49.42
209.175	8.82
209.561	18.4
209.947	36.72
210.333	40.97
210.719	22.7
211.105	38.57
211.491	30.47
211.876	4.05
212.262	48.63
212.648	29.27
213.034	0.87
213.419	39.86
213.805	22.74
214.19	-7.32
214.576	27.71
214.961	33.59
215.346	36.51
215.732	9.45
216.117	-10.82
216.502	22.12
216.888	24.65
217.273	-0.78
217.658	15.65
218.043	24.29
218.428	12
218.813	12.56
219.198	12.13
219.583	6.12
219.968	-2.68
220.353	1.26
220.738	17.47
221.122	8.16
221.507	19.8
221.892	4.69
222.276	22.06
222.661	12.55
223.046	22.53
223.43	11.26
223.815	13.64
224.199	20.16
224.583	3.53
224.968	14.57
225.352	5.61
225.736	10.44
226.121	16.57
226.505	6.15
226.889	10.11
227.273	3.61
227.657	11.45
228.041	8.65
228.425	7.58
228.809	6.54
229.193	2.97
229.577	6.71
229.961	3.33
230.344	3.63
230.728	3.57
231.112	4.59
231.495	3.76
231.879	4.73
232.263	5.57
232.646	3.93
233.03	4.42
233.413	3.3
233.797	4.32
234.18	5.74
234.563	6.4
234.946	6.12
235.33	5.35
235.713	4.92
236.096	6.2
236.479	6.3
236.862	4.3
237.245	3.76
237.628	3.23
238.011	5.07
238.394	3.71
238.777	6.71
239.16	3.76
239.543	7.9
239.925	5.39
240.308	6.67
240.691	5.29
241.073	6.07
241.456	4.56
241.838	3.89
242.221	6.73
242.603	4.97
242.986	4.74
243.368	5.16
243.75	4.47
244.133	4.22
244.515	4.17
244.897	3.98
245.279	4.3
245.661	4.1
246.043	4.22
246.425	4.44
246.807	3.22
247.189	3.94
247.571	4.11
247.953	3.97
248.335	4.76
248.717	4.22
249.098	4.1
249.48	3.91
249.862	4.27
250.243	4.44
250.625	4.06
251.006	4.28
251.388	4.53
251.769	4.78
252.151	4.47
252.532	4.23
252.913	3.68
253.295	4.08
253.676	4.04
254.057	4.05
254.438	4.32
254.819	4.45
255.2	3.9
255.581	4.1
255.962	4.71
256.343	5
256.724	2.79
257.105	5.02
257.486	4
257.867	5.16
258.247	4.15
258.628	4.01
259.009	3.82
259.389	3.72
259.77	3.98
260.15	4.22
260.531	4.79
260.911	4.94
261.292	3.59
261.672	3.87
262.052	4.15
262.432	4.09
262.813	4.02
263.193	4.42
263.573	3.83
263.953	4.29
264.333	4.21
264.713	4.56
265.093	4.17
265.473	4.21
265.853	3.46
266.233	4.16
266.612	3.79
266.992	4.11
267.372	4.33
267.752	3.72
268.131	4.06
268.511	4.34
268.89	4.77
269.27	3.83
269.649	3.27
270.029	3.97
270.408	4.55
270.787	4.14
271.167	4.18
271.546	4
271.925	5.06
272.304	3.94
272.683	4.4
273.062	4.3
273.441	4.19
273.82	3.57
274.199	4.23
274.578	4.01
274.957	4.38
275.336	3.98
275.715	4.57
276.093	4.17
276.472	3.8
276.851	4.2
277.229	4.25
277.608	3.83
277.986	4.24
278.365	4.25
278.743	4.13
279.122	3.74
279.5	4.17
279.878	3.97
280.257	4
280.635	3.68
281.013	4.74
281.391	4.1
281.769	4.13
282.147	3.57
282.525	3.93
282.903	3.97
283.281	4.62
283.659	4.21
284.037	4.28
284.415	3.66
284.792	3.94
285.17	4.05
285.548	4.54
285.925	3.42
286.303	3.82
286.68	3.58
287.058	4.31
287.435	4.05
287.813	3.6
288.19	3.82
288.567	3.83
288.945	4.16
289.322	4.45
289.699	3.49
290.076	4.44
290.453	3.91
290.83	3.87
291.207	4.02
291.584	3.53
291.961	3.8
292.338	3.95
292.715	4
293.092	4.04
293.469	3.82
293.845	3.95
294.222	4.2
294.599	3.51
294.975	4.89
295.352	4.42
295.728	4.27
296.105	3.88
296.481	3.97
296.858	4.05
297.234	4.51
297.61	3.62
297.986	4.08
298.363	4.3
298.739	4.2
299.115	3.81
299.491	4.08
299.867	4.17
300.243	3.97
300.619	4.22
300.995	4.57
301.371	4.33
301.746	4.38
302.122	4.3
302.498	3.83
302.874	3.84
303.249	4.06
303.625	4.38
304	4.73
304.376	4.23
304.751	4.21
305.127	3.49
305.502	4.8
305.878	4.2
306.253	4.25
306.628	4.18
307.003	4.18
307.378	4.1
307.754	4.08
308.129	4.79
308.504	4.49
308.879	4.33
309.254	4.54
309.629	3.7
310.003	3.51
310.378	4.31
310.753	4.48
311.128	4.48
311.502	4.15
311.877	3.86
312.252	4.08
312.626	4.23
313.001	4.17
313.375	4.17
313.75	4.2
314.124	3.93
314.498	4.2
314.873	4.1
315.247	4.04
315.621	3.62
315.995	4.34
316.369	4.41
316.743	4.69
317.117	4.76
317.491	3.57
317.865	4.61
318.239	4.94
318.613	4.2
318.987	4.67
319.361	3.2
319.734	4.05
320.108	3.7
320.482	4.48
320.855	4.26
321.229	4.58
321.602	4.15
321.976	4.29
322.349	4.3
322.723	3.51
323.096	4.57
323.469	4.18
323.843	4.25
324.216	4.51
324.589	4.8
324.962	4.86
325.335	4.02
325.708	3.63
326.081	4.52
326.454	4.51
326.827	4.59
327.2	4.29
327.573	4.43
327.945	3.89
328.318	3.9
328.691	4.39
329.063	4.77
329.436	3.83
329.809	4.22
330.181	4.47
330.553	4.42
330.926	4.26
331.298	4.16
331.671	4.37
332.043	3.96
332.415	4.53
332.787	4.31
333.159	3.52
333.532	4.36
333.904	4.56
334.276	3.5
334.648	4.7
335.02	4.84
335.391	4.15
335.763	4.65
336.135	4.47
336.507	4.22
336.879	4.12
337.25	4
337.622	4.75
337.993	4.66
338.365	4.5
338.736	4.15
339.108	4.46
339.479	3.95
339.851	3.94
340.222	3.58
340.593	4.19
340.964	4.01
341.336	5.28
341.707	4.14
342.078	4.35
342.449	4.33
342.82	4.16
343.191	4.04
343.562	4.59
343.933	4.11
344.303	4.37
344.674	4.21
345.045	4.78
345.416	4.26
345.786	3.87
346.157	4.33
346.527	4.19
346.898	4.22
347.268	4.08
347.639	4.37
348.009	4.05
348.38	4.48
348.75	4.82
349.12	4.36
349.49	4.3
349.861	4.54
350.231	4.47
350.601	4.18
350.971	4.32
351.341	4.34
351.711	4.96
352.081	4.47
352.45	4.19
352.82	4.33
353.19	4.49
353.56	4.34
353.929	4
354.299	4.21
354.669	3.87
355.038	4.2
355.408	4.54
355.777	4.26
356.147	4.27
356.516	4.36
356.885	4.23
357.254	4.39
357.624	4.47
357.993	4.19
358.362	4.57
358.731	3.9
359.1	3.79
359.469	3.97
359.838	4.33
360.207	4.34
360.576	4.52
360.945	3.76
361.314	4.39
361.682	4.1
362.051	4.48
362.42	4.1
362.788	4.49
363.157	4.06
363.525	3.98
363.894	4.13
364.262	4.09
364.631	4.35
364.999	4.45
365.367	4.12
365.735	3.97
366.104	4.32
366.472	3.84
366.84	4.54
367.208	4.19
367.576	4.07
367.944	4.45
368.312	4.06
368.68	4.27
369.048	4.34
369.416	4.24
369.783	4.66
370.151	4.23
370.519	4.28
370.886	4.59
371.254	4.38
371.621	4.48
371.989	3.87
372.356	4.44
372.724	4.65
373.091	4.49
373.458	4.39
373.826	4.31
374.193	4.08
374.56	4.29
374.927	4.26
375.294	4.52
375.661	4.45
376.028	4.53
376.395	4.53
376.762	4.2
377.129	4.21
377.496	4.52
377.863	4.58
378.229	4.51
378.596	4.64
378.963	4.22
379.329	4.33
379.696	4.44
380.062	4.38
380.429	4.31
380.795	4.34
381.161	4.37
381.528	4.54
381.894	4.16
382.26	4.49
382.626	4.91
382.993	4.58
383.359	3.87
383.725	4.18
384.091	4.38
384.457	4.27
384.823	4.48
385.188	4.69
385.554	4.5
385.92	4.35
386.286	4.64
386.651	4.06
387.017	4.5
387.383	4.2
387.748	4.32
388.114	4.13
388.479	4.3
388.845	4.59
389.21	4.32
389.575	4.13
389.94	4.22
390.306	4.47
390.671	4.55
391.036	4.35
391.401	4.68
391.766	4.53
392.131	4.13
392.496	4.35
392.861	4.32
393.226	4.35
393.591	4.44
393.956	4.44
394.32	4.57
394.685	4.34
395.05	4.53
395.414	4.46
395.779	4.16
396.143	4.35
396.508	4.37
396.872	4.64
397.236	4.35
397.601	4.3
397.965	4.08
398.329	4.21
398.694	4.39
399.058	4.04
399.422	4.61
399.786	4.31
400.15	4.32
400.514	4.4
400.878	4.52
401.242	4.61
401.605	4.51
401.969	4.1
402.333	4.43
402.697	4.56
403.06	4.54
403.424	4.25
403.787	4.29
404.151	4.37
404.514	4.63
404.878	4.43
405.241	4.45
405.604	4.48
405.968	4.53
406.331	4.38
406.694	4.39
407.057	4.31
407.42	4.69
407.783	4.47
408.146	4.41
408.509	4.52
408.872	4.44
409.235	4.35
409.598	4.36
409.961	4.45
410.323	4.67
410.686	4.26
411.049	4.32
411.411	4.39
411.774	4.31
412.136	4.48
412.499	4.4
412.861	4.46
413.223	4.43
413.586	4.45
413.948	4.6
414.31	4.8
414.672	4.38
415.035	4.33
415.397	4.68
415.759	4.62
416.121	4.43
416.483	4.5
416.845	4.52
417.206	4.72
417.568	4.51
417.93	4.63
418.292	4.28
418.653	4.52
419.015	4.42
419.377	4.46
419.738	4.36
420.1	4.47
420.461	4.52
420.822	4.31
421.184	4.33
421.545	4.34
421.906	4.31
422.267	4.25
422.629	4.38
422.99	4.25
423.351	4.22
423.712	4.26
424.073	4.23
424.434	4.35
424.795	4.25
425.155	4.35
425.516	4.31
425.877	4.29
426.238	4.18
426.598	4.33
426.959	4.26
427.32	4.27
427.68	4.4
428.041	4.38
428.401	4.31
428.761	4.32
429.122	4.48
429.482	4.39
429.842	4.35
430.202	4.49
430.563	4.34
430.923	4.41
431.283	4.5
431.643	4.6
432.003	4.8
432.363	4.45
432.722	4.63
433.082	4.58
433.442	4.32
433.802	4.71
434.161	4.38
434.521	4.55
434.881	4.48
435.24	4.49
435.6	4.44
435.959	4.44
436.319	4.42
436.678	4.53
437.037	4.29
437.396	4.59
437.756	4.53
438.115	4.32
438.474	4.58
438.833	4.56
439.192	4.35
439.551	4.37
439.91	4.61
440.269	4.45
440.628	4.53
440.987	4.33
441.345	4.41
441.704	4.44
442.063	4.46
442.421	4.5
442.78	4.49
443.138	4.49
443.497	4.66
443.855	4.48
444.214	4.43
444.572	4.31
444.93	4.56
445.288	4.59
445.647	4.61
446.005	4.35
446.363	4.44
446.721	4.49
447.079	4.59
447.437	4.43
447.795	4.35
448.153	4.31
448.51	4.46
448.868	4.39
449.226	4.38
449.584	4.42
449.941	4.42
450.299	4.46
450.656	4.33
451.014	4.5
451.371	4.41
451.729	4.5
452.086	4.51
452.443	4.57
452.801	4.56
453.158	4.61
453.515	4.57
453.872	4.7
454.229	4.68
454.586	4.6
454.943	4.44
455.3	4.51
455.657	4.7
456.014	4.45
456.371	4.55
456.727	4.66
457.084	4.53
457.441	4.49
457.797	4.65
458.154	4.45
458.51	4.52
458.867	4.51
459.223	4.62
459.58	4.48
459.936	4.59
460.292	4.56
460.648	4.46
461.005	4.43
461.361	4.54
461.717	4.35
462.073	4.53
462.429	4.4
462.785	4.53
463.141	4.52
463.496	4.62
463.852	4.56
464.208	4.8
464.564	4.61
464.919	4.46
465.275	4.93
465.631	4.72
465.986	4.82
466.342	4.85
466.697	4.58
467.052	4.54
467.408	4.64
467.763	4.68
468.118	4.79
468.473	4.69
468.829	4.6
469.184	4.68
469.539	4.78
469.894	4.62
470.249	4.67
470.603	4.74
470.958	4.7
471.313	4.81
471.668	4.8
472.023	4.73
472.377	4.69
472.732	4.55
473.086	4.82
473.441	4.87
473.795	4.88
474.15	4.63
474.504	4.74
474.859	4.66
475.213	4.66
475.567	4.9
475.921	4.81
476.275	4.69
476.63	4.82
476.984	4.79
477.338	4.68
477.692	4.8
478.045	4.67
478.399	4.77
478.753	4.78
479.107	4.63
479.461	4.67
479.814	4.85
480.168	4.74
480.521	4.72
480.875	4.58
481.228	4.76
481.582	4.79
481.935	4.73
482.289	4.65
482.642	4.69
482.995	4.72
483.348	4.67
483.701	4.76
484.055	4.66
484.408	4.59
484.761	4.64
485.114	4.51
485.466	4.47
485.819	4.4
486.172	4.33
486.525	4.37
486.878	4.47
487.23	4.47
487.583	4.48
487.936	4.54
488.288	4.62
488.641	4.6
488.993	4.51
489.345	4.51
489.698	4.53
490.05	4.47
490.402	4.48
490.754	4.5
491.107	4.53
491.459	4.67
491.811	4.68
492.163	4.67
492.515	4.66
492.866	4.73
493.218	4.59
493.57	4.53
493.922	4.53
494.274	4.57
494.625	4.6
494.977	4.59
495.328	4.74
495.68	4.69
496.031	4.7
496.383	4.86
496.734	4.94
497.086	4.77
497.437	4.89
497.788	4.86
498.139	4.84
498.49	4.67
498.842	4.81
499.193	4.76
499.544	4.75
499.894	4.7
500.245	4.82
500.596	4.88
500.947	4.85
501.298	4.79
501.648	4.76
501.999	4.95
502.35	4.82
502.7	5.05
503.051	4.9
503.401	4.96
503.752	4.95
504.102	4.96
504.452	5
504.803	4.94
505.153	4.93
505.503	4.91
505.853	5.02
506.203	4.78
506.553	4.8
506.903	4.95
507.253	4.95
507.603	4.95
507.953	4.88
508.303	4.93
508.652	4.89
509.002	4.94
509.352	5
509.701	4.98
510.051	4.88
510.4	4.9
510.75	4.85
511.099	4.88
511.449	4.93
511.798	4.96
512.147	4.88
512.496	4.86
512.846	4.86
513.195	5
513.544	5.03
513.893	5.01
514.242	5.01
514.591	4.96
514.939	4.98
515.288	4.94
515.637	4.97
515.986	4.99
516.334	4.86
516.683	5.07
517.032	4.97
517.38	4.99
517.729	5.14
518.077	5.13
518.426	5.13
518.774	5
519.122	5.01
519.47	5.03
519.819	4.99
520.167	4.96
520.515	4.97
520.863	4.97
521.211	4.96
521.559	5.03
521.907	5.07
522.255	5.1
522.602	5.1
522.95	5.03
523.298	5.18
523.645	5.16
523.993	5.13
524.341	5.12
524.688	5.09
525.036	5.17
525.383	5.12
525.73	5.3
526.078	5.23
526.425	5.21
526.772	5.16
527.119	5.13
527.466	5.06
527.814	5.1
528.161	5.17
528.508	5.09
528.854	5.17
529.201	5.08
529.548	5.06
529.895	5.12
530.242	5.02
530.588	4.94
530.935	4.95
531.282	5.01
531.628	5.06
531.975	4.99
532.321	5.09
532.667	5.21
533.014	5.19
533.36	5.29
533.706	5.29
534.052	5.31
534.399	5.18
534.745	5.12
535.091	5.21
535.437	5.22
535.783	5.18
536.129	5.23
536.474	5.17
536.82	5.3
537.166	5.27
537.512	5.34
537.857	5.45
538.203	5.27
538.549	5.4
538.894	5.39
539.239	5.35
539.585	5.35
539.93	5.38
540.276	5.33
540.621	5.56
540.966	5.53
541.311	5.63
541.656	5.57
542.001	5.42
542.346	5.45
542.691	5.45
543.036	5.46
543.381	5.28
543.726	5.3
544.071	5.36
544.415	5.37
544.76	5.35
545.105	5.47
545.449	5.41
545.794	5.56
546.138	5.54
546.483	5.59
546.827	5.59
547.171	5.64
547.516	5.54
547.86	5.73
548.204	5.59
548.548	5.64
548.892	5.65
549.236	5.67
549.58	5.66
549.924	5.61
550.268	5.68
550.612	5.71
550.956	5.94
551.3	5.84
551.643	5.89
551.987	5.82
552.33	5.73
552.674	5.85
553.017	5.85
553.361	5.99
553.704	6
554.048	6
554.391	5.98
554.734	5.91
555.077	6
555.42	5.82
555.764	5.98
556.107	6.05
556.45	5.93
556.793	5.85
557.135	5.97
557.478	5.96
557.821	6.16
558.164	6.11
558.507	6.31
558.849	6.15
559.192	6.1
559.534	6.21
559.877	6.03
560.219	6.39
560.562	6.26
560.904	6.02
561.246	6.3
561.589	6.07
561.931	6.41
562.273	6.36
562.615	6.44
562.957	6.44
563.299	6.27
563.641	6.43
563.983	6.07
564.325	6.31
564.667	6.46
565.008	6.39
565.35	6.29
565.692	6.28
566.033	6.46
566.375	6.46
566.716	6.56
567.058	6.5
567.399	6.64
567.741	6.3
568.082	6.43
568.423	6.47
568.764	6.39
569.105	6.65
569.447	6.47
569.788	6.51
570.129	6.59
570.47	6.45
570.811	6.67
571.151	6.52
571.492	6.75
571.833	7.03
572.174	6.66
572.514	6.68
572.855	6.63
573.195	6.7
573.536	6.7
573.876	6.85
574.217	6.67
574.557	6.62
574.898	6.63
575.238	6.7
575.578	6.81
575.918	6.79
576.258	6.9
576.598	6.9
576.938	6.86
577.278	6.79
577.618	6.76
577.958	6.79
578.298	6.97
578.638	7.01
578.977	7.22
579.317	7.14
579.657	7.02
579.996	7.17
580.336	7.13
580.675	6.96
581.014	7.16
581.354	7.12
581.693	7.08
582.032	7.23
582.372	7.15
582.711	7.15
583.05	7.55
583.389	7.28
583.728	7.29
584.067	7.24
584.406	7.22
584.745	7.36
585.083	7.33
585.422	7.38
585.761	7.28
586.1	7.64
586.438	7.13
586.777	7.58
587.115	7.64
587.454	7.6
587.792	7.55
588.13	7.54
588.469	7.66
588.807	7.34
589.145	7.55
589.483	7.33
589.821	7.57
590.159	7.72
590.497	7.58
590.835	7.81
591.173	7.56
591.511	7.75
591.849	7.6
592.187	7.75
592.524	7.54
592.862	7.97
593.2	7.92
593.537	7.91
593.875	7.82
594.212	7.95
594.55	8.03
594.887	7.9
595.224	7.83
595.561	7.7
595.899	7.83
596.236	8.09
596.573	8.23
596.91	8.19
597.247	8.09
597.584	7.76
597.921	8.37
598.258	8.17
598.594	8.3
598.931	7.95
599.268	8
599.604	8.22
599.941	8.04
600.277	8.06
600.614	8.14
600.95	8.21
601.287	8.09
601.623	8.51
601.959	8.29
602.296	8.49
602.632	8.58
602.968	8.26
603.304	8.4
603.64	8.14
603.976	8.56
604.312	8.78
604.648	8.82
604.984	8.59
605.319	8.53
605.655	8.48
605.991	8.47
606.326	8.49
606.662	8.4
606.998	8.54
607.333	8.46
607.668	8.43
608.004	8.82
608.339	8.79
608.674	8.61
609.01	8.85
609.345	8.98
609.68	9.07
610.015	8.85
610.35	8.68
610.685	8.93
611.02	8.78
611.355	8.72
611.689	8.9
612.024	8.93
612.359	9.13
612.694	8.9
613.028	8.9
613.363	9.03
613.697	8.96
614.032	9.04
614.366	9.07
614.7	9.24
615.035	9.38
615.369	9.04
615.703	8.79
616.037	9.58
616.371	9.49
616.705	9.24
617.039	9.36
617.373	9.28
617.707	9.49
618.041	9.48
618.375	9.23
618.709	9.25
619.042	9.42
619.376	9.7
619.71	9.58
620.043	9.7
620.377	9.43
620.71	9.67
621.043	9.84
621.377	9.44
621.71	9.66
622.043	9.64
622.376	9.88
622.709	9.79
623.043	10.16
623.376	9.66
623.709	9.56
624.041	9.57
624.374	10.13
624.707	10.16
625.04	10
625.373	10.11
625.705	9.81
626.038	10.18
626.37	9.65
626.703	10.09
627.035	9.93
627.368	10.35
627.7	10.27
628.032	10.32
628.365	10.12
628.697	10.05
629.029	10.15
629.361	10.48
629.693	10.07
630.025	10.22
630.357	10.33
630.689	10.19
631.021	10.75
631.353	10.45
631.684	10.31
632.016	10.35
632.348	10.53
632.679	10.34
633.011	10.49
633.342	10.35
633.674	10.65
634.005	10.8
634.336	10.89
634.668	10.76
634.999	10.21
635.33	10.63
635.661	10.92
635.992	10.89
636.323	10.98
636.654	10.88
636.985	10.72
637.316	10.81
637.647	10.49
637.977	10.6
638.308	10.76
638.639	11.02
638.969	11.18
639.3	10.71
639.63	11.1
639.961	11.3
640.291	10.77
640.622	11
640.952	11.03
641.282	10.83
641.612	11.21
641.943	11.28
642.273	11.43
642.603	11.43
642.933	11.08
643.263	11.45
643.592	11.28
643.922	11.49
644.252	11.12
644.582	11.37
644.911	11.63
645.241	11.72
645.571	12.04
645.9	11.4
646.23	11.45
646.559	11.39
646.888	11.21
647.218	11.7
647.547	11.59
647.876	11.66
648.205	11.86
648.534	11.39
648.863	12.19
649.192	11.28
649.521	11.49
649.85	11.77
650.179	11.52
650.508	11.84
650.837	12.04
651.165	11.85
651.494	11.6
651.822	11.83
652.151	12.28
652.479	12.05
652.808	11.78
653.136	11.49
653.465	12.18
653.793	12.12
654.121	11.91
654.449	11.98
654.777	11.76
655.105	12.23
655.433	12.69
655.761	12.57
656.089	12.26
656.417	12.75
656.745	12.05
657.073	12.35
657.4	12.57
657.728	12.34
658.056	12.33
658.383	12.23
658.711	12.4
659.038	12.84
659.365	12.64
659.693	12.57
660.02	12.15
660.347	12.19
660.674	12.39
661.001	12.37
661.329	12.5
661.656	12.49
661.982	12.78
662.309	13.12
662.636	12.64
662.963	12.72
663.29	12.44
663.616	12.94
663.943	12.75
664.27	12.9
664.596	12.72
664.923	12.63
665.249	12.72
665.576	12.58
665.902	12.8
666.228	12.91
666.554	13.64
666.881	12.79
667.207	13.38
667.533	13
667.859	13.57
668.185	13.42
668.511	13.91
668.837	13.81
669.162	14.33
669.488	13.59
669.814	13.07
670.139	14.09
670.465	13.3
670.791	13.73
671.116	13.35
671.442	13.79
671.767	13.68
672.092	13.66
672.418	13.84
672.743	13.63
673.068	13.89
673.393	13.83
673.718	13.14
674.043	14.14
674.368	13.37
674.693	14.29
675.018	14.23
675.343	13.34
675.667	14
675.992	13.64
676.317	13.69
676.641	14.2
676.966	14.45
677.29	14.23
677.615	14.17
677.939	14.08
678.264	13.89
678.588	13.63
678.912	14.93
679.236	13.49
679.56	14
679.885	14.75
680.209	13.89
680.532	13.76
680.856	13.9
681.18	13.75
681.504	14.59
681.828	14.48
682.152	14.44
682.475	13.88
682.799	14.13
683.122	14.5
683.446	14.77
683.769	14.28
684.093	14.7
684.416	14.32
684.739	13.97
685.062	13.72
685.386	14.06
685.709	14.04
686.032	14.32
686.355	14.74
686.678	14.57
687.001	14.82
687.324	14.15
687.646	15.39
687.969	15.27
688.292	15.28
688.614	14.67
688.937	14.71
689.26	14.86
689.582	15.01
689.904	15.18
690.227	15.05
690.549	14.79
690.871	15
691.194	14.9
691.516	14.59
691.838	15.49
692.16	15.31
692.482	15.22
692.804	15.83
693.126	15.17
693.448	16.73
693.769	14.59
694.091	14.89
694.413	15.53
694.735	15.54
695.056	15.25
695.378	15.83
695.699	15.75
696.021	15.85
696.342	15.11
696.663	15.25
696.984	15.79
697.306	15.9
697.627	15.21
697.948	15.13
698.269	15.36
698.59	15.95
698.911	15.7
699.232	14.95
699.553	15.48
699.873	15.16
700.194	16.42
700.515	16.02
700.835	16.27
701.156	16.01
701.477	15.77
701.797	15.82
702.117	15.43
702.438	15.8
702.758	16.12
703.078	16.12
703.398	15.7
703.719	16.32
704.039	15.84
704.359	16.7
704.679	16.42
704.999	15.79
705.319	16.62
705.638	16.49
705.958	16.03
706.278	17.08
706.597	16.81
706.917	15.92
707.237	17.02
707.556	16.11
707.876	16.27
708.195	16.96
708.514	15.77
708.834	16.54
709.153	17.41
709.472	17.19
709.791	17.5
710.11	17.36
710.429	16.66
710.748	17.1
711.067	16.53
711.386	16.64
711.705	17.44
712.023	17.58
712.342	17.13
712.661	16.63
712.979	16.42
713.298	17.22
713.616	17.05
713.935	17.07
714.253	16.77
714.572	17.24
714.89	17.04
715.208	17.34
715.526	18.32
715.844	18.05
716.162	17.76
716.48	17.79
716.798	17.01
717.116	17.99
717.434	17.66
717.752	17.28
718.069	17.87
718.387	17.6
718.705	17.17
719.022	17.99
719.34	17.22
719.657	18.22
719.975	17.19
720.292	16.85
720.609	18.79
720.927	17.1
721.244	17.64
721.561	18.04
721.878	18.9
722.195	18.1
722.512	19.3
722.829	17.99
723.146	19.11
723.463	18.76
723.779	18.64
724.096	17.41
724.413	18.39
724.729	18.17
725.046	20.5
725.362	18.51
725.679	18.44
725.995	18.33
726.311	19.33
726.628	18.14
726.944	18.14
727.26	17.26
727.576	18.96
727.892	19.85
728.208	18.9
728.524	17.97
728.84	16.62
729.156	20.05
729.472	18.45
729.787	17.97
730.103	17.83
730.419	18.3
730.734	18.25
731.05	18.08
731.365	17.71
731.681	19.41
731.996	19.81
732.311	19.79
732.626	18.3
732.942	18.86
733.257	18.82
733.572	20.17
733.887	19.61
734.202	18.18
734.517	19.99
734.832	19.47
735.146	19.51
735.461	18.64
735.776	19.39
736.091	18.73
736.405	19.14
736.72	20.93
737.034	19.7
737.349	19.2
737.663	17.22
737.977	19.51
738.292	20.82
738.606	19.75
738.92	18.64
739.234	18.14
739.548	18.65
739.862	19
740.176	18.74
740.49	19.48
740.804	19.83
741.117	19.75
741.431	19.89
741.745	20.61
742.058	19.34
742.372	21.09
742.685	19.79
742.999	19.63
743.312	19.61
743.626	20.29
743.939	21.62
744.252	18.54
744.565	21.35
744.878	18.95
745.191	20.58
745.505	20.81
745.817	20.69
746.13	19.97
746.443	22.53
746.756	20.12
747.069	22.48
747.381	21.67
747.694	21.26
748.007	19.77
748.319	22.85
748.632	20.98
748.944	20.51
749.256	22.48
749.569	19.87
749.881	20.57
750.193	19.67
750.505	18.69
750.817	22.55
751.129	19.39
751.441	20.07
751.753	19.26
752.065	23.42
752.377	20.42
752.689	22.03
753	22.78
753.312	19
753.624	21.26
753.935	22.1
754.247	20.07
754.558	20.83
754.869	22.3
755.181	19.64
755.492	20.4
755.803	19.71
756.114	20.47
756.425	21.55
756.736	20.64
757.047	21.5
757.358	20.93
757.669	22.27
757.98	18.95
758.291	21.96
758.601	20.48
758.912	19.91
759.223	19.85
759.533	22.3
759.844	22.9
760.154	22.93
760.464	22.29
760.775	23.65
761.085	21.62
761.395	22.72
761.705	20.56
762.016	23.79
762.326	22.47
762.636	21.74
762.945	21.23
763.255	22.27
763.565	21.38
763.875	24.37
764.185	22.16
764.494	24
764.804	21.84
765.113	22.51
765.423	21.83
765.732	22.43
766.042	21.11
766.351	21.92
766.66	21.29
766.97	21.72
767.279	22.34
767.588	21.49
767.897	22.67
768.206	20.95
768.515	21.67
768.824	22.22
769.133	22.11
769.441	21.62
769.75	23.31
770.059	22.56
770.367	24.33
770.676	25.06
770.984	24.67
771.293	22.26
771.601	23.59
771.91	22.45
772.218	25.82
772.526	21.94
772.834	21.7
773.142	21.28
773.45	21.36
773.758	22.85
774.066	22.37
774.374	21.65
774.682	20.55
774.99	22.86
775.298	21.1
775.605	24.44
775.913	24.91
776.22	21.48
776.528	23.76
776.835	25.09
777.143	25.41
777.45	26.78
777.757	23.45
778.065	24.92
778.372	25.37
778.679	23.89
778.986	24.69
779.293	23.83
779.6	22.39
779.907	24.62
780.214	23.27
780.52	25.19
780.827	22.33
781.134	26.74
781.44	26.06
781.747	27.76
782.053	22.94
782.36	20.24
782.666	22.89
782.973	23.76
783.279	22.55
783.585	28.04
783.891	23.47
784.197	23.15
784.503	25.5
784.809	22.77
785.115	24.42
785.421	28.81
785.727	24.57
786.033	30.55
786.339	24.85
786.644	27.35
786.95	25.69
787.255	27.07
787.561	23.98
787.866	25.61
788.172	28.06
788.477	24.04
788.782	24.06
789.088	24
789.393	24.96
789.698	23.65
790.003	25.48
790.308	25.73
790.613	22.72
790.918	25.1
791.223	27.3
791.527	25.54
791.832	29.16
792.137	30.11
792.441	26.69
792.746	26.88
793.05	24.08
793.355	26.48
793.659	25.33
793.963	27.21
794.268	24.25
794.572	27.13
794.876	26.11
795.18	23.57
795.484	26.44
795.788	26.31
796.092	23
796.396	27.82
796.7	26.36
797.004	28.94
797.307	24.17
797.611	26.23
797.915	24.21
798.218	24.97
798.522	24.8
798.825	28.84
799.128	26.81
799.432	25.82
799.735	26.05
800.038	21.57
800.341	23.42
800.644	29.62
800.947	28.38
801.25	26.84
801.553	24.97
801.856	28.43
802.159	26.67
802.462	24.38
802.764	26.72
803.067	27.78
803.37	25.73
803.672	27.15
803.975	26.92
804.277	27.42
804.579	21.3
804.882	29.95
805.184	25.16
805.486	27.32
805.788	32.48
806.09	30.02
806.392	30.9
806.694	26.23
806.996	25.01
807.298	26.05
807.6	25.92
807.902	24.67
808.203	27.48
808.505	29.43
808.807	27.62
809.108	24.45
809.409	27.01
809.711	23.68
810.012	29.21
810.313	25.91
810.615	24.01
810.916	31.14
811.217	25.71
811.518	26.91
811.819	28.22
812.12	29.88
812.421	24.81
812.722	27.07
813.023	30.68
813.323	19.93
813.624	30.84
813.925	23.93
814.225	27.04
814.526	30.97
814.826	26.26
815.126	35.64
815.427	31.35
815.727	29.29
816.027	22.89
816.327	24.84
816.627	34.45
816.927	29.91
817.227	26.23
817.527	24.87
817.827	26.06
818.127	23.15
818.427	28.03
818.727	24.72
819.026	20.87
819.326	21.67
819.625	22.62
819.925	28.26
820.224	32.62
820.524	31.07
820.823	26.83
821.122	23.26
821.421	32.09
821.72	33.71
822.019	25.05
822.318	29.49
822.617	28.66
822.916	24.74
823.215	28.48
823.514	31.07
823.813	30.44
824.111	28.95
824.41	25.43
824.709	28.56
825.007	27.96
825.306	29.43
825.604	28.16
825.902	28.54
826.201	28.08
826.499	28.25
826.797	28.93
827.095	28.41
827.393	28.28
827.691	29.27
827.989	27.52
828.287	29.63
828.585	29.61
828.882	28.43
829.18	28.57
829.478	30.79
829.775	30.04
830.073	28.19
830.37	29.45
830.668	29.21
830.965	29.76
831.263	26.4
831.56	32.79
831.857	25.67
832.154	30.18
832.451	30.86
832.748	31.23
833.045	29.68
833.342	35.52
833.639	30.36
833.936	32.22
834.232	30.81
834.529	29.3
834.826	24.47
835.122	28.48
835.419	37.92
835.715	26.21
836.012	30.37
836.308	32.21
836.604	32.56
836.901	31.42
837.197	30.65
837.493	27.75
837.789	31.49
838.085	29.49
838.381	29.29
838.677	33.02
838.972	31.56
839.268	24.12
839.564	29.83
839.86	32.29
840.155	34.5
840.451	34.98
840.746	36.65
841.042	38.81
841.337	37.81
841.632	35.75
841.928	31.82
842.223	31.75
842.518	34.01
842.813	27.15
843.108	38.4
843.403	33.48
843.698	32.26
843.993	29.21
844.287	31.86
844.582	32.59
844.877	35.47
845.171	39.27
845.466	32.54
845.761	26.51
846.055	33.58
846.349	38.43
846.644	29.21
846.938	25.86
847.232	32.11
847.526	41.29
847.82	11.4
848.114	36.46
848.408	36.96
848.702	21.16
848.996	40.73
849.29	36.95
849.584	20.74
849.877	42.66
850.171	45.55
850.465	30.14
850.758	9.84
851.052	38.84
851.345	37.37
851.638	26.21
851.932	22.61
852.225	7.99
852.518	52.25
852.811	51.06
853.104	47.8
853.397	51.79
853.69	45.81
853.983	31.01
854.276	47.18
854.569	52.04
854.861	14.44
855.154	66.56
855.447	19.82
855.739	39.65
856.032	15.15
856.324	42.49
856.616	38.97
856.909	52.71
857.201	47.31
857.493	30.88
857.785	45.04
858.077	48.3
858.369	42.09
858.661	48.68
858.953	34.21
859.245	27.89
859.537	44.88
859.829	17.21
860.12	47.58
860.412	69.23
860.703	39.81
860.995	33.37
861.286	38.95
861.578	33.27
861.869	15.87
862.16	58.32
862.452	47.4
862.743	65.35
863.034	38.68
863.325	35
863.616	31.43
863.907	38.94
864.198	66.57
864.488	47.21
864.779	50.42
865.07	38.24
865.36	24.19
865.651	45.31
865.941	44.61
866.232	28.35
866.522	25.76
866.813	36.62
867.103	11.09
867.393	42.78
867.683	42.29
867.973	66.2
868.263	34.66
868.553	35.53
868.843	9.44
869.133	52.34
869.423	18.43
869.713	40.3
870.002	65.23
870.292	61.75
870.582	28.41
870.871	39.93
871.161	19.54
871.45	49.94
871.739	37.86
872.029	18.69
872.318	40.65
872.607	52.12
872.896	28.59
873.185	72.27
873.474	36.69
873.763	47.22
874.052	46.11
874.341	44.14
874.63	47.08
874.918	24.91
875.207	46.04
875.496	11.47
875.784	40.15
876.073	26.82
876.361	62.87
876.649	25.29
876.938	48.06
877.226	33.88
877.514	31.58
877.802	-0.64
878.09	22.47
878.378	60.05
878.666	-23.8
878.954	49.45
879.242	41.36
879.53	44.25
879.817	32.61
880.105	22.02
880.392	57.24
880.68	34.85
880.967	26.6
881.255	52.9
881.542	26.33
881.83	27.92
882.117	53.36
882.404	36.62
882.691	54.23
882.978	38.19
883.265	22.27
883.552	49.82
883.839	23.85
884.126	49.49
884.413	41.95
884.699	32.79
884.986	39.77
885.273	35.21
885.559	35.21
885.846	35.21
