Data from 0090_chest_Reflection__4__161.txt Node

Date: Fri Sep 22 22:12:03 CDT 2023
User: ToomeyLab
Spectrometer: FLMS14357
Trigger mode: 0
Integration Time (sec): 1.000000E-2
Scans to average: 100
Electric dark correction enabled: true
Nonlinearity correction enabled: false
Boxcar width: 0
XAxis mode: Wavelengths
Number of Pixels in Spectrum: 2048
>>>>>Begin Spectral Data<<<<<
189.047	632.07
189.435	632.07
189.823	632.07
190.211	60.4
190.599	218.84
190.987	79.81
191.375	239.5
191.763	73.24
192.151	439.77
192.538	24.13
192.926	175.13
193.314	103.37
193.702	151.5
194.089	126.03
194.477	-146.69
194.864	4.86
195.252	-1252.5
195.639	-118.2
196.027	12.98
196.414	414.11
196.801	-138.68
197.189	-50.23
197.576	146.06
197.963	237.09
198.351	8.57
198.738	16.25
199.125	25.96
199.512	23.51
199.899	34.2
200.286	2.46
200.673	50.17
201.06	-3.38
201.447	89.78
201.833	-15.49
202.22	43.08
202.607	15.79
202.994	30.43
203.38	20
203.767	15.29
204.154	52.72
204.54	30.91
204.927	8.51
205.313	44.41
205.699	62.67
206.086	44.87
206.472	51.51
206.858	30.49
207.245	-31.34
207.631	36.62
208.017	31.87
208.403	43.54
208.789	34.75
209.175	48.12
209.561	25.01
209.947	34.29
210.333	19.76
210.719	-15.36
211.105	41.26
211.491	25.07
211.876	28.09
212.262	45.81
212.648	28.96
213.034	25.75
213.419	23.05
213.805	14.53
214.19	-5.08
214.576	16.24
214.961	2.98
215.346	-1.62
215.732	6.82
216.117	2.12
216.502	18.22
216.888	20.45
217.273	11.2
217.658	27.23
218.043	0.69
218.428	31.42
218.813	17.35
219.198	11.1
219.583	-1.84
219.968	-4.98
220.353	40.29
220.738	18.48
221.122	-8.14
221.507	-14.14
221.892	-6.12
222.276	10.7
222.661	-41.49
223.046	22.11
223.43	29.6
223.815	1.97
224.199	-4.13
224.583	9.85
224.968	7.72
225.352	-0.31
225.736	5.39
226.121	1.43
226.505	4.46
226.889	0.08
227.273	10.12
227.657	1.46
228.041	5.69
228.425	5.36
228.809	6.45
229.193	6.76
229.577	4.32
229.961	5.95
230.344	6.13
230.728	2.44
231.112	4.44
231.495	3.05
231.879	4.52
232.263	2.72
232.646	3.27
233.03	3.38
233.413	4.47
233.797	3.93
234.18	4.41
234.563	6.36
234.946	4.83
235.33	0.02
235.713	1.63
236.096	3.09
236.479	3.08
236.862	4.58
237.245	2.62
237.628	3.98
238.011	5.39
238.394	3.01
238.777	4.63
239.16	3.68
239.543	6.1
239.925	4.48
240.308	3.9
240.691	4.99
241.073	4.39
241.456	3
241.838	2.79
242.221	3.14
242.603	4.4
242.986	3.38
243.368	2.62
243.75	4.06
244.133	3.87
244.515	3.1
244.897	3.16
245.279	3.06
245.661	2.79
246.043	2.64
246.425	2.94
246.807	2.57
247.189	1.16
247.571	3.38
247.953	3.55
248.335	2.89
248.717	3.21
249.098	3.07
249.48	2.94
249.862	3.06
250.243	3.13
250.625	3.49
251.006	2.67
251.388	3.23
251.769	3.49
252.151	3.63
252.532	2.73
252.913	2.65
253.295	3.72
253.676	3.88
254.057	3.1
254.438	3.72
254.819	2.98
255.2	2.86
255.581	3.36
255.962	3.59
256.343	2.3
256.724	2.31
257.105	3.59
257.486	3.34
257.867	3.97
258.247	3.9
258.628	3.72
259.009	2.91
259.389	2.77
259.77	3.64
260.15	3.39
260.531	2.77
260.911	2.92
261.292	2.83
261.672	2.3
262.052	3.1
262.432	2.72
262.813	3.18
263.193	2.61
263.573	3.29
263.953	2.51
264.333	2.74
264.713	2.91
265.093	2.91
265.473	3.07
265.853	2.95
266.233	3.71
266.612	2.55
266.992	2.83
267.372	3.79
267.752	3.58
268.131	3.3
268.511	3.43
268.89	3.36
269.27	2.42
269.649	3.12
270.029	2.76
270.408	2.91
270.787	2.69
271.167	3.1
271.546	2.81
271.925	2.62
272.304	3.04
272.683	2.73
273.062	3.19
273.441	2.66
273.82	3.34
274.199	3.22
274.578	2.99
274.957	2.64
275.336	2.56
275.715	3.05
276.093	2.4
276.472	2.79
276.851	2.64
277.229	2.28
277.608	2.98
277.986	2.47
278.365	2.93
278.743	2.52
279.122	2.87
279.5	3.41
279.878	2.63
280.257	3.25
280.635	2.83
281.013	2.62
281.391	2.43
281.769	2.66
282.147	2.79
282.525	2.52
282.903	2.91
283.281	2.95
283.659	2.73
284.037	2.59
284.415	2.61
284.792	2.47
285.17	2.64
285.548	3.05
285.925	2.57
286.303	3.02
286.68	2.28
287.058	2.39
287.435	2.45
287.813	2.66
288.19	2.28
288.567	2.53
288.945	2.53
289.322	2.7
289.699	2.58
290.076	2.75
290.453	2.35
290.83	2.23
291.207	2.43
291.584	2.14
291.961	2.56
292.338	2.5
292.715	2.95
293.092	2.52
293.469	2.45
293.845	2.19
294.222	3.02
294.599	3.01
294.975	2.6
295.352	2.66
295.728	3.11
296.105	2.7
296.481	2.66
296.858	2.88
297.234	2.38
297.61	2.41
297.986	2.61
298.363	2.73
298.739	2.76
299.115	2.81
299.491	2.92
299.867	2.59
300.243	2.36
300.619	2.31
300.995	2.15
301.371	2.58
301.746	2.64
302.122	2.72
302.498	2.8
302.874	2.66
303.249	2.63
303.625	2.51
304	2.5
304.376	2.78
304.751	3.03
305.127	2.87
305.502	3.03
305.878	2.64
306.253	2.68
306.628	2.38
307.003	2.81
307.378	2.27
307.754	2.31
308.129	2.75
308.504	2.83
308.879	3.06
309.254	2.79
309.629	2.49
310.003	3.22
310.378	2.86
310.753	2.28
311.128	2.39
311.502	2.99
311.877	2.34
312.252	2.5
312.626	2.64
313.001	2.51
313.375	2.79
313.75	2.68
314.124	2.93
314.498	2.41
314.873	2.73
315.247	2.72
315.621	2.57
315.995	2.64
316.369	2.5
316.743	2.83
317.117	2.81
317.491	2.79
317.865	2.23
318.239	2.96
318.613	2.62
318.987	2.6
319.361	2.45
319.734	2.09
320.108	2.57
320.482	2.5
320.855	2.58
321.229	3.55
321.602	2.78
321.976	2.14
322.349	3.04
322.723	2.96
323.096	2.67
323.469	3.22
323.843	2.7
324.216	3.2
324.589	2.3
324.962	2.14
325.335	2.56
325.708	2.6
326.081	3.15
326.454	2.35
326.827	2.6
327.2	2.73
327.573	3.12
327.945	2.76
328.318	2.65
328.691	2.72
329.063	2.05
329.436	3.03
329.809	2.92
330.181	2.77
330.553	2.2
330.926	2.93
331.298	2.82
331.671	3.15
332.043	2.36
332.415	2.77
332.787	2.5
333.159	2.32
333.532	2.44
333.904	2.72
334.276	2.38
334.648	2.32
335.02	2.19
335.391	2.45
335.763	2.85
336.135	2.46
336.507	2.69
336.879	2.04
337.25	3.02
337.622	3.15
337.993	2.48
338.365	2.64
338.736	2.44
339.108	2.56
339.479	2.49
339.851	2.04
340.222	2.57
340.593	2.27
340.964	2.45
341.336	2.47
341.707	2.31
342.078	2.56
342.449	2.47
342.82	2.06
343.191	2.19
343.562	2.45
343.933	2.43
344.303	2.37
344.674	2.61
345.045	2.6
345.416	2.36
345.786	2.74
346.157	2.61
346.527	2.8
346.898	2.72
347.268	2.22
347.639	2.32
348.009	2.69
348.38	2.92
348.75	2.68
349.12	2.31
349.49	2.48
349.861	2.42
350.231	2.93
350.601	2.94
350.971	2.59
351.341	2.17
351.711	2.38
352.081	2.2
352.45	2.14
352.82	2.65
353.19	2.91
353.56	2.89
353.929	2.68
354.299	2.65
354.669	2.28
355.038	2.17
355.408	2.68
355.777	2.85
356.147	2.61
356.516	3.01
356.885	2.35
357.254	3.1
357.624	2.37
357.993	2.52
358.362	2.53
358.731	2.61
359.1	2.28
359.469	2.8
359.838	2.19
360.207	2.29
360.576	2.57
360.945	2.59
361.314	2.78
361.682	2.71
362.051	2.72
362.42	2.34
362.788	2.51
363.157	2.63
363.525	2.38
363.894	2.37
364.262	2.39
364.631	2.43
364.999	2.27
365.367	2.56
365.735	2.5
366.104	2.42
366.472	2.72
366.84	2.47
367.208	2.82
367.576	2.92
367.944	2.59
368.312	2.66
368.68	2.29
369.048	2.66
369.416	2.39
369.783	2.4
370.151	2.19
370.519	2.41
370.886	2.48
371.254	3.05
371.621	2.32
371.989	2.48
372.356	2.47
372.724	2.81
373.091	2.83
373.458	2.46
373.826	2.42
374.193	2.74
374.56	2.67
374.927	2.64
375.294	2.57
375.661	2.47
376.028	2.94
376.395	2.88
376.762	2.43
377.129	2.71
377.496	2.7
377.863	2.92
378.229	2.42
378.596	2.68
378.963	2.74
379.329	2.42
379.696	2.85
380.062	2.44
380.429	2.71
380.795	2.56
381.161	2.6
381.528	2.56
381.894	2.46
382.26	2.65
382.626	2.8
382.993	2.89
383.359	2.46
383.725	2.55
384.091	2.6
384.457	2.41
384.823	2.7
385.188	2.75
385.554	2.71
385.92	2.8
386.286	2.55
386.651	2.27
387.017	2.71
387.383	2.28
387.748	2.65
388.114	2.36
388.479	2.67
388.845	2.48
389.21	2.28
389.575	2.96
389.94	2.51
390.306	2.52
390.671	3.06
391.036	2.3
391.401	2.5
391.766	2.57
392.131	2.69
392.496	2.45
392.861	2.57
393.226	3.06
393.591	2.7
393.956	2.75
394.32	2.48
394.685	2.48
395.05	2.68
395.414	2.7
395.779	2.75
396.143	2.6
396.508	2.56
396.872	2.63
397.236	2.6
397.601	2.54
397.965	2.65
398.329	2.81
398.694	2.74
399.058	2.59
399.422	2.7
399.786	2.72
400.15	2.75
400.514	2.68
400.878	2.55
401.242	2.71
401.605	2.63
401.969	2.48
402.333	2.78
402.697	2.59
403.06	2.62
403.424	2.48
403.787	2.82
404.151	2.59
404.514	2.82
404.878	2.55
405.241	3
405.604	2.72
405.968	2.74
406.331	2.82
406.694	2.51
407.057	2.37
407.42	2.73
407.783	2.6
408.146	2.69
408.509	2.58
408.872	2.74
409.235	2.62
409.598	2.47
409.961	2.86
410.323	2.6
410.686	2.57
411.049	2.86
411.411	2.76
411.774	2.44
412.136	2.57
412.499	2.59
412.861	2.7
413.223	2.75
413.586	2.67
413.948	2.63
414.31	2.63
414.672	2.68
415.035	2.75
415.397	2.79
415.759	2.89
416.121	2.61
416.483	2.62
416.845	2.61
417.206	2.59
417.568	2.61
417.93	2.69
418.292	2.66
418.653	2.56
419.015	2.63
419.377	2.55
419.738	2.7
420.1	2.71
420.461	2.67
420.822	2.6
421.184	2.58
421.545	2.59
421.906	2.5
422.267	2.59
422.629	2.68
422.99	2.63
423.351	2.52
423.712	2.49
424.073	2.57
424.434	2.62
424.795	2.58
425.155	2.75
425.516	2.6
425.877	2.66
426.238	2.45
426.598	2.53
426.959	2.62
427.32	2.68
427.68	2.56
428.041	2.49
428.401	2.7
428.761	2.72
429.122	2.72
429.482	2.6
429.842	2.57
430.202	2.6
430.563	2.82
430.923	2.62
431.283	2.63
431.643	2.67
432.003	2.75
432.363	2.84
432.722	2.88
433.082	2.78
433.442	2.67
433.802	2.73
434.161	2.52
434.521	2.87
434.881	2.74
435.24	2.69
435.6	2.63
435.959	2.63
436.319	2.49
436.678	2.83
437.037	2.65
437.396	2.61
437.756	2.78
438.115	2.81
438.474	2.83
438.833	2.73
439.192	2.67
439.551	2.74
439.91	2.73
440.269	2.82
440.628	2.59
440.987	2.71
441.345	2.81
441.704	2.77
442.063	2.66
442.421	2.76
442.78	2.67
443.138	2.79
443.497	2.71
443.855	2.67
444.214	2.64
444.572	2.82
444.93	2.87
445.288	2.77
445.647	2.84
446.005	2.68
446.363	2.73
446.721	2.68
447.079	2.63
447.437	2.71
447.795	2.75
448.153	2.62
448.51	2.77
448.868	2.67
449.226	2.72
449.584	2.65
449.941	2.58
450.299	2.75
450.656	2.78
451.014	2.67
451.371	2.79
451.729	2.81
452.086	2.7
452.443	2.78
452.801	2.91
453.158	2.76
453.515	2.82
453.872	2.73
454.229	2.61
454.586	2.74
454.943	2.79
455.3	2.8
455.657	2.87
456.014	2.84
456.371	2.75
456.727	2.9
457.084	2.8
457.441	2.68
457.797	2.75
458.154	2.79
458.51	2.7
458.867	2.8
459.223	2.69
459.58	2.99
459.936	2.83
460.292	2.84
460.648	2.85
461.005	2.85
461.361	2.75
461.717	2.57
462.073	2.64
462.429	2.66
462.785	2.73
463.141	2.77
463.496	2.83
463.852	2.87
464.208	2.8
464.564	3
464.919	2.7
465.275	2.95
465.631	2.96
465.986	2.8
466.342	2.81
466.697	2.87
467.052	2.79
467.408	2.89
467.763	2.83
468.118	2.97
468.473	2.71
468.829	2.74
469.184	2.94
469.539	2.9
469.894	2.93
470.249	2.82
470.603	2.79
470.958	2.93
471.313	2.92
471.668	2.95
472.023	2.93
472.377	2.99
472.732	2.84
473.086	3.04
473.441	2.83
473.795	2.98
474.15	2.74
474.504	2.81
474.859	3.07
475.213	2.69
475.567	2.74
475.921	2.78
476.275	2.86
476.63	2.87
476.984	2.83
477.338	2.96
477.692	2.94
478.045	2.87
478.399	3.16
478.753	2.87
479.107	2.87
479.461	2.85
479.814	2.93
480.168	2.9
480.521	3.01
480.875	2.96
481.228	2.9
481.582	2.8
481.935	2.83
482.289	2.88
482.642	2.78
482.995	2.84
483.348	2.87
483.701	2.91
484.055	2.74
484.408	2.85
484.761	2.82
485.114	2.77
485.466	2.75
485.819	2.74
486.172	2.67
486.525	2.71
486.878	2.73
487.23	2.75
487.583	2.81
487.936	2.85
488.288	2.82
488.641	2.85
488.993	2.81
489.345	2.84
489.698	2.73
490.05	2.73
490.402	2.79
490.754	2.73
491.107	2.78
491.459	2.89
491.811	2.86
492.163	2.87
492.515	2.96
492.866	2.84
493.218	2.96
493.57	2.9
493.922	2.81
494.274	2.82
494.625	2.85
494.977	2.86
495.328	2.97
495.68	2.97
496.031	2.92
496.383	3.1
496.734	3.01
497.086	3.01
497.437	3.07
497.788	2.96
498.139	3.11
498.49	3.12
498.842	3.01
499.193	2.94
499.544	3.02
499.894	3.01
500.245	3.07
500.596	3.07
500.947	3
501.298	3.03
501.648	3
501.999	3.06
502.35	3.03
502.7	3.16
503.051	3.08
503.401	3.06
503.752	3.14
504.102	3.03
504.452	3
504.803	3.2
505.153	3.03
505.503	3.06
505.853	3.15
506.203	3.09
506.553	3.15
506.903	3.17
507.253	3.09
507.603	3.17
507.953	3.07
508.303	3.19
508.652	3.2
509.002	3.2
509.352	3.07
509.701	3.23
510.051	3.14
510.4	3.21
510.75	3.11
511.099	3.01
511.449	3.18
511.798	3.13
512.147	3.15
512.496	3.06
512.846	3.11
513.195	3.15
513.544	3.14
513.893	3.27
514.242	3.16
514.591	3.23
514.939	3.14
515.288	3.12
515.637	3.19
515.986	3.16
516.334	3.2
516.683	3.12
517.032	3.3
517.38	3.22
517.729	3.26
518.077	3.13
518.426	3.17
518.774	3.15
519.122	3.13
519.47	3.14
519.819	3.2
520.167	3.32
520.515	3.16
520.863	3.17
521.211	3.16
521.559	3.19
521.907	3.25
522.255	3.31
522.602	3.32
522.95	3.27
523.298	3.32
523.645	3.34
523.993	3.3
524.341	3.19
524.688	3.34
525.036	3.25
525.383	3.37
525.73	3.36
526.078	3.33
526.425	3.3
526.772	3.39
527.119	3.32
527.466	3.23
527.814	3.25
528.161	3.2
528.508	3.21
528.854	3.29
529.201	3.3
529.548	3.34
529.895	3.21
530.242	3.2
530.588	3.18
530.935	3.12
531.282	3.14
531.628	3.21
531.975	3.21
532.321	3.24
532.667	3.32
533.014	3.32
533.36	3.37
533.706	3.35
534.052	3.4
534.399	3.52
534.745	3.42
535.091	3.38
535.437	3.34
535.783	3.23
536.129	3.32
536.474	3.37
536.82	3.29
537.166	3.44
537.512	3.43
537.857	3.5
538.203	3.5
538.549	3.46
538.894	3.38
539.239	3.4
539.585	3.45
539.93	3.55
540.276	3.45
540.621	3.51
540.966	3.57
541.311	3.54
541.656	3.53
542.001	3.57
542.346	3.55
542.691	3.59
543.036	3.53
543.381	3.41
543.726	3.4
544.071	3.42
544.415	3.47
544.76	3.46
545.105	3.42
545.449	3.43
545.794	3.57
546.138	3.59
546.483	3.52
546.827	3.57
547.171	3.71
547.516	3.68
547.86	3.72
548.204	3.7
548.548	3.66
548.892	3.7
549.236	3.65
549.58	3.76
549.924	3.67
550.268	3.82
550.612	3.78
550.956	3.8
551.3	3.75
551.643	3.91
551.987	3.9
552.33	3.98
552.674	3.79
553.017	3.84
553.361	3.85
553.704	3.96
554.048	3.86
554.391	4.07
554.734	3.85
555.077	3.9
555.42	3.91
555.764	3.92
556.107	3.9
556.45	3.86
556.793	3.91
557.135	3.99
557.478	3.86
557.821	3.95
558.164	4.07
558.507	3.97
558.849	4
559.192	4.13
559.534	4.1
559.877	4.22
560.219	4.21
560.562	4.18
560.904	4.35
561.246	4.35
561.589	4.27
561.931	4.29
562.273	3.97
562.615	4.07
562.957	4.09
563.299	4.27
563.641	4.25
563.983	4.23
564.325	4.13
564.667	4.25
565.008	4.09
565.35	4.25
565.692	4.2
566.033	4.39
566.375	4.24
566.716	4.18
567.058	4.13
567.399	4.4
567.741	4.45
568.082	4.27
568.423	4.47
568.764	4.52
569.105	4.24
569.447	4.29
569.788	4.28
570.129	4.42
570.47	4.58
570.811	4.41
571.151	4.41
571.492	4.34
571.833	4.31
572.174	4.51
572.514	4.6
572.855	4.39
573.195	4.26
573.536	4.54
573.876	4.43
574.217	4.51
574.557	4.49
574.898	4.51
575.238	4.57
575.578	4.51
575.918	4.69
576.258	4.44
576.598	4.63
576.938	4.65
577.278	4.65
577.618	4.45
577.958	4.63
578.298	4.86
578.638	4.76
578.977	4.65
579.317	4.72
579.657	4.78
579.996	4.72
580.336	4.69
580.675	4.77
581.014	4.59
581.354	4.82
581.693	4.96
582.032	4.71
582.372	4.91
582.711	4.76
583.05	4.79
583.389	4.97
583.728	4.83
584.067	4.92
584.406	5.14
584.745	4.77
585.083	5.28
585.422	5.19
585.761	5
586.1	5.06
586.438	4.96
586.777	5.08
587.115	4.92
587.454	4.9
587.792	5.34
588.13	5.01
588.469	5.07
588.807	5.34
589.145	5.23
589.483	5.18
589.821	5.23
590.159	5.53
590.497	5.62
590.835	5.11
591.173	5.42
591.511	5.34
591.849	5.36
592.187	5.33
592.524	5.54
592.862	5.36
593.2	5.39
593.537	5.37
593.875	5.36
594.212	5.58
594.55	5.75
594.887	5.33
595.224	5.52
595.561	5.75
595.899	5.63
596.236	5.77
596.573	5.78
596.91	5.66
597.247	5.61
597.584	5.8
597.921	5.65
598.258	5.72
598.594	5.69
598.931	5.66
599.268	5.58
599.604	5.74
599.941	5.62
600.277	5.58
600.614	5.72
600.95	5.65
601.287	5.78
601.623	5.73
601.959	6.09
602.296	6.06
602.632	5.84
602.968	5.94
603.304	5.77
603.64	5.91
603.976	6.05
604.312	5.84
604.648	6.11
604.984	5.91
605.319	6.02
605.655	5.85
605.991	5.94
606.326	6.02
606.662	5.93
606.998	6.02
607.333	6.13
607.668	6.11
608.004	6.29
608.339	5.86
608.674	6.03
609.01	6.21
609.345	6.1
609.68	6.25
610.015	6.24
610.35	6.36
610.685	6.56
611.02	6.21
611.355	6.16
611.689	6.19
612.024	6.3
612.359	6.36
612.694	6.34
613.028	6.26
613.363	6.18
613.697	6.02
614.032	6.45
614.366	6.26
614.7	6.34
615.035	6.35
615.369	6.38
615.703	6.31
616.037	6.5
616.371	6.56
616.705	6.97
617.039	6.87
617.373	6.6
617.707	6.81
618.041	6.66
618.375	6.63
618.709	6.59
619.042	6.91
619.376	6.94
619.71	6.8
620.043	6.34
620.377	6.46
620.71	6.75
621.043	6.57
621.377	7.18
621.71	6.92
622.043	7.21
622.376	7.02
622.709	7.05
623.043	7.06
623.376	6.92
623.709	6.76
624.041	6.76
624.374	7.06
624.707	7.61
625.04	7.2
625.373	6.91
625.705	7.09
626.038	7.05
626.37	7.24
626.703	7.11
627.035	7.16
627.368	7.32
627.7	7.46
628.032	7.39
628.365	7.24
628.697	7.46
629.029	7.25
629.361	7.26
629.693	7.36
630.025	7.38
630.357	7.21
630.689	7.42
631.021	7.3
631.353	7.25
631.684	7.51
632.016	7.74
632.348	7.21
632.679	7.44
633.011	7.69
633.342	7.44
633.674	7.71
634.005	7.41
634.336	7.76
634.668	7.65
634.999	7.79
635.33	7.86
635.661	7.84
635.992	7.83
636.323	7.5
636.654	7.64
636.985	7.64
637.316	7.9
637.647	7.95
637.977	7.56
638.308	7.9
638.639	7.7
638.969	7.99
639.3	7.71
639.63	8.08
639.961	7.93
640.291	7.95
640.622	8.3
640.952	7.99
641.282	8.28
641.612	8.29
641.943	8.3
642.273	8.69
642.603	7.63
642.933	7.73
643.263	7.82
643.592	8.29
643.922	8.39
644.252	8.49
644.582	8.35
644.911	8.42
645.241	8.63
645.571	7.88
645.9	8.28
646.23	9
646.559	8.7
646.888	8.65
647.218	8.41
647.547	8.29
647.876	8.1
648.205	8.29
648.534	8.65
648.863	8.4
649.192	8.22
649.521	8.75
649.85	8.8
650.179	8.47
650.508	8.18
650.837	8.74
651.165	8.63
651.494	8.54
651.822	8.78
652.151	8.55
652.479	8.78
652.808	8.61
653.136	9.32
653.465	8.45
653.793	8.86
654.121	9.32
654.449	8.26
654.777	9.06
655.105	9.23
655.433	8.93
655.761	9.69
656.089	9.08
656.417	8.87
656.745	9.08
657.073	9.23
657.4	9.57
657.728	9.05
658.056	8.9
658.383	9.36
658.711	9.18
659.038	9.08
659.365	9.32
659.693	8.76
660.02	9.21
660.347	9.68
660.674	9.11
661.001	9.06
661.329	9.14
661.656	9.59
661.982	9.06
662.309	9.84
662.636	9.78
662.963	9.45
663.29	9.8
663.616	9.39
663.943	9.59
664.27	9.62
664.596	9.7
664.923	9.62
665.249	9.54
665.576	8.77
665.902	9.76
666.228	9.95
666.554	9.55
666.881	10.26
667.207	9.5
667.533	9.3
667.859	9.37
668.185	9.63
668.511	10.39
668.837	9.6
669.162	10.3
669.488	9.33
669.814	9.54
670.139	10.22
670.465	10.13
670.791	9.78
671.116	9.53
671.442	10.4
671.767	9.08
672.092	10.61
672.418	10.51
672.743	9.88
673.068	10.33
673.393	9.57
673.718	10.73
674.043	9.79
674.368	10.79
674.693	10.29
675.018	9.95
675.343	10.82
675.667	10.46
675.992	10.06
676.317	11.19
676.641	10.47
676.966	10.76
677.29	9.87
677.615	10.45
677.939	10.66
678.264	10.24
678.588	11.15
678.912	10.67
679.236	10.62
679.56	10.32
679.885	11.12
680.209	11.09
680.532	10.6
680.856	11.04
681.18	11.28
681.504	10.69
681.828	10.82
682.152	10.43
682.475	10.96
682.799	11.29
683.122	10.72
683.446	10.36
683.769	11.17
684.093	11.38
684.416	10.68
684.739	10.42
685.062	11.38
685.386	10.77
685.709	10.07
686.032	10.72
686.355	11.31
686.678	11.14
687.001	10.89
687.324	12.08
687.646	11.08
687.969	10.81
688.292	11.25
688.614	12
688.937	11.38
689.26	11.17
689.582	11.89
689.904	10.6
690.227	11.69
690.549	11.49
690.871	11.3
691.194	11.56
691.516	11.6
691.838	11.33
692.16	10.98
692.482	11.43
692.804	11.19
693.126	10.48
693.448	11.73
693.769	11.11
694.091	11.47
694.413	11.54
694.735	11.89
695.056	11.89
695.378	12.7
695.699	11.6
696.021	11.46
696.342	11.71
696.663	10.46
696.984	11.92
697.306	11.14
697.627	10.6
697.948	11.64
698.269	12.07
698.59	11.89
698.911	11.64
699.232	11.67
699.553	11.83
699.873	12.52
700.194	12.27
700.515	11.52
700.835	12.44
701.156	11.98
701.477	12.17
701.797	12.19
702.117	12.48
702.438	11.62
702.758	12.09
703.078	12.56
703.398	11.67
703.719	12.25
704.039	12.83
704.359	12.63
704.679	11.84
704.999	13.22
705.319	12.17
705.638	12.11
705.958	12.5
706.278	13.68
706.597	12.97
706.917	12.82
707.237	12.01
707.556	12.44
707.876	12.08
708.195	13.31
708.514	12.39
708.834	12.1
709.153	12.8
709.472	12.26
709.791	12.26
710.11	12.59
710.429	13.09
710.748	14.05
711.067	12.84
711.386	13.33
711.705	13.38
712.023	13.21
712.342	13.13
712.661	13.42
712.979	12.89
713.298	13.85
713.616	12.6
713.935	13.71
714.253	13.8
714.572	13.75
714.89	13.3
715.208	14.03
715.526	12.71
715.844	14.19
716.162	12.94
716.48	13.61
716.798	13.59
717.116	13.42
717.434	12
717.752	13.54
718.069	12.47
718.387	13.02
718.705	13.45
719.022	13.7
719.34	13.07
719.657	11.87
719.975	13.7
720.292	13.49
720.609	13.81
720.927	13.15
721.244	13.96
721.561	13.72
721.878	13.88
722.195	13.1
722.512	13.76
722.829	13.52
723.146	14.95
723.463	13.69
723.779	13.36
724.096	13.23
724.413	14.76
724.729	14.93
725.046	13.27
725.362	13.92
725.679	14.8
725.995	14.96
726.311	13.37
726.628	13.88
726.944	12.67
727.26	13.24
727.576	13.2
727.892	12.51
728.208	14.26
728.524	15.09
728.84	14.04
729.156	13.35
729.472	14.93
729.787	14.11
730.103	14.71
730.419	14.12
730.734	13.88
731.05	13.49
731.365	13.94
731.681	14.16
731.996	14.38
732.311	15
732.626	14.77
732.942	15.07
733.257	14.78
733.572	14.39
733.887	14.96
734.202	14.79
734.517	14.7
734.832	13.87
735.146	14.73
735.461	16.25
735.776	15.02
736.091	14.75
736.405	14.77
736.72	15.4
737.034	14.17
737.349	13.79
737.663	14.78
737.977	14.49
738.292	15.52
738.606	15.74
738.92	16.89
739.234	13.39
739.548	13.9
739.862	13.9
740.176	14.46
740.49	15.23
740.804	15.69
741.117	15.8
741.431	15.36
741.745	16.31
742.058	14.71
742.372	13.65
742.685	14.7
742.999	16.71
743.312	16.77
743.626	14.97
743.939	13.28
744.252	15.07
744.565	14.41
744.878	15.97
745.191	16.86
745.505	15.69
745.817	13.36
746.13	17.32
746.443	17.32
746.756	15.98
747.069	14.97
747.381	12.51
747.694	14.91
748.007	16.3
748.319	15.45
748.632	16.69
748.944	18.16
749.256	16.93
749.569	16.72
749.881	17
750.193	16.67
750.505	16.11
750.817	16.67
751.129	15.72
751.441	16.49
751.753	16.59
752.065	16.79
752.377	15.9
752.689	17
753	15.57
753.312	16.97
753.624	15.68
753.935	18.74
754.247	16.23
754.558	17.03
754.869	16.03
755.181	16.45
755.492	15.52
755.803	16.93
756.114	17.49
756.425	19.81
756.736	15.43
757.047	15.12
757.358	15.51
757.669	17.89
757.98	15
758.291	16.2
758.601	18.06
758.912	16.16
759.223	17.78
759.533	16.9
759.844	18.55
760.154	17.08
760.464	16.82
760.775	17.75
761.085	17.72
761.395	16.4
761.705	16.77
762.016	16.4
762.326	16.83
762.636	19.06
762.945	17.63
763.255	16.8
763.565	15.94
763.875	16.49
764.185	18.54
764.494	17.93
764.804	16
765.113	18
765.423	16.84
765.732	16.2
766.042	17.15
766.351	17.57
766.66	18.2
766.97	17.95
767.279	17.88
767.588	16.43
767.897	16.27
768.206	18.11
768.515	17.81
768.824	17.33
769.133	17.58
769.441	17.21
769.75	19.22
770.059	19.39
770.367	17.46
770.676	18.41
770.984	15.07
771.293	20.09
771.601	17.21
771.91	17.71
772.218	18.02
772.526	18.26
772.834	18.77
773.142	20.12
773.45	19.93
773.758	15.88
774.066	19.57
774.374	15.2
774.682	18.1
774.99	18.59
775.298	17.82
775.605	19.29
775.913	19.29
776.22	15.82
776.528	17.95
776.835	17.79
777.143	19.7
777.45	17.71
777.757	16.19
778.065	19.35
778.372	17.52
778.679	19.39
778.986	18.38
779.293	17.91
779.6	17.77
779.907	20.08
780.214	20.68
780.52	19.03
780.827	21.36
781.134	20.5
781.44	19.85
781.747	17.45
782.053	18.36
782.36	17.04
782.666	17.65
782.973	21.68
783.279	17.93
783.585	19.84
783.891	18.45
784.197	18.51
784.503	19.81
784.809	19.35
785.115	19.58
785.421	20.03
785.727	20.97
786.033	18.21
786.339	19.34
786.644	24.11
786.95	18.06
787.255	19.23
787.561	20.43
787.866	19.69
788.172	20.99
788.477	21.04
788.782	17.15
789.088	18.78
789.393	19.51
789.698	24.2
790.003	22.52
790.308	13.91
790.613	21.44
790.918	19.51
791.223	18.6
791.527	17.01
791.832	18.84
792.137	18.23
792.441	20.56
792.746	22.05
793.05	19.63
793.355	22.99
793.659	21.65
793.963	20.31
794.268	18.23
794.572	19.74
794.876	17.06
795.18	20.26
795.484	20.32
795.788	24.14
796.092	19.79
796.396	21.56
796.7	22.6
797.004	16.95
797.307	13.83
797.611	17.52
797.915	18.28
798.218	22.53
798.522	23.22
798.825	19.93
799.128	21.57
799.432	21.23
799.735	23.94
800.038	21.89
800.341	19.84
800.644	23.45
800.947	22.32
801.25	18.68
801.553	24.08
801.856	27.84
802.159	20.35
802.462	18.95
802.764	24.13
803.067	21.56
803.37	23.01
803.672	18.4
803.975	22.4
804.277	25.33
804.579	22.36
804.882	22.59
805.184	29.39
805.486	16.89
805.788	24.73
806.09	23.5
806.392	19.9
806.694	21.04
806.996	21.88
807.298	22.68
807.6	24.73
807.902	21.93
808.203	19.19
808.505	25.79
808.807	25.69
809.108	26.6
809.409	19.72
809.711	28.96
810.012	27.61
810.313	24.72
810.615	19.65
810.916	23.98
811.217	19.94
811.518	19.37
811.819	23.64
812.12	24.33
812.421	25.21
812.722	20.32
813.023	23.2
813.323	19.12
813.624	29.97
813.925	27.6
814.225	21.56
814.526	24.15
814.826	24.55
815.126	21.8
815.427	22.73
815.727	21.85
816.027	19.67
816.327	23.27
816.627	20.45
816.927	23.12
817.227	22.81
817.527	24.88
817.827	21.61
818.127	17.57
818.427	22.52
818.727	26.23
819.026	25.28
819.326	25.41
819.625	24.64
819.925	24.63
820.224	24.05
820.524	23.9
820.823	22.8
821.122	16.64
821.421	23.21
821.72	23.21
822.019	22.34
822.318	21.99
822.617	23.46
822.916	24.16
823.215	23.29
823.514	20.65
823.813	27
824.111	26.48
824.41	22.14
824.709	23.08
825.007	23.24
825.306	21.86
825.604	21.93
825.902	23.06
826.201	22.37
826.499	23.42
826.797	21.87
827.095	22.85
827.393	23.75
827.691	22.12
827.989	21.07
828.287	22.77
828.585	22.13
828.882	22.5
829.18	22.95
829.478	21.01
829.775	20.42
830.073	23.11
830.37	21.66
830.668	21.96
830.965	24.15
831.263	22.32
831.56	23.54
831.857	24.43
832.154	26.26
832.451	24.04
832.748	26.12
833.045	27.51
833.342	23.19
833.639	26.55
833.936	28.17
834.232	24.24
834.529	27.13
834.826	25.03
835.122	23.51
835.419	26.3
835.715	23.18
836.012	29.64
836.308	27.77
836.604	27.62
836.901	22.44
837.197	25.86
837.493	25.91
837.789	23.36
838.085	23.96
838.381	23.58
838.677	25.58
838.972	25.84
839.268	29.39
839.564	27.49
839.86	23.46
840.155	20.83
840.451	21.57
840.746	22.83
841.042	19.2
841.337	24.65
841.632	26.82
841.928	26
842.223	22.51
842.518	35.35
842.813	23.66
843.108	31.81
843.403	22.06
843.698	29.46
843.993	23.51
844.287	30.41
844.582	16.96
844.877	24.87
845.171	26.73
845.466	22.58
845.761	13.82
846.055	26.24
846.349	19.12
846.644	26.75
846.938	33.83
847.232	23.29
847.526	28.46
847.82	39.93
848.114	26.21
848.408	26.84
848.702	37.65
848.996	32.27
849.29	35.89
849.584	25.54
849.877	38.96
850.171	31.47
850.465	18.87
850.758	38.52
851.052	24.18
851.345	29.33
851.638	14.59
851.932	36.23
852.225	31.06
852.518	30.55
852.811	47.73
853.104	28.32
853.397	35.51
853.69	42.59
853.983	33.77
854.276	18.97
854.569	36.22
854.861	1.26
855.154	21.34
855.447	28.51
855.739	4.91
856.032	24.28
856.324	26.98
856.616	34.71
856.909	32.1
857.201	26.27
857.493	51.54
857.785	30.29
858.077	40.68
858.369	39.35
858.661	27.37
858.953	35.5
859.245	43.76
859.537	0.23
859.829	23.58
860.12	36.15
860.412	37.66
860.703	7.04
860.995	12.17
861.286	21.46
861.578	19.49
861.869	66.09
862.16	36.7
862.452	-3.48
862.743	34.97
863.034	48
863.325	34.06
863.616	8.84
863.907	34.34
864.198	32.17
864.488	22.28
864.779	14.92
865.07	18.4
865.36	36.76
865.651	54.04
865.941	29.94
866.232	19.15
866.522	41.1
866.813	37.23
867.103	53.29
867.393	19.98
867.683	46.31
867.973	28.83
868.263	28.67
868.553	21.78
868.843	26.92
869.133	29.12
869.423	26.67
869.713	27.93
870.002	20.45
870.292	21.53
870.582	26.33
870.871	33.05
871.161	24.98
871.45	15.24
871.739	29.34
872.029	22.65
872.318	31.04
872.607	45.76
872.896	53.46
873.185	27.6
873.474	44.62
873.763	48.21
874.052	16.08
874.341	28.35
874.63	27.38
874.918	42.39
875.207	51.06
875.496	50.59
875.784	36.95
876.073	8.56
876.361	28.57
876.649	37.07
876.938	50.95
877.226	22.87
877.514	35.6
877.802	10.19
878.09	29.42
878.378	37.41
878.666	15.59
878.954	28.21
879.242	78.27
879.53	32.04
879.817	24.25
880.105	-0.14
880.392	8.8
880.68	15.66
880.967	51.18
881.255	48.64
881.542	14.81
881.83	34.99
882.117	25.19
882.404	44.32
882.691	1.56
882.978	26.9
883.265	25.71
883.552	42.5
883.839	26.03
884.126	44.05
884.413	33.97
884.699	43.98
884.986	33.28
885.273	32.52
885.559	32.52
885.846	32.52
