Data from 0090_crown_Reflection__3__165.txt Node

Date: Fri Sep 22 22:13:21 CDT 2023
User: ToomeyLab
Spectrometer: FLMS14357
Trigger mode: 0
Integration Time (sec): 1.000000E-2
Scans to average: 100
Electric dark correction enabled: true
Nonlinearity correction enabled: false
Boxcar width: 0
XAxis mode: Wavelengths
Number of Pixels in Spectrum: 2048
>>>>>Begin Spectral Data<<<<<
189.047	-574.46
189.435	-574.46
189.823	-574.46
190.211	54.85
190.599	9.14
190.987	158.12
191.375	4.7
191.763	28.14
192.151	592.37
192.538	42.24
192.926	125.33
193.314	-2.76
193.702	84.76
194.089	1.32
194.477	92.44
194.864	-3.6
195.252	-12122.5
195.639	-659.43
196.027	131.15
196.414	517.32
196.801	9.44
197.189	92.5
197.576	301.9
197.963	88.73
198.351	-16.18
198.738	30.47
199.125	1.15
199.512	11.28
199.899	38.31
200.286	39.85
200.673	19.9
201.06	9.53
201.447	27.69
201.833	-0.39
202.22	23.95
202.607	39.19
202.994	21.26
203.38	42.33
203.767	29.02
204.154	30.04
204.54	25.81
204.927	46.62
205.313	19.69
205.699	55.86
206.086	21.2
206.472	42.05
206.858	30.07
207.245	26.72
207.631	29.16
208.017	29.12
208.403	20.86
208.789	7.22
209.175	47.15
209.561	44.98
209.947	42.76
210.333	36.21
210.719	9.91
211.105	9.64
211.491	-16.19
211.876	36.21
212.262	10.92
212.648	35.9
213.034	37.85
213.419	7.18
213.805	32.26
214.19	23.91
214.576	29.31
214.961	9
215.346	-22.77
215.732	32.72
216.117	11.4
216.502	26.6
216.888	22.39
217.273	10.09
217.658	-7.67
218.043	19.32
218.428	13.65
218.813	-36.2
219.198	24.31
219.583	-5.88
219.968	-31.83
220.353	20.15
220.738	4.87
221.122	19.36
221.507	17.81
221.892	4.35
222.276	1.69
222.661	-32.15
223.046	20.87
223.43	26.78
223.815	11.51
224.199	1.63
224.583	10.19
224.968	6.31
225.352	1.75
225.736	8.14
226.121	12.38
226.505	2.64
226.889	1.64
227.273	7.67
227.657	2.89
228.041	5.01
228.425	9.4
228.809	1.2
229.193	4.74
229.577	6.9
229.961	3.46
230.344	3.78
230.728	3
231.112	4
231.495	3.81
231.879	3.92
232.263	3.06
232.646	4.35
233.03	4.16
233.413	3.03
233.797	3.25
234.18	2.53
234.563	5.53
234.946	5.29
235.33	0.16
235.713	3.07
236.096	1.15
236.479	2.96
236.862	4.27
237.245	2.9
237.628	4.79
238.011	3.76
238.394	2.82
238.777	5.72
239.16	3.25
239.543	5.84
239.925	5.83
240.308	3.19
240.691	4.65
241.073	4.6
241.456	2.82
241.838	2.84
242.221	3.11
242.603	3.08
242.986	3.4
243.368	2.89
243.75	3.5
244.133	3.56
244.515	3.08
244.897	2.76
245.279	3.05
245.661	3.06
246.043	3.6
246.425	2.69
246.807	3.31
247.189	1.96
247.571	3.98
247.953	3.48
248.335	3.08
248.717	3.05
249.098	2.99
249.48	2.83
249.862	2.84
250.243	3.12
250.625	3.2
251.006	2.59
251.388	3.21
251.769	3.63
252.151	3.13
252.532	3.14
252.913	3.73
253.295	3.43
253.676	2.91
254.057	3.3
254.438	3.35
254.819	2.21
255.2	3.78
255.581	2.64
255.962	3.25
256.343	2.73
256.724	2.71
257.105	3.79
257.486	2.63
257.867	2.49
258.247	3.45
258.628	3.3
259.009	2.64
259.389	3.06
259.77	3.59
260.15	4
260.531	2.55
260.911	2.59
261.292	2.99
261.672	2.59
262.052	2.63
262.432	2.72
262.813	2.87
263.193	2.36
263.573	3.45
263.953	2.37
264.333	3.05
264.713	2.69
265.093	3.03
265.473	2.89
265.853	2.07
266.233	2.91
266.612	2.85
266.992	2.92
267.372	3.29
267.752	2.91
268.131	2.87
268.511	2.67
268.89	3.14
269.27	2.72
269.649	2.62
270.029	2.57
270.408	2.98
270.787	3.21
271.167	2.58
271.546	2.33
271.925	2.85
272.304	2.09
272.683	2.43
273.062	3.17
273.441	2.33
273.82	3.07
274.199	2.73
274.578	2.75
274.957	2.65
275.336	2.62
275.715	2.72
276.093	2.15
276.472	2.76
276.851	2.67
277.229	2.02
277.608	3.14
277.986	2.46
278.365	2.36
278.743	2.58
279.122	2.78
279.5	2.94
279.878	2.06
280.257	3.38
280.635	2.57
281.013	2.59
281.391	2.15
281.769	2.57
282.147	3.19
282.525	2.72
282.903	3.03
283.281	2.48
283.659	2.79
284.037	2.35
284.415	2.4
284.792	2.69
285.17	2.55
285.548	2.93
285.925	2.44
286.303	2.48
286.68	1.72
287.058	2.42
287.435	2.49
287.813	2.35
288.19	2.43
288.567	2.42
288.945	2.15
289.322	2.54
289.699	2.39
290.076	2.49
290.453	2.26
290.83	2.27
291.207	2.22
291.584	2.01
291.961	2.18
292.338	2.71
292.715	3
293.092	2.31
293.469	2.41
293.845	2.36
294.222	2.75
294.599	2.63
294.975	2.92
295.352	2.73
295.728	2.44
296.105	2.38
296.481	2.55
296.858	2.3
297.234	2.67
297.61	2.4
297.986	2.42
298.363	2.11
298.739	2.38
299.115	2.43
299.491	2.23
299.867	2.38
300.243	2.51
300.619	2.22
300.995	2.31
301.371	2.72
301.746	2.86
302.122	2.1
302.498	1.9
302.874	2.17
303.249	2.21
303.625	2.51
304	2.72
304.376	2.72
304.751	2.72
305.127	2.26
305.502	2.35
305.878	2.3
306.253	2.33
306.628	2.25
307.003	2.3
307.378	2.14
307.754	2.35
308.129	2.35
308.504	2.35
308.879	2.56
309.254	1.93
309.629	2.29
310.003	2.91
310.378	2.78
310.753	2.08
311.128	2.23
311.502	2.29
311.877	2.23
312.252	1.97
312.626	1.79
313.001	2.4
313.375	2.69
313.75	2.54
314.124	2.78
314.498	1.79
314.873	2.22
315.247	2.64
315.621	2.43
315.995	1.96
316.369	2.88
316.743	2.31
317.117	3.03
317.491	2.73
317.865	1.89
318.239	2.3
318.613	2.43
318.987	2.11
319.361	2.08
319.734	1.86
320.108	2.97
320.482	2.09
320.855	2.14
321.229	2.75
321.602	2.36
321.976	1.87
322.349	1.73
322.723	2.59
323.096	2.33
323.469	2.48
323.843	2.56
324.216	2.08
324.589	2.3
324.962	1.97
325.335	1.99
325.708	2.06
326.081	2.06
326.454	2.08
326.827	2.39
327.2	1.88
327.573	2.69
327.945	2.44
328.318	2.41
328.691	2.32
329.063	1.89
329.436	2.34
329.809	2.54
330.181	2.23
330.553	2.25
330.926	2.25
331.298	2.26
331.671	1.95
332.043	1.75
332.415	1.84
332.787	2.37
333.159	2.21
333.532	2.1
333.904	1.95
334.276	2.06
334.648	1.48
335.02	2.39
335.391	1.89
335.763	2.5
336.135	2.26
336.507	2.06
336.879	1.72
337.25	2.33
337.622	2.61
337.993	2.14
338.365	2.72
338.736	2.39
339.108	2.33
339.479	2.07
339.851	1.81
340.222	2.05
340.593	1.64
340.964	1.67
341.336	1.92
341.707	1.73
342.078	2.03
342.449	2.53
342.82	2.23
343.191	2
343.562	2.34
343.933	2.16
344.303	2.15
344.674	2.69
345.045	2.59
345.416	2.86
345.786	1.95
346.157	2.26
346.527	2.23
346.898	2.27
347.268	2.09
347.639	1.99
348.009	2.14
348.38	2.35
348.75	2.48
349.12	2.04
349.49	2.38
349.861	1.78
350.231	2.69
350.601	2.24
350.971	2.2
351.341	1.97
351.711	1.85
352.081	2.16
352.45	2.26
352.82	2.04
353.19	2.28
353.56	2.04
353.929	1.87
354.299	2.23
354.669	2.35
355.038	2.23
355.408	2.33
355.777	2.41
356.147	1.97
356.516	2.68
356.885	2.05
357.254	2.44
357.624	1.84
357.993	2.25
358.362	2.15
358.731	1.85
359.1	1.99
359.469	2.63
359.838	1.85
360.207	2.09
360.576	2.31
360.945	2.16
361.314	2.08
361.682	2.36
362.051	2.13
362.42	2.16
362.788	1.86
363.157	2.42
363.525	2.04
363.894	2.11
364.262	1.96
364.631	2.12
364.999	2.09
365.367	2.2
365.735	2.13
366.104	2.15
366.472	2.53
366.84	2.19
367.208	2.61
367.576	2.39
367.944	2.36
368.312	2.52
368.68	2.37
369.048	2.52
369.416	2.22
369.783	2.1
370.151	2
370.519	2.33
370.886	2.17
371.254	2.35
371.621	2.01
371.989	2.28
372.356	2.32
372.724	2.57
373.091	2.36
373.458	2.4
373.826	2.16
374.193	2.44
374.56	2.22
374.927	2.13
375.294	2.21
375.661	1.88
376.028	2.26
376.395	2.28
376.762	2.46
377.129	2.52
377.496	2.6
377.863	2.48
378.229	2.38
378.596	2.47
378.963	2.89
379.329	2.42
379.696	2.39
380.062	2.1
380.429	2.49
380.795	2.36
381.161	2.06
381.528	2.33
381.894	2.01
382.26	2.22
382.626	2.43
382.993	2.4
383.359	2.24
383.725	2.13
384.091	2.27
384.457	2.1
384.823	2.23
385.188	2.4
385.554	2.13
385.92	2.75
386.286	2.3
386.651	2.01
387.017	2.43
387.383	2.1
387.748	2.36
388.114	2.12
388.479	2.13
388.845	2.13
389.21	2.12
389.575	2.44
389.94	2.04
390.306	2.38
390.671	2.61
391.036	2.01
391.401	2.3
391.766	2.08
392.131	2.24
392.496	2.41
392.861	2.34
393.226	2.44
393.591	2.35
393.956	2.24
394.32	2.21
394.685	2.18
395.05	2.7
395.414	2.52
395.779	2.42
396.143	2.48
396.508	2.29
396.872	2.28
397.236	2.28
397.601	2.09
397.965	2.61
398.329	2.2
398.694	2.25
399.058	2.28
399.422	2.31
399.786	2.42
400.15	2.52
400.514	2.51
400.878	2.48
401.242	2.39
401.605	2.44
401.969	2.3
402.333	2.51
402.697	2.23
403.06	2.47
403.424	2.27
403.787	2.42
404.151	2.57
404.514	2.6
404.878	2.6
405.241	2.68
405.604	2.47
405.968	2.48
406.331	2.28
406.694	2.53
407.057	2.3
407.42	2.6
407.783	2.32
408.146	2.47
408.509	2.31
408.872	2.36
409.235	2.48
409.598	2.31
409.961	2.53
410.323	2.38
410.686	2.53
411.049	2.47
411.411	2.51
411.774	2.19
412.136	2.24
412.499	2.33
412.861	2.46
413.223	2.49
413.586	2.43
413.948	2.4
414.31	2.24
414.672	2.41
415.035	2.4
415.397	2.5
415.759	2.81
416.121	2.33
416.483	2.32
416.845	2.48
417.206	2.13
417.568	2.26
417.93	2.49
418.292	2.43
418.653	2.24
419.015	2.37
419.377	2.25
419.738	2.46
420.1	2.31
420.461	2.39
420.822	2.43
421.184	2.35
421.545	2.29
421.906	2.37
422.267	2.25
422.629	2.37
422.99	2.35
423.351	2.22
423.712	2.37
424.073	2.34
424.434	2.4
424.795	2.27
425.155	2.41
425.516	2.39
425.877	2.35
426.238	2.23
426.598	2.24
426.959	2.24
427.32	2.33
427.68	2.31
428.041	2.29
428.401	2.4
428.761	2.43
429.122	2.46
429.482	2.4
429.842	2.45
430.202	2.45
430.563	2.51
430.923	2.25
431.283	2.47
431.643	2.53
432.003	2.6
432.363	2.72
432.722	2.57
433.082	2.7
433.442	2.6
433.802	2.49
434.161	2.39
434.521	2.47
434.881	2.46
435.24	2.37
435.6	2.35
435.959	2.44
436.319	2.46
436.678	2.55
437.037	2.59
437.396	2.47
437.756	2.52
438.115	2.56
438.474	2.3
438.833	2.5
439.192	2.47
439.551	2.39
439.91	2.48
440.269	2.55
440.628	2.34
440.987	2.5
441.345	2.4
441.704	2.5
442.063	2.34
442.421	2.47
442.78	2.4
443.138	2.47
443.497	2.39
443.855	2.4
444.214	2.34
444.572	2.53
444.93	2.49
445.288	2.59
445.647	2.53
446.005	2.43
446.363	2.32
446.721	2.47
447.079	2.38
447.437	2.45
447.795	2.46
448.153	2.33
448.51	2.43
448.868	2.26
449.226	2.43
449.584	2.4
449.941	2.3
450.299	2.49
450.656	2.51
451.014	2.49
451.371	2.44
451.729	2.52
452.086	2.52
452.443	2.58
452.801	2.58
453.158	2.48
453.515	2.63
453.872	2.51
454.229	2.55
454.586	2.55
454.943	2.42
455.3	2.55
455.657	2.54
456.014	2.53
456.371	2.65
456.727	2.77
457.084	2.48
457.441	2.54
457.797	2.49
458.154	2.51
458.51	2.44
458.867	2.63
459.223	2.56
459.58	2.57
459.936	2.6
460.292	2.62
460.648	2.57
461.005	2.53
461.361	2.52
461.717	2.41
462.073	2.49
462.429	2.34
462.785	2.42
463.141	2.5
463.496	2.51
463.852	2.49
464.208	2.4
464.564	2.61
464.919	2.54
465.275	2.78
465.631	2.64
465.986	2.54
466.342	2.63
466.697	2.56
467.052	2.47
467.408	2.64
467.763	2.61
468.118	2.74
468.473	2.65
468.829	2.46
469.184	2.63
469.539	2.61
469.894	2.62
470.249	2.55
470.603	2.39
470.958	2.64
471.313	2.71
471.668	2.65
472.023	2.69
472.377	2.55
472.732	2.45
473.086	2.78
473.441	2.38
473.795	2.86
474.15	2.53
474.504	2.39
474.859	2.74
475.213	2.43
475.567	2.39
475.921	2.69
476.275	2.68
476.63	2.64
476.984	2.35
477.338	2.84
477.692	2.62
478.045	2.67
478.399	2.63
478.753	2.56
479.107	2.62
479.461	2.51
479.814	2.73
480.168	2.58
480.521	2.6
480.875	2.65
481.228	2.59
481.582	2.48
481.935	2.56
482.289	2.56
482.642	2.57
482.995	2.62
483.348	2.57
483.701	2.53
484.055	2.52
484.408	2.51
484.761	2.59
485.114	2.37
485.466	2.41
485.819	2.36
486.172	2.29
486.525	2.32
486.878	2.36
487.23	2.38
487.583	2.46
487.936	2.47
488.288	2.55
488.641	2.48
488.993	2.45
489.345	2.41
489.698	2.43
490.05	2.45
490.402	2.4
490.754	2.38
491.107	2.43
491.459	2.53
491.811	2.45
492.163	2.48
492.515	2.49
492.866	2.53
493.218	2.51
493.57	2.5
493.922	2.32
494.274	2.43
494.625	2.42
494.977	2.51
495.328	2.56
495.68	2.58
496.031	2.57
496.383	2.69
496.734	2.62
497.086	2.63
497.437	2.67
497.788	2.58
498.139	2.74
498.49	2.69
498.842	2.46
499.193	2.48
499.544	2.64
499.894	2.52
500.245	2.61
500.596	2.56
500.947	2.68
501.298	2.65
501.648	2.62
501.999	2.62
502.35	2.64
502.7	2.62
503.051	2.6
503.401	2.7
503.752	2.71
504.102	2.61
504.452	2.61
504.803	2.59
505.153	2.67
505.503	2.69
505.853	2.74
506.203	2.55
506.553	2.73
506.903	2.73
507.253	2.66
507.603	2.69
507.953	2.72
508.303	2.66
508.652	2.66
509.002	2.72
509.352	2.58
509.701	2.74
510.051	2.7
510.4	2.6
510.75	2.56
511.099	2.47
511.449	2.61
511.798	2.75
512.147	2.63
512.496	2.58
512.846	2.59
513.195	2.68
513.544	2.68
513.893	2.75
514.242	2.58
514.591	2.62
514.939	2.72
515.288	2.49
515.637	2.71
515.986	2.68
516.334	2.62
516.683	2.68
517.032	2.78
517.38	2.77
517.729	2.71
518.077	2.73
518.426	2.7
518.774	2.61
519.122	2.65
519.47	2.67
519.819	2.69
520.167	2.69
520.515	2.55
520.863	2.49
521.211	2.52
521.559	2.6
521.907	2.63
522.255	2.59
522.602	2.68
522.95	2.64
523.298	2.7
523.645	2.65
523.993	2.73
524.341	2.62
524.688	2.62
525.036	2.7
525.383	2.67
525.73	2.7
526.078	2.66
526.425	2.61
526.772	2.71
527.119	2.62
527.466	2.62
527.814	2.61
528.161	2.54
528.508	2.59
528.854	2.68
529.201	2.65
529.548	2.62
529.895	2.61
530.242	2.56
530.588	2.47
530.935	2.38
531.282	2.41
531.628	2.51
531.975	2.5
532.321	2.54
532.667	2.54
533.014	2.55
533.36	2.66
533.706	2.61
534.052	2.69
534.399	2.67
534.745	2.6
535.091	2.55
535.437	2.52
535.783	2.46
536.129	2.57
536.474	2.56
536.82	2.58
537.166	2.71
537.512	2.65
537.857	2.71
538.203	2.78
538.549	2.63
538.894	2.52
539.239	2.6
539.585	2.63
539.93	2.75
540.276	2.62
540.621	2.64
540.966	2.64
541.311	2.79
541.656	2.64
542.001	2.78
542.346	2.73
542.691	2.72
543.036	2.71
543.381	2.56
543.726	2.55
544.071	2.52
544.415	2.53
544.76	2.54
545.105	2.57
545.449	2.6
545.794	2.58
546.138	2.69
546.483	2.62
546.827	2.64
547.171	2.68
547.516	2.68
547.86	2.71
548.204	2.74
548.548	2.74
548.892	2.8
549.236	2.61
549.58	2.61
549.924	2.69
550.268	2.8
550.612	2.75
550.956	2.68
551.3	2.9
551.643	2.87
551.987	2.82
552.33	2.89
552.674	2.77
553.017	2.65
553.361	2.64
553.704	2.87
554.048	2.79
554.391	2.75
554.734	2.89
555.077	2.73
555.42	2.87
555.764	2.72
556.107	2.84
556.45	2.68
556.793	2.81
557.135	2.77
557.478	2.6
557.821	2.83
558.164	2.86
558.507	2.93
558.849	2.84
559.192	2.82
559.534	2.96
559.877	2.75
560.219	2.89
560.562	2.83
560.904	2.91
561.246	2.88
561.589	2.92
561.931	2.82
562.273	2.74
562.615	2.79
562.957	2.75
563.299	2.86
563.641	2.82
563.983	2.73
564.325	2.95
564.667	2.86
565.008	2.82
565.35	2.85
565.692	2.88
566.033	2.95
566.375	2.86
566.716	3.06
567.058	2.66
567.399	2.92
567.741	2.81
568.082	2.8
568.423	2.74
568.764	2.95
569.105	2.75
569.447	2.94
569.788	2.71
570.129	2.87
570.47	2.84
570.811	2.9
571.151	2.98
571.492	2.76
571.833	2.78
572.174	2.78
572.514	2.67
572.855	2.89
573.195	2.81
573.536	2.9
573.876	2.72
574.217	2.77
574.557	2.78
574.898	2.82
575.238	2.94
575.578	2.93
575.918	2.87
576.258	2.69
576.598	2.84
576.938	2.87
577.278	2.9
577.618	2.73
577.958	2.8
578.298	2.98
578.638	2.72
578.977	2.89
579.317	2.9
579.657	2.97
579.996	2.68
580.336	2.94
580.675	2.96
581.014	2.73
581.354	2.78
581.693	2.85
582.032	2.88
582.372	2.87
582.711	2.9
583.05	2.79
583.389	2.95
583.728	2.82
584.067	3.04
584.406	2.84
584.745	2.68
585.083	2.92
585.422	2.98
585.761	2.76
586.1	2.8
586.438	2.85
586.777	3.22
587.115	2.96
587.454	2.78
587.792	2.9
588.13	2.68
588.469	2.86
588.807	3.14
589.145	3.18
589.483	2.98
589.821	2.75
590.159	2.84
590.497	3.08
590.835	3.13
591.173	2.84
591.511	2.88
591.849	3
592.187	2.9
592.524	2.93
592.862	2.84
593.2	2.78
593.537	2.71
593.875	2.81
594.212	2.9
594.55	3.12
594.887	2.74
595.224	2.92
595.561	3.11
595.899	3.18
596.236	3.09
596.573	2.96
596.91	3.13
597.247	2.92
597.584	3.15
597.921	2.99
598.258	2.98
598.594	2.94
598.931	2.85
599.268	2.91
599.604	3.12
599.941	2.96
600.277	2.75
600.614	2.82
600.95	2.93
601.287	3.04
601.623	2.99
601.959	3.09
602.296	3.12
602.632	2.75
602.968	3.13
603.304	3.09
603.64	2.71
603.976	2.96
604.312	3.05
604.648	2.95
604.984	2.98
605.319	2.83
605.655	2.81
605.991	2.99
606.326	3
606.662	2.83
606.998	2.86
607.333	2.88
607.668	2.87
608.004	2.9
608.339	2.79
608.674	3.04
609.01	3.12
609.345	2.92
609.68	3.22
610.015	3.02
610.35	3.06
610.685	3.24
611.02	2.93
611.355	3.12
611.689	2.74
612.024	3.04
612.359	2.79
612.694	3
613.028	3.02
613.363	2.93
613.697	2.91
614.032	3.06
614.366	3.04
614.7	3.11
615.035	3.24
615.369	2.9
615.703	2.96
616.037	3.21
616.371	3.28
616.705	3.34
617.039	2.8
617.373	2.91
617.707	3.03
618.041	3.05
618.375	2.9
618.709	2.78
619.042	2.9
619.376	3.01
619.71	3.2
620.043	2.75
620.377	2.99
620.71	3.05
621.043	3.14
621.377	3.04
621.71	2.98
622.043	3.01
622.376	3.33
622.709	2.85
623.043	3.23
623.376	3.14
623.709	3.2
624.041	2.95
624.374	2.99
624.707	3.14
625.04	3.36
625.373	2.74
625.705	3.06
626.038	3.06
626.37	3.44
626.703	3.15
627.035	3.17
627.368	2.97
627.7	3.21
628.032	3.25
628.365	3.06
628.697	3.22
629.029	3.27
629.361	3.18
629.693	2.97
630.025	3.1
630.357	2.88
630.689	3.1
631.021	3.07
631.353	2.98
631.684	3.11
632.016	3.46
632.348	3.25
632.679	3.05
633.011	2.92
633.342	3.14
633.674	3.35
634.005	3.24
634.336	3.35
634.668	3.33
634.999	3.45
635.33	3.42
635.661	3.06
635.992	3.38
636.323	3.02
636.654	3.02
636.985	2.86
637.316	2.94
637.647	3.08
637.977	2.86
638.308	3.69
638.639	2.95
638.969	2.98
639.3	3.11
639.63	3.41
639.961	3.09
640.291	3.02
640.622	3.35
640.952	3.3
641.282	3.24
641.612	2.98
641.943	3.43
642.273	3.28
642.603	3.18
642.933	3.28
643.263	2.36
643.592	3.28
643.922	3.35
644.252	2.85
644.582	3.35
644.911	3.13
645.241	3.36
645.571	3.14
645.9	3.23
646.23	3.5
646.559	3.13
646.888	3.39
647.218	3.16
647.547	3.06
647.876	3.53
648.205	2.84
648.534	3.4
648.863	3.03
649.192	2.84
649.521	2.97
649.85	3.56
650.179	3.31
650.508	2.91
650.837	3.71
651.165	3.33
651.494	3.26
651.822	3.28
652.151	3.03
652.479	3.22
652.808	2.78
653.136	3.07
653.465	3
653.793	3.24
654.121	3.76
654.449	2.85
654.777	3.38
655.105	3.54
655.433	3.29
655.761	3.44
656.089	3.38
656.417	3.1
656.745	3.28
657.073	3.3
657.4	3.93
657.728	3.05
658.056	3.09
658.383	3.83
658.711	2.76
659.038	3.32
659.365	3.18
659.693	3.18
660.02	3.21
660.347	3.44
660.674	3.13
661.001	2.87
661.329	3.07
661.656	3.36
661.982	3.04
662.309	3.38
662.636	3.16
662.963	3.11
663.29	3.25
663.616	3.08
663.943	3.59
664.27	3.35
664.596	3.18
664.923	3.06
665.249	3.12
665.576	3.18
665.902	3.41
666.228	3.1
666.554	3.06
666.881	3.47
667.207	3.29
667.533	3.02
667.859	3.24
668.185	3.43
668.511	3.69
668.837	3.26
669.162	3.38
669.488	3.69
669.814	3.77
670.139	3.35
670.465	3.51
670.791	3.68
671.116	2.98
671.442	3.54
671.767	2.59
672.092	3.41
672.418	3.86
672.743	3.37
673.068	3.59
673.393	2.93
673.718	3.91
674.043	3.76
674.368	3.8
674.693	3.19
675.018	2.8
675.343	3.27
675.667	3.94
675.992	2.95
676.317	3.27
676.641	3.63
676.966	3.86
677.29	3.42
677.615	4.06
677.939	4
678.264	3.66
678.588	3.71
678.912	3.35
679.236	3.76
679.56	3.48
679.885	4.16
680.209	3.53
680.532	2.99
680.856	3.2
681.18	3.32
681.504	3.27
681.828	3.32
682.152	3.47
682.475	4.22
682.799	3.34
683.122	3.57
683.446	3.52
683.769	3.46
684.093	3.83
684.416	3.56
684.739	3.93
685.062	3.85
685.386	3.57
685.709	3.67
686.032	3.28
686.355	3.68
686.678	3.56
687.001	3.85
687.324	4.01
687.646	3.15
687.969	4.27
688.292	3.68
688.614	3.96
688.937	3.79
689.26	2.97
689.582	3.28
689.904	3.35
690.227	4.1
690.549	4.13
690.871	3.3
691.194	3.34
691.516	3.27
691.838	3.23
692.16	2.62
692.482	3.19
692.804	3.27
693.126	3.32
693.448	3.77
693.769	4.05
694.091	3.79
694.413	3.73
694.735	3.41
695.056	4.15
695.378	3.67
695.699	4.04
696.021	3.43
696.342	4.6
696.663	2.7
696.984	3.34
697.306	3.03
697.627	3.33
697.948	3.27
698.269	3.61
698.59	3.17
698.911	3.7
699.232	3.31
699.553	2.87
699.873	3.99
700.194	3.56
700.515	2.6
700.835	4.08
701.156	3.89
701.477	3.6
701.797	3.36
702.117	3.6
702.438	3.66
702.758	2.91
703.078	3.45
703.398	3.95
703.719	3.88
704.039	4.51
704.359	2.76
704.679	2.21
704.999	3.9
705.319	3.94
705.638	3.07
705.958	4.95
706.278	4.63
706.597	4.14
706.917	4.51
707.237	2.74
707.556	3.38
707.876	3.48
708.195	4.24
708.514	3.44
708.834	2.95
709.153	3.89
709.472	3.12
709.791	3.22
710.11	4.58
710.429	4.55
710.748	3.25
711.067	3.23
711.386	3.99
711.705	3.95
712.023	4.08
712.342	4.34
712.661	3.71
712.979	4.34
713.298	4.72
713.616	3.61
713.935	5.03
714.253	3.81
714.572	4.69
714.89	4.16
715.208	4.43
715.526	3.04
715.844	4.57
716.162	3.88
716.48	4.63
716.798	3.03
717.116	4.88
717.434	4.81
717.752	4.52
718.069	3.83
718.387	3.82
718.705	3.31
719.022	4.38
719.34	3.88
719.657	3.24
719.975	5.11
720.292	4.32
720.609	4.2
720.927	5.02
721.244	4.72
721.561	5.16
721.878	4.5
722.195	4.63
722.512	4.42
722.829	4.91
723.146	4.64
723.463	3.87
723.779	3.54
724.096	3.32
724.413	4.91
724.729	4.96
725.046	5.08
725.362	4.61
725.679	3.6
725.995	5.43
726.311	4.08
726.628	3.71
726.944	2.61
727.26	3.34
727.576	3.61
727.892	3.16
728.208	4.54
728.524	4.71
728.84	3.71
729.156	3.57
729.472	5.37
729.787	5.16
730.103	3.44
730.419	3.91
730.734	4.18
731.05	3.28
731.365	3.57
731.681	4.21
731.996	4.73
732.311	4.97
732.626	3.51
732.942	5.32
733.257	3.93
733.572	3.62
733.887	4.09
734.202	3.32
734.517	4.14
734.832	3.99
735.146	5.44
735.461	5.15
735.776	3.48
736.091	3.24
736.405	3.78
736.72	4
737.034	3.7
737.349	4.6
737.663	3.02
737.977	4.22
738.292	4.18
738.606	4.71
738.92	4.04
739.234	3.89
739.548	5.27
739.862	2.44
740.176	5.47
740.49	4.59
740.804	5.9
741.117	5.24
741.431	3.52
741.745	4.37
742.058	4.68
742.372	2.72
742.685	5.27
742.999	3.97
743.312	6.31
743.626	2.47
743.939	4.45
744.252	4.05
744.565	2.24
744.878	4.41
745.191	4.38
745.505	3.05
745.817	4.7
746.13	6.66
746.443	7.98
746.756	5.57
747.069	6.19
747.381	1.03
747.694	4.18
748.007	4.63
748.319	4.91
748.632	3.78
748.944	4.83
749.256	5.49
749.569	4.92
749.881	4.99
750.193	5.51
750.505	6.79
750.817	5.25
751.129	3.84
751.441	5.72
751.753	5.63
752.065	6.55
752.377	5.42
752.689	4.62
753	4.63
753.312	5.79
753.624	4.17
753.935	6.1
754.247	4.62
754.558	6.12
754.869	3.9
755.181	4.37
755.492	4.81
755.803	5.84
756.114	5.71
756.425	6.69
756.736	6.42
757.047	4.14
757.358	4.67
757.669	3.77
757.98	4.01
758.291	5.12
758.601	5.86
758.912	4.04
759.223	7.64
759.533	5.42
759.844	5.16
760.154	6.78
760.464	4.97
760.775	5.73
761.085	5.96
761.395	5.97
761.705	4.32
762.016	4.03
762.326	3.76
762.636	6.05
762.945	3.5
763.255	5.3
763.565	5.19
763.875	4.84
764.185	5.17
764.494	7.03
764.804	6.33
765.113	4.4
765.423	4.72
765.732	4.02
766.042	4.57
766.351	5.49
766.66	5.55
766.97	4.66
767.279	4.42
767.588	3.55
767.897	3.84
768.206	5.63
768.515	4.73
768.824	5.11
769.133	5.59
769.441	4.75
769.75	6.7
770.059	7.28
770.367	3.35
770.676	7.19
770.984	3.01
771.293	6.76
771.601	5.81
771.91	6.12
772.218	4.55
772.526	7.52
772.834	6.52
773.142	5.22
773.45	5.69
773.758	5.33
774.066	6.08
774.374	3.31
774.682	3.89
774.99	6.31
775.298	3.53
775.605	6.06
775.913	8.16
776.22	2.8
776.528	4.64
776.835	4.66
777.143	4.99
777.45	7.18
777.757	6.37
778.065	6.47
778.372	2.78
778.679	8.46
778.986	4
779.293	3.42
779.6	6.13
779.907	10.63
780.214	8.47
780.52	3.67
780.827	7.54
781.134	7.78
781.44	10.67
781.747	7.34
782.053	7.34
782.36	6.39
782.666	5.61
782.973	6.56
783.279	4.83
783.585	5.45
783.891	5.18
784.197	6.2
784.503	5.92
784.809	4.44
785.115	6.26
785.421	9.54
785.727	5.87
786.033	4.92
786.339	6.95
786.644	8.76
786.95	6.28
787.255	5.83
787.561	6.74
787.866	7.79
788.172	9.82
788.477	5.83
788.782	7.36
789.088	10.14
789.393	3.96
789.698	7.23
790.003	7.74
790.308	3.03
790.613	5.6
790.918	4.36
791.223	5.37
791.527	3.6
791.832	8.97
792.137	4.9
792.441	8.81
792.746	5.08
793.05	4.79
793.355	9.29
793.659	8.78
793.963	6.11
794.268	5.76
794.572	7.51
794.876	5.01
795.18	4.24
795.484	5.07
795.788	8.47
796.092	6.47
796.396	5.61
796.7	6.33
797.004	7.03
797.307	-0.29
797.611	2.05
797.915	4.92
798.218	8.7
798.522	4.95
798.825	4.63
799.128	8.34
799.432	6.65
799.735	6.59
800.038	8.97
800.341	3.21
800.644	3.42
800.947	6.34
801.25	8.76
801.553	8.86
801.856	9.49
802.159	4.56
802.462	3.7
802.764	3.22
803.067	2.36
803.37	8.2
803.672	9.96
803.975	2.79
804.277	12.56
804.579	9.13
804.882	8.62
805.184	12.13
805.486	4.87
805.788	4.93
806.09	8.57
806.392	4.76
806.694	9.14
806.996	5.06
807.298	9.73
807.6	12.58
807.902	7.67
808.203	5.59
808.505	11.13
808.807	7.54
809.108	10.76
809.409	7.44
809.711	7.48
810.012	9.98
810.313	6.32
810.615	8.78
810.916	3.77
811.217	13.1
811.518	8.12
811.819	8.08
812.12	6.95
812.421	8.48
812.722	4.83
813.023	4.79
813.323	1.67
813.624	11.5
813.925	15.19
814.225	13.24
814.526	12.24
814.826	12.76
815.126	2.8
815.427	9.89
815.727	9.42
816.027	6.18
816.327	9.05
816.627	9.4
816.927	12.93
817.227	9.9
817.527	5.96
817.827	3.71
818.127	3.57
818.427	9.48
818.727	6.95
819.026	11.37
819.326	10.03
819.625	6.58
819.925	7.54
820.224	7.8
820.524	8.91
820.823	2.43
821.122	6.57
821.421	14.37
821.72	13.97
822.019	9.49
822.318	8.7
822.617	6.44
822.916	9.6
823.215	9.98
823.514	4.26
823.813	8.92
824.111	9.54
824.41	8.59
824.709	6.37
825.007	7.12
825.306	7.03
825.604	5.54
825.902	6.87
826.201	6.5
826.499	6.13
826.797	5.97
827.095	7.32
827.393	7.22
827.691	5.84
827.989	4.59
828.287	8.25
828.585	6.21
828.882	6.58
829.18	5.27
829.478	6.06
829.775	7.93
830.073	6.58
830.37	6.63
830.668	5.69
830.965	7.82
831.263	3.42
831.56	6.16
831.857	6.7
832.154	8.7
832.451	7.49
832.748	9.87
833.045	8.29
833.342	6.43
833.639	11.44
833.936	12.01
834.232	7.79
834.529	11.2
834.826	9.43
835.122	11.44
835.419	3.19
835.715	12.34
836.012	8.86
836.308	12.32
836.604	10.27
836.901	3.86
837.197	9.51
837.493	11.53
837.789	6.66
838.085	5.81
838.381	5.51
838.677	6.55
838.972	9.78
839.268	14.48
839.564	8.2
839.86	8.29
840.155	7.22
840.451	12.77
840.746	10.96
841.042	6.53
841.337	14.25
841.632	13.86
841.928	12.61
842.223	6.03
842.518	5.99
842.813	14.39
843.108	13.89
843.403	9.02
843.698	13.79
843.993	10.09
844.287	16.12
844.582	14.19
844.877	0.34
845.171	9.12
845.466	10.17
845.761	3.79
846.055	12.75
846.349	9.49
846.644	13.43
846.938	8.39
847.232	16.5
847.526	7.54
847.82	22.81
848.114	11.79
848.408	5.63
848.702	22.51
848.996	16.76
849.29	15.86
849.584	24.65
849.877	16.38
850.171	1.32
850.465	0.88
850.758	9.47
851.052	5.36
851.345	26.19
851.638	2.89
851.932	20.87
852.225	24.64
852.518	21.82
852.811	19.56
853.104	14.4
853.397	8.42
853.69	10.44
853.983	20.75
854.276	6.7
854.569	17.3
854.861	10.08
855.154	20.5
855.447	5.17
855.739	-8.42
856.032	13.26
856.324	10.67
856.616	27.87
856.909	-7.15
857.201	-1.85
857.493	38.32
857.785	3.12
858.077	28.86
858.369	20.87
858.661	21.37
858.953	14.72
859.245	28.09
859.537	7.58
859.829	18.93
860.12	9.77
860.412	9.8
860.703	6.51
860.995	-11.92
861.286	14.75
861.578	19.45
861.869	-1.9
862.16	5.79
862.452	0.73
862.743	33.36
863.034	35.25
863.325	33.17
863.616	-6.2
863.907	18.11
864.198	27.2
864.488	-5.32
864.779	-22.23
865.07	8.85
865.36	6.13
865.651	20.14
865.941	-6.44
866.232	2.5
866.522	15.01
866.813	25.44
867.103	16.04
867.393	-1.65
867.683	20.66
867.973	17.29
868.263	20.35
868.553	30.94
868.843	20.73
869.133	24.71
869.423	23.92
869.713	6.27
870.002	11
870.292	-2.7
870.582	12.53
870.871	0.32
871.161	1.53
871.45	31.7
871.739	29.44
872.029	0.45
872.318	12.66
872.607	19.94
872.896	6.83
873.185	16.14
873.474	33.24
873.763	-1.84
874.052	4.17
874.341	0.33
874.63	31.17
874.918	12.22
875.207	31.41
875.496	34.82
875.784	21.42
876.073	8.2
876.361	16.9
876.649	0.86
876.938	37.14
877.226	0.31
877.514	28.8
877.802	-6.05
878.09	1.38
878.378	28.85
878.666	11.53
878.954	4.83
879.242	22.81
879.53	9.43
879.817	13.08
880.105	-38.56
880.392	-0.35
880.68	10.31
880.967	39.06
881.255	20.27
881.542	18.4
881.83	32.44
882.117	5.08
882.404	17.5
882.691	31.15
882.978	15.65
883.265	-0.55
883.552	24.52
883.839	-2.46
884.126	19.11
884.413	-2.33
884.699	18.08
884.986	18.62
885.273	10.35
885.559	10.35
885.846	10.35
