Data from 0024_forehead_Reflection__4__75.txt Node

Date: Thu Oct 20 20:54:09 CDT 2022
User: ToomeyLab
Spectrometer: FLMS14357
Trigger mode: 0
Integration Time (sec): 1.000000E-2
Scans to average: 100
Electric dark correction enabled: true
Nonlinearity correction enabled: false
Boxcar width: 0
XAxis mode: Wavelengths
Number of Pixels in Spectrum: 2048
>>>>>Begin Spectral Data<<<<<
189.047	-32.29
189.435	-32.29
189.823	-32.29
190.211	185.71
190.599	104.99
190.987	84.41
191.375	-13.52
191.763	119.37
192.151	33.2
192.538	2132.26
192.926	61.22
193.314	3.2
193.702	137.51
194.089	345.64
194.477	1109.98
194.864	-13.41
195.252	89.78
195.639	105.69
196.027	290.02
196.414	-121.63
196.801	7.34
197.189	32.33
197.576	158.39
197.963	50.15
198.351	26.09
198.738	51.94
199.125	31.04
199.512	26.38
199.899	14.55
200.286	21.26
200.673	37.06
201.06	11.48
201.447	30.03
201.833	59.71
202.22	-14.95
202.607	10.54
202.994	51.95
203.38	6.39
203.767	39.77
204.154	42.48
204.54	-0.66
204.927	66.94
205.313	2.45
205.699	74.95
206.086	53.47
206.472	4.3
206.858	-10
207.245	3.52
207.631	-9.18
208.017	27.44
208.403	32.79
208.789	12.2
209.175	29.34
209.561	-19.11
209.947	10.6
210.333	55.28
210.719	33.15
211.105	10.33
211.491	-19.82
211.876	40.15
212.262	23.36
212.648	8.21
213.034	3.38
213.419	26.96
213.805	-1.26
214.19	-39.06
214.576	10.96
214.961	29.95
215.346	-27.9
215.732	-30.19
216.117	23.19
216.502	-24.14
216.888	1.6
217.273	19.81
217.658	-18
218.043	2.96
218.428	26.05
218.813	0.18
219.198	-0.6
219.583	-1.42
219.968	23.3
220.353	2.95
220.738	14.21
221.122	20
221.507	0.66
221.892	1.95
222.276	4.72
222.661	3.47
223.046	12.21
223.43	16.34
223.815	-3.35
224.199	14.18
224.583	4.49
224.968	3.5
225.352	15.15
225.736	11.26
226.121	22.92
226.505	5.91
226.889	-2.26
227.273	10.08
227.657	2.46
228.041	3.84
228.425	6.31
228.809	3.79
229.193	2.08
229.577	3.41
229.961	2.21
230.344	2.81
230.728	3.12
231.112	3.16
231.495	1.97
231.879	2.56
232.263	3.01
232.646	2.51
233.03	1.86
233.413	3.59
233.797	2.95
234.18	5.72
234.563	3.66
234.946	1.63
235.33	1.94
235.713	1.83
236.096	4.43
236.479	3.63
236.862	0.35
237.245	2.24
237.628	4
238.011	3.35
238.394	3.38
238.777	3.02
239.16	2.78
239.543	1.58
239.925	3.11
240.308	3.86
240.691	2.63
241.073	3.56
241.456	2.55
241.838	3.16
242.221	1.47
242.603	2.4
242.986	2.82
243.368	3.31
243.75	2.62
244.133	2.36
244.515	2.82
244.897	3.04
245.279	3.9
245.661	3.9
246.043	3.4
246.425	3.46
246.807	3.36
247.189	2.95
247.571	3.17
247.953	2.47
248.335	3.13
248.717	2.93
249.098	2.94
249.48	2.76
249.862	2.9
250.243	3.09
250.625	3.19
251.006	3.52
251.388	2.3
251.769	3.26
252.151	3.57
252.532	2.64
252.913	3.28
253.295	3.19
253.676	3.11
254.057	3.05
254.438	3.09
254.819	3.14
255.2	5.47
255.581	4.2
255.962	2.51
256.343	2.58
256.724	3.35
257.105	4.62
257.486	3.23
257.867	4.03
258.247	4.01
258.628	3.36
259.009	3.1
259.389	3.35
259.77	3.37
260.15	3.42
260.531	2.9
260.911	2.76
261.292	2.78
261.672	2.5
262.052	2.81
262.432	3.15
262.813	2.87
263.193	3.26
263.573	2.81
263.953	3.05
264.333	3.01
264.713	3.33
265.093	2.93
265.473	2.24
265.853	3.68
266.233	3.34
266.612	3.08
266.992	2.92
267.372	2.86
267.752	2.56
268.131	3
268.511	2.99
268.89	2.74
269.27	2.67
269.649	2.6
270.029	3.12
270.408	2.82
270.787	2.91
271.167	3.03
271.546	2.91
271.925	2.99
272.304	3.2
272.683	2.52
273.062	2.54
273.441	3.07
273.82	3.16
274.199	2.42
274.578	2.68
274.957	2.75
275.336	2.6
275.715	2.81
276.093	3.04
276.472	3.14
276.851	2.64
277.229	2.81
277.608	2.8
277.986	3.06
278.365	2.89
278.743	2.93
279.122	2.95
279.5	3.35
279.878	2.77
280.257	2.74
280.635	3.29
281.013	2.52
281.391	2.54
281.769	2.84
282.147	2.66
282.525	3.12
282.903	3.02
283.281	2.6
283.659	2.83
284.037	3.09
284.415	3.01
284.792	2.9
285.17	2.88
285.548	2.49
285.925	2.64
286.303	3.11
286.68	2.91
287.058	3.13
287.435	2.82
287.813	2.78
288.19	2.75
288.567	3.09
288.945	3.01
289.322	2.82
289.699	3.12
290.076	3.16
290.453	2.88
290.83	2.73
291.207	3.12
291.584	3.28
291.961	2.76
292.338	3.6
292.715	3.14
293.092	3.24
293.469	3.95
293.845	3.05
294.222	3.32
294.599	3.98
294.975	3.86
295.352	3.26
295.728	3.24
296.105	3.51
296.481	3.66
296.858	4.14
297.234	3.57
297.61	3.66
297.986	3.98
298.363	3.78
298.739	3.91
299.115	3.72
299.491	3.82
299.867	3.81
300.243	3.93
300.619	4.48
300.995	3.91
301.371	4.46
301.746	3.98
302.122	4.65
302.498	4.35
302.874	3.97
303.249	4.2
303.625	4.17
304	4.15
304.376	4.66
304.751	4.34
305.127	4.12
305.502	4.17
305.878	4.4
306.253	3.83
306.628	4.42
307.003	4.21
307.378	4.2
307.754	4.61
308.129	4.32
308.504	5.35
308.879	4.44
309.254	4.44
309.629	4.44
310.003	4.45
310.378	4.34
310.753	4.32
311.128	4.83
311.502	5.29
311.877	4.67
312.252	4.76
312.626	4.66
313.001	4.79
313.375	4.9
313.75	4.55
314.124	4.88
314.498	5.14
314.873	5.08
315.247	5.02
315.621	4.74
315.995	5
316.369	4.83
316.743	5.56
317.117	5.27
317.491	5.6
317.865	5.79
318.239	4.99
318.613	4.98
318.987	5.21
319.361	5.62
319.734	5.6
320.108	5.38
320.482	5.7
320.855	5.79
321.229	5.6
321.602	5.85
321.976	6.1
322.349	5.42
322.723	5.68
323.096	6.27
323.469	6.01
323.843	5.34
324.216	5.34
324.589	5.55
324.962	5.29
325.335	5.11
325.708	5.77
326.081	5.73
326.454	6.02
326.827	5.33
327.2	5.99
327.573	5.78
327.945	5.74
328.318	5.53
328.691	6.18
329.063	5.39
329.436	5.69
329.809	6.27
330.181	5.69
330.553	5.82
330.926	6.04
331.298	5.85
331.671	5.24
332.043	6.21
332.415	6.57
332.787	5.88
333.159	5.95
333.532	6.06
333.904	6.44
334.276	6.15
334.648	5.9
335.02	6.23
335.391	5.48
335.763	5.85
336.135	6.44
336.507	6.19
336.879	5.72
337.25	6.34
337.622	6.08
337.993	6.01
338.365	6.09
338.736	6.5
339.108	7.05
339.479	5.8
339.851	6.9
340.222	6.28
340.593	6.48
340.964	6.67
341.336	6.96
341.707	6.85
342.078	6.61
342.449	6.67
342.82	6.6
343.191	7.2
343.562	6.56
343.933	6.46
344.303	6.34
344.674	6.86
345.045	7.31
345.416	6.85
345.786	6.82
346.157	6.8
346.527	6.77
346.898	6.37
347.268	7.19
347.639	6.61
348.009	7.23
348.38	6.49
348.75	7.17
349.12	7.09
349.49	6.54
349.861	7.31
350.231	6.55
350.601	7.47
350.971	7.13
351.341	6.84
351.711	6.78
352.081	7.43
352.45	6.8
352.82	7.21
353.19	6.85
353.56	6.97
353.929	7.4
354.299	6.9
354.669	7.04
355.038	7.16
355.408	6.87
355.777	7.05
356.147	7.3
356.516	7.02
356.885	7.85
357.254	7.15
357.624	7.33
357.993	7.61
358.362	7.23
358.731	7.29
359.1	7.26
359.469	7.2
359.838	7.27
360.207	7.49
360.576	7.43
360.945	7
361.314	7.58
361.682	7.85
362.051	7.36
362.42	7.68
362.788	7.42
363.157	7.66
363.525	7.32
363.894	7.59
364.262	7.62
364.631	7.36
364.999	7.82
365.367	7.51
365.735	7.77
366.104	7.81
366.472	7.81
366.84	8.16
367.208	7.75
367.576	7.87
367.944	7.61
368.312	7.9
368.68	7.91
369.048	8.09
369.416	7.61
369.783	7.81
370.151	7.8
370.519	8.06
370.886	8.16
371.254	7.93
371.621	7.78
371.989	7.92
372.356	8.21
372.724	7.95
373.091	8.26
373.458	7.68
373.826	8.24
374.193	8.39
374.56	8.14
374.927	8.27
375.294	8.01
375.661	8.23
376.028	8.14
376.395	8.19
376.762	8.34
377.129	8.21
377.496	8.02
377.863	8.32
378.229	8.56
378.596	8.4
378.963	8.21
379.329	8.47
379.696	8.31
380.062	8.61
380.429	8.59
380.795	8.66
381.161	8.8
381.528	8.83
381.894	8.69
382.26	8.35
382.626	8.65
382.993	8.56
383.359	8.65
383.725	9.2
384.091	8.77
384.457	8.68
384.823	8.96
385.188	8.67
385.554	8.89
385.92	8.76
386.286	8.85
386.651	8.99
387.017	8.77
387.383	8.73
387.748	8.9
388.114	8.95
388.479	9.31
388.845	8.94
389.21	8.67
389.575	9.38
389.94	8.96
390.306	9.37
390.671	9.03
391.036	9.47
391.401	9.53
391.766	9.12
392.131	9.06
392.496	9.25
392.861	9.11
393.226	9.19
393.591	9.35
393.956	9.27
394.32	9.53
394.685	9.52
395.05	9.28
395.414	9.45
395.779	9.55
396.143	9.44
396.508	9.61
396.872	9.59
397.236	9.07
397.601	9.67
397.965	9.7
398.329	9.4
398.694	9.49
399.058	9.6
399.422	9.72
399.786	9.68
400.15	9.64
400.514	9.77
400.878	9.74
401.242	9.68
401.605	9.65
401.969	9.68
402.333	9.66
402.697	9.94
403.06	9.68
403.424	9.96
403.787	9.94
404.151	9.98
404.514	10.07
404.878	10.11
405.241	9.98
405.604	9.99
405.968	9.77
406.331	10.01
406.694	9.93
407.057	9.97
407.42	9.88
407.783	9.98
408.146	10.24
408.509	10.06
408.872	10.19
409.235	10.19
409.598	9.93
409.961	10.1
410.323	10.08
410.686	10.27
411.049	10.33
411.411	10.35
411.774	10.32
412.136	10.29
412.499	10.4
412.861	10.29
413.223	10.36
413.586	10.55
413.948	10.39
414.31	10.6
414.672	10.29
415.035	10.48
415.397	10.67
415.759	10.65
416.121	10.52
416.483	10.56
416.845	10.66
417.206	10.45
417.568	10.45
417.93	10.22
418.292	10.56
418.653	10.59
419.015	10.6
419.377	10.54
419.738	10.56
420.1	10.62
420.461	10.55
420.822	10.58
421.184	10.64
421.545	10.61
421.906	10.53
422.267	10.54
422.629	10.5
422.99	10.57
423.351	10.49
423.712	10.5
424.073	10.68
424.434	10.78
424.795	10.81
425.155	10.57
425.516	10.63
425.877	10.81
426.238	10.8
426.598	10.7
426.959	10.97
427.32	10.91
427.68	11.06
428.041	10.91
428.401	10.96
428.761	11.24
429.122	11.18
429.482	11.28
429.842	11.24
430.202	11.27
430.563	11.19
430.923	11.39
431.283	11.14
431.643	11.17
432.003	11.58
432.363	11.19
432.722	11.38
433.082	11.31
433.442	11.38
433.802	11.48
434.161	11.57
434.521	11.29
434.881	11.33
435.24	11.36
435.6	11.44
435.959	11.38
436.319	11.66
436.678	11.56
437.037	11.65
437.396	11.45
437.756	11.66
438.115	11.85
438.474	11.83
438.833	11.53
439.192	11.82
439.551	11.72
439.91	11.73
440.269	11.65
440.628	11.78
440.987	11.78
441.345	11.75
441.704	11.76
442.063	11.5
442.421	11.72
442.78	11.64
443.138	11.78
443.497	11.88
443.855	11.97
444.214	11.88
444.572	11.94
444.93	11.77
445.288	11.94
445.647	11.93
446.005	11.91
446.363	11.92
446.721	11.88
447.079	11.93
447.437	11.9
447.795	11.85
448.153	11.87
448.51	12.04
448.868	11.98
449.226	12.02
449.584	11.98
449.941	12.26
450.299	12.11
450.656	12.19
451.014	12.32
451.371	12.34
451.729	12.3
452.086	12.48
452.443	12.33
452.801	12.47
453.158	12.49
453.515	12.4
453.872	12.47
454.229	12.4
454.586	12.58
454.943	12.46
455.3	12.55
455.657	12.59
456.014	12.41
456.371	12.47
456.727	12.71
457.084	12.71
457.441	12.72
457.797	12.65
458.154	12.87
458.51	12.7
458.867	12.66
459.223	12.8
459.58	12.81
459.936	12.79
460.292	12.83
460.648	12.69
461.005	12.71
461.361	12.52
461.717	12.62
462.073	12.61
462.429	12.77
462.785	12.98
463.141	12.84
463.496	12.92
463.852	12.82
464.208	13.16
464.564	12.9
464.919	12.96
465.275	12.98
465.631	13.31
465.986	13.25
466.342	13.16
466.697	13.12
467.052	13.34
467.408	13.23
467.763	13.38
468.118	13.37
468.473	13.25
468.829	13.35
469.184	13.48
469.539	13.46
469.894	13.31
470.249	13.46
470.603	13.45
470.958	13.6
471.313	13.54
471.668	13.49
472.023	13.46
472.377	13.59
472.732	13.56
473.086	13.57
473.441	13.6
473.795	13.63
474.15	13.67
474.504	13.65
474.859	13.6
475.213	13.7
475.567	13.71
475.921	13.65
476.275	13.77
476.63	13.6
476.984	13.88
477.338	13.94
477.692	13.83
478.045	13.82
478.399	13.91
478.753	13.83
479.107	13.86
479.461	13.81
479.814	13.85
480.168	13.78
480.521	13.92
480.875	14.04
481.228	13.95
481.582	13.92
481.935	13.96
482.289	14
482.642	14.03
482.995	13.98
483.348	13.98
483.701	13.69
484.055	13.71
484.408	13.62
484.761	13.34
485.114	13.25
485.466	13.3
485.819	13.37
486.172	13.38
486.525	13.51
486.878	13.61
487.23	13.68
487.583	13.75
487.936	13.78
488.288	13.76
488.641	13.68
488.993	13.61
489.345	13.58
489.698	13.7
490.05	13.78
490.402	13.83
490.754	13.91
491.107	14.14
491.459	14.18
491.811	14.31
492.163	14.25
492.515	14.07
492.866	13.95
493.218	13.89
493.57	13.89
493.922	14.07
494.274	14.23
494.625	14.34
494.977	14.48
495.328	14.61
495.68	14.56
496.031	14.86
496.383	14.77
496.734	14.79
497.086	14.79
497.437	15.04
497.788	14.84
498.139	14.7
498.49	14.79
498.842	14.71
499.193	14.7
499.544	14.82
499.894	14.87
500.245	15.03
500.596	15.04
500.947	15.01
501.298	15.07
501.648	15.1
501.999	15.07
502.35	15.32
502.7	15.29
503.051	15.33
503.401	15.25
503.752	15.24
504.102	15.23
504.452	15.32
504.803	15.35
505.153	15.3
505.503	15.37
505.853	15.38
506.203	15.42
506.553	15.42
506.903	15.53
507.253	15.54
507.603	15.43
507.953	15.67
508.303	15.47
508.652	15.59
509.002	15.57
509.352	15.52
509.701	15.83
510.051	15.56
510.4	15.64
510.75	15.53
511.099	15.64
511.449	15.5
511.798	15.61
512.147	15.62
512.496	15.64
512.846	15.75
513.195	15.74
513.544	15.7
513.893	15.77
514.242	15.88
514.591	15.8
514.939	15.9
515.288	15.78
515.637	15.82
515.986	16.04
516.334	16.03
516.683	16.03
517.032	16.07
517.38	16.13
517.729	16.03
518.077	16.11
518.426	16.01
518.774	16.05
519.122	16.11
519.47	16.02
519.819	15.86
520.167	15.84
520.515	15.81
520.863	15.92
521.211	15.88
521.559	16.11
521.907	16.1
522.255	16.19
522.602	16.41
522.95	16.36
523.298	16.47
523.645	16.47
523.993	16.36
524.341	16.34
524.688	16.45
525.036	16.41
525.383	16.53
525.73	16.5
526.078	16.35
526.425	16.36
526.772	16.33
527.119	16.14
527.466	16.33
527.814	16.22
528.161	16.44
528.508	16.28
528.854	16.21
529.201	16.15
529.548	15.99
529.895	15.9
530.242	15.87
530.588	16.04
530.935	16.04
531.282	16.11
531.628	16.31
531.975	16.36
532.321	16.44
532.667	16.67
533.014	16.72
533.36	16.64
533.706	16.66
534.052	16.63
534.399	16.4
534.745	16.32
535.091	16.45
535.437	16.54
535.783	16.55
536.129	16.73
536.474	16.83
536.82	16.97
537.166	16.99
537.512	16.9
537.857	16.76
538.203	16.91
538.549	16.86
538.894	16.98
539.239	16.87
539.585	17.18
539.93	17.26
540.276	17.31
540.621	17.4
540.966	17.48
541.311	17.36
541.656	17.28
542.001	17.1
542.346	16.95
542.691	16.76
543.036	16.79
543.381	16.96
543.726	16.96
544.071	17.11
544.415	17.12
544.76	17.2
545.105	17.23
545.449	17.5
545.794	17.54
546.138	17.55
546.483	17.56
546.827	17.58
547.171	17.52
547.516	17.74
547.86	17.69
548.204	17.67
548.548	17.59
548.892	17.61
549.236	17.83
549.58	17.9
549.924	18.03
550.268	18.25
550.612	18.32
550.956	18.09
551.3	18.39
551.643	18.17
551.987	18.3
552.33	18.44
552.674	18.3
553.017	18.24
553.361	18.19
553.704	18.35
554.048	18.23
554.391	18.3
554.734	18.33
555.077	18.47
555.42	18.45
555.764	18.67
556.107	18.51
556.45	18.67
556.793	18.68
557.135	18.75
557.478	18.78
557.821	19.02
558.164	18.86
558.507	18.87
558.849	18.68
559.192	18.7
559.534	18.8
559.877	18.81
560.219	18.95
560.562	19.1
560.904	18.95
561.246	19
561.589	18.97
561.931	19.18
562.273	18.95
562.615	18.98
562.957	18.95
563.299	18.96
563.641	19.21
563.983	19.01
564.325	19.17
564.667	19.24
565.008	19.21
565.35	19.15
565.692	19.05
566.033	19.27
566.375	19.13
566.716	19.28
567.058	19.35
567.399	19.26
567.741	19.07
568.082	19.1
568.423	19.07
568.764	19.16
569.105	19.64
569.447	19.66
569.788	19.43
570.129	19.48
570.47	19.31
570.811	19.3
571.151	19.48
571.492	19.54
571.833	19.4
572.174	19.62
572.514	19.42
572.855	19.35
573.195	19.47
573.536	19.38
573.876	19.55
574.217	19.68
574.557	19.5
574.898	19.53
575.238	19.54
575.578	19.61
575.918	19.8
576.258	19.6
576.598	19.56
576.938	19.79
577.278	19.57
577.618	19.75
577.958	19.88
578.298	19.92
578.638	19.91
578.977	19.94
579.317	20.19
579.657	19.93
579.996	20.21
580.336	20.13
580.675	20.11
581.014	20.09
581.354	20.3
581.693	20.03
582.032	20.24
582.372	20.27
582.711	20.07
583.05	20.35
583.389	20.42
583.728	20.53
584.067	20.37
584.406	20.67
584.745	20.62
585.083	20.42
585.422	20.6
585.761	20.47
586.1	20.4
586.438	20.48
586.777	20.69
587.115	20.7
587.454	20.6
587.792	20.75
588.13	20.39
588.469	20.85
588.807	20.68
589.145	20.61
589.483	20.81
589.821	20.64
590.159	20.68
590.497	21.06
590.835	20.69
591.173	20.73
591.511	20.72
591.849	20.7
592.187	20.79
592.524	21.06
592.862	21.03
593.2	20.81
593.537	20.91
593.875	21.17
594.212	20.74
594.55	20.85
594.887	21.02
595.224	21.19
595.561	21
595.899	21.03
596.236	20.91
596.573	21.31
596.91	21.31
597.247	21.18
597.584	21.05
597.921	21.02
598.258	21.16
598.594	20.97
598.931	21.02
599.268	21.1
599.604	21.35
599.941	21.1
600.277	21.47
600.614	21.47
600.95	21.59
601.287	21.58
601.623	21.62
601.959	21.39
602.296	21.46
602.632	21.58
602.968	21.45
603.304	21.51
603.64	21.69
603.976	21.76
604.312	21.49
604.648	21.47
604.984	21.44
605.319	21.72
605.655	21.34
605.991	21.46
606.326	21.66
606.662	21.45
606.998	21.7
607.333	21.75
607.668	21.95
608.004	21.81
608.339	21.8
608.674	21.73
609.01	21.82
609.345	21.81
609.68	21.7
610.015	22.06
610.35	21.74
610.685	21.73
611.02	21.5
611.355	21.78
611.689	21.9
612.024	21.8
612.359	21.96
612.694	21.83
613.028	22.14
613.363	22.27
613.697	22.32
614.032	22.37
614.366	22.31
614.7	22.12
615.035	22.38
615.369	22.01
615.703	22.23
616.037	22.16
616.371	22.59
616.705	22.54
617.039	22.44
617.373	22.5
617.707	22.18
618.041	22.66
618.375	22.17
618.709	22.8
619.042	22.59
619.376	22.45
619.71	22.68
620.043	22.57
620.377	22.86
620.71	22.78
621.043	22.21
621.377	22.76
621.71	22.32
622.043	22.65
622.376	23.06
622.709	22.65
623.043	22.58
623.376	22.65
623.709	23.14
624.041	22.99
624.374	22.92
624.707	22.82
625.04	22.42
625.373	23.07
625.705	22.8
626.038	22.78
626.37	22.69
626.703	22.9
627.035	22.73
627.368	22.7
627.7	22.94
628.032	22.69
628.365	22.88
628.697	23.05
629.029	22.92
629.361	22.72
629.693	23.09
630.025	23.45
630.357	23.35
630.689	23.42
631.021	22.95
631.353	22.95
631.684	23.08
632.016	23.26
632.348	23.33
632.679	23.16
633.011	23.21
633.342	23.2
633.674	23.42
634.005	23.04
634.336	23.63
634.668	23.08
634.999	23.42
635.33	23.32
635.661	23.1
635.992	23.26
636.323	23.66
636.654	23.46
636.985	23.44
637.316	23.28
637.647	23.46
637.977	23.45
638.308	23.56
638.639	23.57
638.969	23.33
639.3	23.54
639.63	24.08
639.961	23.14
640.291	23.56
640.622	23.79
640.952	23.67
641.282	23.88
641.612	23.5
641.943	24.2
642.273	24.26
642.603	24.01
642.933	23.99
643.263	23.97
643.592	23.97
643.922	23.99
644.252	23.86
644.582	24.14
644.911	24.21
645.241	24.16
645.571	23.91
645.9	23.83
646.23	23.69
646.559	24.06
646.888	24.13
647.218	24.27
647.547	24.34
647.876	24.42
648.205	24.09
648.534	23.98
648.863	24.09
649.192	24.43
649.521	24.27
649.85	24.23
650.179	24.02
650.508	24.57
650.837	24.35
651.165	24.49
651.494	24.49
651.822	24.16
652.151	24.35
652.479	24.55
652.808	24.53
653.136	24.46
653.465	24.69
653.793	24.12
654.121	24.28
654.449	24.45
654.777	24.35
655.105	24.8
655.433	24.7
655.761	24.28
656.089	24.83
656.417	24.6
656.745	24.37
657.073	24.8
657.4	24.56
657.728	24.82
658.056	24.5
658.383	24.61
658.711	24.43
659.038	24.92
659.365	24.41
659.693	24.44
660.02	24.86
660.347	24.71
660.674	24.43
661.001	24.72
661.329	24.78
661.656	24.8
661.982	24.79
662.309	24.99
662.636	24.95
662.963	25.05
663.29	25.05
663.616	25.18
663.943	24.8
664.27	25.21
664.596	24.82
664.923	24.31
665.249	24.9
665.576	25.51
665.902	25.11
666.228	25.05
666.554	24.63
666.881	25.09
667.207	24.91
667.533	25.23
667.859	25.07
668.185	25.1
668.511	24.86
668.837	25.42
669.162	24.57
669.488	25.14
669.814	25.48
670.139	24.8
670.465	25.1
670.791	25.23
671.116	25.08
671.442	24.79
671.767	25.43
672.092	25.71
672.418	25.26
672.743	25.02
673.068	25.67
673.393	26.06
673.718	24.99
674.043	25.12
674.368	26.06
674.693	25.58
675.018	25.51
675.343	25.38
675.667	25.17
675.992	25.08
676.317	25.76
676.641	25.78
676.966	25.08
677.29	25.78
677.615	25.26
677.939	25.68
678.264	25.46
678.588	25.69
678.912	25.59
679.236	26.1
679.56	25.22
679.885	26.18
680.209	26.37
680.532	25.94
680.856	25.91
681.18	25.8
681.504	25.71
681.828	25.26
682.152	25.67
682.475	25.83
682.799	25.37
683.122	25.61
683.446	25.86
683.769	25.96
684.093	25.61
684.416	25.97
684.739	26.29
685.062	26.03
685.386	25.41
685.709	26.49
686.032	25.71
686.355	26.62
686.678	25.78
687.001	26.32
687.324	26.01
687.646	25.94
687.969	26.23
688.292	25.77
688.614	26.22
688.937	26.71
689.26	26.11
689.582	26.6
689.904	26.2
690.227	26.73
690.549	26.87
690.871	26.29
691.194	26.56
691.516	26.55
691.838	26.14
692.16	25.86
692.482	25.62
692.804	26.12
693.126	26.4
693.448	26.73
693.769	26.43
694.091	26.83
694.413	26.59
694.735	26.41
695.056	26.33
695.378	25.94
695.699	25.96
696.021	26.18
696.342	25.85
696.663	26.37
696.984	25.35
697.306	25.95
697.627	26.62
697.948	26.71
698.269	25.93
698.59	26.04
698.911	26.34
699.232	26.45
699.553	26.18
699.873	26.34
700.194	26.15
700.515	26.53
700.835	26.66
701.156	26.4
701.477	26.79
701.797	26.83
702.117	26.69
702.438	26.64
702.758	27.13
703.078	26.64
703.398	27.34
703.719	27.6
704.039	27.4
704.359	26.5
704.679	26.87
704.999	27.03
705.319	28.04
705.638	27.08
705.958	26.46
706.278	27.3
706.597	26.64
706.917	26.85
707.237	26.57
707.556	27.93
707.876	27.5
708.195	27.09
708.514	27.31
708.834	26.85
709.153	26.63
709.472	27.39
709.791	26.35
710.11	27.25
710.429	27.06
710.748	26.91
711.067	27.33
711.386	26.5
711.705	27.55
712.023	26.07
712.342	27.44
712.661	27.06
712.979	27.86
713.298	27.96
713.616	27.32
713.935	27.43
714.253	27.84
714.572	27.19
714.89	27.1
715.208	27.04
715.526	27.89
715.844	27.33
716.162	27.64
716.48	27.06
716.798	27.5
717.116	27.36
717.434	26.94
717.752	27.7
718.069	27.33
718.387	27.81
718.705	26.96
719.022	27.86
719.34	28.06
719.657	26.43
719.975	27.08
720.292	28.27
720.609	26.4
720.927	27.12
721.244	27.21
721.561	28.4
721.878	28.32
722.195	28.53
722.512	27.77
722.829	27.95
723.146	27.59
723.463	26.93
723.779	26.71
724.096	28.57
724.413	27.59
724.729	28.02
725.046	28.54
725.362	27.48
725.679	27.9
725.995	26.91
726.311	27.93
726.628	27.27
726.944	28.2
727.26	27.91
727.576	26.55
727.892	27.46
728.208	28.71
728.524	28.51
728.84	27.46
729.156	27.85
729.472	28.1
729.787	29.18
730.103	28.31
730.419	27.41
730.734	29.03
731.05	28.05
731.365	27.25
731.681	28.05
731.996	27.47
732.311	28
732.626	29.24
732.942	28.13
733.257	28.95
733.572	28.15
733.887	27.98
734.202	28.3
734.517	28.83
734.832	28.23
735.146	28.73
735.461	27.5
735.776	29.27
736.091	28.55
736.405	27.29
736.72	27.95
737.034	28.91
737.349	27.66
737.663	28.55
737.977	30.07
738.292	27.61
738.606	28.39
738.92	29.38
739.234	28.06
739.548	29.09
739.862	28.3
740.176	27.76
740.49	27.42
740.804	27.16
741.117	29.4
741.431	27.51
741.745	29.64
742.058	28.49
742.372	29.01
742.685	28.8
742.999	28.96
743.312	29.7
743.626	29.2
743.939	29.22
744.252	27.64
744.565	27.89
744.878	28.48
745.191	25.91
745.505	29.13
745.817	29.05
746.13	30.1
746.443	28.99
746.756	29.04
747.069	29.29
747.381	29.14
747.694	29.74
748.007	30.81
748.319	30.06
748.632	29.75
748.944	29.31
749.256	28.11
749.569	29.38
749.881	28.85
750.193	28.81
750.505	29.12
750.817	28.75
751.129	29.03
751.441	28.54
751.753	30.3
752.065	28.85
752.377	30.35
752.689	30.87
753	30.08
753.312	29.58
753.624	30.93
753.935	28.79
754.247	29.48
754.558	30.54
754.869	28.11
755.181	30.47
755.492	30.42
755.803	29.2
756.114	28.59
756.425	29.63
756.736	30.62
757.047	29.83
757.358	29.64
757.669	27.92
757.98	29.78
758.291	31.45
758.601	30.17
758.912	30.97
759.223	27.75
759.533	30.59
759.844	26.38
760.154	29.72
760.464	30.49
760.775	27.59
761.085	28.43
761.395	29.46
761.705	30.26
762.016	29.47
762.326	29.97
762.636	30.27
762.945	29.48
763.255	28.17
763.565	28.77
763.875	28.96
764.185	30.2
764.494	29.01
764.804	29.9
765.113	29.43
765.423	29.1
765.732	29.43
766.042	32.09
766.351	31.18
766.66	29.67
766.97	29.77
767.279	30.9
767.588	30.5
767.897	29.65
768.206	28.56
768.515	29.32
768.824	30.08
769.133	32.01
769.441	30.27
769.75	29.64
770.059	32.32
770.367	32.8
770.676	31.7
770.984	29.6
771.293	30.77
771.601	29.85
771.91	31.63
772.218	28.37
772.526	31.97
772.834	28.7
773.142	29.6
773.45	29.02
773.758	29.15
774.066	29
774.374	31.52
774.682	31.71
774.99	30.01
775.298	27.89
775.605	29.98
775.913	30.06
776.22	29.48
776.528	30.09
776.835	30.49
777.143	31.49
777.45	31.51
777.757	29.71
778.065	31.93
778.372	30.3
778.679	31.14
778.986	29.95
779.293	30.09
779.6	30.83
779.907	29.89
780.214	31.79
780.52	32.88
780.827	30.63
781.134	31.9
781.44	31.09
781.747	31.81
782.053	32.42
782.36	29.37
782.666	29.72
782.973	32.07
783.279	33.21
783.585	32.69
783.891	31.85
784.197	29.4
784.503	28.34
784.809	29.17
785.115	27.4
785.421	29.67
785.727	33.64
786.033	32.4
786.339	30.38
786.644	29.9
786.95	31.11
787.255	36.71
787.561	30.27
787.866	30.54
788.172	30.19
788.477	29.81
788.782	29.07
789.088	32.75
789.393	31.31
789.698	28.92
790.003	32.01
790.308	29.47
790.613	29.36
790.918	29.68
791.223	32.34
791.527	33.08
791.832	30.78
792.137	30.44
792.441	28.81
792.746	32.32
793.05	32.41
793.355	27.48
793.659	34.13
793.963	32.47
794.268	31.68
794.572	32.33
794.876	35.64
795.18	29.04
795.484	27.58
795.788	28.52
796.092	32.82
796.396	31.97
796.7	29.28
797.004	31.32
797.307	30.29
797.611	30.84
797.915	31.81
798.218	31.6
798.522	32.82
798.825	32.6
799.128	30.86
799.432	30.7
799.735	31.78
800.038	31.45
800.341	31.9
800.644	32.3
800.947	31.31
801.25	36.07
801.553	28.86
801.856	35.19
802.159	30.83
802.462	28.83
802.764	34.64
803.067	31.56
803.37	33.9
803.672	36.35
803.975	34.54
804.277	36.42
804.579	28
804.882	34.53
805.184	32.01
805.486	31.66
805.788	31.71
806.09	24.56
806.392	33.16
806.694	33.65
806.996	31.39
807.298	34.12
807.6	38.17
807.902	32.14
808.203	28.46
808.505	29.65
808.807	30.25
809.108	37.52
809.409	33.48
809.711	35.21
810.012	32.69
810.313	31.44
810.615	29.75
810.916	32.93
811.217	30.92
811.518	30.82
811.819	34.34
812.12	32.99
812.421	35.4
812.722	32.53
813.023	34.06
813.323	32.4
813.624	37.25
813.925	26.73
814.225	32.74
814.526	35.12
814.826	35.49
815.126	33.78
815.427	28.83
815.727	30.64
816.027	31.72
816.327	41.24
816.627	37.85
816.927	32.22
817.227	29.31
817.527	31.51
817.827	30.76
818.127	36.42
818.427	35.35
818.727	31.74
819.026	34.18
819.326	32.98
819.625	34.76
819.925	33.4
820.224	37.31
820.524	35.01
820.823	31.32
821.122	30.8
821.421	33.5
821.72	29.82
822.019	38.68
822.318	30.4
822.617	32.89
822.916	33.72
823.215	31.05
823.514	33.85
823.813	31.67
824.111	31.47
824.41	32.15
824.709	31.53
825.007	33.04
825.306	32.61
825.604	32.4
825.902	33.09
826.201	32.56
826.499	34.66
826.797	35.25
827.095	34.34
827.393	33
827.691	33.24
827.989	34.05
828.287	36.67
828.585	33.48
828.882	34.33
829.18	33.51
829.478	33.73
829.775	33.55
830.073	32.24
830.37	34.16
830.668	34.39
830.965	36.09
831.263	34.16
831.56	33.71
831.857	32.41
832.154	35.09
832.451	36.82
832.748	33.49
833.045	38.15
833.342	39.32
833.639	34.11
833.936	40.36
834.232	36.02
834.529	28.8
834.826	33.35
835.122	30.58
835.419	35.62
835.715	36.52
836.012	30.4
836.308	33.18
836.604	34.01
836.901	34.07
837.197	32.94
837.493	36.24
837.789	35.2
838.085	34.08
838.381	32.93
838.677	36.2
838.972	33.96
839.268	37.76
839.564	34.41
839.86	40.11
840.155	31.86
840.451	22.59
840.746	36.49
841.042	33.92
841.337	34.08
841.632	39
841.928	29.26
842.223	37.64
842.518	36.32
842.813	41.51
843.108	32.45
843.403	38.17
843.698	33.87
843.993	28.18
844.287	34.65
844.582	29.33
844.877	39.68
845.171	32.01
845.466	26.75
845.761	27.78
846.055	39.39
846.349	43
846.644	27.24
846.938	39.5
847.232	22.48
847.526	46.66
847.82	42.93
848.114	25.96
848.408	38.52
848.702	34.22
848.996	42.19
849.29	38.99
849.584	21.28
849.877	36.73
850.171	42.65
850.465	21.15
850.758	34.73
851.052	25.67
851.345	41.21
851.638	26.63
851.932	28.19
852.225	47.99
852.518	55.08
852.811	46.76
853.104	23.74
853.397	31.47
853.69	41.37
853.983	44.64
854.276	36.15
854.569	51.6
854.861	27.26
855.154	37.89
855.447	28.99
855.739	35.37
856.032	28.37
856.324	44.23
856.616	40.93
856.909	4.65
857.201	46.63
857.493	28.08
857.785	36.53
858.077	41.47
858.369	20.88
858.661	25.97
858.953	56.2
859.245	29.95
859.537	26.03
859.829	27.85
860.12	31.82
860.412	24.31
860.703	27.62
860.995	33.62
861.286	33.94
861.578	14.59
861.869	34.18
862.16	31.51
862.452	43.58
862.743	40.72
863.034	30.9
863.325	35.23
863.616	17.18
863.907	43.26
864.198	25.9
864.488	21.05
864.779	45.25
865.07	39.72
865.36	37.35
865.651	48.86
865.941	40.89
866.232	55.16
866.522	40.03
866.813	41.42
867.103	42.99
867.393	47.72
867.683	48.11
867.973	29.71
868.263	25.01
868.553	34.73
868.843	58.63
869.133	32.55
869.423	56.02
869.713	18.53
870.002	42.9
870.292	38.24
870.582	24.02
870.871	26.79
871.161	16.83
871.45	28.07
871.739	33.68
872.029	50.95
872.318	47.6
872.607	58.36
872.896	6.56
873.185	28.08
873.474	22.56
873.763	39.95
874.052	55.38
874.341	19.45
874.63	29.21
874.918	48.59
875.207	24.36
875.496	60.76
875.784	-2.97
876.073	14.7
876.361	40.1
876.649	24.27
876.938	47.47
877.226	38.11
877.514	49.17
877.802	38.38
878.09	72.79
878.378	28.17
878.666	53.71
878.954	65.13
879.242	9.9
879.53	21.58
879.817	41.46
880.105	32.97
880.392	44.94
880.68	28.1
880.967	51.59
881.255	32.4
881.542	27.71
881.83	53.38
882.117	30.16
882.404	25.88
882.691	43.79
882.978	60.44
883.265	50.56
883.552	38.36
883.839	34.39
884.126	39.37
884.413	32.45
884.699	39.99
884.986	35.47
885.273	40.27
885.559	40.27
885.846	40.27
