Data from 0024_chest_Reflection__4__65.txt Node

Date: Thu Oct 20 20:51:17 CDT 2022
User: ToomeyLab
Spectrometer: FLMS14357
Trigger mode: 0
Integration Time (sec): 1.000000E-2
Scans to average: 100
Electric dark correction enabled: true
Nonlinearity correction enabled: false
Boxcar width: 0
XAxis mode: Wavelengths
Number of Pixels in Spectrum: 2048
>>>>>Begin Spectral Data<<<<<
189.047	38.94
189.435	38.94
189.823	38.94
190.211	197.47
190.599	92.52
190.987	69.66
191.375	196.88
191.763	19.63
192.151	94.73
192.538	3606.45
192.926	40.81
193.314	-153.72
193.702	17.68
194.089	144.89
194.477	439.5
194.864	23.59
195.252	9.83
195.639	199
196.027	285.56
196.414	-83.52
196.801	48.46
197.189	-50.11
197.576	-44.23
197.963	42.3
198.351	22.96
198.738	14.53
199.125	18.17
199.512	37.23
199.899	-9.94
200.286	-7.73
200.673	13.6
201.06	-3.89
201.447	41.83
201.833	53.95
202.22	19.74
202.607	13.21
202.994	32.26
203.38	6.33
203.767	-17.27
204.154	7.25
204.54	23.95
204.927	27.59
205.313	-5.35
205.699	30.51
206.086	-13.6
206.472	25.39
206.858	0.93
207.245	22.84
207.631	-11.98
208.017	33.29
208.403	35.23
208.789	-8.54
209.175	-6.1
209.561	15.73
209.947	37.99
210.333	8.23
210.719	41.17
211.105	-3.26
211.491	-25.05
211.876	16.07
212.262	39.24
212.648	-12.26
213.034	-13.03
213.419	21.71
213.805	19.93
214.19	-50.13
214.576	3.56
214.961	17.58
215.346	-46.1
215.732	-25.75
216.117	27
216.502	-7.15
216.888	4.06
217.273	28.99
217.658	22.39
218.043	35.14
218.428	-28.03
218.813	23.39
219.198	14.11
219.583	-21.28
219.968	31.95
220.353	4.74
220.738	22.04
221.122	25.3
221.507	13.26
221.892	-4.58
222.276	6.47
222.661	-7.29
223.046	-3.39
223.43	2.69
223.815	-2.93
224.199	4.4
224.583	12.17
224.968	2.81
225.352	10.44
225.736	14.3
226.121	10.64
226.505	-3.49
226.889	7.82
227.273	12.35
227.657	2.39
228.041	3.8
228.425	2.46
228.809	1.26
229.193	1.56
229.577	1.77
229.961	2.13
230.344	1.98
230.728	2.14
231.112	2.1
231.495	1.94
231.879	2.21
232.263	2.49
232.646	2.28
233.03	2.43
233.413	2.15
233.797	-0.46
234.18	-0.43
234.563	4.22
234.946	2.59
235.33	1.23
235.713	2.1
236.096	1.67
236.479	2.98
236.862	0.5
237.245	1.14
237.628	3.3
238.011	2.98
238.394	1.91
238.777	2.21
239.16	-0.44
239.543	1.6
239.925	1.56
240.308	2.09
240.691	2.17
241.073	2.95
241.456	1.27
241.838	3.14
242.221	1.57
242.603	1.55
242.986	1.75
243.368	2.05
243.75	1.72
244.133	1.8
244.515	2.27
244.897	2.08
245.279	2.88
245.661	2.36
246.043	1.69
246.425	2.48
246.807	1.87
247.189	1.55
247.571	1.77
247.953	1.67
248.335	2.15
248.717	2.08
249.098	1.68
249.48	2.02
249.862	1.68
250.243	1.79
250.625	2.1
251.006	2.9
251.388	1.46
251.769	3.27
252.151	2.57
252.532	1.65
252.913	1.97
253.295	2.17
253.676	2.45
254.057	2.03
254.438	1.71
254.819	1.68
255.2	3.45
255.581	1.67
255.962	1.55
256.343	1.07
256.724	2.59
257.105	3.49
257.486	1.94
257.867	1.7
258.247	2.89
258.628	1.98
259.009	2.02
259.389	2.55
259.77	1.88
260.15	1.91
260.531	1.21
260.911	1.54
261.292	1.9
261.672	1.58
262.052	2.01
262.432	2.29
262.813	1.69
263.193	2.1
263.573	1.99
263.953	1.58
264.333	2.01
264.713	2.06
265.093	2.07
265.473	1.39
265.853	1.95
266.233	2.24
266.612	1.7
266.992	0.98
267.372	1.51
267.752	2
268.131	1.85
268.511	2.29
268.89	1.27
269.27	1.67
269.649	2.35
270.029	2.46
270.408	1.77
270.787	1.73
271.167	1.92
271.546	1.7
271.925	1.8
272.304	1.8
272.683	1.58
273.062	1.79
273.441	1.88
273.82	1.99
274.199	1.64
274.578	1.27
274.957	1.62
275.336	1.78
275.715	1.6
276.093	2.45
276.472	1.82
276.851	1.78
277.229	2.32
277.608	2.17
277.986	1.58
278.365	1.9
278.743	2.26
279.122	1.9
279.5	1.25
279.878	1.67
280.257	1.22
280.635	2.39
281.013	1.66
281.391	1.49
281.769	1.67
282.147	1.69
282.525	2.13
282.903	1.77
283.281	1.79
283.659	1.74
284.037	2.23
284.415	2.21
284.792	1.7
285.17	1.09
285.548	1.64
285.925	1.6
286.303	1.75
286.68	2
287.058	1.89
287.435	1.84
287.813	1.44
288.19	1.35
288.567	1.78
288.945	1.85
289.322	1.55
289.699	1.87
290.076	1.77
290.453	1.53
290.83	1.86
291.207	1.41
291.584	1.42
291.961	1.56
292.338	2.21
292.715	1.43
293.092	1.51
293.469	1.98
293.845	1.51
294.222	1.17
294.599	1.86
294.975	1.77
295.352	1.45
295.728	1.55
296.105	1.89
296.481	1.75
296.858	1.69
297.234	1.12
297.61	1.55
297.986	1.58
298.363	1.81
298.739	1.92
299.115	1.75
299.491	2.14
299.867	1.68
300.243	2
300.619	1.83
300.995	1.74
301.371	1.87
301.746	1.53
302.122	2.44
302.498	2.32
302.874	1.27
303.249	1.73
303.625	1.65
304	1.74
304.376	1.86
304.751	1.91
305.127	1.85
305.502	1.84
305.878	1.71
306.253	1.29
306.628	1.79
307.003	2.03
307.378	1.77
307.754	2.12
308.129	1.67
308.504	2.47
308.879	2.08
309.254	1.54
309.629	1.97
310.003	1.92
310.378	1.73
310.753	1.4
311.128	2
311.502	2.38
311.877	1.75
312.252	1.98
312.626	1.8
313.001	2.11
313.375	1.89
313.75	2.16
314.124	2.07
314.498	1.85
314.873	2.29
315.247	1.85
315.621	1.55
315.995	1.79
316.369	1.69
316.743	2.29
317.117	2.1
317.491	2.05
317.865	1.91
318.239	1.43
318.613	1.74
318.987	2
319.361	2.09
319.734	1.77
320.108	1.28
320.482	2.04
320.855	2.16
321.229	2.69
321.602	2.1
321.976	1.87
322.349	2.4
322.723	2.22
323.096	2.42
323.469	2.24
323.843	2.11
324.216	1.89
324.589	1.87
324.962	2.16
325.335	1.22
325.708	2.36
326.081	1.76
326.454	1.79
326.827	1.57
327.2	1.96
327.573	2.11
327.945	2.11
328.318	1.85
328.691	2.66
329.063	1.82
329.436	1.86
329.809	2.59
330.181	1.92
330.553	2.38
330.926	2.29
331.298	1.16
331.671	2.01
332.043	1.91
332.415	2.12
332.787	1.86
333.159	1.82
333.532	1.89
333.904	2.32
334.276	2.29
334.648	1.68
335.02	1.77
335.391	1.63
335.763	1.65
336.135	2.26
336.507	2.14
336.879	1.99
337.25	2.63
337.622	1.69
337.993	1.54
338.365	2.05
338.736	1.92
339.108	2.29
339.479	1.23
339.851	1.94
340.222	1.75
340.593	2.29
340.964	2.33
341.336	2.15
341.707	1.74
342.078	1.73
342.449	2.05
342.82	2
343.191	2.44
343.562	2.33
343.933	2.27
344.303	1.82
344.674	2.44
345.045	2.63
345.416	2.06
345.786	2.29
346.157	2.16
346.527	1.78
346.898	2.15
347.268	2.05
347.639	1.93
348.009	2.78
348.38	1.59
348.75	2.07
349.12	2.62
349.49	1.98
349.861	2.56
350.231	1.96
350.601	2.53
350.971	2.13
351.341	2.23
351.711	1.96
352.081	2.05
352.45	2.15
352.82	2.17
353.19	2.13
353.56	2.02
353.929	2.05
354.299	1.92
354.669	2.09
355.038	2.44
355.408	1.95
355.777	2.22
356.147	1.95
356.516	2.07
356.885	2.77
357.254	2.11
357.624	2.12
357.993	2.53
358.362	2.14
358.731	1.99
359.1	1.9
359.469	1.7
359.838	1.99
360.207	2.13
360.576	2.13
360.945	1.78
361.314	2.08
361.682	2.26
362.051	2.12
362.42	2.08
362.788	1.79
363.157	2.02
363.525	2.03
363.894	2.15
364.262	2.26
364.631	1.92
364.999	1.99
365.367	2.25
365.735	2.14
366.104	2.19
366.472	2.04
366.84	2.47
367.208	2.1
367.576	2.43
367.944	1.96
368.312	2.05
368.68	2.13
369.048	2.31
369.416	2.14
369.783	1.85
370.151	2.16
370.519	2.08
370.886	2.17
371.254	2.05
371.621	2.23
371.989	3.01
372.356	2.23
372.724	2.12
373.091	2.18
373.458	2.02
373.826	2.63
374.193	2.38
374.56	2.22
374.927	2.29
375.294	2.07
375.661	2
376.028	2.09
376.395	1.95
376.762	2.43
377.129	2.27
377.496	2
377.863	2.02
378.229	2.1
378.596	2.01
378.963	1.9
379.329	2.28
379.696	2.11
380.062	2.26
380.429	2.29
380.795	1.89
381.161	2.34
381.528	2.35
381.894	2.35
382.26	2.08
382.626	2.11
382.993	2.27
383.359	2.3
383.725	2.86
384.091	2.14
384.457	2.06
384.823	2.23
385.188	2.33
385.554	2.34
385.92	2.09
386.286	2.27
386.651	2.11
387.017	2.07
387.383	2.22
387.748	2.22
388.114	2.47
388.479	2.58
388.845	2.17
389.21	2.1
389.575	2.53
389.94	2.23
390.306	2.25
390.671	2.18
391.036	2.39
391.401	2.46
391.766	1.94
392.131	2.06
392.496	2.37
392.861	2.05
393.226	2.15
393.591	2.45
393.956	2.49
394.32	2.52
394.685	2.36
395.05	2.37
395.414	2.3
395.779	2.39
396.143	2.19
396.508	2.47
396.872	2.28
397.236	2.05
397.601	2.39
397.965	2.46
398.329	2.08
398.694	2.31
399.058	2.47
399.422	2.21
399.786	2.39
400.15	2.28
400.514	2.4
400.878	2.32
401.242	2.23
401.605	2.28
401.969	2.27
402.333	2.41
402.697	2.27
403.06	2.29
403.424	2.2
403.787	2.5
404.151	2.53
404.514	2.43
404.878	2.34
405.241	2.43
405.604	2.32
405.968	2.16
406.331	2.47
406.694	2.29
407.057	2.24
407.42	2.35
407.783	2.13
408.146	2.14
408.509	2.45
408.872	2.31
409.235	2.22
409.598	2.25
409.961	2.46
410.323	2.11
410.686	2.44
411.049	2.23
411.411	2.55
411.774	2.43
412.136	2.52
412.499	2.53
412.861	2.54
413.223	2.4
413.586	2.57
413.948	2.47
414.31	2.47
414.672	2.25
415.035	2.69
415.397	2.62
415.759	2.49
416.121	2.59
416.483	2.37
416.845	2.4
417.206	2.1
417.568	2.26
417.93	2.33
418.292	2.44
418.653	2.52
419.015	2.42
419.377	2.41
419.738	2.27
420.1	2.4
420.461	2.34
420.822	2.32
421.184	2.34
421.545	2.35
421.906	2.24
422.267	2.37
422.629	2.27
422.99	2.37
423.351	2.24
423.712	2.29
424.073	2.41
424.434	2.32
424.795	2.41
425.155	2.26
425.516	2.34
425.877	2.28
426.238	2.39
426.598	2.34
426.959	2.46
427.32	2.35
427.68	2.53
428.041	2.34
428.401	2.23
428.761	2.56
429.122	2.47
429.482	2.54
429.842	2.54
430.202	2.53
430.563	2.37
430.923	2.57
431.283	2.45
431.643	2.31
432.003	2.56
432.363	2.12
432.722	2.46
433.082	2.44
433.442	2.27
433.802	2.67
434.161	2.38
434.521	2.3
434.881	2.42
435.24	2.45
435.6	2.41
435.959	2.43
436.319	2.35
436.678	2.48
437.037	2.55
437.396	2.34
437.756	2.64
438.115	2.45
438.474	2.56
438.833	2.38
439.192	2.55
439.551	2.41
439.91	2.53
440.269	2.48
440.628	2.47
440.987	2.38
441.345	2.39
441.704	2.43
442.063	2.41
442.421	2.46
442.78	2.41
443.138	2.46
443.497	2.5
443.855	2.58
444.214	2.56
444.572	2.6
444.93	2.43
445.288	2.57
445.647	2.47
446.005	2.5
446.363	2.42
446.721	2.43
447.079	2.43
447.437	2.52
447.795	2.46
448.153	2.44
448.51	2.51
448.868	2.53
449.226	2.46
449.584	2.46
449.941	2.52
450.299	2.53
450.656	2.48
451.014	2.51
451.371	2.49
451.729	2.59
452.086	2.65
452.443	2.51
452.801	2.66
453.158	2.72
453.515	2.44
453.872	2.49
454.229	2.43
454.586	2.65
454.943	2.51
455.3	2.54
455.657	2.63
456.014	2.4
456.371	2.6
456.727	2.74
457.084	2.56
457.441	2.55
457.797	2.48
458.154	2.62
458.51	2.66
458.867	2.49
459.223	2.55
459.58	2.74
459.936	2.59
460.292	2.57
460.648	2.41
461.005	2.48
461.361	2.5
461.717	2.44
462.073	2.52
462.429	2.67
462.785	2.51
463.141	2.72
463.496	2.63
463.852	2.47
464.208	2.65
464.564	2.57
464.919	2.6
465.275	2.52
465.631	2.58
465.986	2.72
466.342	2.52
466.697	2.62
467.052	2.72
467.408	2.71
467.763	2.55
468.118	2.69
468.473	2.66
468.829	2.59
469.184	2.71
469.539	2.64
469.894	2.68
470.249	2.55
470.603	2.73
470.958	2.67
471.313	2.66
471.668	2.76
472.023	2.62
472.377	2.66
472.732	2.68
473.086	2.55
473.441	2.61
473.795	2.56
474.15	2.71
474.504	2.56
474.859	2.58
475.213	2.74
475.567	2.57
475.921	2.56
476.275	2.88
476.63	2.55
476.984	2.67
477.338	2.72
477.692	2.71
478.045	2.66
478.399	2.71
478.753	2.74
479.107	2.74
479.461	2.58
479.814	2.73
480.168	2.68
480.521	2.7
480.875	2.89
481.228	2.87
481.582	2.7
481.935	2.71
482.289	2.78
482.642	2.79
482.995	2.68
483.348	2.7
483.701	2.58
484.055	2.58
484.408	2.55
484.761	2.49
485.114	2.46
485.466	2.49
485.819	2.57
486.172	2.6
486.525	2.68
486.878	2.75
487.23	2.77
487.583	2.72
487.936	2.65
488.288	2.68
488.641	2.58
488.993	2.58
489.345	2.57
489.698	2.61
490.05	2.68
490.402	2.65
490.754	2.77
491.107	2.79
491.459	2.69
491.811	2.77
492.163	2.68
492.515	2.59
492.866	2.59
493.218	2.61
493.57	2.63
493.922	2.74
494.274	2.76
494.625	2.77
494.977	2.79
495.328	2.87
495.68	2.81
496.031	2.81
496.383	2.83
496.734	2.84
497.086	2.78
497.437	2.88
497.788	2.82
498.139	2.75
498.49	2.68
498.842	2.82
499.193	2.9
499.544	2.81
499.894	2.94
500.245	2.86
500.596	2.92
500.947	2.76
501.298	2.76
501.648	2.78
501.999	2.8
502.35	2.94
502.7	2.98
503.051	2.96
503.401	2.85
503.752	2.74
504.102	2.89
504.452	2.9
504.803	2.89
505.153	2.85
505.503	2.92
505.853	2.97
506.203	2.99
506.553	2.94
506.903	3.1
507.253	3
507.603	2.94
507.953	2.97
508.303	2.96
508.652	2.89
509.002	2.95
509.352	2.87
509.701	3.06
510.051	2.94
510.4	2.93
510.75	2.97
511.099	3
511.449	2.91
511.798	2.93
512.147	2.98
512.496	2.97
512.846	3.02
513.195	3.08
513.544	2.9
513.893	3.04
514.242	3.02
514.591	3
514.939	2.91
515.288	3.01
515.637	3.05
515.986	3.13
516.334	3.08
516.683	2.99
517.032	3.02
517.38	2.92
517.729	3.01
518.077	3.09
518.426	3.05
518.774	3.09
519.122	3.07
519.47	3.02
519.819	2.98
520.167	2.99
520.515	2.99
520.863	3.02
521.211	2.97
521.559	3.1
521.907	3.13
522.255	3.3
522.602	3.2
522.95	3.08
523.298	3.24
523.645	3.12
523.993	3.17
524.341	3.11
524.688	3.21
525.036	3.08
525.383	3.16
525.73	3.15
526.078	3.14
526.425	3.2
526.772	3.13
527.119	2.98
527.466	3.11
527.814	3.11
528.161	3.25
528.508	3.16
528.854	3.14
529.201	3.13
529.548	3.06
529.895	2.98
530.242	2.98
530.588	3.04
530.935	3.11
531.282	3.16
531.628	3.16
531.975	3.17
532.321	3.2
532.667	3.16
533.014	3.31
533.36	3.26
533.706	3.19
534.052	3.16
534.399	3.13
534.745	3.15
535.091	3.18
535.437	3.27
535.783	3.28
536.129	3.25
536.474	3.24
536.82	3.41
537.166	3.32
537.512	3.28
537.857	3.32
538.203	3.32
538.549	3.34
538.894	3.39
539.239	3.38
539.585	3.6
539.93	3.46
540.276	3.4
540.621	3.46
540.966	3.34
541.311	3.54
541.656	3.45
542.001	3.34
542.346	3.32
542.691	3.22
543.036	3.3
543.381	3.4
543.726	3.4
544.071	3.42
544.415	3.42
544.76	3.48
545.105	3.42
545.449	3.47
545.794	3.62
546.138	3.61
546.483	3.49
546.827	3.65
547.171	3.54
547.516	3.61
547.86	3.47
548.204	3.61
548.548	3.64
548.892	3.62
549.236	3.58
549.58	3.79
549.924	3.73
550.268	3.74
550.612	3.7
550.956	3.59
551.3	3.77
551.643	3.77
551.987	3.71
552.33	3.85
552.674	3.85
553.017	3.62
553.361	3.75
553.704	3.92
554.048	3.92
554.391	3.78
554.734	3.75
555.077	3.78
555.42	3.95
555.764	3.95
556.107	3.99
556.45	3.97
556.793	3.86
557.135	4.11
557.478	3.97
557.821	4
558.164	4.02
558.507	4.17
558.849	3.86
559.192	4.06
559.534	4.13
559.877	4.02
560.219	4.07
560.562	4.22
560.904	4.06
561.246	4
561.589	4.16
561.931	4.18
562.273	4.03
562.615	4.07
562.957	4.12
563.299	4.24
563.641	4.29
563.983	4.22
564.325	4.06
564.667	4.21
565.008	4.14
565.35	4.3
565.692	4.34
566.033	4.23
566.375	4.23
566.716	4.16
567.058	4.25
567.399	4.25
567.741	4.12
568.082	4.2
568.423	4.19
568.764	4.29
569.105	4.35
569.447	4.45
569.788	4.47
570.129	4.39
570.47	4.42
570.811	4.29
571.151	4.55
571.492	4.26
571.833	4.39
572.174	4.35
572.514	4.66
572.855	4.39
573.195	4.56
573.536	4.34
573.876	4.41
574.217	4.47
574.557	4.53
574.898	4.62
575.238	4.5
575.578	4.51
575.918	4.56
576.258	4.71
576.598	4.49
576.938	4.8
577.278	4.56
577.618	4.73
577.958	4.7
578.298	4.57
578.638	4.69
578.977	4.73
579.317	4.88
579.657	4.7
579.996	4.98
580.336	4.64
580.675	4.85
581.014	4.94
581.354	4.89
581.693	5.05
582.032	4.72
582.372	4.79
582.711	4.69
583.05	4.94
583.389	5.01
583.728	4.92
584.067	5
584.406	5.17
584.745	5.08
585.083	5.03
585.422	5.05
585.761	5.22
586.1	5.01
586.438	5.25
586.777	5.07
587.115	5.2
587.454	5.14
587.792	5.21
588.13	5.24
588.469	5.26
588.807	5.23
589.145	5.14
589.483	5.29
589.821	5.02
590.159	5.22
590.497	5.33
590.835	5.35
591.173	5.24
591.511	5.16
591.849	5.31
592.187	5.46
592.524	5.57
592.862	5.41
593.2	5.44
593.537	5.23
593.875	5.51
594.212	5.36
594.55	5.32
594.887	5.49
595.224	5.63
595.561	5.49
595.899	5.44
596.236	5.65
596.573	5.57
596.91	5.72
597.247	5.87
597.584	5.67
597.921	5.72
598.258	5.68
598.594	5.68
598.931	5.76
599.268	5.66
599.604	5.71
599.941	5.84
600.277	5.63
600.614	5.92
600.95	5.98
601.287	6.12
601.623	6.07
601.959	5.91
602.296	5.75
602.632	5.89
602.968	5.68
603.304	6.07
603.64	5.9
603.976	6.05
604.312	6.09
604.648	6.01
604.984	5.87
605.319	6.15
605.655	6.02
605.991	6.19
606.326	6.15
606.662	5.91
606.998	6.23
607.333	6.15
607.668	6.3
608.004	6.42
608.339	6.3
608.674	6.28
609.01	6.13
609.345	6.39
609.68	6.33
610.015	6.29
610.35	6.33
610.685	6.35
611.02	6.47
611.355	6.49
611.689	6.3
612.024	6.3
612.359	6.33
612.694	6.43
613.028	6.81
613.363	6.79
613.697	6.72
614.032	6.6
614.366	6.57
614.7	6.35
615.035	6.73
615.369	6.23
615.703	6.87
616.037	6.79
616.371	6.91
616.705	6.66
617.039	6.86
617.373	6.75
617.707	6.74
618.041	6.71
618.375	6.57
618.709	7.07
619.042	7.25
619.376	6.87
619.71	7.12
620.043	6.78
620.377	7.09
620.71	6.92
621.043	6.71
621.377	7.13
621.71	7
622.043	7.04
622.376	7.19
622.709	7.31
623.043	6.8
623.376	7
623.709	7.37
624.041	7.24
624.374	7.52
624.707	7.2
625.04	7.27
625.373	7.29
625.705	6.95
626.038	7.24
626.37	7.53
626.703	7.42
627.035	7.13
627.368	7.28
627.7	7.73
628.032	7.47
628.365	7.55
628.697	7.31
629.029	7.59
629.361	7.43
629.693	7.4
630.025	7.8
630.357	7.31
630.689	7.76
631.021	7.2
631.353	7.64
631.684	7.9
632.016	7.73
632.348	7.71
632.679	8.12
633.011	7.71
633.342	7.39
633.674	8.22
634.005	7.72
634.336	7.77
634.668	7.57
634.999	7.94
635.33	7.82
635.661	7.89
635.992	8.25
636.323	8.35
636.654	7.75
636.985	8.31
637.316	7.59
637.647	8.06
637.977	8.3
638.308	8.05
638.639	8.16
638.969	7.99
639.3	7.89
639.63	8.29
639.961	8.07
640.291	8.04
640.622	8.21
640.952	8.51
641.282	8.58
641.612	8.23
641.943	8.68
642.273	8.26
642.603	8.42
642.933	8.4
643.263	8.65
643.592	8.31
643.922	8.43
644.252	8.19
644.582	8.29
644.911	8.77
645.241	8.85
645.571	8.99
645.9	8.17
646.23	8.39
646.559	8.55
646.888	9.02
647.218	9.11
647.547	8.89
647.876	8.78
648.205	8.68
648.534	8.25
648.863	8.75
649.192	9
649.521	9
649.85	9.25
650.179	8.9
650.508	9.41
650.837	9.23
651.165	9.14
651.494	9.39
651.822	9.51
652.151	9.09
652.479	9.14
652.808	9.15
653.136	8.84
653.465	9.64
653.793	9.14
654.121	9.1
654.449	9.25
654.777	9.79
655.105	9.64
655.433	9.56
655.761	9.5
656.089	9.47
656.417	9.43
656.745	9.46
657.073	9.49
657.4	9.17
657.728	9.15
658.056	9.43
658.383	9.58
658.711	9.68
659.038	9.54
659.365	9.85
659.693	9.71
660.02	9.51
660.347	9.82
660.674	9.36
661.001	9.58
661.329	9.67
661.656	10.05
661.982	9.78
662.309	9.98
662.636	9.87
662.963	10.23
663.29	9.91
663.616	10.01
663.943	10.27
664.27	10.23
664.596	10.22
664.923	9.72
665.249	9.27
665.576	10.26
665.902	9.9
666.228	9.75
666.554	10.27
666.881	10.3
667.207	10.28
667.533	10.63
667.859	9.92
668.185	10.39
668.511	9.94
668.837	9.89
669.162	9.8
669.488	10.24
669.814	10.75
670.139	10.21
670.465	10.41
670.791	10.28
671.116	10.76
671.442	9.47
671.767	11.27
672.092	10.75
672.418	10.87
672.743	10.47
673.068	10.89
673.393	10.97
673.718	10.52
674.043	10.51
674.368	11.06
674.693	11.13
675.018	10.38
675.343	10.86
675.667	11.22
675.992	10.99
676.317	11.33
676.641	11.37
676.966	10.51
677.29	11.07
677.615	10.55
677.939	11.12
678.264	10.52
678.588	10.59
678.912	11.28
679.236	10.78
679.56	10.61
679.885	11.35
680.209	11.1
680.532	11.13
680.856	11.08
681.18	10.84
681.504	11.3
681.828	11.09
682.152	11.1
682.475	11.11
682.799	10.37
683.122	11.15
683.446	11.25
683.769	11.8
684.093	11.25
684.416	11.6
684.739	11.64
685.062	11.09
685.386	11.25
685.709	11.18
686.032	10.6
686.355	11.19
686.678	11.18
687.001	12.03
687.324	12
687.646	11.58
687.969	11.98
688.292	11.8
688.614	11.28
688.937	12.26
689.26	11.91
689.582	11.84
689.904	11.77
690.227	12.31
690.549	12.21
690.871	12.12
691.194	12.26
691.516	11.78
691.838	12.12
692.16	11.94
692.482	12.05
692.804	11.71
693.126	12.04
693.448	12.25
693.769	12.3
694.091	12.41
694.413	11.95
694.735	11.49
695.056	12.13
695.378	13.08
695.699	12.07
696.021	12.61
696.342	12.1
696.663	11.56
696.984	11.68
697.306	12.64
697.627	12.86
697.948	12.77
698.269	13.24
698.59	11.7
698.911	12.49
699.232	12.65
699.553	12.94
699.873	12.26
700.194	12.8
700.515	12.42
700.835	12.51
701.156	12.55
701.477	13.18
701.797	12.21
702.117	12.22
702.438	13.16
702.758	12.9
703.078	12.04
703.398	13.8
703.719	13.4
704.039	13.57
704.359	12.51
704.679	13.05
704.999	13.01
705.319	13.42
705.638	13.44
705.958	12.1
706.278	13.13
706.597	13.72
706.917	13.19
707.237	12.89
707.556	12.67
707.876	13.91
708.195	13.34
708.514	13.35
708.834	13.3
709.153	13.35
709.472	13.56
709.791	12.62
710.11	14.41
710.429	13.41
710.748	14.62
711.067	12.43
711.386	13.24
711.705	13.81
712.023	13.28
712.342	13.82
712.661	13.72
712.979	14.02
713.298	14.36
713.616	13.16
713.935	14.32
714.253	14.08
714.572	12.97
714.89	13.49
715.208	14.49
715.526	13.85
715.844	14.26
716.162	13.63
716.48	13.52
716.798	13.63
717.116	14.32
717.434	14.29
717.752	14.79
718.069	14.05
718.387	14.02
718.705	13.92
719.022	13.94
719.34	14.3
719.657	14.29
719.975	14.01
720.292	14.93
720.609	13.86
720.927	14.69
721.244	14.54
721.561	15.15
721.878	14.7
722.195	14.98
722.512	14.99
722.829	15.31
723.146	14.18
723.463	14.46
723.779	14.09
724.096	14.14
724.413	14.46
724.729	14.11
725.046	15.15
725.362	13.24
725.679	15.42
725.995	14.52
726.311	16.25
726.628	13.47
726.944	14.78
727.26	14.89
727.576	14.55
727.892	14.43
728.208	15.16
728.524	14.83
728.84	15.2
729.156	15.24
729.472	13.95
729.787	15.57
730.103	15.36
730.419	14.71
730.734	15.44
731.05	15.01
731.365	14.85
731.681	15.66
731.996	15.05
732.311	14.95
732.626	15.12
732.942	15.9
733.257	15.57
733.572	14.98
733.887	16.53
734.202	15.59
734.517	15.35
734.832	16.28
735.146	15.5
735.461	16.55
735.776	16.24
736.091	16.36
736.405	16.27
736.72	15.52
737.034	16.76
737.349	16.08
737.663	15.94
737.977	16.35
738.292	14.81
738.606	15.19
738.92	15.22
739.234	15.7
739.548	15.6
739.862	14.72
740.176	15.71
740.49	16.15
740.804	15.33
741.117	16.59
741.431	15.02
741.745	15.52
742.058	16.18
742.372	15.6
742.685	15.98
742.999	16.86
743.312	17.54
743.626	15.47
743.939	15.64
744.252	16.26
744.565	15.76
744.878	17.76
745.191	15
745.505	15.08
745.817	16.65
746.13	17.96
746.443	17.32
746.756	17.66
747.069	15.28
747.381	17.31
747.694	18.54
748.007	16.96
748.319	17.04
748.632	15.48
748.944	16.8
749.256	16.53
749.569	18.33
749.881	18.63
750.193	16.86
750.505	17.54
750.817	15.23
751.129	16.77
751.441	16.34
751.753	17.49
752.065	17.29
752.377	20.22
752.689	17.93
753	17.96
753.312	16.71
753.624	17.45
753.935	16
754.247	18.01
754.558	18.47
754.869	14.6
755.181	18.36
755.492	18.57
755.803	17.87
756.114	18.05
756.425	17.37
756.736	18.82
757.047	17.17
757.358	17.1
757.669	16.78
757.98	19.89
758.291	17.91
758.601	19.59
758.912	19.71
759.223	18.69
759.533	18.09
759.844	15.44
760.154	18.88
760.464	17.63
760.775	18.21
761.085	17.24
761.395	17.82
761.705	18.39
762.016	17.84
762.326	17.82
762.636	19.85
762.945	18.16
763.255	18.53
763.565	17.91
763.875	18.62
764.185	19.2
764.494	17.04
764.804	18.29
765.113	16.83
765.423	16.79
765.732	17.7
766.042	19.24
766.351	20.56
766.66	17.68
766.97	19.52
767.279	19.11
767.588	18.52
767.897	18.96
768.206	17.31
768.515	17.46
768.824	18.92
769.133	19.97
769.441	19.7
769.75	20.43
770.059	18.71
770.367	19.56
770.676	17.7
770.984	18.1
771.293	19.14
771.601	18.43
771.91	20.57
772.218	18.08
772.526	21.05
772.834	20.55
773.142	19.37
773.45	18.04
773.758	20.28
774.066	16.62
774.374	20.39
774.682	19.91
774.99	17.69
775.298	17.71
775.605	20.17
775.913	17.2
776.22	20.65
776.528	19.17
776.835	21.54
777.143	18
777.45	19.07
777.757	16.13
778.065	19.42
778.372	16.05
778.679	18.47
778.986	21
779.293	18.65
779.6	17.79
779.907	19.02
780.214	21.95
780.52	20.27
780.827	20.46
781.134	19.94
781.44	18.41
781.747	18.21
782.053	24.58
782.36	17.81
782.666	20.36
782.973	20.91
783.279	21.31
783.585	19.16
783.891	21.84
784.197	20.98
784.503	20.1
784.809	17.1
785.115	19.41
785.421	19.93
785.727	21.23
786.033	17.15
786.339	17.99
786.644	18.01
786.95	22.06
787.255	20.76
787.561	18.19
787.866	25.48
788.172	19.89
788.477	21.71
788.782	21.04
789.088	22.53
789.393	17.55
789.698	22.22
790.003	20.85
790.308	21.85
790.613	21.84
790.918	18.35
791.223	21.41
791.527	20.31
791.832	23.06
792.137	19.48
792.441	21.11
792.746	22.8
793.05	20.6
793.355	20.24
793.659	20.45
793.963	23.21
794.268	20.85
794.572	23
794.876	27.01
795.18	24.14
795.484	20.72
795.788	17.68
796.092	20.56
796.396	23.22
796.7	20.98
797.004	23.87
797.307	20.3
797.611	17.98
797.915	27.32
798.218	20.8
798.522	23.12
798.825	24.23
799.128	25.35
799.432	20.45
799.735	18.62
800.038	21.78
800.341	21.3
800.644	17.6
800.947	22.92
801.25	22.68
801.553	19.85
801.856	21.9
802.159	19.46
802.462	20.39
802.764	23.12
803.067	18.71
803.37	21.31
803.672	21.52
803.975	22.26
804.277	23.11
804.579	17.37
804.882	19.54
805.184	19.38
805.486	22.49
805.788	21.3
806.09	17.39
806.392	24.35
806.694	21.09
806.996	24.26
807.298	21.02
807.6	25.71
807.902	24.33
808.203	21.1
808.505	20.88
808.807	21.86
809.108	25.62
809.409	21.82
809.711	24.07
810.012	21.19
810.313	19.6
810.615	18.72
810.916	25.21
811.217	22.18
811.518	25.08
811.819	26.69
812.12	22.26
812.421	27.2
812.722	27.72
813.023	27.4
813.323	23.24
813.624	25.4
813.925	16.2
814.225	23.08
814.526	19.56
814.826	22.73
815.126	27.9
815.427	23.57
815.727	23.51
816.027	24.29
816.327	25.97
816.627	31.22
816.927	26.76
817.227	21.53
817.527	27.47
817.827	27.07
818.127	25.25
818.427	29.61
818.727	28.7
819.026	28.46
819.326	24.1
819.625	26.43
819.925	22.42
820.224	22.41
820.524	26.2
820.823	22.73
821.122	27.46
821.421	25.53
821.72	22.2
822.019	28.13
822.318	20.75
822.617	27.05
822.916	21.77
823.215	24.8
823.514	23.98
823.813	23.49
824.111	24.87
824.41	22.18
824.709	23.53
825.007	24.67
825.306	24.5
825.604	23.62
825.902	24.32
826.201	24.29
826.499	25.24
826.797	25.9
827.095	23.85
827.393	25.56
827.691	26.43
827.989	24.52
828.287	28.82
828.585	24.36
828.882	27.2
829.18	25.1
829.478	25.14
829.775	25.3
830.073	26.79
830.37	24.89
830.668	25.8
830.965	27.02
831.263	25.24
831.56	24.27
831.857	23.87
832.154	25.56
832.451	29.91
832.748	24.51
833.045	21.99
833.342	29.3
833.639	27.28
833.936	34.2
834.232	28.99
834.529	25.02
834.826	20.79
835.122	24.5
835.419	29.1
835.715	21.64
836.012	25.99
836.308	25.34
836.604	26.03
836.901	27.12
837.197	24.37
837.493	26.23
837.789	28.52
838.085	24.39
838.381	28.64
838.677	23.46
838.972	27.69
839.268	31.77
839.564	30.8
839.86	23.59
840.155	23.33
840.451	12.52
840.746	23.24
841.042	25.54
841.337	21.66
841.632	28.76
841.928	23.96
842.223	31.58
842.518	20.68
842.813	32.52
843.108	27.26
843.403	28.3
843.698	20.22
843.993	19.4
844.287	27.57
844.582	24.58
844.877	36.21
845.171	26.82
845.466	18.86
845.761	20.79
846.055	29.37
846.349	23.62
846.644	22.94
846.938	21.41
847.232	20.78
847.526	33.02
847.82	32.13
848.114	13.12
848.408	40.48
848.702	28.95
848.996	23.04
849.29	32.23
849.584	20.16
849.877	32.89
850.171	23.59
850.465	25.8
850.758	14.46
851.052	15.86
851.345	16.46
851.638	31.04
851.932	28.57
852.225	29.54
852.518	26.37
852.811	16.86
853.104	37.05
853.397	31.7
853.69	36.56
853.983	36.88
854.276	33.28
854.569	30.35
854.861	5.59
855.154	21.92
855.447	28.57
855.739	27.11
856.032	14.38
856.324	13.47
856.616	29.17
856.909	30.44
857.201	9.52
857.493	18.87
857.785	31.94
858.077	44.27
858.369	13.01
858.661	19.27
858.953	52.57
859.245	35.92
859.537	25.62
859.829	-0.51
860.12	21.11
860.412	32.32
860.703	-14.44
860.995	17.98
861.286	31.36
861.578	9.96
861.869	40.71
862.16	44.3
862.452	27.64
862.743	26.59
863.034	22.46
863.325	32.91
863.616	5.25
863.907	37.26
864.198	21.45
864.488	1.33
864.779	12.7
865.07	33.2
865.36	10.96
865.651	37.56
865.941	15.24
866.232	44.78
866.522	28.45
866.813	36.48
867.103	38.31
867.393	22.95
867.683	24.62
867.973	31.58
868.263	14.84
868.553	36.2
868.843	31.94
869.133	25.99
869.423	35.34
869.713	-15.45
870.002	46.25
870.292	10.32
870.582	30.13
870.871	40.63
871.161	26.43
871.45	15.2
871.739	19.48
872.029	37.55
872.318	29.76
872.607	15.05
872.896	13.42
873.185	20.96
873.474	16.1
873.763	48.6
874.052	35.07
874.341	26.61
874.63	25.2
874.918	42.14
875.207	42.97
875.496	14.88
875.784	31.66
876.073	11.79
876.361	48.13
876.649	17
876.938	18.55
877.226	44.64
877.514	44.28
877.802	56.13
878.09	57.61
878.378	11.64
878.666	29.13
878.954	34.04
879.242	39.74
879.53	15.06
879.817	30.33
880.105	23.47
880.392	38.67
880.68	46.81
880.967	10.52
881.255	25.13
881.542	20.32
881.83	44.44
882.117	28.41
882.404	22.99
882.691	28.97
882.978	18.04
883.265	19.98
883.552	34.57
883.839	30.7
884.126	22.54
884.413	24.36
884.699	32.5
884.986	32.58
885.273	33.89
885.559	33.89
885.846	33.89
