Data from 0024_forehead_Reflection__0__71.txt Node

Date: Thu Oct 20 20:53:16 CDT 2022
User: ToomeyLab
Spectrometer: FLMS14357
Trigger mode: 0
Integration Time (sec): 1.000000E-2
Scans to average: 100
Electric dark correction enabled: true
Nonlinearity correction enabled: false
Boxcar width: 0
XAxis mode: Wavelengths
Number of Pixels in Spectrum: 2048
>>>>>Begin Spectral Data<<<<<
189.047	36.72
189.435	36.72
189.823	36.72
190.211	125.68
190.599	-34.81
190.987	58.16
191.375	34.75
191.763	-75.93
192.151	126.44
192.538	283.87
192.926	-33.69
193.314	-179.47
193.702	128.75
194.089	415.93
194.477	-104.78
194.864	75.24
195.252	97.69
195.639	135.79
196.027	780.04
196.414	13.03
196.801	264.1
197.189	6.19
197.576	16.55
197.963	-91.69
198.351	-47.13
198.738	28.74
199.125	37.18
199.512	2.15
199.899	-29.39
200.286	25.55
200.673	20.03
201.06	-0.86
201.447	26.66
201.833	43.46
202.22	-35.08
202.607	-4.6
202.994	9.93
203.38	-21.29
203.767	22.33
204.154	30.88
204.54	3.13
204.927	-11.99
205.313	20.68
205.699	36.84
206.086	-1.75
206.472	48.03
206.858	-0.66
207.245	8.13
207.631	-31.34
208.017	19.75
208.403	20.05
208.789	-81.59
209.175	12.06
209.561	22.06
209.947	34.61
210.333	30.9
210.719	17.26
211.105	-19.74
211.491	-14.86
211.876	-3.42
212.262	4.88
212.648	-39.73
213.034	-4.28
213.419	10.86
213.805	-6.76
214.19	-96.25
214.576	13.66
214.961	22.81
215.346	-26.69
215.732	-19.83
216.117	9.53
216.502	-35.58
216.888	-1.02
217.273	29.55
217.658	-8.62
218.043	8.1
218.428	-3.54
218.813	-4.43
219.198	-3.47
219.583	-6.83
219.968	9.88
220.353	-2.62
220.738	10.4
221.122	18.19
221.507	4.55
221.892	-1.77
222.276	0.32
222.661	4.42
223.046	9.04
223.43	6.81
223.815	0.05
224.199	9.85
224.583	-5.11
224.968	8.62
225.352	16.92
225.736	13.71
226.121	13.26
226.505	2.47
226.889	4.15
227.273	11.01
227.657	5.09
228.041	-1.84
228.425	1.88
228.809	-1.23
229.193	1.59
229.577	2.26
229.961	2.34
230.344	2.6
230.728	2.43
231.112	3.23
231.495	1.71
231.879	1.86
232.263	3.55
232.646	3.52
233.03	1.56
233.413	1.63
233.797	1.29
234.18	3.61
234.563	4.12
234.946	1.79
235.33	0.46
235.713	0.94
236.096	2.29
236.479	2.21
236.862	0.24
237.245	1.86
237.628	3.71
238.011	3.44
238.394	4.38
238.777	1.5
239.16	0.96
239.543	2.24
239.925	4.92
240.308	3.25
240.691	2.19
241.073	2.84
241.456	2.87
241.838	3.6
242.221	2.24
242.603	2.11
242.986	2.24
243.368	3.08
243.75	2.49
244.133	2.92
244.515	2.73
244.897	3.43
245.279	3.52
245.661	3.24
246.043	3.14
246.425	3.37
246.807	2.9
247.189	3.34
247.571	3.35
247.953	2.82
248.335	3.22
248.717	3.07
249.098	3.29
249.48	3.07
249.862	3.01
250.243	3.4
250.625	3.04
251.006	3.52
251.388	2.49
251.769	4.13
252.151	3.57
252.532	3.53
252.913	3.29
253.295	3.06
253.676	3.57
254.057	3.03
254.438	3.33
254.819	2.78
255.2	4.35
255.581	3.82
255.962	4.11
256.343	3.01
256.724	3.37
257.105	3.08
257.486	4.36
257.867	3.48
258.247	3.28
258.628	3.57
259.009	2.92
259.389	3.92
259.77	2.9
260.15	2.98
260.531	2.92
260.911	3.15
261.292	3.08
261.672	2.78
262.052	3.1
262.432	3
262.813	3.02
263.193	3.74
263.573	3.46
263.953	2.91
264.333	3.09
264.713	3.53
265.093	3.24
265.473	2.45
265.853	3.46
266.233	3.18
266.612	3.08
266.992	2.65
267.372	2.67
267.752	3.08
268.131	2.6
268.511	2.85
268.89	2.57
269.27	2.72
269.649	3.21
270.029	2.96
270.408	2.99
270.787	2.7
271.167	2.89
271.546	2.56
271.925	2.56
272.304	3.02
272.683	2.89
273.062	2.74
273.441	3.08
273.82	3.09
274.199	2.96
274.578	2.92
274.957	2.71
275.336	2.97
275.715	3.21
276.093	2.91
276.472	2.94
276.851	2.66
277.229	2.93
277.608	2.41
277.986	2.73
278.365	2.73
278.743	2.97
279.122	2.73
279.5	2.8
279.878	3.22
280.257	2.16
280.635	3.43
281.013	2.6
281.391	2.56
281.769	2.48
282.147	3.05
282.525	3.05
282.903	3.16
283.281	2.66
283.659	3.03
284.037	3.32
284.415	3.3
284.792	2.82
285.17	3.03
285.548	2.86
285.925	2.59
286.303	3.17
286.68	3.03
287.058	2.77
287.435	2.92
287.813	2.75
288.19	2.86
288.567	2.98
288.945	3.47
289.322	3.24
289.699	3.03
290.076	3.42
290.453	3.16
290.83	3.46
291.207	2.85
291.584	3.23
291.961	3.28
292.338	3.51
292.715	3.32
293.092	3.65
293.469	3.73
293.845	3.25
294.222	3.76
294.599	4.13
294.975	3.94
295.352	3.43
295.728	3.4
296.105	3.67
296.481	3.7
296.858	4.69
297.234	3.86
297.61	3.78
297.986	4.05
298.363	4.22
298.739	4.56
299.115	4.07
299.491	4.18
299.867	3.85
300.243	4.67
300.619	4.28
300.995	4.14
301.371	4.34
301.746	4.41
302.122	4.85
302.498	4.74
302.874	4.2
303.249	4.63
303.625	4.41
304	4.26
304.376	4.84
304.751	4.59
305.127	4.91
305.502	4.67
305.878	4.61
306.253	4.36
306.628	4.65
307.003	4.33
307.378	4.46
307.754	4.82
308.129	5.33
308.504	5.34
308.879	5.69
309.254	4.99
309.629	5.36
310.003	5.18
310.378	5.31
310.753	4.93
311.128	5.26
311.502	5.53
311.877	4.98
312.252	4.94
312.626	4.95
313.001	5.42
313.375	5.14
313.75	5.45
314.124	5.28
314.498	5.46
314.873	5.42
315.247	5.31
315.621	5.47
315.995	5.51
316.369	5.37
316.743	5.84
317.117	6.17
317.491	5.81
317.865	6.11
318.239	5.18
318.613	5.17
318.987	5.07
319.361	5.89
319.734	6.18
320.108	5.36
320.482	5.6
320.855	5.81
321.229	5.58
321.602	5.72
321.976	6.26
322.349	6.29
322.723	7.02
323.096	6.39
323.469	6.46
323.843	6.03
324.216	5.97
324.589	6.41
324.962	6.41
325.335	5.84
325.708	6.29
326.081	6.22
326.454	6.08
326.827	5.77
327.2	6.07
327.573	6.5
327.945	6.13
328.318	6.01
328.691	6.79
329.063	5.94
329.436	6.13
329.809	7.05
330.181	6.39
330.553	5.83
330.926	6.67
331.298	5.91
331.671	5.84
332.043	6.78
332.415	7.07
332.787	6.4
333.159	5.96
333.532	6.59
333.904	6.89
334.276	6.74
334.648	6.89
335.02	6.38
335.391	6.55
335.763	6.76
336.135	6.81
336.507	6.47
336.879	6.34
337.25	6.9
337.622	6.45
337.993	6.6
338.365	6.83
338.736	6.68
339.108	7.15
339.479	5.98
339.851	6.66
340.222	6.75
340.593	7.14
340.964	7.01
341.336	7.09
341.707	7.23
342.078	7.18
342.449	7.01
342.82	7.42
343.191	7.14
343.562	7.08
343.933	7.15
344.303	6.62
344.674	7.05
345.045	7.41
345.416	7.08
345.786	7.45
346.157	6.7
346.527	6.92
346.898	7.07
347.268	7.32
347.639	6.86
348.009	7.68
348.38	6.69
348.75	7.39
349.12	7.55
349.49	7.12
349.861	7.24
350.231	7.26
350.601	7.55
350.971	7.24
351.341	7.31
351.711	7.46
352.081	7.4
352.45	7.65
352.82	7.31
353.19	7.52
353.56	7.32
353.929	7.55
354.299	7.63
354.669	7.28
355.038	7.62
355.408	7.39
355.777	7.31
356.147	7.45
356.516	7.37
356.885	7.54
357.254	7.75
357.624	7.27
357.993	7.93
358.362	7.24
358.731	7.7
359.1	7.42
359.469	7.24
359.838	7.7
360.207	7.4
360.576	7.62
360.945	7.21
361.314	7.64
361.682	7.76
362.051	7.66
362.42	7.53
362.788	7.44
363.157	7.74
363.525	7.49
363.894	7.63
364.262	7.66
364.631	7.95
364.999	7.7
365.367	7.73
365.735	7.9
366.104	7.9
366.472	8.03
366.84	7.86
367.208	7.79
367.576	8.17
367.944	7.94
368.312	7.8
368.68	8.04
369.048	7.88
369.416	7.74
369.783	7.62
370.151	8.12
370.519	8.21
370.886	7.97
371.254	7.95
371.621	8.08
371.989	8.41
372.356	8.15
372.724	7.91
373.091	7.77
373.458	8.02
373.826	8.34
374.193	8.52
374.56	8.25
374.927	8.13
375.294	8.05
375.661	8.23
376.028	8.08
376.395	8.05
376.762	8.56
377.129	8.47
377.496	7.95
377.863	8.33
378.229	8.54
378.596	8.44
378.963	8.2
379.329	8.43
379.696	8.65
380.062	8.27
380.429	8.86
380.795	8.27
381.161	8.55
381.528	8.68
381.894	8.55
382.26	8.45
382.626	8.52
382.993	8.68
383.359	8.53
383.725	8.85
384.091	8.83
384.457	8.7
384.823	9.05
385.188	8.59
385.554	8.76
385.92	8.47
386.286	8.67
386.651	8.52
387.017	8.97
387.383	8.84
387.748	8.96
388.114	8.95
388.479	9.08
388.845	8.65
389.21	8.85
389.575	9.02
389.94	8.8
390.306	8.97
390.671	8.71
391.036	9.17
391.401	9.11
391.766	8.86
392.131	8.57
392.496	8.96
392.861	8.79
393.226	9.1
393.591	9.08
393.956	9.17
394.32	9.55
394.685	9.23
395.05	9.16
395.414	9.15
395.779	9.35
396.143	9.32
396.508	9.22
396.872	9.17
397.236	9.23
397.601	9.42
397.965	9.19
398.329	9.32
398.694	9.18
399.058	9.41
399.422	9.37
399.786	9.35
400.15	9.36
400.514	9.41
400.878	9.39
401.242	9.45
401.605	9.51
401.969	9.44
402.333	9.3
402.697	9.52
403.06	9.62
403.424	9.38
403.787	9.83
404.151	9.81
404.514	9.62
404.878	9.69
405.241	9.53
405.604	9.51
405.968	9.37
406.331	9.65
406.694	9.64
407.057	9.58
407.42	9.72
407.783	9.44
408.146	9.72
408.509	9.46
408.872	9.77
409.235	9.9
409.598	9.75
409.961	9.76
410.323	9.88
410.686	10.1
411.049	9.96
411.411	9.96
411.774	9.98
412.136	10.04
412.499	9.88
412.861	9.95
413.223	9.98
413.586	10.23
413.948	10.12
414.31	9.96
414.672	10
415.035	10.22
415.397	10.17
415.759	10.04
416.121	10.21
416.483	10.23
416.845	10.22
417.206	10.13
417.568	10.15
417.93	9.94
418.292	10.27
418.653	10.18
419.015	10.16
419.377	10.17
419.738	10.15
420.1	10.15
420.461	10.04
420.822	10.09
421.184	10.05
421.545	10.07
421.906	9.94
422.267	10.07
422.629	10.02
422.99	10.08
423.351	10.09
423.712	10.1
424.073	10.21
424.434	10.14
424.795	10.24
425.155	10.01
425.516	10.19
425.877	10.19
426.238	10.25
426.598	10.18
426.959	10.37
427.32	10.26
427.68	10.38
428.041	10.34
428.401	10.51
428.761	10.62
429.122	10.63
429.482	10.56
429.842	10.54
430.202	10.59
430.563	10.5
430.923	10.63
431.283	10.53
431.643	10.76
432.003	10.84
432.363	10.59
432.722	10.63
433.082	10.67
433.442	10.62
433.802	10.94
434.161	10.64
434.521	10.62
434.881	10.76
435.24	10.74
435.6	10.75
435.959	10.71
436.319	10.83
436.678	11.08
437.037	11.09
437.396	10.91
437.756	11.03
438.115	11.11
438.474	11
438.833	11.1
439.192	10.95
439.551	10.9
439.91	10.94
440.269	10.93
440.628	11.01
440.987	10.88
441.345	11.01
441.704	11.04
442.063	10.76
442.421	10.92
442.78	11.08
443.138	10.96
443.497	11.08
443.855	11.16
444.214	11.15
444.572	11.41
444.93	10.96
445.288	11.09
445.647	11.14
446.005	11.26
446.363	11.09
446.721	11.06
447.079	11.11
447.437	11.23
447.795	11.05
448.153	11.14
448.51	11.11
448.868	11.17
449.226	11.12
449.584	11.31
449.941	11.47
450.299	11.39
450.656	11.4
451.014	11.36
451.371	11.54
451.729	11.6
452.086	11.49
452.443	11.6
452.801	11.5
453.158	11.62
453.515	11.61
453.872	11.59
454.229	11.54
454.586	11.83
454.943	11.52
455.3	11.76
455.657	11.77
456.014	11.55
456.371	11.69
456.727	11.8
457.084	11.75
457.441	11.88
457.797	11.71
458.154	11.77
458.51	11.83
458.867	11.86
459.223	11.96
459.58	11.84
459.936	11.85
460.292	11.86
460.648	11.68
461.005	11.73
461.361	11.52
461.717	11.63
462.073	11.64
462.429	11.95
462.785	11.85
463.141	12.14
463.496	11.82
463.852	11.95
464.208	12.1
464.564	12.1
464.919	11.97
465.275	12.03
465.631	12.16
465.986	12.25
466.342	12.35
466.697	12.36
467.052	12.17
467.408	12.2
467.763	12.22
468.118	12.22
468.473	12.17
468.829	12.4
469.184	12.31
469.539	12.3
469.894	12.37
470.249	12.34
470.603	12.41
470.958	12.5
471.313	12.34
471.668	12.49
472.023	12.28
472.377	12.6
472.732	12.63
473.086	12.45
473.441	12.33
473.795	12.45
474.15	12.5
474.504	12.65
474.859	12.39
475.213	12.66
475.567	12.48
475.921	12.63
476.275	12.73
476.63	12.54
476.984	12.91
477.338	12.74
477.692	12.64
478.045	12.61
478.399	12.64
478.753	12.85
479.107	12.73
479.461	12.7
479.814	12.77
480.168	12.67
480.521	12.83
480.875	12.84
481.228	12.96
481.582	12.84
481.935	12.83
482.289	12.81
482.642	12.92
482.995	12.77
483.348	12.73
483.701	12.57
484.055	12.57
484.408	12.46
484.761	12.32
485.114	12.17
485.466	12.17
485.819	12.27
486.172	12.27
486.525	12.37
486.878	12.57
487.23	12.59
487.583	12.62
487.936	12.59
488.288	12.56
488.641	12.5
488.993	12.39
489.345	12.42
489.698	12.49
490.05	12.65
490.402	12.7
490.754	12.8
491.107	12.93
491.459	12.97
491.811	13.01
492.163	12.93
492.515	12.77
492.866	12.76
493.218	12.7
493.57	12.78
493.922	12.89
494.274	12.99
494.625	13.09
494.977	13.22
495.328	13.26
495.68	13.3
496.031	13.47
496.383	13.38
496.734	13.53
497.086	13.47
497.437	13.59
497.788	13.5
498.139	13.4
498.49	13.34
498.842	13.37
499.193	13.57
499.544	13.54
499.894	13.48
500.245	13.64
500.596	13.59
500.947	13.58
501.298	13.6
501.648	13.7
501.999	13.65
502.35	13.79
502.7	13.87
503.051	13.89
503.401	13.92
503.752	13.79
504.102	13.91
504.452	13.88
504.803	13.67
505.153	13.9
505.503	13.97
505.853	13.98
506.203	13.76
506.553	13.79
506.903	14.03
507.253	13.99
507.603	13.93
507.953	14.04
508.303	14.02
508.652	14.05
509.002	14.12
509.352	14.08
509.701	14.2
510.051	13.94
510.4	13.91
510.75	14.04
511.099	14.17
511.449	13.95
511.798	13.96
512.147	14.18
512.496	14.08
512.846	14.27
513.195	14.13
513.544	14.05
513.893	14.16
514.242	14.3
514.591	14.2
514.939	14.23
515.288	14.25
515.637	14.21
515.986	14.32
516.334	14.37
516.683	14.36
517.032	14.39
517.38	14.27
517.729	14.19
518.077	14.42
518.426	14.33
518.774	14.29
519.122	14.36
519.47	14.26
519.819	14.2
520.167	14.24
520.515	14.28
520.863	14.29
521.211	14.26
521.559	14.32
521.907	14.47
522.255	14.58
522.602	14.56
522.95	14.55
523.298	14.69
523.645	14.61
523.993	14.63
524.341	14.67
524.688	14.71
525.036	14.76
525.383	14.6
525.73	14.75
526.078	14.67
526.425	14.6
526.772	14.58
527.119	14.41
527.466	14.57
527.814	14.59
528.161	14.62
528.508	14.57
528.854	14.45
529.201	14.39
529.548	14.24
529.895	14.12
530.242	14.15
530.588	14.27
530.935	14.32
531.282	14.39
531.628	14.43
531.975	14.57
532.321	14.68
532.667	14.86
533.014	14.83
533.36	14.88
533.706	14.83
534.052	14.8
534.399	14.56
534.745	14.58
535.091	14.63
535.437	14.72
535.783	14.78
536.129	14.87
536.474	14.88
536.82	15.05
537.166	15.08
537.512	14.92
537.857	15.05
538.203	14.99
538.549	15.12
538.894	15.08
539.239	15.23
539.585	15.28
539.93	15.42
540.276	15.39
540.621	15.45
540.966	15.41
541.311	15.46
541.656	15.35
542.001	15.16
542.346	15.04
542.691	14.88
543.036	14.92
543.381	15.07
543.726	15.11
544.071	15.15
544.415	15.22
544.76	15.21
545.105	15.32
545.449	15.43
545.794	15.52
546.138	15.55
546.483	15.53
546.827	15.6
547.171	15.42
547.516	15.7
547.86	15.52
548.204	15.59
548.548	15.72
548.892	15.57
549.236	15.79
549.58	15.96
549.924	15.91
550.268	15.9
550.612	16.19
550.956	15.98
551.3	16.25
551.643	16.1
551.987	16.14
552.33	16.18
552.674	16.3
553.017	16.14
553.361	16.23
553.704	16.25
554.048	16.16
554.391	16.18
554.734	16.07
555.077	16.21
555.42	16.39
555.764	16.38
556.107	16.31
556.45	16.44
556.793	16.51
557.135	16.47
557.478	16.41
557.821	16.29
558.164	16.43
558.507	16.52
558.849	16.38
559.192	16.47
559.534	16.57
559.877	16.39
560.219	16.82
560.562	16.7
560.904	16.72
561.246	16.67
561.589	16.76
561.931	16.93
562.273	16.65
562.615	16.76
562.957	16.73
563.299	16.83
563.641	16.85
563.983	16.64
564.325	16.89
564.667	16.73
565.008	16.7
565.35	16.87
565.692	16.96
566.033	16.96
566.375	16.81
566.716	16.74
567.058	16.78
567.399	16.84
567.741	16.6
568.082	16.71
568.423	16.74
568.764	16.95
569.105	16.83
569.447	17.23
569.788	17.1
570.129	17.02
570.47	16.95
570.811	16.78
571.151	17.04
571.492	17.25
571.833	17.13
572.174	16.98
572.514	17.14
572.855	17
573.195	17.08
573.536	16.96
573.876	17.08
574.217	17.1
574.557	17.11
574.898	17.18
575.238	17.11
575.578	17.14
575.918	17.2
576.258	17.2
576.598	17.28
576.938	17.35
577.278	17.25
577.618	17.3
577.958	17.37
578.298	17.31
578.638	17.42
578.977	17.49
579.317	17.65
579.657	17.35
579.996	17.59
580.336	17.48
580.675	17.71
581.014	17.71
581.354	17.87
581.693	17.63
582.032	17.49
582.372	17.4
582.711	17.56
583.05	17.66
583.389	17.71
583.728	17.57
584.067	17.71
584.406	17.76
584.745	17.96
585.083	17.61
585.422	18.07
585.761	17.74
586.1	17.83
586.438	17.99
586.777	17.76
587.115	17.91
587.454	17.95
587.792	18
588.13	17.8
588.469	17.79
588.807	17.9
589.145	17.99
589.483	18.25
589.821	18.09
590.159	18.01
590.497	18.15
590.835	18.06
591.173	17.87
591.511	18.07
591.849	18
592.187	17.99
592.524	18.2
592.862	18.09
593.2	18.13
593.537	18.09
593.875	18.41
594.212	18.18
594.55	18.23
594.887	18.52
595.224	18.36
595.561	18.28
595.899	18.11
596.236	18.3
596.573	18.43
596.91	18.41
597.247	18.57
597.584	18.31
597.921	18.15
598.258	18.15
598.594	18.24
598.931	18.41
599.268	18.38
599.604	18.32
599.941	18.3
600.277	18.6
600.614	18.6
600.95	18.78
601.287	18.81
601.623	18.61
601.959	18.54
602.296	18.84
602.632	18.43
602.968	18.47
603.304	18.6
603.64	18.2
603.976	18.76
604.312	18.54
604.648	18.38
604.984	18.55
605.319	18.51
605.655	18.59
605.991	18.5
606.326	18.58
606.662	18.43
606.998	18.56
607.333	18.63
607.668	18.77
608.004	18.94
608.339	18.78
608.674	19.03
609.01	18.86
609.345	18.91
609.68	18.79
610.015	18.64
610.35	18.75
610.685	18.87
611.02	18.67
611.355	18.9
611.689	18.69
612.024	18.79
612.359	18.96
612.694	18.83
613.028	19.33
613.363	19.18
613.697	19.29
614.032	19.25
614.366	19.14
614.7	18.98
615.035	19.26
615.369	18.97
615.703	19.15
616.037	19.05
616.371	19.14
616.705	19.16
617.039	19.37
617.373	19.29
617.707	19.5
618.041	19.24
618.375	18.73
618.709	19.46
619.042	19.52
619.376	19.32
619.71	19.49
620.043	19.33
620.377	19.43
620.71	19.35
621.043	19.54
621.377	19.66
621.71	19.33
622.043	19.3
622.376	19.88
622.709	19.63
623.043	19.68
623.376	19.46
623.709	19.76
624.041	20.14
624.374	19.66
624.707	19.64
625.04	19.58
625.373	19.52
625.705	19.49
626.038	19.8
626.37	19.61
626.703	19.92
627.035	19.37
627.368	19.72
627.7	19.61
628.032	19.35
628.365	19.4
628.697	19.72
629.029	19.8
629.361	19.62
629.693	19.71
630.025	20.04
630.357	20.01
630.689	19.8
631.021	19.28
631.353	19.62
631.684	19.94
632.016	20.17
632.348	20
632.679	19.62
633.011	19.68
633.342	19.83
633.674	20.5
634.005	19.43
634.336	20.34
634.668	19.76
634.999	20.28
635.33	19.78
635.661	20.01
635.992	20.28
636.323	20.1
636.654	20.16
636.985	19.79
637.316	19.94
637.647	20.12
637.977	20.06
638.308	20.51
638.639	20.29
638.969	20.67
639.3	20.03
639.63	20.08
639.961	20.01
640.291	20.02
640.622	20.23
640.952	20.3
641.282	20.22
641.612	19.89
641.943	20.21
642.273	20.42
642.603	20.71
642.933	20.63
643.263	20.74
643.592	20.13
643.922	20.47
644.252	19.88
644.582	20.78
644.911	21.05
645.241	20.55
645.571	20.58
645.9	20.22
646.23	20.72
646.559	20.77
646.888	21.09
647.218	21.04
647.547	20.77
647.876	20.25
648.205	20.81
648.534	20.04
648.863	20.73
649.192	20.65
649.521	20.77
649.85	21.16
650.179	20.84
650.508	20.68
650.837	21.02
651.165	20.47
651.494	21.14
651.822	20.65
652.151	20.96
652.479	21.27
652.808	21.02
653.136	20.76
653.465	20.92
653.793	21.01
654.121	20.73
654.449	20.82
654.777	21.19
655.105	20.97
655.433	21.01
655.761	21.12
656.089	20.89
656.417	20.99
656.745	20.62
657.073	20.91
657.4	20.89
657.728	20.92
658.056	20.81
658.383	21.16
658.711	20.89
659.038	21.19
659.365	20.75
659.693	21.1
660.02	20.92
660.347	20.93
660.674	20.95
661.001	21.1
661.329	21.54
661.656	21.2
661.982	21.09
662.309	21.34
662.636	21.24
662.963	21.41
663.29	21.23
663.616	21.2
663.943	21.09
664.27	22
664.596	21.32
664.923	21.26
665.249	21.59
665.576	21.95
665.902	21.05
666.228	21.84
666.554	21.42
666.881	21.9
667.207	21.37
667.533	21.83
667.859	21.02
668.185	21.7
668.511	21.28
668.837	21.72
669.162	21.3
669.488	21.2
669.814	22.05
670.139	21.21
670.465	21.14
670.791	21.67
671.116	21.95
671.442	21.09
671.767	21.85
672.092	22.12
672.418	21.53
672.743	21.73
673.068	22.16
673.393	22.15
673.718	21.51
674.043	21.28
674.368	22.32
674.693	22.16
675.018	22.3
675.343	21.89
675.667	22.3
675.992	21.75
676.317	22.55
676.641	22.33
676.966	21.8
677.29	22.18
677.615	21.77
677.939	21.89
678.264	21.9
678.588	22.11
678.912	22.24
679.236	21.78
679.56	21.74
679.885	22.21
680.209	22.15
680.532	21.49
680.856	21.89
681.18	21.76
681.504	21.98
681.828	21.36
682.152	21.93
682.475	22.38
682.799	22.04
683.122	21.88
683.446	22.09
683.769	22.49
684.093	22.11
684.416	22.39
684.739	22.32
685.062	22.35
685.386	21.86
685.709	22.03
686.032	22.18
686.355	22.63
686.678	21.9
687.001	22.13
687.324	22.27
687.646	22.24
687.969	22.19
688.292	21.68
688.614	23.4
688.937	22.52
689.26	23.1
689.582	23.13
689.904	22.3
690.227	22.68
690.549	22.56
690.871	22.36
691.194	22.48
691.516	22.24
691.838	22.65
692.16	23.03
692.482	22.26
692.804	22.76
693.126	22.42
693.448	22.75
693.769	22.68
694.091	22.7
694.413	22.49
694.735	22.14
695.056	22.72
695.378	23.04
695.699	22.44
696.021	22.86
696.342	21.93
696.663	22.83
696.984	22.93
697.306	21.92
697.627	23.2
697.948	22.28
698.269	22.18
698.59	22.31
698.911	22.71
699.232	22.53
699.553	23.03
699.873	23.02
700.194	22.49
700.515	22.92
700.835	22.43
701.156	22.77
701.477	23.26
701.797	22.97
702.117	22.99
702.438	23.28
702.758	23.85
703.078	22.91
703.398	23.76
703.719	24.09
704.039	23.52
704.359	22.83
704.679	23.12
704.999	24.09
705.319	23.03
705.638	22.94
705.958	23.08
706.278	24.29
706.597	23.28
706.917	23.23
707.237	23.16
707.556	23.14
707.876	23.4
708.195	22.99
708.514	24.35
708.834	22.54
709.153	23.1
709.472	23.07
709.791	23.42
710.11	24.05
710.429	23.37
710.748	22.88
711.067	23.15
711.386	22.59
711.705	24.49
712.023	23.27
712.342	23.33
712.661	23.37
712.979	23.82
713.298	23.7
713.616	24.11
713.935	23.84
714.253	24.3
714.572	23.26
714.89	23.74
715.208	23.3
715.526	23.49
715.844	23.43
716.162	23.49
716.48	23.55
716.798	22.92
717.116	23.07
717.434	23.78
717.752	24.41
718.069	23.17
718.387	24.05
718.705	23.64
719.022	23.65
719.34	22.99
719.657	22.9
719.975	23.51
720.292	23.85
720.609	23.34
720.927	23.61
721.244	23.38
721.561	24.26
721.878	24.75
722.195	24.43
722.512	24.48
722.829	24.97
723.146	24.13
723.463	24.36
723.779	25.27
724.096	24.93
724.413	23.18
724.729	22.91
725.046	24.27
725.362	24.46
725.679	24.65
725.995	22.9
726.311	24.45
726.628	23.51
726.944	24.49
727.26	24.03
727.576	23.67
727.892	23.96
728.208	23.05
728.524	24.41
728.84	25.02
729.156	23.48
729.472	23.6
729.787	23.99
730.103	23.57
730.419	23.47
730.734	24.58
731.05	24.24
731.365	24.66
731.681	24.08
731.996	25.08
732.311	25.11
732.626	25.25
732.942	25.04
733.257	23.78
733.572	23.93
733.887	24.85
734.202	23.99
734.517	23.79
734.832	25.23
735.146	24.76
735.461	23.74
735.776	24.86
736.091	24.3
736.405	24.46
736.72	24.33
737.034	23.87
737.349	23.94
737.663	23.27
737.977	24.14
738.292	23.68
738.606	23.19
738.92	24.27
739.234	24.14
739.548	24.01
739.862	23.48
740.176	24.53
740.49	23.96
740.804	23.56
741.117	24.73
741.431	22.88
741.745	23.59
742.058	24.02
742.372	24.23
742.685	23.6
742.999	24.21
743.312	25.9
743.626	23.92
743.939	25.53
744.252	25.04
744.565	24.9
744.878	22.73
745.191	24.23
745.505	24.21
745.817	24.21
746.13	26.81
746.443	25.97
746.756	26.21
747.069	24.7
747.381	25.05
747.694	25.63
748.007	24.93
748.319	25.82
748.632	26.38
748.944	25.57
749.256	24.39
749.569	25.8
749.881	25.07
750.193	26.47
750.505	24.21
750.817	25.34
751.129	24.72
751.441	25.04
751.753	26.16
752.065	23.47
752.377	24.91
752.689	26.23
753	26.57
753.312	27.25
753.624	24.19
753.935	26.16
754.247	25.6
754.558	27.96
754.869	23.37
755.181	26.05
755.492	27.13
755.803	25.4
756.114	26.03
756.425	25.08
756.736	24.71
757.047	25.61
757.358	25.86
757.669	24.03
757.98	26.47
758.291	25.11
758.601	26.83
758.912	25.75
759.223	24.01
759.533	25.35
759.844	23.29
760.154	27.18
760.464	26.97
760.775	25.72
761.085	25.13
761.395	26.48
761.705	25.39
762.016	25.71
762.326	25.35
762.636	27.8
762.945	25.05
763.255	24.74
763.565	23.33
763.875	24.34
764.185	25.05
764.494	24.67
764.804	26.4
765.113	27.07
765.423	25.03
765.732	25.79
766.042	26.81
766.351	26.98
766.66	25.64
766.97	26.45
767.279	27.25
767.588	26.78
767.897	25.6
768.206	24.89
768.515	25.01
768.824	26.32
769.133	23.97
769.441	26.2
769.75	24.58
770.059	26.6
770.367	25.08
770.676	25.56
770.984	26.18
771.293	28.21
771.601	22.57
771.91	27.12
772.218	26.21
772.526	26.67
772.834	26.59
773.142	26.46
773.45	25
773.758	24.6
774.066	26.33
774.374	26.36
774.682	25.54
774.99	25.32
775.298	26.78
775.605	28.72
775.913	29.59
776.22	24.91
776.528	26.99
776.835	27.65
777.143	25.84
777.45	26.11
777.757	27.44
778.065	27.04
778.372	26.96
778.679	25.64
778.986	26.14
779.293	23.96
779.6	22.59
779.907	26.72
780.214	28.14
780.52	26.79
780.827	25.54
781.134	26.2
781.44	27.85
781.747	24.84
782.053	26.92
782.36	23.92
782.666	24.89
782.973	26.29
783.279	26.24
783.585	24.85
783.891	27.35
784.197	25.63
784.503	27.99
784.809	28.47
785.115	26.07
785.421	24.66
785.727	28.71
786.033	25.02
786.339	23.43
786.644	24.85
786.95	27.28
787.255	27.77
787.561	27.79
787.866	27.05
788.172	26.51
788.477	28.57
788.782	25.64
789.088	27.14
789.393	30.51
789.698	29.03
790.003	24.77
790.308	25.27
790.613	27.51
790.918	25.23
791.223	28.9
791.527	26.04
791.832	26.88
792.137	25.89
792.441	26.36
792.746	29.33
793.05	27.38
793.355	26.13
793.659	23.23
793.963	27.27
794.268	30.38
794.572	26.73
794.876	27.29
795.18	23.86
795.484	24.36
795.788	22.71
796.092	28.96
796.396	25.99
796.7	26.82
797.004	27.49
797.307	27.4
797.611	26.4
797.915	28.74
798.218	26.21
798.522	31.88
798.825	29.04
799.128	25.89
799.432	27.14
799.735	26.74
800.038	26.69
800.341	26.19
800.644	27.59
800.947	27.17
801.25	25.9
801.553	24.66
801.856	32.2
802.159	27.83
802.462	24.65
802.764	28.83
803.067	25.44
803.37	30.14
803.672	27.61
803.975	25.21
804.277	29.5
804.579	22.58
804.882	28.75
805.184	25.98
805.486	31.33
805.788	28.61
806.09	18.5
806.392	30.65
806.694	29.15
806.996	24.37
807.298	26.69
807.6	27.14
807.902	26.58
808.203	23.29
808.505	25.07
808.807	28.41
809.108	29.59
809.409	24.48
809.711	22.39
810.012	26.94
810.313	26.51
810.615	27.37
810.916	25.33
811.217	27.61
811.518	26.31
811.819	30.58
812.12	33.98
812.421	27.5
812.722	28.36
813.023	28.15
813.323	32.37
813.624	29.94
813.925	18.63
814.225	22.28
814.526	26.34
814.826	29.6
815.126	24.73
815.427	28.9
815.727	26.92
816.027	27.24
816.327	29.67
816.627	29.98
816.927	31.86
817.227	31.32
817.527	29.1
817.827	27.1
818.127	30.07
818.427	32.34
818.727	27.15
819.026	35.98
819.326	27.76
819.625	23.42
819.925	24.43
820.224	29.61
820.524	28.64
820.823	23.08
821.122	28.79
821.421	25.99
821.72	28.35
822.019	31.17
822.318	24.02
822.617	25.09
822.916	28.26
823.215	27.02
823.514	29.94
823.813	27.66
824.111	27.94
824.41	28.18
824.709	28.15
825.007	29.07
825.306	29.39
825.604	29.3
825.902	29.23
826.201	29.77
826.499	29.78
826.797	29.62
827.095	29.9
827.393	29.67
827.691	30.05
827.989	30.52
828.287	30.95
828.585	29.22
828.882	29.23
829.18	29.58
829.478	28.34
829.775	33.24
830.073	29.81
830.37	29.98
830.668	28.53
830.965	28.53
831.263	29.83
831.56	27.62
831.857	28.33
832.154	29.78
832.451	32.56
832.748	27.37
833.045	29.85
833.342	34.13
833.639	29.25
833.936	32.46
834.232	28.76
834.529	26.35
834.826	31.88
835.122	28.15
835.419	29.88
835.715	27.7
836.012	27.23
836.308	28.64
836.604	30.73
836.901	30.52
837.197	27.46
837.493	28.37
837.789	29.17
838.085	28.63
838.381	25.23
838.677	27.62
838.972	29.6
839.268	28.84
839.564	26.26
839.86	25.23
840.155	23.94
840.451	19.84
840.746	36.04
841.042	27.94
841.337	30.71
841.632	34.13
841.928	19.1
842.223	22.57
842.518	25.35
842.813	34.58
843.108	23.74
843.403	31.38
843.698	27.27
843.993	25.14
844.287	29.49
844.582	30.16
844.877	34.58
845.171	26.98
845.466	11.76
845.761	21.73
846.055	38.01
846.349	29.78
846.644	25.5
846.938	37.85
847.232	22.86
847.526	26.9
847.82	30.67
848.114	30.24
848.408	25.95
848.702	27.9
848.996	25.51
849.29	33.84
849.584	32.89
849.877	13.95
850.171	38.31
850.465	23.15
850.758	22.43
851.052	16.41
851.345	15.29
851.638	25.73
851.932	13.98
852.225	15.15
852.518	28.26
852.811	21.19
853.104	33.4
853.397	21.42
853.69	34.46
853.983	27.46
854.276	21.67
854.569	10.5
854.861	29.63
855.154	15.64
855.447	36.86
855.739	26.72
856.032	20.94
856.324	21.7
856.616	13.46
856.909	27.76
857.201	25.35
857.493	25.1
857.785	17.57
858.077	42.4
858.369	9.06
858.661	20.13
858.953	32.66
859.245	35.65
859.537	-2.12
859.829	6.19
860.12	22.88
860.412	14.57
860.703	16.34
860.995	36.12
861.286	33.27
861.578	20.55
861.869	34.68
862.16	29.26
862.452	42.51
862.743	24.11
863.034	34.29
863.325	25.97
863.616	19.04
863.907	29.1
864.198	38.47
864.488	2.9
864.779	8.65
865.07	15.18
865.36	-2.62
865.651	9.04
865.941	34.51
866.232	8.52
866.522	41.72
866.813	36.33
867.103	40.39
867.393	37.26
867.683	23.3
867.973	11.86
868.263	17.63
868.553	48.56
868.843	6.29
869.133	-0.25
869.423	34.53
869.713	-0.99
870.002	11.61
870.292	19.57
870.582	30.01
870.871	31.74
871.161	19.75
871.45	23.62
871.739	28.36
872.029	2.66
872.318	32.16
872.607	18.66
872.896	20.19
873.185	16.35
873.474	46.84
873.763	39.01
874.052	23.47
874.341	10.76
874.63	17.77
874.918	24.71
875.207	43.57
875.496	34.35
875.784	-8.96
876.073	28.21
876.361	33.89
876.649	7.15
876.938	24.38
877.226	27.53
877.514	12.25
877.802	23.36
878.09	33.89
878.378	18.73
878.666	40.2
878.954	37.17
879.242	27.73
879.53	29.18
879.817	9.23
880.105	20.21
880.392	31.22
880.68	41.35
880.967	30.97
881.255	13.13
881.542	15.44
881.83	42.66
882.117	23.33
882.404	34.82
882.691	43.07
882.978	26.91
883.265	37.91
883.552	30.25
883.839	26.93
884.126	33.51
884.413	30.38
884.699	32.09
884.986	30.13
885.273	32.9
885.559	32.9
885.846	32.9
