Data from 0344_forehead_Reflection__2__336.txt Node

Date: Fri Oct 20 23:20:28 CDT 2023
User: ToomeyLab
Spectrometer: FLMS14357
Trigger mode: 0
Integration Time (sec): 1.000000E-2
Scans to average: 100
Electric dark correction enabled: true
Nonlinearity correction enabled: false
Boxcar width: 0
XAxis mode: Wavelengths
Number of Pixels in Spectrum: 2048
>>>>>Begin Spectral Data<<<<<
189.047	-54.33
189.435	-54.33
189.823	-54.33
190.211	242.31
190.599	128.12
190.987	203.78
191.375	-75.42
191.763	41.49
192.151	15.17
192.538	52.02
192.926	104.68
193.314	231.36
193.702	119.06
194.089	46.62
194.477	265.53
194.864	105.53
195.252	116.76
195.639	-2.3
196.027	-932.97
196.414	194.28
196.801	11.66
197.189	426.1
197.576	172.36
197.963	-259.75
198.351	25.75
198.738	11.2
199.125	11.97
199.512	35.76
199.899	-19.45
200.286	-48.02
200.673	16.97
201.06	24.18
201.447	-26.22
201.833	66.76
202.22	23.47
202.607	46.03
202.994	27.9
203.38	18.18
203.767	14.84
204.154	41.69
204.54	37.8
204.927	37.72
205.313	2.6
205.699	47.98
206.086	45.81
206.472	26.01
206.858	37.35
207.245	8.51
207.631	16.76
208.017	41.69
208.403	6.16
208.789	33.71
209.175	-4.36
209.561	13.33
209.947	-13.03
210.333	47.82
210.719	5.54
211.105	37.76
211.491	22.66
211.876	11.81
212.262	22.27
212.648	17.05
213.034	15.83
213.419	8.34
213.805	29.85
214.19	19.56
214.576	-6.22
214.961	2.88
215.346	15.84
215.732	7.61
216.117	-43.97
216.502	20.1
216.888	12.87
217.273	4.77
217.658	5.88
218.043	0.37
218.428	17.74
218.813	8.84
219.198	9.38
219.583	12.5
219.968	-21.55
220.353	11.56
220.738	19.14
221.122	-5.84
221.507	-1.94
221.892	7.09
222.276	-4.65
222.661	21.78
223.046	3.75
223.43	-1.91
223.815	13.32
224.199	29.24
224.583	0.73
224.968	3.22
225.352	8.38
225.736	0.97
226.121	11.08
226.505	0.98
226.889	8.81
227.273	6.29
227.657	8.74
228.041	7.38
228.425	3.73
228.809	3.08
229.193	0.63
229.577	3.35
229.961	2.39
230.344	3.79
230.728	2.96
231.112	3.8
231.495	2.4
231.879	3.82
232.263	4.44
232.646	2.02
233.03	4.09
233.413	2.31
233.797	3.34
234.18	2.82
234.563	2.93
234.946	7.46
235.33	2.74
235.713	3.6
236.096	3.93
236.479	4.77
236.862	2.92
237.245	2.61
237.628	3.34
238.011	3.53
238.394	2.69
238.777	5.51
239.16	4.07
239.543	4.55
239.925	5.62
240.308	5.42
240.691	5.7
241.073	3.73
241.456	3.24
241.838	4.15
242.221	4.62
242.603	4.1
242.986	3.33
243.368	4.37
243.75	4.11
244.133	3.28
244.515	3.2
244.897	3.59
245.279	3.93
245.661	3.73
246.043	3.65
246.425	2.77
246.807	2.17
247.189	3.87
247.571	3.16
247.953	3.71
248.335	3.98
248.717	3.53
249.098	3.16
249.48	3.35
249.862	3.61
250.243	4.06
250.625	4.13
251.006	3.61
251.388	4.01
251.769	4.95
252.151	3.32
252.532	4.4
252.913	3.79
253.295	2.65
253.676	3.52
254.057	3.57
254.438	3.65
254.819	3.85
255.2	3.94
255.581	4.08
255.962	4.34
256.343	4.63
256.724	2.58
257.105	3.74
257.486	3.96
257.867	4.9
258.247	3.65
258.628	3.95
259.009	3.79
259.389	3.23
259.77	3.59
260.15	3.53
260.531	3.46
260.911	3.62
261.292	3.39
261.672	3.61
262.052	3.69
262.432	3.68
262.813	3.45
263.193	3.81
263.573	3.21
263.953	4.03
264.333	3.55
264.713	4.33
265.093	3.86
265.473	4
265.853	3.61
266.233	3.65
266.612	4
266.992	3.17
267.372	3.03
267.752	3.44
268.131	3.72
268.511	3.53
268.89	3.34
269.27	2.79
269.649	2.98
270.029	3.15
270.408	4.05
270.787	3.44
271.167	3.48
271.546	4.21
271.925	4.1
272.304	3.74
272.683	3.64
273.062	3.75
273.441	3.78
273.82	3.83
274.199	3.92
274.578	3.65
274.957	3.58
275.336	3.54
275.715	3.61
276.093	3.46
276.472	3.3
276.851	3.73
277.229	3.46
277.608	3.32
277.986	3.32
278.365	3.65
278.743	3.57
279.122	2.99
279.5	3.31
279.878	3.4
280.257	3.36
280.635	3.95
281.013	3.75
281.391	3.64
281.769	3.52
282.147	3.18
282.525	3.65
282.903	3.21
283.281	3.91
283.659	3.66
284.037	3.98
284.415	3.64
284.792	3.42
285.17	3.61
285.548	3.21
285.925	3.42
286.303	3.1
286.68	3.2
287.058	3.95
287.435	3.73
287.813	3.19
288.19	3.61
288.567	3.49
288.945	3.92
289.322	3.88
289.699	3.21
290.076	4.31
290.453	3.61
290.83	3.45
291.207	4
291.584	3.75
291.961	3.71
292.338	3.6
292.715	3.75
293.092	3.79
293.469	4.18
293.845	4.08
294.222	3.68
294.599	3.71
294.975	4.15
295.352	4.29
295.728	3.99
296.105	4.09
296.481	4.07
296.858	4.1
297.234	4.26
297.61	3.93
297.986	3.79
298.363	4.35
298.739	4.42
299.115	3.97
299.491	4.2
299.867	4.14
300.243	4.16
300.619	4.28
300.995	4.25
301.371	4.48
301.746	4.26
302.122	4.64
302.498	4.24
302.874	4.61
303.249	4.6
303.625	4.7
304	5.1
304.376	4.89
304.751	4.16
305.127	4.42
305.502	5.09
305.878	4.61
306.253	4.81
306.628	5.02
307.003	4.64
307.378	4.75
307.754	4.55
308.129	5.67
308.504	5.4
308.879	5.19
309.254	5.56
309.629	5.07
310.003	4.89
310.378	5.53
310.753	5.13
311.128	5.64
311.502	5.33
311.877	5.59
312.252	5.29
312.626	5.32
313.001	5.12
313.375	5.61
313.75	5.69
314.124	5.42
314.498	5.64
314.873	5.32
315.247	5.68
315.621	5.43
315.995	5.88
316.369	5.84
316.743	5.89
317.117	6.02
317.491	5.44
317.865	6.08
318.239	5.95
318.613	6.25
318.987	6.09
319.361	5.55
319.734	6.2
320.108	6.33
320.482	6.36
320.855	5.85
321.229	7.09
321.602	6.24
321.976	6.12
322.349	6.29
322.723	6.09
323.096	6.79
323.469	6.32
323.843	6.89
324.216	6.58
324.589	6.72
324.962	6.88
325.335	7.01
325.708	6.78
326.081	6.33
326.454	7.01
326.827	6.83
327.2	6.91
327.573	7.46
327.945	6.58
328.318	6.73
328.691	7.04
329.063	7.07
329.436	6.87
329.809	6.92
330.181	7.11
330.553	7.01
330.926	6.98
331.298	6.54
331.671	6.89
332.043	7.38
332.415	7.13
332.787	7.1
333.159	6.94
333.532	6.73
333.904	7.46
334.276	7.16
334.648	7.52
335.02	7.35
335.391	7.33
335.763	7.92
336.135	7.25
336.507	7.34
336.879	7.05
337.25	7.48
337.622	7.22
337.993	7.88
338.365	7.59
338.736	7.68
339.108	8.1
339.479	7.49
339.851	7.72
340.222	7.6
340.593	7.1
340.964	7.44
341.336	7.82
341.707	8.09
342.078	7.96
342.449	7.51
342.82	7.72
343.191	7.6
343.562	7.68
343.933	8
344.303	7.92
344.674	8.07
345.045	8.07
345.416	8.41
345.786	7.81
346.157	8.09
346.527	7.75
346.898	7.77
347.268	8.02
347.639	7.99
348.009	7.82
348.38	8
348.75	8.29
349.12	8.18
349.49	7.79
349.861	8.68
350.231	7.83
350.601	7.79
350.971	8.58
351.341	8.64
351.711	9.05
352.081	8.12
352.45	8.17
352.82	8.03
353.19	8.28
353.56	8.32
353.929	8.41
354.299	8.13
354.669	8.24
355.038	8.33
355.408	8.91
355.777	8.13
356.147	8.03
356.516	8.25
356.885	8.14
357.254	8.56
357.624	8.58
357.993	8.42
358.362	8.43
358.731	8.31
359.1	8.08
359.469	8.41
359.838	8.67
360.207	8.7
360.576	8.77
360.945	8.39
361.314	8.77
361.682	8.68
362.051	8.5
362.42	8.38
362.788	8.73
363.157	8.66
363.525	8.54
363.894	8.67
364.262	8.66
364.631	8.84
364.999	8.62
365.367	8.87
365.735	8.86
366.104	8.72
366.472	8.84
366.84	9.29
367.208	8.8
367.576	8.68
367.944	9.02
368.312	9.05
368.68	8.9
369.048	9.34
369.416	9.22
369.783	9.24
370.151	8.96
370.519	9.14
370.886	9.24
371.254	9.56
371.621	9.39
371.989	9.35
372.356	9.5
372.724	9.88
373.091	9.4
373.458	9.2
373.826	9.53
374.193	9.57
374.56	9.18
374.927	9.2
375.294	9.71
375.661	9.93
376.028	9.99
376.395	9.77
376.762	9.43
377.129	9.5
377.496	9.49
377.863	9.52
378.229	9.92
378.596	9.79
378.963	9.78
379.329	9.75
379.696	9.63
380.062	9.49
380.429	9.7
380.795	9.67
381.161	9.73
381.528	9.94
381.894	9.82
382.26	10.01
382.626	10.26
382.993	9.89
383.359	10.13
383.725	10
384.091	9.95
384.457	9.95
384.823	9.94
385.188	10.16
385.554	10.08
385.92	10.35
386.286	10.25
386.651	9.98
387.017	10.19
387.383	9.82
387.748	9.96
388.114	10.1
388.479	10.21
388.845	10.55
389.21	10.11
389.575	9.89
389.94	10.09
390.306	10.32
390.671	10.3
391.036	10.54
391.401	10.41
391.766	10.43
392.131	10.66
392.496	10.47
392.861	10.31
393.226	10.42
393.591	10.39
393.956	10.54
394.32	10.59
394.685	10.32
395.05	10.84
395.414	10.81
395.779	10.37
396.143	10.47
396.508	10.44
396.872	10.58
397.236	10.74
397.601	10.71
397.965	10.54
398.329	10.58
398.694	10.99
399.058	10.75
399.422	10.75
399.786	10.68
400.15	10.55
400.514	10.82
400.878	10.96
401.242	11
401.605	10.95
401.969	10.76
402.333	10.99
402.697	11.05
403.06	10.86
403.424	10.91
403.787	11.05
404.151	11.1
404.514	11.13
404.878	11.17
405.241	11.25
405.604	10.96
405.968	11.23
406.331	11.12
406.694	11.08
407.057	11.2
407.42	11.55
407.783	11.26
408.146	11.06
408.509	11.15
408.872	11.55
409.235	11.05
409.598	11.4
409.961	11.52
410.323	11.48
410.686	11.15
411.049	11.36
411.411	11.37
411.774	11.51
412.136	11.64
412.499	11.5
412.861	11.64
413.223	11.45
413.586	11.8
413.948	11.63
414.31	11.93
414.672	11.64
415.035	11.7
415.397	11.82
415.759	11.63
416.121	11.76
416.483	11.75
416.845	11.69
417.206	12
417.568	11.84
417.93	11.81
418.292	11.63
418.653	11.96
419.015	11.65
419.377	11.79
419.738	11.66
420.1	11.72
420.461	11.72
420.822	11.74
421.184	11.86
421.545	11.81
421.906	11.77
422.267	11.65
422.629	11.74
422.99	11.58
423.351	11.62
423.712	11.7
424.073	11.77
424.434	11.87
424.795	11.8
425.155	11.85
425.516	11.93
425.877	11.96
426.238	11.92
426.598	11.87
426.959	11.93
427.32	12.04
427.68	12.13
428.041	12.07
428.401	12.14
428.761	12.15
429.122	12.16
429.482	12.38
429.842	12.31
430.202	12.28
430.563	12.39
430.923	12.53
431.283	12.48
431.643	12.64
432.003	12.63
432.363	12.53
432.722	12.52
433.082	12.58
433.442	12.64
433.802	12.88
434.161	12.66
434.521	12.71
434.881	12.67
435.24	12.66
435.6	12.66
435.959	12.59
436.319	12.64
436.678	12.85
437.037	12.79
437.396	12.9
437.756	12.92
438.115	12.68
438.474	13.03
438.833	12.99
439.192	12.69
439.551	12.8
439.91	12.8
440.269	13.11
440.628	13
440.987	13.04
441.345	13
441.704	12.91
442.063	12.94
442.421	13.07
442.78	12.94
443.138	13.04
443.497	13.02
443.855	13.04
444.214	13.14
444.572	13.08
444.93	13.3
445.288	13.32
445.647	13.45
446.005	13.01
446.363	13.35
446.721	13.26
447.079	13.39
447.437	13.28
447.795	13.16
448.153	13.28
448.51	13.22
448.868	13.14
449.226	13.27
449.584	13.38
449.941	13.35
450.299	13.43
450.656	13.34
451.014	13.55
451.371	13.64
451.729	13.52
452.086	13.77
452.443	13.7
452.801	13.62
453.158	13.85
453.515	13.8
453.872	13.95
454.229	13.89
454.586	13.8
454.943	13.68
455.3	13.79
455.657	14.05
456.014	13.93
456.371	14.05
456.727	13.92
457.084	13.96
457.441	14.15
457.797	14.1
458.154	13.85
458.51	14.09
458.867	14.08
459.223	14.11
459.58	14
459.936	14.23
460.292	14.22
460.648	14.06
461.005	14.13
461.361	14.07
461.717	13.87
462.073	14.01
462.429	14.02
462.785	14.1
463.141	14.34
463.496	14.19
463.852	14.38
464.208	14.49
464.564	14.62
464.919	14.55
465.275	14.77
465.631	14.78
465.986	14.67
466.342	14.62
466.697	14.67
467.052	14.6
467.408	14.72
467.763	14.84
468.118	15.04
468.473	14.79
468.829	14.86
469.184	14.87
469.539	14.77
469.894	14.97
470.249	14.88
470.603	14.96
470.958	14.91
471.313	14.93
471.668	14.94
472.023	15.1
472.377	14.96
472.732	14.93
473.086	15.16
473.441	15.17
473.795	15.28
474.15	15.1
474.504	15.06
474.859	15.24
475.213	15.27
475.567	15.49
475.921	15.37
476.275	15.23
476.63	15.44
476.984	15.37
477.338	15.24
477.692	15.35
478.045	15.39
478.399	15.21
478.753	15.44
479.107	15.45
479.461	15.34
479.814	15.65
480.168	15.74
480.521	15.54
480.875	15.52
481.228	15.76
481.582	15.8
481.935	15.56
482.289	15.54
482.642	15.49
482.995	15.59
483.348	15.7
483.701	15.6
484.055	15.51
484.408	15.43
484.761	15.42
485.114	15.21
485.466	15
485.819	14.84
486.172	14.8
486.525	14.93
486.878	15.09
487.23	15.16
487.583	15.28
487.936	15.38
488.288	15.39
488.641	15.56
488.993	15.34
489.345	15.28
489.698	15.26
490.05	15.23
490.402	15.32
490.754	15.49
491.107	15.54
491.459	15.67
491.811	15.78
492.163	15.85
492.515	15.85
492.866	15.92
493.218	15.73
493.57	15.58
493.922	15.68
494.274	15.76
494.625	15.83
494.977	16.02
495.328	16.2
495.68	16.22
496.031	16.32
496.383	16.45
496.734	16.48
497.086	16.62
497.437	16.66
497.788	16.61
498.139	16.62
498.49	16.48
498.842	16.3
499.193	16.55
499.544	16.54
499.894	16.63
500.245	16.7
500.596	16.67
500.947	16.67
501.298	16.68
501.648	16.87
501.999	16.89
502.35	16.86
502.7	16.93
503.051	17.06
503.401	16.94
503.752	17.08
504.102	17.16
504.452	17.19
504.803	17.13
505.153	17.16
505.503	17.18
505.853	17.19
506.203	17.11
506.553	17.24
506.903	17.12
507.253	17.37
507.603	17.34
507.953	17.4
508.303	17.33
508.652	17.52
509.002	17.44
509.352	17.46
509.701	17.53
510.051	17.44
510.4	17.56
510.75	17.3
511.099	17.4
511.449	17.41
511.798	17.44
512.147	17.41
512.496	17.58
512.846	17.57
513.195	17.71
513.544	17.64
513.893	17.59
514.242	17.68
514.591	17.75
514.939	17.58
515.288	17.71
515.637	17.8
515.986	17.87
516.334	17.89
516.683	17.91
517.032	17.88
517.38	17.84
517.729	18.07
518.077	18.02
518.426	18.06
518.774	18.14
519.122	18.14
519.47	18.13
519.819	18.11
520.167	17.87
520.515	17.84
520.863	17.84
521.211	17.98
521.559	17.92
521.907	18.02
522.255	18.13
522.602	18.28
522.95	18.29
523.298	18.33
523.645	18.35
523.993	18.35
524.341	18.47
524.688	18.61
525.036	18.47
525.383	18.54
525.73	18.58
526.078	18.64
526.425	18.64
526.772	18.56
527.119	18.57
527.466	18.29
527.814	18.31
528.161	18.37
528.508	18.4
528.854	18.42
529.201	18.41
529.548	18.42
529.895	18.34
530.242	18.08
530.588	17.91
530.935	18
531.282	18.14
531.628	18.22
531.975	18.31
532.321	18.44
532.667	18.52
533.014	18.63
533.36	18.84
533.706	18.86
534.052	18.9
534.399	18.68
534.745	18.68
535.091	18.61
535.437	18.66
535.783	18.66
536.129	18.82
536.474	18.86
536.82	19.04
537.166	19.17
537.512	19.22
537.857	19.29
538.203	19.2
538.549	19.37
538.894	19.1
539.239	19.16
539.585	19.32
539.93	19.41
540.276	19.62
540.621	19.49
540.966	19.81
541.311	19.56
541.656	19.65
542.001	19.69
542.346	19.78
542.691	19.46
543.036	19.38
543.381	19.1
543.726	19.11
544.071	19.22
544.415	19.29
544.76	19.42
545.105	19.68
545.449	19.61
545.794	19.69
546.138	19.71
546.483	19.76
546.827	19.92
547.171	20.15
547.516	20.07
547.86	20.14
548.204	20.05
548.548	20.21
548.892	20.08
549.236	20.23
549.58	20.22
549.924	20.27
550.268	20.5
550.612	20.46
550.956	20.7
551.3	20.56
551.643	20.7
551.987	20.85
552.33	20.89
552.674	20.72
553.017	20.68
553.361	20.98
553.704	20.88
554.048	20.92
554.391	20.96
554.734	20.76
555.077	20.94
555.42	20.95
555.764	21.08
556.107	21.35
556.45	21.12
556.793	20.96
557.135	21.15
557.478	21.33
557.821	21.28
558.164	21.4
558.507	21.49
558.849	21.56
559.192	21.4
559.534	21.38
559.877	21.29
560.219	21.66
560.562	21.56
560.904	21.59
561.246	21.44
561.589	21.42
561.931	21.59
562.273	21.75
562.615	21.54
562.957	21.84
563.299	21.74
563.641	21.6
563.983	21.69
564.325	21.85
564.667	21.72
565.008	21.84
565.35	21.9
565.692	21.66
566.033	22.01
566.375	21.96
566.716	22.22
567.058	22.03
567.399	22.03
567.741	21.77
568.082	22.23
568.423	22.04
568.764	22.04
569.105	22.36
569.447	22.17
569.788	22.15
570.129	21.93
570.47	22.37
570.811	22.47
571.151	22.24
571.492	22.5
571.833	22.62
572.174	22.48
572.514	22.51
572.855	22.37
573.195	22.39
573.536	22.37
573.876	22.56
574.217	22.27
574.557	22.39
574.898	22.33
575.238	22.61
575.578	22.51
575.918	22.6
576.258	22.79
576.598	22.59
576.938	22.86
577.278	22.71
577.618	22.56
577.958	22.84
578.298	22.83
578.638	22.98
578.977	22.86
579.317	22.86
579.657	22.81
579.996	23.24
580.336	23.2
580.675	22.99
581.014	23.07
581.354	23.36
581.693	23.26
582.032	23.32
582.372	23.23
582.711	23.4
583.05	23.61
583.389	23.64
583.728	23.67
584.067	23.49
584.406	23.7
584.745	23.61
585.083	23.46
585.422	23.83
585.761	23.51
586.1	23.91
586.438	23.55
586.777	23.68
587.115	23.91
587.454	23.75
587.792	23.72
588.13	23.88
588.469	24.05
588.807	23.77
589.145	23.91
589.483	23.9
589.821	23.88
590.159	24.16
590.497	24.14
590.835	23.93
591.173	24.18
591.511	24.18
591.849	23.87
592.187	24.23
592.524	23.89
592.862	23.88
593.2	24.31
593.537	23.94
593.875	24.41
594.212	24.26
594.55	24.21
594.887	24.61
595.224	24.47
595.561	24.38
595.899	24.25
596.236	24.21
596.573	24.49
596.91	24.5
597.247	24.6
597.584	24.33
597.921	24.36
598.258	24.58
598.594	24.77
598.931	24.56
599.268	24.28
599.604	24.36
599.941	24.58
600.277	24.84
600.614	24.69
600.95	24.81
601.287	24.55
601.623	24.96
601.959	25.01
602.296	24.94
602.632	25.09
602.968	25.07
603.304	25.06
603.64	24.96
603.976	25.47
604.312	25.31
604.648	24.95
604.984	24.95
605.319	25.04
605.655	24.97
605.991	25
606.326	25.1
606.662	24.73
606.998	24.91
607.333	24.67
607.668	24.88
608.004	25.01
608.339	25.19
608.674	25.14
609.01	25.29
609.345	25.64
609.68	25.62
610.015	25.43
610.35	25.52
610.685	25.46
611.02	25.14
611.355	25.36
611.689	25.37
612.024	25.27
612.359	25.35
612.694	25.68
613.028	25.69
613.363	25.57
613.697	25.89
614.032	25.58
614.366	25.85
614.7	25.84
615.035	25.91
615.369	26.22
615.703	25.63
616.037	26.15
616.371	26.16
616.705	25.73
617.039	26.16
617.373	26.03
617.707	26.27
618.041	26.25
618.375	26.23
618.709	25.96
619.042	26.24
619.376	26.64
619.71	26.47
620.043	26.7
620.377	26.29
620.71	26.7
621.043	26.54
621.377	26.54
621.71	26.7
622.043	26.32
622.376	26.65
622.709	26.72
623.043	26.5
623.376	26.77
623.709	26.38
624.041	26.51
624.374	27.19
624.707	26.85
625.04	26.68
625.373	26.76
625.705	26.67
626.038	26.9
626.37	26.79
626.703	26.83
627.035	26.36
627.368	27.02
627.7	27.07
628.032	26.54
628.365	26.99
628.697	26.96
629.029	26.68
629.361	27.17
629.693	27.03
630.025	26.7
630.357	26.87
630.689	26.98
631.021	27.27
631.353	27.24
631.684	26.95
632.016	27.25
632.348	26.92
632.679	27.09
633.011	27.43
633.342	27.05
633.674	27.28
634.005	27.51
634.336	27.97
634.668	27.81
634.999	27.1
635.33	27.65
635.661	27.6
635.992	27.43
636.323	27.59
636.654	27.26
636.985	27.61
637.316	27.6
637.647	27.52
637.977	27.53
638.308	27.4
638.639	27.92
638.969	28.03
639.3	27.66
639.63	28.02
639.961	27.55
640.291	27.81
640.622	28.26
640.952	28.18
641.282	27.5
641.612	28.32
641.943	28.08
642.273	28.22
642.603	28.46
642.933	27.63
643.263	28.34
643.592	28.29
643.922	28.75
644.252	28.19
644.582	28.85
644.911	28.34
645.241	28.48
645.571	28.77
645.9	28.36
646.23	28.15
646.559	27.66
646.888	28.93
647.218	28.38
647.547	28.6
647.876	28.18
648.205	29
648.534	28.65
648.863	28.6
649.192	28.71
649.521	28.55
649.85	28.69
650.179	28.44
650.508	28.59
650.837	28.91
651.165	28.69
651.494	28.75
651.822	28.86
652.151	28.75
652.479	28.81
652.808	29.06
653.136	29.12
653.465	28.7
653.793	28.95
654.121	28.95
654.449	28.72
654.777	28.7
655.105	28.86
655.433	29.38
655.761	29.36
656.089	28.95
656.417	29.18
656.745	29.39
657.073	29.35
657.4	29.92
657.728	29.24
658.056	29.06
658.383	29.51
658.711	29.39
659.038	30
659.365	29.65
659.693	29.14
660.02	29.6
660.347	29.65
660.674	29.21
661.001	29.08
661.329	29.51
661.656	29.38
661.982	28.92
662.309	29.15
662.636	29.07
662.963	29.78
663.29	29.8
663.616	29.58
663.943	29.44
664.27	29.59
664.596	29.77
664.923	29.25
665.249	29.97
665.576	29.76
665.902	29.53
666.228	29.78
666.554	30.12
666.881	30.05
667.207	30.07
667.533	29.61
667.859	29.91
668.185	29.55
668.511	30.86
668.837	30.56
669.162	29.99
669.488	30.24
669.814	29.74
670.139	30.12
670.465	29.93
670.791	30.35
671.116	30.28
671.442	30.72
671.767	29.84
672.092	29.74
672.418	30.27
672.743	29.99
673.068	30.57
673.393	30.56
673.718	30.47
674.043	30.66
674.368	30.69
674.693	30.82
675.018	31.15
675.343	30.88
675.667	30.45
675.992	30.93
676.317	31.09
676.641	30.44
676.966	31.44
677.29	30.81
677.615	30.9
677.939	30.7
678.264	31.3
678.588	30.6
678.912	31.03
679.236	30.61
679.56	30.76
679.885	31.39
680.209	30.72
680.532	30.68
680.856	30.85
681.18	30.6
681.504	31.59
681.828	30.65
682.152	30.39
682.475	30.99
682.799	31.25
683.122	30.76
683.446	30.77
683.769	31.23
684.093	31.18
684.416	31.77
684.739	30.69
685.062	30.5
685.386	31.2
685.709	31.52
686.032	31.35
686.355	31.51
686.678	31.6
687.001	31.17
687.324	31.01
687.646	31.33
687.969	31.57
688.292	31.59
688.614	31.55
688.937	31.18
689.26	31.34
689.582	31.22
689.904	31.01
690.227	31.28
690.549	31.71
690.871	31.44
691.194	31.9
691.516	31.97
691.838	32.28
692.16	31.78
692.482	31.79
692.804	32.06
693.126	31.95
693.448	32.57
693.769	31.43
694.091	32.16
694.413	32.13
694.735	31.44
695.056	31.74
695.378	31.99
695.699	32.31
696.021	31.58
696.342	32.12
696.663	32.07
696.984	31.39
697.306	32.29
697.627	31.62
697.948	32.05
698.269	31.98
698.59	32.58
698.911	31.33
699.232	31.65
699.553	31.96
699.873	33.37
700.194	32.42
700.515	32.03
700.835	32.45
701.156	32.12
701.477	32.14
701.797	32.1
702.117	32.18
702.438	32.81
702.758	32.55
703.078	32.86
703.398	32.74
703.719	31.37
704.039	33.33
704.359	33.13
704.679	33.08
704.999	32.78
705.319	33.45
705.638	32.24
705.958	33.46
706.278	32.17
706.597	32.68
706.917	32.66
707.237	33.25
707.556	32.28
707.876	33.35
708.195	33.62
708.514	32.77
708.834	33.99
709.153	32.82
709.472	32.63
709.791	33.38
710.11	33.64
710.429	32.74
710.748	33.53
711.067	33.36
711.386	32.72
711.705	33.2
712.023	33.86
712.342	32.77
712.661	33.32
712.979	33.63
713.298	32.82
713.616	32.85
713.935	33.72
714.253	32.41
714.572	33.4
714.89	33
715.208	33.94
715.526	33.17
715.844	33.29
716.162	33.45
716.48	34.67
716.798	33.7
717.116	33.98
717.434	33.1
717.752	33.78
718.069	34.21
718.387	33.45
718.705	33.56
719.022	33.96
719.34	33.86
719.657	34.38
719.975	33.09
720.292	33.58
720.609	33.56
720.927	32.47
721.244	33.17
721.561	35
721.878	35.62
722.195	34.71
722.512	33.93
722.829	33.75
723.146	33.73
723.463	33.77
723.779	34.39
724.096	34.28
724.413	34.62
724.729	34.3
725.046	34.64
725.362	34.47
725.679	34.66
725.995	35.26
726.311	34.21
726.628	34.66
726.944	34.66
727.26	34.06
727.576	34.31
727.892	34.19
728.208	34.47
728.524	34.56
728.84	35.07
729.156	35.77
729.472	33.76
729.787	34.03
730.103	35.23
730.419	33.68
730.734	34.27
731.05	34.75
731.365	33.6
731.681	35.49
731.996	36.4
732.311	34.44
732.626	34.78
732.942	34.82
733.257	34.79
733.572	35.13
733.887	34.74
734.202	34.14
734.517	35.16
734.832	35.07
735.146	35.73
735.461	35.2
735.776	35.45
736.091	35.98
736.405	34.29
736.72	33.73
737.034	35.95
737.349	34.87
737.663	35.23
737.977	35.54
738.292	35.36
738.606	34.37
738.92	35.68
739.234	34.48
739.548	34.59
739.862	35.05
740.176	34.66
740.49	34.25
740.804	36.09
741.117	35.37
741.431	35.23
741.745	35.65
742.058	35.71
742.372	36.05
742.685	35.6
742.999	34.25
743.312	36.34
743.626	35.24
743.939	35.66
744.252	35.07
744.565	36.79
744.878	35.17
745.191	35.89
745.505	33.6
745.817	36.37
746.13	33.74
746.443	35.54
746.756	34.1
747.069	35.15
747.381	36.3
747.694	36.73
748.007	36.36
748.319	35.47
748.632	35.79
748.944	36.17
749.256	34.48
749.569	34.8
749.881	38.5
750.193	33.83
750.505	34.19
750.817	36.61
751.129	36.08
751.441	35.44
751.753	37.19
752.065	36.77
752.377	35.51
752.689	37.41
753	34.34
753.312	35.15
753.624	34.56
753.935	36.99
754.247	36.02
754.558	36.27
754.869	36.68
755.181	36.49
755.492	35.48
755.803	36.44
756.114	35.05
756.425	36.5
756.736	37.89
757.047	35.07
757.358	37.73
757.669	37.34
757.98	34.34
758.291	36.01
758.601	38.75
758.912	38.63
759.223	36.41
759.533	37.19
759.844	37.13
760.154	36.42
760.464	36.78
760.775	36.98
761.085	35.71
761.395	36.17
761.705	36.87
762.016	37.11
762.326	37.48
762.636	37.8
762.945	37.2
763.255	38.73
763.565	35.46
763.875	37.46
764.185	36.9
764.494	38.09
764.804	38.25
765.113	37.63
765.423	37.4
765.732	36.78
766.042	36.77
766.351	37.25
766.66	36.41
766.97	36.81
767.279	38.58
767.588	36.87
767.897	38.68
768.206	37.45
768.515	37.27
768.824	38.18
769.133	35.64
769.441	37.13
769.75	38.45
770.059	36.7
770.367	37.97
770.676	38.69
770.984	37.68
771.293	37.46
771.601	36.51
771.91	36.61
772.218	38.87
772.526	39.34
772.834	38.81
773.142	37.53
773.45	36.31
773.758	35.32
774.066	38.57
774.374	38.27
774.682	36.86
774.99	36.09
775.298	36.51
775.605	37.29
775.913	38.8
776.22	36.78
776.528	35.07
776.835	37.3
777.143	35.01
777.45	39.24
777.757	38.49
778.065	39.12
778.372	41.39
778.679	39.29
778.986	37.55
779.293	40.05
779.6	36.37
779.907	37.55
780.214	36.88
780.52	38.19
780.827	37.55
781.134	36.69
781.44	40.73
781.747	38.14
782.053	42.01
782.36	36.79
782.666	34.44
782.973	36.4
783.279	37.57
783.585	37.42
783.891	38.89
784.197	38.76
784.503	37.83
784.809	38.93
785.115	35.69
785.421	38.49
785.727	38.76
786.033	38.82
786.339	37.61
786.644	38.29
786.95	40.69
787.255	38.28
787.561	36.87
787.866	36.57
788.172	40.06
788.477	36.83
788.782	34.67
789.088	36.83
789.393	40.51
789.698	36.2
790.003	35.56
790.308	41.94
790.613	34.45
790.918	42.35
791.223	39.17
791.527	38.59
791.832	41.16
792.137	41.68
792.441	37.64
792.746	39.51
793.05	40.01
793.355	37.89
793.659	37.7
793.963	42.37
794.268	38.12
794.572	39.34
794.876	36.34
795.18	36.18
795.484	41.11
795.788	34.42
796.092	34.26
796.396	37.38
796.7	41.04
797.004	37.68
797.307	39.59
797.611	35.26
797.915	34.72
798.218	39.66
798.522	38.86
798.825	41.09
799.128	42.03
799.432	40.04
799.735	39.75
800.038	41.13
800.341	35.35
800.644	41.85
800.947	41.29
801.25	40.34
801.553	38.42
801.856	39.86
802.159	33.33
802.462	34.09
802.764	41.53
803.067	38.97
803.37	40.24
803.672	41.05
803.975	36.12
804.277	33.76
804.579	36.17
804.882	45.6
805.184	43.42
805.486	41.36
805.788	41.93
806.09	43.36
806.392	36.13
806.694	40.56
806.996	38.86
807.298	42.02
807.6	42.98
807.902	37.69
808.203	33.14
808.505	38.98
808.807	37.53
809.108	35.01
809.409	35.43
809.711	38.6
810.012	40.27
810.313	36.93
810.615	32.36
810.916	44.26
811.217	44.39
811.518	37.59
811.819	39.54
812.12	43.3
812.421	39.02
812.722	42.79
813.023	36.12
813.323	35.69
813.624	37.76
813.925	42.66
814.225	35.53
814.526	37.01
814.826	38.22
815.126	43.21
815.427	36.94
815.727	43.5
816.027	39.25
816.327	40.12
816.627	44.17
816.927	35.47
817.227	39.36
817.527	40.35
817.827	42.55
818.127	35.01
818.427	40.84
818.727	42.07
819.026	38.55
819.326	42.79
819.625	37.07
819.925	40.36
820.224	47.9
820.524	44.83
820.823	38.03
821.122	36.46
821.421	41.32
821.72	46.89
822.019	44.03
822.318	39.87
822.617	38.32
822.916	43.56
823.215	39.89
823.514	38.55
823.813	43.25
824.111	39.29
824.41	37.57
824.709	41.65
825.007	40.1
825.306	41.28
825.604	40.84
825.902	41.25
826.201	40.33
826.499	40.8
826.797	41.65
827.095	42.33
827.393	40.79
827.691	40.68
827.989	42.09
828.287	42.48
828.585	41.5
828.882	39.26
829.18	42.82
829.478	43.2
829.775	43.88
830.073	42.67
830.37	42.16
830.668	41.3
830.965	40.34
831.263	42.41
831.56	40.42
831.857	40.76
832.154	43.31
832.451	41.8
832.748	42.14
833.045	38.68
833.342	46.67
833.639	45.81
833.936	43.04
834.232	45.72
834.529	42.84
834.826	37.97
835.122	42.67
835.419	43.09
835.715	42.64
836.012	43.47
836.308	43.44
836.604	40.42
836.901	44.39
837.197	42.12
837.493	43.09
837.789	42.64
838.085	41.86
838.381	41.01
838.677	43.55
838.972	43.45
839.268	35.3
839.564	44.55
839.86	42.01
840.155	44.32
840.451	49.49
840.746	43.31
841.042	34.64
841.337	48.37
841.632	53.53
841.928	35.58
842.223	44.39
842.518	36.92
842.813	41.54
843.108	39.68
843.403	45.85
843.698	42.3
843.993	42.31
844.287	41.1
844.582	47.74
844.877	39.9
845.171	47.02
845.466	45.35
845.761	29.98
846.055	38.09
846.349	40.74
846.644	54.53
846.938	47.47
847.232	45.01
847.526	38.76
847.82	32.21
848.114	46.29
848.408	36.94
848.702	39.05
848.996	44.31
849.29	23.68
849.584	31.52
849.877	53.65
850.171	45.3
850.465	33.83
850.758	26.29
851.052	36.02
851.345	30.93
851.638	32.3
851.932	28.29
852.225	42.41
852.518	36.5
852.811	50.85
853.104	51.3
853.397	39.75
853.69	55.44
853.983	27.17
854.276	40.92
854.569	45.76
854.861	39.79
855.154	53.42
855.447	48.64
855.739	50.83
856.032	33.87
856.324	33.84
856.616	31.91
856.909	58.92
857.201	47.89
857.493	42.01
857.785	39.02
858.077	62.42
858.369	53.51
858.661	9.16
858.953	41.93
859.245	25.23
859.537	61.59
859.829	40.35
860.12	42.04
860.412	40.92
860.703	46.63
860.995	38.94
861.286	35.25
861.578	40.14
861.869	20.55
862.16	35.86
862.452	38.55
862.743	37.17
863.034	11.25
863.325	66.32
863.616	28.22
863.907	32.01
864.198	48.88
864.488	47.58
864.779	37.88
865.07	39.97
865.36	26
865.651	29.72
865.941	36.45
866.232	20.27
866.522	20.66
866.813	5.95
867.103	44.71
867.393	34.78
867.683	50.82
867.973	62.2
868.263	26.74
868.553	26.26
868.843	25.93
869.133	51.06
869.423	51.02
869.713	38.93
870.002	51.58
870.292	35.83
870.582	51.19
870.871	44.69
871.161	37.52
871.45	41.23
871.739	45.89
872.029	45.46
872.318	56.86
872.607	40.38
872.896	43.43
873.185	36.3
873.474	37.65
873.763	26.78
874.052	21.54
874.341	64.03
874.63	51.03
874.918	54.27
875.207	62.47
875.496	14.79
875.784	66.03
876.073	50.21
876.361	37.18
876.649	22.11
876.938	1.77
877.226	33.88
877.514	23.02
877.802	46.52
878.09	22.95
878.378	35.54
878.666	33.36
878.954	31.22
879.242	39.84
879.53	42.42
879.817	55.3
880.105	31.83
880.392	64
880.68	47.21
880.967	30.43
881.255	38.23
881.542	26.25
881.83	13.94
882.117	53.85
882.404	44.31
882.691	53.19
882.978	56.85
883.265	39.13
883.552	48.1
883.839	15.26
884.126	42.76
884.413	46.34
884.699	33.6
884.986	47.32
885.273	53.73
885.559	53.73
885.846	53.73
