Data from 0344_crown_Reflection__2__331.txt Node

Date: Fri Oct 20 23:18:20 CDT 2023
User: ToomeyLab
Spectrometer: FLMS14357
Trigger mode: 0
Integration Time (sec): 1.000000E-2
Scans to average: 100
Electric dark correction enabled: true
Nonlinearity correction enabled: false
Boxcar width: 0
XAxis mode: Wavelengths
Number of Pixels in Spectrum: 2048
>>>>>Begin Spectral Data<<<<<
189.047	-48.14
189.435	-48.14
189.823	-48.14
190.211	231.51
190.599	-16.66
190.987	154.5
191.375	-33.03
191.763	45.06
192.151	44.27
192.538	110.43
192.926	95.68
193.314	109.57
193.702	81.43
194.089	15.19
194.477	544.26
194.864	9.87
195.252	63.21
195.639	112.35
196.027	275.48
196.414	69.42
196.801	157.62
197.189	375.37
197.576	73.28
197.963	-111.87
198.351	30.88
198.738	50.93
199.125	30.64
199.512	20.55
199.899	21.39
200.286	-37.06
200.673	8.74
201.06	4.38
201.447	0.97
201.833	64.87
202.22	-2.85
202.607	60.49
202.994	25.18
203.38	17.63
203.767	-4.41
204.154	41.12
204.54	30.64
204.927	-9.62
205.313	-49.9
205.699	21.83
206.086	24.7
206.472	32.65
206.858	41.32
207.245	-59.35
207.631	8.66
208.017	21.03
208.403	3.58
208.789	36.41
209.175	-3.57
209.561	2.8
209.947	-12.06
210.333	0.67
210.719	-15.86
211.105	19.98
211.491	0.02
211.876	5.47
212.262	13.58
212.648	30.53
213.034	-5.49
213.419	3.37
213.805	5.15
214.19	-14.77
214.576	0.12
214.961	-1.7
215.346	22.77
215.732	-0.62
216.117	-70.43
216.502	9.68
216.888	6.08
217.273	-16.21
217.658	-12.17
218.043	-9.97
218.428	21.77
218.813	27.68
219.198	-5.2
219.583	-31.29
219.968	-30.03
220.353	9.81
220.738	0.64
221.122	17.61
221.507	4.09
221.892	-1.07
222.276	9.38
222.661	16.93
223.046	7.75
223.43	7.23
223.815	21.46
224.199	20.97
224.583	-7.82
224.968	-7.76
225.352	-5.67
225.736	5.04
226.121	3.99
226.505	2.63
226.889	7.43
227.273	10.77
227.657	6.58
228.041	14.95
228.425	12.85
228.809	5.73
229.193	6.21
229.577	10.6
229.961	5.66
230.344	7.93
230.728	6.62
231.112	7.81
231.495	6.99
231.879	8.19
232.263	8.29
232.646	5.77
233.03	8.3
233.413	6.37
233.797	7.06
234.18	5.37
234.563	8.67
234.946	6.33
235.33	9.78
235.713	5.72
236.096	8
236.479	7.54
236.862	7.41
237.245	6.91
237.628	7.51
238.011	7.69
238.394	7.36
238.777	7.95
239.16	6.37
239.543	9.9
239.925	7.58
240.308	6.81
240.691	6.73
241.073	7.35
241.456	5.95
241.838	6.89
242.221	9.04
242.603	7.55
242.986	7.5
243.368	7.69
243.75	7.59
244.133	6.89
244.515	7.32
244.897	6.99
245.279	7.26
245.661	7.18
246.043	6.78
246.425	6.94
246.807	6.82
247.189	6.7
247.571	6.17
247.953	7.02
248.335	7.46
248.717	6.79
249.098	6.77
249.48	6.75
249.862	7.1
250.243	7.31
250.625	7.41
251.006	7.15
251.388	7.15
251.769	7.18
252.151	6.49
252.532	6.6
252.913	7.56
253.295	5.87
253.676	6.53
254.057	6.84
254.438	7.09
254.819	6.64
255.2	7.01
255.581	6.76
255.962	5.19
256.343	6.72
256.724	5.85
257.105	7.05
257.486	6.42
257.867	6.86
258.247	7.09
258.628	5.51
259.009	6.17
259.389	5.86
259.77	6.44
260.15	6.2
260.531	6.33
260.911	6.59
261.292	6.45
261.672	6.63
262.052	6.73
262.432	6.6
262.813	6.22
263.193	6.75
263.573	6.69
263.953	6.01
264.333	6.53
264.713	5.95
265.093	6.43
265.473	6.56
265.853	6.77
266.233	6.21
266.612	6.37
266.992	6.68
267.372	6.11
267.752	6.64
268.131	6.74
268.511	6.41
268.89	6.29
269.27	6.47
269.649	5.48
270.029	6.21
270.408	6.61
270.787	6.07
271.167	6.23
271.546	6.44
271.925	7.04
272.304	6.35
272.683	6.37
273.062	6.65
273.441	6.25
273.82	6.33
274.199	6.43
274.578	6.01
274.957	6.41
275.336	6.63
275.715	6.14
276.093	6.73
276.472	6.32
276.851	6.63
277.229	6.29
277.608	5.75
277.986	5.9
278.365	6.71
278.743	6.02
279.122	6.03
279.5	6.09
279.878	5.1
280.257	6.04
280.635	6.18
281.013	6.09
281.391	6.23
281.769	5.84
282.147	5.76
282.525	5.98
282.903	6.02
283.281	6.24
283.659	6
284.037	6.3
284.415	5.53
284.792	5.88
285.17	6.11
285.548	5.73
285.925	5.38
286.303	5.75
286.68	5.79
287.058	6.26
287.435	6
287.813	5.36
288.19	5.83
288.567	6.17
288.945	6.68
289.322	6.25
289.699	5.88
290.076	6.28
290.453	5.81
290.83	5.84
291.207	6.54
291.584	5.6
291.961	5.7
292.338	5.89
292.715	5.92
293.092	5.88
293.469	6.28
293.845	5.94
294.222	6.04
294.599	6.2
294.975	6.37
295.352	5.92
295.728	6.1
296.105	5.98
296.481	6.1
296.858	5.73
297.234	6.18
297.61	5.62
297.986	6.2
298.363	6.25
298.739	6.1
299.115	6.01
299.491	6.08
299.867	6.04
300.243	6.21
300.619	6.24
300.995	5.78
301.371	6.69
301.746	5.94
302.122	6.46
302.498	5.88
302.874	6.29
303.249	6.27
303.625	6.22
304	6.71
304.376	5.78
304.751	5.78
305.127	5.85
305.502	6.43
305.878	6.15
306.253	6.09
306.628	6.38
307.003	6.1
307.378	5.62
307.754	6.33
308.129	6.37
308.504	6.46
308.879	6.29
309.254	6.72
309.629	5.96
310.003	5.54
310.378	6.49
310.753	6.37
311.128	6.45
311.502	6.43
311.877	6.26
312.252	6.17
312.626	6.02
313.001	6.56
313.375	6.21
313.75	6.08
314.124	5.84
314.498	6.21
314.873	6.01
315.247	6.27
315.621	6.34
315.995	6.74
316.369	6.35
316.743	5.84
317.117	6.11
317.491	5.9
317.865	6.63
318.239	6.69
318.613	6.31
318.987	5.6
319.361	5.73
319.734	6
320.108	5.58
320.482	6.19
320.855	6.63
321.229	6.74
321.602	5.98
321.976	6.31
322.349	6.73
322.723	6.75
323.096	6.52
323.469	6.28
323.843	6.04
324.216	5.99
324.589	6.56
324.962	6.62
325.335	6.49
325.708	6.21
326.081	6.4
326.454	6.24
326.827	6.49
327.2	6.17
327.573	6.39
327.945	5.87
328.318	5.99
328.691	5.56
329.063	6.53
329.436	5.67
329.809	6.31
330.181	6.86
330.553	6.24
330.926	6.33
331.298	5.97
331.671	6.39
332.043	6.16
332.415	6.23
332.787	6.14
333.159	6.12
333.532	6.31
333.904	5.86
334.276	6.05
334.648	6.28
335.02	6.58
335.391	5.67
335.763	6.52
336.135	6.19
336.507	6.52
336.879	6.24
337.25	6.46
337.622	6.46
337.993	6.46
338.365	6.04
338.736	6.24
339.108	6.33
339.479	5.68
339.851	6.66
340.222	6.27
340.593	5.93
340.964	6.08
341.336	6.89
341.707	6.47
342.078	6.41
342.449	5.86
342.82	6.23
343.191	5.91
343.562	6.28
343.933	6.44
344.303	6.3
344.674	6.62
345.045	6.57
345.416	6.54
345.786	6.14
346.157	6.29
346.527	6.6
346.898	6.39
347.268	6.15
347.639	6.31
348.009	6.14
348.38	6.51
348.75	6.23
349.12	6.39
349.49	6.13
349.861	6.5
350.231	6.19
350.601	5.97
350.971	6.58
351.341	7.14
351.711	6.68
352.081	6.42
352.45	5.88
352.82	6.76
353.19	6.76
353.56	6.45
353.929	6.36
354.299	5.95
354.669	6.77
355.038	6.82
355.408	6.26
355.777	6.12
356.147	6.24
356.516	5.95
356.885	6.61
357.254	6.34
357.624	5.89
357.993	6.06
358.362	6.49
358.731	5.98
359.1	6.07
359.469	6.1
359.838	6.38
360.207	6.5
360.576	6.85
360.945	6.36
361.314	6.33
361.682	6.27
362.051	6.21
362.42	6.19
362.788	6.47
363.157	6.21
363.525	6.15
363.894	6.34
364.262	6.33
364.631	6.23
364.999	6.42
365.367	6.47
365.735	6.5
366.104	6.06
366.472	6.35
366.84	6.32
367.208	6.3
367.576	6.32
367.944	6.39
368.312	6.27
368.68	6.48
369.048	6.66
369.416	6.39
369.783	6.54
370.151	6.78
370.519	6.35
370.886	6.53
371.254	6.73
371.621	6.7
371.989	6.33
372.356	6.47
372.724	6.74
373.091	6.56
373.458	6.33
373.826	6.44
374.193	6.19
374.56	6.61
374.927	6.56
375.294	6.78
375.661	6.66
376.028	6.88
376.395	7.02
376.762	6.48
377.129	6.51
377.496	6.32
377.863	6.6
378.229	6.5
378.596	6.43
378.963	6.41
379.329	6.68
379.696	6.45
380.062	6.59
380.429	6.35
380.795	6.48
381.161	6.49
381.528	6.55
381.894	6.53
382.26	6.58
382.626	6.87
382.993	6.73
383.359	6.39
383.725	6.42
384.091	6.52
384.457	6.83
384.823	6.44
385.188	6.97
385.554	6.44
385.92	6.78
386.286	6.75
386.651	6.58
387.017	6.84
387.383	6.68
387.748	6.27
388.114	6.65
388.479	6.74
388.845	6.67
389.21	6.3
389.575	6.42
389.94	6.58
390.306	6.49
390.671	6.49
391.036	6.65
391.401	6.77
391.766	6.84
392.131	6.7
392.496	6.65
392.861	6.65
393.226	6.66
393.591	6.63
393.956	6.62
394.32	6.81
394.685	6.48
395.05	6.78
395.414	6.8
395.779	6.4
396.143	6.61
396.508	6.68
396.872	6.8
397.236	6.56
397.601	6.65
397.965	6.5
398.329	6.38
398.694	6.89
399.058	6.49
399.422	6.89
399.786	6.28
400.15	6.77
400.514	6.85
400.878	6.83
401.242	6.84
401.605	6.67
401.969	6.41
402.333	6.78
402.697	6.75
403.06	6.83
403.424	6.34
403.787	6.84
404.151	6.63
404.514	6.78
404.878	6.66
405.241	6.63
405.604	6.81
405.968	6.73
406.331	6.79
406.694	6.63
407.057	6.78
407.42	7.03
407.783	6.82
408.146	6.74
408.509	6.8
408.872	6.93
409.235	6.62
409.598	6.89
409.961	7.04
410.323	6.83
410.686	6.67
411.049	6.9
411.411	6.8
411.774	6.81
412.136	6.81
412.499	6.99
412.861	7
413.223	6.85
413.586	6.69
413.948	6.77
414.31	7.08
414.672	6.88
415.035	6.87
415.397	6.84
415.759	6.92
416.121	7.03
416.483	6.96
416.845	6.83
417.206	6.84
417.568	6.87
417.93	6.86
418.292	6.63
418.653	6.92
419.015	6.79
419.377	6.84
419.738	6.54
420.1	6.77
420.461	6.86
420.822	6.67
421.184	6.67
421.545	6.71
421.906	6.83
422.267	6.76
422.629	6.82
422.99	6.65
423.351	6.81
423.712	6.76
424.073	6.79
424.434	6.66
424.795	6.83
425.155	6.77
425.516	6.86
425.877	6.73
426.238	6.65
426.598	6.8
426.959	6.67
427.32	6.82
427.68	6.86
428.041	6.87
428.401	6.9
428.761	6.97
429.122	6.84
429.482	6.93
429.842	6.77
430.202	6.84
430.563	6.89
430.923	6.99
431.283	7.05
431.643	7.2
432.003	7.2
432.363	7.04
432.722	6.97
433.082	6.97
433.442	7.04
433.802	7.1
434.161	7.01
434.521	6.96
434.881	6.96
435.24	6.99
435.6	6.99
435.959	7.02
436.319	6.97
436.678	7.02
437.037	6.95
437.396	7.1
437.756	7.09
438.115	6.83
438.474	7.07
438.833	7.03
439.192	6.95
439.551	6.92
439.91	7.06
440.269	7.12
440.628	7.09
440.987	6.98
441.345	6.97
441.704	6.88
442.063	6.96
442.421	6.87
442.78	7.03
443.138	7.05
443.497	7.06
443.855	6.99
444.214	7
444.572	6.96
444.93	7.08
445.288	7.2
445.647	7.1
446.005	6.89
446.363	7.16
446.721	6.97
447.079	7.29
447.437	7.1
447.795	6.93
448.153	6.98
448.51	6.97
448.868	6.92
449.226	7
449.584	6.94
449.941	6.93
450.299	6.98
450.656	6.95
451.014	6.97
451.371	7.07
451.729	6.93
452.086	6.98
452.443	7.22
452.801	7.05
453.158	7.13
453.515	7.2
453.872	7.24
454.229	7.2
454.586	7.19
454.943	7.04
455.3	6.98
455.657	7.13
456.014	7.15
456.371	7.12
456.727	7.06
457.084	7.06
457.441	7.19
457.797	7.28
458.154	7.09
458.51	7.21
458.867	7.1
459.223	7.28
459.58	7.03
459.936	7.25
460.292	7.17
460.648	6.91
461.005	7.09
461.361	7.05
461.717	6.96
462.073	7.06
462.429	7.06
462.785	7.06
463.141	7.27
463.496	7.17
463.852	7.26
464.208	7.39
464.564	7.4
464.919	7.18
465.275	7.24
465.631	7.4
465.986	7.21
466.342	7.22
466.697	7.19
467.052	7.19
467.408	7.23
467.763	7.36
468.118	7.47
468.473	7.45
468.829	7.39
469.184	7.58
469.539	7.35
469.894	7.31
470.249	7.35
470.603	7.34
470.958	7.43
471.313	7.27
471.668	7.33
472.023	7.4
472.377	7.45
472.732	7.3
473.086	7.5
473.441	7.54
473.795	7.59
474.15	7.47
474.504	7.23
474.859	7.28
475.213	7.46
475.567	7.42
475.921	7.39
476.275	7.32
476.63	7.55
476.984	7.36
477.338	7.4
477.692	7.39
478.045	7.45
478.399	7.32
478.753	7.52
479.107	7.3
479.461	7.31
479.814	7.45
480.168	7.49
480.521	7.39
480.875	7.43
481.228	7.51
481.582	7.52
481.935	7.33
482.289	7.4
482.642	7.3
482.995	7.24
483.348	7.38
483.701	7.3
484.055	7.32
484.408	7.23
484.761	7.1
485.114	7.21
485.466	7.06
485.819	6.97
486.172	6.93
486.525	6.95
486.878	7.05
487.23	7.08
487.583	7.18
487.936	7.23
488.288	7.29
488.641	7.31
488.993	7.14
489.345	7.18
489.698	7.15
490.05	7.13
490.402	7.1
490.754	7.18
491.107	7.18
491.459	7.31
491.811	7.37
492.163	7.31
492.515	7.39
492.866	7.35
493.218	7.2
493.57	7.14
493.922	7.17
494.274	7.21
494.625	7.21
494.977	7.39
495.328	7.42
495.68	7.48
496.031	7.48
496.383	7.55
496.734	7.39
497.086	7.48
497.437	7.55
497.788	7.44
498.139	7.57
498.49	7.43
498.842	7.33
499.193	7.46
499.544	7.51
499.894	7.52
500.245	7.47
500.596	7.51
500.947	7.53
501.298	7.51
501.648	7.63
501.999	7.47
502.35	7.53
502.7	7.6
503.051	7.69
503.401	7.55
503.752	7.59
504.102	7.6
504.452	7.61
504.803	7.59
505.153	7.69
505.503	7.56
505.853	7.79
506.203	7.59
506.553	7.51
506.903	7.54
507.253	7.63
507.603	7.55
507.953	7.77
508.303	7.63
508.652	7.72
509.002	7.68
509.352	7.63
509.701	7.58
510.051	7.56
510.4	7.66
510.75	7.59
511.099	7.62
511.449	7.69
511.798	7.71
512.147	7.59
512.496	7.7
512.846	7.59
513.195	7.66
513.544	7.64
513.893	7.44
514.242	7.67
514.591	7.63
514.939	7.52
515.288	7.46
515.637	7.78
515.986	7.59
516.334	7.67
516.683	7.5
517.032	7.63
517.38	7.57
517.729	7.79
518.077	7.77
518.426	7.79
518.774	7.65
519.122	7.67
519.47	7.76
519.819	7.64
520.167	7.57
520.515	7.58
520.863	7.65
521.211	7.65
521.559	7.63
521.907	7.55
522.255	7.69
522.602	7.71
522.95	7.64
523.298	7.79
523.645	7.76
523.993	7.73
524.341	7.66
524.688	7.7
525.036	7.81
525.383	7.71
525.73	7.87
526.078	7.81
526.425	7.82
526.772	7.76
527.119	7.63
527.466	7.65
527.814	7.69
528.161	7.67
528.508	7.54
528.854	7.69
529.201	7.67
529.548	7.74
529.895	7.6
530.242	7.55
530.588	7.43
530.935	7.39
531.282	7.47
531.628	7.54
531.975	7.5
532.321	7.59
532.667	7.65
533.014	7.7
533.36	7.73
533.706	7.79
534.052	7.72
534.399	7.54
534.745	7.6
535.091	7.61
535.437	7.67
535.783	7.62
536.129	7.7
536.474	7.67
536.82	7.8
537.166	7.83
537.512	7.87
537.857	7.85
538.203	7.78
538.549	7.87
538.894	7.79
539.239	7.73
539.585	7.81
539.93	7.87
540.276	7.96
540.621	7.94
540.966	7.98
541.311	7.98
541.656	7.99
542.001	8.04
542.346	7.98
542.691	7.86
543.036	7.71
543.381	7.67
543.726	7.64
544.071	7.69
544.415	7.7
544.76	7.74
545.105	7.84
545.449	7.82
545.794	7.91
546.138	7.87
546.483	7.85
546.827	7.99
547.171	8.03
547.516	7.9
547.86	7.96
548.204	7.91
548.548	8
548.892	7.8
549.236	7.91
549.58	7.96
549.924	7.99
550.268	8.19
550.612	8.11
550.956	8.16
551.3	8.06
551.643	8.07
551.987	8.07
552.33	8
552.674	8.04
553.017	8.27
553.361	8.18
553.704	8.07
554.048	8.04
554.391	8.08
554.734	8.19
555.077	8.09
555.42	8.03
555.764	8.14
556.107	8.24
556.45	8.09
556.793	8
557.135	8.11
557.478	8.04
557.821	8.15
558.164	8.16
558.507	8.14
558.849	8.33
559.192	8.31
559.534	8.18
559.877	8
560.219	8.3
560.562	8.39
560.904	8.12
561.246	8.3
561.589	8.1
561.931	8.28
562.273	8.34
562.615	8.25
562.957	8.39
563.299	8.25
563.641	8.22
563.983	8.15
564.325	8.14
564.667	8.28
565.008	8.28
565.35	8.25
565.692	8.34
566.033	8.37
566.375	8.15
566.716	8.28
567.058	8.29
567.399	8.28
567.741	8.11
568.082	8.4
568.423	8.25
568.764	8.16
569.105	8.17
569.447	8.23
569.788	8.38
570.129	8.26
570.47	8.3
570.811	8.26
571.151	8.16
571.492	8.42
571.833	8.51
572.174	8.46
572.514	8.39
572.855	8.31
573.195	8.3
573.536	8.29
573.876	8.25
574.217	8.24
574.557	8.15
574.898	8.28
575.238	8.29
575.578	8.27
575.918	8.3
576.258	8.44
576.598	8.42
576.938	8.41
577.278	8.31
577.618	8.1
577.958	8.14
578.298	8.22
578.638	8.36
578.977	8.47
579.317	8.24
579.657	8.31
579.996	8.56
580.336	8.28
580.675	8.27
581.014	8.49
581.354	8.45
581.693	8.61
582.032	8.18
582.372	8.37
582.711	8.47
583.05	8.6
583.389	8.42
583.728	8.51
584.067	8.45
584.406	8.61
584.745	8.64
585.083	8.31
585.422	8.59
585.761	8.52
586.1	8.66
586.438	8.2
586.777	8.67
587.115	8.86
587.454	8.56
587.792	8.41
588.13	8.45
588.469	8.55
588.807	8.21
589.145	8.54
589.483	8.57
589.821	8.43
590.159	8.52
590.497	8.68
590.835	8.64
591.173	8.51
591.511	8.71
591.849	8.34
592.187	8.52
592.524	8.44
592.862	8.47
593.2	8.59
593.537	8.38
593.875	8.57
594.212	8.7
594.55	8.57
594.887	8.45
595.224	8.57
595.561	8.49
595.899	8.49
596.236	8.68
596.573	8.6
596.91	8.72
597.247	8.55
597.584	8.61
597.921	8.71
598.258	8.78
598.594	8.73
598.931	8.45
599.268	8.34
599.604	8.56
599.941	8.39
600.277	8.53
600.614	8.77
600.95	8.81
601.287	8.67
601.623	8.94
601.959	8.73
602.296	8.68
602.632	8.69
602.968	8.52
603.304	8.65
603.64	8.66
603.976	8.85
604.312	8.81
604.648	8.6
604.984	8.91
605.319	8.42
605.655	8.53
605.991	8.68
606.326	8.72
606.662	8.41
606.998	8.43
607.333	8.61
607.668	8.52
608.004	8.71
608.339	8.62
608.674	8.71
609.01	8.61
609.345	8.81
609.68	8.69
610.015	8.83
610.35	8.75
610.685	8.81
611.02	8.59
611.355	8.74
611.689	8.68
612.024	8.66
612.359	8.87
612.694	8.75
613.028	8.72
613.363	8.77
613.697	8.83
614.032	9.06
614.366	8.94
614.7	8.83
615.035	9.01
615.369	8.91
615.703	8.75
616.037	8.98
616.371	8.72
616.705	8.84
617.039	8.63
617.373	8.81
617.707	8.77
618.041	9.13
618.375	8.8
618.709	8.92
619.042	9.05
619.376	9.24
619.71	9.22
620.043	9.17
620.377	8.75
620.71	9.11
621.043	9.07
621.377	8.87
621.71	8.86
622.043	8.84
622.376	9.13
622.709	8.97
623.043	8.94
623.376	9.01
623.709	8.33
624.041	8.75
624.374	9.3
624.707	8.81
625.04	9.33
625.373	9.01
625.705	9.22
626.038	8.99
626.37	8.65
626.703	8.69
627.035	9.01
627.368	9.09
627.7	9.15
628.032	8.71
628.365	9.03
628.697	9.12
629.029	8.75
629.361	8.95
629.693	8.99
630.025	9.22
630.357	8.97
630.689	8.94
631.021	9.22
631.353	9.12
631.684	8.95
632.016	9.12
632.348	9.05
632.679	9.25
633.011	9.22
633.342	9.04
633.674	9.13
634.005	9.14
634.336	9.43
634.668	8.96
634.999	8.94
635.33	8.52
635.661	9.42
635.992	9.09
636.323	9.39
636.654	9.3
636.985	9.12
637.316	9.25
637.647	8.89
637.977	8.97
638.308	8.94
638.639	9.01
638.969	9.23
639.3	8.88
639.63	9.11
639.961	9.01
640.291	9.15
640.622	9.06
640.952	9.26
641.282	9.36
641.612	9.43
641.943	9.68
642.273	9.06
642.603	9.74
642.933	9.19
643.263	9.6
643.592	9.17
643.922	9.5
644.252	9.22
644.582	9.07
644.911	9.15
645.241	9.44
645.571	9.96
645.9	8.91
646.23	9.27
646.559	8.9
646.888	9.46
647.218	9.74
647.547	9.29
647.876	8.95
648.205	9.79
648.534	8.75
648.863	9.54
649.192	9.29
649.521	9.47
649.85	9.4
650.179	9
650.508	8.85
650.837	9.41
651.165	9.6
651.494	9.17
651.822	9.79
652.151	9.83
652.479	9.25
652.808	9.24
653.136	9.32
653.465	9.35
653.793	9.66
654.121	9.43
654.449	9.56
654.777	9.4
655.105	9.41
655.433	9.89
655.761	9.69
656.089	9.66
656.417	9.5
656.745	9.31
657.073	9.59
657.4	10.56
657.728	10.09
658.056	9.58
658.383	9.34
658.711	9.21
659.038	9.48
659.365	9.82
659.693	9.45
660.02	9
660.347	9.74
660.674	9.43
661.001	9.79
661.329	9.75
661.656	9.87
661.982	9.49
662.309	9.82
662.636	10.03
662.963	9.65
663.29	9.55
663.616	9.82
663.943	9.67
664.27	10.25
664.596	10.03
664.923	9.36
665.249	9.32
665.576	9.66
665.902	9.83
666.228	10.41
666.554	10.16
666.881	9.36
667.207	9.9
667.533	10.05
667.859	10.12
668.185	10.01
668.511	9.9
668.837	10.15
669.162	9.94
669.488	10.12
669.814	9.77
670.139	9.79
670.465	9.66
670.791	10.25
671.116	9.4
671.442	9.72
671.767	9.92
672.092	10.14
672.418	9.94
672.743	9.81
673.068	10.07
673.393	10.16
673.718	10.3
674.043	10.12
674.368	10.47
674.693	10.31
675.018	10.48
675.343	9.81
675.667	9.81
675.992	10.15
676.317	10.34
676.641	9.87
676.966	10.65
677.29	9.99
677.615	10.56
677.939	9.88
678.264	10.67
678.588	9.31
678.912	9.9
679.236	9.98
679.56	9.98
679.885	10.36
680.209	10.15
680.532	9.53
680.856	9.84
681.18	9.71
681.504	10.33
681.828	10.5
682.152	10.55
682.475	9.33
682.799	10.01
683.122	10.24
683.446	10.05
683.769	10.53
684.093	10.06
684.416	10.41
684.739	9.73
685.062	9.89
685.386	9.86
685.709	10.07
686.032	10.13
686.355	10.25
686.678	10.41
687.001	10.57
687.324	9.13
687.646	10.32
687.969	10.4
688.292	10.24
688.614	10.72
688.937	10.7
689.26	10.06
689.582	10.45
689.904	9.87
690.227	10.33
690.549	10.31
690.871	10.5
691.194	11.23
691.516	10.62
691.838	10.83
692.16	10.23
692.482	10.19
692.804	10.19
693.126	9.89
693.448	10.99
693.769	9.68
694.091	10.92
694.413	10.82
694.735	10.17
695.056	9.6
695.378	11.16
695.699	10.7
696.021	9.94
696.342	10.55
696.663	10.56
696.984	9.77
697.306	10.89
697.627	10.4
697.948	10.08
698.269	10.36
698.59	10.21
698.911	10.84
699.232	9.79
699.553	10.45
699.873	10.37
700.194	10.9
700.515	9.96
700.835	10.61
701.156	10.62
701.477	10.78
701.797	10.23
702.117	10.47
702.438	10.5
702.758	10.29
703.078	10.64
703.398	10.3
703.719	10.51
704.039	10.45
704.359	11.18
704.679	10.76
704.999	11.17
705.319	10.76
705.638	10.65
705.958	10.56
706.278	10.62
706.597	11.48
706.917	10
707.237	10.57
707.556	10.04
707.876	10.32
708.195	12.03
708.514	10.82
708.834	11.13
709.153	10.42
709.472	10.83
709.791	10.94
710.11	11.31
710.429	11.71
710.748	11.82
711.067	11.1
711.386	10.38
711.705	10.39
712.023	10.74
712.342	11.14
712.661	10.72
712.979	10.78
713.298	10.56
713.616	10.08
713.935	11.59
714.253	11.2
714.572	11.07
714.89	11.69
715.208	11.34
715.526	11.32
715.844	10.9
716.162	11.73
716.48	11.27
716.798	10.98
717.116	10.03
717.434	11.15
717.752	11.83
718.069	10.93
718.387	11.12
718.705	11.37
719.022	11.84
719.34	11.02
719.657	11.68
719.975	10.61
720.292	10.42
720.609	10.77
720.927	11.28
721.244	11.64
721.561	12.8
721.878	10.23
722.195	10.83
722.512	11.1
722.829	11.78
723.146	11.25
723.463	10.59
723.779	12.27
724.096	11.8
724.413	11.27
724.729	11.35
725.046	12.01
725.362	11.71
725.679	11.34
725.995	12.87
726.311	11.83
726.628	9.87
726.944	11.57
727.26	11.36
727.576	10.99
727.892	11.03
728.208	11.71
728.524	10.52
728.84	11.25
729.156	11.74
729.472	10.67
729.787	12.08
730.103	10.93
730.419	12.87
730.734	11.35
731.05	10.8
731.365	9.81
731.681	11.79
731.996	12.66
732.311	11.6
732.626	11.64
732.942	10.02
733.257	11.66
733.572	11.97
733.887	11.86
734.202	12.63
734.517	12.44
734.832	12.32
735.146	13.34
735.461	11.66
735.776	11.72
736.091	11.25
736.405	10.92
736.72	12.65
737.034	12.72
737.349	12.16
737.663	10.88
737.977	12.06
738.292	10.84
738.606	11.2
738.92	12.09
739.234	11.05
739.548	11.22
739.862	12.5
740.176	11.52
740.49	10.99
740.804	12.7
741.117	12.77
741.431	11.25
741.745	12.24
742.058	11.32
742.372	12.2
742.685	12.73
742.999	10.53
743.312	12.55
743.626	11.97
743.939	13.15
744.252	12.22
744.565	11.21
744.878	11.47
745.191	11.2
745.505	11.58
745.817	12.74
746.13	11.21
746.443	12.5
746.756	11.43
747.069	12.06
747.381	12.47
747.694	11.14
748.007	13.06
748.319	13.9
748.632	11.27
748.944	12.6
749.256	12.26
749.569	11.82
749.881	12.55
750.193	12.88
750.505	9.92
750.817	11.84
751.129	10.79
751.441	12.33
751.753	10.49
752.065	13.89
752.377	10.92
752.689	13.66
753	13.17
753.312	10.96
753.624	9.81
753.935	12.78
754.247	12.07
754.558	13.56
754.869	13.26
755.181	12.67
755.492	12.51
755.803	11.55
756.114	11.3
756.425	13.49
756.736	14.26
757.047	11.11
757.358	13.92
757.669	11.72
757.98	11.1
758.291	12.91
758.601	12.15
758.912	13.49
759.223	11.02
759.533	14.34
759.844	15.28
760.154	14.27
760.464	14.14
760.775	11.25
761.085	12.03
761.395	13.59
761.705	11.59
762.016	14.22
762.326	15.08
762.636	12.78
762.945	11.64
763.255	14.19
763.565	13.07
763.875	12.16
764.185	12.06
764.494	13.77
764.804	12.04
765.113	13.19
765.423	12.93
765.732	12.56
766.042	13.36
766.351	12.95
766.66	11.28
766.97	12.3
767.279	12.64
767.588	11.73
767.897	12.03
768.206	12.47
768.515	12.1
768.824	11.69
769.133	10.27
769.441	11.99
769.75	13.65
770.059	12.57
770.367	12.44
770.676	15.02
770.984	13.2
771.293	10.95
771.601	13.43
771.91	11.37
772.218	14.66
772.526	15.44
772.834	13.09
773.142	14.15
773.45	10.01
773.758	12.59
774.066	16.36
774.374	12.79
774.682	12.41
774.99	12.71
775.298	8.94
775.605	13.79
775.913	14.5
776.22	11.68
776.528	13.4
776.835	10.59
777.143	8.79
777.45	17.33
777.757	13.02
778.065	15.11
778.372	16.38
778.679	12.62
778.986	12.42
779.293	13.75
779.6	13.76
779.907	11.61
780.214	11.72
780.52	12.83
780.827	14.24
781.134	9.44
781.44	13.23
781.747	11.75
782.053	14.3
782.36	11.18
782.666	12.98
782.973	12.1
783.279	10.99
783.585	15.56
783.891	6.29
784.197	12.22
784.503	17.36
784.809	9.94
785.115	11.22
785.421	14.35
785.727	15.92
786.033	12.53
786.339	15.35
786.644	14.25
786.95	18.3
787.255	12
787.561	13.86
787.866	10.79
788.172	16.47
788.477	8.88
788.782	13.27
789.088	13.78
789.393	13.49
789.698	11.8
790.003	13.85
790.308	18.33
790.613	13.57
790.918	15.15
791.223	11.62
791.527	11.38
791.832	16.79
792.137	15.91
792.441	10.71
792.746	15.63
793.05	12.93
793.355	14.94
793.659	14.93
793.963	15.93
794.268	10.25
794.572	12.48
794.876	11.61
795.18	12.16
795.484	10.73
795.788	13.59
796.092	11.39
796.396	12.71
796.7	13.63
797.004	13.69
797.307	12.87
797.611	13.79
797.915	10.63
798.218	9.16
798.522	10.33
798.825	15.51
799.128	13.55
799.432	11.01
799.735	14.59
800.038	13.02
800.341	11.29
800.644	16.59
800.947	14.46
801.25	11.91
801.553	11.58
801.856	15.76
802.159	11.6
802.462	16.27
802.764	17.36
803.067	16.61
803.37	14.91
803.672	11.71
803.975	12.97
804.277	10.85
804.579	13.01
804.882	13.22
805.184	16.14
805.486	16.3
805.788	15.87
806.09	13.27
806.392	14.9
806.694	14.26
806.996	14.47
807.298	12.9
807.6	16.09
807.902	10.58
808.203	18.43
808.505	18.32
808.807	9.7
809.108	6.87
809.409	14.56
809.711	7.82
810.012	14.83
810.313	11.14
810.615	11.69
810.916	13.47
811.217	10.49
811.518	13.59
811.819	16
812.12	14.08
812.421	9.25
812.722	14.53
813.023	13.39
813.323	8.3
813.624	10.72
813.925	15.79
814.225	15.71
814.526	18.87
814.826	12.04
815.126	15.81
815.427	12.11
815.727	20.51
816.027	14.18
816.327	18.59
816.627	19.55
816.927	13.17
817.227	10.72
817.527	7.14
817.827	14.56
818.127	19.29
818.427	22.23
818.727	8.11
819.026	4.28
819.326	17.15
819.625	10.44
819.925	16.23
820.224	18.33
820.524	18.04
820.823	13.63
821.122	4.23
821.421	14.85
821.72	17.66
822.019	16.09
822.318	13.4
822.617	7.29
822.916	18.27
823.215	12.37
823.514	14.05
823.813	16.14
824.111	14.94
824.41	15.49
824.709	17
825.007	16.32
825.306	15.96
825.604	15.13
825.902	16.08
826.201	15.34
826.499	15.77
826.797	16.34
827.095	16.58
827.393	14.76
827.691	16.57
827.989	16.21
828.287	18.33
828.585	15.89
828.882	14.86
829.18	17.78
829.478	16.21
829.775	16.23
830.073	15.6
830.37	17
830.668	17.28
830.965	14.06
831.263	17.2
831.56	16.48
831.857	12.54
832.154	16.96
832.451	18.42
832.748	17.4
833.045	11.65
833.342	18.37
833.639	17.54
833.936	18.12
834.232	18.16
834.529	16.84
834.826	11.74
835.122	16.06
835.419	21
835.715	18.03
836.012	16.34
836.308	18.13
836.604	15.82
836.901	15.08
837.197	18.11
837.493	14.72
837.789	17.45
838.085	17.2
838.381	17.44
838.677	15.02
838.972	17.3
839.268	15.45
839.564	18.65
839.86	20.69
840.155	15.29
840.451	16.67
840.746	19.98
841.042	25.51
841.337	16.03
841.632	19.42
841.928	12.31
842.223	14.03
842.518	8.81
842.813	23.92
843.108	13.66
843.403	14.61
843.698	24.41
843.993	11.44
844.287	12.7
844.582	10.04
844.877	21.42
845.171	18.53
845.466	9.15
845.761	12.84
846.055	16.26
846.349	15.29
846.644	5.78
846.938	24.41
847.232	6.11
847.526	8.98
847.82	11.12
848.114	18.68
848.408	23.49
848.702	3.6
848.996	26.88
849.29	12.8
849.584	1.74
849.877	28.72
850.171	17.71
850.465	3.43
850.758	11.97
851.052	14.33
851.345	14.83
851.638	2.42
851.932	8.48
852.225	23.75
852.518	24.32
852.811	14.88
853.104	8.94
853.397	21.41
853.69	3.87
853.983	7.54
854.276	16.46
854.569	25.2
854.861	18.51
855.154	39.12
855.447	21.5
855.739	12.57
856.032	12.5
856.324	9.43
856.616	4.83
856.909	2.92
857.201	14.54
857.493	14.37
857.785	14.97
858.077	29.63
858.369	19.76
858.661	5.09
858.953	4.66
859.245	5.69
859.537	-20.3
859.829	2
860.12	24.96
860.412	18.13
860.703	-5.43
860.995	54.32
861.286	-13.95
861.578	16.25
861.869	3.35
862.16	25.57
862.452	17.41
862.743	8.26
863.034	-0.39
863.325	11.1
863.616	-2.46
863.907	13.56
864.198	11.33
864.488	24.44
864.779	-3.3
865.07	0.39
865.36	12.92
865.651	25.97
865.941	40.31
866.232	16.21
866.522	14.15
866.813	10.43
867.103	-5.53
867.393	21.13
867.683	9.74
867.973	32.07
868.263	20.38
868.553	11.04
868.843	11.57
869.133	28.32
869.423	16.54
869.713	2.12
870.002	17.42
870.292	4.56
870.582	15.06
870.871	-18.57
871.161	15.32
871.45	30.99
871.739	11.92
872.029	0.77
872.318	25.68
872.607	20.26
872.896	4.88
873.185	23.02
873.474	17.05
873.763	28.16
874.052	23.04
874.341	10.56
874.63	26.86
874.918	-2.86
875.207	41.38
875.496	11.08
875.784	44.29
876.073	-8.47
876.361	15.98
876.649	-31.22
876.938	16.24
877.226	12.73
877.514	43.18
877.802	11.58
878.09	3.45
878.378	27.93
878.666	9.4
878.954	8.2
879.242	2.13
879.53	28.47
879.817	25.87
880.105	-21.34
880.392	10.98
880.68	15.14
880.967	16.33
881.255	18.47
881.542	12.58
881.83	8.21
882.117	24.35
882.404	10.99
882.691	1.61
882.978	32.29
883.265	-9.93
883.552	-6.9
883.839	-1.68
884.126	9.07
884.413	10.53
884.699	10.45
884.986	34.14
885.273	15.5
885.559	15.5
885.846	15.5
