Data from 0231_crown_Reflection__4__26.txt Node

Date: Fri Oct 20 20:50:37 CDT 2023
User: ToomeyLab
Spectrometer: FLMS14357
Trigger mode: 0
Integration Time (sec): 1.000000E-2
Scans to average: 100
Electric dark correction enabled: true
Nonlinearity correction enabled: false
Boxcar width: 0
XAxis mode: Wavelengths
Number of Pixels in Spectrum: 2048
>>>>>Begin Spectral Data<<<<<
189.047	-21.39
189.435	-21.39
189.823	-21.39
190.211	-11.42
190.599	630.77
190.987	350.22
191.375	-87.36
191.763	67.38
192.151	1507.32
192.538	-793.55
192.926	50.5
193.314	-57.06
193.702	205.26
194.089	64.39
194.477	94.37
194.864	61.62
195.252	85.17
195.639	2.38
196.027	90.69
196.414	-22.09
196.801	97.89
197.189	87.26
197.576	-106.27
197.963	-60.44
198.351	44.79
198.738	17.76
199.125	24.43
199.512	33.57
199.899	1.03
200.286	-11.02
200.673	35.75
201.06	-4.02
201.447	37.34
201.833	42.48
202.22	19.43
202.607	38.15
202.994	29.45
203.38	22.6
203.767	45.76
204.154	32.83
204.54	56.18
204.927	14.45
205.313	-6.26
205.699	44.49
206.086	36.73
206.472	55.81
206.858	54.11
207.245	6.61
207.631	25.07
208.017	43.6
208.403	21.43
208.789	53.35
209.175	31.61
209.561	30.2
209.947	25.49
210.333	32.12
210.719	15.59
211.105	53.12
211.491	49.95
211.876	6.11
212.262	46.41
212.648	22.67
213.034	11.93
213.419	8.38
213.805	25.95
214.19	6.07
214.576	18.21
214.961	23.28
215.346	53.59
215.732	11.32
216.117	-10.7
216.502	44.25
216.888	14.06
217.273	-11.92
217.658	-0.88
218.043	19.15
218.428	8.01
218.813	23.89
219.198	16.87
219.583	-2.54
219.968	7.33
220.353	30.34
220.738	18.78
221.122	23.54
221.507	22.24
221.892	9.38
222.276	24.67
222.661	28.94
223.046	12.9
223.43	11.28
223.815	25.21
224.199	21.79
224.583	-0.16
224.968	15.01
225.352	5.18
225.736	6.96
226.121	7.65
226.505	3.39
226.889	18.72
227.273	14.33
227.657	14.24
228.041	17.82
228.425	6.73
228.809	12.83
229.193	8.75
229.577	9.38
229.961	8.38
230.344	9.51
230.728	9.13
231.112	9.41
231.495	8.94
231.879	9.2
232.263	10.31
232.646	9.13
233.03	7.07
233.413	8.77
233.797	10.88
234.18	8.99
234.563	12.48
234.946	9.73
235.33	10.28
235.713	8.87
236.096	10.31
236.479	9.27
236.862	8.96
237.245	7.75
237.628	9.73
238.011	9.38
238.394	8.2
238.777	9.32
239.16	8.64
239.543	10.53
239.925	9.75
240.308	9.46
240.691	7.6
241.073	10.59
241.456	9.47
241.838	8.77
242.221	9.07
242.603	7.4
242.986	7.85
243.368	8.73
243.75	8.09
244.133	7.87
244.515	7.93
244.897	7.97
245.279	8.54
245.661	7.83
246.043	7.79
246.425	7.89
246.807	6.99
247.189	8.11
247.571	7.52
247.953	7.94
248.335	7.67
248.717	7.12
249.098	7.33
249.48	7.31
249.862	7.41
250.243	7.68
250.625	7.64
251.006	8.05
251.388	7.83
251.769	8.37
252.151	6.93
252.532	7.81
252.913	6.85
253.295	6.05
253.676	7.03
254.057	7.37
254.438	7.56
254.819	7.25
255.2	7.11
255.581	6.82
255.962	7.59
256.343	8.73
256.724	6.8
257.105	7.42
257.486	8.21
257.867	7.54
258.247	7.02
258.628	6.82
259.009	7.63
259.389	6.27
259.77	7.09
260.15	7.31
260.531	6.7
260.911	7.16
261.292	6.18
261.672	6.79
262.052	6.71
262.432	6.62
262.813	6.71
263.193	6.71
263.573	7.14
263.953	6.7
264.333	7.22
264.713	7.15
265.093	7.13
265.473	6.89
265.853	6.66
266.233	7.15
266.612	7.24
266.992	7.05
267.372	7.44
267.752	6.17
268.131	7.16
268.511	6.82
268.89	6.87
269.27	6.43
269.649	5.7
270.029	6.18
270.408	6.66
270.787	6.17
271.167	6.07
271.546	6.38
271.925	6.87
272.304	6.2
272.683	6.51
273.062	6.78
273.441	6.11
273.82	6.24
274.199	6.79
274.578	6.34
274.957	6.23
275.336	6.77
275.715	6.75
276.093	6.28
276.472	6.5
276.851	5.97
277.229	6.48
277.608	6.15
277.986	6.02
278.365	7.15
278.743	5.98
279.122	5.86
279.5	6.7
279.878	5.65
280.257	6.22
280.635	6.72
281.013	5.98
281.391	6.24
281.769	6.02
282.147	5.85
282.525	6.17
282.903	6.4
283.281	6.53
283.659	6.08
284.037	6.24
284.415	5.7
284.792	6.28
285.17	6.12
285.548	5.92
285.925	5.56
286.303	5.72
286.68	5.48
287.058	6.18
287.435	6.31
287.813	5.84
288.19	5.81
288.567	5.7
288.945	5.88
289.322	6.3
289.699	5.58
290.076	5.89
290.453	6.09
290.83	5.65
291.207	5.89
291.584	5.79
291.961	6.07
292.338	5.33
292.715	5.69
293.092	6.12
293.469	6.44
293.845	5.77
294.222	5.78
294.599	5.77
294.975	6.28
295.352	5.44
295.728	5.83
296.105	5.29
296.481	5.44
296.858	5.63
297.234	6.02
297.61	5.56
297.986	5.51
298.363	5.87
298.739	5.63
299.115	5.65
299.491	5.73
299.867	5.54
300.243	5.49
300.619	5.59
300.995	5.81
301.371	5.77
301.746	5.87
302.122	5.65
302.498	5.23
302.874	6.16
303.249	5.73
303.625	5.62
304	5.61
304.376	5.37
304.751	5.39
305.127	5.66
305.502	5.85
305.878	5.57
306.253	5.44
306.628	5.78
307.003	5.5
307.378	5.74
307.754	5.43
308.129	6.19
308.504	5.83
308.879	5.03
309.254	5.72
309.629	5.09
310.003	5.05
310.378	5.52
310.753	6.11
311.128	5.74
311.502	5.24
311.877	5.29
312.252	5.39
312.626	5.86
313.001	5.41
313.375	5.62
313.75	5.44
314.124	5.08
314.498	5.21
314.873	5.05
315.247	5.43
315.621	5.76
315.995	5.89
316.369	4.89
316.743	5.69
317.117	5.24
317.491	5.07
317.865	5.63
318.239	6.05
318.613	5.19
318.987	5.35
319.361	4.98
319.734	5.41
320.108	5.28
320.482	5.2
320.855	5.08
321.229	6.23
321.602	5.35
321.976	5.54
322.349	5.5
322.723	4.99
323.096	5.53
323.469	5.12
323.843	5.48
324.216	5.39
324.589	5.54
324.962	5.67
325.335	5.58
325.708	5.21
326.081	5.12
326.454	5.41
326.827	5.89
327.2	5.39
327.573	5.95
327.945	5.15
328.318	4.75
328.691	5.17
329.063	5.96
329.436	5.11
329.809	5.61
330.181	5.91
330.553	5.94
330.926	5.6
331.298	5.05
331.671	4.55
332.043	5.05
332.415	5.09
332.787	5.39
333.159	5.33
333.532	5.28
333.904	5.52
334.276	5.07
334.648	5.34
335.02	6.11
335.391	5.26
335.763	5.91
336.135	5.06
336.507	5.43
336.879	4.82
337.25	5.17
337.622	5.75
337.993	5.83
338.365	5.32
338.736	5.42
339.108	5.37
339.479	5.49
339.851	5.46
340.222	5.5
340.593	4.67
340.964	5.38
341.336	5.85
341.707	5.41
342.078	5.74
342.449	5.42
342.82	4.79
343.191	5.41
343.562	5.33
343.933	5.48
344.303	5.64
344.674	5.67
345.045	5.65
345.416	5.51
345.786	5.37
346.157	5.57
346.527	5.36
346.898	5.8
347.268	5.76
347.639	5.53
348.009	5.43
348.38	5.57
348.75	5.33
349.12	5.31
349.49	5.49
349.861	5.52
350.231	5.11
350.601	5.53
350.971	5.91
351.341	5.5
351.711	5.81
352.081	5.54
352.45	5.3
352.82	5.9
353.19	5.74
353.56	5.89
353.929	6.04
354.299	5.63
354.669	5.19
355.038	5.72
355.408	5.67
355.777	5.4
356.147	5.19
356.516	5.4
356.885	5.57
357.254	5.57
357.624	5.51
357.993	5.3
358.362	5.27
358.731	5.33
359.1	5.09
359.469	5.3
359.838	5.63
360.207	5.48
360.576	5.7
360.945	5.42
361.314	5.64
361.682	5.47
362.051	5.4
362.42	5.36
362.788	5.72
363.157	5.59
363.525	5.28
363.894	5.39
364.262	5.59
364.631	5.43
364.999	5.64
365.367	5.57
365.735	5.23
366.104	5.29
366.472	5.34
366.84	5.62
367.208	5.54
367.576	5.48
367.944	5.75
368.312	5.71
368.68	5.8
369.048	5.51
369.416	5.66
369.783	5.77
370.151	5.52
370.519	5.61
370.886	5.89
371.254	5.69
371.621	6.12
371.989	5.51
372.356	5.66
372.724	5.95
373.091	5.64
373.458	5.41
373.826	5.86
374.193	5.7
374.56	5.74
374.927	5.89
375.294	5.79
375.661	5.73
376.028	5.92
376.395	5.92
376.762	5.7
377.129	5.65
377.496	5.6
377.863	6.04
378.229	5.77
378.596	5.68
378.963	5.62
379.329	5.85
379.696	5.59
380.062	5.67
380.429	5.72
380.795	5.31
381.161	5.56
381.528	6.07
381.894	5.77
382.26	5.88
382.626	6.03
382.993	5.86
383.359	5.47
383.725	5.76
384.091	5.54
384.457	5.7
384.823	6.25
385.188	5.96
385.554	5.86
385.92	5.72
386.286	5.94
386.651	5.72
387.017	6.01
387.383	5.71
387.748	5.54
388.114	5.58
388.479	5.77
388.845	5.95
389.21	5.62
389.575	5.73
389.94	5.8
390.306	5.69
390.671	6.01
391.036	5.68
391.401	5.77
391.766	5.88
392.131	5.67
392.496	5.97
392.861	5.91
393.226	6.1
393.591	5.86
393.956	5.83
394.32	5.96
394.685	5.68
395.05	6.03
395.414	6.18
395.779	5.76
396.143	5.71
396.508	5.68
396.872	5.99
397.236	5.73
397.601	5.78
397.965	5.93
398.329	5.69
398.694	5.84
399.058	5.74
399.422	5.87
399.786	5.8
400.15	5.63
400.514	5.72
400.878	5.85
401.242	5.99
401.605	5.94
401.969	5.54
402.333	5.82
402.697	5.97
403.06	5.61
403.424	6.02
403.787	5.72
404.151	5.73
404.514	5.99
404.878	5.93
405.241	6.13
405.604	5.7
405.968	5.78
406.331	5.81
406.694	5.84
407.057	5.8
407.42	6.13
407.783	5.98
408.146	5.97
408.509	5.82
408.872	6
409.235	6.13
409.598	6.05
409.961	5.81
410.323	6.02
410.686	5.86
411.049	6.11
411.411	6.05
411.774	5.84
412.136	5.68
412.499	5.99
412.861	6.01
413.223	5.91
413.586	5.97
413.948	6.21
414.31	6.17
414.672	5.92
415.035	5.92
415.397	5.99
415.759	5.83
416.121	5.94
416.483	6.18
416.845	5.9
417.206	5.99
417.568	6.13
417.93	6.04
418.292	5.68
418.653	5.98
419.015	5.79
419.377	5.78
419.738	5.76
420.1	5.91
420.461	5.81
420.822	5.76
421.184	5.81
421.545	5.79
421.906	5.86
422.267	5.85
422.629	5.77
422.99	5.61
423.351	5.83
423.712	5.77
424.073	5.86
424.434	5.74
424.795	5.79
425.155	5.87
425.516	5.64
425.877	5.84
426.238	5.73
426.598	5.84
426.959	5.73
427.32	5.81
427.68	5.78
428.041	5.76
428.401	5.9
428.761	5.95
429.122	5.87
429.482	6.1
429.842	5.88
430.202	6.02
430.563	5.97
430.923	6.09
431.283	5.86
431.643	6.13
432.003	6.08
432.363	6.02
432.722	5.96
433.082	5.98
433.442	5.88
433.802	6.34
434.161	5.65
434.521	5.94
434.881	5.84
435.24	5.83
435.6	5.91
435.959	5.77
436.319	6.03
436.678	5.89
437.037	5.94
437.396	6
437.756	6.05
438.115	5.7
438.474	5.99
438.833	5.88
439.192	5.79
439.551	5.82
439.91	5.91
440.269	5.99
440.628	5.96
440.987	5.89
441.345	5.79
441.704	5.94
442.063	5.93
442.421	5.81
442.78	5.79
443.138	5.96
443.497	5.96
443.855	6.05
444.214	5.94
444.572	5.87
444.93	6.02
445.288	5.91
445.647	6.15
446.005	5.76
446.363	5.85
446.721	5.84
447.079	6.02
447.437	5.94
447.795	5.74
448.153	5.86
448.51	5.81
448.868	5.78
449.226	5.81
449.584	5.84
449.941	5.76
450.299	5.9
450.656	5.88
451.014	5.96
451.371	5.96
451.729	5.8
452.086	5.89
452.443	6.06
452.801	6
453.158	6.17
453.515	6
453.872	5.98
454.229	6.12
454.586	6.03
454.943	5.96
455.3	5.91
455.657	6.12
456.014	5.84
456.371	5.97
456.727	6.09
457.084	5.98
457.441	6.05
457.797	6.05
458.154	5.82
458.51	6.07
458.867	6.07
459.223	6.03
459.58	6.01
459.936	5.99
460.292	5.93
460.648	5.83
461.005	5.84
461.361	5.92
461.717	5.71
462.073	5.98
462.429	5.81
462.785	5.96
463.141	5.89
463.496	5.95
463.852	6.03
464.208	6
464.564	6.01
464.919	6.04
465.275	6.1
465.631	6.18
465.986	6.02
466.342	6.21
466.697	6.12
467.052	5.95
467.408	5.92
467.763	6.02
468.118	6.21
468.473	6.02
468.829	5.92
469.184	6.02
469.539	6.04
469.894	6.16
470.249	5.77
470.603	5.99
470.958	6.09
471.313	6.12
471.668	6.14
472.023	6.04
472.377	6.14
472.732	5.92
473.086	6.19
473.441	6
473.795	6.23
474.15	6.08
474.504	5.96
474.859	5.99
475.213	6.21
475.567	6.13
475.921	6.2
476.275	6.03
476.63	6.23
476.984	6.19
477.338	5.96
477.692	6
478.045	6.05
478.399	5.94
478.753	5.99
479.107	5.97
479.461	5.94
479.814	6.16
480.168	6.06
480.521	6.02
480.875	5.99
481.228	6.07
481.582	6.04
481.935	6.03
482.289	5.97
482.642	6.02
482.995	5.92
483.348	6.04
483.701	5.9
484.055	5.88
484.408	5.95
484.761	5.88
485.114	5.72
485.466	5.59
485.819	5.59
486.172	5.58
486.525	5.57
486.878	5.64
487.23	5.7
487.583	5.73
487.936	5.8
488.288	5.8
488.641	5.8
488.993	5.66
489.345	5.7
489.698	5.64
490.05	5.67
490.402	5.66
490.754	5.72
491.107	5.72
491.459	5.84
491.811	5.84
492.163	5.78
492.515	5.87
492.866	5.84
493.218	5.72
493.57	5.66
493.922	5.73
494.274	5.7
494.625	5.73
494.977	5.78
495.328	5.94
495.68	5.94
496.031	5.83
496.383	5.89
496.734	6
497.086	5.9
497.437	5.96
497.788	5.96
498.139	5.96
498.49	5.81
498.842	5.86
499.193	5.96
499.544	5.97
499.894	5.95
500.245	5.89
500.596	5.95
500.947	5.91
501.298	5.98
501.648	5.94
501.999	5.98
502.35	5.86
502.7	6.12
503.051	5.89
503.401	5.98
503.752	6.06
504.102	6.03
504.452	5.88
504.803	5.88
505.153	5.96
505.503	6.06
505.853	6.11
506.203	5.93
506.553	5.87
506.903	6
507.253	6
507.603	5.89
507.953	5.99
508.303	6.01
508.652	6
509.002	5.91
509.352	5.98
509.701	6.08
510.051	5.78
510.4	6
510.75	5.96
511.099	5.96
511.449	6.03
511.798	5.95
512.147	6.01
512.496	5.98
512.846	5.9
513.195	5.97
513.544	6.02
513.893	5.79
514.242	5.96
514.591	5.98
514.939	5.9
515.288	5.72
515.637	5.96
515.986	6.07
516.334	5.92
516.683	6.05
517.032	5.71
517.38	5.88
517.729	6.07
518.077	6
518.426	5.85
518.774	5.79
519.122	5.95
519.47	5.84
519.819	5.79
520.167	5.8
520.515	5.76
520.863	5.84
521.211	5.83
521.559	5.85
521.907	5.82
522.255	5.83
522.602	5.93
522.95	5.77
523.298	5.87
523.645	5.9
523.993	5.86
524.341	5.99
524.688	5.95
525.036	5.88
525.383	5.91
525.73	6.1
526.078	5.96
526.425	5.98
526.772	5.83
527.119	5.81
527.466	5.76
527.814	5.79
528.161	5.78
528.508	5.7
528.854	5.79
529.201	5.66
529.548	5.73
529.895	5.74
530.242	5.63
530.588	5.45
530.935	5.56
531.282	5.59
531.628	5.68
531.975	5.57
532.321	5.65
532.667	5.68
533.014	5.78
533.36	5.77
533.706	5.77
534.052	5.8
534.399	5.69
534.745	5.66
535.091	5.73
535.437	5.76
535.783	5.7
536.129	5.77
536.474	5.69
536.82	5.85
537.166	5.77
537.512	5.86
537.857	5.82
538.203	5.77
538.549	5.77
538.894	5.76
539.239	5.71
539.585	5.73
539.93	5.77
540.276	5.99
540.621	5.95
540.966	5.89
541.311	6.06
541.656	5.84
542.001	5.85
542.346	5.89
542.691	5.63
543.036	5.71
543.381	5.59
543.726	5.59
544.071	5.63
544.415	5.64
544.76	5.63
545.105	5.79
545.449	5.76
545.794	5.76
546.138	5.76
546.483	5.75
546.827	5.85
547.171	5.88
547.516	5.83
547.86	5.88
548.204	5.7
548.548	5.73
548.892	5.65
549.236	5.82
549.58	5.79
549.924	5.79
550.268	5.73
550.612	5.75
550.956	5.88
551.3	5.9
551.643	5.89
551.987	5.95
552.33	5.93
552.674	5.9
553.017	5.78
553.361	5.84
553.704	5.81
554.048	5.93
554.391	6.02
554.734	5.86
555.077	5.87
555.42	5.75
555.764	5.76
556.107	6.1
556.45	5.82
556.793	5.82
557.135	5.61
557.478	5.79
557.821	5.94
558.164	5.95
558.507	5.99
558.849	6.04
559.192	5.79
559.534	5.93
559.877	5.7
560.219	5.87
560.562	5.89
560.904	5.83
561.246	5.97
561.589	5.86
561.931	6
562.273	5.93
562.615	6.04
562.957	6.02
563.299	5.97
563.641	5.9
563.983	5.78
564.325	5.72
564.667	6.05
565.008	5.8
565.35	5.83
565.692	5.8
566.033	5.83
566.375	5.96
566.716	5.95
567.058	5.72
567.399	5.92
567.741	5.88
568.082	5.99
568.423	5.95
568.764	5.81
569.105	5.9
569.447	5.81
569.788	5.89
570.129	5.67
570.47	5.93
570.811	5.86
571.151	5.7
571.492	5.92
571.833	6
572.174	6.05
572.514	5.89
572.855	5.88
573.195	5.86
573.536	5.77
573.876	5.94
574.217	5.75
574.557	5.88
574.898	5.65
575.238	5.63
575.578	5.78
575.918	5.66
576.258	5.88
576.598	5.93
576.938	5.86
577.278	5.86
577.618	5.74
577.958	5.74
578.298	5.79
578.638	5.88
578.977	5.94
579.317	5.8
579.657	5.92
579.996	5.87
580.336	6.05
580.675	5.81
581.014	5.92
581.354	5.93
581.693	5.8
582.032	5.89
582.372	5.93
582.711	5.82
583.05	6.19
583.389	5.95
583.728	6.08
584.067	5.82
584.406	6.02
584.745	5.9
585.083	6.01
585.422	6.19
585.761	5.99
586.1	5.95
586.438	5.66
586.777	6.14
587.115	6.04
587.454	5.87
587.792	5.83
588.13	5.92
588.469	5.94
588.807	5.57
589.145	5.65
589.483	5.7
589.821	5.84
590.159	6.03
590.497	5.92
590.835	5.85
591.173	5.82
591.511	5.81
591.849	5.77
592.187	5.82
592.524	5.74
592.862	5.9
593.2	5.93
593.537	5.68
593.875	5.69
594.212	5.91
594.55	5.93
594.887	5.85
595.224	5.66
595.561	5.69
595.899	5.72
596.236	5.84
596.573	5.81
596.91	5.97
597.247	5.95
597.584	5.7
597.921	5.75
598.258	5.93
598.594	5.9
598.931	5.66
599.268	5.66
599.604	5.81
599.941	5.65
600.277	5.76
600.614	5.84
600.95	5.86
601.287	5.7
601.623	5.94
601.959	5.71
602.296	5.95
602.632	5.9
602.968	5.57
603.304	6.13
603.64	5.65
603.976	5.7
604.312	5.92
604.648	6.05
604.984	6.07
605.319	5.85
605.655	5.83
605.991	5.79
606.326	5.51
606.662	5.53
606.998	5.5
607.333	5.72
607.668	5.47
608.004	5.56
608.339	5.61
608.674	6.05
609.01	5.9
609.345	6.04
609.68	6.07
610.015	5.63
610.35	6
610.685	5.9
611.02	5.99
611.355	5.5
611.689	5.7
612.024	5.82
612.359	5.71
612.694	5.73
613.028	5.93
613.363	5.88
613.697	5.68
614.032	5.9
614.366	6.02
614.7	5.94
615.035	6.05
615.369	5.81
615.703	5.43
616.037	5.95
616.371	5.83
616.705	5.93
617.039	5.79
617.373	5.73
617.707	5.99
618.041	6.05
618.375	5.79
618.709	5.85
619.042	5.98
619.376	6.03
619.71	6.1
620.043	6.09
620.377	6.07
620.71	5.87
621.043	5.84
621.377	5.59
621.71	5.81
622.043	5.55
622.376	6.12
622.709	6.36
623.043	6.05
623.376	5.92
623.709	5.52
624.041	5.84
624.374	5.79
624.707	5.87
625.04	5.76
625.373	5.86
625.705	5.69
626.038	5.97
626.37	5.64
626.703	5.91
627.035	5.82
627.368	5.92
627.7	6.21
628.032	5.84
628.365	5.73
628.697	5.97
629.029	5.8
629.361	5.77
629.693	5.86
630.025	5.96
630.357	5.64
630.689	5.63
631.021	6.05
631.353	6.01
631.684	5.97
632.016	5.8
632.348	5.78
632.679	5.58
633.011	5.94
633.342	5.82
633.674	6.11
634.005	5.85
634.336	5.98
634.668	5.84
634.999	5.35
635.33	5.56
635.661	5.87
635.992	5.74
636.323	5.92
636.654	6.11
636.985	5.77
637.316	6
637.647	5.59
637.977	5.65
638.308	5.93
638.639	5.82
638.969	6
639.3	5.65
639.63	5.65
639.961	6.1
640.291	5.84
640.622	6.13
640.952	5.98
641.282	5.77
641.612	5.99
641.943	5.87
642.273	5.41
642.603	6.31
642.933	5.92
643.263	6.31
643.592	5.6
643.922	6.33
644.252	5.72
644.582	5.86
644.911	5.84
645.241	6.07
645.571	6.27
645.9	5.94
646.23	5.59
646.559	5.98
646.888	6.38
647.218	6.06
647.547	5.99
647.876	6.24
648.205	6.19
648.534	6.17
648.863	6.12
649.192	5.86
649.521	5.83
649.85	6.08
650.179	5.83
650.508	5.87
650.837	6.13
651.165	6.33
651.494	5.61
651.822	5.87
652.151	6.19
652.479	5.85
652.808	6.21
653.136	5.6
653.465	6.31
653.793	6.09
654.121	6.33
654.449	6.12
654.777	6.03
655.105	5.88
655.433	6.35
655.761	5.97
656.089	6.37
656.417	6.33
656.745	6.42
657.073	5.8
657.4	6.84
657.728	6.12
658.056	5.65
658.383	6.43
658.711	6.25
659.038	6.31
659.365	6.36
659.693	6.01
660.02	5.91
660.347	5.79
660.674	6.15
661.001	5.93
661.329	6.15
661.656	5.92
661.982	5.69
662.309	5.92
662.636	5.86
662.963	5.93
663.29	5.98
663.616	6.35
663.943	5.88
664.27	6.23
664.596	6.29
664.923	5.99
665.249	6.1
665.576	5.81
665.902	6.19
666.228	6.29
666.554	6.27
666.881	6.44
667.207	6.12
667.533	6.18
667.859	6.3
668.185	6.74
668.511	6.52
668.837	6.3
669.162	6.99
669.488	6.3
669.814	5.66
670.139	6.14
670.465	6.65
670.791	6.39
671.116	6.17
671.442	6.36
671.767	6.64
672.092	6.34
672.418	6.39
672.743	6.12
673.068	7.02
673.393	6.3
673.718	5.59
674.043	6.1
674.368	6.6
674.693	6.25
675.018	6.8
675.343	6.32
675.667	5.75
675.992	5.98
676.317	6.16
676.641	6.72
676.966	6.34
677.29	6.46
677.615	6.01
677.939	6.32
678.264	6.36
678.588	5.54
678.912	7.15
679.236	5.97
679.56	6.47
679.885	7.16
680.209	6.22
680.532	6.06
680.856	5.96
681.18	6.27
681.504	5.86
681.828	6.46
682.152	6.34
682.475	5.63
682.799	6.05
683.122	6.51
683.446	6.74
683.769	6.12
684.093	6.54
684.416	6.36
684.739	6.03
685.062	5.5
685.386	6.62
685.709	6.29
686.032	6.15
686.355	6.93
686.678	6.83
687.001	6.48
687.324	5.84
687.646	5.76
687.969	7.21
688.292	6.97
688.614	6.65
688.937	6.34
689.26	6.26
689.582	6.11
689.904	5.95
690.227	6.72
690.549	6.84
690.871	6.18
691.194	5.93
691.516	5.77
691.838	6.44
692.16	6.43
692.482	6.13
692.804	6.49
693.126	5.8
693.448	7.3
693.769	6.37
694.091	6.58
694.413	6.44
694.735	5.94
695.056	6.27
695.378	6.68
695.699	6.23
696.021	7.36
696.342	6.94
696.663	6.91
696.984	6.61
697.306	7.2
697.627	7.1
697.948	7.27
698.269	6.62
698.59	6.53
698.911	5.94
699.232	6.64
699.553	6.95
699.873	7.68
700.194	7
700.515	6.07
700.835	6.77
701.156	6.78
701.477	6.29
701.797	6.02
702.117	5.93
702.438	6.56
702.758	6.74
703.078	6.56
703.398	6.33
703.719	6.56
704.039	7.17
704.359	6.64
704.679	6.87
704.999	5.94
705.319	6.57
705.638	6.5
705.958	7.19
706.278	6.39
706.597	6.88
706.917	6.05
707.237	6.76
707.556	5.54
707.876	6.48
708.195	8.27
708.514	6.05
708.834	7.35
709.153	7.19
709.472	6.3
709.791	7.39
710.11	7.78
710.429	7.3
710.748	7.13
711.067	6.48
711.386	6.86
711.705	7.3
712.023	7.5
712.342	6.39
712.661	6.28
712.979	6.44
713.298	6.3
713.616	6.35
713.935	6.37
714.253	6.33
714.572	6.54
714.89	7.23
715.208	6.35
715.526	8.25
715.844	6.68
716.162	7.21
716.48	7.08
716.798	7.63
717.116	7.26
717.434	6.86
717.752	7.18
718.069	7.32
718.387	6.83
718.705	6.22
719.022	6.96
719.34	7.16
719.657	6.49
719.975	6.71
720.292	5.98
720.609	7.76
720.927	6.13
721.244	7.45
721.561	8.03
721.878	7.42
722.195	7.58
722.512	8.4
722.829	7.38
723.146	6.95
723.463	6.86
723.779	7.71
724.096	7.93
724.413	7.13
724.729	6.62
725.046	7.48
725.362	7.45
725.679	7.18
725.995	8.76
726.311	8.91
726.628	7.23
726.944	7.72
727.26	5.18
727.576	6.9
727.892	6.61
728.208	7.21
728.524	6.57
728.84	8.21
729.156	7.91
729.472	8.03
729.787	8.06
730.103	7.21
730.419	7.12
730.734	6.67
731.05	6.5
731.365	5.5
731.681	7.01
731.996	8.11
732.311	7.36
732.626	7.83
732.942	6.65
733.257	6.74
733.572	7.67
733.887	7.11
734.202	7.17
734.517	7.9
734.832	7.3
735.146	8.57
735.461	8.02
735.776	6.6
736.091	7.86
736.405	7.07
736.72	7.57
737.034	7.65
737.349	7.2
737.663	6.32
737.977	7.25
738.292	6.91
738.606	7.55
738.92	8.8
739.234	6.43
739.548	5.84
739.862	6.84
740.176	8.48
740.49	6.03
740.804	8.85
741.117	7.23
741.431	7.17
741.745	7.84
742.058	7.15
742.372	7.93
742.685	6.19
742.999	6.67
743.312	7
743.626	6.75
743.939	9.1
744.252	7.03
744.565	9.1
744.878	7.29
745.191	9.18
745.505	6.18
745.817	8.64
746.13	7.11
746.443	9.38
746.756	8.91
747.069	6.84
747.381	7.68
747.694	6.63
748.007	8.57
748.319	9.6
748.632	6.02
748.944	6.96
749.256	10.18
749.569	6.64
749.881	8.73
750.193	7.28
750.505	6.96
750.817	9.07
751.129	8.26
751.441	7.67
751.753	7.89
752.065	9.91
752.377	9.68
752.689	7.55
753	7.4
753.312	5.2
753.624	5.35
753.935	8.69
754.247	8.92
754.558	8.45
754.869	8.37
755.181	8.46
755.492	7.72
755.803	6.78
756.114	7.52
756.425	7.24
756.736	8.72
757.047	8.06
757.358	9.44
757.669	8.72
757.98	8.18
758.291	7.74
758.601	8.99
758.912	8.39
759.223	6.68
759.533	10.53
759.844	9.35
760.154	8.9
760.464	9.03
760.775	8.13
761.085	8.23
761.395	9.41
761.705	7.78
762.016	10.55
762.326	9.83
762.636	8.35
762.945	6.44
763.255	7.82
763.565	7.02
763.875	9.13
764.185	8.05
764.494	9.39
764.804	9.13
765.113	8.1
765.423	7.46
765.732	7.51
766.042	8.31
766.351	9.17
766.66	7.35
766.97	7.93
767.279	7.79
767.588	7.17
767.897	7.84
768.206	7.01
768.515	8.28
768.824	7.53
769.133	5.64
769.441	6.62
769.75	7.58
770.059	8.56
770.367	8.9
770.676	11.14
770.984	9.22
771.293	8.18
771.601	8
771.91	8.88
772.218	9.85
772.526	8.94
772.834	8.31
773.142	7.33
773.45	4.88
773.758	8.35
774.066	9.41
774.374	9.61
774.682	9.29
774.99	6.64
775.298	6.49
775.605	9.03
775.913	8.14
776.22	6.79
776.528	10.67
776.835	9.16
777.143	6.4
777.45	12.58
777.757	7.87
778.065	11.78
778.372	11.59
778.679	10.17
778.986	7.67
779.293	10.71
779.6	8.11
779.907	10.93
780.214	10.91
780.52	12.06
780.827	6.86
781.134	9.91
781.44	11.4
781.747	10.79
782.053	9.53
782.36	8.24
782.666	10.14
782.973	8.78
783.279	7.43
783.585	8.2
783.891	6.18
784.197	8.99
784.503	10.31
784.809	8.22
785.115	9.13
785.421	7.35
785.727	10.45
786.033	13.65
786.339	9.42
786.644	8.52
786.95	15.12
787.255	9.03
787.561	11.71
787.866	9.94
788.172	10.41
788.477	8.74
788.782	7.41
789.088	10.49
789.393	6.05
789.698	3.53
790.003	9.7
790.308	12.04
790.613	10.98
790.918	10.76
791.223	8.12
791.527	6.95
791.832	14.59
792.137	10.81
792.441	8.43
792.746	6.71
793.05	6.35
793.355	7.48
793.659	10.02
793.963	6.37
794.268	9.46
794.572	10.83
794.876	8.26
795.18	5.8
795.484	5.55
795.788	7.23
796.092	6.15
796.396	11.55
796.7	6.86
797.004	10.84
797.307	15.06
797.611	13.28
797.915	7.49
798.218	10.56
798.522	10.06
798.825	10.05
799.128	12.64
799.432	4.38
799.735	9.28
800.038	7.1
800.341	8.55
800.644	14.89
800.947	9.68
801.25	7.08
801.553	13.42
801.856	11.06
802.159	8.39
802.462	9.48
802.764	10.32
803.067	11.49
803.37	8.88
803.672	8.28
803.975	8.52
804.277	4.74
804.579	3.45
804.882	9.7
805.184	13.47
805.486	10.75
805.788	12.63
806.09	9.08
806.392	12.86
806.694	8.48
806.996	9.13
807.298	10.82
807.6	12.68
807.902	8.85
808.203	15.92
808.505	13.34
808.807	3.89
809.108	3.29
809.409	9.78
809.711	5.18
810.012	7.71
810.313	2.87
810.615	9.33
810.916	13.86
811.217	8.58
811.518	8.22
811.819	5.28
812.12	17.26
812.421	5.22
812.722	13.15
813.023	12.6
813.323	6.57
813.624	7.63
813.925	8.78
814.225	11.88
814.526	13.73
814.826	12.33
815.126	13.21
815.427	5.42
815.727	18.88
816.027	12.82
816.327	13.43
816.627	16.96
816.927	7.99
817.227	12.57
817.527	3.94
817.827	15.07
818.127	12.32
818.427	13.08
818.727	9.98
819.026	6.35
819.326	12.06
819.625	13.57
819.925	10.48
820.224	17.94
820.524	19.08
820.823	10.12
821.122	6.24
821.421	16.73
821.72	16.53
822.019	9.06
822.318	11.79
822.617	9.53
822.916	11.71
823.215	13.63
823.514	10.95
823.813	9.92
824.111	11.84
824.41	9.44
824.709	10.13
825.007	9.26
825.306	9.88
825.604	9.43
825.902	9.65
826.201	10.16
826.499	10.73
826.797	9.94
827.095	8.87
827.393	8.71
827.691	10.36
827.989	8.99
828.287	7.11
828.585	8.04
828.882	10.25
829.18	9.51
829.478	11.97
829.775	10.2
830.073	9.29
830.37	10.26
830.668	10.72
830.965	10.34
831.263	9.44
831.56	11.21
831.857	9.48
832.154	9.7
832.451	12.28
832.748	11.62
833.045	8.54
833.342	12.11
833.639	16.57
833.936	15.95
834.232	18.55
834.529	13.28
834.826	9.8
835.122	11.73
835.419	14.5
835.715	11.74
836.012	11
836.308	6.83
836.604	12.84
836.901	13.24
837.197	10.93
837.493	15.18
837.789	9.21
838.085	10.12
838.381	14.33
838.677	9.41
838.972	9.94
839.268	4.44
839.564	12.87
839.86	12.46
840.155	14.36
840.451	14.92
840.746	15.68
841.042	16.17
841.337	11.88
841.632	13.66
841.928	14.75
842.223	16.7
842.518	10.2
842.813	12.46
843.108	19.83
843.403	15.11
843.698	16.91
843.993	12.51
844.287	12.83
844.582	15.36
844.877	20.12
845.171	16.33
845.466	17.15
845.761	19.11
846.055	32.74
846.349	23.89
846.644	18.99
846.938	29.23
847.232	25.78
847.526	25.3
847.82	9.91
848.114	23.86
848.408	17.65
848.702	16.53
848.996	29.1
849.29	25.7
849.584	12.33
849.877	28.89
850.171	19.25
850.465	11.19
850.758	3.75
851.052	9.96
851.345	16.56
851.638	17.69
851.932	7.47
852.225	30.59
852.518	30.32
852.811	11.58
853.104	28.27
853.397	16.35
853.69	18.57
853.983	-1.57
854.276	6.39
854.569	26.76
854.861	3.15
855.154	27.22
855.447	12.82
855.739	27.75
856.032	24.19
856.324	3.62
856.616	-1.9
856.909	25.25
857.201	32.43
857.493	29.84
857.785	18.46
858.077	9.96
858.369	12.67
858.661	21.24
858.953	14.81
859.245	12.15
859.537	8.96
859.829	14.28
860.12	33.77
860.412	7.21
860.703	22.87
860.995	26.48
861.286	12.29
861.578	33.58
861.869	-1.66
862.16	11.72
862.452	-4.62
862.743	17.59
863.034	26.39
863.325	31.09
863.616	-2.18
863.907	25.58
864.198	37.06
864.488	20.94
864.779	37.63
865.07	25.42
865.36	29.91
865.651	32.65
865.941	41.44
866.232	30.15
866.522	-1.03
866.813	3.44
867.103	9.14
867.393	19.38
867.683	23.65
867.973	40.59
868.263	34.31
868.553	24.85
868.843	22.82
869.133	23.92
869.423	9.66
869.713	32.05
870.002	18.4
870.292	-4.28
870.582	23.89
870.871	11.57
871.161	37.5
871.45	9.81
871.739	-6.38
872.029	21.5
872.318	41.37
872.607	25.59
872.896	23.86
873.185	58.32
873.474	26.75
873.763	17.75
874.052	31.38
874.341	41.65
874.63	24.2
874.918	7.3
875.207	35.16
875.496	36.28
875.784	13.51
876.073	1.28
876.361	28.36
876.649	11.84
876.938	-3.11
877.226	28.9
877.514	12.86
877.802	29.98
878.09	-7.93
878.378	46.92
878.666	11.8
878.954	47.12
879.242	20.35
879.53	9.11
879.817	18.48
880.105	20.32
880.392	32.3
880.68	21.21
880.967	10.64
881.255	38.12
881.542	40.01
881.83	18.81
882.117	36.61
882.404	8.68
882.691	35.6
882.978	36.78
883.265	29.56
883.552	14.28
883.839	15.67
884.126	26.69
884.413	14.04
884.699	18.41
884.986	22.25
885.273	14.79
885.559	14.79
885.846	14.79
