Data from 0231_crown_Reflection__3__25.txt Node

Date: Fri Oct 20 20:50:28 CDT 2023
User: ToomeyLab
Spectrometer: FLMS14357
Trigger mode: 0
Integration Time (sec): 1.000000E-2
Scans to average: 100
Electric dark correction enabled: true
Nonlinearity correction enabled: false
Boxcar width: 0
XAxis mode: Wavelengths
Number of Pixels in Spectrum: 2048
>>>>>Begin Spectral Data<<<<<
189.047	-88.33
189.435	-88.33
189.823	-88.33
190.211	83.6
190.599	810.9
190.987	76.75
191.375	420.13
191.763	35.26
192.151	-1083.54
192.538	287.9
192.926	31.78
193.314	80.28
193.702	152.4
194.089	7.13
194.477	235.61
194.864	-27.87
195.252	253.31
195.639	84.85
196.027	95.09
196.414	40.69
196.801	103.29
197.189	18.43
197.576	582.26
197.963	-154.05
198.351	78.25
198.738	49.57
199.125	24.25
199.512	55.77
199.899	10.96
200.286	-8.57
200.673	46.97
201.06	-13.52
201.447	-23.4
201.833	58.63
202.22	6.73
202.607	14.89
202.994	56.38
203.38	53.67
203.767	25.93
204.154	10.5
204.54	59.63
204.927	21.91
205.313	7.39
205.699	70.73
206.086	7.85
206.472	34.26
206.858	69.28
207.245	5.05
207.631	42.5
208.017	29.94
208.403	24.35
208.789	49.11
209.175	0.43
209.561	33.35
209.947	18.26
210.333	30.37
210.719	31.17
211.105	37.67
211.491	8.92
211.876	13.82
212.262	6.31
212.648	35.55
213.034	13.76
213.419	36.09
213.805	12.94
214.19	29.4
214.576	1.93
214.961	31.9
215.346	24.25
215.732	23.97
216.117	-0.01
216.502	22.8
216.888	5.07
217.273	31.14
217.658	19.59
218.043	28.47
218.428	20.79
218.813	17.68
219.198	20.57
219.583	-2.35
219.968	12.75
220.353	13.72
220.738	35.25
221.122	15.25
221.507	-0.61
221.892	16.14
222.276	14.91
222.661	24.69
223.046	8.55
223.43	2
223.815	19.07
224.199	19.52
224.583	2.99
224.968	2.64
225.352	-5.66
225.736	19.88
226.121	5.1
226.505	6.42
226.889	11.9
227.273	16.58
227.657	11.68
228.041	15.89
228.425	13.09
228.809	12.15
229.193	9.24
229.577	10.01
229.961	6.5
230.344	7.81
230.728	7.72
231.112	9.02
231.495	7.86
231.879	8.58
232.263	9.4
232.646	7.31
233.03	8.52
233.413	7.69
233.797	8.84
234.18	7.63
234.563	8.71
234.946	10.63
235.33	9.63
235.713	8.82
236.096	10.72
236.479	9.74
236.862	8.09
237.245	7.35
237.628	8.11
238.011	8.15
238.394	7.36
238.777	10.99
239.16	6.48
239.543	9.01
239.925	11.26
240.308	7.74
240.691	7.62
241.073	9.46
241.456	8.44
241.838	7.37
242.221	10.07
242.603	8.46
242.986	7.45
243.368	7.41
243.75	7.55
244.133	6.7
244.515	7.29
244.897	7.55
245.279	7.97
245.661	7.55
246.043	7.69
246.425	6.74
246.807	7.33
247.189	6.76
247.571	6.72
247.953	7.62
248.335	7.29
248.717	6.75
249.098	6.58
249.48	6.39
249.862	7.15
250.243	7.55
250.625	7.11
251.006	7.15
251.388	7.3
251.769	7.66
252.151	6.63
252.532	7.1
252.913	6.22
253.295	6.85
253.676	6.64
254.057	6.57
254.438	6.44
254.819	6.76
255.2	6.67
255.581	6.51
255.962	7.92
256.343	7.87
256.724	5.14
257.105	6.02
257.486	6.16
257.867	7.05
258.247	6.66
258.628	6.6
259.009	6.14
259.389	6.18
259.77	6.46
260.15	7.02
260.531	6.53
260.911	6.63
261.292	5.99
261.672	6.05
262.052	6.36
262.432	6.32
262.813	6.3
263.193	6.42
263.573	6.48
263.953	6.8
264.333	6.32
264.713	6.77
265.093	6.89
265.473	6.33
265.853	6.66
266.233	6.39
266.612	5.77
266.992	6.53
267.372	6.28
267.752	5.23
268.131	6.27
268.511	6.35
268.89	6.35
269.27	5.9
269.649	5.84
270.029	5.97
270.408	6.04
270.787	6.3
271.167	5.75
271.546	5.97
271.925	6.7
272.304	6.13
272.683	6.24
273.062	5.93
273.441	6.38
273.82	6.1
274.199	6.19
274.578	6.23
274.957	6.4
275.336	6.17
275.715	6.34
276.093	5.82
276.472	6.14
276.851	6.77
277.229	6.39
277.608	5.31
277.986	5.56
278.365	6.27
278.743	5.59
279.122	6.29
279.5	5.83
279.878	5.63
280.257	6.2
280.635	6.34
281.013	6.34
281.391	6.22
281.769	5.58
282.147	6.05
282.525	6.24
282.903	5.88
283.281	5.88
283.659	5.96
284.037	5.82
284.415	5.47
284.792	5.78
285.17	6.26
285.548	5.65
285.925	5.4
286.303	5.91
286.68	5.34
287.058	6.22
287.435	5.77
287.813	5.55
288.19	5.64
288.567	5.88
288.945	5.98
289.322	6.04
289.699	5.01
290.076	5.92
290.453	5.77
290.83	5.44
291.207	6.06
291.584	5.26
291.961	5.52
292.338	5.63
292.715	5.33
293.092	5.47
293.469	5.99
293.845	5.18
294.222	5.74
294.599	6.01
294.975	6.4
295.352	6.2
295.728	5.71
296.105	5.53
296.481	5.55
296.858	5.66
297.234	5.85
297.61	4.9
297.986	5.45
298.363	5.36
298.739	5.24
299.115	5.31
299.491	5.43
299.867	5.64
300.243	5.39
300.619	5.62
300.995	5.54
301.371	5.35
301.746	5.52
302.122	5.67
302.498	5.13
302.874	5.41
303.249	5.56
303.625	5.43
304	6.04
304.376	5.39
304.751	5.24
305.127	5.31
305.502	5.44
305.878	5.59
306.253	5.37
306.628	5.72
307.003	5.58
307.378	5.36
307.754	5.07
308.129	5.82
308.504	5.8
308.879	5.51
309.254	5.85
309.629	5
310.003	5.02
310.378	5.45
310.753	5.37
311.128	5.71
311.502	5.74
311.877	5.7
312.252	4.86
312.626	5.63
313.001	5.28
313.375	5.53
313.75	5.16
314.124	5.24
314.498	5.31
314.873	4.91
315.247	5.52
315.621	5.38
315.995	5.46
316.369	4.65
316.743	5.27
317.117	5.46
317.491	4.67
317.865	5.39
318.239	5.71
318.613	5.14
318.987	5.06
319.361	5.27
319.734	4.88
320.108	4.87
320.482	5.63
320.855	5.23
321.229	5.33
321.602	5.27
321.976	5.46
322.349	5.95
322.723	5.16
323.096	5.08
323.469	5.36
323.843	5.57
324.216	5.37
324.589	5.2
324.962	5.51
325.335	5.36
325.708	4.71
326.081	5.37
326.454	5.31
326.827	5.54
327.2	5.55
327.573	5.19
327.945	5.16
328.318	4.99
328.691	4.8
329.063	5.4
329.436	5.02
329.809	5.39
330.181	5.87
330.553	5.74
330.926	5.08
331.298	4.54
331.671	5.01
332.043	4.83
332.415	4.88
332.787	5.59
333.159	4.82
333.532	5.15
333.904	4.96
334.276	4.47
334.648	4.9
335.02	5.35
335.391	4.48
335.763	5.54
336.135	5.02
336.507	5.33
336.879	5.11
337.25	5.17
337.622	5.12
337.993	5.03
338.365	5.07
338.736	5.16
339.108	5.85
339.479	5.05
339.851	5.19
340.222	4.75
340.593	4.64
340.964	5.39
341.336	5.42
341.707	5.01
342.078	4.91
342.449	4.72
342.82	4.91
343.191	5.32
343.562	5.2
343.933	4.64
344.303	5.2
344.674	5.26
345.045	5.06
345.416	5.32
345.786	4.89
346.157	5.36
346.527	4.99
346.898	5.58
347.268	5.13
347.639	5.32
348.009	4.92
348.38	5.17
348.75	5.18
349.12	5.04
349.49	5.18
349.861	5.19
350.231	4.54
350.601	5.25
350.971	5.23
351.341	5.52
351.711	5.84
352.081	4.83
352.45	5.17
352.82	5.31
353.19	4.82
353.56	5.44
353.929	5.19
354.299	5.25
354.669	5.17
355.038	5.25
355.408	5.2
355.777	5.22
356.147	5.09
356.516	5.06
356.885	5.24
357.254	5.23
357.624	5.23
357.993	4.89
358.362	5.02
358.731	4.76
359.1	4.6
359.469	4.96
359.838	5.17
360.207	5.08
360.576	5.51
360.945	5.3
361.314	4.93
361.682	4.89
362.051	4.81
362.42	5.07
362.788	5.25
363.157	5.05
363.525	4.82
363.894	5.18
364.262	5
364.631	5.18
364.999	5.14
365.367	5.09
365.735	4.89
366.104	5.14
366.472	5.23
366.84	5.32
367.208	5.15
367.576	5.17
367.944	5.47
368.312	4.91
368.68	5.44
369.048	5.28
369.416	5.33
369.783	5.39
370.151	5.2
370.519	5.13
370.886	5.49
371.254	5.31
371.621	5.57
371.989	5.35
372.356	5.67
372.724	5.5
373.091	5.26
373.458	5.13
373.826	5.32
374.193	5.13
374.56	5.27
374.927	5.46
375.294	5.33
375.661	5.16
376.028	5.37
376.395	5.39
376.762	5.17
377.129	5.18
377.496	5.39
377.863	5.73
378.229	5.23
378.596	5.32
378.963	5.22
379.329	5.42
379.696	5.34
380.062	5.32
380.429	5.14
380.795	5.04
381.161	5.45
381.528	5.52
381.894	5.27
382.26	5.08
382.626	5.43
382.993	5.47
383.359	5.38
383.725	5.31
384.091	5.46
384.457	5.61
384.823	5.25
385.188	5.57
385.554	5.13
385.92	5.11
386.286	5.3
386.651	5.17
387.017	5.47
387.383	5.24
387.748	5.08
388.114	5.16
388.479	5.41
388.845	5.6
389.21	5.33
389.575	5.01
389.94	5.09
390.306	5.39
390.671	5.11
391.036	5.34
391.401	5.57
391.766	5.61
392.131	5.5
392.496	5.28
392.861	5.17
393.226	5.37
393.591	5.17
393.956	5.42
394.32	5.61
394.685	5.51
395.05	5.4
395.414	5.45
395.779	5.28
396.143	5.39
396.508	5.17
396.872	5.19
397.236	5.4
397.601	5.35
397.965	5.33
398.329	5.32
398.694	5.36
399.058	5.09
399.422	5.39
399.786	5.44
400.15	5.41
400.514	5.37
400.878	5.61
401.242	5.46
401.605	5.46
401.969	5
402.333	5.42
402.697	5.42
403.06	5.44
403.424	5.53
403.787	5.36
404.151	5.59
404.514	5.48
404.878	5.43
405.241	5.39
405.604	5.2
405.968	5.45
406.331	5.3
406.694	5.32
407.057	5.45
407.42	5.56
407.783	5.53
408.146	5.33
408.509	5.45
408.872	5.53
409.235	5.31
409.598	5.47
409.961	5.59
410.323	5.32
410.686	5.49
411.049	5.39
411.411	5.46
411.774	5.33
412.136	5.35
412.499	5.28
412.861	5.49
413.223	5.51
413.586	5.4
413.948	5.63
414.31	5.56
414.672	5.44
415.035	5.57
415.397	5.69
415.759	5.6
416.121	5.48
416.483	5.47
416.845	5.41
417.206	5.55
417.568	5.48
417.93	5.57
418.292	5.28
418.653	5.62
419.015	5.37
419.377	5.25
419.738	5.42
420.1	5.25
420.461	5.27
420.822	5.31
421.184	5.28
421.545	5.19
421.906	5.27
422.267	5.27
422.629	5.2
422.99	5.21
423.351	5.24
423.712	5.15
424.073	5.25
424.434	5.17
424.795	5.3
425.155	5.29
425.516	5.3
425.877	5.39
426.238	5.04
426.598	5.22
426.959	5.19
427.32	5.32
427.68	5.37
428.041	5.3
428.401	5.4
428.761	5.32
429.122	5.39
429.482	5.42
429.842	5.39
430.202	5.49
430.563	5.36
430.923	5.49
431.283	5.57
431.643	5.53
432.003	5.45
432.363	5.24
432.722	5.68
433.082	5.32
433.442	5.24
433.802	5.56
434.161	5.25
434.521	5.42
434.881	5.31
435.24	5.4
435.6	5.33
435.959	5.38
436.319	5.43
436.678	5.37
437.037	5.26
437.396	5.6
437.756	5.6
438.115	5.29
438.474	5.57
438.833	5.54
439.192	5.28
439.551	5.35
439.91	5.55
440.269	5.51
440.628	5.58
440.987	5.38
441.345	5.33
441.704	5.47
442.063	5.38
442.421	5.26
442.78	5.32
443.138	5.38
443.497	5.5
443.855	5.42
444.214	5.49
444.572	5.4
444.93	5.62
445.288	5.54
445.647	5.65
446.005	5.4
446.363	5.48
446.721	5.41
447.079	5.42
447.437	5.38
447.795	5.3
448.153	5.36
448.51	5.33
448.868	5.28
449.226	5.3
449.584	5.45
449.941	5.34
450.299	5.41
450.656	5.36
451.014	5.44
451.371	5.42
451.729	5.43
452.086	5.46
452.443	5.44
452.801	5.41
453.158	5.57
453.515	5.48
453.872	5.6
454.229	5.49
454.586	5.65
454.943	5.46
455.3	5.42
455.657	5.5
456.014	5.36
456.371	5.37
456.727	5.47
457.084	5.57
457.441	5.51
457.797	5.6
458.154	5.6
458.51	5.48
458.867	5.59
459.223	5.62
459.58	5.44
459.936	5.52
460.292	5.5
460.648	5.22
461.005	5.34
461.361	5.37
461.717	5.17
462.073	5.3
462.429	5.36
462.785	5.31
463.141	5.45
463.496	5.46
463.852	5.46
464.208	5.58
464.564	5.54
464.919	5.46
465.275	5.55
465.631	5.64
465.986	5.6
466.342	5.54
466.697	5.6
467.052	5.42
467.408	5.55
467.763	5.56
468.118	5.7
468.473	5.62
468.829	5.43
469.184	5.51
469.539	5.39
469.894	5.48
470.249	5.53
470.603	5.38
470.958	5.57
471.313	5.61
471.668	5.54
472.023	5.66
472.377	5.62
472.732	5.36
473.086	5.58
473.441	5.64
473.795	5.63
474.15	5.49
474.504	5.43
474.859	5.6
475.213	5.62
475.567	5.41
475.921	5.55
476.275	5.58
476.63	5.61
476.984	5.68
477.338	5.52
477.692	5.55
478.045	5.6
478.399	5.56
478.753	5.67
479.107	5.59
479.461	5.53
479.814	5.72
480.168	5.65
480.521	5.64
480.875	5.5
481.228	5.65
481.582	5.57
481.935	5.46
482.289	5.56
482.642	5.52
482.995	5.54
483.348	5.52
483.701	5.53
484.055	5.38
484.408	5.36
484.761	5.31
485.114	5.25
485.466	5.17
485.819	5.16
486.172	5.09
486.525	5.12
486.878	5.23
487.23	5.28
487.583	5.32
487.936	5.29
488.288	5.36
488.641	5.43
488.993	5.19
489.345	5.24
489.698	5.21
490.05	5.23
490.402	5.19
490.754	5.31
491.107	5.36
491.459	5.46
491.811	5.45
492.163	5.43
492.515	5.47
492.866	5.44
493.218	5.23
493.57	5.23
493.922	5.24
494.274	5.31
494.625	5.35
494.977	5.35
495.328	5.49
495.68	5.61
496.031	5.36
496.383	5.49
496.734	5.62
497.086	5.59
497.437	5.52
497.788	5.43
498.139	5.6
498.49	5.42
498.842	5.38
499.193	5.5
499.544	5.54
499.894	5.5
500.245	5.46
500.596	5.51
500.947	5.59
501.298	5.61
501.648	5.62
501.999	5.58
502.35	5.5
502.7	5.63
503.051	5.55
503.401	5.56
503.752	5.57
504.102	5.58
504.452	5.53
504.803	5.5
505.153	5.58
505.503	5.6
505.853	5.77
506.203	5.46
506.553	5.43
506.903	5.57
507.253	5.56
507.603	5.61
507.953	5.69
508.303	5.59
508.652	5.65
509.002	5.59
509.352	5.55
509.701	5.67
510.051	5.43
510.4	5.46
510.75	5.45
511.099	5.49
511.449	5.46
511.798	5.55
512.147	5.48
512.496	5.47
512.846	5.43
513.195	5.55
513.544	5.58
513.893	5.46
514.242	5.47
514.591	5.48
514.939	5.46
515.288	5.39
515.637	5.63
515.986	5.62
516.334	5.53
516.683	5.45
517.032	5.46
517.38	5.52
517.729	5.62
518.077	5.59
518.426	5.5
518.774	5.35
519.122	5.46
519.47	5.51
519.819	5.38
520.167	5.49
520.515	5.41
520.863	5.38
521.211	5.43
521.559	5.54
521.907	5.45
522.255	5.5
522.602	5.67
522.95	5.48
523.298	5.46
523.645	5.51
523.993	5.61
524.341	5.52
524.688	5.57
525.036	5.55
525.383	5.46
525.73	5.71
526.078	5.47
526.425	5.58
526.772	5.55
527.119	5.46
527.466	5.44
527.814	5.39
528.161	5.44
528.508	5.44
528.854	5.42
529.201	5.45
529.548	5.45
529.895	5.37
530.242	5.28
530.588	5.18
530.935	5.18
531.282	5.29
531.628	5.34
531.975	5.26
532.321	5.29
532.667	5.43
533.014	5.44
533.36	5.53
533.706	5.53
534.052	5.41
534.399	5.39
534.745	5.28
535.091	5.33
535.437	5.32
535.783	5.36
536.129	5.38
536.474	5.45
536.82	5.51
537.166	5.48
537.512	5.47
537.857	5.47
538.203	5.42
538.549	5.5
538.894	5.38
539.239	5.45
539.585	5.49
539.93	5.53
540.276	5.58
540.621	5.63
540.966	5.58
541.311	5.64
541.656	5.62
542.001	5.63
542.346	5.56
542.691	5.39
543.036	5.37
543.381	5.24
543.726	5.3
544.071	5.34
544.415	5.38
544.76	5.39
545.105	5.43
545.449	5.42
545.794	5.43
546.138	5.5
546.483	5.57
546.827	5.51
547.171	5.62
547.516	5.45
547.86	5.63
548.204	5.37
548.548	5.47
548.892	5.44
549.236	5.51
549.58	5.46
549.924	5.51
550.268	5.55
550.612	5.62
550.956	5.83
551.3	5.51
551.643	5.67
551.987	5.66
552.33	5.7
552.674	5.81
553.017	5.59
553.361	5.77
553.704	5.81
554.048	5.74
554.391	5.57
554.734	5.66
555.077	5.64
555.42	5.51
555.764	5.56
556.107	5.74
556.45	5.64
556.793	5.57
557.135	5.61
557.478	5.59
557.821	5.67
558.164	5.6
558.507	5.82
558.849	5.82
559.192	5.7
559.534	5.75
559.877	5.54
560.219	5.86
560.562	5.83
560.904	5.58
561.246	5.74
561.589	5.6
561.931	5.75
562.273	5.65
562.615	5.8
562.957	5.75
563.299	5.58
563.641	5.67
563.983	5.58
564.325	5.62
564.667	5.86
565.008	5.41
565.35	5.57
565.692	5.74
566.033	5.87
566.375	5.77
566.716	5.78
567.058	5.58
567.399	5.79
567.741	5.52
568.082	5.69
568.423	5.76
568.764	5.5
569.105	5.68
569.447	5.5
569.788	5.59
570.129	5.56
570.47	5.64
570.811	5.54
571.151	5.46
571.492	5.79
571.833	5.72
572.174	5.64
572.514	5.55
572.855	5.61
573.195	5.71
573.536	5.47
573.876	5.67
574.217	5.57
574.557	5.61
574.898	5.61
575.238	5.44
575.578	5.56
575.918	5.44
576.258	5.62
576.598	5.62
576.938	5.47
577.278	5.63
577.618	5.51
577.958	5.43
578.298	5.55
578.638	5.59
578.977	5.61
579.317	5.61
579.657	5.74
579.996	5.77
580.336	5.63
580.675	5.53
581.014	5.7
581.354	5.53
581.693	5.78
582.032	5.78
582.372	5.71
582.711	5.7
583.05	6.03
583.389	5.55
583.728	5.64
584.067	5.84
584.406	5.73
584.745	5.76
585.083	5.55
585.422	5.63
585.761	5.57
586.1	5.74
586.438	5.56
586.777	5.77
587.115	5.76
587.454	5.78
587.792	5.6
588.13	5.78
588.469	5.8
588.807	5.32
589.145	5.6
589.483	5.52
589.821	5.63
590.159	5.74
590.497	5.88
590.835	5.62
591.173	5.49
591.511	5.98
591.849	5.67
592.187	5.6
592.524	5.41
592.862	5.6
593.2	5.72
593.537	5.63
593.875	5.6
594.212	5.83
594.55	5.81
594.887	5.71
595.224	5.45
595.561	5.52
595.899	5.44
596.236	5.69
596.573	5.78
596.91	5.71
597.247	5.79
597.584	5.43
597.921	5.6
598.258	5.81
598.594	5.71
598.931	5.76
599.268	5.76
599.604	5.79
599.941	5.69
600.277	5.65
600.614	5.55
600.95	5.69
601.287	5.64
601.623	5.9
601.959	5.95
602.296	5.72
602.632	5.66
602.968	5.49
603.304	5.92
603.64	5.86
603.976	5.76
604.312	5.87
604.648	5.74
604.984	5.79
605.319	5.55
605.655	5.48
605.991	5.57
606.326	5.74
606.662	5.43
606.998	5.5
607.333	5.49
607.668	5.45
608.004	5.66
608.339	5.6
608.674	5.72
609.01	5.8
609.345	5.81
609.68	5.98
610.015	5.79
610.35	5.57
610.685	5.96
611.02	5.72
611.355	5.44
611.689	5.68
612.024	5.68
612.359	5.64
612.694	5.62
613.028	5.95
613.363	5.61
613.697	5.87
614.032	5.84
614.366	5.96
614.7	5.75
615.035	5.89
615.369	5.94
615.703	5.58
616.037	5.93
616.371	5.76
616.705	5.55
617.039	5.53
617.373	5.68
617.707	5.91
618.041	5.8
618.375	5.68
618.709	5.82
619.042	5.99
619.376	5.92
619.71	5.51
620.043	6.03
620.377	5.83
620.71	6.02
621.043	6.05
621.377	5.78
621.71	5.77
622.043	5.62
622.376	5.98
622.709	6.11
623.043	5.82
623.376	5.74
623.709	5.31
624.041	5.73
624.374	5.87
624.707	5.57
625.04	5.67
625.373	6.07
625.705	5.62
626.038	6
626.37	5.41
626.703	5.63
627.035	5.73
627.368	5.71
627.7	5.92
628.032	5.66
628.365	5.89
628.697	5.9
629.029	5.48
629.361	5.7
629.693	5.67
630.025	5.89
630.357	5.89
630.689	5.76
631.021	5.8
631.353	5.74
631.684	5.72
632.016	5.98
632.348	5.75
632.679	5.63
633.011	5.85
633.342	5.63
633.674	5.6
634.005	5.94
634.336	6.33
634.668	5.65
634.999	5.79
635.33	5.74
635.661	5.99
635.992	5.87
636.323	6.14
636.654	5.89
636.985	5.97
637.316	5.9
637.647	5.58
637.977	5.46
638.308	5.94
638.639	6
638.969	5.69
639.3	5.32
639.63	5.66
639.961	5.76
640.291	6.2
640.622	5.73
640.952	6.11
641.282	5.92
641.612	6.22
641.943	5.85
642.273	5.54
642.603	5.69
642.933	5.77
643.263	6.34
643.592	6.09
643.922	6.26
644.252	5.92
644.582	6.19
644.911	5.74
645.241	6.21
645.571	6.26
645.9	5.56
646.23	6.06
646.559	6.02
646.888	6.19
647.218	5.92
647.547	5.97
647.876	5.87
648.205	5.92
648.534	5.8
648.863	6.23
649.192	5.86
649.521	6.02
649.85	5.88
650.179	5.92
650.508	6.04
650.837	6.24
651.165	6.06
651.494	5.94
651.822	6.05
652.151	6.11
652.479	5.91
652.808	6.1
653.136	5.78
653.465	6.19
653.793	5.94
654.121	6.24
654.449	5.86
654.777	6.21
655.105	6.08
655.433	6.12
655.761	6.6
656.089	5.69
656.417	6.05
656.745	6.11
657.073	5.92
657.4	6.87
657.728	6.61
658.056	5.67
658.383	5.91
658.711	5.82
659.038	6.67
659.365	6.66
659.693	6.14
660.02	5.88
660.347	5.63
660.674	5.84
661.001	6.05
661.329	6.45
661.656	6.08
661.982	5.85
662.309	6.34
662.636	5.81
662.963	6.49
663.29	6.1
663.616	6.37
663.943	5.84
664.27	6.49
664.596	6.52
664.923	5.95
665.249	5.77
665.576	5.88
665.902	6.01
666.228	6.5
666.554	6.77
666.881	6.13
667.207	6.06
667.533	5.48
667.859	6.16
668.185	6.44
668.511	6.1
668.837	6.13
669.162	6.39
669.488	5.66
669.814	5.84
670.139	6.61
670.465	5.9
670.791	6.55
671.116	6.38
671.442	5.96
671.767	6.13
672.092	6.23
672.418	5.92
672.743	6.15
673.068	6.99
673.393	6.17
673.718	6.3
674.043	6.04
674.368	6.23
674.693	6.58
675.018	6.96
675.343	5.71
675.667	6.24
675.992	6.31
676.317	6.64
676.641	6.75
676.966	6.55
677.29	5.95
677.615	6.29
677.939	5.77
678.264	6.12
678.588	5.31
678.912	6.47
679.236	6.61
679.56	6.46
679.885	6.83
680.209	6.6
680.532	6.18
680.856	6.03
681.18	5.77
681.504	6.66
681.828	6.77
682.152	6.77
682.475	5.7
682.799	6.28
683.122	6.67
683.446	6.29
683.769	6.49
684.093	7.23
684.416	6.4
684.739	5.59
685.062	5.8
685.386	5.8
685.709	5.73
686.032	5.82
686.355	7.08
686.678	6.76
687.001	6.17
687.324	6.25
687.646	6.12
687.969	6.25
688.292	7.11
688.614	6.39
688.937	6.54
689.26	6.08
689.582	5.63
689.904	5.79
690.227	6.37
690.549	7.04
690.871	6.64
691.194	6.07
691.516	5.92
691.838	6.6
692.16	5.71
692.482	6.65
692.804	6.8
693.126	6.98
693.448	6.77
693.769	5.64
694.091	7.12
694.413	6.67
694.735	6.27
695.056	5.63
695.378	6.65
695.699	6.32
696.021	7.11
696.342	6.77
696.663	6.76
696.984	5.35
697.306	7.32
697.627	6.48
697.948	6.59
698.269	6.42
698.59	6.8
698.911	6.67
699.232	6.62
699.553	6.42
699.873	6.57
700.194	7.31
700.515	6.46
700.835	6.31
701.156	6.4
701.477	6.12
701.797	6.54
702.117	6.52
702.438	6.85
702.758	6.08
703.078	6.51
703.398	6.86
703.719	6.54
704.039	6.4
704.359	6.63
704.679	7.04
704.999	6.66
705.319	6.46
705.638	5.68
705.958	7.3
706.278	6.17
706.597	6.64
706.917	6.19
707.237	6.98
707.556	5.44
707.876	6.27
708.195	7.93
708.514	5.94
708.834	6.85
709.153	6.52
709.472	7.23
709.791	7.87
710.11	6.63
710.429	7.07
710.748	6.35
711.067	6.5
711.386	6.96
711.705	7.47
712.023	6.66
712.342	7.52
712.661	6.82
712.979	6.76
713.298	6.46
713.616	6.77
713.935	7.43
714.253	6.32
714.572	6.99
714.89	6.96
715.208	7.19
715.526	7.41
715.844	6.63
716.162	6.42
716.48	6.23
716.798	7.11
717.116	7.21
717.434	6.45
717.752	7.07
718.069	7.24
718.387	6.88
718.705	6.71
719.022	8.1
719.34	7.02
719.657	6.62
719.975	6.16
720.292	6.22
720.609	6.96
720.927	6.6
721.244	7.1
721.561	7.46
721.878	6.43
722.195	6.27
722.512	7.86
722.829	6.84
723.146	6.33
723.463	6.81
723.779	8.22
724.096	6.1
724.413	6.68
724.729	7.35
725.046	7.75
725.362	7.82
725.679	7.8
725.995	7.31
726.311	8.28
726.628	6.75
726.944	7.65
727.26	6.3
727.576	7.41
727.892	7.1
728.208	7.65
728.524	5.99
728.84	6.43
729.156	9.02
729.472	6.75
729.787	7.21
730.103	7.42
730.419	7.44
730.734	6.97
731.05	6.79
731.365	5.78
731.681	7.25
731.996	9.06
732.311	7.76
732.626	7.04
732.942	7.14
733.257	6.73
733.572	8.31
733.887	6.29
734.202	7.42
734.517	7.7
734.832	7.95
735.146	7.64
735.461	7.6
735.776	8.08
736.091	8.14
736.405	7.89
736.72	7.41
737.034	7.84
737.349	8.03
737.663	6.94
737.977	9.12
738.292	7.34
738.606	6.63
738.92	6.92
739.234	8.39
739.548	7.6
739.862	6.45
740.176	6.01
740.49	6.7
740.804	9.13
741.117	7.7
741.431	7.31
741.745	6.49
742.058	7.4
742.372	7.69
742.685	6.62
742.999	7.24
743.312	8.31
743.626	7.42
743.939	9.65
744.252	7.41
744.565	8.73
744.878	6.79
745.191	9.03
745.505	6.46
745.817	9.2
746.13	6.59
746.443	9.72
746.756	8.74
747.069	7.55
747.381	7.54
747.694	8.48
748.007	7.39
748.319	8.88
748.632	5.48
748.944	7.79
749.256	9.7
749.569	8.19
749.881	10.28
750.193	8.11
750.505	5.35
750.817	9.11
751.129	8.56
751.441	7.44
751.753	6.72
752.065	9.64
752.377	6.9
752.689	9.38
753	8.46
753.312	8.92
753.624	5.56
753.935	10.25
754.247	8.22
754.558	8.27
754.869	9.89
755.181	7.01
755.492	7.45
755.803	8.51
756.114	7.97
756.425	8.93
756.736	8.52
757.047	6.78
757.358	8.54
757.669	8.26
757.98	7.55
758.291	7.68
758.601	7.71
758.912	8.66
759.223	7.22
759.533	9.69
759.844	8.83
760.154	8.2
760.464	8.9
760.775	7.43
761.085	8.55
761.395	8.66
761.705	9.32
762.016	9.23
762.326	11.5
762.636	8.47
762.945	7.03
763.255	7.51
763.565	8.02
763.875	8.46
764.185	7.18
764.494	8.48
764.804	8.83
765.113	8.24
765.423	7.62
765.732	6.92
766.042	8.11
766.351	7.57
766.66	7.57
766.97	7.04
767.279	7.86
767.588	6.72
767.897	7.71
768.206	7.13
768.515	8.58
768.824	8.68
769.133	6.64
769.441	7.85
769.75	8
770.059	9.64
770.367	9.66
770.676	10.16
770.984	8.41
771.293	9.16
771.601	8.26
771.91	8.68
772.218	9.77
772.526	10.22
772.834	9.02
773.142	7.52
773.45	6.45
773.758	8.7
774.066	9.33
774.374	8.87
774.682	7.66
774.99	7.76
775.298	4.44
775.605	7.93
775.913	10.33
776.22	8.84
776.528	9.88
776.835	9.27
777.143	6.22
777.45	13.41
777.757	8.89
778.065	11.6
778.372	11.14
778.679	10.94
778.986	7.36
779.293	9.1
779.6	10.71
779.907	7.54
780.214	8.83
780.52	11.5
780.827	12.49
781.134	8.82
781.44	6.37
781.747	5.79
782.053	11.2
782.36	9.99
782.666	6.06
782.973	6.56
783.279	6.31
783.585	9.31
783.891	8.24
784.197	8.36
784.503	11.28
784.809	9.74
785.115	6.54
785.421	9.76
785.727	11.58
786.033	8.97
786.339	10.37
786.644	11.53
786.95	11.72
787.255	11.23
787.561	4.13
787.866	12.46
788.172	10.97
788.477	7.26
788.782	10.01
789.088	11.51
789.393	6.5
789.698	4.62
790.003	10.89
790.308	12.03
790.613	6.78
790.918	10.36
791.223	7.22
791.527	8.85
791.832	14.93
792.137	11.34
792.441	6.9
792.746	8.65
793.05	10.2
793.355	7.99
793.659	10.05
793.963	12.75
794.268	4.46
794.572	9.39
794.876	11.2
795.18	7.88
795.484	6.86
795.788	7.02
796.092	8.08
796.396	6.87
796.7	11.75
797.004	11.03
797.307	11.91
797.611	11.24
797.915	8.56
798.218	11.56
798.522	8.14
798.825	12.17
799.128	13.4
799.432	6.82
799.735	9.57
800.038	6.78
800.341	6.36
800.644	16.29
800.947	10.5
801.25	9.12
801.553	9.01
801.856	13.66
802.159	7.67
802.462	11.95
802.764	8.36
803.067	10.42
803.37	9.17
803.672	6.25
803.975	4.66
804.277	3.24
804.579	3.43
804.882	11.7
805.184	13.05
805.486	12.6
805.788	12.42
806.09	11.2
806.392	15.01
806.694	9.4
806.996	10.91
807.298	8.34
807.6	18.72
807.902	7.45
808.203	12.45
808.505	15.98
808.807	7.8
809.108	5.44
809.409	9.15
809.711	5.14
810.012	12.32
810.313	6.19
810.615	4.88
810.916	10.32
811.217	8.28
811.518	11.21
811.819	7.64
812.12	11.89
812.421	5.13
812.722	7.19
813.023	17.5
813.323	7.08
813.624	11.74
813.925	11.44
814.225	1.62
814.526	10.29
814.826	15.35
815.126	9.51
815.427	9.44
815.727	14.03
816.027	7.28
816.327	18
816.627	17.63
816.927	12.1
817.227	9.76
817.527	9.28
817.827	12.65
818.127	12.22
818.427	12.27
818.727	1.96
819.026	8.85
819.326	15.6
819.625	12.18
819.925	12.36
820.224	17.54
820.524	14.17
820.823	7.79
821.122	6.42
821.421	10.45
821.72	13.39
822.019	10.69
822.318	10.83
822.617	8.72
822.916	10.11
823.215	8.34
823.514	11.3
823.813	10.06
824.111	12.96
824.41	10.66
824.709	12.15
825.007	9.38
825.306	10.24
825.604	9.12
825.902	9.31
826.201	9.67
826.499	10.11
826.797	8.81
827.095	10.06
827.393	9.01
827.691	11.3
827.989	9.13
828.287	10.37
828.585	10.53
828.882	8.77
829.18	10.02
829.478	9.81
829.775	10.73
830.073	10.34
830.37	11.76
830.668	10.29
830.965	9.79
831.263	11.47
831.56	12.92
831.857	5.67
832.154	5.01
832.451	10.95
832.748	13.75
833.045	4.75
833.342	16.04
833.639	8.88
833.936	11.91
834.232	11.21
834.529	16.99
834.826	11.88
835.122	9.39
835.419	17.23
835.715	8.92
836.012	9.86
836.308	8.65
836.604	13.14
836.901	10.72
837.197	11.09
837.493	12.64
837.789	9.93
838.085	10.41
838.381	10.31
838.677	12.59
838.972	16.65
839.268	9
839.564	9.8
839.86	10.61
840.155	14.71
840.451	12.07
840.746	9.97
841.042	5.75
841.337	13.14
841.632	11.36
841.928	17.43
842.223	23.73
842.518	4.97
842.813	8.88
843.108	15.49
843.403	7
843.698	21.5
843.993	17.84
844.287	11.51
844.582	20.78
844.877	18.82
845.171	21.55
845.466	11.07
845.761	9.77
846.055	20.98
846.349	24.75
846.644	24.45
846.938	15.98
847.232	18.05
847.526	24.16
847.82	-0.52
848.114	28.52
848.408	18.58
848.702	-1.8
848.996	20.72
849.29	16.69
849.584	24.47
849.877	31.88
850.171	26.46
850.465	11.75
850.758	13.24
851.052	12.9
851.345	27.81
851.638	20.7
851.932	8.54
852.225	26.37
852.518	41.52
852.811	19.92
853.104	17.06
853.397	22.63
853.69	19.96
853.983	-3.72
854.276	16.58
854.569	29.37
854.861	10.26
855.154	32.07
855.447	4.09
855.739	16.82
856.032	24.48
856.324	4.78
856.616	-3.57
856.909	33.13
857.201	22.32
857.493	3.56
857.785	28.56
858.077	34.78
858.369	26.69
858.661	21.21
858.953	2.02
859.245	20.51
859.537	14.75
859.829	18
860.12	31.6
860.412	18.41
860.703	19.69
860.995	13.53
861.286	23.46
861.578	28.62
861.869	-1.92
862.16	9.06
862.452	24.86
862.743	29.5
863.034	19.41
863.325	23.83
863.616	-15.61
863.907	37.88
864.198	14.87
864.488	14.7
864.779	41.12
865.07	23.42
865.36	25.52
865.651	19.45
865.941	30
866.232	23.71
866.522	3.78
866.813	7.39
867.103	-6.03
867.393	24.86
867.683	26.23
867.973	27.19
868.263	38.09
868.553	15.38
868.843	4.02
869.133	33.32
869.423	18.38
869.713	19.05
870.002	33.78
870.292	4.87
870.582	29.33
870.871	32.73
871.161	20.81
871.45	49.08
871.739	27.15
872.029	15.46
872.318	35.96
872.607	30.22
872.896	27.9
873.185	66.4
873.474	21.44
873.763	33.63
874.052	27.75
874.341	16.8
874.63	32.41
874.918	26.28
875.207	27.6
875.496	29.83
875.784	35.61
876.073	1.64
876.361	16.78
876.649	8.51
876.938	27.39
877.226	30.29
877.514	34.15
877.802	-6.86
878.09	0.7
878.378	34.71
878.666	7.58
878.954	17.03
879.242	13.9
879.53	23.58
879.817	5.67
880.105	2.29
880.392	22.59
880.68	33.42
880.967	35.57
881.255	32.58
881.542	19.87
881.83	0.27
882.117	27.62
882.404	17.97
882.691	30.99
882.978	27.85
883.265	-8.11
883.552	27.55
883.839	11.71
884.126	20.06
884.413	17.28
884.699	14.88
884.986	22.68
885.273	16.55
885.559	16.55
885.846	16.55
