Data from 0087_chest_Reflection__0__026.txt Node

Date: Mon Aug 28 18:50:42 CDT 2023
User: ToomeyLab
Spectrometer: FLMS14357
Trigger mode: 0
Integration Time (sec): 1.000000E-2
Scans to average: 100
Electric dark correction enabled: true
Nonlinearity correction enabled: false
Boxcar width: 0
XAxis mode: Wavelengths
Number of Pixels in Spectrum: 2048
>>>>>Begin Spectral Data<<<<<
189.047	-198.06
189.435	-198.06
189.823	-198.06
190.211	-4623.26
190.599	115.78
190.987	451.75
191.375	34.72
191.763	35.09
192.151	-172.81
192.538	29.44
192.926	115.76
193.314	219.41
193.702	177.39
194.089	198.55
194.477	7251.76
194.864	-19.09
195.252	93.6
195.639	-1692.31
196.027	94.01
196.414	225.54
196.801	119.23
197.189	96.53
197.576	-35.43
197.963	-89.99
198.351	7.68
198.738	60.33
199.125	-13.83
199.512	-37.74
199.899	53.7
200.286	83.58
200.673	29.5
201.06	1.91
201.447	-13.06
201.833	-43.85
202.22	3.8
202.607	-9.53
202.994	52.4
203.38	69.11
203.767	-20.31
204.154	10.59
204.54	-22.96
204.927	-28.67
205.313	6.55
205.699	-30.31
206.086	31.39
206.472	8.64
206.858	-39.52
207.245	5.45
207.631	0.61
208.017	7.38
208.403	15.53
208.789	0.83
209.175	-38.8
209.561	-13.69
209.947	5.63
210.333	-9.52
210.719	4.8
211.105	34.18
211.491	0.95
211.876	36.16
212.262	42.94
212.648	-5.02
213.034	42.39
213.419	-11.9
213.805	-3.03
214.19	-24.43
214.576	-10.98
214.961	-22.78
215.346	3.23
215.732	-14.39
216.117	-28.31
216.502	7.77
216.888	-3.6
217.273	-3.05
217.658	13.52
218.043	15.18
218.428	3.3
218.813	-2.08
219.198	33.43
219.583	4.02
219.968	12.63
220.353	2.7
220.738	23.03
221.122	5.39
221.507	3.57
221.892	-4.77
222.276	10.96
222.661	-4.44
223.046	-4.08
223.43	10.64
223.815	20.49
224.199	13.47
224.583	2.23
224.968	8.38
225.352	12.02
225.736	9.25
226.121	-7.33
226.505	-5.24
226.889	1.26
227.273	11.86
227.657	9.86
228.041	0.17
228.425	5.75
228.809	7.54
229.193	3.19
229.577	7.2
229.961	2.26
230.344	2.81
230.728	2.72
231.112	2.02
231.495	2.04
231.879	1.27
232.263	2.47
232.646	1.21
233.03	4.15
233.413	4.16
233.797	1.71
234.18	1.36
234.563	2.84
234.946	6.57
235.33	2.17
235.713	3.01
236.096	3.38
236.479	2.57
236.862	3.13
237.245	2.34
237.628	3.16
238.011	4.25
238.394	4.02
238.777	3.72
239.16	2.19
239.543	0.2
239.925	3.27
240.308	4.23
240.691	1.84
241.073	2.59
241.456	3.74
241.838	1.1
242.221	4.38
242.603	3.46
242.986	3.16
243.368	2.39
243.75	3.15
244.133	2.13
244.515	2.54
244.897	2.68
245.279	2.68
245.661	3.24
246.043	2.83
246.425	2.4
246.807	3.4
247.189	2.31
247.571	2.91
247.953	2.83
248.335	2.58
248.717	2.57
249.098	2.64
249.48	2.57
249.862	2.56
250.243	2.71
250.625	3.32
251.006	2.51
251.388	3.09
251.769	3.05
252.151	2.67
252.532	2.93
252.913	2.66
253.295	1.87
253.676	2.41
254.057	2.61
254.438	2.24
254.819	2.71
255.2	3.25
255.581	3.35
255.962	3.01
256.343	3.26
256.724	0.92
257.105	2.44
257.486	2.64
257.867	1.6
258.247	3.64
258.628	3.52
259.009	1.26
259.389	1.57
259.77	2.89
260.15	2.5
260.531	1.95
260.911	2.41
261.292	2.53
261.672	2.43
262.052	2.48
262.432	2.61
262.813	2.79
263.193	2.81
263.573	2.36
263.953	2.74
264.333	2.71
264.713	2.43
265.093	3.04
265.473	2.64
265.853	1.59
266.233	2.67
266.612	3.24
266.992	2.32
267.372	2.45
267.752	2.76
268.131	2.96
268.511	2.27
268.89	2.48
269.27	2.8
269.649	2.47
270.029	3.28
270.408	2.9
270.787	2.65
271.167	2.72
271.546	2.62
271.925	2.86
272.304	2.15
272.683	2.36
273.062	2.39
273.441	2.71
273.82	2.56
274.199	2.19
274.578	2.26
274.957	2.48
275.336	3.1
275.715	2.48
276.093	2.65
276.472	1.68
276.851	2.59
277.229	3.25
277.608	2.92
277.986	2.37
278.365	2.36
278.743	2.13
279.122	2.39
279.5	2.3
279.878	1.47
280.257	2.38
280.635	2.38
281.013	2.54
281.391	2.66
281.769	2.28
282.147	2.28
282.525	2.61
282.903	2.69
283.281	2.86
283.659	3.09
284.037	2.83
284.415	2.75
284.792	2.35
285.17	2.42
285.548	2.35
285.925	3.25
286.303	2.26
286.68	2.6
287.058	2.56
287.435	2.58
287.813	2.43
288.19	2.52
288.567	2.4
288.945	2.55
289.322	2.36
289.699	3.04
290.076	2.85
290.453	2.81
290.83	2.25
291.207	2.38
291.584	2.68
291.961	2.59
292.338	2.41
292.715	2.56
293.092	2.98
293.469	2.84
293.845	2.55
294.222	2.73
294.599	2.64
294.975	3.04
295.352	2.56
295.728	2.83
296.105	2.97
296.481	2.67
296.858	3.62
297.234	3.46
297.61	3.3
297.986	2.68
298.363	2.74
298.739	2.85
299.115	2.61
299.491	2.85
299.867	3.1
300.243	2.87
300.619	2.96
300.995	3.45
301.371	2.82
301.746	3.44
302.122	2.88
302.498	3.27
302.874	2.85
303.249	3.14
303.625	3.17
304	3.23
304.376	3.08
304.751	3.06
305.127	3.26
305.502	3
305.878	2.95
306.253	2.81
306.628	3.36
307.003	3.25
307.378	3.45
307.754	3.73
308.129	3.01
308.504	3.69
308.879	2.86
309.254	3.38
309.629	3.03
310.003	3.3
310.378	2.72
310.753	3.36
311.128	3.56
311.502	3.71
311.877	3.34
312.252	3.34
312.626	3.63
313.001	3.17
313.375	3.38
313.75	3.53
314.124	3.45
314.498	3.83
314.873	4.11
315.247	3.85
315.621	3.3
315.995	4.02
316.369	3.64
316.743	3.54
317.117	3.4
317.491	3.02
317.865	2.9
318.239	3.15
318.613	4.01
318.987	3.47
319.361	3.62
319.734	3.62
320.108	3.54
320.482	3.91
320.855	3.73
321.229	3.43
321.602	3.74
321.976	3.33
322.349	3.47
322.723	3.55
323.096	3.87
323.469	3.09
323.843	3.61
324.216	4.05
324.589	3.82
324.962	4.23
325.335	3.54
325.708	3.55
326.081	3.5
326.454	3.91
326.827	3.9
327.2	3.43
327.573	3.43
327.945	3.96
328.318	3.74
328.691	3.44
329.063	3.57
329.436	3.49
329.809	4.36
330.181	3.45
330.553	3.84
330.926	3.95
331.298	3.94
331.671	3.61
332.043	3.73
332.415	4.66
332.787	3.91
333.159	3.68
333.532	4.46
333.904	3.98
334.276	3.54
334.648	3.87
335.02	4.3
335.391	3.82
335.763	3.79
336.135	4.19
336.507	3.84
336.879	3.38
337.25	3.65
337.622	3.7
337.993	3.89
338.365	3.84
338.736	4.14
339.108	3.29
339.479	3.4
339.851	4.05
340.222	4.19
340.593	4.03
340.964	4.1
341.336	3.73
341.707	3.68
342.078	3.45
342.449	3.84
342.82	4.22
343.191	3.71
343.562	3.75
343.933	3.65
344.303	3.86
344.674	4.33
345.045	4.46
345.416	4.05
345.786	4.4
346.157	3.65
346.527	3.77
346.898	4.1
347.268	4.06
347.639	3.57
348.009	4.03
348.38	4.12
348.75	3.8
349.12	4.23
349.49	3.6
349.861	3.72
350.231	3.73
350.601	3.84
350.971	4.32
351.341	3.91
351.711	3.66
352.081	4.04
352.45	3.92
352.82	3.67
353.19	4.77
353.56	4.3
353.929	3.91
354.299	3.33
354.669	4.32
355.038	4.38
355.408	4.07
355.777	4.08
356.147	4.19
356.516	4.33
356.885	4.29
357.254	4.12
357.624	4.24
357.993	4.09
358.362	4.03
358.731	4.22
359.1	4.2
359.469	4.01
359.838	3.74
360.207	4.04
360.576	4.06
360.945	3.98
361.314	3.75
361.682	3.82
362.051	4.12
362.42	3.98
362.788	4.15
363.157	4.06
363.525	4.17
363.894	4.11
364.262	4.21
364.631	4.05
364.999	3.95
365.367	4.03
365.735	4.02
366.104	4.22
366.472	4.36
366.84	4.22
367.208	3.99
367.576	4.03
367.944	4.25
368.312	4.7
368.68	3.98
369.048	4.44
369.416	4.17
369.783	4.01
370.151	4.29
370.519	4.21
370.886	4.04
371.254	3.84
371.621	4.06
371.989	4.31
372.356	3.95
372.724	4.49
373.091	4.55
373.458	3.86
373.826	4.29
374.193	4.25
374.56	4.34
374.927	3.96
375.294	4.02
375.661	4.43
376.028	4.04
376.395	4.01
376.762	4.33
377.129	4.28
377.496	4.35
377.863	4.46
378.229	4.29
378.596	4.37
378.963	4.43
379.329	4.38
379.696	4.1
380.062	4.04
380.429	4.21
380.795	4.29
381.161	4.31
381.528	4.75
381.894	4.22
382.26	4.33
382.626	4.2
382.993	4.16
383.359	4.54
383.725	4.59
384.091	4.07
384.457	4.18
384.823	4.06
385.188	4.49
385.554	4.2
385.92	4.17
386.286	4.4
386.651	4.3
387.017	4.46
387.383	4.35
387.748	4.41
388.114	4.29
388.479	4.35
388.845	4.57
389.21	4.35
389.575	4.65
389.94	4.23
390.306	4.35
390.671	4.29
391.036	4.23
391.401	4.62
391.766	4.53
392.131	4.14
392.496	4.26
392.861	4.36
393.226	4.52
393.591	4.19
393.956	4.46
394.32	4.37
394.685	4.56
395.05	4.28
395.414	4.45
395.779	4.38
396.143	4.45
396.508	4.27
396.872	4.37
397.236	4.47
397.601	4.5
397.965	4.4
398.329	4.27
398.694	4.59
399.058	4.5
399.422	4.56
399.786	4.56
400.15	4.69
400.514	4.67
400.878	4.45
401.242	4.52
401.605	4.66
401.969	4.39
402.333	4.42
402.697	4.56
403.06	4.66
403.424	4.79
403.787	4.31
404.151	4.45
404.514	4.77
404.878	4.64
405.241	4.67
405.604	4.58
405.968	4.25
406.331	4.84
406.694	4.5
407.057	4.71
407.42	4.5
407.783	4.55
408.146	4.49
408.509	4.49
408.872	4.56
409.235	4.85
409.598	4.51
409.961	4.52
410.323	4.54
410.686	4.58
411.049	4.82
411.411	4.64
411.774	4.79
412.136	4.54
412.499	4.67
412.861	4.69
413.223	4.37
413.586	4.66
413.948	4.79
414.31	4.62
414.672	4.59
415.035	4.55
415.397	4.56
415.759	4.74
416.121	4.74
416.483	4.42
416.845	4.86
417.206	4.83
417.568	4.72
417.93	4.56
418.292	4.72
418.653	4.62
419.015	4.71
419.377	4.58
419.738	4.76
420.1	4.8
420.461	4.7
420.822	4.81
421.184	4.71
421.545	4.66
421.906	4.73
422.267	4.68
422.629	4.62
422.99	4.54
423.351	4.64
423.712	4.53
424.073	4.62
424.434	4.63
424.795	4.58
425.155	4.65
425.516	4.72
425.877	4.51
426.238	4.61
426.598	4.62
426.959	4.67
427.32	4.63
427.68	4.68
428.041	4.68
428.401	4.74
428.761	4.85
429.122	4.78
429.482	4.91
429.842	5.06
430.202	4.87
430.563	4.98
430.923	4.98
431.283	4.83
431.643	4.78
432.003	4.83
432.363	4.96
432.722	4.82
433.082	4.89
433.442	4.99
433.802	4.96
434.161	4.94
434.521	4.79
434.881	4.74
435.24	4.86
435.6	4.88
435.959	4.75
436.319	4.99
436.678	4.94
437.037	4.81
437.396	4.86
437.756	4.88
438.115	5.06
438.474	4.97
438.833	4.88
439.192	4.98
439.551	4.86
439.91	5.09
440.269	4.87
440.628	4.95
440.987	4.92
441.345	4.82
441.704	4.87
442.063	4.96
442.421	4.9
442.78	4.93
443.138	4.91
443.497	4.99
443.855	4.97
444.214	5.01
444.572	4.97
444.93	4.86
445.288	4.99
445.647	5.15
446.005	5.01
446.363	5.09
446.721	5.1
447.079	5
447.437	5.09
447.795	4.84
448.153	4.99
448.51	4.9
448.868	5
449.226	4.89
449.584	4.95
449.941	4.99
450.299	5.04
450.656	5.14
451.014	5.14
451.371	5.02
451.729	5.07
452.086	5.1
452.443	5.22
452.801	5.15
453.158	5.27
453.515	5.21
453.872	4.98
454.229	5.19
454.586	5.18
454.943	5.11
455.3	5.24
455.657	5.18
456.014	5.17
456.371	5.27
456.727	5.2
457.084	5.2
457.441	5.3
457.797	5.21
458.154	5.25
458.51	5.41
458.867	5.27
459.223	5.38
459.58	5.04
459.936	5.25
460.292	5.3
460.648	5.34
461.005	5.18
461.361	5.1
461.717	5.09
462.073	5.06
462.429	5.08
462.785	5.13
463.141	5.27
463.496	5.37
463.852	5.19
464.208	5.19
464.564	5.41
464.919	5.36
465.275	5.5
465.631	5.28
465.986	5.42
466.342	5.58
466.697	5.24
467.052	5.36
467.408	5.41
467.763	5.33
468.118	5.41
468.473	5.46
468.829	5.45
469.184	5.26
469.539	5.35
469.894	5.36
470.249	5.51
470.603	5.48
470.958	5.49
471.313	5.47
471.668	5.34
472.023	5.45
472.377	5.48
472.732	5.35
473.086	5.37
473.441	5.59
473.795	5.5
474.15	5.82
474.504	5.52
474.859	5.55
475.213	5.65
475.567	5.56
475.921	5.67
476.275	5.58
476.63	5.7
476.984	5.52
477.338	5.57
477.692	5.6
478.045	5.67
478.399	5.45
478.753	5.43
479.107	5.62
479.461	5.58
479.814	5.79
480.168	5.81
480.521	5.64
480.875	5.64
481.228	5.67
481.582	5.63
481.935	5.51
482.289	5.7
482.642	5.79
482.995	5.63
483.348	5.62
483.701	5.63
484.055	5.56
484.408	5.69
484.761	5.56
485.114	5.49
485.466	5.41
485.819	5.32
486.172	5.24
486.525	5.28
486.878	5.32
487.23	5.4
487.583	5.45
487.936	5.55
488.288	5.59
488.641	5.63
488.993	5.51
489.345	5.51
489.698	5.47
490.05	5.47
490.402	5.45
490.754	5.48
491.107	5.56
491.459	5.67
491.811	5.62
492.163	5.75
492.515	5.77
492.866	5.72
493.218	5.72
493.57	5.66
493.922	5.56
494.274	5.57
494.625	5.61
494.977	5.73
495.328	5.86
495.68	5.93
496.031	5.88
496.383	5.95
496.734	5.92
497.086	6.09
497.437	6.22
497.788	5.99
498.139	6.06
498.49	5.91
498.842	6
499.193	5.9
499.544	5.98
499.894	5.98
500.245	5.97
500.596	6.04
500.947	6.1
501.298	6.09
501.648	5.96
501.999	6.09
502.35	6.1
502.7	6.14
503.051	6.28
503.401	6.15
503.752	6.19
504.102	6.23
504.452	6.18
504.803	6.31
505.153	6.07
505.503	6.1
505.853	6.14
506.203	6.14
506.553	6.26
506.903	6.26
507.253	6.27
507.603	6.25
507.953	6.29
508.303	6.39
508.652	6.26
509.002	6.44
509.352	6.25
509.701	6.29
510.051	6.24
510.4	6.25
510.75	6.28
511.099	6.26
511.449	6.33
511.798	6.25
512.147	6.25
512.496	6.25
512.846	6.34
513.195	6.39
513.544	6.32
513.893	6.43
514.242	6.47
514.591	6.52
514.939	6.32
515.288	6.4
515.637	6.58
515.986	6.41
516.334	6.61
516.683	6.55
517.032	6.5
517.38	6.6
517.729	6.74
518.077	6.59
518.426	6.52
518.774	6.59
519.122	6.65
519.47	6.63
519.819	6.53
520.167	6.67
520.515	6.56
520.863	6.49
521.211	6.46
521.559	6.59
521.907	6.56
522.255	6.49
522.602	6.63
522.95	6.68
523.298	6.76
523.645	6.8
523.993	6.77
524.341	6.83
524.688	6.8
525.036	6.93
525.383	6.93
525.73	7.02
526.078	7.04
526.425	7.02
526.772	6.94
527.119	6.92
527.466	6.76
527.814	6.79
528.161	6.77
528.508	6.72
528.854	6.77
529.201	6.94
529.548	6.86
529.895	6.86
530.242	6.81
530.588	6.64
530.935	6.62
531.282	6.59
531.628	6.64
531.975	6.65
532.321	6.78
532.667	6.8
533.014	6.94
533.36	7.04
533.706	7.15
534.052	7.01
534.399	7.06
534.745	7.13
535.091	7.02
535.437	6.95
535.783	7.02
536.129	7.04
536.474	7.04
536.82	7.09
537.166	7.21
537.512	7.3
537.857	7.43
538.203	7.24
538.549	7.29
538.894	7.28
539.239	7.16
539.585	7.22
539.93	7.29
540.276	7.33
540.621	7.39
540.966	7.45
541.311	7.72
541.656	7.58
542.001	7.52
542.346	7.56
542.691	7.56
543.036	7.49
543.381	7.28
543.726	7.3
544.071	7.26
544.415	7.3
544.76	7.37
545.105	7.47
545.449	7.44
545.794	7.6
546.138	7.61
546.483	7.64
546.827	7.66
547.171	7.71
547.516	7.74
547.86	7.87
548.204	7.87
548.548	7.91
548.892	7.77
549.236	7.75
549.58	7.81
549.924	7.75
550.268	8.01
550.612	8.03
550.956	7.96
551.3	8.08
551.643	8.2
551.987	8.13
552.33	8.17
552.674	8.32
553.017	8.29
553.361	8.32
553.704	8.3
554.048	8.35
554.391	8.19
554.734	8.43
555.077	8.22
555.42	8.29
555.764	8.39
556.107	8.31
556.45	8.45
556.793	8.35
557.135	8.47
557.478	8.31
557.821	8.55
558.164	8.6
558.507	8.64
558.849	8.6
559.192	8.5
559.534	8.51
559.877	8.71
560.219	8.75
560.562	8.78
560.904	8.85
561.246	8.76
561.589	8.79
561.931	8.79
562.273	8.72
562.615	8.86
562.957	8.97
563.299	8.92
563.641	8.7
563.983	8.83
564.325	8.84
564.667	8.81
565.008	8.84
565.35	9.08
565.692	9.14
566.033	9.16
566.375	9.14
566.716	8.97
567.058	8.97
567.399	9.04
567.741	9.07
568.082	9.06
568.423	9.19
568.764	8.85
569.105	9.27
569.447	9.19
569.788	9.24
570.129	9.16
570.47	9.42
570.811	9.2
571.151	9.19
571.492	9.26
571.833	9.41
572.174	9.46
572.514	9.46
572.855	9.33
573.195	9.45
573.536	9.35
573.876	9.48
574.217	9.48
574.557	9.46
574.898	9.53
575.238	9.58
575.578	9.51
575.918	9.81
576.258	9.8
576.598	9.74
576.938	9.61
577.278	9.73
577.618	9.78
577.958	9.84
578.298	10.03
578.638	9.99
578.977	10.01
579.317	9.8
579.657	9.86
579.996	10.06
580.336	9.85
580.675	10.12
581.014	10.35
581.354	10.36
581.693	10.33
582.032	10.41
582.372	10.3
582.711	10.42
583.05	10.4
583.389	10.37
583.728	10.37
584.067	10.44
584.406	10.45
584.745	10.39
585.083	10.58
585.422	10.31
585.761	10.69
586.1	10.74
586.438	10.67
586.777	10.66
587.115	10.87
587.454	10.73
587.792	10.74
588.13	10.97
588.469	11.04
588.807	10.9
589.145	10.89
589.483	10.7
589.821	10.76
590.159	11.2
590.497	11.1
590.835	11.05
591.173	10.84
591.511	10.84
591.849	10.83
592.187	11.03
592.524	11.19
592.862	11.24
593.2	10.99
593.537	10.97
593.875	11.61
594.212	11.52
594.55	11.32
594.887	11.19
595.224	11.4
595.561	11.22
595.899	11.2
596.236	11.61
596.573	11.73
596.91	11.34
597.247	11.65
597.584	11.49
597.921	11.74
598.258	11.33
598.594	11.53
598.931	11.48
599.268	11.36
599.604	11.43
599.941	11.57
600.277	11.52
600.614	11.94
600.95	11.96
601.287	11.94
601.623	11.87
601.959	12.09
602.296	11.96
602.632	11.95
602.968	12.15
603.304	12.05
603.64	11.76
603.976	12.18
604.312	12.33
604.648	12.19
604.984	12.14
605.319	12.27
605.655	12.02
605.991	12.19
606.326	12.38
606.662	12.11
606.998	11.98
607.333	12.16
607.668	12.21
608.004	12.31
608.339	12.39
608.674	12.31
609.01	12.82
609.345	12.82
609.68	12.43
610.015	12.57
610.35	12.67
610.685	12.93
611.02	12.87
611.355	12.82
611.689	12.51
612.024	12.83
612.359	12.66
612.694	12.93
613.028	12.64
613.363	12.67
613.697	12.9
614.032	13.01
614.366	12.93
614.7	13.23
615.035	13.11
615.369	12.94
615.703	13.33
616.037	13.18
616.371	13.16
616.705	13.23
617.039	13.19
617.373	13.13
617.707	13.19
618.041	13.52
618.375	13.29
618.709	13.62
619.042	13.55
619.376	13.49
619.71	13.52
620.043	13.88
620.377	13.97
620.71	13.63
621.043	13.53
621.377	13.87
621.71	13.6
622.043	13.35
622.376	14.02
622.709	13.57
623.043	13.8
623.376	14.04
623.709	14.14
624.041	14.07
624.374	13.96
624.707	13.75
625.04	14.11
625.373	14.07
625.705	14.53
626.038	14.39
626.37	14.26
626.703	14.13
627.035	14.3
627.368	14.51
627.7	14.49
628.032	14.05
628.365	14.31
628.697	14.3
629.029	14.28
629.361	14.6
629.693	14.48
630.025	14.37
630.357	14.38
630.689	14.18
631.021	14.61
631.353	14.63
631.684	14.7
632.016	14.68
632.348	14.81
632.679	14.79
633.011	14.57
633.342	14.5
633.674	15.09
634.005	14.87
634.336	14.85
634.668	15.1
634.999	15.11
635.33	15.01
635.661	14.96
635.992	14.89
636.323	15.08
636.654	14.77
636.985	14.85
637.316	15.12
637.647	15.36
637.977	15.23
638.308	15.19
638.639	15.08
638.969	15.47
639.3	15.47
639.63	15.19
639.961	15.58
640.291	15.55
640.622	15.28
640.952	15.41
641.282	15.47
641.612	15.32
641.943	15.62
642.273	16
642.603	15.8
642.933	15.34
643.263	15.91
643.592	15.78
643.922	15.99
644.252	15.44
644.582	15.88
644.911	16.15
645.241	15.99
645.571	15.69
645.9	15.65
646.23	15.75
646.559	15.9
646.888	16.32
647.218	16.11
647.547	15.98
647.876	16.42
648.205	16.34
648.534	16.5
648.863	16.29
649.192	16.6
649.521	16.1
649.85	16.17
650.179	16.39
650.508	16.51
650.837	16.1
651.165	16.63
651.494	16.52
651.822	16.21
652.151	16.5
652.479	16.78
652.808	16.42
653.136	16.48
653.465	16.56
653.793	16.8
654.121	17.03
654.449	16.88
654.777	16.05
655.105	16.63
655.433	16.53
655.761	16.6
656.089	17
656.417	16.29
656.745	17.37
657.073	16.5
657.4	17.54
657.728	17.55
658.056	17.12
658.383	17.27
658.711	17.29
659.038	17.26
659.365	17.73
659.693	17.58
660.02	16.96
660.347	17.85
660.674	17.66
661.001	17.51
661.329	17.38
661.656	17.29
661.982	17.29
662.309	17.64
662.636	17.35
662.963	17.74
663.29	17.77
663.616	17.66
663.943	17.43
664.27	17.83
664.596	17.84
664.923	18.22
665.249	17.57
665.576	17.73
665.902	17.51
666.228	17.78
666.554	18.13
666.881	17.97
667.207	17.51
667.533	18.06
667.859	17.72
668.185	17.85
668.511	18.18
668.837	17.5
669.162	18.7
669.488	18.15
669.814	18.32
670.139	18.25
670.465	18.59
670.791	18.58
671.116	18.33
671.442	18.39
671.767	17.68
672.092	18.7
672.418	18.57
672.743	18.8
673.068	18.33
673.393	18.85
673.718	18.23
674.043	18.64
674.368	18.82
674.693	19.22
675.018	18.61
675.343	18.74
675.667	18.6
675.992	19.19
676.317	18.54
676.641	18.96
676.966	18.99
677.29	18.29
677.615	19.38
677.939	18.81
678.264	18.46
678.588	18.49
678.912	19.48
679.236	18.08
679.56	18.46
679.885	19.51
680.209	19.31
680.532	19.55
680.856	19.39
681.18	19.52
681.504	18.88
681.828	19.34
682.152	19.65
682.475	19.05
682.799	19.13
683.122	19.3
683.446	18.81
683.769	19.99
684.093	19.09
684.416	19.78
684.739	19.15
685.062	20.05
685.386	20.23
685.709	20.08
686.032	19.15
686.355	19.14
686.678	20.14
687.001	19.48
687.324	20.23
687.646	19.39
687.969	19.39
688.292	20.06
688.614	20.11
688.937	19.74
689.26	19.22
689.582	19.61
689.904	19.65
690.227	20.21
690.549	19.49
690.871	20.74
691.194	19.69
691.516	19.71
691.838	20.82
692.16	20.6
692.482	20.2
692.804	19.89
693.126	19.63
693.448	20.54
693.769	20.65
694.091	20.25
694.413	19.26
694.735	20.73
695.056	20.2
695.378	20.82
695.699	21.28
696.021	20.63
696.342	19.87
696.663	20.75
696.984	20.3
697.306	21.01
697.627	20.6
697.948	20.59
698.269	20.34
698.59	20.7
698.911	20.78
699.232	19.99
699.553	20.82
699.873	20.07
700.194	20.8
700.515	20.8
700.835	20.95
701.156	20.94
701.477	20.88
701.797	20.57
702.117	20.48
702.438	21.45
702.758	21.27
703.078	21.64
703.398	21.14
703.719	21.5
704.039	21.13
704.359	20.58
704.679	20.86
704.999	21.66
705.319	19.97
705.638	22.18
705.958	21.2
706.278	21.06
706.597	20.29
706.917	21.56
707.237	20.56
707.556	20.78
707.876	22.07
708.195	22.45
708.514	21.8
708.834	21.53
709.153	21.49
709.472	22.55
709.791	21.78
710.11	22.15
710.429	21.83
710.748	22.75
711.067	21.86
711.386	23.29
711.705	22.48
712.023	22.07
712.342	22.49
712.661	21.73
712.979	21.83
713.298	22.34
713.616	22.82
713.935	20.86
714.253	23.17
714.572	22.84
714.89	22.82
715.208	23.52
715.526	22.99
715.844	22.2
716.162	22.43
716.48	22.09
716.798	22.39
717.116	22.56
717.434	22.47
717.752	21.89
718.069	22.03
718.387	22.11
718.705	22.25
719.022	22.32
719.34	22.49
719.657	22.61
719.975	22.63
720.292	22.39
720.609	22.61
720.927	22.33
721.244	22.87
721.561	22.75
721.878	23.43
722.195	23.67
722.512	22.09
722.829	22.94
723.146	23.24
723.463	23.15
723.779	23.39
724.096	23.61
724.413	23.35
724.729	23
725.046	22.66
725.362	23.46
725.679	23.48
725.995	21.94
726.311	24.05
726.628	24.39
726.944	23.76
727.26	22.29
727.576	22.33
727.892	21.74
728.208	24.15
728.524	23.13
728.84	24.69
729.156	23.07
729.472	22.97
729.787	23.52
730.103	23.68
730.419	23.58
730.734	22.86
731.05	22.89
731.365	23.1
731.681	24.12
731.996	22.63
732.311	24.07
732.626	23.97
732.942	24.39
733.257	25.31
733.572	23.3
733.887	22.62
734.202	23.78
734.517	22.84
734.832	24.49
735.146	24.89
735.461	22.99
735.776	23.81
736.091	23.62
736.405	24.69
736.72	25.55
737.034	24.08
737.349	24.06
737.663	23
737.977	24.08
738.292	24
738.606	25.35
738.92	23.09
739.234	24.44
739.548	24.46
739.862	24.01
740.176	23.63
740.49	24.18
740.804	22.9
741.117	22.2
741.431	24.6
741.745	25.06
742.058	25.15
742.372	25.08
742.685	25.36
742.999	23.58
743.312	25.52
743.626	24.27
743.939	25.03
744.252	24.77
744.565	23.79
744.878	26.5
745.191	25.1
745.505	25.65
745.817	26.86
746.13	25.24
746.443	23.9
746.756	26
747.069	24.55
747.381	26.37
747.694	26.24
748.007	25.15
748.319	23.12
748.632	24.22
748.944	23.77
749.256	27.12
749.569	26.05
749.881	26.18
750.193	25.4
750.505	27.77
750.817	27.27
751.129	25.11
751.441	25.87
751.753	24.54
752.065	25.78
752.377	24.43
752.689	25.9
753	26.89
753.312	26.8
753.624	26.04
753.935	26.06
754.247	26.62
754.558	25.17
754.869	26.4
755.181	27.88
755.492	25.63
755.803	26.61
756.114	25.98
756.425	25.36
756.736	27.08
757.047	23.88
757.358	26.61
757.669	26.07
757.98	27.24
758.291	24.35
758.601	26.68
758.912	25.06
759.223	26.57
759.533	27.1
759.844	25.52
760.154	26.25
760.464	27.29
760.775	27.84
761.085	26.52
761.395	25.79
761.705	25.66
762.016	26.71
762.326	27.35
762.636	25.4
762.945	27.76
763.255	25.31
763.565	26.52
763.875	27.6
764.185	25.23
764.494	27.33
764.804	27.32
765.113	26.11
765.423	26.8
765.732	26.87
766.042	26.81
766.351	26.18
766.66	26.41
766.97	27.5
767.279	27.22
767.588	25.9
767.897	26.72
768.206	26.48
768.515	27.84
768.824	26.96
769.133	26.21
769.441	26.49
769.75	26.74
770.059	26.47
770.367	27.13
770.676	25.06
770.984	27.63
771.293	25.92
771.601	27.61
771.91	30.51
772.218	27.1
772.526	29.12
772.834	28.39
773.142	26.78
773.45	28.02
773.758	25.54
774.066	26.5
774.374	26.68
774.682	31.87
774.99	24.15
775.298	28.27
775.605	29.24
775.913	26.79
776.22	25.85
776.528	28.49
776.835	27.13
777.143	28.38
777.45	27.42
777.757	27.79
778.065	28.33
778.372	28.16
778.679	25.78
778.986	26.01
779.293	30.81
779.6	27.61
779.907	28.86
780.214	28.02
780.52	28.31
780.827	30.07
781.134	29.1
781.44	28.6
781.747	28.96
782.053	28.84
782.36	26.67
782.666	27.38
782.973	29.19
783.279	28.1
783.585	26.76
783.891	27.63
784.197	29.35
784.503	27.18
784.809	26.37
785.115	28.06
785.421	27.65
785.727	30.21
786.033	26.88
786.339	29.06
786.644	28.11
786.95	28.52
787.255	29.63
787.561	28.37
787.866	28.9
788.172	25.01
788.477	25.02
788.782	30.16
789.088	28.76
789.393	30
789.698	27.99
790.003	29.94
790.308	28.69
790.613	31.54
790.918	25.59
791.223	31.07
791.527	27.16
791.832	27.04
792.137	30.15
792.441	30.91
792.746	27.95
793.05	28.82
793.355	31.37
793.659	27.21
793.963	27.82
794.268	26.89
794.572	28.84
794.876	26.74
795.18	28.86
795.484	27.07
795.788	23.55
796.092	26.6
796.396	28.48
796.7	32.02
797.004	27.77
797.307	31.55
797.611	28.36
797.915	28.43
798.218	26.42
798.522	26.14
798.825	30.09
799.128	29.18
799.432	27.73
799.735	28.18
800.038	28.81
800.341	31.85
800.644	25.35
800.947	29.78
801.25	34.96
801.553	32.03
801.856	27.42
802.159	26.85
802.462	29.16
802.764	29.53
803.067	26.24
803.37	26.16
803.672	30.25
803.975	24.65
804.277	28.32
804.579	29.08
804.882	27.71
805.184	27.45
805.486	26.28
805.788	28.58
806.09	30.89
806.392	32.09
806.694	29.24
806.996	30.4
807.298	30.87
807.6	26.53
807.902	27.23
808.203	26.82
808.505	31.03
808.807	30.62
809.108	30.5
809.409	30.4
809.711	29.22
810.012	31.11
810.313	31.37
810.615	30.79
810.916	30.59
811.217	31.31
811.518	32.96
811.819	28.98
812.12	29.38
812.421	32.62
812.722	29.29
813.023	28.66
813.323	28.44
813.624	33.11
813.925	32.1
814.225	28.77
814.526	25.64
814.826	35.4
815.126	27.31
815.427	27.46
815.727	30.22
816.027	25.05
816.327	34.33
816.627	32.24
816.927	28.06
817.227	33.17
817.527	24.49
817.827	34.29
818.127	25.84
818.427	27.47
818.727	30.74
819.026	29.19
819.326	21.7
819.625	29.1
819.925	30.43
820.224	26.19
820.524	27.74
820.823	31.11
821.122	27.97
821.421	29.81
821.72	28.83
822.019	32.76
822.318	33.65
822.617	27.17
822.916	31.19
823.215	31.46
823.514	27.01
823.813	31.58
824.111	32.03
824.41	31.05
824.709	30.99
825.007	30.56
825.306	31.05
825.604	31.23
825.902	32.1
826.201	31.46
826.499	31.95
826.797	30.92
827.095	30.14
827.393	32.31
827.691	30.04
827.989	33.47
828.287	30.86
828.585	30.92
828.882	31.95
829.18	31.59
829.478	30.86
829.775	30.93
830.073	30.58
830.37	31.68
830.668	30.09
830.965	33.19
831.263	31.69
831.56	30.13
831.857	32.39
832.154	30.82
832.451	31.57
832.748	36.25
833.045	27.59
833.342	34.65
833.639	29.2
833.936	31.24
834.232	27.44
834.529	33.03
834.826	29.13
835.122	35.87
835.419	35.15
835.715	33.59
836.012	30.71
836.308	30.37
836.604	30.45
836.901	28.33
837.197	32.81
837.493	33.23
837.789	31.13
838.085	32.03
838.381	31.58
838.677	31.32
838.972	31.09
839.268	28.55
839.564	27.25
839.86	33.12
840.155	32.29
840.451	25.81
840.746	33.91
841.042	28.45
841.337	32.55
841.632	34.54
841.928	29.23
842.223	35.27
842.518	30.24
842.813	27.72
843.108	36.96
843.403	35.61
843.698	33.18
843.993	25.59
844.287	41.22
844.582	38.43
844.877	38.41
845.171	34.08
845.466	26.35
845.761	30.4
846.055	24.45
846.349	26.45
846.644	30.32
846.938	41.84
847.232	35.46
847.526	34.63
847.82	21.9
848.114	19.78
848.408	21.64
848.702	31.87
848.996	44.27
849.29	47.09
849.584	18.2
849.877	36.66
850.171	32.47
850.465	32.26
850.758	35.45
851.052	40.41
851.345	25.46
851.638	23.59
851.932	19.72
852.225	39.03
852.518	35.4
852.811	19.1
853.104	30.28
853.397	23.29
853.69	21.1
853.983	16.06
854.276	29.38
854.569	15.35
854.861	36.9
855.154	40.15
855.447	29.96
855.739	21.31
856.032	33.01
856.324	32.02
856.616	26.58
856.909	25.56
857.201	28.81
857.493	28.66
857.785	46.09
858.077	29.27
858.369	34.05
858.661	42.37
858.953	34.85
859.245	27.88
859.537	31.11
859.829	34.91
860.12	32.46
860.412	21.32
860.703	40.85
860.995	26.74
861.286	25.35
861.578	31.56
861.869	12.17
862.16	46.28
862.452	49.2
862.743	43.78
863.034	31.21
863.325	26.35
863.616	22.13
863.907	36.59
864.198	30.71
864.488	14.46
864.779	51.51
865.07	24.82
865.36	28.77
865.651	31.1
865.941	30.96
866.232	14.02
866.522	43.22
866.813	31.64
867.103	40.62
867.393	38.13
867.683	17.01
867.973	49.37
868.263	1.12
868.553	23.45
868.843	38.26
869.133	38.47
869.423	19.93
869.713	22.24
870.002	28.68
870.292	42.66
870.582	28.01
870.871	23.38
871.161	29.59
871.45	49.89
871.739	24.95
872.029	20.44
872.318	51.72
872.607	35.38
872.896	41.57
873.185	33.98
873.474	25.08
873.763	32.29
874.052	13.58
874.341	25.23
874.63	20.68
874.918	40.62
875.207	59.17
875.496	39.98
875.784	13.25
876.073	20.02
876.361	55.24
876.649	24.18
876.938	38.82
877.226	32.53
877.514	38.82
877.802	33.83
878.09	25.55
878.378	59.87
878.666	35.76
878.954	24.41
879.242	8.33
879.53	32.54
879.817	40.99
880.105	36.15
880.392	25.5
880.68	23.5
880.967	50.09
881.255	36.86
881.542	32.43
881.83	48.51
882.117	25.08
882.404	34.39
882.691	46.66
882.978	27.04
883.265	46.89
883.552	38.88
883.839	38.73
884.126	35.13
884.413	42.65
884.699	28.89
884.986	40.79
885.273	34.49
885.559	34.49
885.846	34.49
