Data from 0402_forehead_Reflection__2__225.txt Node

Date: Tue Dec 12 20:14:00 CST 2023
User: ToomeyLab
Spectrometer: FLMS14357
Trigger mode: 0
Integration Time (sec): 1.000000E-2
Scans to average: 100
Electric dark correction enabled: true
Nonlinearity correction enabled: false
Boxcar width: 0
XAxis mode: Wavelengths
Number of Pixels in Spectrum: 2048
>>>>>Begin Spectral Data<<<<<
189.047	-39.85
189.435	-39.85
189.823	-39.85
190.211	200
190.599	483.5
190.987	122.71
191.375	81.56
191.763	-78.79
192.151	143.42
192.538	193.85
192.926	98.56
193.314	69.03
193.702	32.06
194.089	269.95
194.477	-114.76
194.864	152.94
195.252	12.9
195.639	-61.09
196.027	59.94
196.414	-24.78
196.801	159.81
197.189	-145.21
197.576	2069.39
197.963	-14.86
198.351	23.17
198.738	55.14
199.125	19.56
199.512	23.99
199.899	47.45
200.286	20.11
200.673	-28.77
201.06	2.72
201.447	-115.8
201.833	-5.09
202.22	5.51
202.607	-331.92
202.994	27.97
203.38	45.01
203.767	-8.89
204.154	18.21
204.54	9.37
204.927	-2.2
205.313	13.84
205.699	-22.6
206.086	4.32
206.472	46.43
206.858	10.4
207.245	-14.35
207.631	27.76
208.017	8.41
208.403	28.29
208.789	19.55
209.175	-27.08
209.561	-9.88
209.947	-35.56
210.333	27.28
210.719	21.96
211.105	4.26
211.491	43.9
211.876	26.8
212.262	48.43
212.648	26.54
213.034	-68.52
213.419	12.26
213.805	17.08
214.19	3.69
214.576	18.35
214.961	11.48
215.346	-13.45
215.732	27.58
216.117	4.71
216.502	-7.63
216.888	25.5
217.273	-35.18
217.658	-27.17
218.043	0.55
218.428	21.53
218.813	-6.53
219.198	5.92
219.583	1.74
219.968	12.45
220.353	-12.25
220.738	25.21
221.122	1.69
221.507	-5.06
221.892	-16.11
222.276	15.82
222.661	1.54
223.046	-6.05
223.43	3.59
223.815	2.98
224.199	0.39
224.583	0.15
224.968	17.78
225.352	9.35
225.736	-0.68
226.121	-5.4
226.505	-4.81
226.889	4.73
227.273	7.22
227.657	7.82
228.041	2.76
228.425	4.24
228.809	6.48
229.193	8.5
229.577	4.94
229.961	4.48
230.344	5.67
230.728	6.32
231.112	6.32
231.495	6.15
231.879	7.6
232.263	3.89
232.646	4.66
233.03	5.27
233.413	2.87
233.797	6.34
234.18	3.17
234.563	3.57
234.946	4.14
235.33	7.84
235.713	7.09
236.096	4.82
236.479	7.03
236.862	3.58
237.245	6.34
237.628	5.15
238.011	5.41
238.394	5.28
238.777	6.26
239.16	5.12
239.543	5.28
239.925	6.57
240.308	4.94
240.691	6.2
241.073	4.38
241.456	5.68
241.838	6.25
242.221	6.4
242.603	5.11
242.986	4.36
243.368	6.22
243.75	4.81
244.133	5.34
244.515	5.4
244.897	5.86
245.279	5.89
245.661	4.7
246.043	6.05
246.425	5.21
246.807	4.28
247.189	5.29
247.571	5.48
247.953	4.8
248.335	5.32
248.717	5.31
249.098	5.41
249.48	5.19
249.862	4.9
250.243	4.57
250.625	6.03
251.006	5.06
251.388	5.35
251.769	4.16
252.151	4.06
252.532	4.5
252.913	5.16
253.295	5.77
253.676	4.75
254.057	4.79
254.438	5.02
254.819	4.6
255.2	5.3
255.581	5.06
255.962	4.27
256.343	5.47
256.724	5.66
257.105	5.94
257.486	4.58
257.867	4.42
258.247	4.13
258.628	5.38
259.009	5.18
259.389	4.25
259.77	4.23
260.15	4.79
260.531	5.68
260.911	4.99
261.292	4.88
261.672	4.79
262.052	5
262.432	5.24
262.813	4.74
263.193	5.34
263.573	4.8
263.953	5.73
264.333	5.59
264.713	5.19
265.093	5.12
265.473	5.52
265.853	4.51
266.233	4.36
266.612	5.59
266.992	4.96
267.372	4.98
267.752	5.85
268.131	4.23
268.511	4.45
268.89	4.28
269.27	4.24
269.649	4.73
270.029	4.6
270.408	5.16
270.787	5.14
271.167	4.42
271.546	5.08
271.925	5.65
272.304	5.77
272.683	4.66
273.062	4.68
273.441	4.72
273.82	4.48
274.199	4.96
274.578	4.83
274.957	4.68
275.336	4.91
275.715	5.14
276.093	3.94
276.472	4.9
276.851	5.72
277.229	4.84
277.608	4.28
277.986	4.39
278.365	4.67
278.743	5.39
279.122	5.26
279.5	4.55
279.878	4.46
280.257	4.61
280.635	4.45
281.013	4.9
281.391	4.85
281.769	4.91
282.147	4.87
282.525	4.27
282.903	4.22
283.281	4.51
283.659	4.85
284.037	5.41
284.415	4.8
284.792	4.79
285.17	4.74
285.548	5.22
285.925	4.46
286.303	4.38
286.68	4.91
287.058	5.28
287.435	4.76
287.813	4.39
288.19	5.05
288.567	4.91
288.945	4.73
289.322	4.37
289.699	4.64
290.076	4.39
290.453	5.6
290.83	4.59
291.207	5.07
291.584	5.42
291.961	5.05
292.338	4.72
292.715	4.8
293.092	4.96
293.469	4.94
293.845	4.75
294.222	4.79
294.599	4.6
294.975	4.75
295.352	4.84
295.728	5.25
296.105	5.78
296.481	5.06
296.858	5.23
297.234	5.45
297.61	5.28
297.986	5.17
298.363	5.27
298.739	5.47
299.115	5.01
299.491	5.2
299.867	4.82
300.243	4.82
300.619	5.25
300.995	5.51
301.371	4.9
301.746	5.39
302.122	5.69
302.498	5.08
302.874	5.36
303.249	5.74
303.625	5.37
304	5.76
304.376	5.94
304.751	5.63
305.127	5.57
305.502	5.6
305.878	5.12
306.253	5.13
306.628	5.61
307.003	5.52
307.378	5.4
307.754	5.65
308.129	5.51
308.504	6.52
308.879	5.38
309.254	6.36
309.629	5.63
310.003	5.63
310.378	5.93
310.753	5.99
311.128	5.97
311.502	5.48
311.877	5.77
312.252	5.48
312.626	5.91
313.001	5.95
313.375	5.27
313.75	5.85
314.124	6.53
314.498	5.85
314.873	5.79
315.247	6
315.621	5.87
315.995	5.78
316.369	5.96
316.743	5.82
317.117	5.37
317.491	5.94
317.865	5.54
318.239	6.03
318.613	6.59
318.987	6.45
319.361	5.69
319.734	6
320.108	6.35
320.482	6.59
320.855	5.36
321.229	6.42
321.602	6.3
321.976	6.11
322.349	6.85
322.723	5.65
323.096	6.08
323.469	6.02
323.843	6.77
324.216	6.68
324.589	6.42
324.962	6.56
325.335	6.6
325.708	6.4
326.081	6.78
326.454	6.51
326.827	6.59
327.2	6.06
327.573	6.28
327.945	6.46
328.318	6.63
328.691	6.06
329.063	6.52
329.436	6.74
329.809	6.71
330.181	5.58
330.553	6.62
330.926	6.42
331.298	6.33
331.671	7.05
332.043	6.39
332.415	6.35
332.787	6.4
333.159	6.96
333.532	7.12
333.904	7.01
334.276	7.52
334.648	6.36
335.02	6.23
335.391	6.64
335.763	6.39
336.135	6.54
336.507	7.5
336.879	6.73
337.25	7.05
337.622	7.22
337.993	6.57
338.365	6.83
338.736	6.85
339.108	6.47
339.479	7.08
339.851	6.18
340.222	7.12
340.593	6.79
340.964	7.09
341.336	6.85
341.707	6.7
342.078	6.79
342.449	7.04
342.82	7.31
343.191	7.19
343.562	7.54
343.933	7.24
344.303	7.48
344.674	7.49
345.045	7.3
345.416	7.47
345.786	7.37
346.157	7.29
346.527	7.78
346.898	7.29
347.268	7.44
347.639	7.44
348.009	7.59
348.38	7.31
348.75	7.67
349.12	8
349.49	7.19
349.861	7.85
350.231	7.76
350.601	8.12
350.971	7.77
351.341	7.7
351.711	7.62
352.081	7.95
352.45	7.66
352.82	8.18
353.19	8.2
353.56	7.85
353.929	7.51
354.299	8
354.669	7.45
355.038	7.36
355.408	7.89
355.777	8.06
356.147	7.66
356.516	7.88
356.885	7.9
357.254	8.21
357.624	7.95
357.993	8.02
358.362	8.23
358.731	7.71
359.1	7.83
359.469	7.98
359.838	8.1
360.207	8.17
360.576	8.19
360.945	8.03
361.314	8.04
361.682	8.25
362.051	8.31
362.42	8.23
362.788	8.13
363.157	8.53
363.525	8.37
363.894	8.08
364.262	8.41
364.631	7.98
364.999	8.43
365.367	8.59
365.735	8.31
366.104	8.6
366.472	8.36
366.84	8.47
367.208	8.3
367.576	8.21
367.944	8.54
368.312	8.54
368.68	8.57
369.048	8.9
369.416	8.76
369.783	8.66
370.151	9.13
370.519	8.48
370.886	8.61
371.254	8.83
371.621	9.11
371.989	8.37
372.356	8.96
372.724	9.01
373.091	8.79
373.458	8.84
373.826	9.2
374.193	9.01
374.56	9.3
374.927	9.17
375.294	9.04
375.661	8.95
376.028	9.41
376.395	9.7
376.762	9.46
377.129	9.34
377.496	9.37
377.863	9.44
378.229	9.72
378.596	8.87
378.963	9.12
379.329	9.29
379.696	9.01
380.062	9.46
380.429	9.17
380.795	9.46
381.161	9.38
381.528	9.54
381.894	9.51
382.26	9.58
382.626	9.37
382.993	9.88
383.359	9.59
383.725	9.52
384.091	9.25
384.457	9.52
384.823	9.62
385.188	9.53
385.554	9.69
385.92	9.68
386.286	10.19
386.651	10.02
387.017	10.31
387.383	10.06
387.748	10.24
388.114	10
388.479	10.39
388.845	10.11
389.21	9.85
389.575	9.86
389.94	10.19
390.306	10.16
390.671	10.15
391.036	10.21
391.401	9.94
391.766	10.41
392.131	10.13
392.496	10.34
392.861	10.18
393.226	10.34
393.591	10.27
393.956	10.22
394.32	10.24
394.685	10.41
395.05	10.38
395.414	10.62
395.779	10.44
396.143	10.56
396.508	10.47
396.872	10.75
397.236	10.23
397.601	10.7
397.965	10.8
398.329	10.87
398.694	10.57
399.058	10.83
399.422	10.66
399.786	10.89
400.15	10.72
400.514	11.14
400.878	10.94
401.242	10.72
401.605	11.09
401.969	10.87
402.333	10.88
402.697	11.01
403.06	10.6
403.424	11.04
403.787	10.98
404.151	11.06
404.514	11.02
404.878	11.08
405.241	11.53
405.604	11
405.968	11.12
406.331	11.4
406.694	11.56
407.057	11.16
407.42	11.29
407.783	11.28
408.146	11.41
408.509	11.35
408.872	11.44
409.235	11.45
409.598	11.43
409.961	11.41
410.323	11.52
410.686	11.55
411.049	11.52
411.411	11.77
411.774	11.73
412.136	11.78
412.499	11.66
412.861	11.72
413.223	11.99
413.586	11.85
413.948	11.77
414.31	12.02
414.672	12.11
415.035	11.89
415.397	11.93
415.759	11.94
416.121	12.11
416.483	11.97
416.845	11.87
417.206	12.3
417.568	12.03
417.93	12.16
418.292	12.09
418.653	12.32
419.015	12.16
419.377	12.27
419.738	12.01
420.1	12.29
420.461	12.22
420.822	12.17
421.184	12.26
421.545	12.41
421.906	12.32
422.267	12.24
422.629	12.3
422.99	12.32
423.351	12.35
423.712	12.41
424.073	12.35
424.434	12.45
424.795	12.66
425.155	12.47
425.516	12.43
425.877	12.5
426.238	12.7
426.598	12.6
426.959	12.66
427.32	12.74
427.68	12.82
428.041	12.78
428.401	12.8
428.761	12.95
429.122	13.06
429.482	13.24
429.842	13.19
430.202	12.94
430.563	13.15
430.923	13.38
431.283	13.11
431.643	13.44
432.003	13.19
432.363	13.43
432.722	13.48
433.082	13.44
433.442	13.58
433.802	13.53
434.161	13.48
434.521	13.45
434.881	13.65
435.24	13.6
435.6	13.57
435.959	13.71
436.319	13.76
436.678	14.01
437.037	13.61
437.396	13.72
437.756	13.86
438.115	13.81
438.474	13.77
438.833	14.01
439.192	14.27
439.551	13.97
439.91	13.97
440.269	14.12
440.628	14.01
440.987	14.04
441.345	14.19
441.704	14.18
442.063	14
442.421	14.19
442.78	14.15
443.138	14.29
443.497	14.27
443.855	14.22
444.214	14.53
444.572	14.43
444.93	14.62
445.288	14.4
445.647	14.6
446.005	14.55
446.363	14.68
446.721	14.55
447.079	14.63
447.437	14.4
447.795	14.61
448.153	14.57
448.51	14.7
448.868	14.74
449.226	14.76
449.584	14.74
449.941	14.81
450.299	14.98
450.656	14.99
451.014	15.14
451.371	15.09
451.729	15.27
452.086	15.05
452.443	15.27
452.801	15.42
453.158	15.47
453.515	15.43
453.872	15.38
454.229	15.63
454.586	15.32
454.943	15.4
455.3	15.41
455.657	15.59
456.014	15.7
456.371	15.55
456.727	15.82
457.084	15.69
457.441	15.83
457.797	15.78
458.154	15.74
458.51	15.75
458.867	15.86
459.223	16.02
459.58	15.91
459.936	16.05
460.292	16.1
460.648	16.03
461.005	15.98
461.361	15.91
461.717	15.89
462.073	16
462.429	16.02
462.785	16.1
463.141	16.35
463.496	16.32
463.852	16.6
464.208	16.37
464.564	16.35
464.919	16.67
465.275	16.74
465.631	16.8
465.986	16.47
466.342	16.52
466.697	16.62
467.052	16.9
467.408	17.09
467.763	16.82
468.118	17.04
468.473	17.09
468.829	17.05
469.184	16.86
469.539	17.14
469.894	16.97
470.249	17.32
470.603	17.3
470.958	17.24
471.313	17.45
471.668	17.46
472.023	17.33
472.377	17.25
472.732	17.53
473.086	17.44
473.441	17.56
473.795	17.57
474.15	17.4
474.504	17.6
474.859	17.6
475.213	17.5
475.567	17.46
475.921	17.68
476.275	17.54
476.63	17.87
476.984	17.89
477.338	17.93
477.692	17.93
478.045	17.85
478.399	17.83
478.753	17.99
479.107	18.08
479.461	17.92
479.814	18.12
480.168	17.89
480.521	18.01
480.875	18.19
481.228	18.24
481.582	18.19
481.935	18.38
482.289	18.42
482.642	18.55
482.995	18.33
483.348	18.23
483.701	18.43
484.055	18.37
484.408	18.28
484.761	18.07
485.114	17.92
485.466	17.72
485.819	17.73
486.172	17.76
486.525	17.87
486.878	17.98
487.23	18.18
487.583	18.22
487.936	18.43
488.288	18.47
488.641	18.45
488.993	18.31
489.345	18.33
489.698	18.27
490.05	18.29
490.402	18.43
490.754	18.56
491.107	18.63
491.459	18.9
491.811	19.1
492.163	19.08
492.515	19.18
492.866	18.92
493.218	18.78
493.57	18.81
493.922	18.75
494.274	19.06
494.625	19.18
494.977	19.33
495.328	19.54
495.68	19.73
496.031	19.93
496.383	19.81
496.734	20.01
497.086	19.88
497.437	20
497.788	19.91
498.139	20.02
498.49	20.05
498.842	19.91
499.193	20.05
499.544	19.97
499.894	20.21
500.245	20.27
500.596	20.26
500.947	20.22
501.298	20.51
501.648	20.44
501.999	20.52
502.35	20.59
502.7	20.84
503.051	20.88
503.401	20.96
503.752	20.91
504.102	21.17
504.452	20.8
504.803	21.02
505.153	21.1
505.503	21.16
505.853	21
506.203	20.94
506.553	21.06
506.903	21.05
507.253	21.05
507.603	21.13
507.953	21.36
508.303	21.27
508.652	21.48
509.002	21.49
509.352	21.46
509.701	21.64
510.051	21.5
510.4	21.47
510.75	21.46
511.099	21.54
511.449	21.68
511.798	21.59
512.147	21.66
512.496	21.94
512.846	21.82
513.195	21.77
513.544	21.86
513.893	21.9
514.242	21.9
514.591	21.98
514.939	22.06
515.288	22.02
515.637	22.11
515.986	22.25
516.334	22.39
516.683	22.3
517.032	22.44
517.38	22.41
517.729	22.49
518.077	22.44
518.426	22.56
518.774	22.6
519.122	22.65
519.47	22.41
519.819	22.5
520.167	22.45
520.515	22.39
520.863	22.46
521.211	22.45
521.559	22.55
521.907	22.63
522.255	22.76
522.602	23.08
522.95	23.11
523.298	23.11
523.645	23.18
523.993	23.31
524.341	23.32
524.688	23.23
525.036	23.28
525.383	23.39
525.73	23.37
526.078	23.35
526.425	23.54
526.772	23.34
527.119	23.41
527.466	23.26
527.814	23.18
528.161	23.46
528.508	23.31
528.854	23.36
529.201	23.37
529.548	23.36
529.895	23.21
530.242	22.93
530.588	22.95
530.935	23.09
531.282	23.19
531.628	23.26
531.975	23.33
532.321	23.61
532.667	23.71
533.014	23.76
533.36	24.09
533.706	23.95
534.052	24.02
534.399	24.14
534.745	24.01
535.091	23.75
535.437	23.97
535.783	23.88
536.129	24.16
536.474	24.29
536.82	24.48
537.166	24.61
537.512	24.78
537.857	24.68
538.203	24.61
538.549	24.64
538.894	24.73
539.239	24.67
539.585	24.79
539.93	25.12
540.276	25.14
540.621	25.35
540.966	25.4
541.311	25.41
541.656	25.41
542.001	25.35
542.346	25.29
542.691	25.1
543.036	24.88
543.381	24.81
543.726	25.05
544.071	25.05
544.415	25.23
544.76	25.29
545.105	25.49
545.449	25.46
545.794	25.72
546.138	25.67
546.483	26.02
546.827	26.06
547.171	26.32
547.516	26.15
547.86	26.15
548.204	26.22
548.548	26.38
548.892	26.12
549.236	26.31
549.58	26.35
549.924	26.39
550.268	26.7
550.612	26.57
550.956	26.74
551.3	27.21
551.643	26.92
551.987	27.23
552.33	27.24
552.674	27.17
553.017	27.63
553.361	27.44
553.704	27.46
554.048	27.45
554.391	27.5
554.734	27.49
555.077	27.53
555.42	27.54
555.764	27.65
556.107	27.83
556.45	27.62
556.793	27.74
557.135	27.86
557.478	28
557.821	28.09
558.164	28.19
558.507	28.21
558.849	28.35
559.192	28.55
559.534	28.47
559.877	28.44
560.219	28.76
560.562	28.37
560.904	28.44
561.246	28.71
561.589	28.6
561.931	28.63
562.273	28.74
562.615	28.86
562.957	28.73
563.299	28.95
563.641	28.87
563.983	28.95
564.325	29.07
564.667	29.11
565.008	29.1
565.35	29
565.692	29.21
566.033	29.24
566.375	29.32
566.716	29.28
567.058	29.4
567.399	29.4
567.741	29.35
568.082	29.42
568.423	29.29
568.764	29.65
569.105	29.48
569.447	29.6
569.788	29.59
570.129	29.74
570.47	29.96
570.811	29.73
571.151	30.09
571.492	30.07
571.833	30.21
572.174	29.85
572.514	30.32
572.855	30.12
573.195	29.98
573.536	30.17
573.876	30.11
574.217	30.24
574.557	30.22
574.898	30.43
575.238	30.56
575.578	30.46
575.918	30.47
576.258	30.62
576.598	30.68
576.938	30.8
577.278	30.89
577.618	31.03
577.958	31.03
578.298	30.97
578.638	30.8
578.977	31.14
579.317	31.18
579.657	31.22
579.996	31.29
580.336	31.44
580.675	31.49
581.014	31.48
581.354	31.64
581.693	31.63
582.032	31.61
582.372	31.81
582.711	32.03
583.05	31.98
583.389	31.95
583.728	32.19
584.067	32.41
584.406	32.2
584.745	32.03
585.083	32.16
585.422	32.39
585.761	32.47
586.1	32.41
586.438	32.28
586.777	32.43
587.115	32.7
587.454	32.82
587.792	32.32
588.13	32.68
588.469	32.87
588.807	32.8
589.145	32.79
589.483	32.89
589.821	32.65
590.159	32.94
590.497	33.3
590.835	33.23
591.173	33.17
591.511	33.27
591.849	33.11
592.187	33.3
592.524	33.27
592.862	33.17
593.2	33.26
593.537	33.29
593.875	33.81
594.212	33.66
594.55	33.73
594.887	33.59
595.224	33.95
595.561	33.87
595.899	33.54
596.236	33.55
596.573	33.92
596.91	34.03
597.247	34.2
597.584	34.16
597.921	34.04
598.258	33.89
598.594	34.12
598.931	33.99
599.268	34
599.604	33.84
599.941	34.24
600.277	34.08
600.614	34.31
600.95	34.49
601.287	34.84
601.623	34.77
601.959	34.66
602.296	34.86
602.632	34.93
602.968	34.96
603.304	34.94
603.64	34.9
603.976	34.98
604.312	35.08
604.648	35.16
604.984	35.15
605.319	35
605.655	35.27
605.991	35.16
606.326	35.15
606.662	35.18
606.998	35.2
607.333	35.24
607.668	35.55
608.004	35.56
608.339	35.63
608.674	35.46
609.01	35.68
609.345	35.82
609.68	36.22
610.015	35.77
610.35	36.03
610.685	36.08
611.02	35.93
611.355	35.75
611.689	36.19
612.024	35.94
612.359	36.17
612.694	36.06
613.028	36.32
613.363	36.22
613.697	36.39
614.032	36.47
614.366	36.61
614.7	36.67
615.035	36.55
615.369	36.86
615.703	36.75
616.037	36.91
616.371	36.9
616.705	37.35
617.039	36.89
617.373	37.35
617.707	37.04
618.041	36.9
618.375	36.86
618.709	37.4
619.042	36.88
619.376	37.18
619.71	37.27
620.043	37.16
620.377	37.49
620.71	37.47
621.043	37.94
621.377	37.55
621.71	38.08
622.043	38.09
622.376	38.09
622.709	38.13
623.043	38.04
623.376	38.61
623.709	38.45
624.041	38.35
624.374	37.75
624.707	37.89
625.04	38.55
625.373	38.49
625.705	37.94
626.038	38.42
626.37	38.67
626.703	38.31
627.035	38.35
627.368	38.32
627.7	38.58
628.032	38.68
628.365	39.15
628.697	38.51
629.029	38.76
629.361	38.43
629.693	38.92
630.025	38.85
630.357	38.78
630.689	38.65
631.021	39.05
631.353	39.26
631.684	39.44
632.016	39.06
632.348	39.37
632.679	39.32
633.011	39.63
633.342	39.19
633.674	39.32
634.005	39.38
634.336	39.48
634.668	39.62
634.999	39.76
635.33	39.31
635.661	39.82
635.992	39.94
636.323	39.82
636.654	40.01
636.985	39.81
637.316	40.24
637.647	39.58
637.977	40.05
638.308	40.32
638.639	40.07
638.969	40.27
639.3	40.33
639.63	40.54
639.961	40.63
640.291	40.41
640.622	40.1
640.952	40.11
641.282	40.76
641.612	40.78
641.943	41.26
642.273	40.6
642.603	40.9
642.933	40.35
643.263	41.09
643.592	41.12
643.922	41.17
644.252	41.25
644.582	40.71
644.911	41.35
645.241	40.96
645.571	41.91
645.9	41.42
646.23	41.32
646.559	41.49
646.888	41.13
647.218	41.62
647.547	41.49
647.876	41.51
648.205	41.62
648.534	41.61
648.863	41.43
649.192	42.11
649.521	42.23
649.85	42.37
650.179	42.06
650.508	41.42
650.837	42.02
651.165	41.91
651.494	42.18
651.822	42.03
652.151	42.29
652.479	42.26
652.808	42.19
653.136	42.63
653.465	41.72
653.793	42.15
654.121	42.54
654.449	42.61
654.777	42.61
655.105	42.23
655.433	42.31
655.761	43.27
656.089	42.26
656.417	42.79
656.745	43.14
657.073	42.51
657.4	43.17
657.728	42.45
658.056	43.04
658.383	42.78
658.711	43.04
659.038	42.44
659.365	42.37
659.693	42.82
660.02	43.08
660.347	43.45
660.674	43.08
661.001	43.21
661.329	43.34
661.656	43.21
661.982	43.31
662.309	43.94
662.636	42.79
662.963	43.38
663.29	43.78
663.616	43.65
663.943	43.97
664.27	43.51
664.596	43.23
664.923	44.17
665.249	43.6
665.576	43.23
665.902	43.5
666.228	43.59
666.554	44.01
666.881	44.29
667.207	43.4
667.533	44.07
667.859	43.82
668.185	44.79
668.511	44.33
668.837	44.06
669.162	44.87
669.488	43.83
669.814	44.97
670.139	44.05
670.465	44.1
670.791	44.33
671.116	44.81
671.442	44.11
671.767	44.71
672.092	45.44
672.418	45.31
672.743	44.51
673.068	45.33
673.393	44.84
673.718	44.94
674.043	45.04
674.368	44.7
674.693	44.67
675.018	44.88
675.343	45.47
675.667	45.23
675.992	45.64
676.317	45.61
676.641	44.8
676.966	45.76
677.29	45.19
677.615	45.22
677.939	45.6
678.264	45.49
678.588	45.54
678.912	45.58
679.236	45.8
679.56	46.36
679.885	46.02
680.209	45.98
680.532	46.05
680.856	45.77
681.18	46.31
681.504	45.87
681.828	46.07
682.152	45.86
682.475	46.23
682.799	46.08
683.122	46.34
683.446	45.82
683.769	46.94
684.093	45.93
684.416	46.03
684.739	46.21
685.062	46.6
685.386	46.39
685.709	46.53
686.032	47.02
686.355	45.84
686.678	47.06
687.001	46.56
687.324	47.41
687.646	46.76
687.969	46.11
688.292	46.52
688.614	46.81
688.937	46.91
689.26	47.45
689.582	46.84
689.904	47.23
690.227	47.47
690.549	47.59
690.871	46.74
691.194	47.49
691.516	47.13
691.838	46.31
692.16	47.26
692.482	47.44
692.804	47.52
693.126	47
693.448	47.17
693.769	47.21
694.091	47.77
694.413	48.1
694.735	48.3
695.056	46.19
695.378	47.76
695.699	47.66
696.021	46.96
696.342	48.21
696.663	47.92
696.984	46.71
697.306	47.45
697.627	47.51
697.948	48.29
698.269	47.42
698.59	49.32
698.911	48.17
699.232	48.33
699.553	47.97
699.873	49.21
700.194	48.76
700.515	47.74
700.835	48.67
701.156	48.38
701.477	48.5
701.797	48.59
702.117	47.96
702.438	48.46
702.758	47.62
703.078	48.35
703.398	48.78
703.719	48.35
704.039	48.81
704.359	48.61
704.679	48.79
704.999	49.52
705.319	49.64
705.638	50.25
705.958	48
706.278	49.54
706.597	50.81
706.917	49.56
707.237	48.89
707.556	49.78
707.876	49.33
708.195	49.52
708.514	48.89
708.834	49.87
709.153	49.57
709.472	49.08
709.791	49.83
710.11	49.41
710.429	50.48
710.748	48.16
711.067	49.87
711.386	48.82
711.705	51.02
712.023	49.59
712.342	49.49
712.661	49.76
712.979	51.17
713.298	49.08
713.616	49.12
713.935	49.73
714.253	50.41
714.572	49.8
714.89	49.76
715.208	50.06
715.526	49.14
715.844	49.33
716.162	49.63
716.48	50.26
716.798	49.77
717.116	50.51
717.434	50.92
717.752	49.68
718.069	51.35
718.387	50.19
718.705	50.21
719.022	50.93
719.34	50.47
719.657	50.94
719.975	50.17
720.292	48.89
720.609	50.91
720.927	50.38
721.244	48.49
721.561	51.03
721.878	49.73
722.195	49.51
722.512	49.87
722.829	49.72
723.146	51.11
723.463	51.63
723.779	49.46
724.096	50.59
724.413	48.12
724.729	51.56
725.046	50.7
725.362	51.87
725.679	51.75
725.995	51.12
726.311	51.82
726.628	52.36
726.944	51.46
727.26	52.35
727.576	50.26
727.892	51.48
728.208	50.47
728.524	51.3
728.84	51.67
729.156	50.06
729.472	51.32
729.787	50.64
730.103	53
730.419	51.76
730.734	49.86
731.05	50.47
731.365	52.41
731.681	52.01
731.996	52.04
732.311	51.91
732.626	50.62
732.942	52.05
733.257	51.63
733.572	51.19
733.887	51.62
734.202	52.08
734.517	52.54
734.832	52.56
735.146	51.95
735.461	51.5
735.776	52.33
736.091	51.27
736.405	52.08
736.72	52.12
737.034	52.27
737.349	51.03
737.663	52.71
737.977	50.61
738.292	52.55
738.606	50.33
738.92	51.78
739.234	51.67
739.548	52.85
739.862	52.13
740.176	53.65
740.49	51.52
740.804	52.79
741.117	52.29
741.431	52.13
741.745	54.82
742.058	54.67
742.372	52.27
742.685	52.66
742.999	51.08
743.312	52.72
743.626	55.17
743.939	53.99
744.252	53.91
744.565	55.16
744.878	52.74
745.191	53.62
745.505	51.75
745.817	55.22
746.13	51.82
746.443	53.31
746.756	55.48
747.069	54.1
747.381	51.72
747.694	52.25
748.007	51.84
748.319	54.24
748.632	54.03
748.944	51.5
749.256	53.13
749.569	53.74
749.881	52.16
750.193	55.38
750.505	53.25
750.817	54.36
751.129	52.58
751.441	52.71
751.753	55.82
752.065	54.08
752.377	52.24
752.689	53.64
753	51.33
753.312	53.84
753.624	53.03
753.935	53.43
754.247	53.76
754.558	54.65
754.869	53.85
755.181	53.81
755.492	55.47
755.803	54.45
756.114	55.33
756.425	52.99
756.736	52.87
757.047	52.23
757.358	52.94
757.669	54.19
757.98	53.9
758.291	53.19
758.601	54.9
758.912	54.53
759.223	52.05
759.533	54.72
759.844	53.76
760.154	54.91
760.464	56.28
760.775	54.9
761.085	55.93
761.395	54.22
761.705	55.34
762.016	55.32
762.326	52.56
762.636	53.29
762.945	55.46
763.255	55.23
763.565	52.35
763.875	54.49
764.185	54.99
764.494	56.4
764.804	53.1
765.113	54.6
765.423	55.7
765.732	56.47
766.042	55.7
766.351	54.59
766.66	54.96
766.97	54.87
767.279	55.23
767.588	54.42
767.897	54.59
768.206	55.49
768.515	57.32
768.824	55.34
769.133	54.96
769.441	52.88
769.75	55.95
770.059	55.58
770.367	52.89
770.676	55.14
770.984	56
771.293	55.14
771.601	56.09
771.91	54.45
772.218	55.32
772.526	54.66
772.834	53.73
773.142	55.36
773.45	54.26
773.758	52.4
774.066	52.89
774.374	54.76
774.682	56.16
774.99	54.01
775.298	56.13
775.605	55.84
775.913	56.87
776.22	56.53
776.528	57.84
776.835	52.72
777.143	54.71
777.45	56.7
777.757	52.58
778.065	55.27
778.372	55.22
778.679	51.91
778.986	52.56
779.293	54.81
779.6	53.78
779.907	56.05
780.214	56.15
780.52	56.85
780.827	57.45
781.134	56.95
781.44	62.8
781.747	53.07
782.053	54.99
782.36	56.36
782.666	53.56
782.973	54.5
783.279	57.74
783.585	54.73
783.891	55.71
784.197	59.28
784.503	56.8
784.809	53.69
785.115	56.41
785.421	57.09
785.727	53.66
786.033	58.28
786.339	55.43
786.644	53.25
786.95	57.66
787.255	52.3
787.561	51.86
787.866	58.4
788.172	52.45
788.477	50.19
788.782	57.33
789.088	55.72
789.393	54.02
789.698	55.92
790.003	60.08
790.308	56.71
790.613	59.09
790.918	54.56
791.223	57.61
791.527	57.25
791.832	59.16
792.137	53.17
792.441	56.53
792.746	52.97
793.05	57.72
793.355	55.42
793.659	55.64
793.963	58.99
794.268	54.26
794.572	57.45
794.876	57.52
795.18	58.52
795.484	52.5
795.788	57.18
796.092	51.5
796.396	61.3
796.7	53.76
797.004	56.19
797.307	54.47
797.611	57.27
797.915	56.9
798.218	58.17
798.522	55.49
798.825	59.1
799.128	55.85
799.432	58.01
799.735	60.41
800.038	58.62
800.341	60.02
800.644	56.36
800.947	59.45
801.25	55.88
801.553	53.4
801.856	51.97
802.159	59.71
802.462	57.88
802.764	55.31
803.067	57.25
803.37	56.03
803.672	53.5
803.975	53.58
804.277	58.23
804.579	55.44
804.882	51.25
805.184	58.82
805.486	54.21
805.788	58.1
806.09	58.14
806.392	55.32
806.694	55.93
806.996	53.04
807.298	54.88
807.6	55.12
807.902	50.84
808.203	57.7
808.505	56.1
808.807	55.19
809.108	49.67
809.409	50.79
809.711	54.64
810.012	54.64
810.313	54.45
810.615	54.9
810.916	53.45
811.217	51.8
811.518	54.67
811.819	54.85
812.12	59.76
812.421	53.35
812.722	55.13
813.023	54.29
813.323	56.74
813.624	55.03
813.925	60.82
814.225	53.16
814.526	50.92
814.826	59.77
815.126	53.92
815.427	61.03
815.727	54.65
816.027	51.49
816.327	58.5
816.627	58.58
816.927	63.06
817.227	62.81
817.527	57.95
817.827	55.09
818.127	57.33
818.427	51.6
818.727	43.57
819.026	53.91
819.326	59.29
819.625	52.25
819.925	55.2
820.224	62.38
820.524	52.5
820.823	61.48
821.122	60.41
821.421	57.53
821.72	58.22
822.019	58.21
822.318	55.18
822.617	59.35
822.916	58.31
823.215	57.43
823.514	59.12
823.813	61.05
824.111	61.09
824.41	58.8
824.709	62.18
825.007	60.05
825.306	60.73
825.604	60.82
825.902	60.24
826.201	60.16
826.499	59.37
826.797	61.83
827.095	58.71
827.393	58.5
827.691	58.73
827.989	61.13
828.287	60.55
828.585	59.51
828.882	58.67
829.18	61.14
829.478	59.74
829.775	58.77
830.073	60.83
830.37	60.34
830.668	61.52
830.965	60.73
831.263	60.96
831.56	57.04
831.857	61.36
832.154	55.8
832.451	59.72
832.748	61.74
833.045	57.89
833.342	62.48
833.639	62.04
833.936	57.58
834.232	63.48
834.529	57.36
834.826	57.23
835.122	62.9
835.419	58.56
835.715	57.42
836.012	60.14
836.308	55.15
836.604	59.81
836.901	62.14
837.197	62.85
837.493	60.56
837.789	63.68
838.085	57.39
838.381	56.68
838.677	59.18
838.972	57.3
839.268	60.13
839.564	55.5
839.86	58.61
840.155	53.97
840.451	54.34
840.746	52.87
841.042	48.08
841.337	63.29
841.632	51.92
841.928	54.47
842.223	56.94
842.518	44.31
842.813	54.78
843.108	59.64
843.403	60.04
843.698	48.94
843.993	73.95
844.287	68.13
844.582	49.54
844.877	57.09
845.171	71.47
845.466	51.74
845.761	51.54
846.055	49.04
846.349	62.92
846.644	58.56
846.938	70.23
847.232	53.8
847.526	44.08
847.82	50.18
848.114	71.54
848.408	56.06
848.702	71.06
848.996	53.58
849.29	51.09
849.584	55.87
849.877	57.15
850.171	45.78
850.465	62.44
850.758	41.75
851.052	22.69
851.345	53.06
851.638	50.32
851.932	61.14
852.225	45.54
852.518	45.99
852.811	40.45
853.104	29.26
853.397	45
853.69	49.12
853.983	55.42
854.276	54.4
854.569	57.93
854.861	37.81
855.154	40.58
855.447	46.09
855.739	62.84
856.032	35.66
856.324	46.63
856.616	60.15
856.909	60.46
857.201	71.18
857.493	55.79
857.785	53.16
858.077	52.48
858.369	64.46
858.661	82.35
858.953	59.64
859.245	31.01
859.537	40.95
859.829	44.3
860.12	15.42
860.412	9.81
860.703	53.35
860.995	48.22
861.286	42.13
861.578	42.51
861.869	67.52
862.16	53.27
862.452	44.59
862.743	17.9
863.034	71.24
863.325	72.71
863.616	66.48
863.907	44.37
864.198	36.19
864.488	54.72
864.779	57.26
865.07	43.07
865.36	43.88
865.651	34.94
865.941	27.43
866.232	71.42
866.522	42.58
866.813	34.25
867.103	78.14
867.393	56.68
867.683	25.81
867.973	67.51
868.263	42.1
868.553	41.75
868.843	35.55
869.133	84.83
869.423	33.46
869.713	60.23
870.002	-28.68
870.292	35.65
870.582	50.61
870.871	52.11
871.161	48.57
871.45	64.56
871.739	41.15
872.029	36.93
872.318	49.74
872.607	54.87
872.896	46.65
873.185	69.06
873.474	44.59
873.763	52.49
874.052	58.07
874.341	46.89
874.63	59.66
874.918	57.13
875.207	63.07
875.496	27.34
875.784	37.79
876.073	54.55
876.361	72.37
876.649	45.13
876.938	49.62
877.226	88.17
877.514	7.3
877.802	38.11
878.09	26.3
878.378	27.12
878.666	47.59
878.954	58.77
879.242	55.34
879.53	81.1
879.817	52.87
880.105	40.28
880.392	106.49
880.68	38.83
880.967	60.69
881.255	32.7
881.542	55.82
881.83	63.7
882.117	31.76
882.404	41.41
882.691	19.54
882.978	41.64
883.265	14.05
883.552	67.3
883.839	54.53
884.126	71.91
884.413	51.69
884.699	66.49
884.986	56.55
885.273	54.9
885.559	54.9
885.846	54.9
