Data from 0402_crown_Reflection__4__222.txt Node

Date: Tue Dec 12 20:13:10 CST 2023
User: ToomeyLab
Spectrometer: FLMS14357
Trigger mode: 0
Integration Time (sec): 1.000000E-2
Scans to average: 100
Electric dark correction enabled: true
Nonlinearity correction enabled: false
Boxcar width: 0
XAxis mode: Wavelengths
Number of Pixels in Spectrum: 2048
>>>>>Begin Spectral Data<<<<<
189.047	52.48
189.435	52.48
189.823	52.48
190.211	-3550
190.599	-76.21
190.987	101.27
191.375	18.72
191.763	31.82
192.151	293.61
192.538	107.44
192.926	-11.17
193.314	158.88
193.702	31.05
194.089	23.51
194.477	-192.62
194.864	687.43
195.252	37.62
195.639	41.64
196.027	91.37
196.414	-2.36
196.801	577.27
197.189	-75.64
197.576	1556.12
197.963	-50.77
198.351	8.61
198.738	28.24
199.125	22
199.512	-34.03
199.899	40.09
200.286	-10.52
200.673	-89.33
201.06	8.3
201.447	-98.1
201.833	-14.66
202.22	-45.52
202.607	-324.96
202.994	11.32
203.38	16.55
203.767	-16.49
204.154	10.11
204.54	20.66
204.927	-49.94
205.313	-6.52
205.699	-31.27
206.086	-87.69
206.472	19.06
206.858	23.97
207.245	-44.78
207.631	1.32
208.017	56.38
208.403	-95.7
208.789	19.16
209.175	22.92
209.561	-2.24
209.947	-8.15
210.333	11.73
210.719	-14.99
211.105	-37.27
211.491	31.46
211.876	4.64
212.262	45.23
212.648	-128.68
213.034	-105.75
213.419	-27.36
213.805	-1.72
214.19	8.27
214.576	28.84
214.961	14.47
215.346	-28.1
215.732	13.96
216.117	-24.77
216.502	-64.41
216.888	-27.5
217.273	-61.46
217.658	-53.61
218.043	-26.9
218.428	8.39
218.813	0.98
219.198	-81.66
219.583	-37.02
219.968	13.22
220.353	-12.09
220.738	3.82
221.122	-8.94
221.507	-17.76
221.892	1.64
222.276	6.9
222.661	2.35
223.046	-29.48
223.43	-0.27
223.815	-10.37
224.199	1.17
224.583	-0.73
224.968	1.11
225.352	-7.79
225.736	14.48
226.121	6.73
226.505	-0.94
226.889	2.08
227.273	10.59
227.657	11.64
228.041	1.48
228.425	6.4
228.809	5.7
229.193	4.05
229.577	8.07
229.961	6.33
230.344	9.37
230.728	9.62
231.112	7.63
231.495	6.69
231.879	7.89
232.263	6.03
232.646	7.58
233.03	6.89
233.413	5.96
233.797	6.26
234.18	2.4
234.563	4.66
234.946	8.55
235.33	5.77
235.713	7.56
236.096	6.13
236.479	5.68
236.862	7.14
237.245	6.85
237.628	5.92
238.011	6.97
238.394	6.51
238.777	6.37
239.16	6.1
239.543	7.66
239.925	5.66
240.308	6.29
240.691	6.23
241.073	6.95
241.456	6.51
241.838	5.83
242.221	8.06
242.603	6.88
242.986	6.09
243.368	7.89
243.75	7.15
244.133	6.75
244.515	7.39
244.897	7.17
245.279	7.7
245.661	5.79
246.043	5.48
246.425	7.09
246.807	5.76
247.189	7.1
247.571	7.25
247.953	7.04
248.335	7.24
248.717	6.88
249.098	6.8
249.48	6.75
249.862	6.9
250.243	6.97
250.625	7.55
251.006	6.96
251.388	6.39
251.769	7
252.151	5.94
252.532	6.43
252.913	6.64
253.295	6.75
253.676	5.57
254.057	6.41
254.438	6.77
254.819	6.4
255.2	6.57
255.581	4.9
255.962	4.83
256.343	5.51
256.724	6.24
257.105	6.62
257.486	3.62
257.867	5.45
258.247	4.35
258.628	6.45
259.009	5.27
259.389	6.43
259.77	6.16
260.15	6.06
260.531	6.8
260.911	6.47
261.292	6.04
261.672	6.24
262.052	6.13
262.432	6.21
262.813	6.25
263.193	6.9
263.573	6.12
263.953	6.99
264.333	6.9
264.713	5.97
265.093	5.73
265.473	6.65
265.853	5.42
266.233	5.66
266.612	4.73
266.992	6.05
267.372	6.47
267.752	6.82
268.131	4.81
268.511	5.63
268.89	5.42
269.27	5.34
269.649	6.23
270.029	5.55
270.408	5.59
270.787	5.45
271.167	6.38
271.546	5.37
271.925	6.44
272.304	5.83
272.683	5.94
273.062	5.68
273.441	6.17
273.82	4.66
274.199	5.51
274.578	5.78
274.957	5.74
275.336	5.72
275.715	5.66
276.093	4.87
276.472	5.9
276.851	5.71
277.229	5.36
277.608	5.61
277.986	5.19
278.365	5.26
278.743	5.29
279.122	6.21
279.5	5.09
279.878	4.51
280.257	5.02
280.635	5.03
281.013	5.47
281.391	5.86
281.769	5.75
282.147	5.26
282.525	4.89
282.903	5.22
283.281	5.29
283.659	4.89
284.037	5.67
284.415	5.25
284.792	5.44
285.17	5.34
285.548	5.89
285.925	4.88
286.303	5.02
286.68	5.31
287.058	5.37
287.435	5.17
287.813	4.98
288.19	5.02
288.567	4.98
288.945	5.15
289.322	4.75
289.699	5.44
290.076	4.81
290.453	5.31
290.83	4.56
291.207	5.71
291.584	5.2
291.961	5.1
292.338	5.25
292.715	4.9
293.092	4.91
293.469	5
293.845	5.57
294.222	5.25
294.599	5.32
294.975	4.84
295.352	4.96
295.728	4.73
296.105	5.07
296.481	5.25
296.858	4.88
297.234	5.31
297.61	5.05
297.986	5.25
298.363	4.78
298.739	4.77
299.115	4.71
299.491	4.66
299.867	4.78
300.243	4.7
300.619	5.07
300.995	5.02
301.371	5.37
301.746	4.88
302.122	5.11
302.498	4.57
302.874	4.36
303.249	5.4
303.625	4.34
304	4.71
304.376	4.98
304.751	5.22
305.127	4.52
305.502	5.17
305.878	4.43
306.253	4.75
306.628	4.81
307.003	4.64
307.378	4.4
307.754	4.77
308.129	4.36
308.504	5.8
308.879	4.2
309.254	4.9
309.629	4.21
310.003	4.57
310.378	4.59
310.753	5.05
311.128	4.82
311.502	4.11
311.877	3.81
312.252	4.17
312.626	4.69
313.001	4.38
313.375	4.28
313.75	4.8
314.124	4.83
314.498	4.58
314.873	3.96
315.247	4.89
315.621	3.97
315.995	5.15
316.369	4.72
316.743	4.38
317.117	4.04
317.491	4.46
317.865	4.53
318.239	4.69
318.613	4.79
318.987	5.27
319.361	4.16
319.734	4.45
320.108	4.22
320.482	4.12
320.855	4.28
321.229	4.84
321.602	4.23
321.976	4.73
322.349	4.72
322.723	4.72
323.096	4.06
323.469	4.06
323.843	5.52
324.216	4.5
324.589	4.7
324.962	4.69
325.335	4.88
325.708	4.34
326.081	4.06
326.454	4.37
326.827	5.06
327.2	4.36
327.573	3.71
327.945	4.21
328.318	5.14
328.691	3.96
329.063	4.63
329.436	4.49
329.809	4.39
330.181	4.06
330.553	4.18
330.926	4.49
331.298	4.43
331.671	4.43
332.043	3.82
332.415	4.8
332.787	4.19
333.159	4.73
333.532	4.1
333.904	4.36
334.276	4.99
334.648	4.12
335.02	3.77
335.391	4.31
335.763	3.82
336.135	4.16
336.507	4.69
336.879	3.85
337.25	4.15
337.622	3.72
337.993	4.11
338.365	4.19
338.736	4.41
339.108	4.06
339.479	4.75
339.851	4.07
340.222	4.13
340.593	4.18
340.964	4.64
341.336	4.54
341.707	3.46
342.078	4.24
342.449	4.27
342.82	4.55
343.191	4.3
343.562	4.56
343.933	4.76
344.303	4.55
344.674	4.42
345.045	4.47
345.416	4.47
345.786	4.67
346.157	4.2
346.527	4.9
346.898	4.28
347.268	4.23
347.639	4.86
348.009	4.33
348.38	4.27
348.75	4.7
349.12	4.47
349.49	4.25
349.861	4.89
350.231	4.57
350.601	4.73
350.971	4.82
351.341	4.49
351.711	4.94
352.081	4.44
352.45	4.21
352.82	4.37
353.19	4.37
353.56	4.27
353.929	4.13
354.299	4.29
354.669	4.39
355.038	4.13
355.408	4.31
355.777	5.14
356.147	4.32
356.516	4.49
356.885	4.43
357.254	4.57
357.624	4.53
357.993	4.4
358.362	4.3
358.731	4.23
359.1	4.57
359.469	4.59
359.838	4.49
360.207	4.35
360.576	4.71
360.945	4.47
361.314	4.95
361.682	4.64
362.051	4.63
362.42	4.94
362.788	4.81
363.157	4.86
363.525	4.86
363.894	4.67
364.262	4.59
364.631	4.43
364.999	4.81
365.367	4.97
365.735	4.83
366.104	4.92
366.472	4.43
366.84	4.63
367.208	4.86
367.576	4.89
367.944	4.7
368.312	4.6
368.68	4.6
369.048	4.87
369.416	4.77
369.783	4.63
370.151	4.6
370.519	4.52
370.886	5
371.254	4.87
371.621	4.87
371.989	4.78
372.356	4.82
372.724	4.48
373.091	4.57
373.458	4.7
373.826	4.96
374.193	4.54
374.56	4.87
374.927	4.93
375.294	4.92
375.661	4.93
376.028	5.1
376.395	4.78
376.762	5.39
377.129	4.99
377.496	4.95
377.863	4.66
378.229	4.58
378.596	4.61
378.963	5.12
379.329	4.77
379.696	4.81
380.062	5.22
380.429	5.1
380.795	5.3
381.161	5.32
381.528	4.79
381.894	5.19
382.26	4.68
382.626	5.29
382.993	5.05
383.359	4.63
383.725	4.95
384.091	5.17
384.457	4.87
384.823	5.17
385.188	4.87
385.554	5.17
385.92	5.07
386.286	5.02
386.651	5.02
387.017	5.02
387.383	5.18
387.748	5.15
388.114	5.19
388.479	5.37
388.845	5.13
389.21	4.93
389.575	4.85
389.94	5.19
390.306	5.32
390.671	5.09
391.036	5.24
391.401	5.09
391.766	5.19
392.131	4.97
392.496	5.16
392.861	4.97
393.226	5.3
393.591	5.05
393.956	5.02
394.32	5.11
394.685	5.22
395.05	4.98
395.414	5.06
395.779	5.04
396.143	5.3
396.508	5.01
396.872	5.25
397.236	5.01
397.601	5.3
397.965	5.41
398.329	5.2
398.694	5.31
399.058	5.34
399.422	5.26
399.786	5.45
400.15	5.11
400.514	5.3
400.878	5.32
401.242	5.3
401.605	5.37
401.969	5.07
402.333	5.25
402.697	5.23
403.06	4.97
403.424	5.5
403.787	5.13
404.151	5.55
404.514	5.11
404.878	5.12
405.241	5.4
405.604	5.09
405.968	5.3
406.331	5.55
406.694	5.56
407.057	5.32
407.42	5.46
407.783	5.19
408.146	5.49
408.509	5.3
408.872	5.2
409.235	5.2
409.598	5.06
409.961	5.21
410.323	5.32
410.686	5.38
411.049	5.48
411.411	5.54
411.774	5.42
412.136	5.5
412.499	5.45
412.861	5.36
413.223	5.65
413.586	5.49
413.948	5.45
414.31	5.36
414.672	5.7
415.035	5.42
415.397	5.21
415.759	5.48
416.121	5.5
416.483	5.45
416.845	5.26
417.206	5.46
417.568	5.31
417.93	5.52
418.292	5.38
418.653	5.42
419.015	5.27
419.377	5.53
419.738	5.43
420.1	5.39
420.461	5.57
420.822	5.45
421.184	5.5
421.545	5.55
421.906	5.52
422.267	5.46
422.629	5.33
422.99	5.42
423.351	5.37
423.712	5.37
424.073	5.39
424.434	5.48
424.795	5.46
425.155	5.38
425.516	5.35
425.877	5.4
426.238	5.47
426.598	5.38
426.959	5.43
427.32	5.38
427.68	5.42
428.041	5.58
428.401	5.47
428.761	5.47
429.122	5.47
429.482	5.62
429.842	5.62
430.202	5.64
430.563	5.67
430.923	5.58
431.283	5.52
431.643	5.58
432.003	5.47
432.363	5.62
432.722	5.42
433.082	5.63
433.442	5.66
433.802	5.55
434.161	5.71
434.521	5.72
434.881	5.63
435.24	5.55
435.6	5.65
435.959	5.57
436.319	5.57
436.678	5.74
437.037	5.54
437.396	5.52
437.756	5.52
438.115	5.63
438.474	5.69
438.833	5.63
439.192	5.9
439.551	5.52
439.91	5.48
440.269	5.55
440.628	5.57
440.987	5.58
441.345	5.82
441.704	5.66
442.063	5.44
442.421	5.53
442.78	5.64
443.138	5.59
443.497	5.63
443.855	5.55
444.214	5.56
444.572	5.61
444.93	5.78
445.288	5.41
445.647	5.67
446.005	5.62
446.363	5.55
446.721	5.53
447.079	5.7
447.437	5.44
447.795	5.62
448.153	5.59
448.51	5.62
448.868	5.61
449.226	5.68
449.584	5.6
449.941	5.51
450.299	5.67
450.656	5.59
451.014	5.63
451.371	5.8
451.729	5.68
452.086	5.66
452.443	5.82
452.801	5.61
453.158	5.59
453.515	5.67
453.872	5.64
454.229	5.91
454.586	5.74
454.943	5.57
455.3	5.65
455.657	5.55
456.014	5.82
456.371	5.82
456.727	5.77
457.084	5.82
457.441	5.77
457.797	5.76
458.154	5.68
458.51	5.65
458.867	5.69
459.223	5.8
459.58	5.74
459.936	5.52
460.292	5.79
460.648	5.7
461.005	5.66
461.361	5.5
461.717	5.65
462.073	5.55
462.429	5.65
462.785	5.69
463.141	5.7
463.496	5.6
463.852	5.97
464.208	5.79
464.564	5.7
464.919	5.89
465.275	5.9
465.631	5.81
465.986	5.77
466.342	5.64
466.697	5.69
467.052	5.94
467.408	5.78
467.763	5.91
468.118	5.75
468.473	5.81
468.829	5.87
469.184	5.7
469.539	5.69
469.894	5.85
470.249	5.83
470.603	5.77
470.958	5.64
471.313	6.04
471.668	6.02
472.023	5.77
472.377	5.79
472.732	5.77
473.086	5.74
473.441	5.93
473.795	5.81
474.15	5.99
474.504	5.52
474.859	5.94
475.213	5.84
475.567	5.85
475.921	5.83
476.275	5.71
476.63	5.76
476.984	5.82
477.338	5.79
477.692	5.76
478.045	5.82
478.399	5.61
478.753	5.86
479.107	5.81
479.461	5.88
479.814	5.71
480.168	5.75
480.521	5.69
480.875	5.77
481.228	5.88
481.582	5.8
481.935	5.86
482.289	5.9
482.642	5.87
482.995	5.81
483.348	5.75
483.701	5.96
484.055	5.76
484.408	5.72
484.761	5.69
485.114	5.54
485.466	5.51
485.819	5.51
486.172	5.5
486.525	5.57
486.878	5.59
487.23	5.59
487.583	5.65
487.936	5.7
488.288	5.64
488.641	5.67
488.993	5.61
489.345	5.53
489.698	5.57
490.05	5.6
490.402	5.61
490.754	5.59
491.107	5.67
491.459	5.78
491.811	5.79
492.163	5.77
492.515	5.72
492.866	5.64
493.218	5.61
493.57	5.67
493.922	5.56
494.274	5.72
494.625	5.81
494.977	5.86
495.328	5.84
495.68	5.65
496.031	5.84
496.383	5.8
496.734	5.84
497.086	5.76
497.437	5.88
497.788	5.89
498.139	5.84
498.49	5.94
498.842	5.77
499.193	5.88
499.544	5.87
499.894	5.9
500.245	5.85
500.596	5.79
500.947	5.87
501.298	5.87
501.648	5.95
501.999	5.94
502.35	5.88
502.7	5.83
503.051	5.79
503.401	5.91
503.752	5.96
504.102	5.98
504.452	5.94
504.803	5.91
505.153	5.82
505.503	5.96
505.853	5.99
506.203	5.9
506.553	5.85
506.903	5.94
507.253	5.93
507.603	5.84
507.953	5.82
508.303	5.99
508.652	5.83
509.002	5.92
509.352	5.96
509.701	5.97
510.051	5.84
510.4	5.81
510.75	5.79
511.099	5.75
511.449	5.88
511.798	5.79
512.147	5.93
512.496	6.01
512.846	5.85
513.195	5.75
513.544	5.85
513.893	5.83
514.242	5.84
514.591	5.79
514.939	5.87
515.288	5.8
515.637	5.74
515.986	5.89
516.334	5.96
516.683	5.8
517.032	5.8
517.38	5.84
517.729	5.85
518.077	5.66
518.426	5.92
518.774	5.85
519.122	5.8
519.47	5.79
519.819	5.73
520.167	5.7
520.515	5.7
520.863	5.83
521.211	5.73
521.559	5.75
521.907	5.77
522.255	5.78
522.602	5.9
522.95	5.85
523.298	5.8
523.645	5.88
523.993	5.85
524.341	5.9
524.688	5.74
525.036	5.83
525.383	5.9
525.73	5.8
526.078	5.85
526.425	5.81
526.772	5.89
527.119	5.72
527.466	5.77
527.814	5.64
528.161	5.75
528.508	5.78
528.854	5.75
529.201	5.75
529.548	5.69
529.895	5.61
530.242	5.54
530.588	5.5
530.935	5.55
531.282	5.62
531.628	5.62
531.975	5.6
532.321	5.61
532.667	5.69
533.014	5.63
533.36	5.65
533.706	5.61
534.052	5.59
534.399	5.73
534.745	5.68
535.091	5.52
535.437	5.55
535.783	5.5
536.129	5.61
536.474	5.65
536.82	5.63
537.166	5.76
537.512	5.74
537.857	5.72
538.203	5.71
538.549	5.67
538.894	5.74
539.239	5.72
539.585	5.7
539.93	5.71
540.276	5.69
540.621	5.62
540.966	5.69
541.311	5.73
541.656	5.78
542.001	5.7
542.346	5.65
542.691	5.53
543.036	5.51
543.381	5.47
543.726	5.52
544.071	5.57
544.415	5.56
544.76	5.63
545.105	5.67
545.449	5.67
545.794	5.8
546.138	5.53
546.483	5.77
546.827	5.77
547.171	5.69
547.516	5.6
547.86	5.72
548.204	5.66
548.548	5.72
548.892	5.61
549.236	5.6
549.58	5.65
549.924	5.78
550.268	5.81
550.612	5.57
550.956	5.71
551.3	5.73
551.643	5.79
551.987	5.71
552.33	5.63
552.674	5.79
553.017	5.78
553.361	5.87
553.704	5.68
554.048	5.73
554.391	5.58
554.734	5.82
555.077	5.74
555.42	5.6
555.764	5.84
556.107	5.85
556.45	5.63
556.793	5.71
557.135	5.61
557.478	5.63
557.821	5.71
558.164	5.81
558.507	5.83
558.849	5.82
559.192	5.78
559.534	5.73
559.877	5.94
560.219	5.71
560.562	5.71
560.904	5.68
561.246	5.69
561.589	5.6
561.931	5.57
562.273	5.7
562.615	5.68
562.957	5.61
563.299	5.66
563.641	5.84
563.983	5.69
564.325	5.77
564.667	5.77
565.008	5.46
565.35	5.48
565.692	5.57
566.033	5.85
566.375	5.74
566.716	5.57
567.058	5.81
567.399	5.73
567.741	5.72
568.082	5.56
568.423	5.53
568.764	5.73
569.105	5.5
569.447	5.6
569.788	5.6
570.129	5.6
570.47	5.81
570.811	5.68
571.151	5.76
571.492	5.81
571.833	5.68
572.174	5.73
572.514	5.73
572.855	5.5
573.195	5.64
573.536	5.45
573.876	5.5
574.217	5.64
574.557	5.51
574.898	5.53
575.238	5.62
575.578	5.48
575.918	5.69
576.258	5.71
576.598	5.34
576.938	5.57
577.278	5.61
577.618	5.64
577.958	5.53
578.298	5.81
578.638	5.48
578.977	5.44
579.317	5.53
579.657	5.56
579.996	5.6
580.336	5.66
580.675	5.55
581.014	5.48
581.354	5.58
581.693	5.27
582.032	5.45
582.372	5.74
582.711	5.44
583.05	5.62
583.389	5.61
583.728	5.57
584.067	5.68
584.406	5.5
584.745	5.61
585.083	5.39
585.422	5.62
585.761	6.12
586.1	5.56
586.438	5.63
586.777	5.41
587.115	5.48
587.454	6
587.792	5.32
588.13	5.71
588.469	5.45
588.807	5.57
589.145	5.51
589.483	5.52
589.821	5.61
590.159	5.54
590.497	5.44
590.835	5.52
591.173	5.43
591.511	5.53
591.849	5.58
592.187	5.51
592.524	5.48
592.862	5.22
593.2	5.11
593.537	5.4
593.875	5.57
594.212	5.5
594.55	5.38
594.887	5.74
595.224	5.4
595.561	5.63
595.899	5.26
596.236	5.45
596.573	5.42
596.91	5.65
597.247	5.48
597.584	5.58
597.921	5.41
598.258	5.33
598.594	5.56
598.931	5.5
599.268	5.31
599.604	5.22
599.941	5.4
600.277	5.18
600.614	5.62
600.95	5.46
601.287	5.44
601.623	5.35
601.959	5.5
602.296	5.42
602.632	5.21
602.968	5.55
603.304	5.32
603.64	5.43
603.976	5.13
604.312	5.38
604.648	5.51
604.984	5.31
605.319	5.28
605.655	5.24
605.991	5.25
606.326	5.23
606.662	5.46
606.998	5.12
607.333	5.34
607.668	5.24
608.004	5.18
608.339	5.32
608.674	5.24
609.01	5.23
609.345	5.43
609.68	5.39
610.015	4.96
610.35	5.35
610.685	5.13
611.02	5.4
611.355	5.17
611.689	5.28
612.024	5.08
612.359	5.43
612.694	5.28
613.028	5.47
613.363	5.36
613.697	5.18
614.032	5.14
614.366	5.53
614.7	5.23
615.035	5.27
615.369	5.25
615.703	5.29
616.037	5.05
616.371	5.28
616.705	5.19
617.039	5.23
617.373	5.07
617.707	4.95
618.041	5.12
618.375	4.82
618.709	5.14
619.042	5.19
619.376	4.96
619.71	5.33
620.043	5.33
620.377	5.2
620.71	4.81
621.043	4.84
621.377	4.94
621.71	5.12
622.043	5.36
622.376	5.49
622.709	5.51
623.043	5.28
623.376	5.94
623.709	5.11
624.041	5.38
624.374	4.97
624.707	5.16
625.04	5.09
625.373	5.39
625.705	5.18
626.038	5.07
626.37	5.35
626.703	5.39
627.035	5.06
627.368	5.42
627.7	5.25
628.032	5.18
628.365	5.54
628.697	5.36
629.029	5.09
629.361	4.96
629.693	5.16
630.025	4.89
630.357	5.33
630.689	4.99
631.021	5.13
631.353	5.3
631.684	5.21
632.016	5.29
632.348	5.12
632.679	4.82
633.011	5.37
633.342	5.24
633.674	5.04
634.005	4.78
634.336	5.03
634.668	4.99
634.999	4.91
635.33	5.33
635.661	5.22
635.992	5.41
636.323	4.76
636.654	4.88
636.985	5.16
637.316	4.97
637.647	4.83
637.977	5.09
638.308	5.44
638.639	4.96
638.969	4.66
639.3	4.85
639.63	5.52
639.961	4.95
640.291	4.71
640.622	5.17
640.952	5.33
641.282	5.1
641.612	5.47
641.943	5.22
642.273	5.15
642.603	5.56
642.933	5.09
643.263	4.79
643.592	5.26
643.922	5.57
644.252	5.3
644.582	4.62
644.911	5.04
645.241	4.82
645.571	5.38
645.9	4.99
646.23	4.66
646.559	5.21
646.888	5.16
647.218	4.79
647.547	4.87
647.876	5.29
648.205	4.52
648.534	4.79
648.863	5.18
649.192	5
649.521	5.46
649.85	5.15
650.179	5.2
650.508	5.47
650.837	5.35
651.165	4.56
651.494	5.13
651.822	4.44
652.151	5.38
652.479	5.33
652.808	4.99
653.136	5.11
653.465	5.23
653.793	4.66
654.121	5.43
654.449	5.16
654.777	5.08
655.105	5.31
655.433	5.09
655.761	5.33
656.089	4.61
656.417	5.49
656.745	5.08
657.073	4.85
657.4	4.99
657.728	4.08
658.056	5.31
658.383	4.23
658.711	5.04
659.038	4.88
659.365	5.35
659.693	4.67
660.02	4.77
660.347	4.91
660.674	5.01
661.001	4.71
661.329	5.37
661.656	4.86
661.982	4.57
662.309	5.04
662.636	5.02
662.963	4.94
663.29	5.31
663.616	4.92
663.943	4.81
664.27	5.18
664.596	5.28
664.923	5.53
665.249	5.07
665.576	4.56
665.902	5.6
666.228	4.91
666.554	5.02
666.881	4.41
667.207	4.73
667.533	5.44
667.859	4.81
668.185	4.68
668.511	5.2
668.837	5.09
669.162	6.33
669.488	4.79
669.814	5.25
670.139	5.32
670.465	4.54
670.791	4.81
671.116	4.8
671.442	4.8
671.767	4.99
672.092	5.31
672.418	4.79
672.743	5.08
673.068	4.74
673.393	4.97
673.718	5.42
674.043	4.93
674.368	4.13
674.693	4.44
675.018	4.89
675.343	4.13
675.667	4.73
675.992	4.91
676.317	4.24
676.641	4.04
676.966	4.26
677.29	4.5
677.615	4.87
677.939	4.23
678.264	5.04
678.588	4.66
678.912	5.57
679.236	4.66
679.56	4.87
679.885	4.46
680.209	4.65
680.532	4.92
680.856	4.92
681.18	4.58
681.504	4.87
681.828	4.77
682.152	4.03
682.475	5.09
682.799	4.9
683.122	4.95
683.446	4.93
683.769	5.55
684.093	4.73
684.416	4.47
684.739	5.32
685.062	5.29
685.386	5.09
685.709	5.27
686.032	5.04
686.355	4.09
686.678	5.44
687.001	4.96
687.324	4.82
687.646	5.3
687.969	4.23
688.292	5.22
688.614	4.42
688.937	4.59
689.26	4.95
689.582	4.91
689.904	4.71
690.227	4.96
690.549	5.44
690.871	4.4
691.194	5.33
691.516	4.61
691.838	4.6
692.16	5.23
692.482	4.6
692.804	4.91
693.126	5.17
693.448	5.05
693.769	4.35
694.091	5.23
694.413	4.93
694.735	4.42
695.056	4.68
695.378	5.04
695.699	4.94
696.021	4.46
696.342	4.56
696.663	4.95
696.984	5.21
697.306	4.72
697.627	4.46
697.948	4.57
698.269	4.28
698.59	5.54
698.911	4.85
699.232	3.79
699.553	5.19
699.873	5.93
700.194	4.7
700.515	4.8
700.835	4.83
701.156	4.64
701.477	5.41
701.797	5.03
702.117	4.74
702.438	4.94
702.758	4.39
703.078	5.38
703.398	4.39
703.719	5.22
704.039	4.53
704.359	4.78
704.679	5.52
704.999	4.9
705.319	4.4
705.638	4.79
705.958	5.55
706.278	6.36
706.597	5.14
706.917	4.72
707.237	4.3
707.556	5.33
707.876	4.17
708.195	5.31
708.514	5.21
708.834	5.97
709.153	4.75
709.472	4.77
709.791	5.24
710.11	4.82
710.429	5.1
710.748	4
711.067	5.67
711.386	4.1
711.705	5.71
712.023	5
712.342	5.77
712.661	4.51
712.979	5.28
713.298	5.68
713.616	5.2
713.935	4.78
714.253	4.44
714.572	5.05
714.89	4.87
715.208	5.85
715.526	3.65
715.844	5.35
716.162	4.46
716.48	4.96
716.798	4.95
717.116	5.65
717.434	4.92
717.752	4.46
718.069	5.24
718.387	4.65
718.705	4.09
719.022	5.16
719.34	4.67
719.657	5.52
719.975	4.26
720.292	5.27
720.609	4.97
720.927	4.92
721.244	5.72
721.561	6.75
721.878	5.45
722.195	3.1
722.512	4.68
722.829	5.59
723.146	2.74
723.463	5.33
723.779	5.04
724.096	4.94
724.413	4.07
724.729	4.45
725.046	3.77
725.362	4.69
725.679	3.65
725.995	4.62
726.311	3.7
726.628	5.51
726.944	4
727.26	5.64
727.576	3.56
727.892	3.89
728.208	4.56
728.524	5.08
728.84	3.82
729.156	4.61
729.472	5.41
729.787	5.1
730.103	5.85
730.419	4.31
730.734	3.04
731.05	4.54
731.365	5.26
731.681	5.4
731.996	4.38
732.311	5.63
732.626	5.62
732.942	4.7
733.257	5.4
733.572	4.09
733.887	6.16
734.202	6.1
734.517	4.43
734.832	5.31
735.146	5.59
735.461	6.07
735.776	4.99
736.091	4.63
736.405	4.59
736.72	3.46
737.034	5.05
737.349	5.03
737.663	4.2
737.977	3.91
738.292	2.4
738.606	2.28
738.92	3.77
739.234	4.06
739.548	6.38
739.862	4.8
740.176	3.58
740.49	3.56
740.804	4.94
741.117	3
741.431	4.98
741.745	5.39
742.058	5.61
742.372	6.19
742.685	5.65
742.999	3.48
743.312	3.77
743.626	5.29
743.939	7.04
744.252	4.47
744.565	7.17
744.878	5.69
745.191	5.38
745.505	6.52
745.817	7.5
746.13	4.89
746.443	5.49
746.756	5.7
747.069	4.3
747.381	5.09
747.694	2.18
748.007	4.28
748.319	3.83
748.632	3.83
748.944	4.15
749.256	3.48
749.569	5.46
749.881	5.22
750.193	3.27
750.505	4.68
750.817	5.96
751.129	4.17
751.441	5.83
751.753	7.75
752.065	4.41
752.377	5.6
752.689	4.35
753	3.83
753.312	4.73
753.624	5.12
753.935	5.36
754.247	5.4
754.558	6.74
754.869	4.29
755.181	3.58
755.492	6.3
755.803	5.44
756.114	3.67
756.425	6.21
756.736	5.09
757.047	4.27
757.358	5.19
757.669	3.4
757.98	6.59
758.291	3.27
758.601	4.53
758.912	3.65
759.223	3.86
759.533	5.34
759.844	4.28
760.154	6.22
760.464	2.86
760.775	5.1
761.085	5
761.395	6.36
761.705	5.41
762.016	4.55
762.326	3.96
762.636	5.71
762.945	4.51
763.255	6.65
763.565	3.62
763.875	5.9
764.185	5.68
764.494	6.22
764.804	4.74
765.113	6.77
765.423	3.66
765.732	5.53
766.042	6
766.351	5.75
766.66	5.85
766.97	4.66
767.279	4.28
767.588	4.04
767.897	6.29
768.206	3.59
768.515	5.87
768.824	6.02
769.133	5.04
769.441	3.88
769.75	3.2
770.059	3.13
770.367	3.71
770.676	4.34
770.984	5.33
771.293	3.23
771.601	4.93
771.91	4.65
772.218	3.18
772.526	1.34
772.834	2.33
773.142	5.39
773.45	3.58
773.758	3.81
774.066	7.05
774.374	3.29
774.682	4.26
774.99	-0.55
775.298	4.45
775.605	4.35
775.913	6.99
776.22	4.68
776.528	3.56
776.835	2.72
777.143	3.84
777.45	3.33
777.757	2.96
778.065	3.08
778.372	4.49
778.679	0.32
778.986	4.64
779.293	6.38
779.6	5.4
779.907	1.1
780.214	4.43
780.52	1.55
780.827	3.9
781.134	5.89
781.44	4.39
781.747	4.58
782.053	5.05
782.36	4.15
782.666	0.17
782.973	1.56
783.279	3.5
783.585	1.76
783.891	6.83
784.197	5.09
784.503	3.29
784.809	8.35
785.115	6.97
785.421	5.7
785.727	5.84
786.033	2.39
786.339	2.63
786.644	3.46
786.95	10.06
787.255	6.56
787.561	4.02
787.866	6.37
788.172	0.66
788.477	0.77
788.782	-0.18
789.088	3.54
789.393	1.99
789.698	6.76
790.003	6.02
790.308	5.9
790.613	3.1
790.918	3.22
791.223	5.23
791.527	3.13
791.832	2.19
792.137	0.53
792.441	3.15
792.746	6.28
793.05	10.38
793.355	5.33
793.659	5.92
793.963	4.1
794.268	2.39
794.572	0.74
794.876	0.15
795.18	4.71
795.484	1.81
795.788	7.7
796.092	0.69
796.396	6.05
796.7	0.33
797.004	5.37
797.307	1.26
797.611	-2.21
797.915	1.61
798.218	-1.29
798.522	-0.64
798.825	5.16
799.128	4.62
799.432	1.98
799.735	3.46
800.038	8.55
800.341	6.47
800.644	2.53
800.947	6.53
801.25	0.23
801.553	4.35
801.856	0.89
802.159	8.67
802.462	5.71
802.764	4.07
803.067	2.79
803.37	5.11
803.672	3.76
803.975	5.27
804.277	5.4
804.579	1.23
804.882	5.41
805.184	5.03
805.486	1.62
805.788	6.5
806.09	5.03
806.392	4.07
806.694	4.3
806.996	-4.73
807.298	0.02
807.6	5.04
807.902	-0.3
808.203	3.34
808.505	2.27
808.807	-0.68
809.108	0.82
809.409	2.17
809.711	-2.04
810.012	-3.91
810.313	6.98
810.615	5.68
810.916	3.8
811.217	1.68
811.518	-5.78
811.819	3.58
812.12	3.56
812.421	1.35
812.722	8.07
813.023	3.38
813.323	8.06
813.624	7.2
813.925	11.39
814.225	-1.06
814.526	6.46
814.826	10.27
815.126	-1.7
815.427	1.34
815.727	-5.57
816.027	2.43
816.327	6.05
816.627	9.93
816.927	10.18
817.227	-1.54
817.527	8.35
817.827	1.17
818.127	5.57
818.427	5.3
818.727	-8.2
819.026	6.37
819.326	5.1
819.625	1.56
819.925	2.09
820.224	1.64
820.524	-2.79
820.823	12.05
821.122	13.22
821.421	5.25
821.72	-3.3
822.019	-0.63
822.318	2.02
822.617	2.74
822.916	1.84
823.215	8.61
823.514	5.45
823.813	7.03
824.111	2.65
824.41	7.06
824.709	6.69
825.007	6.22
825.306	5.74
825.604	5.52
825.902	6.18
826.201	6.12
826.499	6.16
826.797	6.93
827.095	6.69
827.393	6.07
827.691	5.93
827.989	5.14
828.287	5.39
828.585	5.64
828.882	7.74
829.18	4.67
829.478	6.12
829.775	5.61
830.073	5.5
830.37	8.01
830.668	5.81
830.965	10.12
831.263	3.92
831.56	5.43
831.857	2.61
832.154	5.79
832.451	2.53
832.748	6.18
833.045	6.59
833.342	6.79
833.639	4.64
833.936	-1.7
834.232	6.44
834.529	-2.53
834.826	6.62
835.122	4.73
835.419	5
835.715	4.01
836.012	2.19
836.308	5.89
836.604	7.91
836.901	4.91
837.197	6.36
837.493	2.49
837.789	2.15
838.085	6.85
838.381	1.96
838.677	2.73
838.972	5.91
839.268	-2
839.564	6.13
839.86	0.9
840.155	-1.13
840.451	-4.84
840.746	13.47
841.042	-5.44
841.337	8.32
841.632	-3.27
841.928	13.21
842.223	7.92
842.518	4.17
842.813	-1.13
843.108	1.02
843.403	-1.04
843.698	8.57
843.993	5.67
844.287	8.44
844.582	-1.01
844.877	1.55
845.171	-2.73
845.466	-10.03
845.761	8.93
846.055	-4.44
846.349	9.56
846.644	0.49
846.938	-9.1
847.232	16.53
847.526	-7.44
847.82	-0.25
848.114	9.59
848.408	-10.45
848.702	7.48
848.996	8.89
849.29	1.54
849.584	-20.48
849.877	5.02
850.171	-26.16
850.465	11.13
850.758	-3.71
851.052	-18.63
851.345	-1.82
851.638	-1.66
851.932	-11.99
852.225	-36.03
852.518	-5.87
852.811	-2.81
853.104	-44.95
853.397	25.08
853.69	-15.14
853.983	-3.45
854.276	-12.46
854.569	-1.8
854.861	3.63
855.154	17.45
855.447	-20.21
855.739	4.19
856.032	4.06
856.324	-16.37
856.616	-13.84
856.909	-22.57
857.201	0.71
857.493	-71.48
857.785	12.93
858.077	-31.59
858.369	-11.37
858.661	-7.52
858.953	6.52
859.245	-43.18
859.537	-6.61
859.829	-17.33
860.12	2.14
860.412	-47.62
860.703	5.62
860.995	-11.67
861.286	-4.02
861.578	3.81
861.869	2.07
862.16	15.27
862.452	-16.45
862.743	-18.86
863.034	-3.44
863.325	24.13
863.616	1.15
863.907	-13.98
864.198	-19.45
864.488	37.12
864.779	-3.55
865.07	-9.56
865.36	14.7
865.651	-56.93
865.941	-34.26
866.232	-1.4
866.522	-25.77
866.813	-39.5
867.103	-10.93
867.393	-26.38
867.683	-1.5
867.973	19.34
868.263	-26.38
868.553	-4.28
868.843	-11.18
869.133	-22.7
869.423	-8.91
869.713	-6.16
870.002	-30.84
870.292	13.62
870.582	16.81
870.871	-28.57
871.161	24.67
871.45	1.36
871.739	-26.44
872.029	-22.03
872.318	9.63
872.607	16.05
872.896	13.23
873.185	-38.17
873.474	-10.91
873.763	-14.14
874.052	-7.89
874.341	7.94
874.63	22.94
874.918	-37.36
875.207	-19.41
875.496	-3.95
875.784	-20.15
876.073	-2.63
876.361	11.08
876.649	-10.16
876.938	2.09
877.226	-1.15
877.514	-85.65
877.802	-0.68
878.09	-6.6
878.378	-5.94
878.666	16.34
878.954	1.32
879.242	-23.13
879.53	4.88
879.817	-12.41
880.105	6.83
880.392	-3.08
880.68	9.46
880.967	5.44
881.255	22.5
881.542	-1.54
881.83	16.24
882.117	-1.95
882.404	-8.42
882.691	-35.11
882.978	-64.49
883.265	-19.68
883.552	8.23
883.839	17.81
884.126	-7.12
884.413	-0.12
884.699	2.66
884.986	2.91
885.273	2.88
885.559	2.88
885.846	2.88
