Data from 0027_chest_Reflection__3__94.txt Node

Date: Thu Oct 20 21:41:27 CDT 2022
User: ToomeyLab
Spectrometer: FLMS14357
Trigger mode: 0
Integration Time (sec): 1.000000E-2
Scans to average: 100
Electric dark correction enabled: true
Nonlinearity correction enabled: false
Boxcar width: 0
XAxis mode: Wavelengths
Number of Pixels in Spectrum: 2048
>>>>>Begin Spectral Data<<<<<
189.047	82.51
189.435	82.51
189.823	82.51
190.211	-109.77
190.599	45.46
190.987	-1597.67
191.375	60.56
191.763	82.67
192.151	183.37
192.538	-49.62
192.926	251.95
193.314	63.13
193.702	75.65
194.089	127.67
194.477	300
194.864	49.59
195.252	184.21
195.639	74.46
196.027	34.94
196.414	61.74
196.801	328.17
197.189	-46.07
197.576	344.74
197.963	-95.91
198.351	23.03
198.738	-44.58
199.125	-21.45
199.512	-1.38
199.899	12.22
200.286	3.75
200.673	-9.3
201.06	44.72
201.447	-6.56
201.833	-7.82
202.22	-10.97
202.607	26.43
202.994	5.27
203.38	-26.55
203.767	38.49
204.154	19.17
204.54	-27.14
204.927	-0.73
205.313	33.43
205.699	9.39
206.086	22.59
206.472	-17.6
206.858	5.44
207.245	-6.92
207.631	-4.34
208.017	20.29
208.403	-29.23
208.789	-5.91
209.175	20.41
209.561	33.75
209.947	21.17
210.333	31.45
210.719	9.22
211.105	9.46
211.491	-80.51
211.876	-6.95
212.262	12.18
212.648	1.32
213.034	6.65
213.419	17
213.805	-0.85
214.19	-21.79
214.576	-13.13
214.961	-39.02
215.346	3.35
215.732	15.66
216.117	-26.52
216.502	-8.45
216.888	1.02
217.273	-10.77
217.658	27.6
218.043	4.2
218.428	-10.64
218.813	9.53
219.198	-3.13
219.583	13.72
219.968	15.51
220.353	4.26
220.738	5.66
221.122	9.46
221.507	2.25
221.892	2.25
222.276	-3.25
222.661	8.29
223.046	10.79
223.43	5.59
223.815	2.71
224.199	-7.37
224.583	-10.81
224.968	11.74
225.352	21.36
225.736	-1.4
226.121	-8.44
226.505	5.62
226.889	-0.51
227.273	-0.45
227.657	1.69
228.041	1.78
228.425	3.06
228.809	5.17
229.193	3.29
229.577	2.23
229.961	3.43
230.344	2.24
230.728	2.86
231.112	3.06
231.495	2.19
231.879	3.69
232.263	4.27
232.646	2.1
233.03	3.41
233.413	0.37
233.797	2.16
234.18	1.45
234.563	2.85
234.946	2.77
235.33	2.99
235.713	2.24
236.096	0.75
236.479	2.73
236.862	2.18
237.245	1.83
237.628	2.22
238.011	2.25
238.394	3.15
238.777	2.73
239.16	1.78
239.543	1.74
239.925	1.58
240.308	3.73
240.691	4.94
241.073	1.65
241.456	2.29
241.838	2.47
242.221	3.01
242.603	2.66
242.986	3.08
243.368	2.83
243.75	3.55
244.133	3.59
244.515	3.14
244.897	2.96
245.279	2.52
245.661	3.51
246.043	2.95
246.425	3.72
246.807	3.98
247.189	3.4
247.571	3.55
247.953	3.24
248.335	3.17
248.717	3.29
249.098	3.13
249.48	2.88
249.862	3.24
250.243	3.18
250.625	3.66
251.006	4.18
251.388	3.54
251.769	3.77
252.151	3.01
252.532	3.11
252.913	2.84
253.295	3.53
253.676	3.95
254.057	2.47
254.438	3.03
254.819	3.35
255.2	4.58
255.581	2.7
255.962	3.47
256.343	1.87
256.724	2.32
257.105	2.41
257.486	2.28
257.867	2.98
258.247	4.27
258.628	3.12
259.009	2.63
259.389	2.96
259.77	3.16
260.15	3
260.531	3.26
260.911	3.13
261.292	3.25
261.672	3.3
262.052	3.15
262.432	3
262.813	3.29
263.193	4.19
263.573	3.43
263.953	3.16
264.333	3.4
264.713	3.48
265.093	2.92
265.473	3.49
265.853	2.99
266.233	2.9
266.612	3.2
266.992	2.48
267.372	3.46
267.752	3.07
268.131	3.64
268.511	3.1
268.89	3.22
269.27	2.83
269.649	2.5
270.029	2.54
270.408	2.83
270.787	2.9
271.167	3.12
271.546	2.73
271.925	3.27
272.304	3
272.683	3.26
273.062	3.12
273.441	3.18
273.82	3.23
274.199	2.72
274.578	2.78
274.957	2.85
275.336	2.74
275.715	2.86
276.093	3.52
276.472	3.8
276.851	3.44
277.229	2.62
277.608	2.39
277.986	3.1
278.365	2.68
278.743	2.84
279.122	2.9
279.5	2.94
279.878	2.95
280.257	2.78
280.635	3
281.013	2.82
281.391	3.38
281.769	2.66
282.147	2.57
282.525	3.12
282.903	2.74
283.281	3.03
283.659	2.36
284.037	2.6
284.415	2.66
284.792	2.84
285.17	3.37
285.548	2.68
285.925	2.33
286.303	2.9
286.68	3.1
287.058	2.95
287.435	2.79
287.813	3.09
288.19	2.97
288.567	2.94
288.945	3.24
289.322	2.83
289.699	2.83
290.076	2.88
290.453	3.22
290.83	2.96
291.207	3.55
291.584	3.07
291.961	2.99
292.338	3.02
292.715	3.14
293.092	3.89
293.469	3.47
293.845	2.93
294.222	2.93
294.599	3.49
294.975	3.19
295.352	3.67
295.728	3.4
296.105	3.43
296.481	3.2
296.858	3.53
297.234	3.5
297.61	3.39
297.986	3.16
298.363	3.37
298.739	3.38
299.115	3.26
299.491	3.51
299.867	3.31
300.243	3.55
300.619	3.6
300.995	3.4
301.371	3.66
301.746	3.65
302.122	4.3
302.498	4.17
302.874	4.26
303.249	3.9
303.625	3.78
304	3.99
304.376	3.63
304.751	3.78
305.127	3.44
305.502	3.75
305.878	4.02
306.253	3.61
306.628	3.93
307.003	3.93
307.378	3.23
307.754	4.13
308.129	3.92
308.504	3.88
308.879	3.6
309.254	4.14
309.629	3.76
310.003	3.92
310.378	3.95
310.753	4.55
311.128	3.83
311.502	4.12
311.877	4.22
312.252	3.82
312.626	4.01
313.001	4.32
313.375	4.09
313.75	4.04
314.124	3.84
314.498	3.82
314.873	3.95
315.247	4.16
315.621	4.2
315.995	4.13
316.369	4.43
316.743	3.89
317.117	4.04
317.491	4.59
317.865	4.23
318.239	4.1
318.613	4.71
318.987	4.33
319.361	4.46
319.734	3.72
320.108	4.12
320.482	4.24
320.855	4.41
321.229	4.67
321.602	3.86
321.976	4.15
322.349	4.5
322.723	4.65
323.096	4.38
323.469	4.43
323.843	5
324.216	4.51
324.589	4.46
324.962	4.32
325.335	4.67
325.708	4.05
326.081	4.51
326.454	4.83
326.827	4.49
327.2	5.06
327.573	4.67
327.945	4.48
328.318	4.15
328.691	4.41
329.063	5.06
329.436	4.36
329.809	4.51
330.181	4.9
330.553	4.41
330.926	4.47
331.298	4.11
331.671	4.81
332.043	4.59
332.415	4.74
332.787	5.08
333.159	4.91
333.532	4.35
333.904	4.73
334.276	5.26
334.648	4.26
335.02	4.33
335.391	4.42
335.763	4.12
336.135	4.71
336.507	4.47
336.879	5.44
337.25	4.72
337.622	4.94
337.993	4.3
338.365	4.85
338.736	5.04
339.108	4.78
339.479	5.12
339.851	4.59
340.222	4.77
340.593	4.62
340.964	4.83
341.336	4.85
341.707	4.35
342.078	4.58
342.449	4.67
342.82	4.83
343.191	4.63
343.562	4.89
343.933	4.63
344.303	4.97
344.674	4.99
345.045	5.03
345.416	5.03
345.786	4.78
346.157	4.55
346.527	4.3
346.898	4.82
347.268	4.77
347.639	5.3
348.009	5.02
348.38	4.98
348.75	4.57
349.12	5.19
349.49	4.84
349.861	5.16
350.231	4.92
350.601	4.87
350.971	4.98
351.341	5.31
351.711	4.85
352.081	4.6
352.45	5.08
352.82	4.51
353.19	4.97
353.56	5.32
353.929	4.96
354.299	5.26
354.669	4.96
355.038	5.09
355.408	4.24
355.777	4.74
356.147	4.84
356.516	4.77
356.885	4.99
357.254	5.02
357.624	5.14
357.993	4.66
358.362	5.16
358.731	5.34
359.1	4.84
359.469	5.1
359.838	4.76
360.207	5.53
360.576	5.02
360.945	5.19
361.314	4.75
361.682	4.91
362.051	4.89
362.42	4.95
362.788	5.03
363.157	4.94
363.525	4.91
363.894	4.98
364.262	5.28
364.631	5.01
364.999	4.92
365.367	5.03
365.735	5.24
366.104	4.9
366.472	4.82
366.84	5.21
367.208	5.1
367.576	5.17
367.944	5.52
368.312	4.96
368.68	5.35
369.048	5.13
369.416	4.92
369.783	5.11
370.151	5.35
370.519	5.36
370.886	4.99
371.254	5.49
371.621	4.92
371.989	5.15
372.356	5.25
372.724	5.37
373.091	4.98
373.458	5.17
373.826	5.08
374.193	5.14
374.56	4.7
374.927	5.08
375.294	4.96
375.661	5.31
376.028	5.06
376.395	5.4
376.762	5.18
377.129	4.93
377.496	5.01
377.863	5.12
378.229	5.06
378.596	5.23
378.963	5.35
379.329	5.35
379.696	5.06
380.062	5.16
380.429	5.6
380.795	5.18
381.161	5.43
381.528	5.21
381.894	5.4
382.26	4.96
382.626	5.63
382.993	5.03
383.359	5.39
383.725	5.48
384.091	5.38
384.457	5.08
384.823	5.15
385.188	5.61
385.554	5.21
385.92	5.31
386.286	4.96
386.651	5.13
387.017	5.19
387.383	5.21
387.748	5.33
388.114	5.46
388.479	5.48
388.845	5.41
389.21	5.47
389.575	5.23
389.94	5.43
390.306	5.43
390.671	5.35
391.036	5.32
391.401	5.22
391.766	5.35
392.131	5.44
392.496	5.16
392.861	5.26
393.226	5.42
393.591	5.39
393.956	5.69
394.32	5.5
394.685	5.52
395.05	5.35
395.414	5.3
395.779	5.5
396.143	5.4
396.508	5.53
396.872	5.55
397.236	5.43
397.601	5.65
397.965	5.39
398.329	5.4
398.694	5.33
399.058	5.27
399.422	5.59
399.786	5.37
400.15	5.32
400.514	5.55
400.878	5.48
401.242	5.7
401.605	5.56
401.969	5.55
402.333	5.48
402.697	5.81
403.06	5.6
403.424	5.33
403.787	5.61
404.151	5.47
404.514	5.56
404.878	5.47
405.241	5.56
405.604	5.49
405.968	5.5
406.331	5.55
406.694	5.48
407.057	5.63
407.42	5.71
407.783	5.41
408.146	5.6
408.509	5.39
408.872	5.66
409.235	5.55
409.598	5.73
409.961	5.46
410.323	5.62
410.686	5.78
411.049	5.61
411.411	5.61
411.774	5.66
412.136	5.68
412.499	5.68
412.861	5.67
413.223	5.61
413.586	5.42
413.948	5.71
414.31	5.64
414.672	5.62
415.035	5.63
415.397	5.52
415.759	5.8
416.121	5.82
416.483	5.57
416.845	5.67
417.206	5.65
417.568	5.78
417.93	5.6
418.292	5.78
418.653	5.7
419.015	5.62
419.377	5.59
419.738	5.63
420.1	5.69
420.461	5.81
420.822	5.64
421.184	5.52
421.545	5.61
421.906	5.63
422.267	5.59
422.629	5.57
422.99	5.53
423.351	5.53
423.712	5.56
424.073	5.52
424.434	5.5
424.795	5.62
425.155	5.56
425.516	5.63
425.877	5.53
426.238	5.61
426.598	5.58
426.959	5.58
427.32	5.7
427.68	5.72
428.041	5.7
428.401	5.7
428.761	5.9
429.122	5.86
429.482	5.61
429.842	5.76
430.202	5.85
430.563	5.78
430.923	6.01
431.283	5.91
431.643	5.85
432.003	5.77
432.363	5.92
432.722	6.03
433.082	5.66
433.442	5.81
433.802	5.82
434.161	5.92
434.521	5.85
434.881	5.76
435.24	5.69
435.6	5.71
435.959	5.81
436.319	5.92
436.678	5.75
437.037	5.85
437.396	6.06
437.756	5.81
438.115	5.85
438.474	5.75
438.833	5.96
439.192	5.88
439.551	5.78
439.91	5.92
440.269	5.85
440.628	5.87
440.987	5.85
441.345	5.96
441.704	5.86
442.063	5.87
442.421	5.79
442.78	5.86
443.138	5.92
443.497	5.92
443.855	5.91
444.214	5.86
444.572	5.96
444.93	5.76
445.288	5.9
445.647	5.83
446.005	5.86
446.363	5.95
446.721	5.88
447.079	5.82
447.437	5.77
447.795	5.77
448.153	5.74
448.51	5.8
448.868	5.88
449.226	5.82
449.584	5.84
449.941	5.93
450.299	6.04
450.656	6.01
451.014	6.04
451.371	6.03
451.729	5.98
452.086	6.11
452.443	5.88
452.801	5.92
453.158	5.98
453.515	6.12
453.872	5.93
454.229	5.94
454.586	6.01
454.943	5.95
455.3	5.99
455.657	6.05
456.014	6.1
456.371	6
456.727	5.96
457.084	5.96
457.441	6.13
457.797	6.06
458.154	6.15
458.51	6.08
458.867	6.16
459.223	6.25
459.58	6.09
459.936	6.11
460.292	5.99
460.648	6.02
461.005	5.86
461.361	5.87
461.717	5.99
462.073	6.09
462.429	6.03
462.785	6.22
463.141	6.27
463.496	6.3
463.852	6.08
464.208	6.35
464.564	6.22
464.919	6.26
465.275	6.34
465.631	6.17
465.986	6.25
466.342	5.99
466.697	6.16
467.052	6.25
467.408	6.14
467.763	6.25
468.118	6.38
468.473	6.31
468.829	6.16
469.184	6.24
469.539	6.06
469.894	6.07
470.249	6.29
470.603	6.24
470.958	6.32
471.313	6.21
471.668	6.19
472.023	6.18
472.377	6.26
472.732	6.31
473.086	6.3
473.441	6.25
473.795	6.29
474.15	6.34
474.504	6.17
474.859	6.42
475.213	6.28
475.567	6.49
475.921	6.25
476.275	6.39
476.63	6.41
476.984	6.32
477.338	6.3
477.692	6.42
478.045	6.39
478.399	6.46
478.753	6.22
479.107	6.4
479.461	6.31
479.814	6.32
480.168	6.54
480.521	6.39
480.875	6.26
481.228	6.42
481.582	6.28
481.935	6.24
482.289	6.19
482.642	6.24
482.995	6.34
483.348	6.46
483.701	6.21
484.055	6.19
484.408	6.24
484.761	6.13
485.114	6.02
485.466	5.94
485.819	6.01
486.172	6.09
486.525	6.15
486.878	6.2
487.23	6.26
487.583	6.2
487.936	6.37
488.288	6.3
488.641	6.2
488.993	6.24
489.345	6.16
489.698	6.18
490.05	6.19
490.402	6.34
490.754	6.36
491.107	6.37
491.459	6.37
491.811	6.42
492.163	6.42
492.515	6.3
492.866	6.3
493.218	6.25
493.57	6.21
493.922	6.24
494.274	6.39
494.625	6.43
494.977	6.5
495.328	6.55
495.68	6.56
496.031	6.63
496.383	6.57
496.734	6.68
497.086	6.53
497.437	6.62
497.788	6.65
498.139	6.43
498.49	6.64
498.842	6.39
499.193	6.63
499.544	6.64
499.894	6.61
500.245	6.65
500.596	6.63
500.947	6.69
501.298	6.62
501.648	6.63
501.999	6.66
502.35	6.74
502.7	6.68
503.051	6.78
503.401	6.76
503.752	6.65
504.102	6.85
504.452	6.83
504.803	6.69
505.153	6.67
505.503	6.86
505.853	6.7
506.203	6.78
506.553	6.85
506.903	6.91
507.253	6.85
507.603	6.8
507.953	6.93
508.303	6.86
508.652	6.72
509.002	6.81
509.352	6.85
509.701	6.83
510.051	6.74
510.4	6.74
510.75	6.71
511.099	6.75
511.449	6.85
511.798	6.86
512.147	6.83
512.496	7.02
512.846	6.93
513.195	6.96
513.544	6.8
513.893	6.82
514.242	6.88
514.591	7.02
514.939	6.88
515.288	6.99
515.637	6.96
515.986	7.02
516.334	6.95
516.683	7.1
517.032	6.99
517.38	7.03
517.729	7.07
518.077	7.11
518.426	7.01
518.774	6.94
519.122	6.98
519.47	6.87
519.819	6.95
520.167	6.97
520.515	6.99
520.863	7.02
521.211	7.01
521.559	7.07
521.907	7.08
522.255	7.09
522.602	7.13
522.95	7.2
523.298	7.11
523.645	7.21
523.993	7.17
524.341	7.23
524.688	7.21
525.036	7.25
525.383	7.32
525.73	7.27
526.078	7.24
526.425	7.22
526.772	7.17
527.119	7.06
527.466	7.13
527.814	7.14
528.161	7.13
528.508	7.19
528.854	7.23
529.201	7.19
529.548	7.1
529.895	6.98
530.242	6.97
530.588	6.99
530.935	7.05
531.282	7.04
531.628	7.13
531.975	7.24
532.321	7.29
532.667	7.34
533.014	7.41
533.36	7.34
533.706	7.27
534.052	7.32
534.399	7.35
534.745	7.21
535.091	7.25
535.437	7.26
535.783	7.25
536.129	7.32
536.474	7.43
536.82	7.54
537.166	7.51
537.512	7.47
537.857	7.43
538.203	7.46
538.549	7.44
538.894	7.58
539.239	7.54
539.585	7.69
539.93	7.79
540.276	7.63
540.621	7.74
540.966	7.73
541.311	7.68
541.656	7.74
542.001	7.57
542.346	7.56
542.691	7.42
543.036	7.36
543.381	7.48
543.726	7.48
544.071	7.57
544.415	7.63
544.76	7.56
545.105	7.76
545.449	7.73
545.794	7.69
546.138	7.88
546.483	7.82
546.827	7.82
547.171	7.93
547.516	7.84
547.86	7.81
548.204	7.93
548.548	7.85
548.892	7.83
549.236	7.89
549.58	8.02
549.924	8.04
550.268	8.05
550.612	8.14
550.956	7.96
551.3	8.21
551.643	8.22
551.987	8.18
552.33	8.12
552.674	8.09
553.017	8.23
553.361	8.23
553.704	8.26
554.048	8.36
554.391	8.21
554.734	8.17
555.077	8.15
555.42	8.35
555.764	8.33
556.107	8.23
556.45	8.21
556.793	8.41
557.135	8.45
557.478	8.36
557.821	8.44
558.164	8.48
558.507	8.55
558.849	8.7
559.192	8.56
559.534	8.55
559.877	8.62
560.219	8.69
560.562	8.74
560.904	8.42
561.246	8.54
561.589	8.81
561.931	8.56
562.273	8.62
562.615	8.59
562.957	8.57
563.299	8.64
563.641	8.6
563.983	8.82
564.325	8.79
564.667	8.71
565.008	8.88
565.35	8.91
565.692	8.79
566.033	8.74
566.375	8.92
566.716	8.97
567.058	8.88
567.399	8.92
567.741	8.82
568.082	8.9
568.423	8.88
568.764	8.79
569.105	9.03
569.447	9.05
569.788	9.01
570.129	9.04
570.47	9.07
570.811	8.82
571.151	9
571.492	8.97
571.833	9.23
572.174	9.13
572.514	9.12
572.855	9.09
573.195	9.02
573.536	9.16
573.876	9.1
574.217	9.16
574.557	9.18
574.898	9.15
575.238	9.41
575.578	9.3
575.918	9.32
576.258	9.21
576.598	9.37
576.938	9.28
577.278	9.39
577.618	9.52
577.958	9.4
578.298	9.45
578.638	9.57
578.977	9.66
579.317	9.52
579.657	9.34
579.996	9.74
580.336	9.71
580.675	9.8
581.014	9.57
581.354	9.68
581.693	9.54
582.032	9.73
582.372	9.74
582.711	9.6
583.05	9.78
583.389	9.86
583.728	9.92
584.067	10.05
584.406	9.91
584.745	9.78
585.083	9.73
585.422	10.07
585.761	10.16
586.1	10.09
586.438	10.15
586.777	10.08
587.115	9.92
587.454	9.99
587.792	10.09
588.13	10.08
588.469	10.22
588.807	10.02
589.145	10.21
589.483	10
589.821	10.11
590.159	9.97
590.497	10.19
590.835	9.91
591.173	10.24
591.511	10.37
591.849	10.36
592.187	10.22
592.524	10.35
592.862	10.29
593.2	10.41
593.537	10.44
593.875	10.37
594.212	10.53
594.55	10.39
594.887	10.54
595.224	10.52
595.561	10.48
595.899	10.57
596.236	10.66
596.573	10.49
596.91	10.58
597.247	10.71
597.584	10.59
597.921	10.66
598.258	10.5
598.594	10.59
598.931	10.67
599.268	10.64
599.604	10.54
599.941	10.87
600.277	10.93
600.614	10.73
600.95	11.05
601.287	10.87
601.623	10.82
601.959	10.87
602.296	10.86
602.632	11
602.968	11
603.304	11.18
603.64	11.28
603.976	11.07
604.312	11.16
604.648	11.12
604.984	10.99
605.319	10.92
605.655	11.09
605.991	11.12
606.326	11.15
606.662	11.18
606.998	11.31
607.333	11.24
607.668	11.19
608.004	11.29
608.339	11.36
608.674	11.49
609.01	11.63
609.345	11.53
609.68	11.15
610.015	11.21
610.35	11.48
610.685	11.48
611.02	11.51
611.355	11.39
611.689	11.46
612.024	11.44
612.359	11.56
612.694	11.57
613.028	11.52
613.363	11.63
613.697	11.69
614.032	11.84
614.366	11.67
614.7	11.55
615.035	12
615.369	11.81
615.703	11.88
616.037	11.75
616.371	11.93
616.705	11.44
617.039	11.67
617.373	11.98
617.707	11.93
618.041	11.95
618.375	11.9
618.709	12.2
619.042	11.9
619.376	11.81
619.71	12
620.043	12.06
620.377	12
620.71	12.1
621.043	12.41
621.377	11.69
621.71	12.15
622.043	12.07
622.376	12.43
622.709	12.26
623.043	12.33
623.376	12.55
623.709	12.55
624.041	12.44
624.374	12.67
624.707	12.01
625.04	12.46
625.373	12.87
625.705	12.51
626.038	12.69
626.37	12.49
626.703	12.74
627.035	12.71
627.368	12.87
627.7	12.3
628.032	12.72
628.365	12.78
628.697	12.8
629.029	12.84
629.361	12.6
629.693	13.07
630.025	13
630.357	12.7
630.689	13.04
631.021	12.77
631.353	12.83
631.684	12.8
632.016	12.75
632.348	12.94
632.679	12.67
633.011	13.04
633.342	13.16
633.674	12.98
634.005	13.12
634.336	13.1
634.668	13.29
634.999	12.8
635.33	13.26
635.661	13.22
635.992	13.5
636.323	13.72
636.654	13.53
636.985	13.49
637.316	13.33
637.647	13.13
637.977	13.55
638.308	13.36
638.639	13.43
638.969	13.18
639.3	13.52
639.63	13.65
639.961	13.35
640.291	13.28
640.622	14.03
640.952	13.88
641.282	13.78
641.612	13.9
641.943	13.42
642.273	13.76
642.603	13.65
642.933	13.78
643.263	13.57
643.592	13.61
643.922	13.88
644.252	13.96
644.582	13.92
644.911	14.11
645.241	13.85
645.571	14
645.9	14.29
646.23	13.74
646.559	14.01
646.888	14.22
647.218	14.04
647.547	13.87
647.876	13.89
648.205	14.16
648.534	13.91
648.863	14.04
649.192	14.07
649.521	13.86
649.85	13.87
650.179	13.84
650.508	14.07
650.837	14.03
651.165	14.13
651.494	14.38
651.822	14.4
652.151	14.8
652.479	14.21
652.808	14
653.136	14.04
653.465	14.7
653.793	14.38
654.121	14.52
654.449	14.65
654.777	14.52
655.105	14.88
655.433	14.49
655.761	14.46
656.089	13.99
656.417	14.6
656.745	14.69
657.073	15.15
657.4	14.3
657.728	14.3
658.056	14.62
658.383	14.75
658.711	15.04
659.038	15.12
659.365	14.77
659.693	15.12
660.02	15.22
660.347	14.75
660.674	14.86
661.001	14.74
661.329	14.75
661.656	14.77
661.982	15.04
662.309	15.49
662.636	14.87
662.963	15
663.29	14.96
663.616	15.25
663.943	15.19
664.27	15.49
664.596	15.51
664.923	14.95
665.249	15.55
665.576	15.47
665.902	14.92
666.228	15.4
666.554	15.29
666.881	15.23
667.207	15.87
667.533	15.68
667.859	15.33
668.185	15.87
668.511	15.72
668.837	15.55
669.162	15.21
669.488	15.27
669.814	15.62
670.139	15.7
670.465	15.46
670.791	16.06
671.116	15.54
671.442	15.48
671.767	15.67
672.092	15.38
672.418	15.67
672.743	15.83
673.068	15.21
673.393	15.76
673.718	15.23
674.043	15.62
674.368	15.31
674.693	15.84
675.018	15.66
675.343	16.2
675.667	15.5
675.992	16.13
676.317	16.19
676.641	16.23
676.966	16.37
677.29	16.43
677.615	16.28
677.939	15.77
678.264	15.9
678.588	16.6
678.912	15.98
679.236	16.66
679.56	16.58
679.885	16.07
680.209	16.02
680.532	16.33
680.856	16.66
681.18	16.74
681.504	16.04
681.828	16.23
682.152	16.36
682.475	16.18
682.799	16.65
683.122	16.54
683.446	15.97
683.769	16.53
684.093	16.67
684.416	16.35
684.739	17.19
685.062	16.38
685.386	16.44
685.709	16.27
686.032	16.7
686.355	16.29
686.678	16.69
687.001	16.74
687.324	16.83
687.646	16.37
687.969	16.7
688.292	17.07
688.614	16.89
688.937	16.44
689.26	16.27
689.582	16.65
689.904	16.79
690.227	16.53
690.549	17.23
690.871	17.11
691.194	17.31
691.516	17.05
691.838	16.52
692.16	17.31
692.482	17.37
692.804	16.85
693.126	17.64
693.448	16.77
693.769	16.99
694.091	16.56
694.413	17.3
694.735	17.92
695.056	16.63
695.378	17.46
695.699	17.25
696.021	16.83
696.342	17.09
696.663	16.9
696.984	16.72
697.306	17.53
697.627	17.11
697.948	17.31
698.269	17.41
698.59	17.39
698.911	17.41
699.232	17
699.553	17.59
699.873	17.33
700.194	17.72
700.515	17.4
700.835	17.14
701.156	17.67
701.477	17.58
701.797	17.51
702.117	18.02
702.438	17.92
702.758	17.63
703.078	17.89
703.398	17.48
703.719	17.74
704.039	18.58
704.359	18.47
704.679	17.26
704.999	18.18
705.319	18
705.638	17.68
705.958	17.45
706.278	17.75
706.597	17.89
706.917	18.04
707.237	17.49
707.556	18.21
707.876	18.61
708.195	17.92
708.514	18.15
708.834	18.23
709.153	16.74
709.472	18.43
709.791	17.89
710.11	18.29
710.429	19.01
710.748	18.59
711.067	18.38
711.386	17.53
711.705	17.73
712.023	17.97
712.342	17.9
712.661	17.83
712.979	18.12
713.298	18.14
713.616	18.68
713.935	18.52
714.253	17.93
714.572	18.63
714.89	19.2
715.208	18.87
715.526	17.92
715.844	18.93
716.162	18.25
716.48	18.16
716.798	19.03
717.116	19.29
717.434	18.87
717.752	18.62
718.069	18.79
718.387	18.51
718.705	18.84
719.022	18.28
719.34	18.97
719.657	18.61
719.975	18.79
720.292	17.6
720.609	18.98
720.927	18.31
721.244	19.47
721.561	18.27
721.878	19.65
722.195	18.87
722.512	18.74
722.829	19.52
723.146	18.25
723.463	19.18
723.779	18.72
724.096	17.81
724.413	19.56
724.729	19.58
725.046	19.06
725.362	19.98
725.679	19.64
725.995	19.12
726.311	20.12
726.628	20.27
726.944	18.33
727.26	18.08
727.576	19.65
727.892	18.31
728.208	17.89
728.524	19.71
728.84	17.74
729.156	19.75
729.472	19.7
729.787	18.5
730.103	18.64
730.419	19.47
730.734	19.61
731.05	18.85
731.365	19.7
731.681	19.77
731.996	19.12
732.311	18.4
732.626	19.93
732.942	20.14
733.257	19.9
733.572	20.02
733.887	20.24
734.202	19.4
734.517	19.4
734.832	18.8
735.146	18.91
735.461	19.44
735.776	19.93
736.091	19.07
736.405	19.75
736.72	18.98
737.034	18.89
737.349	20.3
737.663	20.13
737.977	19.61
738.292	19.11
738.606	19.55
738.92	20.41
739.234	19.98
739.548	18.56
739.862	19.31
740.176	20.18
740.49	19.74
740.804	20.51
741.117	19.78
741.431	19.68
741.745	20.91
742.058	20.65
742.372	19.31
742.685	19.09
742.999	18.66
743.312	20.2
743.626	19.53
743.939	20.62
744.252	22.11
744.565	21.33
744.878	20.92
745.191	19.82
745.505	21.07
745.817	21.33
746.13	20.7
746.443	20.51
746.756	19.31
747.069	21.02
747.381	19.53
747.694	20.86
748.007	20.39
748.319	21.5
748.632	20.32
748.944	21.42
749.256	19.22
749.569	21.27
749.881	21.63
750.193	19.86
750.505	20.18
750.817	21.67
751.129	19.72
751.441	20.5
751.753	21.72
752.065	19.03
752.377	20.02
752.689	20.32
753	23.1
753.312	20.89
753.624	20.45
753.935	21.39
754.247	19.14
754.558	22.14
754.869	20.56
755.181	20.3
755.492	20.59
755.803	20.63
756.114	22.08
756.425	20.93
756.736	21.03
757.047	20.35
757.358	21.51
757.669	22.27
757.98	21.61
758.291	21.74
758.601	21.11
758.912	19.89
759.223	21.14
759.533	21.44
759.844	19.94
760.154	23.59
760.464	20.29
760.775	22.58
761.085	21.32
761.395	21.83
761.705	21.45
762.016	20.03
762.326	20.68
762.636	21.01
762.945	20.7
763.255	20.83
763.565	21.43
763.875	20.6
764.185	21.16
764.494	22.81
764.804	20.57
765.113	21.04
765.423	21.69
765.732	22.08
766.042	21.82
766.351	21.19
766.66	21.2
766.97	21.44
767.279	21.96
767.588	21.8
767.897	22.03
768.206	21.49
768.515	21.92
768.824	21.28
769.133	21.39
769.441	21.92
769.75	21.96
770.059	21.67
770.367	21.74
770.676	19.84
770.984	22.82
771.293	21.98
771.601	21.18
771.91	21.65
772.218	19.34
772.526	20.64
772.834	21.75
773.142	21.59
773.45	22.16
773.758	21.69
774.066	21.44
774.374	22.04
774.682	21.91
774.99	23.44
775.298	25.2
775.605	21.39
775.913	19.02
776.22	23.44
776.528	20.54
776.835	22.24
777.143	21.98
777.45	20.58
777.757	22.54
778.065	24.54
778.372	18.28
778.679	21.41
778.986	24
779.293	22.91
779.6	22.98
779.907	22.42
780.214	22.9
780.52	24.68
780.827	19.92
781.134	22.2
781.44	24.25
781.747	23.63
782.053	23.64
782.36	24.92
782.666	22.6
782.973	22.4
783.279	21.82
783.585	23.75
783.891	23.14
784.197	20.35
784.503	22.64
784.809	22.43
785.115	20.45
785.421	22.66
785.727	20.56
786.033	24.49
786.339	23.35
786.644	21.05
786.95	28.07
787.255	22.27
787.561	19.46
787.866	19.5
788.172	23.58
788.477	22.49
788.782	23.46
789.088	23.74
789.393	24.74
789.698	22.32
790.003	21.26
790.308	24.59
790.613	22.51
790.918	20.84
791.223	20.3
791.527	19.54
791.832	22.19
792.137	24.19
792.441	25.19
792.746	23.77
793.05	22.99
793.355	22.36
793.659	22.88
793.963	20.47
794.268	22.25
794.572	23.39
794.876	23.57
795.18	22.33
795.484	25.39
795.788	23.73
796.092	21.41
796.396	23.93
796.7	23.27
797.004	20.69
797.307	20.42
797.611	24.41
797.915	20.89
798.218	23.7
798.522	21.39
798.825	24.9
799.128	21
799.432	23.73
799.735	25.9
800.038	21.37
800.341	24.14
800.644	22.78
800.947	25.05
801.25	24.32
801.553	20.59
801.856	23.67
802.159	25.23
802.462	23.65
802.764	21.95
803.067	23.13
803.37	24.28
803.672	26.29
803.975	24.39
804.277	25.49
804.579	23.25
804.882	22.47
805.184	22.09
805.486	27.61
805.788	21.27
806.09	25.73
806.392	22.82
806.694	20.98
806.996	18.87
807.298	22.9
807.6	22.46
807.902	23.42
808.203	23.59
808.505	27.43
808.807	27.21
809.108	23.63
809.409	28.93
809.711	26.03
810.012	27.74
810.313	25.2
810.615	22.52
810.916	23.01
811.217	25.43
811.518	23.72
811.819	20.46
812.12	25.44
812.421	21.24
812.722	22.22
813.023	27.24
813.323	27.31
813.624	21.4
813.925	23.36
814.225	25.86
814.526	21
814.826	29.44
815.126	15.99
815.427	18.03
815.727	21.73
816.027	20.32
816.327	32.86
816.627	26.19
816.927	25.62
817.227	24.56
817.527	25.66
817.827	21.96
818.127	24.98
818.427	23.08
818.727	22.29
819.026	25.07
819.326	24.24
819.625	24.81
819.925	23.34
820.224	18.23
820.524	26.43
820.823	24.94
821.122	21.23
821.421	24.35
821.72	25.74
822.019	24.03
822.318	27.45
822.617	24.87
822.916	24.87
823.215	22.52
823.514	25.26
823.813	24.7
824.111	25.65
824.41	24.82
824.709	25.46
825.007	24.93
825.306	25.05
825.604	25.64
825.902	25.03
826.201	25.32
826.499	24.59
826.797	25.07
827.095	25.53
827.393	24.72
827.691	25.25
827.989	26.1
828.287	25.96
828.585	25.73
828.882	25.82
829.18	26.42
829.478	24.65
829.775	24.95
830.073	25.59
830.37	25.35
830.668	25.11
830.965	24.96
831.263	25.19
831.56	24.11
831.857	25.51
832.154	25.47
832.451	25.56
832.748	24.31
833.045	24.45
833.342	25.17
833.639	26.53
833.936	25.13
834.232	26.12
834.529	22.67
834.826	26.68
835.122	23.93
835.419	24.49
835.715	25.2
836.012	22.8
836.308	24.34
836.604	21.61
836.901	25.28
837.197	24.02
837.493	26.45
837.789	24.33
838.085	27.58
838.381	23.15
838.677	24.61
838.972	26.94
839.268	27.38
839.564	27.48
839.86	25.97
840.155	20.73
840.451	29
840.746	25.74
841.042	25.28
841.337	14.2
841.632	23.6
841.928	26.25
842.223	29.79
842.518	21.1
842.813	24.78
843.108	28.49
843.403	21.73
843.698	23.14
843.993	21.85
844.287	19.7
844.582	20.74
844.877	23.02
845.171	20.56
845.466	15.8
845.761	27.83
846.055	20.99
846.349	29.2
846.644	23.98
846.938	28.56
847.232	26.19
847.526	21.72
847.82	34.56
848.114	14.37
848.408	31.49
848.702	13.44
848.996	22.9
849.29	22.77
849.584	17.04
849.877	29.07
850.171	9.64
850.465	36.33
850.758	25.31
851.052	26.91
851.345	21.78
851.638	27.98
851.932	27.92
852.225	14.07
852.518	9.32
852.811	10.85
853.104	21.41
853.397	16.75
853.69	24.3
853.983	34.69
854.276	-0.37
854.569	8.16
854.861	24.53
855.154	17.8
855.447	20.16
855.739	31.88
856.032	28.83
856.324	13.48
856.616	1.89
856.909	10.29
857.201	19.07
857.493	24.88
857.785	41.96
858.077	25.09
858.369	23.39
858.661	31.87
858.953	10.87
859.245	17.39
859.537	32.19
859.829	27.99
860.12	21.15
860.412	25.68
860.703	23.15
860.995	30.32
861.286	9.8
861.578	41.12
861.869	10.42
862.16	18.48
862.452	26.43
862.743	40.29
863.034	13.95
863.325	16.55
863.616	14.48
863.907	31.53
864.198	11.54
864.488	28.75
864.779	31.16
865.07	29.06
865.36	28.01
865.651	43.19
865.941	36.2
866.232	38.85
866.522	18.49
866.813	11.49
867.103	17.09
867.393	29.57
867.683	26.81
867.973	12.89
868.263	3.43
868.553	24.06
868.843	13.75
869.133	26.03
869.423	23.25
869.713	23.07
870.002	19.44
870.292	32.23
870.582	8.59
870.871	20.81
871.161	31.03
871.45	16.61
871.739	29.58
872.029	32.95
872.318	9.12
872.607	39.55
872.896	3.15
873.185	-6.14
873.474	24.73
873.763	11.24
874.052	8.9
874.341	20.34
874.63	3.26
874.918	20.76
875.207	33.5
875.496	23.78
875.784	38.16
876.073	40.73
876.361	36.14
876.649	36.93
876.938	7.71
877.226	42.59
877.514	20.76
877.802	8.63
878.09	24.32
878.378	37.86
878.666	20.59
878.954	32.44
879.242	36.36
879.53	2.94
879.817	15.46
880.105	22.25
880.392	15.78
880.68	31.85
880.967	19.46
881.255	14.48
881.542	0.17
881.83	25.78
882.117	15.56
882.404	33.82
882.691	25.94
882.978	28.58
883.265	16.27
883.552	10.79
883.839	20.55
884.126	34.75
884.413	28.46
884.699	30.81
884.986	25.84
885.273	26.86
885.559	26.86
885.846	26.86
