Data from 0027_crown_Reflection__1__97.txt Node

Date: Thu Oct 20 21:43:11 CDT 2022
User: ToomeyLab
Spectrometer: FLMS14357
Trigger mode: 0
Integration Time (sec): 1.000000E-2
Scans to average: 100
Electric dark correction enabled: true
Nonlinearity correction enabled: false
Boxcar width: 0
XAxis mode: Wavelengths
Number of Pixels in Spectrum: 2048
>>>>>Begin Spectral Data<<<<<
189.047	102.01
189.435	102.01
189.823	102.01
190.211	-117.09
190.599	-167.67
190.987	-607.24
191.375	41.17
191.763	217.46
192.151	49.7
192.538	61.1
192.926	130.74
193.314	49.15
193.702	35.2
194.089	72.01
194.477	108.25
194.864	98.42
195.252	49.76
195.639	-272.73
196.027	-79.28
196.414	91.11
196.801	-2.2
197.189	126.92
197.576	680.23
197.963	-234.86
198.351	8.83
198.738	-17.74
199.125	-25.81
199.512	-5.04
199.899	-38.48
200.286	-6.69
200.673	-5.56
201.06	13.35
201.447	13.56
201.833	0.96
202.22	-22.83
202.607	-24.34
202.994	-3.65
203.38	-21.82
203.767	2.62
204.154	-56.04
204.54	5.06
204.927	-43.67
205.313	12.03
205.699	10.58
206.086	10.13
206.472	-2.99
206.858	-3.95
207.245	14.34
207.631	-5.74
208.017	-42.75
208.403	-77.27
208.789	-9.17
209.175	8.69
209.561	9.66
209.947	4.96
210.333	14.46
210.719	16.17
211.105	17.14
211.491	-63.14
211.876	-115.23
212.262	11.7
212.648	-10.02
213.034	-6.45
213.419	-21.54
213.805	-5.04
214.19	-28.83
214.576	-68.95
214.961	-13.01
215.346	-22.76
215.732	-10.03
216.117	-1.28
216.502	0.25
216.888	-17.89
217.273	-5.96
217.658	18.18
218.043	1.83
218.428	-6.89
218.813	14.02
219.198	12.47
219.583	5.46
219.968	16.25
220.353	-26.56
220.738	-0.34
221.122	4.17
221.507	0.73
221.892	-6.26
222.276	9.82
222.661	9.8
223.046	11.55
223.43	-0.2
223.815	7.25
224.199	2.6
224.583	-6.43
224.968	11.33
225.352	8.58
225.736	7.79
226.121	9
226.505	4.95
226.889	0.66
227.273	-0.51
227.657	-1.08
228.041	0.24
228.425	6.32
228.809	6.53
229.193	6.91
229.577	5.9
229.961	6.38
230.344	6.22
230.728	6.25
231.112	6.43
231.495	5.39
231.879	6.01
232.263	5.44
232.646	5.89
233.03	5.54
233.413	4.52
233.797	3.24
234.18	5.51
234.563	4.51
234.946	5.75
235.33	5.68
235.713	5.76
236.096	4.82
236.479	6.02
236.862	6.4
237.245	5.36
237.628	5.49
238.011	5.91
238.394	5.55
238.777	5.56
239.16	4.69
239.543	4.65
239.925	5.24
240.308	6.69
240.691	7.27
241.073	4.4
241.456	6.51
241.838	5.12
242.221	5.49
242.603	5.13
242.986	5.74
243.368	5.62
243.75	5.86
244.133	6.19
244.515	5.63
244.897	5.37
245.279	4.71
245.661	6.26
246.043	6.04
246.425	6.01
246.807	6.05
247.189	5.81
247.571	6.16
247.953	5.91
248.335	5.71
248.717	5.69
249.098	5.6
249.48	5.37
249.862	5.52
250.243	5.29
250.625	6.6
251.006	6
251.388	5.05
251.769	4.99
252.151	6.13
252.532	4.86
252.913	5.09
253.295	5.6
253.676	5.43
254.057	4.6
254.438	5.45
254.819	5.26
255.2	5.76
255.581	4.36
255.962	5.44
256.343	4.06
256.724	4.44
257.105	5.26
257.486	5.1
257.867	5.35
258.247	4.76
258.628	5.85
259.009	4.69
259.389	5.22
259.77	5
260.15	4.95
260.531	5.33
260.911	5.11
261.292	5.31
261.672	5.29
262.052	5.2
262.432	5.29
262.813	4.87
263.193	5.76
263.573	5.19
263.953	5.05
264.333	4.97
264.713	5.11
265.093	4.6
265.473	5.11
265.853	5.03
266.233	4.45
266.612	5.32
266.992	4.72
267.372	5.3
267.752	5.19
268.131	5.77
268.511	5.54
268.89	5.06
269.27	4.96
269.649	4.3
270.029	4.76
270.408	4.57
270.787	4.88
271.167	4.35
271.546	4.7
271.925	4.98
272.304	4.87
272.683	5.04
273.062	4.68
273.441	5.12
273.82	4.87
274.199	4.47
274.578	4.58
274.957	4.99
275.336	5.08
275.715	5.05
276.093	5.3
276.472	5.61
276.851	4.62
277.229	4.78
277.608	4.63
277.986	4.61
278.365	5.18
278.743	5.04
279.122	5.07
279.5	4.57
279.878	4.69
280.257	4.65
280.635	5.18
281.013	4.29
281.391	5.39
281.769	4.9
282.147	4.33
282.525	4.28
282.903	4.91
283.281	4.2
283.659	4.9
284.037	4.21
284.415	5.33
284.792	4.69
285.17	5.21
285.548	4.71
285.925	4.23
286.303	4.45
286.68	5.21
287.058	4.67
287.435	4.4
287.813	4.44
288.19	4.78
288.567	4.67
288.945	4.72
289.322	4.86
289.699	4.27
290.076	4.48
290.453	4.41
290.83	4.7
291.207	5.06
291.584	4.54
291.961	4.52
292.338	4.3
292.715	4.63
293.092	5.02
293.469	4.39
293.845	4.33
294.222	4.45
294.599	5.14
294.975	3.88
295.352	4.91
295.728	4.99
296.105	4.88
296.481	4.49
296.858	4.61
297.234	4.37
297.61	4.42
297.986	4.29
298.363	4.59
298.739	4.48
299.115	4.57
299.491	4.53
299.867	4.3
300.243	4.26
300.619	4.58
300.995	4.13
301.371	4.7
301.746	3.97
302.122	4.92
302.498	4.48
302.874	4.82
303.249	4.75
303.625	4.32
304	4.4
304.376	4.45
304.751	4.19
305.127	4.02
305.502	4.42
305.878	4.43
306.253	4.46
306.628	4.44
307.003	4.26
307.378	4.21
307.754	4.66
308.129	4.46
308.504	4.34
308.879	4.42
309.254	4.47
309.629	4.01
310.003	4.09
310.378	4.66
310.753	4.85
311.128	4.43
311.502	4.62
311.877	4.45
312.252	4.42
312.626	4.37
313.001	4.41
313.375	4.55
313.75	4.02
314.124	4.5
314.498	4.43
314.873	4.49
315.247	4.34
315.621	4.34
315.995	4.22
316.369	4.93
316.743	4.36
317.117	4.51
317.491	4.39
317.865	4.46
318.239	4.42
318.613	4.92
318.987	3.97
319.361	4.93
319.734	4.34
320.108	4.58
320.482	4.21
320.855	4.33
321.229	4.62
321.602	3.89
321.976	4.4
322.349	4.98
322.723	4.52
323.096	4.39
323.469	3.74
323.843	4.45
324.216	4.12
324.589	4.72
324.962	4.02
325.335	4.64
325.708	4.45
326.081	5.39
326.454	4.54
326.827	4.5
327.2	4.72
327.573	4.3
327.945	4.31
328.318	4.36
328.691	4.64
329.063	4.7
329.436	4.36
329.809	4.82
330.181	4.57
330.553	4.34
330.926	4.5
331.298	4.38
331.671	4.85
332.043	4.87
332.415	4.63
332.787	4.31
333.159	4.59
333.532	4.31
333.904	4.42
334.276	4.44
334.648	4.07
335.02	4.96
335.391	4.47
335.763	4.4
336.135	4.37
336.507	3.85
336.879	5.11
337.25	4.22
337.622	4.73
337.993	4.67
338.365	4.54
338.736	4.43
339.108	4.61
339.479	4.94
339.851	4.75
340.222	4.34
340.593	4.52
340.964	4.67
341.336	4.21
341.707	4.5
342.078	4.48
342.449	4.69
342.82	4.27
343.191	4.33
343.562	4.83
343.933	4.76
344.303	4.6
344.674	4.8
345.045	4.86
345.416	4.49
345.786	4.59
346.157	4.22
346.527	4.46
346.898	4.62
347.268	4.51
347.639	4.58
348.009	4.48
348.38	4.74
348.75	4.49
349.12	5.18
349.49	4.64
349.861	4.81
350.231	4.34
350.601	4.88
350.971	4.44
351.341	5.01
351.711	4.75
352.081	4.66
352.45	4.61
352.82	4.62
353.19	4.54
353.56	4.78
353.929	4.26
354.299	5.18
354.669	4.44
355.038	4.87
355.408	4.09
355.777	4.46
356.147	4.93
356.516	5.01
356.885	4.64
357.254	4.91
357.624	4.63
357.993	4.6
358.362	4.78
358.731	5.05
359.1	4.36
359.469	5.12
359.838	4.53
360.207	5.34
360.576	4.36
360.945	4.82
361.314	4.79
361.682	4.84
362.051	4.73
362.42	4.64
362.788	4.56
363.157	4.72
363.525	4.88
363.894	4.73
364.262	4.89
364.631	4.97
364.999	4.81
365.367	4.77
365.735	4.8
366.104	4.7
366.472	4.68
366.84	5.36
367.208	4.86
367.576	4.61
367.944	5.04
368.312	4.48
368.68	4.94
369.048	4.68
369.416	4.73
369.783	5.06
370.151	5.16
370.519	5.03
370.886	4.74
371.254	5.11
371.621	4.92
371.989	5.08
372.356	4.62
372.724	4.75
373.091	4.8
373.458	4.67
373.826	4.88
374.193	4.83
374.56	4.71
374.927	4.81
375.294	5.13
375.661	5.02
376.028	4.64
376.395	5
376.762	4.68
377.129	4.41
377.496	4.62
377.863	5.03
378.229	4.78
378.596	4.93
378.963	4.83
379.329	4.96
379.696	4.78
380.062	4.68
380.429	5.25
380.795	5
381.161	5.07
381.528	4.89
381.894	4.87
382.26	4.85
382.626	5.09
382.993	4.73
383.359	5.05
383.725	4.88
384.091	4.92
384.457	4.8
384.823	4.94
385.188	4.93
385.554	4.74
385.92	4.83
386.286	4.9
386.651	4.69
387.017	4.53
387.383	4.9
387.748	5.23
388.114	5.1
388.479	4.96
388.845	5.08
389.21	4.98
389.575	4.92
389.94	5.3
390.306	4.91
390.671	5.1
391.036	5.1
391.401	4.82
391.766	5.12
392.131	5.04
392.496	4.9
392.861	4.86
393.226	4.85
393.591	5.15
393.956	5.02
394.32	5.13
394.685	5
395.05	4.83
395.414	4.87
395.779	4.93
396.143	4.96
396.508	5.24
396.872	4.9
397.236	5.02
397.601	5.25
397.965	5.09
398.329	4.95
398.694	4.98
399.058	5.07
399.422	5.17
399.786	5.02
400.15	5.14
400.514	5.14
400.878	5.15
401.242	5.06
401.605	5.07
401.969	5.13
402.333	5.04
402.697	5.38
403.06	4.99
403.424	4.98
403.787	5.13
404.151	4.9
404.514	4.98
404.878	4.8
405.241	5.14
405.604	5.12
405.968	5.09
406.331	5
406.694	5.09
407.057	5.17
407.42	4.97
407.783	4.97
408.146	5.28
408.509	5.13
408.872	4.99
409.235	4.93
409.598	5.13
409.961	5.16
410.323	5.33
410.686	5
411.049	5.14
411.411	4.86
411.774	4.96
412.136	4.92
412.499	5.11
412.861	5.07
413.223	5
413.586	5.02
413.948	4.92
414.31	4.95
414.672	5.32
415.035	5.17
415.397	5.01
415.759	5.13
416.121	5.33
416.483	5.03
416.845	5.2
417.206	5.03
417.568	4.97
417.93	5.1
418.292	5.29
418.653	5.06
419.015	4.99
419.377	5.02
419.738	5.15
420.1	5.11
420.461	5.02
420.822	5.04
421.184	5.1
421.545	5.08
421.906	5
422.267	5.03
422.629	4.98
422.99	5.06
423.351	4.99
423.712	4.99
424.073	5.05
424.434	4.97
424.795	5.06
425.155	4.94
425.516	5
425.877	4.99
426.238	5.06
426.598	5.08
426.959	5.05
427.32	5.07
427.68	5.12
428.041	5.12
428.401	5.04
428.761	5.08
429.122	5.04
429.482	5.1
429.842	5.05
430.202	5.29
430.563	5.16
430.923	5.33
431.283	5
431.643	5.2
432.003	5.13
432.363	5.27
432.722	5.33
433.082	5.17
433.442	5.12
433.802	5.24
434.161	5.19
434.521	5.04
434.881	5.09
435.24	5.15
435.6	5.19
435.959	5.18
436.319	5.19
436.678	5.02
437.037	5.2
437.396	5.24
437.756	5.17
438.115	5.05
438.474	5.02
438.833	5.18
439.192	5.18
439.551	5.1
439.91	5.11
440.269	5.07
440.628	5.12
440.987	5.12
441.345	5.2
441.704	5.07
442.063	5.24
442.421	4.94
442.78	5.08
443.138	5.16
443.497	5.13
443.855	5.04
444.214	5.13
444.572	5.31
444.93	5.04
445.288	5.09
445.647	5.13
446.005	5.05
446.363	5.05
446.721	5.07
447.079	5
447.437	4.97
447.795	4.99
448.153	4.94
448.51	5.02
448.868	5.12
449.226	5.16
449.584	5.07
449.941	5.07
450.299	5.27
450.656	5.24
451.014	5.26
451.371	5.28
451.729	5.04
452.086	5.37
452.443	5.17
452.801	5.33
453.158	5.3
453.515	5.2
453.872	5.1
454.229	5.17
454.586	5.17
454.943	5.12
455.3	5.23
455.657	5.08
456.014	5.17
456.371	5.27
456.727	5.18
457.084	5.18
457.441	5.19
457.797	5.07
458.154	5.22
458.51	5.03
458.867	5.08
459.223	5.32
459.58	5.11
459.936	5.18
460.292	5.11
460.648	5
461.005	4.97
461.361	4.99
461.717	5.14
462.073	5.26
462.429	5.16
462.785	5.14
463.141	5.38
463.496	5.32
463.852	5.18
464.208	5.22
464.564	5.33
464.919	5.24
465.275	5.25
465.631	5.14
465.986	5.28
466.342	5.04
466.697	5.17
467.052	5.14
467.408	5.22
467.763	5.13
468.118	5.25
468.473	5.25
468.829	5.4
469.184	5.25
469.539	5.17
469.894	5.21
470.249	5.41
470.603	5.22
470.958	5.17
471.313	5.09
471.668	5.26
472.023	5.15
472.377	5.03
472.732	5.2
473.086	5.3
473.441	5.19
473.795	5.19
474.15	5.17
474.504	5.1
474.859	5.24
475.213	5.28
475.567	5.3
475.921	5.15
476.275	5.31
476.63	5.33
476.984	5.27
477.338	5.19
477.692	5.25
478.045	5.25
478.399	5.33
478.753	5.14
479.107	5.17
479.461	5.12
479.814	5.19
480.168	5.29
480.521	5.14
480.875	5.23
481.228	5.14
481.582	5.24
481.935	5.28
482.289	4.99
482.642	4.93
482.995	5.11
483.348	5.14
483.701	5.07
484.055	5.03
484.408	4.93
484.761	4.91
485.114	4.77
485.466	4.77
485.819	4.9
486.172	4.95
486.525	5.06
486.878	5.06
487.23	5.08
487.583	5.04
487.936	5.05
488.288	4.97
488.641	4.91
488.993	4.91
489.345	4.95
489.698	4.98
490.05	5.01
490.402	5.1
490.754	5.14
491.107	5.08
491.459	5.17
491.811	5.06
492.163	5.07
492.515	4.96
492.866	4.92
493.218	4.9
493.57	4.99
493.922	5.13
494.274	5.11
494.625	5.09
494.977	5.2
495.328	5.11
495.68	5.13
496.031	5.33
496.383	5.23
496.734	5.17
497.086	5.1
497.437	5.19
497.788	5.14
498.139	5.1
498.49	5.09
498.842	5.06
499.193	5.16
499.544	5.22
499.894	5.21
500.245	5.24
500.596	5.14
500.947	5.14
501.298	5.26
501.648	5.14
501.999	5.23
502.35	5.29
502.7	5.27
503.051	5.3
503.401	5.16
503.752	5.16
504.102	5.16
504.452	5.13
504.803	5.14
505.153	5.12
505.503	5.22
505.853	5.15
506.203	5.24
506.553	5.26
506.903	5.14
507.253	5.12
507.603	5.23
507.953	5.28
508.303	5.26
508.652	5.19
509.002	5.27
509.352	5.15
509.701	5.1
510.051	5.05
510.4	5.13
510.75	5.1
511.099	5.15
511.449	5.3
511.798	5.23
512.147	5.2
512.496	5.3
512.846	5.28
513.195	5.21
513.544	5.15
513.893	5.19
514.242	5.17
514.591	5.26
514.939	5.2
515.288	5.24
515.637	5.15
515.986	5.19
516.334	5.18
516.683	5.3
517.032	5.17
517.38	5.22
517.729	5.31
518.077	5.17
518.426	5.18
518.774	5.22
519.122	5.16
519.47	5.12
519.819	5.03
520.167	5.1
520.515	5.12
520.863	5.13
521.211	5.15
521.559	5.23
521.907	5.15
522.255	5.18
522.602	5.22
522.95	5.25
523.298	5.17
523.645	5.4
523.993	5.21
524.341	5.19
524.688	5.29
525.036	5.24
525.383	5.25
525.73	5.08
526.078	5.27
526.425	5.18
526.772	5.11
527.119	5.07
527.466	5.12
527.814	5.18
528.161	5.15
528.508	5.14
528.854	5.11
529.201	5.07
529.548	4.95
529.895	4.85
530.242	4.9
530.588	4.99
530.935	5.08
531.282	5.05
531.628	5.15
531.975	5.17
532.321	5.14
532.667	5.2
533.014	5.19
533.36	5.16
533.706	5.05
534.052	5.04
534.399	5.15
534.745	5.01
535.091	5.02
535.437	5.1
535.783	5.05
536.129	5.13
536.474	5.18
536.82	5.15
537.166	5.1
537.512	5.08
537.857	5.11
538.203	5.1
538.549	5.13
538.894	5.17
539.239	5.19
539.585	5.15
539.93	5.21
540.276	5.39
540.621	5.22
540.966	5.17
541.311	5.21
541.656	5.09
542.001	5
542.346	4.96
542.691	4.92
543.036	4.89
543.381	4.98
543.726	5.06
544.071	5.05
544.415	5.14
544.76	5.04
545.105	5.13
545.449	5.15
545.794	5.24
546.138	5.25
546.483	5.23
546.827	5.17
547.171	5.22
547.516	5.17
547.86	5.14
548.204	5.1
548.548	5.21
548.892	5.09
549.236	5.12
549.58	5.25
549.924	5.23
550.268	5.24
550.612	5.28
550.956	5.08
551.3	5.26
551.643	5.16
551.987	5.24
552.33	5.32
552.674	4.99
553.017	5.25
553.361	5.26
553.704	5.23
554.048	5.37
554.391	5.26
554.734	5.12
555.077	5.2
555.42	5.26
555.764	5.2
556.107	5.24
556.45	5.23
556.793	5.18
557.135	5.42
557.478	5.17
557.821	5.32
558.164	5.23
558.507	5.19
558.849	5.39
559.192	5.41
559.534	5.42
559.877	5.26
560.219	5.39
560.562	5.4
560.904	5.3
561.246	5.05
561.589	5.37
561.931	5.17
562.273	5.32
562.615	5.33
562.957	5.09
563.299	5.07
563.641	5.2
563.983	5.46
564.325	5.05
564.667	5.26
565.008	5.32
565.35	5.23
565.692	5.18
566.033	5.19
566.375	5.32
566.716	5.15
567.058	5.02
567.399	5.24
567.741	5.08
568.082	5.27
568.423	5.25
568.764	5.14
569.105	5.26
569.447	5.42
569.788	5.32
570.129	5.32
570.47	5.33
570.811	5.03
571.151	5.2
571.492	5.15
571.833	5.15
572.174	5.42
572.514	5.32
572.855	5.35
573.195	5.23
573.536	5.09
573.876	5.03
574.217	5.2
574.557	5.18
574.898	5.29
575.238	5.42
575.578	5.14
575.918	5.14
576.258	5.18
576.598	5.24
576.938	5.14
577.278	5.2
577.618	5.18
577.958	5.12
578.298	5.32
578.638	5.1
578.977	5.17
579.317	5.19
579.657	5.23
579.996	5.36
580.336	5.32
580.675	5.55
581.014	5.22
581.354	5.16
581.693	5.21
582.032	5.23
582.372	5.31
582.711	5.28
583.05	5.4
583.389	5.32
583.728	5.49
584.067	5.37
584.406	5.31
584.745	5.52
585.083	5.06
585.422	5.35
585.761	5.25
586.1	5.55
586.438	5.6
586.777	5.45
587.115	5.23
587.454	5.27
587.792	5.47
588.13	5.28
588.469	5.53
588.807	5.39
589.145	5.31
589.483	5.2
589.821	5.19
590.159	5.16
590.497	5.13
590.835	5.18
591.173	5.27
591.511	5.24
591.849	5.32
592.187	5.08
592.524	5.26
592.862	5.15
593.2	5.34
593.537	5.41
593.875	5.24
594.212	5.29
594.55	5.15
594.887	4.96
595.224	5.42
595.561	5.12
595.899	5.5
596.236	5.29
596.573	5.35
596.91	5.2
597.247	5.17
597.584	5.03
597.921	5.12
598.258	5.14
598.594	5.2
598.931	5.2
599.268	5.22
599.604	5.36
599.941	5.42
600.277	5.24
600.614	5.29
600.95	5.32
601.287	5.29
601.623	5.23
601.959	5.03
602.296	5.11
602.632	5.19
602.968	5.35
603.304	5.18
603.64	5.28
603.976	5.39
604.312	5.16
604.648	5.2
604.984	5.19
605.319	5.23
605.655	5.34
605.991	5.09
606.326	5.27
606.662	5.2
606.998	5.38
607.333	5.18
607.668	5.16
608.004	5.27
608.339	5.25
608.674	5.19
609.01	5.27
609.345	5.36
609.68	5.14
610.015	5.37
610.35	5.4
610.685	5.24
611.02	5.3
611.355	5.14
611.689	5.43
612.024	5.25
612.359	5.23
612.694	5.26
613.028	5.2
613.363	5.12
613.697	5.36
614.032	5.32
614.366	5.34
614.7	5.3
615.035	5.16
615.369	5.23
615.703	5.32
616.037	5.12
616.371	5.12
616.705	5.04
617.039	5.24
617.373	5.23
617.707	5.43
618.041	5.11
618.375	5.17
618.709	5.28
619.042	5.09
619.376	5.16
619.71	5.41
620.043	5.1
620.377	5.4
620.71	5.34
621.043	5.49
621.377	4.89
621.71	4.95
622.043	5.14
622.376	5.54
622.709	5.5
623.043	5.49
623.376	5.47
623.709	5.5
624.041	5.18
624.374	5.3
624.707	5.23
625.04	5.6
625.373	5.55
625.705	5.42
626.038	5.51
626.37	5.04
626.703	5.13
627.035	5.35
627.368	5.29
627.7	5.19
628.032	5.32
628.365	5.02
628.697	5.46
629.029	5.43
629.361	5.42
629.693	5.55
630.025	5.46
630.357	5.16
630.689	5.31
631.021	5.46
631.353	5.4
631.684	5.16
632.016	5.28
632.348	5.41
632.679	4.93
633.011	5.69
633.342	5.59
633.674	5.29
634.005	5.26
634.336	5.32
634.668	5.08
634.999	5.15
635.33	5.77
635.661	5.49
635.992	5.51
636.323	5.7
636.654	5.5
636.985	5.41
637.316	5.24
637.647	5.46
637.977	5.84
638.308	5.34
638.639	5.48
638.969	5.34
639.3	5.15
639.63	5.48
639.961	5.03
640.291	4.97
640.622	5.91
640.952	5.52
641.282	5.37
641.612	5.48
641.943	5.62
642.273	5.74
642.603	5.48
642.933	5.64
643.263	5.26
643.592	5.74
643.922	5.34
644.252	5.38
644.582	4.81
644.911	5.62
645.241	5.53
645.571	5.5
645.9	5.74
646.23	5.22
646.559	5.21
646.888	5.55
647.218	4.84
647.547	5.69
647.876	5.25
648.205	5.24
648.534	4.98
648.863	5.18
649.192	5.15
649.521	4.97
649.85	5.72
650.179	5.59
650.508	5.45
650.837	5.3
651.165	5.49
651.494	5.63
651.822	5.46
652.151	5.44
652.479	5.1
652.808	4.97
653.136	5.16
653.465	5.61
653.793	5.72
654.121	5.57
654.449	5.49
654.777	5.25
655.105	5.67
655.433	5.3
655.761	5.36
656.089	5.07
656.417	5.43
656.745	5.61
657.073	5.55
657.4	5.18
657.728	5.53
658.056	5.54
658.383	5.63
658.711	5.74
659.038	5.81
659.365	5.57
659.693	5.57
660.02	5.74
660.347	5.75
660.674	5.64
661.001	5.42
661.329	5.5
661.656	5.21
661.982	5.36
662.309	5.27
662.636	5.32
662.963	5.08
663.29	5.32
663.616	5.2
663.943	5.3
664.27	5.85
664.596	5.67
664.923	5.12
665.249	5.59
665.576	5.34
665.902	4.94
666.228	5.62
666.554	5.31
666.881	5.5
667.207	5.58
667.533	5.83
667.859	5.26
668.185	5.79
668.511	5.54
668.837	5.26
669.162	5.2
669.488	4.95
669.814	5.78
670.139	5.64
670.465	5.27
670.791	6.29
671.116	5.66
671.442	5.47
671.767	5.98
672.092	5.9
672.418	5.36
672.743	5.28
673.068	5.36
673.393	5.5
673.718	4.99
674.043	5.05
674.368	5.04
674.693	5.5
675.018	5.67
675.343	5.03
675.667	5.7
675.992	5.47
676.317	5.79
676.641	5.95
676.966	5.1
677.29	5.37
677.615	5.83
677.939	5.41
678.264	5.78
678.588	5.62
678.912	5.56
679.236	5.61
679.56	5.58
679.885	5.4
680.209	5.49
680.532	5.88
680.856	6.09
681.18	5.58
681.504	5.05
681.828	5.47
682.152	5.82
682.475	5.76
682.799	5.97
683.122	5.44
683.446	5.65
683.769	5.92
684.093	5.74
684.416	5.78
684.739	5.63
685.062	5.18
685.386	5.12
685.709	5.22
686.032	5.52
686.355	5.4
686.678	5.91
687.001	5.67
687.324	6.06
687.646	5.91
687.969	5.34
688.292	5.81
688.614	5.52
688.937	5.02
689.26	5.29
689.582	4.99
689.904	6.11
690.227	4.95
690.549	5.88
690.871	4.95
691.194	5.75
691.516	4.85
691.838	5.17
692.16	5.6
692.482	6.01
692.804	5.6
693.126	6.16
693.448	5.35
693.769	6.1
694.091	5.14
694.413	5.45
694.735	6.05
695.056	5.52
695.378	5.78
695.699	5.76
696.021	5.68
696.342	5.32
696.663	5.74
696.984	5.54
697.306	5.4
697.627	6.41
697.948	5.61
698.269	6.11
698.59	5.39
698.911	5.1
699.232	5.98
699.553	5.76
699.873	5.3
700.194	6.19
700.515	6.13
700.835	5.47
701.156	5.74
701.477	5.16
701.797	5.56
702.117	5.7
702.438	5.9
702.758	6.11
703.078	6.16
703.398	5.48
703.719	5.65
704.039	6.66
704.359	6.8
704.679	5.82
704.999	6.93
705.319	5.77
705.638	5.17
705.958	5.27
706.278	5.72
706.597	6.09
706.917	6.54
707.237	4.88
707.556	5.95
707.876	6.29
708.195	4.8
708.514	5.17
708.834	5.54
709.153	5.67
709.472	5.61
709.791	5.71
710.11	5.82
710.429	6.57
710.748	5.21
711.067	5.8
711.386	5.34
711.705	5.23
712.023	5.39
712.342	5.4
712.661	5.05
712.979	5.7
713.298	6.4
713.616	5.32
713.935	6.52
714.253	5.69
714.572	6.1
714.89	5.56
715.208	5.82
715.526	4.92
715.844	6.46
716.162	6.05
716.48	5.67
716.798	6.33
717.116	6.12
717.434	5.56
717.752	5.74
718.069	6.03
718.387	6.49
718.705	5.9
719.022	5.35
719.34	5.91
719.657	6.38
719.975	5.82
720.292	5.3
720.609	5.47
720.927	5.53
721.244	5.44
721.561	5.43
721.878	6.28
722.195	5.46
722.512	6.18
722.829	5.43
723.146	5.03
723.463	6.36
723.779	5.49
724.096	6.17
724.413	5.47
724.729	5.85
725.046	6.46
725.362	7.11
725.679	6.44
725.995	6.44
726.311	6.04
726.628	6.69
726.944	5.88
727.26	5.6
727.576	7.03
727.892	5.2
728.208	5.36
728.524	6.06
728.84	4.86
729.156	6.99
729.472	5.63
729.787	6.92
730.103	6.48
730.419	5.15
730.734	6.33
731.05	5.4
731.365	5.97
731.681	6.76
731.996	6.02
732.311	4.96
732.626	6.26
732.942	6.65
733.257	5.87
733.572	5.4
733.887	6.29
734.202	5.61
734.517	5.51
734.832	4.99
735.146	6.35
735.461	5.23
735.776	6.3
736.091	4.48
736.405	4.94
736.72	5.49
737.034	5.51
737.349	7.09
737.663	7.06
737.977	5.39
738.292	5.53
738.606	4.93
738.92	6.37
739.234	6.79
739.548	6.14
739.862	6.41
740.176	5.7
740.49	6.79
740.804	5.99
741.117	5.87
741.431	6.79
741.745	7.37
742.058	7.78
742.372	5.16
742.685	4.95
742.999	4.5
743.312	6.69
743.626	3.87
743.939	4.78
744.252	5.65
744.565	6.31
744.878	6.73
745.191	6.79
745.505	7.91
745.817	6.56
746.13	7.37
746.443	8.63
746.756	5.97
747.069	7.31
747.381	5.88
747.694	6.59
748.007	6.97
748.319	7.01
748.632	6.25
748.944	5.63
749.256	5.89
749.569	6.62
749.881	6.14
750.193	6.82
750.505	5.71
750.817	8.25
751.129	5.36
751.441	5.65
751.753	4.97
752.065	5.74
752.377	5.65
752.689	5.58
753	6.8
753.312	5.83
753.624	6.12
753.935	5.87
754.247	5.2
754.558	8.02
754.869	6.69
755.181	5.42
755.492	6.14
755.803	8.35
756.114	7.57
756.425	5.51
756.736	6.63
757.047	5.34
757.358	6.86
757.669	8.57
757.98	8.92
758.291	5.01
758.601	5.76
758.912	5.86
759.223	6.97
759.533	5.47
759.844	5.14
760.154	7.96
760.464	5.28
760.775	7.41
761.085	5.67
761.395	7.08
761.705	6.35
762.016	5.06
762.326	6.29
762.636	6.79
762.945	4
763.255	5.53
763.565	5.77
763.875	7.72
764.185	5.39
764.494	6.65
764.804	6.63
765.113	6.31
765.423	6.56
765.732	6.85
766.042	6.86
766.351	7.29
766.66	6.46
766.97	7.17
767.279	7.72
767.588	5.41
767.897	6.91
768.206	7.58
768.515	5.83
768.824	7.87
769.133	5.73
769.441	6.41
769.75	6.95
770.059	6.47
770.367	5.58
770.676	7.6
770.984	5.08
771.293	5.44
771.601	3.65
771.91	5.42
772.218	6.88
772.526	6.37
772.834	8.42
773.142	8.38
773.45	7.83
773.758	5.96
774.066	7.82
774.374	5.94
774.682	5.42
774.99	6.63
775.298	6.88
775.605	9.1
775.913	5.43
776.22	7.84
776.528	4.43
776.835	4.73
777.143	8.88
777.45	4.56
777.757	6.3
778.065	8.1
778.372	4.35
778.679	7.27
778.986	6.19
779.293	4.66
779.6	7.43
779.907	8.01
780.214	7.06
780.52	8.03
780.827	4.14
781.134	7.06
781.44	8.43
781.747	5.96
782.053	6.11
782.36	5.51
782.666	5.75
782.973	4.18
783.279	6.28
783.585	7.88
783.891	7.34
784.197	4.23
784.503	4.08
784.809	7.47
785.115	4.27
785.421	8.24
785.727	-0.62
786.033	6.5
786.339	7.94
786.644	5.29
786.95	9.4
787.255	6.32
787.561	3.01
787.866	6.93
788.172	7.87
788.477	6.95
788.782	6.7
789.088	6.63
789.393	8.59
789.698	7.12
790.003	8.39
790.308	5.32
790.613	5.18
790.918	7.06
791.223	5.53
791.527	7.35
791.832	5.76
792.137	4.71
792.441	9.14
792.746	6.1
793.05	8.83
793.355	6
793.659	5.46
793.963	4.85
794.268	7.53
794.572	5.14
794.876	5.99
795.18	7.31
795.484	6.81
795.788	5.7
796.092	5.56
796.396	5.54
796.7	3.19
797.004	6.41
797.307	4.91
797.611	6.64
797.915	6.14
798.218	3.55
798.522	6.39
798.825	5.93
799.128	3.7
799.432	10.96
799.735	8.35
800.038	6.49
800.341	7.82
800.644	6.42
800.947	7.43
801.25	4.23
801.553	7.21
801.856	5.3
802.159	7.38
802.462	3.77
802.764	4.94
803.067	7.06
803.37	5.45
803.672	8.31
803.975	7.88
804.277	6.54
804.579	7.31
804.882	4.93
805.184	7.75
805.486	3.56
805.788	4.24
806.09	11.3
806.392	7.88
806.694	4.68
806.996	8.19
807.298	6.21
807.6	6.74
807.902	8.5
808.203	3.73
808.505	5.94
808.807	5.97
809.108	7.51
809.409	5.58
809.711	9.53
810.012	6.48
810.313	6.84
810.615	5.66
810.916	7.61
811.217	6.92
811.518	9.41
811.819	6.47
812.12	4.81
812.421	6
812.722	5.52
813.023	9.94
813.323	9.89
813.624	8.69
813.925	10.11
814.225	2.18
814.526	3.15
814.826	5.77
815.126	5.26
815.427	9.39
815.727	4.09
816.027	2.72
816.327	12.88
816.627	10.28
816.927	6.3
817.227	8.56
817.527	5.45
817.827	6.5
818.127	10.8
818.427	10.58
818.727	8.68
819.026	10.01
819.326	2.55
819.625	8.78
819.925	5.89
820.224	6.15
820.524	11.53
820.823	11.91
821.122	6.2
821.421	4.3
821.72	8.97
822.019	7.15
822.318	7.96
822.617	9.01
822.916	9.11
823.215	7.02
823.514	8.04
823.813	6.53
824.111	7.43
824.41	8.9
824.709	8.58
825.007	8.13
825.306	9.1
825.604	8.31
825.902	8.07
826.201	8.9
826.499	7.03
826.797	8.46
827.095	8.01
827.393	9.31
827.691	6.98
827.989	8.97
828.287	8.11
828.585	9.59
828.882	8.83
829.18	8.48
829.478	8.35
829.775	7.62
830.073	6.78
830.37	9.02
830.668	8.13
830.965	8.14
831.263	9.22
831.56	8.36
831.857	7.3
832.154	5.55
832.451	7.94
832.748	4.98
833.045	2.01
833.342	6.95
833.639	6.78
833.936	7.9
834.232	7.23
834.529	10.62
834.826	6.81
835.122	7.51
835.419	2.67
835.715	6.98
836.012	5.67
836.308	6.48
836.604	7.07
836.901	7.39
837.197	9.19
837.493	7.84
837.789	8.06
838.085	9.39
838.381	7.44
838.677	11.4
838.972	7.82
839.268	7.52
839.564	2.33
839.86	11.44
840.155	-0.27
840.451	11.68
840.746	10.44
841.042	7.28
841.337	-0.15
841.632	9.67
841.928	10.91
842.223	16.9
842.518	3.67
842.813	9.24
843.108	12.19
843.403	10.07
843.698	7.74
843.993	9.45
844.287	3.23
844.582	9.01
844.877	6.61
845.171	1.22
845.466	1.15
845.761	-1.9
846.055	0
846.349	9.8
846.644	10.21
846.938	8.34
847.232	0.08
847.526	-5.19
847.82	9.97
848.114	-17.97
848.408	9.88
848.702	-10.31
848.996	3.67
849.29	-7.17
849.584	9.8
849.877	0.18
850.171	-2.55
850.465	16.22
850.758	3.98
851.052	-3.16
851.345	1.55
851.638	10.47
851.932	7
852.225	-1.53
852.518	0.9
852.811	1.27
853.104	-0.36
853.397	-8.23
853.69	23.04
853.983	10.99
854.276	-5.35
854.569	2.28
854.861	-2.54
855.154	-20.9
855.447	-1.01
855.739	-6.1
856.032	18.77
856.324	-7.29
856.616	-6.44
856.909	-25.22
857.201	12.85
857.493	10.16
857.785	16.46
858.077	-1.53
858.369	-5.22
858.661	17.5
858.953	6.4
859.245	5.05
859.537	28.43
859.829	13.16
860.12	2.41
860.412	-7.85
860.703	0.06
860.995	7.24
861.286	5.79
861.578	26.62
861.869	-9.91
862.16	8.84
862.452	8.17
862.743	4.12
863.034	-6.15
863.325	3.85
863.616	4.23
863.907	2.22
864.198	2.55
864.488	-2.24
864.779	11.37
865.07	-2.91
865.36	-4.98
865.651	11.57
865.941	-13.06
866.232	17.19
866.522	-6.58
866.813	-3.57
867.103	-15.63
867.393	16.15
867.683	-22.02
867.973	2.14
868.263	-11.2
868.553	-11.47
868.843	-15.47
869.133	-4.32
869.423	-17.22
869.713	0.14
870.002	-0.15
870.292	-6.1
870.582	-2.76
870.871	5.28
871.161	12.65
871.45	6.28
871.739	4.36
872.029	9.21
872.318	-3.62
872.607	8.91
872.896	-2.01
873.185	8.9
873.474	-2.93
873.763	1.9
874.052	-10.3
874.341	3.41
874.63	-18.72
874.918	6.81
875.207	26.52
875.496	12.9
875.784	19.89
876.073	6.49
876.361	-18.44
876.649	-0.07
876.938	-27.4
877.226	20.76
877.514	-9.31
877.802	0.31
878.09	-16.81
878.378	5.04
878.666	8.94
878.954	13.92
879.242	3.15
879.53	-7.57
879.817	21.39
880.105	10.3
880.392	-20.98
880.68	22.49
880.967	1.21
881.255	9.54
881.542	-4.19
881.83	18.12
882.117	0.31
882.404	10.75
882.691	-10.65
882.978	14.73
883.265	13.14
883.552	1.94
883.839	1.94
884.126	17.32
884.413	4.79
884.699	7.47
884.986	3.94
885.273	12.97
885.559	12.97
885.846	12.97
