Data from 0027_chest_Reflection__1__92.txt Node

Date: Thu Oct 20 21:41:04 CDT 2022
User: ToomeyLab
Spectrometer: FLMS14357
Trigger mode: 0
Integration Time (sec): 1.000000E-2
Scans to average: 100
Electric dark correction enabled: true
Nonlinearity correction enabled: false
Boxcar width: 0
XAxis mode: Wavelengths
Number of Pixels in Spectrum: 2048
>>>>>Begin Spectral Data<<<<<
189.047	-39.93
189.435	-39.93
189.823	-39.93
190.211	-6.84
190.599	5.48
190.987	-268.22
191.375	36.09
191.763	106.58
192.151	121.87
192.538	62.21
192.926	139
193.314	68.86
193.702	-68
194.089	49.04
194.477	11.57
194.864	-260.3
195.252	173.63
195.639	23.08
196.027	-182.29
196.414	71.8
196.801	250.18
197.189	19.4
197.576	575.31
197.963	-393.22
198.351	25.88
198.738	-41.64
199.125	-21.5
199.512	35.75
199.899	-23.44
200.286	-26.65
200.673	9.93
201.06	17.52
201.447	18.34
201.833	7.89
202.22	12.04
202.607	-13.16
202.994	24.89
203.38	-28.12
203.767	15.1
204.154	33.84
204.54	-18.57
204.927	-13.25
205.313	47.87
205.699	-12.59
206.086	-18.9
206.472	4.38
206.858	-6.79
207.245	0.58
207.631	13.94
208.017	-18.82
208.403	-20.82
208.789	-2.73
209.175	11.27
209.561	10.2
209.947	-1.48
210.333	20.48
210.719	15.82
211.105	16.62
211.491	-71.49
211.876	-22.31
212.262	6.27
212.648	11.58
213.034	-6.53
213.419	-14.11
213.805	-6.99
214.19	-18.69
214.576	-36.44
214.961	-28.12
215.346	-23.36
215.732	-10.03
216.117	-48.59
216.502	-15.28
216.888	-27.77
217.273	-19.76
217.658	3.43
218.043	-5.52
218.428	-16.79
218.813	17.5
219.198	-1.5
219.583	-15.39
219.968	20.23
220.353	2.08
220.738	-1.27
221.122	12.38
221.507	-12.42
221.892	-9.92
222.276	-5.55
222.661	14.01
223.046	11.8
223.43	1.04
223.815	1.77
224.199	-9.95
224.583	7.06
224.968	5.23
225.352	7.52
225.736	1.49
226.121	-0.89
226.505	1.19
226.889	-0.62
227.273	-0.7
227.657	1
228.041	0.89
228.425	-1.61
228.809	1.32
229.193	3.03
229.577	0.09
229.961	0.8
230.344	0.8
230.728	0.97
231.112	1.6
231.495	-0.01
231.879	3
232.263	2.71
232.646	1.37
233.03	-0.05
233.413	-0.93
233.797	0.9
234.18	-0.4
234.563	-0.66
234.946	2.02
235.33	0.63
235.713	0.73
236.096	0.61
236.479	2.45
236.862	3.06
237.245	1.28
237.628	1.84
238.011	1.7
238.394	2.27
238.777	2.31
239.16	-0.3
239.543	-0.45
239.925	0.52
240.308	2.04
240.691	1.69
241.073	1.1
241.456	1.15
241.838	1.04
242.221	0.72
242.603	1.31
242.986	1.12
243.368	1.25
243.75	1.82
244.133	1.54
244.515	1.45
244.897	1.4
245.279	0.45
245.661	1.09
246.043	1.41
246.425	1.35
246.807	1.91
247.189	1.63
247.571	1.34
247.953	1.36
248.335	1.43
248.717	1.33
249.098	1.62
249.48	1.63
249.862	1.43
250.243	1
250.625	1.77
251.006	1.39
251.388	1.84
251.769	1.31
252.151	1.35
252.532	0.22
252.913	1.15
253.295	1.69
253.676	1.52
254.057	0.51
254.438	1.29
254.819	1.57
255.2	1.78
255.581	1.93
255.962	2.24
256.343	0.41
256.724	1.8
257.105	1.22
257.486	1.51
257.867	1.83
258.247	1.52
258.628	1.15
259.009	-0.03
259.389	0.77
259.77	0.94
260.15	1.37
260.531	1.59
260.911	1.15
261.292	1.36
261.672	1.54
262.052	1.27
262.432	1.7
262.813	0.77
263.193	1.89
263.573	1.69
263.953	1.38
264.333	1.05
264.713	1.14
265.093	1.28
265.473	0.99
265.853	1.77
266.233	1.36
266.612	1.56
266.992	0.96
267.372	1.84
267.752	1.39
268.131	1.87
268.511	1.45
268.89	1.4
269.27	1.36
269.649	1.21
270.029	1.02
270.408	1.3
270.787	1.58
271.167	1.71
271.546	1.01
271.925	1.75
272.304	1.34
272.683	1.51
273.062	1.05
273.441	1.43
273.82	1.93
274.199	1.11
274.578	0.94
274.957	0.98
275.336	1.66
275.715	1.22
276.093	1.64
276.472	1.86
276.851	1.58
277.229	1.01
277.608	0.92
277.986	1.31
278.365	1.46
278.743	0.93
279.122	1.27
279.5	1.07
279.878	1.32
280.257	1.06
280.635	1.48
281.013	1.19
281.391	1.85
281.769	1.5
282.147	0.89
282.525	0.9
282.903	1.27
283.281	0.98
283.659	0.6
284.037	1.06
284.415	1.8
284.792	1.09
285.17	1.72
285.548	1.17
285.925	1.14
286.303	1.15
286.68	1.55
287.058	1.54
287.435	1.01
287.813	1.32
288.19	1.26
288.567	1.24
288.945	1.3
289.322	0.98
289.699	1.08
290.076	1.65
290.453	1.15
290.83	1.2
291.207	1.59
291.584	1.01
291.961	1.07
292.338	1.03
292.715	1.09
293.092	1.61
293.469	1.51
293.845	1.53
294.222	1.29
294.599	1.89
294.975	1.28
295.352	1.42
295.728	1.49
296.105	1.66
296.481	0.72
296.858	1.62
297.234	1.72
297.61	1.54
297.986	1.03
298.363	1.22
298.739	1.22
299.115	1.26
299.491	1.38
299.867	0.9
300.243	1.48
300.619	1.41
300.995	1.34
301.371	1.52
301.746	1.5
302.122	1.52
302.498	1.98
302.874	1.94
303.249	1.43
303.625	1.3
304	1.66
304.376	1.14
304.751	1.5
305.127	1.24
305.502	1.74
305.878	1.59
306.253	1.19
306.628	1.66
307.003	1.36
307.378	0.59
307.754	1.45
308.129	1.34
308.504	1.25
308.879	1.33
309.254	1.43
309.629	1.48
310.003	1.32
310.378	1.42
310.753	1.68
311.128	1.22
311.502	1.37
311.877	1.59
312.252	1.37
312.626	1.25
313.001	1.54
313.375	1.71
313.75	1.64
314.124	1.61
314.498	1.42
314.873	1.35
315.247	1.3
315.621	1.14
315.995	1.11
316.369	1.64
316.743	1.04
317.117	1.9
317.491	1.75
317.865	1.53
318.239	1.48
318.613	2.13
318.987	1.55
319.361	1.8
319.734	1.27
320.108	1.97
320.482	1.45
320.855	1.35
321.229	1.56
321.602	1.15
321.976	1.39
322.349	2.03
322.723	2.22
323.096	1.95
323.469	1.84
323.843	1.87
324.216	1.2
324.589	2.1
324.962	1.65
325.335	1.97
325.708	1.35
326.081	1.58
326.454	1.24
326.827	1.52
327.2	1.86
327.573	1.5
327.945	1.26
328.318	1.41
328.691	1.74
329.063	2.14
329.436	1.09
329.809	1.77
330.181	1.48
330.553	1.49
330.926	1.7
331.298	0.94
331.671	1.67
332.043	1.74
332.415	1.51
332.787	1.67
333.159	1.62
333.532	1.55
333.904	1.74
334.276	1.79
334.648	1.46
335.02	1.22
335.391	1.66
335.763	1.66
336.135	2.05
336.507	0.99
336.879	2.16
337.25	1.55
337.622	1.81
337.993	1.24
338.365	1.7
338.736	1.97
339.108	1.38
339.479	1.72
339.851	1.58
340.222	1.43
340.593	1.58
340.964	1.65
341.336	1.72
341.707	1.38
342.078	1.69
342.449	1.7
342.82	1.8
343.191	1.73
343.562	1.64
343.933	1.6
344.303	1.8
344.674	1.77
345.045	1.89
345.416	1.77
345.786	1.6
346.157	1.66
346.527	1.62
346.898	1.61
347.268	1.55
347.639	1.74
348.009	1.74
348.38	2.12
348.75	1.23
349.12	1.96
349.49	1.65
349.861	1.75
350.231	1.44
350.601	1.99
350.971	1.83
351.341	1.99
351.711	2.03
352.081	1.51
352.45	1.48
352.82	1.31
353.19	1.9
353.56	1.53
353.929	1.61
354.299	2.13
354.669	1.7
355.038	1.63
355.408	1.47
355.777	2.03
356.147	1.8
356.516	1.78
356.885	1.62
357.254	1.84
357.624	1.65
357.993	1.79
358.362	1.88
358.731	1.87
359.1	1.45
359.469	1.88
359.838	1.74
360.207	2.27
360.576	1.67
360.945	1.97
361.314	1.65
361.682	1.66
362.051	1.87
362.42	1.71
362.788	1.86
363.157	1.68
363.525	1.84
363.894	1.85
364.262	2
364.631	1.66
364.999	1.93
365.367	1.96
365.735	2
366.104	1.43
366.472	1.63
366.84	1.99
367.208	1.69
367.576	1.77
367.944	1.97
368.312	1.61
368.68	2.22
369.048	1.41
369.416	1.72
369.783	1.58
370.151	2.14
370.519	1.87
370.886	1.9
371.254	2.01
371.621	1.72
371.989	1.92
372.356	1.95
372.724	2.09
373.091	1.83
373.458	1.63
373.826	1.79
374.193	1.86
374.56	1.22
374.927	1.47
375.294	1.58
375.661	2.28
376.028	2.03
376.395	1.94
376.762	1.7
377.129	1.62
377.496	1.57
377.863	1.79
378.229	1.6
378.596	1.74
378.963	1.94
379.329	2.1
379.696	1.79
380.062	1.71
380.429	1.98
380.795	1.86
381.161	2.12
381.528	1.79
381.894	1.93
382.26	1.65
382.626	1.99
382.993	1.85
383.359	1.97
383.725	2
384.091	1.75
384.457	1.58
384.823	1.82
385.188	2.15
385.554	1.41
385.92	1.83
386.286	1.99
386.651	1.62
387.017	1.87
387.383	2
387.748	2.07
388.114	1.86
388.479	1.96
388.845	2.07
389.21	1.98
389.575	1.7
389.94	1.86
390.306	2.02
390.671	2.06
391.036	1.89
391.401	1.82
391.766	2.03
392.131	2.03
392.496	1.84
392.861	1.9
393.226	1.74
393.591	2.01
393.956	1.8
394.32	1.95
394.685	1.99
395.05	1.91
395.414	1.94
395.779	1.88
396.143	1.81
396.508	1.85
396.872	2.17
397.236	1.78
397.601	1.95
397.965	2.15
398.329	1.86
398.694	1.96
399.058	1.76
399.422	2.09
399.786	1.71
400.15	1.96
400.514	2.06
400.878	1.83
401.242	2.13
401.605	2.1
401.969	2.07
402.333	1.95
402.697	2.11
403.06	1.94
403.424	2.08
403.787	2.08
404.151	1.88
404.514	1.93
404.878	1.96
405.241	1.92
405.604	2.01
405.968	1.88
406.331	1.96
406.694	1.76
407.057	2.08
407.42	2.04
407.783	2.04
408.146	2.07
408.509	2
408.872	2.21
409.235	1.9
409.598	2.06
409.961	2.08
410.323	2.24
410.686	2.13
411.049	2.09
411.411	1.85
411.774	1.86
412.136	1.83
412.499	1.98
412.861	2.1
413.223	1.91
413.586	1.85
413.948	1.98
414.31	2.02
414.672	1.98
415.035	1.92
415.397	1.94
415.759	1.92
416.121	2.16
416.483	1.94
416.845	2.13
417.206	1.79
417.568	2.13
417.93	1.96
418.292	2.06
418.653	2
419.015	2.02
419.377	2.04
419.738	2.01
420.1	1.94
420.461	2.01
420.822	1.96
421.184	1.89
421.545	1.99
421.906	1.92
422.267	1.96
422.629	1.93
422.99	1.92
423.351	1.92
423.712	1.94
424.073	2.09
424.434	1.93
424.795	1.97
425.155	1.9
425.516	1.92
425.877	1.97
426.238	2.04
426.598	1.99
426.959	1.96
427.32	2.01
427.68	2.05
428.041	2.01
428.401	2.1
428.761	1.93
429.122	1.91
429.482	2.04
429.842	2.06
430.202	2.08
430.563	2.05
430.923	2.19
431.283	1.98
431.643	2.15
432.003	2.02
432.363	2.26
432.722	2.2
433.082	2.07
433.442	2.1
433.802	2.13
434.161	2
434.521	2.03
434.881	2.06
435.24	1.91
435.6	1.91
435.959	2.03
436.319	2.11
436.678	2.01
437.037	2.16
437.396	2.17
437.756	2.1
438.115	2.18
438.474	2.01
438.833	2.21
439.192	2.07
439.551	1.94
439.91	2.1
440.269	2.03
440.628	2.02
440.987	2.07
441.345	2.06
441.704	2.03
442.063	2.19
442.421	1.95
442.78	2.04
443.138	2.08
443.497	2.03
443.855	2
444.214	2.12
444.572	2.21
444.93	2.06
445.288	2.03
445.647	1.97
446.005	2.03
446.363	2.1
446.721	2.01
447.079	2.03
447.437	1.93
447.795	1.96
448.153	2.07
448.51	2
448.868	1.97
449.226	2.06
449.584	2.08
449.941	2.19
450.299	2.15
450.656	2.04
451.014	1.99
451.371	2.11
451.729	2.12
452.086	2.2
452.443	2.03
452.801	2.25
453.158	2.17
453.515	2.25
453.872	1.98
454.229	2.05
454.586	2.18
454.943	1.92
455.3	2.1
455.657	2.08
456.014	2.21
456.371	2.08
456.727	2.15
457.084	1.92
457.441	2.2
457.797	2.02
458.154	2.22
458.51	2.02
458.867	2.23
459.223	2.23
459.58	2.1
459.936	2.1
460.292	2.03
460.648	2.03
461.005	2
461.361	2.06
461.717	2.11
462.073	2.17
462.429	2.15
462.785	2.28
463.141	2.23
463.496	2.24
463.852	2.11
464.208	2.29
464.564	2.29
464.919	2.29
465.275	2.25
465.631	2.17
465.986	2.23
466.342	2.05
466.697	2.25
467.052	2.2
467.408	2.3
467.763	2.12
468.118	2.27
468.473	2.42
468.829	2.12
469.184	2.23
469.539	2.15
469.894	2.16
470.249	2.17
470.603	2.16
470.958	2.23
471.313	2.27
471.668	2.12
472.023	2.23
472.377	2.24
472.732	2.16
473.086	2.11
473.441	2.28
473.795	2.14
474.15	2.18
474.504	2.1
474.859	2.28
475.213	2.27
475.567	2.37
475.921	2.1
476.275	2.44
476.63	2.46
476.984	2.3
477.338	2.2
477.692	2.14
478.045	2.18
478.399	2.21
478.753	2.18
479.107	2.21
479.461	2.23
479.814	2.29
480.168	2.25
480.521	2.29
480.875	2.35
481.228	2.25
481.582	2.16
481.935	2.27
482.289	2.16
482.642	1.98
482.995	2.27
483.348	2.27
483.701	2.16
484.055	2.15
484.408	2.1
484.761	2.05
485.114	1.96
485.466	1.97
485.819	2.04
486.172	2.13
486.525	2.19
486.878	2.18
487.23	2.24
487.583	2.16
487.936	2.17
488.288	2.11
488.641	2.12
488.993	2.13
489.345	2.1
489.698	2.15
490.05	2.17
490.402	2.27
490.754	2.28
491.107	2.26
491.459	2.33
491.811	2.24
492.163	2.19
492.515	2.1
492.866	2.13
493.218	2.13
493.57	2.15
493.922	2.18
494.274	2.28
494.625	2.29
494.977	2.29
495.328	2.29
495.68	2.22
496.031	2.28
496.383	2.41
496.734	2.35
497.086	2.27
497.437	2.37
497.788	2.41
498.139	2.19
498.49	2.27
498.842	2.24
499.193	2.36
499.544	2.33
499.894	2.34
500.245	2.3
500.596	2.29
500.947	2.27
501.298	2.44
501.648	2.34
501.999	2.44
502.35	2.37
502.7	2.42
503.051	2.53
503.401	2.47
503.752	2.34
504.102	2.28
504.452	2.42
504.803	2.22
505.153	2.34
505.503	2.5
505.853	2.36
506.203	2.41
506.553	2.41
506.903	2.47
507.253	2.4
507.603	2.42
507.953	2.48
508.303	2.48
508.652	2.32
509.002	2.36
509.352	2.4
509.701	2.34
510.051	2.33
510.4	2.31
510.75	2.32
511.099	2.26
511.449	2.38
511.798	2.38
512.147	2.47
512.496	2.56
512.846	2.49
513.195	2.47
513.544	2.34
513.893	2.46
514.242	2.37
514.591	2.47
514.939	2.43
515.288	2.56
515.637	2.48
515.986	2.46
516.334	2.45
516.683	2.54
517.032	2.57
517.38	2.44
517.729	2.54
518.077	2.47
518.426	2.48
518.774	2.5
519.122	2.44
519.47	2.32
519.819	2.41
520.167	2.42
520.515	2.45
520.863	2.4
521.211	2.51
521.559	2.48
521.907	2.44
522.255	2.52
522.602	2.51
522.95	2.6
523.298	2.54
523.645	2.64
523.993	2.48
524.341	2.55
524.688	2.58
525.036	2.6
525.383	2.62
525.73	2.55
526.078	2.55
526.425	2.49
526.772	2.5
527.119	2.42
527.466	2.51
527.814	2.48
528.161	2.52
528.508	2.57
528.854	2.53
529.201	2.49
529.548	2.4
529.895	2.3
530.242	2.37
530.588	2.4
530.935	2.47
531.282	2.49
531.628	2.6
531.975	2.6
532.321	2.61
532.667	2.6
533.014	2.69
533.36	2.55
533.706	2.6
534.052	2.58
534.399	2.55
534.745	2.5
535.091	2.52
535.437	2.6
535.783	2.56
536.129	2.61
536.474	2.74
536.82	2.69
537.166	2.67
537.512	2.62
537.857	2.56
538.203	2.65
538.549	2.58
538.894	2.68
539.239	2.73
539.585	2.8
539.93	2.85
540.276	2.83
540.621	2.82
540.966	2.77
541.311	2.73
541.656	2.73
542.001	2.64
542.346	2.65
542.691	2.56
543.036	2.52
543.381	2.65
543.726	2.64
544.071	2.72
544.415	2.8
544.76	2.63
545.105	2.77
545.449	2.76
545.794	2.83
546.138	2.93
546.483	2.85
546.827	2.93
547.171	2.78
547.516	2.78
547.86	2.93
548.204	2.84
548.548	2.79
548.892	2.88
549.236	2.92
549.58	3.05
549.924	2.91
550.268	2.89
550.612	3.04
550.956	3.03
551.3	3.1
551.643	2.98
551.987	3.03
552.33	3
552.674	3.02
553.017	2.95
553.361	3.19
553.704	3.08
554.048	3.04
554.391	3.06
554.734	3.03
555.077	3.04
555.42	3.11
555.764	3.1
556.107	3.08
556.45	2.97
556.793	3.09
557.135	3.27
557.478	3.07
557.821	3.15
558.164	3.12
558.507	3.12
558.849	3.28
559.192	3.41
559.534	3.34
559.877	3.22
560.219	3.42
560.562	3.28
560.904	3.17
561.246	3.19
561.589	3.31
561.931	2.99
562.273	3.28
562.615	3.32
562.957	3.21
563.299	3.27
563.641	3.35
563.983	3.58
564.325	3.52
564.667	3.29
565.008	3.32
565.35	3.46
565.692	3.34
566.033	3.24
566.375	3.49
566.716	3.33
567.058	3.36
567.399	3.42
567.741	3.33
568.082	3.44
568.423	3.49
568.764	3.3
569.105	3.51
569.447	3.52
569.788	3.61
570.129	3.44
570.47	3.52
570.811	3.29
571.151	3.47
571.492	3.22
571.833	3.61
572.174	3.45
572.514	3.64
572.855	3.65
573.195	3.47
573.536	3.51
573.876	3.35
574.217	3.47
574.557	3.59
574.898	3.59
575.238	3.84
575.578	3.51
575.918	3.66
576.258	3.61
576.598	3.64
576.938	3.63
577.278	3.72
577.618	3.83
577.958	3.63
578.298	3.77
578.638	3.73
578.977	3.91
579.317	3.74
579.657	3.78
579.996	3.9
580.336	3.95
580.675	4.22
581.014	3.82
581.354	3.74
581.693	3.95
582.032	3.87
582.372	4.02
582.711	3.79
583.05	4.06
583.389	3.9
583.728	4.08
584.067	4.08
584.406	3.96
584.745	3.9
585.083	3.96
585.422	4.2
585.761	4.2
586.1	4.16
586.438	4.29
586.777	4
587.115	4.06
587.454	4.19
587.792	4.2
588.13	4.17
588.469	4.5
588.807	4.22
589.145	4.35
589.483	4.24
589.821	4.08
590.159	4.13
590.497	4.21
590.835	4.03
591.173	4.31
591.511	4.21
591.849	4.27
592.187	4.24
592.524	4.5
592.862	4.26
593.2	4.66
593.537	4.34
593.875	4.38
594.212	4.51
594.55	4.44
594.887	4.14
595.224	4.47
595.561	4.35
595.899	4.8
596.236	4.42
596.573	4.67
596.91	4.55
597.247	4.56
597.584	4.46
597.921	4.39
598.258	4.37
598.594	4.36
598.931	4.44
599.268	4.55
599.604	4.49
599.941	4.83
600.277	4.52
600.614	4.59
600.95	4.66
601.287	4.73
601.623	4.6
601.959	4.56
602.296	4.48
602.632	4.39
602.968	4.88
603.304	4.57
603.64	4.89
603.976	4.58
604.312	4.85
604.648	4.69
604.984	4.69
605.319	4.74
605.655	4.69
605.991	4.71
606.326	4.75
606.662	4.85
606.998	5.07
607.333	4.81
607.668	4.76
608.004	4.87
608.339	5.07
608.674	5.06
609.01	5.23
609.345	4.95
609.68	4.57
610.015	5.12
610.35	5.16
610.685	4.84
611.02	4.93
611.355	4.87
611.689	5.08
612.024	5.13
612.359	5.01
612.694	5.04
613.028	5.03
613.363	5.16
613.697	5.33
614.032	5.51
614.366	5.31
614.7	5.15
615.035	5.2
615.369	5.34
615.703	5.3
616.037	5.52
616.371	5.2
616.705	5.13
617.039	5.24
617.373	5.25
617.707	5.39
618.041	5.19
618.375	5.42
618.709	5.3
619.042	5.41
619.376	5.59
619.71	5.42
620.043	5.54
620.377	5.47
620.71	5.42
621.043	5.64
621.377	5.22
621.71	5.66
622.043	5.62
622.376	5.89
622.709	6.11
623.043	5.61
623.376	5.94
623.709	5.71
624.041	5.67
624.374	5.68
624.707	5.59
625.04	6.29
625.373	5.86
625.705	5.76
626.038	6.12
626.37	5.64
626.703	5.78
627.035	6.03
627.368	5.9
627.7	5.79
628.032	5.94
628.365	5.75
628.697	5.96
629.029	5.97
629.361	6.17
629.693	6.41
630.025	6.01
630.357	6.2
630.689	5.96
631.021	6.17
631.353	5.96
631.684	6.23
632.016	5.98
632.348	6.32
632.679	5.81
633.011	6.61
633.342	6.02
633.674	6.17
634.005	6.36
634.336	6.01
634.668	6.57
634.999	6.13
635.33	6.45
635.661	6.29
635.992	6.36
636.323	6.9
636.654	6.28
636.985	6.4
637.316	6.29
637.647	6.28
637.977	6.85
638.308	6.47
638.639	6.91
638.969	6.27
639.3	6.31
639.63	6.81
639.961	6.63
640.291	6.44
640.622	7.24
640.952	7.14
641.282	7.05
641.612	6.82
641.943	6.68
642.273	6.89
642.603	6.57
642.933	6.73
643.263	6.89
643.592	6.53
643.922	7.1
644.252	7.04
644.582	6.54
644.911	7.16
645.241	6.85
645.571	6.85
645.9	7.2
646.23	7.01
646.559	7.48
646.888	7.01
647.218	6.73
647.547	6.86
647.876	6.64
648.205	6.92
648.534	7.02
648.863	7.32
649.192	7.06
649.521	7.2
649.85	7.18
650.179	7.02
650.508	7.23
650.837	7.42
651.165	6.84
651.494	7.16
651.822	7.36
652.151	7.18
652.479	7.02
652.808	6.98
653.136	7.06
653.465	7.82
653.793	7.52
654.121	7.62
654.449	7.66
654.777	7.63
655.105	7.8
655.433	7.33
655.761	7.57
656.089	7.45
656.417	7.59
656.745	8.03
657.073	7.54
657.4	7.51
657.728	7.49
658.056	7.65
658.383	7.57
658.711	7.73
659.038	7.79
659.365	7.52
659.693	7.52
660.02	7.72
660.347	7.79
660.674	7.83
661.001	7.59
661.329	7.79
661.656	7.67
661.982	8
662.309	7.88
662.636	8.07
662.963	7.79
663.29	8.09
663.616	8.35
663.943	7.95
664.27	8.76
664.596	7.99
664.923	7.9
665.249	7.99
665.576	8.53
665.902	8.11
666.228	8.26
666.554	8.19
666.881	8.1
667.207	7.96
667.533	8.44
667.859	8.42
668.185	8.55
668.511	8.07
668.837	8.19
669.162	8.81
669.488	8.19
669.814	8.55
670.139	8.39
670.465	8.03
670.791	8.47
671.116	8.47
671.442	8.42
671.767	8.68
672.092	8.26
672.418	8.55
672.743	8.63
673.068	8.36
673.393	8.24
673.718	7.95
674.043	8.52
674.368	8.22
674.693	8.99
675.018	8.64
675.343	8.23
675.667	8.63
675.992	8.89
676.317	8.71
676.641	9.49
676.966	8.58
677.29	8.61
677.615	9.25
677.939	8.44
678.264	8.5
678.588	8.49
678.912	8.56
679.236	9.29
679.56	8.79
679.885	8.68
680.209	8.66
680.532	9.14
680.856	9.53
681.18	9.12
681.504	8.55
681.828	8.93
682.152	9.72
682.475	8.77
682.799	9.36
683.122	9.16
683.446	8.63
683.769	9.54
684.093	9.24
684.416	8.96
684.739	9.37
685.062	9.73
685.386	9.4
685.709	9.58
686.032	9.46
686.355	8.93
686.678	9.22
687.001	9.4
687.324	10.07
687.646	8.95
687.969	9.23
688.292	9.84
688.614	9.61
688.937	9.26
689.26	9.08
689.582	9.01
689.904	9.16
690.227	9.51
690.549	10.24
690.871	9.4
691.194	9.95
691.516	9.36
691.838	9.79
692.16	9.42
692.482	9.82
692.804	9.53
693.126	9.73
693.448	9.26
693.769	10.2
694.091	10.03
694.413	9.68
694.735	9.64
695.056	9.52
695.378	10.31
695.699	10.2
696.021	9.78
696.342	10.06
696.663	10.35
696.984	10.11
697.306	10.26
697.627	10.78
697.948	10.03
698.269	10.37
698.59	9.86
698.911	9.49
699.232	10.62
699.553	10.08
699.873	10.03
700.194	9.98
700.515	10.04
700.835	9.92
701.156	10.03
701.477	10.13
701.797	10.34
702.117	10.11
702.438	9.96
702.758	10.16
703.078	10.29
703.398	11.16
703.719	10.44
704.039	10.61
704.359	11.81
704.679	10.16
704.999	10.59
705.319	11
705.638	9.57
705.958	10.51
706.278	11.14
706.597	10.55
706.917	10.27
707.237	9.86
707.556	11.56
707.876	10.88
708.195	10.91
708.514	11.13
708.834	10.48
709.153	10.76
709.472	10.92
709.791	10.42
710.11	10.18
710.429	11.29
710.748	11.27
711.067	10.53
711.386	10.67
711.705	10.99
712.023	10.3
712.342	10.61
712.661	10.36
712.979	10.96
713.298	11.13
713.616	10.87
713.935	11.86
714.253	11.21
714.572	11.98
714.89	11.05
715.208	11.51
715.526	10.97
715.844	11.6
716.162	11.27
716.48	11.47
716.798	11.56
717.116	11.74
717.434	11.41
717.752	11.72
718.069	12
718.387	10.53
718.705	11.52
719.022	10.52
719.34	11.88
719.657	11.22
719.975	11.8
720.292	10.27
720.609	11.5
720.927	12.01
721.244	11.26
721.561	12.11
721.878	12.53
722.195	11.19
722.512	12.13
722.829	11.61
723.146	11.63
723.463	12.1
723.779	11
724.096	10.7
724.413	12.77
724.729	11.94
725.046	13.05
725.362	13.46
725.679	12.07
725.995	12.2
726.311	13.06
726.628	12.91
726.944	11.79
727.26	12.82
727.576	12.68
727.892	11.62
728.208	11.63
728.524	12.04
728.84	10.19
729.156	12.98
729.472	12.06
729.787	12.73
730.103	13.01
730.419	12.3
730.734	12.69
731.05	11.44
731.365	12.6
731.681	12.19
731.996	13.47
732.311	11.92
732.626	12.07
732.942	12.93
733.257	11.81
733.572	12.61
733.887	12.87
734.202	12.66
734.517	12.66
734.832	11.84
735.146	12.23
735.461	11.9
735.776	12.92
736.091	11.81
736.405	12.82
736.72	11.5
737.034	13.56
737.349	13.86
737.663	13.76
737.977	11.56
738.292	12.51
738.606	11.39
738.92	13.87
739.234	13.1
739.548	13.33
739.862	12.83
740.176	13.51
740.49	13.12
740.804	13.36
741.117	13.74
741.431	12.42
741.745	15.11
742.058	12.91
742.372	13.41
742.685	12.61
742.999	10.68
743.312	13.96
743.626	12.87
743.939	13.94
744.252	13.84
744.565	13.83
744.878	13.94
745.191	14.43
745.505	13.5
745.817	13.89
746.13	14.59
746.443	15.21
746.756	11.45
747.069	15.97
747.381	12.7
747.694	13.23
748.007	13.35
748.319	13.77
748.632	14.82
748.944	14.27
749.256	13.22
749.569	13.64
749.881	13.74
750.193	13.98
750.505	13.01
750.817	14.13
751.129	14
751.441	14.32
751.753	14.21
752.065	13.01
752.377	14.72
752.689	13.77
753	15.02
753.312	13.99
753.624	14.3
753.935	13.72
754.247	13.83
754.558	15.06
754.869	15.28
755.181	13.39
755.492	14.25
755.803	14.93
756.114	15.21
756.425	14.98
756.736	13.93
757.047	12.61
757.358	15.43
757.669	15.87
757.98	15.49
758.291	13.89
758.601	14.16
758.912	13.17
759.223	16.05
759.533	13.96
759.844	14.75
760.154	15.27
760.464	12.48
760.775	15.29
761.085	12.79
761.395	14.52
761.705	14.83
762.016	13.86
762.326	13.58
762.636	14.93
762.945	14.04
763.255	13.6
763.565	14.37
763.875	14.92
764.185	14.05
764.494	15.91
764.804	14.25
765.113	14.6
765.423	15.41
765.732	14.98
766.042	15.22
766.351	15.02
766.66	15.27
766.97	15.49
767.279	17.13
767.588	14.91
767.897	13.71
768.206	16.59
768.515	14.67
768.824	15.32
769.133	15.92
769.441	15.25
769.75	15.06
770.059	14.4
770.367	16.49
770.676	13.95
770.984	15.39
771.293	15.15
771.601	14.48
771.91	15.15
772.218	15.25
772.526	16.62
772.834	16.62
773.142	15.97
773.45	16.63
773.758	16.14
774.066	15.93
774.374	16.69
774.682	16.65
774.99	14.84
775.298	17.16
775.605	17.73
775.913	13.44
776.22	16.07
776.528	15.05
776.835	14.52
777.143	19.31
777.45	14.64
777.757	15.54
778.065	15.06
778.372	12.25
778.679	16.86
778.986	16.67
779.293	14.22
779.6	15.72
779.907	16.19
780.214	19.79
780.52	18.02
780.827	15.6
781.134	13.94
781.44	15.6
781.747	16.54
782.053	12.64
782.36	17.49
782.666	12.75
782.973	13.53
783.279	17.85
783.585	16.59
783.891	17.15
784.197	13.49
784.503	15.73
784.809	17.8
785.115	14.36
785.421	16.93
785.727	13.77
786.033	17.45
786.339	17.06
786.644	14.71
786.95	20.32
787.255	15.49
787.561	12.58
787.866	16.93
788.172	16.18
788.477	17.02
788.782	15.3
789.088	14.91
789.393	20.32
789.698	18.26
790.003	18.43
790.308	14.62
790.613	15.94
790.918	16.23
791.223	15.78
791.527	15.51
791.832	17.81
792.137	18.74
792.441	20.08
792.746	17.2
793.05	18.4
793.355	18.09
793.659	15.55
793.963	15.89
794.268	18.22
794.572	16.81
794.876	18.92
795.18	17.17
795.484	15.13
795.788	16.65
796.092	14.87
796.396	15.77
796.7	17.25
797.004	17.9
797.307	16.34
797.611	14.47
797.915	16.62
798.218	15.07
798.522	14.88
798.825	18.93
799.128	15.13
799.432	17.81
799.735	20.39
800.038	16.9
800.341	18.9
800.644	18.12
800.947	21.11
801.25	18.38
801.553	15.21
801.856	20.19
802.159	16.73
802.462	17.91
802.764	17.5
803.067	18.29
803.37	17.75
803.672	16.24
803.975	19.16
804.277	17.78
804.579	19.33
804.882	13.89
805.184	17.16
805.486	18.4
805.788	20.09
806.09	17.59
806.392	17.36
806.694	16.51
806.996	18.47
807.298	16.15
807.6	18.4
807.902	19.05
808.203	16.45
808.505	16.9
808.807	19.82
809.108	18.12
809.409	19.37
809.711	19.85
810.012	18.93
810.313	17.75
810.615	16.86
810.916	17.81
811.217	19.77
811.518	20.73
811.819	19.53
812.12	17.5
812.421	19.88
812.722	20.09
813.023	18.24
813.323	20.83
813.624	22.36
813.925	19.46
814.225	16.82
814.526	19.81
814.826	22.14
815.126	19.54
815.427	16.46
815.727	16.58
816.027	16.9
816.327	19.62
816.627	19.97
816.927	15.04
817.227	20.2
817.527	19.52
817.827	17.29
818.127	20.72
818.427	21.29
818.727	19.18
819.026	24.92
819.326	17.33
819.625	22.3
819.925	22.21
820.224	18.24
820.524	20.31
820.823	16.23
821.122	15.32
821.421	16.24
821.72	21.33
822.019	17.34
822.318	21.58
822.617	22.39
822.916	22.28
823.215	18.23
823.514	19.42
823.813	19.66
824.111	20.76
824.41	20.83
824.709	20.68
825.007	20.08
825.306	20.2
825.604	20.29
825.902	19.79
826.201	21.51
826.499	19.54
826.797	20.38
827.095	20.59
827.393	19.84
827.691	20.54
827.989	21.65
828.287	21.26
828.585	22.71
828.882	22.57
829.18	20.92
829.478	19.97
829.775	20.14
830.073	20.46
830.37	21.22
830.668	22.19
830.965	21.42
831.263	21.59
831.56	21.08
831.857	21.51
832.154	17.99
832.451	22.29
832.748	21.48
833.045	15.89
833.342	17.15
833.639	24.43
833.936	18.2
834.232	25.57
834.529	18.39
834.826	21.05
835.122	20.93
835.419	20.91
835.715	19.4
836.012	19.23
836.308	18.45
836.604	21.58
836.901	20.33
837.197	19.33
837.493	21.32
837.789	19.33
838.085	24.61
838.381	19.81
838.677	22
838.972	22.14
839.268	22.67
839.564	20.33
839.86	20.32
840.155	15.28
840.451	26.53
840.746	21.54
841.042	24.87
841.337	11.71
841.632	25.61
841.928	21.72
842.223	25.89
842.518	16.69
842.813	20.41
843.108	30.7
843.403	21.61
843.698	16.93
843.993	22.3
844.287	26.11
844.582	18.84
844.877	23.01
845.171	24.7
845.466	12.36
845.761	16.86
846.055	14.73
846.349	24.87
846.644	28.39
846.938	18.4
847.232	13.94
847.526	12.4
847.82	18.28
848.114	4.25
848.408	15.8
848.702	10.71
848.996	20.46
849.29	10.49
849.584	33.22
849.877	31.94
850.171	3.53
850.465	25.06
850.758	32.35
851.052	23.02
851.345	27.72
851.638	17.08
851.932	16.95
852.225	10.7
852.518	16.48
852.811	21.7
853.104	21.52
853.397	13.56
853.69	26.76
853.983	30.06
854.276	-11.69
854.569	16.73
854.861	5.9
855.154	-0.53
855.447	28.67
855.739	11.77
856.032	11.59
856.324	32.38
856.616	12.09
856.909	5.95
857.201	32.36
857.493	26.54
857.785	25.82
858.077	19.23
858.369	11.86
858.661	32.2
858.953	6.71
859.245	7.59
859.537	27.79
859.829	30.92
860.12	12.9
860.412	28.31
860.703	30.49
860.995	22.42
861.286	27.13
861.578	41.4
861.869	15.45
862.16	17.88
862.452	20.95
862.743	40.32
863.034	-6.7
863.325	-4.26
863.616	23.02
863.907	22.84
864.198	2.91
864.488	18.07
864.779	14.06
865.07	21.28
865.36	8.54
865.651	41.53
865.941	1
866.232	36.02
866.522	-5.52
866.813	0.69
867.103	23.65
867.393	41.46
867.683	14.93
867.973	10.11
868.263	19.91
868.553	17.26
868.843	5
869.133	21.07
869.423	16.37
869.713	12.76
870.002	32.78
870.292	21.33
870.582	18.44
870.871	11.88
871.161	36.47
871.45	13.87
871.739	24.36
872.029	8.77
872.318	11.84
872.607	21.19
872.896	23
873.185	-5.89
873.474	21.12
873.763	23.35
874.052	5.66
874.341	38.95
874.63	-1.75
874.918	26.85
875.207	31.33
875.496	39.83
875.784	38.59
876.073	17.4
876.361	31.42
876.649	27.98
876.938	8.36
877.226	31.59
877.514	28.04
877.802	-1.96
878.09	36.23
878.378	13.89
878.666	43
878.954	22.18
879.242	39.2
879.53	9
879.817	8.64
880.105	19.33
880.392	7.25
880.68	34.26
880.967	34.94
881.255	23.75
881.542	23.71
881.83	35.32
882.117	1.89
882.404	30.16
882.691	7.46
882.978	31.31
883.265	23.72
883.552	6.74
883.839	20.35
884.126	31.85
884.413	23.04
884.699	25.5
884.986	23.16
885.273	26.25
885.559	26.25
885.846	26.25
