Data from 0027_forehead_Reflection__0__101.txt Node

Date: Thu Oct 20 21:44:11 CDT 2022
User: ToomeyLab
Spectrometer: FLMS14357
Trigger mode: 0
Integration Time (sec): 1.000000E-2
Scans to average: 100
Electric dark correction enabled: true
Nonlinearity correction enabled: false
Boxcar width: 0
XAxis mode: Wavelengths
Number of Pixels in Spectrum: 2048
>>>>>Begin Spectral Data<<<<<
189.047	89.22
189.435	89.22
189.823	89.22
190.211	-51.76
190.599	-21.98
190.987	-961.76
191.375	-11.64
191.763	219.96
192.151	142.65
192.538	201.11
192.926	123.42
193.314	142.6
193.702	-24.35
194.089	96.36
194.477	27.42
194.864	-192.51
195.252	137.17
195.639	258.84
196.027	18.65
196.414	21.24
196.801	-50.04
197.189	41.41
197.576	465.38
197.963	-312.96
198.351	31.13
198.738	7.29
199.125	0.17
199.512	30
199.899	-47.01
200.286	19.45
200.673	25.68
201.06	28.76
201.447	65.64
201.833	10.02
202.22	22.77
202.607	37.19
202.994	19.76
203.38	23.02
203.767	-8.54
204.154	38.51
204.54	-15.88
204.927	20.02
205.313	57.45
205.699	26.71
206.086	6.91
206.472	25.73
206.858	-5.65
207.245	6.43
207.631	22.97
208.017	31.8
208.403	-8.02
208.789	18.97
209.175	34.64
209.561	0.11
209.947	29.1
210.333	42.55
210.719	20.64
211.105	10.78
211.491	-62.71
211.876	-8.18
212.262	20.99
212.648	23.54
213.034	24.07
213.419	-3.48
213.805	7.96
214.19	-5.22
214.576	7.91
214.961	-5.87
215.346	20.71
215.732	9.01
216.117	30.03
216.502	2.54
216.888	19.3
217.273	6.24
217.658	15.08
218.043	21.82
218.428	33.55
218.813	24.91
219.198	21.69
219.583	22.58
219.968	29.03
220.353	20.07
220.738	21.42
221.122	32.78
221.507	22.54
221.892	11.28
222.276	7.77
222.661	17.16
223.046	23.33
223.43	12.23
223.815	11.92
224.199	5.61
224.583	16.1
224.968	10.02
225.352	17.14
225.736	16.11
226.121	3.44
226.505	9.56
226.889	4.89
227.273	4.67
227.657	6.21
228.041	5.46
228.425	6.85
228.809	9.98
229.193	6.48
229.577	5.27
229.961	5.93
230.344	4.89
230.728	4.91
231.112	5.91
231.495	5.99
231.879	7.96
232.263	5.98
232.646	5.61
233.03	5.11
233.413	4.8
233.797	4.49
234.18	7.25
234.563	6.44
234.946	5.51
235.33	5.8
235.713	6.03
236.096	4.42
236.479	7.33
236.862	5.43
237.245	5.6
237.628	5.39
238.011	7.27
238.394	5.71
238.777	5.64
239.16	4.61
239.543	5.33
239.925	4.85
240.308	4.96
240.691	8.22
241.073	4.41
241.456	6.57
241.838	4.62
242.221	4.85
242.603	5.25
242.986	5.61
243.368	5.53
243.75	5.31
244.133	5.33
244.515	5.51
244.897	5.29
245.279	5.17
245.661	6.53
246.043	6.64
246.425	6.66
246.807	6.3
247.189	5.38
247.571	5.81
247.953	5.38
248.335	5.33
248.717	5.01
249.098	4.9
249.48	5.32
249.862	5.04
250.243	5.36
250.625	5.93
251.006	5.92
251.388	5.52
251.769	6.28
252.151	6.46
252.532	4.83
252.913	5.68
253.295	5.25
253.676	5.06
254.057	4.25
254.438	5.46
254.819	6.09
255.2	6.25
255.581	5.56
255.962	5.49
256.343	5.75
256.724	5.75
257.105	6.43
257.486	5.95
257.867	6.25
258.247	6.08
258.628	6.02
259.009	5.67
259.389	5.59
259.77	5.65
260.15	5.49
260.531	5.34
260.911	5.45
261.292	5.37
261.672	4.97
262.052	5.24
262.432	5.69
262.813	5.22
263.193	5.52
263.573	5.69
263.953	5.13
264.333	5.56
264.713	5.42
265.093	5.22
265.473	5.14
265.853	6.38
266.233	6.31
266.612	6.01
266.992	4.96
267.372	5.66
267.752	5.61
268.131	5.49
268.511	5.9
268.89	5.3
269.27	5.63
269.649	4.94
270.029	5.32
270.408	4.89
270.787	5.12
271.167	5.18
271.546	4.89
271.925	5.72
272.304	5.53
272.683	5.25
273.062	5.32
273.441	5.25
273.82	5.6
274.199	4.84
274.578	5.02
274.957	5.17
275.336	5.31
275.715	5.9
276.093	6.24
276.472	5.63
276.851	5.58
277.229	5.45
277.608	5.32
277.986	5.3
278.365	5.41
278.743	5.5
279.122	5.46
279.5	5.39
279.878	5.73
280.257	5.87
280.635	5.38
281.013	5.11
281.391	5.96
281.769	5
282.147	4.94
282.525	5.12
282.903	5
283.281	5.02
283.659	5.11
284.037	4.7
284.415	5.15
284.792	4.9
285.17	5.76
285.548	5.42
285.925	5.32
286.303	5.18
286.68	5.52
287.058	5.33
287.435	5.2
287.813	5.09
288.19	5.37
288.567	5.06
288.945	5.65
289.322	5.15
289.699	4.99
290.076	5.66
290.453	5.19
290.83	5.81
291.207	6.14
291.584	5.46
291.961	5.73
292.338	5.41
292.715	5.73
293.092	6.07
293.469	6.1
293.845	6.16
294.222	6.21
294.599	6.71
294.975	6.18
295.352	6.41
295.728	6.11
296.105	6.09
296.481	6.34
296.858	6.74
297.234	6.3
297.61	6.47
297.986	6.46
298.363	6.5
298.739	6.53
299.115	6.39
299.491	6.67
299.867	6.32
300.243	6.94
300.619	6.9
300.995	6.54
301.371	6.63
301.746	6.56
302.122	7.48
302.498	7.17
302.874	7.5
303.249	7.09
303.625	7.32
304	7.74
304.376	7.39
304.751	7.79
305.127	7.33
305.502	7.96
305.878	7.85
306.253	7.41
306.628	7.78
307.003	7.73
307.378	7.64
307.754	8.29
308.129	7.9
308.504	8.23
308.879	8.15
309.254	7.83
309.629	8.32
310.003	8.34
310.378	8.3
310.753	8.6
311.128	8.4
311.502	8.38
311.877	8.89
312.252	8.35
312.626	8.71
313.001	8.86
313.375	9.05
313.75	8.55
314.124	8.8
314.498	8.78
314.873	9.38
315.247	9.04
315.621	9.28
315.995	9.66
316.369	9.58
316.743	9.14
317.117	9.78
317.491	9.83
317.865	9.58
318.239	9.72
318.613	10.42
318.987	9.67
319.361	10.13
319.734	9.61
320.108	10.59
320.482	10.69
320.855	10.84
321.229	11
321.602	10.01
321.976	10.7
322.349	10.45
322.723	10.94
323.096	10.44
323.469	10.81
323.843	11.18
324.216	11.1
324.589	11.2
324.962	11.07
325.335	11.27
325.708	11.38
326.081	11.41
326.454	11.25
326.827	11.34
327.2	11.69
327.573	11.64
327.945	11.83
328.318	11.52
328.691	12.06
329.063	12.48
329.436	11.41
329.809	12.11
330.181	12.05
330.553	12.01
330.926	12.13
331.298	12.23
331.671	12.81
332.043	13.19
332.415	12.68
332.787	13.11
333.159	13.09
333.532	12.8
333.904	12.8
334.276	12.84
334.648	12.8
335.02	13.2
335.391	13
335.763	13.16
336.135	13.46
336.507	13.06
336.879	13.86
337.25	13.13
337.622	13.74
337.993	13.73
338.365	13.83
338.736	13.53
339.108	13.55
339.479	13.7
339.851	13.83
340.222	14.08
340.593	14.18
340.964	14.16
341.336	14.37
341.707	13.83
342.078	14.16
342.449	14.35
342.82	14.66
343.191	14.22
343.562	14.53
343.933	14.32
344.303	14.61
344.674	14.46
345.045	14.94
345.416	14.79
345.786	14.87
346.157	15.07
346.527	14.7
346.898	15.06
347.268	14.96
347.639	15.41
348.009	15.58
348.38	15.32
348.75	15.44
349.12	15.49
349.49	16
349.861	16.12
350.231	15.57
350.601	16.51
350.971	16.18
351.341	16.51
351.711	16.41
352.081	15.95
352.45	16.1
352.82	16.2
353.19	16.31
353.56	16.55
353.929	16.63
354.299	16.6
354.669	16.69
355.038	16.67
355.408	16.41
355.777	17.01
356.147	17.21
356.516	16.77
356.885	16.87
357.254	17.21
357.624	17.16
357.993	16.95
358.362	17.46
358.731	17.55
359.1	17.2
359.469	17.36
359.838	17.72
360.207	18.11
360.576	17.35
360.945	17.9
361.314	17.96
361.682	17.9
362.051	17.71
362.42	17.91
362.788	18.18
363.157	17.9
363.525	17.98
363.894	17.85
364.262	18.1
364.631	18.22
364.999	18.46
365.367	18.58
365.735	18.77
366.104	18.52
366.472	18.59
366.84	18.87
367.208	18.98
367.576	19.05
367.944	19.38
368.312	18.66
368.68	19.31
369.048	19.03
369.416	18.98
369.783	19.51
370.151	19.58
370.519	19.64
370.886	19.34
371.254	19.98
371.621	20.23
371.989	20.09
372.356	20.02
372.724	20.14
373.091	20.26
373.458	19.76
373.826	20.14
374.193	20.23
374.56	20.15
374.927	20.34
375.294	20.39
375.661	21.06
376.028	20.36
376.395	21.05
376.762	20.77
377.129	20.88
377.496	20.32
377.863	20.92
378.229	20.78
378.596	21.2
378.963	21.08
379.329	21.26
379.696	21.22
380.062	21.43
380.429	21.56
380.795	21.39
381.161	21.72
381.528	21.79
381.894	21.37
382.26	21.56
382.626	21.81
382.993	21.95
383.359	22.05
383.725	22.31
384.091	22.27
384.457	22.3
384.823	22.01
385.188	22.28
385.554	21.97
385.92	22.31
386.286	22.33
386.651	22.63
387.017	22.51
387.383	22.49
387.748	23.13
388.114	23.27
388.479	23.08
388.845	23.2
389.21	23.32
389.575	23.14
389.94	23.42
390.306	23.45
390.671	23.32
391.036	23.59
391.401	23.46
391.766	24.24
392.131	23.74
392.496	23.76
392.861	23.54
393.226	23.81
393.591	24.01
393.956	23.98
394.32	24.1
394.685	24.15
395.05	24.23
395.414	24.49
395.779	24.49
396.143	24.57
396.508	24.42
396.872	24.64
397.236	24.7
397.601	24.96
397.965	25.13
398.329	24.99
398.694	25.13
399.058	25.13
399.422	25.29
399.786	25.19
400.15	25.31
400.514	25.77
400.878	25.4
401.242	25.54
401.605	25.74
401.969	25.92
402.333	25.78
402.697	26.11
403.06	25.93
403.424	25.89
403.787	26.28
404.151	26.05
404.514	26.1
404.878	26.17
405.241	26.42
405.604	26.42
405.968	26.59
406.331	26.47
406.694	26.27
407.057	26.54
407.42	26.52
407.783	26.67
408.146	26.9
408.509	26.72
408.872	27.05
409.235	26.91
409.598	27.21
409.961	27.36
410.323	27.7
410.686	27.61
411.049	27.59
411.411	27.46
411.774	27.57
412.136	27.68
412.499	27.83
412.861	27.94
413.223	28.08
413.586	27.91
413.948	28.04
414.31	28.1
414.672	28.2
415.035	28.04
415.397	28.25
415.759	28.6
416.121	28.52
416.483	28.23
416.845	28.45
417.206	28.54
417.568	28.69
417.93	28.41
418.292	28.87
418.653	28.77
419.015	28.78
419.377	28.72
419.738	28.68
420.1	28.83
420.461	28.87
420.822	28.53
421.184	28.86
421.545	28.96
421.906	28.89
422.267	28.94
422.629	28.86
422.99	28.81
423.351	28.92
423.712	29.12
424.073	29.24
424.434	29.29
424.795	29.35
425.155	29.34
425.516	29.57
425.877	29.51
426.238	29.52
426.598	29.53
426.959	29.71
427.32	29.91
427.68	29.98
428.041	30.03
428.401	30.31
428.761	30.3
429.122	30.59
429.482	30.7
429.842	30.62
430.202	30.96
430.563	30.91
430.923	31.01
431.283	31.05
431.643	31.21
432.003	31.18
432.363	31.4
432.722	31.51
433.082	31.35
433.442	31.56
433.802	31.6
434.161	31.78
434.521	31.58
434.881	31.61
435.24	31.7
435.6	31.59
435.959	31.82
436.319	31.94
436.678	31.88
437.037	32.25
437.396	32.22
437.756	32.23
438.115	32.35
438.474	32.34
438.833	32.52
439.192	32.59
439.551	32.5
439.91	32.6
440.269	32.8
440.628	32.55
440.987	32.73
441.345	32.87
441.704	32.89
442.063	32.81
442.421	32.71
442.78	32.68
443.138	32.86
443.497	32.94
443.855	33.02
444.214	33.13
444.572	33.51
444.93	33.37
445.288	33.59
445.647	33.67
446.005	33.61
446.363	33.89
446.721	33.6
447.079	33.61
447.437	33.47
447.795	33.65
448.153	33.55
448.51	33.58
448.868	33.76
449.226	33.63
449.584	33.7
449.941	34.22
450.299	34.3
450.656	34.37
451.014	34.4
451.371	34.67
451.729	34.63
452.086	34.78
452.443	34.87
452.801	34.99
453.158	35.39
453.515	35.15
453.872	35.03
454.229	35.16
454.586	35.23
454.943	35.14
455.3	35.41
455.657	35.46
456.014	35.52
456.371	35.4
456.727	35.48
457.084	35.87
457.441	35.62
457.797	35.91
458.154	36.01
458.51	36.13
458.867	35.95
459.223	36.17
459.58	35.84
459.936	36.1
460.292	36.26
460.648	36.34
461.005	35.96
461.361	35.83
461.717	35.88
462.073	36.05
462.429	36.13
462.785	36.44
463.141	36.67
463.496	36.84
463.852	37.05
464.208	37.08
464.564	37.18
464.919	37.09
465.275	37.24
465.631	37.11
465.986	37.17
466.342	37.3
466.697	37.57
467.052	37.45
467.408	37.49
467.763	37.87
468.118	37.63
468.473	37.92
468.829	37.87
469.184	37.86
469.539	37.91
469.894	37.83
470.249	38
470.603	38.15
470.958	38.15
471.313	38.38
471.668	38.62
472.023	38.47
472.377	38.59
472.732	38.82
473.086	38.78
473.441	38.79
473.795	39.15
474.15	38.87
474.504	38.89
474.859	39.09
475.213	38.95
475.567	39.23
475.921	39.51
476.275	39.44
476.63	39.51
476.984	39.41
477.338	39.5
477.692	39.54
478.045	39.53
478.399	39.68
478.753	39.53
479.107	39.77
479.461	39.54
479.814	39.63
480.168	39.93
480.521	39.81
480.875	39.67
481.228	39.94
481.582	39.84
481.935	40.09
482.289	39.96
482.642	39.86
482.995	39.86
483.348	39.78
483.701	39.8
484.055	39.79
484.408	39.8
484.761	39.52
485.114	39.7
485.466	39.74
485.819	39.52
486.172	39.29
486.525	39.33
486.878	39.42
487.23	39.83
487.583	39.99
487.936	40.29
488.288	40.16
488.641	40.14
488.993	40.25
489.345	40.24
489.698	40.22
490.05	40.25
490.402	40.34
490.754	40.57
491.107	40.84
491.459	41.03
491.811	41.09
492.163	41.18
492.515	41.19
492.866	41.01
493.218	40.99
493.57	40.85
493.922	40.83
494.274	41.11
494.625	41.39
494.977	41.7
495.328	41.89
495.68	42.18
496.031	42.41
496.383	42.39
496.734	42.53
497.086	42.56
497.437	42.85
497.788	42.48
498.139	42.62
498.49	42.5
498.842	42.51
499.193	42.71
499.544	42.65
499.894	42.85
500.245	42.94
500.596	42.95
500.947	43.05
501.298	43.4
501.648	43.42
501.999	43.71
502.35	43.5
502.7	43.75
503.051	43.84
503.401	43.76
503.752	43.92
504.102	43.88
504.452	43.7
504.803	44.13
505.153	44.04
505.503	44.12
505.853	44.24
506.203	44.28
506.553	44.37
506.903	44.28
507.253	44.19
507.603	44.55
507.953	44.93
508.303	44.76
508.652	44.62
509.002	44.69
509.352	44.74
509.701	44.71
510.051	44.77
510.4	44.65
510.75	44.65
511.099	44.67
511.449	44.93
511.798	45.02
512.147	44.99
512.496	45.12
512.846	45.19
513.195	45.21
513.544	45.17
513.893	45.15
514.242	45.3
514.591	45.29
514.939	45.36
515.288	45.48
515.637	45.67
515.986	45.9
516.334	46.08
516.683	46.06
517.032	45.95
517.38	46.15
517.729	46.15
518.077	46.16
518.426	46.24
518.774	46.1
519.122	46.22
519.47	46.06
519.819	46.16
520.167	45.91
520.515	46.15
520.863	46.07
521.211	46.15
521.559	46.32
521.907	46.19
522.255	46.52
522.602	46.83
522.95	46.82
523.298	46.97
523.645	47.14
523.993	47.03
524.341	47.21
524.688	47.4
525.036	47.16
525.383	47.3
525.73	47.48
526.078	47.24
526.425	47.24
526.772	47.36
527.119	47.26
527.466	47.17
527.814	47.13
528.161	47.1
528.508	47.18
528.854	47.41
529.201	47.2
529.548	47.3
529.895	47.46
530.242	47.53
530.588	47.2
530.935	47.06
531.282	46.88
531.628	47.08
531.975	47.23
532.321	47.59
532.667	47.82
533.014	48.16
533.36	47.99
533.706	48.17
534.052	48.19
534.399	48.32
534.745	48.21
535.091	47.95
535.437	48.08
535.783	47.95
536.129	48.19
536.474	48.43
536.82	48.62
537.166	49
537.512	49.03
537.857	49.02
538.203	49.02
538.549	48.97
538.894	49
539.239	49.04
539.585	49.2
539.93	49.42
540.276	49.38
540.621	49.68
540.966	49.94
541.311	50.03
541.656	49.95
542.001	49.72
542.346	49.73
542.691	49.38
543.036	49.37
543.381	49.37
543.726	49.24
544.071	49.15
544.415	49.53
544.76	49.54
545.105	49.71
545.449	49.88
545.794	49.95
546.138	50.19
546.483	50.41
546.827	50.71
547.171	50.62
547.516	50.64
547.86	50.85
548.204	50.79
548.548	50.65
548.892	50.61
549.236	50.82
549.58	50.9
549.924	51.25
550.268	51.19
550.612	51.38
550.956	51.47
551.3	51.82
551.643	51.7
551.987	51.71
552.33	52.09
552.674	52.09
553.017	52.15
553.361	52.16
553.704	52.21
554.048	52.41
554.391	52.09
554.734	51.98
555.077	51.84
555.42	52.03
555.764	52.37
556.107	52.37
556.45	52.67
556.793	52.48
557.135	52.8
557.478	52.84
557.821	52.77
558.164	52.71
558.507	52.92
558.849	52.92
559.192	53.1
559.534	53.44
559.877	53.53
560.219	53.55
560.562	53.5
560.904	53.21
561.246	53.7
561.589	53.72
561.931	53.47
562.273	53.67
562.615	53.48
562.957	53.67
563.299	53.63
563.641	53.94
563.983	54.39
564.325	53.56
564.667	53.85
565.008	54.34
565.35	54.1
565.692	54.07
566.033	54.16
566.375	54.17
566.716	54.47
567.058	53.9
567.399	54.29
567.741	54.18
568.082	54.13
568.423	54.21
568.764	54.03
569.105	54.56
569.447	54.43
569.788	54.62
570.129	55
570.47	54.84
570.811	54.67
571.151	54.67
571.492	54.79
571.833	54.72
572.174	54.97
572.514	55.06
572.855	54.8
573.195	55.05
573.536	55.25
573.876	54.96
574.217	55.04
574.557	54.94
574.898	55.11
575.238	55.33
575.578	55.31
575.918	55.32
576.258	55.58
576.598	55.57
576.938	55.48
577.278	55.68
577.618	55.74
577.958	55.67
578.298	55.78
578.638	55.8
578.977	55.84
579.317	55.94
579.657	56.01
579.996	56.25
580.336	56.26
580.675	56.61
581.014	56.63
581.354	56.78
581.693	56.66
582.032	56.75
582.372	56.88
582.711	56.84
583.05	57.05
583.389	56.84
583.728	56.92
584.067	56.87
584.406	57.17
584.745	56.8
585.083	57.07
585.422	57.3
585.761	57.46
586.1	57.46
586.438	57.34
586.777	57.5
587.115	57.15
587.454	57.59
587.792	57.92
588.13	57.45
588.469	57.85
588.807	57.72
589.145	57.91
589.483	57.62
589.821	57.77
590.159	57.82
590.497	57.73
590.835	57.81
591.173	58.04
591.511	58.04
591.849	57.6
592.187	57.87
592.524	58.08
592.862	58.28
593.2	58.27
593.537	58.2
593.875	58.25
594.212	58.28
594.55	58.54
594.887	58.22
595.224	58.44
595.561	58.31
595.899	58.55
596.236	58.68
596.573	58.29
596.91	58.55
597.247	58.75
597.584	58.54
597.921	58.55
598.258	58.77
598.594	58.33
598.931	58.68
599.268	58.69
599.604	58.64
599.941	58.87
600.277	58.8
600.614	59.13
600.95	59.24
601.287	58.96
601.623	59.17
601.959	59.11
602.296	59.47
602.632	59.34
602.968	59.33
603.304	59.61
603.64	59.4
603.976	59.48
604.312	59.94
604.648	59.56
604.984	59.48
605.319	59.48
605.655	59.76
605.991	59.44
606.326	59.53
606.662	59.55
606.998	59.35
607.333	59.62
607.668	59.78
608.004	59.55
608.339	60.05
608.674	60.06
609.01	60.52
609.345	60.52
609.68	60.13
610.015	60.74
610.35	60.47
610.685	60.39
611.02	60.37
611.355	60.52
611.689	60.56
612.024	60.12
612.359	60.24
612.694	60.36
613.028	60.71
613.363	60.77
613.697	60.76
614.032	60.9
614.366	61.26
614.7	60.91
615.035	61.17
615.369	61.32
615.703	61.37
616.037	60.7
616.371	61.23
616.705	60.89
617.039	61.55
617.373	61.43
617.707	61.1
618.041	61.83
618.375	61.52
618.709	61.4
619.042	61.68
619.376	61.22
619.71	61.97
620.043	61.63
620.377	61.79
620.71	61.89
621.043	61.84
621.377	61.57
621.71	62
622.043	61.74
622.376	62.03
622.709	62.2
623.043	61.97
623.376	62.58
623.709	62.19
624.041	62.05
624.374	62.44
624.707	62.25
625.04	62.54
625.373	62.52
625.705	62.1
626.038	62.28
626.37	62.53
626.703	62.6
627.035	62.63
627.368	62.66
627.7	62.72
628.032	62.85
628.365	62.56
628.697	63.03
629.029	62.67
629.361	62.49
629.693	62.75
630.025	62.48
630.357	62.86
630.689	62.88
631.021	62.96
631.353	62.83
631.684	63.33
632.016	62.88
632.348	63.32
632.679	63.64
633.011	63.32
633.342	63.22
633.674	63.19
634.005	63.02
634.336	63.4
634.668	63.56
634.999	62.88
635.33	63.48
635.661	63.6
635.992	63.53
636.323	64.02
636.654	63.53
636.985	63.53
637.316	63.86
637.647	63.6
637.977	64.05
638.308	63.8
638.639	63.58
638.969	63.97
639.3	63.96
639.63	64.1
639.961	64.12
640.291	63.66
640.622	64.44
640.952	64.62
641.282	64.53
641.612	64.66
641.943	64.3
642.273	64.65
642.603	63.54
642.933	65.03
643.263	64.66
643.592	64.5
643.922	64.11
644.252	64.53
644.582	65.19
644.911	65.3
645.241	64.78
645.571	64.86
645.9	65.09
646.23	65.24
646.559	64.7
646.888	65.78
647.218	65.28
647.547	64.72
647.876	65.1
648.205	64.92
648.534	64.84
648.863	65.12
649.192	64.99
649.521	65.28
649.85	65.15
650.179	65.19
650.508	65.24
650.837	65.27
651.165	65.04
651.494	65.9
651.822	65.81
652.151	65.47
652.479	65.66
652.808	65.02
653.136	65.59
653.465	66.03
653.793	65.63
654.121	65.48
654.449	65.72
654.777	65.95
655.105	65.85
655.433	65.38
655.761	65.68
656.089	66.22
656.417	65.71
656.745	66.24
657.073	65.78
657.4	66.18
657.728	66.01
658.056	66.14
658.383	66.18
658.711	66.31
659.038	65.61
659.365	66.52
659.693	65.8
660.02	65.72
660.347	66.26
660.674	66.35
661.001	66.19
661.329	65.97
661.656	66.46
661.982	66.31
662.309	66.05
662.636	66.67
662.963	66.52
663.29	66.67
663.616	66.19
663.943	66.03
664.27	66.94
664.596	66.87
664.923	66.25
665.249	66.93
665.576	66.97
665.902	66.82
666.228	67.34
666.554	66.79
666.881	66.79
667.207	67.38
667.533	67.25
667.859	67.3
668.185	67.36
668.511	67.17
668.837	66.78
669.162	66.91
669.488	67.48
669.814	67.4
670.139	67.14
670.465	68.03
670.791	67.56
671.116	67.81
671.442	67.01
671.767	66.94
672.092	67.69
672.418	67.47
672.743	67.05
673.068	67.39
673.393	66.83
673.718	67.21
674.043	67.36
674.368	67.79
674.693	67.29
675.018	67.46
675.343	67.12
675.667	67.4
675.992	67.8
676.317	67.47
676.641	67.72
676.966	67.89
677.29	67.85
677.615	68.02
677.939	68.15
678.264	68.01
678.588	67.81
678.912	67.76
679.236	68.57
679.56	68.02
679.885	67.82
680.209	67.69
680.532	67.6
680.856	68.36
681.18	68.79
681.504	68.01
681.828	68.06
682.152	68.51
682.475	68.03
682.799	68.71
683.122	67.95
683.446	67.88
683.769	67.61
684.093	68.11
684.416	67.91
684.739	68.09
685.062	68.11
685.386	68.2
685.709	68.24
686.032	68.45
686.355	68.21
686.678	68.89
687.001	68.94
687.324	68.74
687.646	68.54
687.969	69.07
688.292	69.1
688.614	69.18
688.937	68.68
689.26	69.02
689.582	68.8
689.904	68.97
690.227	68.48
690.549	69
690.871	68.6
691.194	69.42
691.516	68.69
691.838	68.55
692.16	68.84
692.482	69.95
692.804	69.09
693.126	68.28
693.448	68.66
693.769	68.18
694.091	68.79
694.413	69.48
694.735	68.12
695.056	69.09
695.378	68.78
695.699	68.96
696.021	69.14
696.342	70
696.663	69.52
696.984	69.68
697.306	69.09
697.627	69.91
697.948	69.61
698.269	69.56
698.59	70.18
698.911	68.98
699.232	70.25
699.553	69.24
699.873	70.18
700.194	70.19
700.515	69.43
700.835	69.21
701.156	70.28
701.477	70.11
701.797	69.76
702.117	68.89
702.438	69.98
702.758	69.25
703.078	68.99
703.398	69.43
703.719	70.03
704.039	70.5
704.359	70.14
704.679	69.95
704.999	69.73
705.319	69.79
705.638	69.5
705.958	70.93
706.278	69.16
706.597	70.99
706.917	69.87
707.237	71.03
707.556	71.59
707.876	70.25
708.195	71
708.514	71.16
708.834	70.43
709.153	70.32
709.472	70.92
709.791	69.42
710.11	69.64
710.429	69.67
710.748	70.43
711.067	70.6
711.386	69.76
711.705	71.01
712.023	69.5
712.342	70.52
712.661	70.79
712.979	70.99
713.298	70.52
713.616	70.26
713.935	70.69
714.253	71.16
714.572	70.5
714.89	69.73
715.208	70.74
715.526	69.88
715.844	70.81
716.162	72.75
716.48	70.71
716.798	70.61
717.116	71.13
717.434	71.31
717.752	71.07
718.069	71.3
718.387	71.22
718.705	71.62
719.022	70.72
719.34	71.07
719.657	70.14
719.975	70.48
720.292	70.71
720.609	71.35
720.927	70.9
721.244	71.26
721.561	70.43
721.878	72.15
722.195	72.65
722.512	71.15
722.829	71.79
723.146	70.75
723.463	72.15
723.779	71.92
724.096	70.19
724.413	72.38
724.729	72.06
725.046	71.12
725.362	71.25
725.679	72.21
725.995	71
726.311	72.91
726.628	71.54
726.944	70.76
727.26	71.76
727.576	71.05
727.892	70.51
728.208	70.57
728.524	71.82
728.84	71.21
729.156	72.85
729.472	71.25
729.787	71.42
730.103	71.63
730.419	71.63
730.734	72.26
731.05	71.75
731.365	72.63
731.681	72.2
731.996	73.19
732.311	71.12
732.626	71.47
732.942	72.31
733.257	72.23
733.572	72.07
733.887	71.3
734.202	72.24
734.517	72.18
734.832	72.32
735.146	70.13
735.461	71.41
735.776	73
736.091	71.68
736.405	72.2
736.72	71.27
737.034	72.8
737.349	72.25
737.663	72.17
737.977	70.88
738.292	72.92
738.606	72.29
738.92	71.46
739.234	71.6
739.548	72.65
739.862	71.68
740.176	71.41
740.49	72.96
740.804	72.85
741.117	72.46
741.431	73.58
741.745	74.39
742.058	72.97
742.372	72.48
742.685	72.34
742.999	70.99
743.312	73.51
743.626	70.36
743.939	73.41
744.252	72.9
744.565	73.11
744.878	72.24
745.191	72.9
745.505	71.13
745.817	72.14
746.13	72.95
746.443	74.63
746.756	73.59
747.069	74.17
747.381	73.08
747.694	72.98
748.007	73.43
748.319	75.26
748.632	72.43
748.944	72.01
749.256	73.79
749.569	72.41
749.881	74.54
750.193	72.31
750.505	74.74
750.817	74.86
751.129	72.39
751.441	73.82
751.753	72.97
752.065	71.57
752.377	74.82
752.689	72.09
753	75.01
753.312	72.21
753.624	73.68
753.935	73.78
754.247	72.03
754.558	72.49
754.869	71.56
755.181	73.06
755.492	73.08
755.803	73.21
756.114	73.05
756.425	71.68
756.736	74.35
757.047	72.19
757.358	74.06
757.669	75.16
757.98	74.43
758.291	72.01
758.601	74.6
758.912	75.02
759.223	74.31
759.533	72.55
759.844	73.72
760.154	73.4
760.464	74.06
760.775	72.81
761.085	72.93
761.395	74.77
761.705	73.44
762.016	71.43
762.326	72.99
762.636	73.54
762.945	73.26
763.255	73.79
763.565	73.29
763.875	73.69
764.185	74.95
764.494	73.36
764.804	74.29
765.113	73.99
765.423	75.02
765.732	73.58
766.042	74.28
766.351	73.89
766.66	74.84
766.97	74.48
767.279	74.04
767.588	72.99
767.897	74.73
768.206	74.44
768.515	74.5
768.824	73.85
769.133	74.46
769.441	74.59
769.75	72.62
770.059	73.95
770.367	72.86
770.676	73.67
770.984	73.01
771.293	73.95
771.601	74.01
771.91	73.84
772.218	74.49
772.526	72.56
772.834	73.46
773.142	72.34
773.45	72.67
773.758	73.68
774.066	75.01
774.374	72.15
774.682	75.42
774.99	72.88
775.298	75.72
775.605	74.75
775.913	73.15
776.22	72.45
776.528	73.61
776.835	72.72
777.143	73.79
777.45	71.97
777.757	74.07
778.065	74.41
778.372	71.92
778.679	77.62
778.986	73.12
779.293	72.3
779.6	74.98
779.907	75.72
780.214	72.93
780.52	73.88
780.827	75.64
781.134	74.7
781.44	73.53
781.747	73.81
782.053	75.51
782.36	75.91
782.666	73.37
782.973	72.95
783.279	75
783.585	74.29
783.891	75.99
784.197	72.88
784.503	72.46
784.809	73.51
785.115	74.81
785.421	77.3
785.727	72.62
786.033	76.15
786.339	71.83
786.644	74.5
786.95	77.97
787.255	74.34
787.561	69.94
787.866	72.19
788.172	71.33
788.477	73.78
788.782	72.95
789.088	74.25
789.393	75.43
789.698	75.81
790.003	73.75
790.308	73.57
790.613	75.24
790.918	74.12
791.223	72.46
791.527	73.14
791.832	78.48
792.137	72.66
792.441	76.04
792.746	75.88
793.05	75.92
793.355	71.37
793.659	72.39
793.963	74.25
794.268	74.4
794.572	75.55
794.876	75.8
795.18	74.47
795.484	73.93
795.788	74.24
796.092	73.77
796.396	72.73
796.7	75.62
797.004	76.69
797.307	71.66
797.611	73.67
797.915	72.67
798.218	73.02
798.522	72.69
798.825	75.3
799.128	72.57
799.432	71.41
799.735	73.83
800.038	71.49
800.341	75
800.644	76.12
800.947	76.59
801.25	74.25
801.553	74.41
801.856	72.58
802.159	78.16
802.462	76.68
802.764	79
803.067	75.46
803.37	72.13
803.672	76.4
803.975	72.9
804.277	73.86
804.579	73.48
804.882	71.19
805.184	75.05
805.486	70.94
805.788	75.96
806.09	76.09
806.392	71.58
806.694	71.29
806.996	76.67
807.298	77.93
807.6	73.96
807.902	75.17
808.203	70.98
808.505	70.81
808.807	71.87
809.108	75.41
809.409	79.8
809.711	74.99
810.012	74.76
810.313	73.48
810.615	74.51
810.916	78.67
811.217	74.82
811.518	74.12
811.819	78.59
812.12	73.25
812.421	74.94
812.722	71.48
813.023	69.47
813.323	77.13
813.624	74.51
813.925	74.52
814.225	76.01
814.526	76.75
814.826	77.68
815.126	69.83
815.427	76.07
815.727	76.12
816.027	81.55
816.327	79.69
816.627	73.65
816.927	73.99
817.227	71.06
817.527	72.91
817.827	72.81
818.127	75.45
818.427	76.21
818.727	74.67
819.026	75.6
819.326	72.65
819.625	72.93
819.925	75.93
820.224	77.48
820.524	79
820.823	75.9
821.122	74.46
821.421	76.36
821.72	74.01
822.019	74.94
822.318	78.68
822.617	76.12
822.916	78.7
823.215	77.44
823.514	75.56
823.813	75.45
824.111	78.21
824.41	77.13
824.709	77.51
825.007	77.49
825.306	78.34
825.604	76.64
825.902	76.3
826.201	75.9
826.499	75.4
826.797	76.12
827.095	76.43
827.393	76.86
827.691	75.68
827.989	78.32
828.287	77.23
828.585	75.97
828.882	77.21
829.18	77.91
829.478	75.5
829.775	75.69
830.073	76.76
830.37	78
830.668	76.43
830.965	78.8
831.263	76.64
831.56	73.57
831.857	75.62
832.154	71.47
832.451	77.9
832.748	75.75
833.045	73.73
833.342	76.95
833.639	74.18
833.936	72.45
834.232	79.13
834.529	78.2
834.826	79.09
835.122	78.5
835.419	73.36
835.715	75.39
836.012	73.76
836.308	74.49
836.604	75.74
836.901	75.18
837.197	74.61
837.493	76.71
837.789	77.65
838.085	75.17
838.381	73.81
838.677	73.09
838.972	77.09
839.268	78.71
839.564	76.11
839.86	74.08
840.155	74.84
840.451	78.48
840.746	78.92
841.042	71.56
841.337	68.05
841.632	75.36
841.928	78.12
842.223	77.84
842.518	76.26
842.813	82.38
843.108	79.54
843.403	73.24
843.698	85.96
843.993	73.83
844.287	78.46
844.582	69.92
844.877	68.01
845.171	73.48
845.466	68.92
845.761	69.41
846.055	77.29
846.349	69.86
846.644	81.77
846.938	73.17
847.232	68.96
847.526	82.79
847.82	87.86
848.114	58.84
848.408	74.22
848.702	67.77
848.996	70.87
849.29	80.76
849.584	67.23
849.877	75.41
850.171	69.65
850.465	81.33
850.758	84.13
851.052	94.62
851.345	66.02
851.638	78.46
851.932	74.83
852.225	72.74
852.518	58.3
852.811	80.47
853.104	74.46
853.397	73.71
853.69	68.11
853.983	71.99
854.276	67.93
854.569	52.11
854.861	60.9
855.154	66.56
855.447	65.02
855.739	72.49
856.032	65.91
856.324	69.8
856.616	51.61
856.909	55.01
857.201	79.53
857.493	73.86
857.785	79.69
858.077	67.21
858.369	71.32
858.661	76.38
858.953	57.54
859.245	60.62
859.537	79.96
859.829	70.7
860.12	56.09
860.412	88.49
860.703	82.79
860.995	91.07
861.286	80.1
861.578	91.21
861.869	60.64
862.16	63.53
862.452	72.31
862.743	71.66
863.034	56.25
863.325	59
863.616	41.04
863.907	65.06
864.198	51.44
864.488	72.72
864.779	84.17
865.07	66.97
865.36	61.89
865.651	83.13
865.941	81.66
866.232	73.66
866.522	70.39
866.813	70.75
867.103	77.97
867.393	90.1
867.683	70.03
867.973	76.1
868.263	60.98
868.553	61.56
868.843	75.23
869.133	57.02
869.423	87.57
869.713	59.29
870.002	99.78
870.292	65.94
870.582	76.68
870.871	52.84
871.161	67.84
871.45	80.66
871.739	70.47
872.029	86.73
872.318	86.73
872.607	80.69
872.896	59.4
873.185	64.95
873.474	60.93
873.763	69.52
874.052	58.85
874.341	87.34
874.63	60.14
874.918	56.63
875.207	74.25
875.496	70.7
875.784	85.76
876.073	61.32
876.361	63.27
876.649	83.49
876.938	74.28
877.226	68.43
877.514	86.52
877.802	56.19
878.09	58.97
878.378	78.02
878.666	72.89
878.954	66.02
879.242	64.12
879.53	50.8
879.817	61.77
880.105	65.76
880.392	68.98
880.68	80.04
880.967	71.74
881.255	80.1
881.542	69.32
881.83	77.47
882.117	54.35
882.404	83.33
882.691	81.97
882.978	74.74
883.265	71.76
883.552	67.15
883.839	77.21
884.126	72.42
884.413	65.74
884.699	74.67
884.986	76.68
885.273	78.08
885.559	78.08
885.846	78.08
