Data from 21-10_crown_Reflection__2__52.txt Node

Date: Thu Dec 15 16:51:30 CST 2022
User: ToomeyLab
Spectrometer: FLMS14357
Trigger mode: 0
Integration Time (sec): 1.000000E-2
Scans to average: 100
Electric dark correction enabled: true
Nonlinearity correction enabled: false
Boxcar width: 0
XAxis mode: Wavelengths
Number of Pixels in Spectrum: 2048
>>>>>Begin Spectral Data<<<<<
189.047	-96.81
189.435	-96.81
189.823	-96.81
190.211	-120.38
190.599	76.8
190.987	-96.99
191.375	276.38
191.763	93.13
192.151	161.18
192.538	431.88
192.926	416.08
193.314	162.74
193.702	362.64
194.089	-88.1
194.477	87.59
194.864	82.68
195.252	95.81
195.639	74.69
196.027	-6181.25
196.414	420.88
196.801	-29.61
197.189	8.25
197.576	381.88
197.963	-104.41
198.351	25.82
198.738	-57.63
199.125	22.29
199.512	37.03
199.899	-19.66
200.286	28.83
200.673	22.94
201.06	-9.74
201.447	-0.02
201.833	-20.77
202.22	27.27
202.607	0.76
202.994	54.53
203.38	4.01
203.767	-19.69
204.154	31.53
204.54	47.44
204.927	28.62
205.313	25.44
205.699	48.22
206.086	16.53
206.472	29.47
206.858	-11.18
207.245	4.34
207.631	-25.77
208.017	31.34
208.403	-25.47
208.789	20.3
209.175	-4.66
209.561	-32.63
209.947	13.71
210.333	3.28
210.719	8.9
211.105	7.52
211.491	16.33
211.876	1.73
212.262	23.48
212.648	-7.07
213.034	-18.07
213.419	11.97
213.805	7.45
214.19	-12.27
214.576	-23.97
214.961	-4.17
215.346	-6.45
215.732	-2.37
216.117	11.41
216.502	-10.77
216.888	-2.6
217.273	6.67
217.658	-0.56
218.043	-20.97
218.428	3.76
218.813	1.01
219.198	-19.15
219.583	6.48
219.968	21.95
220.353	-11.89
220.738	25.29
221.122	2.64
221.507	2.89
221.892	-21.47
222.276	-17.39
222.661	6.06
223.046	-0.22
223.43	10.31
223.815	15.2
224.199	3.93
224.583	1.41
224.968	-2.01
225.352	-8.42
225.736	8.24
226.121	-1.86
226.505	5.7
226.889	4.89
227.273	1.83
227.657	7.16
228.041	6.11
228.425	-0.51
228.809	3.81
229.193	5.01
229.577	2.93
229.961	3.03
230.344	4.63
230.728	4.08
231.112	4.35
231.495	2.28
231.879	4.24
232.263	5.28
232.646	2.59
233.03	5.03
233.413	5.36
233.797	2.01
234.18	2.67
234.563	3.63
234.946	2.53
235.33	3.41
235.713	2.71
236.096	5.39
236.479	4.62
236.862	3.07
237.245	3.53
237.628	5.13
238.011	3.74
238.394	2.85
238.777	3.73
239.16	3.29
239.543	4.41
239.925	4.19
240.308	3.5
240.691	2.12
241.073	2.06
241.456	5.11
241.838	3.74
242.221	3.84
242.603	4.69
242.986	3.4
243.368	3.62
243.75	3.63
244.133	3.93
244.515	3.52
244.897	3.49
245.279	3.31
245.661	3.89
246.043	4.45
246.425	3.57
246.807	3.32
247.189	2.98
247.571	3.28
247.953	3.09
248.335	3.39
248.717	3.47
249.098	3.4
249.48	3.29
249.862	3.45
250.243	3.36
250.625	3.08
251.006	4.07
251.388	3.06
251.769	3.1
252.151	3.46
252.532	3.83
252.913	3.66
253.295	3.5
253.676	3.13
254.057	3.25
254.438	3.58
254.819	3.24
255.2	4.99
255.581	4.37
255.962	4.81
256.343	3.34
256.724	3.43
257.105	3.24
257.486	2.51
257.867	2.92
258.247	3.59
258.628	3.55
259.009	2.7
259.389	2.8
259.77	2.35
260.15	3.62
260.531	3.06
260.911	2.96
261.292	3.16
261.672	3.03
262.052	3.03
262.432	2.87
262.813	3.18
263.193	3.17
263.573	2.84
263.953	2.87
264.333	3.21
264.713	3.74
265.093	2.69
265.473	3.53
265.853	3.27
266.233	2.93
266.612	2.86
266.992	3.41
267.372	3.74
267.752	3.26
268.131	3.19
268.511	3.04
268.89	3.51
269.27	2.72
269.649	2.92
270.029	2.64
270.408	2.75
270.787	3.51
271.167	2.77
271.546	3.53
271.925	2.92
272.304	2.82
272.683	2.45
273.062	2.81
273.441	2.65
273.82	3.04
274.199	2.78
274.578	3.21
274.957	3.08
275.336	3.29
275.715	3.49
276.093	3.35
276.472	2.26
276.851	3.02
277.229	2.62
277.608	2.07
277.986	2.64
278.365	2.59
278.743	2.94
279.122	2.61
279.5	2.36
279.878	2.73
280.257	2.73
280.635	2.94
281.013	2.4
281.391	3.04
281.769	3.05
282.147	2.72
282.525	2.8
282.903	2.26
283.281	2.73
283.659	2.93
284.037	2.49
284.415	2.65
284.792	2.63
285.17	2.97
285.548	2.17
285.925	2.54
286.303	3.05
286.68	2.94
287.058	2.72
287.435	2.57
287.813	2.64
288.19	2.52
288.567	2.77
288.945	2.57
289.322	2.94
289.699	3.02
290.076	2.68
290.453	2.37
290.83	2.93
291.207	2.48
291.584	2.88
291.961	2.7
292.338	2.56
292.715	2.38
293.092	2.89
293.469	2.47
293.845	2.62
294.222	2.94
294.599	2.36
294.975	2.06
295.352	2.9
295.728	2.68
296.105	2.23
296.481	2.23
296.858	2.59
297.234	2.35
297.61	2.86
297.986	3.08
298.363	2.74
298.739	2.88
299.115	2.66
299.491	3.04
299.867	2.38
300.243	2.73
300.619	2.32
300.995	2.74
301.371	2.85
301.746	2.64
302.122	2.51
302.498	2.7
302.874	2.64
303.249	2.77
303.625	2.34
304	2.78
304.376	3.11
304.751	3.2
305.127	2.36
305.502	3.02
305.878	2.8
306.253	2.38
306.628	2.61
307.003	2.77
307.378	2.24
307.754	2.62
308.129	2.48
308.504	2.6
308.879	3.05
309.254	3.19
309.629	2.72
310.003	2.52
310.378	2.77
310.753	2.53
311.128	2.75
311.502	2.74
311.877	2.7
312.252	2.76
312.626	2.94
313.001	2.63
313.375	2.8
313.75	2.62
314.124	2.79
314.498	2.92
314.873	2.4
315.247	2.43
315.621	2.32
315.995	2.54
316.369	2.35
316.743	2.51
317.117	2.51
317.491	2.96
317.865	2.56
318.239	3
318.613	2.42
318.987	2.51
319.361	2.39
319.734	2.41
320.108	2.6
320.482	3.03
320.855	2.45
321.229	2.68
321.602	2.58
321.976	2.21
322.349	3.19
322.723	3.25
323.096	2.28
323.469	2.21
323.843	2.21
324.216	2.79
324.589	2.71
324.962	2.67
325.335	2.17
325.708	2.7
326.081	2.5
326.454	2.79
326.827	2.57
327.2	2.42
327.573	2.82
327.945	2.5
328.318	2.4
328.691	2.1
329.063	2.37
329.436	2.29
329.809	2.66
330.181	3.32
330.553	3.07
330.926	3.08
331.298	3.16
331.671	2.57
332.043	2.69
332.415	2.58
332.787	2.96
333.159	2.69
333.532	2.84
333.904	2.68
334.276	3.24
334.648	2.81
335.02	2.69
335.391	2.63
335.763	2.62
336.135	2.89
336.507	2.09
336.879	2.72
337.25	2.88
337.622	2.87
337.993	2.23
338.365	2.55
338.736	2.74
339.108	2.91
339.479	2.59
339.851	2.47
340.222	3.18
340.593	2.58
340.964	2.56
341.336	2.93
341.707	2.4
342.078	2.64
342.449	2.92
342.82	2.97
343.191	2.52
343.562	2.74
343.933	2.15
344.303	2.81
344.674	2.66
345.045	2.84
345.416	3.01
345.786	2.85
346.157	3.05
346.527	2.62
346.898	2.34
347.268	2.89
347.639	2.7
348.009	3.12
348.38	2.54
348.75	3.03
349.12	3.05
349.49	2.68
349.861	2.89
350.231	2.6
350.601	2.85
350.971	2.74
351.341	2.51
351.711	2.77
352.081	2.74
352.45	2.62
352.82	2.53
353.19	2.51
353.56	2.88
353.929	3.07
354.299	2.94
354.669	3.17
355.038	3.26
355.408	2.85
355.777	3.29
356.147	2.66
356.516	2.76
356.885	2.78
357.254	2.62
357.624	2.49
357.993	2.9
358.362	2.97
358.731	2.91
359.1	2.91
359.469	3.06
359.838	2.77
360.207	2.73
360.576	2.8
360.945	3.15
361.314	2.72
361.682	2.79
362.051	2.95
362.42	2.68
362.788	2.9
363.157	2.64
363.525	2.75
363.894	2.65
364.262	2.8
364.631	3.02
364.999	2.98
365.367	2.71
365.735	2.49
366.104	2.62
366.472	2.91
366.84	3
367.208	3.12
367.576	2.67
367.944	2.91
368.312	2.73
368.68	2.98
369.048	2.88
369.416	2.75
369.783	2.85
370.151	3.11
370.519	3.33
370.886	2.85
371.254	3.13
371.621	2.93
371.989	3.21
372.356	3.02
372.724	2.97
373.091	2.99
373.458	2.73
373.826	2.83
374.193	2.94
374.56	3.05
374.927	2.76
375.294	3.08
375.661	3.13
376.028	2.72
376.395	3.03
376.762	2.7
377.129	2.74
377.496	2.71
377.863	3.14
378.229	3.19
378.596	2.92
378.963	2.95
379.329	2.88
379.696	2.69
380.062	3.06
380.429	2.75
380.795	3.1
381.161	2.69
381.528	2.52
381.894	2.89
382.26	3.11
382.626	3.06
382.993	3.09
383.359	2.89
383.725	2.85
384.091	3.1
384.457	3.05
384.823	3.18
385.188	2.98
385.554	3.17
385.92	2.8
386.286	3.16
386.651	2.8
387.017	3.12
387.383	2.72
387.748	3.04
388.114	3.17
388.479	3.03
388.845	2.74
389.21	3.22
389.575	3.12
389.94	2.93
390.306	3.09
390.671	2.85
391.036	3.01
391.401	3.2
391.766	3
392.131	3.18
392.496	2.92
392.861	2.8
393.226	2.98
393.591	3.1
393.956	2.92
394.32	3.15
394.685	3.12
395.05	2.97
395.414	2.88
395.779	3.15
396.143	3.03
396.508	2.73
396.872	2.82
397.236	3.25
397.601	3.18
397.965	3.07
398.329	3.07
398.694	2.91
399.058	3.27
399.422	3.21
399.786	2.92
400.15	3.09
400.514	3.06
400.878	2.99
401.242	2.98
401.605	3.21
401.969	2.93
402.333	2.93
402.697	3.19
403.06	3.07
403.424	3.11
403.787	3.24
404.151	3.02
404.514	3.09
404.878	2.9
405.241	3
405.604	3.12
405.968	3.1
406.331	3.19
406.694	3.13
407.057	2.95
407.42	2.86
407.783	3.08
408.146	3.06
408.509	3.35
408.872	2.98
409.235	3.17
409.598	3.01
409.961	3
410.323	2.85
410.686	3.24
411.049	3.31
411.411	3.16
411.774	3.04
412.136	3.03
412.499	3.16
412.861	2.59
413.223	3.02
413.586	3.2
413.948	3.26
414.31	3.29
414.672	3
415.035	3.24
415.397	3.04
415.759	2.8
416.121	3
416.483	3.17
416.845	3.26
417.206	2.96
417.568	3.03
417.93	3.23
418.292	3.13
418.653	2.8
419.015	3.04
419.377	2.92
419.738	3.02
420.1	3.05
420.461	2.97
420.822	3.1
421.184	2.99
421.545	3.09
421.906	3.09
422.267	3.06
422.629	3.03
422.99	3.02
423.351	3.03
423.712	3.07
424.073	3.14
424.434	3.1
424.795	2.98
425.155	2.87
425.516	3.03
425.877	2.99
426.238	3.04
426.598	3.07
426.959	3.07
427.32	3
427.68	3.12
428.041	3.11
428.401	2.99
428.761	3.19
429.122	3.08
429.482	3.07
429.842	3.02
430.202	3.21
430.563	3.01
430.923	3.22
431.283	3.27
431.643	3.33
432.003	3.02
432.363	3.17
432.722	3.07
433.082	2.99
433.442	3.17
433.802	3
434.161	3.15
434.521	3.13
434.881	3.08
435.24	3.12
435.6	3.12
435.959	3.13
436.319	3.09
436.678	3.23
437.037	3.09
437.396	3.1
437.756	2.86
438.115	3.07
438.474	3.18
438.833	3.19
439.192	3.12
439.551	3.11
439.91	3.16
440.269	3.02
440.628	2.96
440.987	3.17
441.345	3.1
441.704	3.05
442.063	3.05
442.421	3.09
442.78	3.06
443.138	3.14
443.497	3.07
443.855	3.23
444.214	3.04
444.572	3.26
444.93	3.02
445.288	3.08
445.647	3
446.005	3.08
446.363	3.11
446.721	3.15
447.079	3.07
447.437	3.11
447.795	3.08
448.153	3.09
448.51	3
448.868	2.97
449.226	3.06
449.584	3
449.941	3.14
450.299	2.98
450.656	3.02
451.014	3.2
451.371	3.26
451.729	3.21
452.086	3.09
452.443	3.35
452.801	3.11
453.158	3.29
453.515	2.99
453.872	3.18
454.229	3.01
454.586	3
454.943	3.22
455.3	3.27
455.657	3.19
456.014	3.19
456.371	3.26
456.727	3.27
457.084	3.27
457.441	3.09
457.797	3.11
458.154	3.19
458.51	3.12
458.867	3.15
459.223	3.02
459.58	3.21
459.936	3.08
460.292	3.07
460.648	3.05
461.005	3.06
461.361	3.02
461.717	3.03
462.073	3.15
462.429	3.17
462.785	3.26
463.141	3.2
463.496	3.18
463.852	3.28
464.208	3.24
464.564	3.11
464.919	3.17
465.275	3.08
465.631	3.33
465.986	3.25
466.342	3.12
466.697	3.06
467.052	3.26
467.408	3.24
467.763	3.2
468.118	3.19
468.473	3.11
468.829	3.13
469.184	3.14
469.539	3.08
469.894	3.23
470.249	3.2
470.603	3.22
470.958	3.12
471.313	3.17
471.668	3.09
472.023	3.18
472.377	3.17
472.732	3.18
473.086	3.17
473.441	3.13
473.795	3.27
474.15	3.18
474.504	3.22
474.859	3.05
475.213	3.16
475.567	3.21
475.921	3.1
476.275	3.23
476.63	3.11
476.984	3.19
477.338	3.2
477.692	3.23
478.045	3.14
478.399	3.15
478.753	3.16
479.107	3.14
479.461	3.18
479.814	3.23
480.168	3.1
480.521	3.25
480.875	3.18
481.228	3.17
481.582	3.04
481.935	3.3
482.289	3.19
482.642	3.39
482.995	3.19
483.348	3.14
483.701	3.15
484.055	3.08
484.408	3.05
484.761	2.96
485.114	2.88
485.466	2.88
485.819	2.92
486.172	2.96
486.525	3.02
486.878	3.06
487.23	3.1
487.583	3.08
487.936	3.11
488.288	3.06
488.641	2.91
488.993	2.95
489.345	2.92
489.698	2.97
490.05	3
490.402	3.04
490.754	3.04
491.107	3
491.459	3.08
491.811	3.07
492.163	3.08
492.515	3.03
492.866	2.91
493.218	2.95
493.57	3.02
493.922	3
494.274	3.13
494.625	3.17
494.977	3.15
495.328	3.13
495.68	3.11
496.031	3.13
496.383	3.04
496.734	3.15
497.086	3.31
497.437	3.2
497.788	3.21
498.139	3.06
498.49	3.17
498.842	3.15
499.193	3.11
499.544	3.05
499.894	3.1
500.245	3.19
500.596	3.08
500.947	3.06
501.298	3.15
501.648	3.12
501.999	3.14
502.35	2.96
502.7	3.34
503.051	3.12
503.401	3.18
503.752	3.02
504.102	3.16
504.452	3.16
504.803	3.16
505.153	3.22
505.503	3.11
505.853	3.2
506.203	3.21
506.553	3.02
506.903	3.13
507.253	3.13
507.603	3.23
507.953	3.14
508.303	3.18
508.652	3.07
509.002	3.2
509.352	3.19
509.701	3
510.051	3.19
510.4	3.12
510.75	3.06
511.099	3.01
511.449	3.2
511.798	3.16
512.147	3.18
512.496	3.07
512.846	3.1
513.195	3.05
513.544	3.21
513.893	3.12
514.242	3.06
514.591	3.14
514.939	3.2
515.288	3.16
515.637	3.12
515.986	3.11
516.334	3.14
516.683	3.16
517.032	3.19
517.38	2.99
517.729	3.17
518.077	3.13
518.426	3.22
518.774	3.08
519.122	3.12
519.47	3.06
519.819	3.08
520.167	3.04
520.515	3.11
520.863	3.05
521.211	3.05
521.559	3.15
521.907	3.13
522.255	3.06
522.602	3.12
522.95	3.16
523.298	3.18
523.645	3.13
523.993	3.13
524.341	3.05
524.688	3.17
525.036	3.09
525.383	3.13
525.73	3.02
526.078	3.21
526.425	3.03
526.772	3.04
527.119	3.08
527.466	3.05
527.814	2.97
528.161	3.14
528.508	3.11
528.854	3.06
529.201	2.99
529.548	2.99
529.895	2.88
530.242	2.88
530.588	2.87
530.935	2.96
531.282	2.94
531.628	2.98
531.975	3
532.321	3
532.667	3.05
533.014	3.06
533.36	3.08
533.706	3.06
534.052	3.05
534.399	3.02
534.745	2.89
535.091	2.92
535.437	2.96
535.783	2.99
536.129	3.01
536.474	3.08
536.82	3.07
537.166	3.09
537.512	3.09
537.857	3.06
538.203	2.99
538.549	2.99
538.894	3.02
539.239	3.05
539.585	3.09
539.93	3.08
540.276	3.13
540.621	3.2
540.966	3.1
541.311	3.15
541.656	2.99
542.001	3.04
542.346	2.93
542.691	2.88
543.036	2.93
543.381	2.94
543.726	3.02
544.071	3
544.415	3.07
544.76	3.01
545.105	2.98
545.449	3.06
545.794	3.06
546.138	3.07
546.483	3.13
546.827	3.07
547.171	3.08
547.516	3.18
547.86	3.08
548.204	3.11
548.548	3.07
548.892	3.01
549.236	3.05
549.58	3.11
549.924	3.19
550.268	3.17
550.612	3.22
550.956	3.06
551.3	3.32
551.643	3.14
551.987	3.3
552.33	3.21
552.674	3.16
553.017	3.27
553.361	3.28
553.704	3.12
554.048	3.05
554.391	3.13
554.734	3.04
555.077	3.12
555.42	3.06
555.764	3.16
556.107	3.18
556.45	3.18
556.793	3.24
557.135	3.18
557.478	3.09
557.821	3.24
558.164	3.17
558.507	3.03
558.849	3.4
559.192	3.16
559.534	3.14
559.877	3.18
560.219	3.13
560.562	3.13
560.904	3.35
561.246	3.07
561.589	3.26
561.931	3.13
562.273	3.18
562.615	3.08
562.957	2.93
563.299	3.03
563.641	3.27
563.983	3.06
564.325	3.07
564.667	3.02
565.008	2.99
565.35	3.05
565.692	2.99
566.033	3
566.375	3.22
566.716	3.18
567.058	2.93
567.399	3.04
567.741	3.09
568.082	3.16
568.423	2.98
568.764	3.01
569.105	3.23
569.447	3.01
569.788	3.09
570.129	3.11
570.47	3.01
570.811	2.9
571.151	3.12
571.492	3.11
571.833	3.13
572.174	2.95
572.514	2.96
572.855	3.09
573.195	3.04
573.536	3.24
573.876	2.99
574.217	3.12
574.557	3.08
574.898	2.94
575.238	3.22
575.578	3.23
575.918	3.1
576.258	3.17
576.598	2.99
576.938	3
577.278	3.01
577.618	3
577.958	3.08
578.298	3.22
578.638	3.1
578.977	3.02
579.317	3.09
579.657	3.06
579.996	3.34
580.336	3.31
580.675	3.07
581.014	3.16
581.354	3.08
581.693	3.32
582.032	3.35
582.372	3.17
582.711	3.11
583.05	2.98
583.389	3.35
583.728	3.4
584.067	3.26
584.406	3.17
584.745	3.05
585.083	3
585.422	3.29
585.761	3.1
586.1	3.26
586.438	3.25
586.777	3.05
587.115	3.3
587.454	2.97
587.792	3.16
588.13	3.08
588.469	3.07
588.807	3.13
589.145	3.11
589.483	2.96
589.821	3.09
590.159	3.11
590.497	3.33
590.835	3.4
591.173	3.22
591.511	3.33
591.849	3.19
592.187	3.09
592.524	3.14
592.862	2.98
593.2	3.08
593.537	2.87
593.875	2.83
594.212	3.31
594.55	3
594.887	3.03
595.224	3.47
595.561	3.13
595.899	3.11
596.236	3.38
596.573	2.93
596.91	2.94
597.247	3.32
597.584	2.99
597.921	3.14
598.258	3.18
598.594	3.02
598.931	2.96
599.268	2.96
599.604	3.25
599.941	3.01
600.277	3.06
600.614	2.97
600.95	3.19
601.287	2.72
601.623	2.89
601.959	3.48
602.296	3.09
602.632	2.93
602.968	3.09
603.304	2.98
603.64	2.95
603.976	2.88
604.312	3.01
604.648	3.22
604.984	3.11
605.319	3.12
605.655	3.06
605.991	2.9
606.326	3.17
606.662	3.01
606.998	3.22
607.333	3.06
607.668	2.83
608.004	3.17
608.339	2.86
608.674	3.15
609.01	3.26
609.345	2.99
609.68	2.89
610.015	3.17
610.35	3.16
610.685	2.78
611.02	2.99
611.355	3.03
611.689	3.05
612.024	3.13
612.359	3.22
612.694	3.22
613.028	3.17
613.363	3.07
613.697	3.01
614.032	2.92
614.366	3.13
614.7	3.24
615.035	3.27
615.369	3.22
615.703	2.92
616.037	3.11
616.371	3.09
616.705	3.31
617.039	2.87
617.373	3.2
617.707	3.12
618.041	2.73
618.375	2.7
618.709	3.19
619.042	3.12
619.376	3.34
619.71	3.17
620.043	3.29
620.377	3.17
620.71	3.21
621.043	3.13
621.377	3.18
621.71	3.28
622.043	3.34
622.376	3.18
622.709	3.56
623.043	2.87
623.376	3.05
623.709	3.25
624.041	2.88
624.374	3.04
624.707	2.99
625.04	3.29
625.373	3.2
625.705	3.4
626.038	2.88
626.37	3.04
626.703	3.08
627.035	3.21
627.368	3.06
627.7	3.03
628.032	3.14
628.365	3.31
628.697	3.32
629.029	3.06
629.361	3.24
629.693	3.08
630.025	3.16
630.357	3.09
630.689	3.05
631.021	2.97
631.353	3.37
631.684	2.97
632.016	2.95
632.348	2.92
632.679	3.17
633.011	2.99
633.342	3.18
633.674	2.97
634.005	3.02
634.336	3.42
634.668	3.14
634.999	2.95
635.33	3.3
635.661	2.84
635.992	3.15
636.323	2.93
636.654	3.21
636.985	2.96
637.316	3.18
637.647	3.18
637.977	3.05
638.308	3.25
638.639	2.95
638.969	2.93
639.3	3.37
639.63	2.74
639.961	3.01
640.291	3.37
640.622	3.25
640.952	3.05
641.282	2.73
641.612	3.01
641.943	3.16
642.273	3.17
642.603	3.27
642.933	3.32
643.263	3.45
643.592	3.63
643.922	3.66
644.252	3.36
644.582	3.3
644.911	3.66
645.241	2.81
645.571	3.01
645.9	3.41
646.23	3.55
646.559	3.46
646.888	3.77
647.218	3.64
647.547	3.28
647.876	3.28
648.205	3.03
648.534	3.28
648.863	2.87
649.192	3.09
649.521	3.4
649.85	3.19
650.179	3.28
650.508	3.2
650.837	3.09
651.165	3.26
651.494	3.53
651.822	2.98
652.151	2.86
652.479	3.15
652.808	3.19
653.136	2.8
653.465	2.97
653.793	2.94
654.121	2.97
654.449	3.03
654.777	2.58
655.105	2.86
655.433	3.5
655.761	3.05
656.089	3.29
656.417	3.42
656.745	3.51
657.073	2.97
657.4	3.03
657.728	2.75
658.056	3.56
658.383	2.79
658.711	3.02
659.038	3.5
659.365	3.41
659.693	3.07
660.02	3.14
660.347	2.86
660.674	3.08
661.001	3.21
661.329	2.86
661.656	2.95
661.982	3.13
662.309	2.82
662.636	3.05
662.963	3.14
663.29	3.17
663.616	2.88
663.943	3.07
664.27	3.21
664.596	3.16
664.923	3.32
665.249	3.04
665.576	3.12
665.902	2.93
666.228	3.74
666.554	3.99
666.881	3.31
667.207	3.2
667.533	3.66
667.859	3.48
668.185	3.5
668.511	3.35
668.837	2.97
669.162	3.23
669.488	2.71
669.814	3.06
670.139	2.67
670.465	3.53
670.791	2.61
671.116	2.91
671.442	2.73
671.767	3.44
672.092	3.01
672.418	3.28
672.743	3
673.068	2.98
673.393	3.8
673.718	2.95
674.043	2.92
674.368	3.26
674.693	2.96
675.018	3.46
675.343	3.99
675.667	3.53
675.992	3.34
676.317	2.64
676.641	3.4
676.966	3.34
677.29	3.17
677.615	3
677.939	3.25
678.264	2.77
678.588	3.99
678.912	3.42
679.236	2.46
679.56	2.51
679.885	2.46
680.209	3.62
680.532	3.86
680.856	3.45
681.18	3.77
681.504	3.32
681.828	3
682.152	2.99
682.475	2.96
682.799	3.19
683.122	3.34
683.446	2.66
683.769	3.8
684.093	3.99
684.416	3.07
684.739	2.92
685.062	3.05
685.386	3.58
685.709	3.6
686.032	3.47
686.355	3.04
686.678	3.75
687.001	3.58
687.324	3.35
687.646	3.67
687.969	3.36
688.292	3.64
688.614	3.5
688.937	3.57
689.26	3.97
689.582	3.39
689.904	3.44
690.227	3.68
690.549	3.74
690.871	3.2
691.194	3.16
691.516	3.73
691.838	3.6
692.16	3.7
692.482	2.85
692.804	3.75
693.126	3.08
693.448	3.3
693.769	3.12
694.091	3.02
694.413	3.78
694.735	3.01
695.056	3.33
695.378	3.19
695.699	3.26
696.021	3.05
696.342	3.35
696.663	3.71
696.984	2.93
697.306	2.79
697.627	3.91
697.948	3.78
698.269	2.94
698.59	3.48
698.911	2.74
699.232	4.02
699.553	3.67
699.873	3.27
700.194	3.37
700.515	3.3
700.835	3.43
701.156	3.77
701.477	3.01
701.797	2.87
702.117	3.03
702.438	3.48
702.758	3.29
703.078	3.47
703.398	2.62
703.719	4.21
704.039	3.63
704.359	3.15
704.679	2.95
704.999	3.74
705.319	2.44
705.638	3.24
705.958	2.73
706.278	3.16
706.597	3.01
706.917	3.42
707.237	4.03
707.556	3.28
707.876	3.9
708.195	4.15
708.514	3.74
708.834	3.76
709.153	3.42
709.472	4.46
709.791	2.33
710.11	3.26
710.429	4.38
710.748	4.26
711.067	4.44
711.386	3.42
711.705	3.04
712.023	4.43
712.342	2.4
712.661	3.83
712.979	3.26
713.298	3.55
713.616	3.62
713.935	3.55
714.253	3.19
714.572	3.01
714.89	3.92
715.208	2.72
715.526	3.91
715.844	2.62
716.162	3.34
716.48	3.26
716.798	3.65
717.116	3.79
717.434	2.33
717.752	3.16
718.069	3.59
718.387	3.54
718.705	3.77
719.022	3.78
719.34	2.79
719.657	3.82
719.975	3.27
720.292	2.91
720.609	2.17
720.927	3.3
721.244	4.26
721.561	3.01
721.878	4.84
722.195	4.42
722.512	4.12
722.829	2.96
723.146	2.71
723.463	3.94
723.779	2.31
724.096	3.44
724.413	4.28
724.729	3.64
725.046	3.3
725.362	3.5
725.679	3.33
725.995	3
726.311	3.15
726.628	3.04
726.944	4.12
727.26	3.53
727.576	2.67
727.892	3.5
728.208	2.53
728.524	2.5
728.84	3.44
729.156	3.07
729.472	2.66
729.787	3.02
730.103	3.31
730.419	2.69
730.734	3.64
731.05	3.42
731.365	4.39
731.681	3.06
731.996	4.09
732.311	2.52
732.626	3.6
732.942	4.4
733.257	2.98
733.572	2.97
733.887	3.53
734.202	3.73
734.517	3.07
734.832	3.12
735.146	4.13
735.461	3.4
735.776	3.71
736.091	4.71
736.405	3.23
736.72	3.61
737.034	3.96
737.349	3.89
737.663	4
737.977	4.18
738.292	3.42
738.606	4.45
738.92	4.09
739.234	3.94
739.548	4.77
739.862	4.06
740.176	3.66
740.49	4.15
740.804	4.38
741.117	3.25
741.431	4
741.745	3.63
742.058	3.68
742.372	2.23
742.685	4.43
742.999	2.76
743.312	3.83
743.626	4.8
743.939	1.93
744.252	3.96
744.565	4.06
744.878	3.33
745.191	3.92
745.505	3.66
745.817	4.44
746.13	4.61
746.443	2.94
746.756	5.06
747.069	3.24
747.381	3.97
747.694	3.69
748.007	4.01
748.319	4.75
748.632	3.59
748.944	4.7
749.256	3.8
749.569	3.1
749.881	4.27
750.193	5.6
750.505	4.73
750.817	3.83
751.129	5.07
751.441	3.6
751.753	3.59
752.065	3.82
752.377	3.86
752.689	3.17
753	3.13
753.312	3.74
753.624	3.43
753.935	2.37
754.247	3.07
754.558	4.93
754.869	5.07
755.181	3.5
755.492	4.61
755.803	4.54
756.114	3.36
756.425	2.91
756.736	4.88
757.047	4.47
757.358	3.64
757.669	3.14
757.98	2.02
758.291	3.94
758.601	3.97
758.912	3.21
759.223	3.25
759.533	4.34
759.844	2.98
760.154	3.75
760.464	4.98
760.775	5.72
761.085	5.13
761.395	3.37
761.705	2.86
762.016	3.18
762.326	4.7
762.636	4.41
762.945	4.23
763.255	2.67
763.565	5.36
763.875	2.2
764.185	5.28
764.494	3.9
764.804	3.28
765.113	4.14
765.423	3.99
765.732	3.86
766.042	4.63
766.351	5.25
766.66	4.13
766.97	4.16
767.279	4.11
767.588	2.05
767.897	4.12
768.206	3.97
768.515	3.8
768.824	4.31
769.133	2.86
769.441	2.81
769.75	3.23
770.059	4.69
770.367	4.28
770.676	5.59
770.984	1.55
771.293	4.05
771.601	2.09
771.91	4.89
772.218	3.3
772.526	2.48
772.834	1.27
773.142	3.01
773.45	5.75
773.758	3.67
774.066	3.48
774.374	5.81
774.682	2.54
774.99	0.44
775.298	3.64
775.605	3.46
775.913	-1
776.22	3.66
776.528	1.83
776.835	7.91
777.143	8.08
777.45	1.71
777.757	5.9
778.065	3.24
778.372	4.01
778.679	7.06
778.986	6.16
779.293	3.28
779.6	7.21
779.907	2.46
780.214	3.24
780.52	5.78
780.827	1.99
781.134	5.16
781.44	6.82
781.747	4.8
782.053	2.31
782.36	0.85
782.666	3.93
782.973	1.38
783.279	3.38
783.585	4.54
783.891	5.95
784.197	3.04
784.503	4.07
784.809	6.86
785.115	6.67
785.421	5.95
785.727	3.31
786.033	4.34
786.339	7.61
786.644	0.99
786.95	4.18
787.255	4.17
787.561	1.78
787.866	5.08
788.172	4.21
788.477	5.36
788.782	3.09
789.088	-2.05
789.393	6.31
789.698	0.17
790.003	3.46
790.308	5.48
790.613	6.07
790.918	2.72
791.223	6.48
791.527	5.15
791.832	4.8
792.137	5.47
792.441	2.48
792.746	1.69
793.05	3.57
793.355	5.75
793.659	7.18
793.963	2.82
794.268	4.58
794.572	5.56
794.876	5.33
795.18	6.87
795.484	4.51
795.788	5.29
796.092	3.67
796.396	3.2
796.7	1.87
797.004	1.55
797.307	2.55
797.611	3.07
797.915	2.28
798.218	0.89
798.522	-1.55
798.825	9.98
799.128	5.21
799.432	-0.84
799.735	-1.13
800.038	4.02
800.341	6.27
800.644	3.62
800.947	0.71
801.25	2.3
801.553	10.25
801.856	6.67
802.159	2.18
802.462	5.3
802.764	5.75
803.067	5.64
803.37	2.8
803.672	2.14
803.975	4.61
804.277	4.36
804.579	5.44
804.882	7.99
805.184	5.97
805.486	8.57
805.788	8.23
806.09	0.91
806.392	6.83
806.694	4.8
806.996	6.56
807.298	-0.38
807.6	10.25
807.902	3.48
808.203	-0.03
808.505	0.04
808.807	6.57
809.108	6.79
809.409	5.45
809.711	6.11
810.012	1.94
810.313	7.07
810.615	0.88
810.916	6.91
811.217	0.81
811.518	3.1
811.819	2.32
812.12	8.03
812.421	-1.14
812.722	5.3
813.023	8.35
813.323	3.36
813.624	8.43
813.925	1.7
814.225	11.32
814.526	0.47
814.826	1.78
815.126	1.67
815.427	9.55
815.727	6.88
816.027	6.96
816.327	6.48
816.627	8.06
816.927	1.02
817.227	4.99
817.527	4.21
817.827	4.79
818.127	4.98
818.427	-0.27
818.727	-0.2
819.026	-1.44
819.326	-1.69
819.625	2.09
819.925	4.8
820.224	10.22
820.524	5.96
820.823	5.13
821.122	1.16
821.421	1.81
821.72	0.59
822.019	2.02
822.318	5.78
822.617	4.93
822.916	1.49
823.215	3.46
823.514	5.66
823.813	3.7
824.111	4.58
824.41	3.99
824.709	4.2
825.007	4.07
825.306	4.49
825.604	4.4
825.902	5.07
826.201	5.5
826.499	4.54
826.797	4.44
827.095	5.77
827.393	6.41
827.691	6.74
827.989	4.92
828.287	2.31
828.585	3.81
828.882	3.92
829.18	3.05
829.478	5.51
829.775	4.67
830.073	3.95
830.37	3.63
830.668	3.59
830.965	3.78
831.263	4.94
831.56	7.42
831.857	6.43
832.154	6.12
832.451	5.9
832.748	7.13
833.045	6.9
833.342	-1.18
833.639	2.39
833.936	4.98
834.232	3.09
834.529	3.48
834.826	10.87
835.122	1.54
835.419	9.54
835.715	1.98
836.012	4.33
836.308	5.82
836.604	2.53
836.901	1.97
837.197	5.91
837.493	5.36
837.789	5.37
838.085	1.58
838.381	5.7
838.677	6.26
838.972	1.75
839.268	3.92
839.564	3.15
839.86	2.54
840.155	8.21
840.451	5.63
840.746	5.43
841.042	0.88
841.337	7.6
841.632	5.42
841.928	-3.55
842.223	6.52
842.518	6.45
842.813	4.27
843.108	4.99
843.403	0.86
843.698	1.75
843.993	7.65
844.287	6.64
844.582	8.79
844.877	9.41
845.171	4.64
845.466	4.67
845.761	-3.7
846.055	14
846.349	-1.45
846.644	3.57
846.938	9.1
847.232	1.06
847.526	15.01
847.82	2.91
848.114	2.09
848.408	-2.41
848.702	16.12
848.996	13.2
849.29	20.27
849.584	-4.74
849.877	10.96
850.171	18.92
850.465	19.4
850.758	-14.38
851.052	13.41
851.345	7.02
851.638	-8.66
851.932	6.68
852.225	27.06
852.518	5.5
852.811	-0.55
853.104	7.85
853.397	3.81
853.69	18.66
853.983	-1.82
854.276	10.91
854.569	-9.47
854.861	-5.42
855.154	8.26
855.447	10.97
855.739	-21.57
856.032	6.73
856.324	-1.09
856.616	18.81
856.909	14.82
857.201	-20.26
857.493	-3.89
857.785	4.55
858.077	5.9
858.369	3.97
858.661	6.99
858.953	15.96
859.245	11.23
859.537	-10.11
859.829	-9.56
860.12	5.58
860.412	4.78
860.703	11.42
860.995	10.35
861.286	-13.62
861.578	7.91
861.869	16.45
862.16	13.09
862.452	-17.37
862.743	-4.71
863.034	9.97
863.325	14.39
863.616	0.04
863.907	19.76
864.198	-15.84
864.488	18.42
864.779	-7.17
865.07	11.35
865.36	13.25
865.651	8.75
865.941	20.84
866.232	19.73
866.522	-6.93
866.813	2.59
867.103	-12.64
867.393	15.64
867.683	-3.12
867.973	20.48
868.263	-2.53
868.553	20.74
868.843	3.36
869.133	0.27
869.423	-8.37
869.713	-5.09
870.002	14.24
870.292	13
870.582	14.45
870.871	1.19
871.161	-11.63
871.45	3.72
871.739	20.33
872.029	11.86
872.318	11.58
872.607	18.96
872.896	-0.27
873.185	-5.52
873.474	-21.57
873.763	12.85
874.052	8.6
874.341	-2.87
874.63	3.1
874.918	15.94
875.207	0.37
875.496	9.98
875.784	1.14
876.073	9.41
876.361	33.81
876.649	-5.08
876.938	-1.79
877.226	4.29
877.514	22.62
877.802	-8.58
878.09	-13.86
878.378	12.22
878.666	10.02
878.954	25.75
879.242	24.29
879.53	-6.76
879.817	-14.85
880.105	-2.04
880.392	3.36
880.68	-6.29
880.967	-1.02
881.255	11.99
881.542	1.58
881.83	15.68
882.117	-4.41
882.404	-13.5
882.691	4.03
882.978	19.9
883.265	5.45
883.552	12.98
883.839	3.4
884.126	8.26
884.413	6.83
884.699	6.17
884.986	5.92
885.273	10.77
885.559	10.77
885.846	10.77
