Data from 434_chest_Reflection__1__248.txt Node

Date: Fri Dec 15 18:34:17 CST 2023
User: ToomeyLab
Spectrometer: FLMS14357
Trigger mode: 0
Integration Time (sec): 1.000000E-2
Scans to average: 100
Electric dark correction enabled: true
Nonlinearity correction enabled: false
Boxcar width: 0
XAxis mode: Wavelengths
Number of Pixels in Spectrum: 2048
>>>>>Begin Spectral Data<<<<<
189.047	28.88
189.435	28.88
189.823	28.88
190.211	87.19
190.599	6.65
190.987	69.59
191.375	-70.09
191.763	-41.05
192.151	69.68
192.538	140.07
192.926	-1151.13
193.314	77.69
193.702	-478.65
194.089	-274.5
194.477	-101.65
194.864	138.88
195.252	95.12
195.639	83.3
196.027	-9.84
196.414	373.32
196.801	3194.51
197.189	46.99
197.576	120.88
197.963	-111.94
198.351	-10.81
198.738	-22.03
199.125	3.16
199.512	-72.19
199.899	-1.97
200.286	26.2
200.673	10.02
201.06	39.55
201.447	3.56
201.833	60.22
202.22	28.92
202.607	22.76
202.994	41.5
203.38	-20.9
203.767	18.75
204.154	20.87
204.54	19.73
204.927	-30.06
205.313	-34.21
205.699	54.42
206.086	14.11
206.472	19.66
206.858	16.95
207.245	10.24
207.631	13.5
208.017	-2.55
208.403	11.38
208.789	23.77
209.175	5.91
209.561	-42.46
209.947	-17.16
210.333	-45.35
210.719	20.61
211.105	46.46
211.491	9.73
211.876	2.22
212.262	14.47
212.648	-15.01
213.034	23.36
213.419	-40.73
213.805	16.3
214.19	-22.27
214.576	15.06
214.961	32.53
215.346	-42.82
215.732	-14.17
216.117	29.53
216.502	-31.17
216.888	-5.3
217.273	23.61
217.658	2.52
218.043	-0.94
218.428	-69.99
218.813	-8.56
219.198	-9.6
219.583	9.98
219.968	8.26
220.353	-27.98
220.738	39.97
221.122	12.81
221.507	-16.47
221.892	-13.81
222.276	-35.19
222.661	-2.39
223.046	-0.08
223.43	4.16
223.815	10.18
224.199	-12.5
224.583	0.64
224.968	-2.63
225.352	3.42
225.736	-4.12
226.121	-3.31
226.505	6.31
226.889	9.53
227.273	2.3
227.657	13.29
228.041	4
228.425	-0.31
228.809	7.61
229.193	3.58
229.577	1.98
229.961	5.2
230.344	4.19
230.728	3.36
231.112	4.19
231.495	4.29
231.879	3.06
232.263	4.46
232.646	4.73
233.03	3.78
233.413	3.85
233.797	5.46
234.18	3.1
234.563	3.38
234.946	3.28
235.33	7.41
235.713	3.47
236.096	3.63
236.479	5.04
236.862	2.38
237.245	5.05
237.628	1.92
238.011	5.77
238.394	5.4
238.777	4.2
239.16	1.67
239.543	4.9
239.925	5.37
240.308	3.22
240.691	4.52
241.073	5.66
241.456	3.58
241.838	2.82
242.221	3.7
242.603	4.56
242.986	4.79
243.368	4.79
243.75	4.97
244.133	3.93
244.515	4.9
244.897	4.13
245.279	4.49
245.661	3.85
246.043	3.43
246.425	3.37
246.807	4.87
247.189	4.08
247.571	4.51
247.953	4.9
248.335	4.32
248.717	4.31
249.098	4.38
249.48	4.19
249.862	4.11
250.243	4.3
250.625	3.97
251.006	4.71
251.388	3.09
251.769	4.52
252.151	5.57
252.532	4.62
252.913	4.06
253.295	3.82
253.676	4.24
254.057	4.59
254.438	4.33
254.819	3.77
255.2	4.06
255.581	3.84
255.962	3.47
256.343	3.39
256.724	3.71
257.105	4.03
257.486	3.87
257.867	4.19
258.247	4.04
258.628	3.65
259.009	4.15
259.389	4.12
259.77	4.04
260.15	4.42
260.531	3.3
260.911	4.76
261.292	4.02
261.672	4.38
262.052	4.22
262.432	4.3
262.813	4.21
263.193	3.8
263.573	3.67
263.953	3.6
264.333	4.7
264.713	4.7
265.093	3.92
265.473	3.35
265.853	3.11
266.233	3.53
266.612	1.81
266.992	2.98
267.372	4.42
267.752	3.17
268.131	3.94
268.511	4.76
268.89	3.98
269.27	4.05
269.649	3.09
270.029	3.38
270.408	5.2
270.787	3.54
271.167	4.59
271.546	4.71
271.925	2.33
272.304	3.69
272.683	3.43
273.062	3.68
273.441	4.3
273.82	3.29
274.199	4.06
274.578	4.29
274.957	4.1
275.336	3.86
275.715	3.73
276.093	3
276.472	4.04
276.851	3.42
277.229	3.61
277.608	3.73
277.986	3.33
278.365	3.99
278.743	3.12
279.122	3.72
279.5	3.71
279.878	3.08
280.257	3.34
280.635	3.43
281.013	3.92
281.391	3.35
281.769	3.98
282.147	3.31
282.525	4.9
282.903	3.75
283.281	4.08
283.659	4.25
284.037	3.59
284.415	3.79
284.792	4.37
285.17	2.8
285.548	2.9
285.925	3.7
286.303	3.77
286.68	3.89
287.058	4.02
287.435	3.51
287.813	4
288.19	3.32
288.567	3.58
288.945	3.99
289.322	3.63
289.699	3.43
290.076	3.94
290.453	3.66
290.83	3.5
291.207	3.48
291.584	3.93
291.961	4.27
292.338	4.14
292.715	4.26
293.092	3.88
293.469	4.11
293.845	3.94
294.222	3.67
294.599	3.45
294.975	3.88
295.352	4.66
295.728	3.33
296.105	3.88
296.481	3.96
296.858	4.38
297.234	3.93
297.61	4.15
297.986	4.13
298.363	4.41
298.739	4.28
299.115	4.13
299.491	4.28
299.867	3.92
300.243	4.35
300.619	3.59
300.995	3.84
301.371	4.38
301.746	4.49
302.122	5.13
302.498	4.41
302.874	4.14
303.249	4.95
303.625	3.93
304	4.96
304.376	3.92
304.751	3.34
305.127	4.48
305.502	3.71
305.878	3.83
306.253	4.27
306.628	4.86
307.003	4.48
307.378	5.09
307.754	3.97
308.129	3.7
308.504	4.44
308.879	4.11
309.254	5.82
309.629	5.25
310.003	4.65
310.378	4.85
310.753	4.67
311.128	4.78
311.502	4.83
311.877	4.66
312.252	4.21
312.626	5.01
313.001	5.04
313.375	5.2
313.75	4.3
314.124	4.97
314.498	4.34
314.873	4.88
315.247	4.07
315.621	5.02
315.995	4.34
316.369	4.72
316.743	4.65
317.117	4.88
317.491	4.57
317.865	4.95
318.239	4.73
318.613	5.21
318.987	4.91
319.361	4.01
319.734	5.38
320.108	4.98
320.482	4.51
320.855	4.95
321.229	5.13
321.602	4.67
321.976	5.39
322.349	5.3
322.723	3.97
323.096	5.94
323.469	5.44
323.843	5.26
324.216	5.32
324.589	5.12
324.962	5.39
325.335	5.05
325.708	5.13
326.081	5.17
326.454	5.38
326.827	4.95
327.2	5.34
327.573	5.49
327.945	5.23
328.318	5.03
328.691	4.72
329.063	5.11
329.436	4.93
329.809	5.25
330.181	5.23
330.553	5.3
330.926	5.47
331.298	5.05
331.671	5.04
332.043	5.19
332.415	5.77
332.787	5.57
333.159	5.56
333.532	6.11
333.904	4.94
334.276	4.86
334.648	5.54
335.02	5.47
335.391	5.1
335.763	5.15
336.135	5.38
336.507	5.87
336.879	5.71
337.25	4.74
337.622	5.14
337.993	5.31
338.365	5.27
338.736	5.37
339.108	5.65
339.479	5.11
339.851	5.35
340.222	4.95
340.593	5.4
340.964	5.17
341.336	6.06
341.707	4.9
342.078	5.99
342.449	5.79
342.82	5.28
343.191	5.4
343.562	5.72
343.933	5.66
344.303	5.31
344.674	5.51
345.045	5.88
345.416	5.79
345.786	5.02
346.157	5.51
346.527	4.79
346.898	5.23
347.268	5.88
347.639	5.52
348.009	5.41
348.38	4.99
348.75	5.35
349.12	5.02
349.49	5.43
349.861	5.67
350.231	5.62
350.601	5.34
350.971	5.49
351.341	5.62
351.711	5.68
352.081	5.82
352.45	5.67
352.82	5.37
353.19	5.27
353.56	5.16
353.929	5.81
354.299	5.05
354.669	5.21
355.038	6.12
355.408	5.6
355.777	5.86
356.147	5.39
356.516	5.6
356.885	5.8
357.254	5.57
357.624	5.93
357.993	5.71
358.362	5.39
358.731	4.9
359.1	5.8
359.469	5.58
359.838	5.6
360.207	5.38
360.576	5.15
360.945	5.61
361.314	6.05
361.682	5.42
362.051	5.29
362.42	5.55
362.788	5.33
363.157	5.71
363.525	6.09
363.894	5.97
364.262	5.69
364.631	5.48
364.999	5.89
365.367	5.36
365.735	6.15
366.104	5.74
366.472	5.92
366.84	5.63
367.208	5.66
367.576	5.78
367.944	5.76
368.312	5.58
368.68	5.51
369.048	5.81
369.416	6.01
369.783	5.28
370.151	5.75
370.519	6.14
370.886	5.92
371.254	5.7
371.621	6.09
371.989	5.99
372.356	5.45
372.724	6.13
373.091	5.77
373.458	5.71
373.826	5.57
374.193	5.7
374.56	6.2
374.927	5.79
375.294	5.72
375.661	6.04
376.028	5.53
376.395	5.57
376.762	5.71
377.129	5.74
377.496	5.73
377.863	5.69
378.229	5.73
378.596	5.73
378.963	6.08
379.329	5.52
379.696	5.74
380.062	5.99
380.429	5.98
380.795	5.9
381.161	5.97
381.528	6.22
381.894	5.66
382.26	5.54
382.626	5.71
382.993	5.51
383.359	6.07
383.725	5.67
384.091	5.93
384.457	5.81
384.823	6.01
385.188	6.02
385.554	6.07
385.92	6.08
386.286	6.11
386.651	6.14
387.017	5.96
387.383	5.91
387.748	5.84
388.114	6.4
388.479	6.05
388.845	6.08
389.21	6.41
389.575	6.33
389.94	6.28
390.306	5.92
390.671	6.04
391.036	5.76
391.401	6
391.766	6.22
392.131	5.71
392.496	6.08
392.861	6.15
393.226	6.25
393.591	6.11
393.956	6.06
394.32	6.19
394.685	5.84
395.05	5.75
395.414	5.88
395.779	5.9
396.143	6.01
396.508	6.02
396.872	6.27
397.236	6.26
397.601	5.81
397.965	5.97
398.329	6.31
398.694	6.01
399.058	6.03
399.422	6.01
399.786	6.36
400.15	6.08
400.514	6.15
400.878	6.18
401.242	6.23
401.605	6.21
401.969	6.28
402.333	5.88
402.697	6.3
403.06	6.21
403.424	6.34
403.787	6.22
404.151	6.47
404.514	6.28
404.878	6.04
405.241	6.37
405.604	6.14
405.968	6.04
406.331	6.08
406.694	6.32
407.057	6.33
407.42	6.42
407.783	5.94
408.146	6.25
408.509	6.42
408.872	6.09
409.235	6
409.598	6.34
409.961	6.12
410.323	6.36
410.686	6.2
411.049	6.07
411.411	6.02
411.774	6.35
412.136	6.12
412.499	6.21
412.861	5.99
413.223	6.25
413.586	6.22
413.948	6.32
414.31	6.21
414.672	6.4
415.035	5.88
415.397	6.49
415.759	5.86
416.121	6.31
416.483	6.3
416.845	6.27
417.206	6.45
417.568	6.47
417.93	6.13
418.292	6.29
418.653	6.38
419.015	6.29
419.377	6.23
419.738	6.22
420.1	6.27
420.461	6.27
420.822	6.33
421.184	6.37
421.545	6.14
421.906	6.23
422.267	6.18
422.629	6.11
422.99	6.3
423.351	6.06
423.712	6.09
424.073	6.22
424.434	6.26
424.795	6.23
425.155	6.3
425.516	6.19
425.877	6.32
426.238	6.15
426.598	6.37
426.959	6.2
427.32	6.18
427.68	6.17
428.041	6.26
428.401	6.56
428.761	6.27
429.122	6.28
429.482	6.24
429.842	6.58
430.202	6.36
430.563	6.27
430.923	6.33
431.283	6.42
431.643	6.1
432.003	6.44
432.363	6.39
432.722	6.45
433.082	6.46
433.442	6.48
433.802	6.35
434.161	6.32
434.521	6.45
434.881	6.6
435.24	6.31
435.6	6.44
435.959	6.31
436.319	6.33
436.678	6.38
437.037	6.44
437.396	6.65
437.756	6.59
438.115	6.41
438.474	6.54
438.833	6.28
439.192	6.41
439.551	6.59
439.91	6.61
440.269	6.67
440.628	6.4
440.987	6.45
441.345	6.34
441.704	6.47
442.063	6.32
442.421	6.46
442.78	6.44
443.138	6.46
443.497	6.44
443.855	6.38
444.214	6.51
444.572	6.55
444.93	6.6
445.288	6.54
445.647	6.56
446.005	6.39
446.363	6.56
446.721	6.62
447.079	6.37
447.437	6.51
447.795	6.54
448.153	6.38
448.51	6.47
448.868	6.58
449.226	6.47
449.584	6.42
449.941	6.55
450.299	6.55
450.656	6.39
451.014	6.46
451.371	6.46
451.729	6.53
452.086	6.79
452.443	6.61
452.801	6.59
453.158	6.62
453.515	6.45
453.872	6.85
454.229	6.53
454.586	6.73
454.943	6.67
455.3	6.78
455.657	6.61
456.014	6.54
456.371	6.69
456.727	6.69
457.084	6.75
457.441	6.67
457.797	6.71
458.154	6.79
458.51	6.7
458.867	6.82
459.223	6.8
459.58	6.63
459.936	6.69
460.292	6.78
460.648	6.72
461.005	6.62
461.361	6.67
461.717	6.73
462.073	6.51
462.429	6.61
462.785	6.59
463.141	6.58
463.496	6.73
463.852	6.73
464.208	6.65
464.564	6.77
464.919	6.83
465.275	6.73
465.631	6.92
465.986	6.51
466.342	6.96
466.697	6.85
467.052	6.86
467.408	6.93
467.763	6.81
468.118	6.68
468.473	6.63
468.829	6.82
469.184	6.77
469.539	6.73
469.894	6.79
470.249	6.87
470.603	6.8
470.958	6.99
471.313	6.87
471.668	6.83
472.023	6.67
472.377	6.9
472.732	6.9
473.086	6.8
473.441	6.68
473.795	6.82
474.15	7.11
474.504	6.91
474.859	6.92
475.213	6.81
475.567	6.87
475.921	6.81
476.275	6.76
476.63	7.06
476.984	6.91
477.338	7.01
477.692	6.81
478.045	6.79
478.399	6.82
478.753	6.95
479.107	6.91
479.461	6.87
479.814	6.79
480.168	6.78
480.521	6.77
480.875	6.91
481.228	6.88
481.582	6.82
481.935	6.77
482.289	6.82
482.642	7.01
482.995	6.71
483.348	6.8
483.701	6.93
484.055	6.92
484.408	6.9
484.761	6.8
485.114	6.74
485.466	6.58
485.819	6.61
486.172	6.55
486.525	6.57
486.878	6.58
487.23	6.57
487.583	6.7
487.936	6.77
488.288	6.7
488.641	6.88
488.993	6.7
489.345	6.69
489.698	6.62
490.05	6.68
490.402	6.72
490.754	6.75
491.107	6.8
491.459	6.8
491.811	6.96
492.163	6.88
492.515	6.96
492.866	7.01
493.218	6.91
493.57	6.74
493.922	6.74
494.274	6.78
494.625	6.96
494.977	6.98
495.328	7.06
495.68	7.06
496.031	7.13
496.383	6.98
496.734	7.21
497.086	7.13
497.437	7.22
497.788	7.1
498.139	6.98
498.49	7.15
498.842	6.98
499.193	6.94
499.544	7.04
499.894	7.07
500.245	7.09
500.596	7.04
500.947	7.17
501.298	6.99
501.648	7.22
501.999	7.27
502.35	7.21
502.7	7.11
503.051	6.99
503.401	7.15
503.752	7.33
504.102	7.18
504.452	7.32
504.803	7.12
505.153	7
505.503	7.3
505.853	7.17
506.203	7.18
506.553	7.1
506.903	7.2
507.253	7.17
507.603	7.16
507.953	7.35
508.303	7.24
508.652	7.08
509.002	7.34
509.352	7.36
509.701	7.17
510.051	7.34
510.4	7.14
510.75	7.23
511.099	7.24
511.449	7.15
511.798	7.2
512.147	7.26
512.496	7.2
512.846	7.37
513.195	7.12
513.544	7.24
513.893	7.39
514.242	7.27
514.591	7.32
514.939	7.4
515.288	7.23
515.637	7.24
515.986	7.36
516.334	7.42
516.683	7.46
517.032	7.39
517.38	7.53
517.729	7.46
518.077	7.25
518.426	7.57
518.774	7.55
519.122	7.44
519.47	7.44
519.819	7.16
520.167	7.3
520.515	7.33
520.863	7.38
521.211	7.39
521.559	7.4
521.907	7.37
522.255	7.49
522.602	7.33
522.95	7.47
523.298	7.52
523.645	7.57
523.993	7.46
524.341	7.59
524.688	7.64
525.036	7.43
525.383	7.51
525.73	7.53
526.078	7.49
526.425	7.54
526.772	7.63
527.119	7.5
527.466	7.41
527.814	7.42
528.161	7.47
528.508	7.38
528.854	7.46
529.201	7.43
529.548	7.37
529.895	7.43
530.242	7.33
530.588	7.34
530.935	7.34
531.282	7.27
531.628	7.3
531.975	7.37
532.321	7.52
532.667	7.51
533.014	7.65
533.36	7.68
533.706	7.62
534.052	7.68
534.399	7.46
534.745	7.57
535.091	7.57
535.437	7.49
535.783	7.54
536.129	7.58
536.474	7.63
536.82	7.58
537.166	7.66
537.512	7.83
537.857	7.81
538.203	7.92
538.549	7.62
538.894	7.69
539.239	7.81
539.585	7.74
539.93	7.75
540.276	7.89
540.621	7.99
540.966	7.81
541.311	7.84
541.656	7.78
542.001	7.94
542.346	7.94
542.691	7.83
543.036	7.69
543.381	7.65
543.726	7.66
544.071	7.7
544.415	7.82
544.76	7.77
545.105	7.91
545.449	7.87
545.794	8.01
546.138	7.96
546.483	8.05
546.827	8.01
547.171	8.04
547.516	8.12
547.86	8.14
548.204	7.98
548.548	7.93
548.892	8.12
549.236	7.94
549.58	8.1
549.924	8.08
550.268	8.2
550.612	8.26
550.956	8.28
551.3	8.33
551.643	8.42
551.987	8.52
552.33	8.23
552.674	8.31
553.017	8.33
553.361	8.24
553.704	8.3
554.048	8.26
554.391	8.43
554.734	8.3
555.077	8.41
555.42	8.19
555.764	8.22
556.107	8.32
556.45	8.24
556.793	8.55
557.135	8.51
557.478	8.66
557.821	8.54
558.164	8.55
558.507	8.47
558.849	8.48
559.192	8.69
559.534	8.59
559.877	8.48
560.219	8.61
560.562	8.67
560.904	8.74
561.246	8.52
561.589	8.65
561.931	8.63
562.273	8.44
562.615	8.87
562.957	8.77
563.299	8.55
563.641	8.65
563.983	8.8
564.325	8.7
564.667	8.42
565.008	8.46
565.35	8.81
565.692	8.66
566.033	8.61
566.375	8.99
566.716	8.9
567.058	8.72
567.399	8.83
567.741	8.75
568.082	8.92
568.423	9.07
568.764	8.82
569.105	8.95
569.447	9.02
569.788	8.75
570.129	8.94
570.47	8.83
570.811	9.07
571.151	8.9
571.492	9.05
571.833	9.04
572.174	8.97
572.514	9.17
572.855	9.21
573.195	9.17
573.536	9.09
573.876	8.92
574.217	9.01
574.557	9.07
574.898	9.24
575.238	9.3
575.578	9.04
575.918	9.34
576.258	9.18
576.598	9.27
576.938	9.14
577.278	9.25
577.618	9.13
577.958	9.06
578.298	9.27
578.638	9.14
578.977	9.12
579.317	9.32
579.657	9.4
579.996	9.32
580.336	9.29
580.675	9.34
581.014	9.28
581.354	9.49
581.693	9.54
582.032	9.45
582.372	9.56
582.711	9.47
583.05	9.47
583.389	9.58
583.728	9.29
584.067	9.73
584.406	9.72
584.745	9.54
585.083	9.49
585.422	9.89
585.761	9.94
586.1	9.75
586.438	9.67
586.777	9.88
587.115	9.83
587.454	9.59
587.792	9.6
588.13	9.64
588.469	9.58
588.807	9.76
589.145	9.52
589.483	9.77
589.821	9.76
590.159	9.88
590.497	10.09
590.835	10.03
591.173	9.79
591.511	10.09
591.849	9.82
592.187	10.2
592.524	9.96
592.862	9.92
593.2	10.33
593.537	10.17
593.875	10.06
594.212	9.92
594.55	9.91
594.887	10.36
595.224	9.81
595.561	10.28
595.899	10.12
596.236	10.33
596.573	10.29
596.91	9.78
597.247	10.05
597.584	10.35
597.921	10.1
598.258	10.05
598.594	10.22
598.931	10.23
599.268	10.28
599.604	10.37
599.941	10.44
600.277	10.23
600.614	10.38
600.95	10.37
601.287	10.54
601.623	10.42
601.959	10.47
602.296	10.48
602.632	10.62
602.968	10.63
603.304	10.55
603.64	10.22
603.976	10.54
604.312	10.56
604.648	10.44
604.984	10.71
605.319	10.6
605.655	10.42
605.991	10.64
606.326	10.61
606.662	10.58
606.998	10.57
607.333	10.72
607.668	10.78
608.004	10.89
608.339	10.94
608.674	11.05
609.01	10.58
609.345	10.84
609.68	10.89
610.015	10.61
610.35	10.73
610.685	10.92
611.02	10.6
611.355	10.79
611.689	10.99
612.024	10.95
612.359	10.86
612.694	10.88
613.028	10.94
613.363	10.97
613.697	11.09
614.032	10.96
614.366	11.08
614.7	11.07
615.035	11.24
615.369	11.01
615.703	11.28
616.037	11.12
616.371	11.09
616.705	11.07
617.039	11.53
617.373	11.45
617.707	11.16
618.041	10.95
618.375	11.37
618.709	11.31
619.042	11.05
619.376	11.64
619.71	11.51
620.043	11.51
620.377	10.98
620.71	11.56
621.043	11.13
621.377	11.31
621.71	11.65
622.043	11.66
622.376	11.39
622.709	11.77
623.043	11.88
623.376	11.34
623.709	11.64
624.041	11.91
624.374	11.72
624.707	11.63
625.04	11.92
625.373	11.16
625.705	11.92
626.038	11.14
626.37	11.66
626.703	11.37
627.035	11.95
627.368	12.16
627.7	11.72
628.032	11.87
628.365	12.61
628.697	11.88
629.029	11.87
629.361	11.78
629.693	12.02
630.025	11.71
630.357	12.23
630.689	11.8
631.021	11.78
631.353	12.12
631.684	11.8
632.016	11.81
632.348	12.17
632.679	12.42
633.011	12.04
633.342	12.27
633.674	12.35
634.005	12.15
634.336	12.09
634.668	12.48
634.999	12.05
635.33	12.06
635.661	12.68
635.992	12.27
636.323	12.48
636.654	12.55
636.985	12.28
637.316	12.39
637.647	12.39
637.977	12.26
638.308	12.66
638.639	11.89
638.969	12.57
639.3	12.47
639.63	12.49
639.961	12.87
640.291	12.64
640.622	12.99
640.952	12.77
641.282	12.83
641.612	12.94
641.943	12.64
642.273	12.6
642.603	13.04
642.933	12.58
643.263	12.84
643.592	12.84
643.922	12.58
644.252	12.65
644.582	12.55
644.911	12.73
645.241	13.24
645.571	12.87
645.9	12.64
646.23	12.87
646.559	12.73
646.888	12.82
647.218	13.14
647.547	13.31
647.876	12.01
648.205	13.16
648.534	12.87
648.863	12.61
649.192	13.44
649.521	12.82
649.85	12.74
650.179	13.15
650.508	12.98
650.837	13.17
651.165	13.21
651.494	13.13
651.822	13.49
652.151	13.08
652.479	13.04
652.808	13.05
653.136	13.43
653.465	12.55
653.793	12.72
654.121	13.14
654.449	13.19
654.777	13.96
655.105	13.49
655.433	13.26
655.761	13.4
656.089	13.39
656.417	13.61
656.745	13.38
657.073	13.06
657.4	13.83
657.728	13.75
658.056	13.27
658.383	13.53
658.711	13.4
659.038	13.55
659.365	13.94
659.693	13.35
660.02	13.43
660.347	13.73
660.674	14.15
661.001	13.47
661.329	12.96
661.656	13.29
661.982	13.74
662.309	13.53
662.636	13.41
662.963	14.33
663.29	13.99
663.616	13.97
663.943	13.94
664.27	13.72
664.596	13.78
664.923	14.04
665.249	13.65
665.576	13.6
665.902	14.21
666.228	14.36
666.554	13.87
666.881	14.04
667.207	13.93
667.533	13.84
667.859	13.95
668.185	13.98
668.511	13.14
668.837	13.73
669.162	13.93
669.488	14.26
669.814	14.38
670.139	14.15
670.465	14.88
670.791	14.33
671.116	14.83
671.442	14
671.767	14.11
672.092	14.23
672.418	14.22
672.743	14.68
673.068	14.26
673.393	14.57
673.718	14.53
674.043	14.55
674.368	14.39
674.693	14.5
675.018	14.45
675.343	14.17
675.667	14.03
675.992	14.43
676.317	14.54
676.641	14.12
676.966	14.9
677.29	14.4
677.615	15.52
677.939	15.77
678.264	15.29
678.588	14.74
678.912	15.28
679.236	14.87
679.56	14.47
679.885	15.6
680.209	14.32
680.532	14.46
680.856	15.71
681.18	14.67
681.504	15.43
681.828	15.41
682.152	14.41
682.475	15.03
682.799	15.35
683.122	15.47
683.446	14.6
683.769	15.76
684.093	14.79
684.416	15.65
684.739	14.69
685.062	15.45
685.386	16.21
685.709	14.69
686.032	15.43
686.355	16.22
686.678	15.62
687.001	15.76
687.324	16.11
687.646	14.77
687.969	14.99
688.292	15.34
688.614	15.61
688.937	15.87
689.26	15.27
689.582	15.23
689.904	15.41
690.227	15.86
690.549	15.64
690.871	16.16
691.194	14.97
691.516	14.73
691.838	16.16
692.16	15.07
692.482	15.53
692.804	15.97
693.126	15.89
693.448	16.62
693.769	15.8
694.091	15.75
694.413	16.4
694.735	15.1
695.056	16.18
695.378	15.29
695.699	15.3
696.021	14.75
696.342	15
696.663	15.41
696.984	15.88
697.306	15.92
697.627	15.8
697.948	17.06
698.269	15.88
698.59	16.07
698.911	15.9
699.232	14.77
699.553	15.83
699.873	16.13
700.194	17.23
700.515	16.34
700.835	16.06
701.156	16.16
701.477	16.29
701.797	15.73
702.117	16.33
702.438	16.36
702.758	16.2
703.078	15.19
703.398	15.33
703.719	16.11
704.039	14.59
704.359	17.09
704.679	16.22
704.999	15.82
705.319	16.07
705.638	15.93
705.958	16.79
706.278	16.34
706.597	16.77
706.917	16.04
707.237	15.53
707.556	15.86
707.876	15.71
708.195	16.08
708.514	16.67
708.834	16.54
709.153	15.97
709.472	16.65
709.791	17.27
710.11	16.59
710.429	16.49
710.748	17.21
711.067	15.66
711.386	16.77
711.705	17.09
712.023	17.04
712.342	15.94
712.661	16.1
712.979	16.84
713.298	16.04
713.616	16.85
713.935	16.78
714.253	15.46
714.572	17.3
714.89	16.03
715.208	17.88
715.526	16.48
715.844	17.67
716.162	17.43
716.48	17.87
716.798	17.1
717.116	17.53
717.434	16.08
717.752	15.09
718.069	17.84
718.387	16.74
718.705	16.58
719.022	15.77
719.34	16.42
719.657	16.81
719.975	16.96
720.292	16.81
720.609	18.12
720.927	16.89
721.244	18.64
721.561	16.51
721.878	16.91
722.195	14.79
722.512	18.61
722.829	16.94
723.146	17.65
723.463	17.11
723.779	16.95
724.096	17.97
724.413	17.7
724.729	16.57
725.046	15.74
725.362	17.57
725.679	16.96
725.995	17.12
726.311	16.59
726.628	17.84
726.944	18.91
727.26	17.41
727.576	17.38
727.892	17.81
728.208	17.64
728.524	16.7
728.84	16.61
729.156	18.55
729.472	17.55
729.787	18.02
730.103	17.71
730.419	18.09
730.734	16.61
731.05	17.85
731.365	16.59
731.681	17.47
731.996	17.85
732.311	17.21
732.626	19.11
732.942	17.27
733.257	18.35
733.572	18.53
733.887	16.65
734.202	18.15
734.517	17.16
734.832	18.24
735.146	17.76
735.461	18.04
735.776	17.1
736.091	17.09
736.405	18.75
736.72	17.8
737.034	17.98
737.349	19.76
737.663	18.63
737.977	17.67
738.292	18.15
738.606	18.31
738.92	20.67
739.234	17.85
739.548	17.73
739.862	16.07
740.176	17.91
740.49	18.4
740.804	20.61
741.117	18.43
741.431	17.32
741.745	17.55
742.058	17.74
742.372	17.68
742.685	17.52
742.999	15.95
743.312	18.7
743.626	17.5
743.939	17.94
744.252	18.24
744.565	18.6
744.878	17.73
745.191	19.21
745.505	17.37
745.817	19.23
746.13	20.12
746.443	18.02
746.756	19.86
747.069	17.78
747.381	20.77
747.694	17.78
748.007	21.33
748.319	18.6
748.632	18.14
748.944	17.42
749.256	19.36
749.569	19.03
749.881	19.55
750.193	18.81
750.505	18.15
750.817	19.1
751.129	18.93
751.441	18.14
751.753	19.57
752.065	19.71
752.377	18.44
752.689	19.82
753	18.49
753.312	18.91
753.624	17.89
753.935	19.91
754.247	19.61
754.558	20.04
754.869	20.54
755.181	19.2
755.492	18.23
755.803	17.21
756.114	18.75
756.425	18.1
756.736	17.74
757.047	21.17
757.358	20.45
757.669	17.96
757.98	19.01
758.291	18.36
758.601	18.99
758.912	19.97
759.223	21.42
759.533	18.13
759.844	19.04
760.154	18.85
760.464	20.38
760.775	17.4
761.085	18.68
761.395	20.64
761.705	17.25
762.016	18.54
762.326	17.6
762.636	19.42
762.945	19.38
763.255	19.45
763.565	18.65
763.875	19.08
764.185	18.69
764.494	20.22
764.804	18.9
765.113	19.75
765.423	18.43
765.732	20.97
766.042	19.72
766.351	19.02
766.66	20.43
766.97	20.57
767.279	17.89
767.588	20.7
767.897	20.8
768.206	20.16
768.515	19.11
768.824	19.19
769.133	20.1
769.441	20.75
769.75	18.72
770.059	19.75
770.367	19.36
770.676	19.53
770.984	19.7
771.293	17.51
771.601	20.06
771.91	16.33
772.218	22.83
772.526	21
772.834	19.05
773.142	17.2
773.45	19.91
773.758	19.93
774.066	17.15
774.374	19.17
774.682	18.36
774.99	21.34
775.298	16.99
775.605	16.84
775.913	18.12
776.22	22.79
776.528	22.79
776.835	22.42
777.143	20.86
777.45	18.16
777.757	20.94
778.065	16.85
778.372	17.54
778.679	20.35
778.986	15.73
779.293	17.47
779.6	18.56
779.907	20.35
780.214	21.76
780.52	23.19
780.827	23.82
781.134	20.16
781.44	18.32
781.747	16.55
782.053	17.97
782.36	18.82
782.666	19.64
782.973	16.42
783.279	18.77
783.585	20.03
783.891	23.06
784.197	15.45
784.503	22.35
784.809	18.14
785.115	20.55
785.421	18.81
785.727	17.19
786.033	21.62
786.339	17.99
786.644	18.09
786.95	19.27
787.255	25.89
787.561	23.69
787.866	21.9
788.172	19.19
788.477	16.58
788.782	24.39
789.088	20.37
789.393	20.04
789.698	15.61
790.003	21.09
790.308	16.13
790.613	20.99
790.918	20.98
791.223	22.13
791.527	17.22
791.832	20.8
792.137	14.47
792.441	18.26
792.746	21.77
793.05	15.15
793.355	20.65
793.659	23.96
793.963	19.62
794.268	20.97
794.572	20.05
794.876	19.26
795.18	21.09
795.484	19.85
795.788	20.06
796.092	21.76
796.396	17.24
796.7	22.73
797.004	17.91
797.307	15.99
797.611	23.01
797.915	18.61
798.218	19.41
798.522	19.43
798.825	15.95
799.128	20.79
799.432	18.33
799.735	17.08
800.038	21.2
800.341	24.12
800.644	20.23
800.947	19.6
801.25	21.37
801.553	16.77
801.856	18.57
802.159	20.6
802.462	19.76
802.764	16.37
803.067	17.38
803.37	24.32
803.672	18.06
803.975	17.78
804.277	13.2
804.579	18.85
804.882	20.73
805.184	16.12
805.486	18.39
805.788	20.26
806.09	23.25
806.392	20.33
806.694	27.87
806.996	26.21
807.298	24.78
807.6	24.56
807.902	24.91
808.203	18.56
808.505	22.33
808.807	19.27
809.108	21.81
809.409	12.58
809.711	18.14
810.012	17.47
810.313	20.99
810.615	22.68
810.916	15.86
811.217	20.84
811.518	18.15
811.819	11.89
812.12	21.22
812.421	16.31
812.722	21.42
813.023	19.21
813.323	20.33
813.624	13.56
813.925	29.54
814.225	8.63
814.526	27.49
814.826	20.13
815.126	19.45
815.427	17.97
815.727	24.58
816.027	12.8
816.327	21.81
816.627	19.82
816.927	20.71
817.227	19.06
817.527	20.58
817.827	21.62
818.127	23.33
818.427	24.88
818.727	22.48
819.026	25.05
819.326	25.95
819.625	16.99
819.925	21.36
820.224	27.03
820.524	21.65
820.823	18.93
821.122	22.76
821.421	19.07
821.72	18.49
822.019	17.63
822.318	17.14
822.617	17.25
822.916	20.32
823.215	17.27
823.514	27.24
823.813	17.83
824.111	21.56
824.41	23.94
824.709	22.25
825.007	23.72
825.306	22.87
825.604	23.9
825.902	22.51
826.201	23
826.499	22.68
826.797	22.44
827.095	22.93
827.393	22.87
827.691	23.73
827.989	20.57
828.287	22.58
828.585	22.72
828.882	21.23
829.18	23.74
829.478	23.82
829.775	21.08
830.073	22.38
830.37	23.15
830.668	22.06
830.965	23.75
831.263	21.47
831.56	20.31
831.857	18.36
832.154	21.48
832.451	20.66
832.748	21.72
833.045	23.81
833.342	25.09
833.639	20.06
833.936	19.42
834.232	22.32
834.529	24.45
834.826	19.93
835.122	18.5
835.419	18.94
835.715	24.94
836.012	18.82
836.308	18.06
836.604	16.19
836.901	16.49
837.197	21.83
837.493	22.54
837.789	19.68
838.085	18.72
838.381	22.92
838.677	21.39
838.972	23.87
839.268	24.11
839.564	21.3
839.86	23.2
840.155	16.49
840.451	13.65
840.746	27.24
841.042	27.37
841.337	19.98
841.632	26.1
841.928	26.69
842.223	9.52
842.518	12.97
842.813	28.84
843.108	14.68
843.403	28.26
843.698	14.43
843.993	11.75
844.287	2.17
844.582	16.65
844.877	25.32
845.171	20.19
845.466	13.95
845.761	24.29
846.055	23.11
846.349	17.02
846.644	15.41
846.938	3.86
847.232	15.16
847.526	20.5
847.82	25.67
848.114	23.58
848.408	15.42
848.702	28.57
848.996	1.45
849.29	23.28
849.584	11.66
849.877	2.44
850.171	35.55
850.465	13.73
850.758	19.8
851.052	24.06
851.345	25.37
851.638	15.96
851.932	-25.52
852.225	31.54
852.518	-6.59
852.811	12.05
853.104	-12.04
853.397	23.5
853.69	25.12
853.983	9.49
854.276	19.56
854.569	12.51
854.861	-0.54
855.154	15.14
855.447	3.08
855.739	19.83
856.032	18.41
856.324	9.16
856.616	25.39
856.909	46.46
857.201	27.56
857.493	-10.74
857.785	-25.08
858.077	12.04
858.369	11.94
858.661	20.98
858.953	10.16
859.245	22.06
859.537	14.73
859.829	-1.48
860.12	12.73
860.412	14.71
860.703	10.75
860.995	29.71
861.286	11.44
861.578	24.78
861.869	28.49
862.16	8.85
862.452	22.09
862.743	0.33
863.034	0.5
863.325	-8.86
863.616	-15.88
863.907	2.41
864.198	-11.24
864.488	37.23
864.779	26.82
865.07	30.06
865.36	18.1
865.651	-1.46
865.941	20.68
866.232	15.81
866.522	-59.34
866.813	29.87
867.103	44.6
867.393	5.52
867.683	41.62
867.973	-1.36
868.263	28.22
868.553	37.18
868.843	34.55
869.133	-38.12
869.423	11.32
869.713	8.25
870.002	26.89
870.292	44.96
870.582	20.25
870.871	17.99
871.161	6.04
871.45	3.37
871.739	5.01
872.029	35.91
872.318	22.85
872.607	42.66
872.896	1.37
873.185	11.2
873.474	-49.55
873.763	11.87
874.052	34.38
874.341	39.75
874.63	7.73
874.918	1.19
875.207	37.73
875.496	-12.55
875.784	-42.31
876.073	-57.2
876.361	-33.82
876.649	-1.01
876.938	45.27
877.226	20.99
877.514	4.45
877.802	-2.85
878.09	21.6
878.378	39.92
878.666	12.07
878.954	10.99
879.242	15.71
879.53	27.71
879.817	22.71
880.105	15.58
880.392	14.39
880.68	-2.1
880.967	26.46
881.255	27.87
881.542	1.41
881.83	-61.14
882.117	41.79
882.404	-18.99
882.691	42.03
882.978	13.67
883.265	19.43
883.552	28.18
883.839	26.37
884.126	18.6
884.413	35.01
884.699	27.34
884.986	30.91
885.273	27.99
885.559	27.99
885.846	27.99
