Data from 434_forehead_Reflection__4__261.txt Node

Date: Fri Dec 15 18:37:40 CST 2023
User: ToomeyLab
Spectrometer: FLMS14357
Trigger mode: 0
Integration Time (sec): 1.000000E-2
Scans to average: 100
Electric dark correction enabled: true
Nonlinearity correction enabled: false
Boxcar width: 0
XAxis mode: Wavelengths
Number of Pixels in Spectrum: 2048
>>>>>Begin Spectral Data<<<<<
189.047	26.4
189.435	26.4
189.823	26.4
190.211	-31.05
190.599	-15.05
190.987	115.95
191.375	-154.61
191.763	46.68
192.151	-156.61
192.538	107.74
192.926	3369.17
193.314	101.86
193.702	428.54
194.089	69.93
194.477	32.61
194.864	114.16
195.252	103.23
195.639	77.25
196.027	150.34
196.414	296.34
196.801	2495.6
197.189	28.21
197.576	607.24
197.963	61.46
198.351	-61.92
198.738	-46.12
199.125	-23.05
199.512	-26.66
199.899	9.96
200.286	28.81
200.673	104.3
201.06	21.82
201.447	16.54
201.833	3.31
202.22	50.76
202.607	36.36
202.994	-1.87
203.38	46.1
203.767	35.87
204.154	31.25
204.54	22.11
204.927	-211.23
205.313	-18.44
205.699	51.73
206.086	26.09
206.472	21.59
206.858	20
207.245	13.34
207.631	36.88
208.017	71.84
208.403	-6.97
208.789	18.35
209.175	14.75
209.561	-19.3
209.947	1.57
210.333	-6.32
210.719	17.21
211.105	28.39
211.491	-28.32
211.876	13.96
212.262	1.3
212.648	-11.63
213.034	30.18
213.419	-51.27
213.805	-7.76
214.19	-20.79
214.576	43.1
214.961	11.68
215.346	-133
215.732	-10.46
216.117	-2.6
216.502	-31.38
216.888	-16.39
217.273	26.12
217.658	12.03
218.043	28.56
218.428	-62.66
218.813	-25.78
219.198	-31.97
219.583	-15.77
219.968	17.83
220.353	2.22
220.738	38.51
221.122	19.56
221.507	-38.91
221.892	1.16
222.276	-13.39
222.661	12.89
223.046	10.3
223.43	17.3
223.815	11.61
224.199	-2.91
224.583	0.49
224.968	6.81
225.352	13.06
225.736	-6.38
226.121	-13.09
226.505	5.02
226.889	8.2
227.273	2.36
227.657	5.97
228.041	5.81
228.425	4.99
228.809	6.85
229.193	8.31
229.577	4.88
229.961	6.46
230.344	5.72
230.728	6.03
231.112	6.57
231.495	5.17
231.879	4.62
232.263	6.36
232.646	7.19
233.03	6.9
233.413	5.42
233.797	4.06
234.18	5.37
234.563	7.04
234.946	4.28
235.33	6.22
235.713	5.28
236.096	6.26
236.479	6.82
236.862	3.8
237.245	6.41
237.628	6.66
238.011	5.93
238.394	8.02
238.777	7.52
239.16	5.76
239.543	6.63
239.925	7.43
240.308	6.28
240.691	9.83
241.073	4.46
241.456	7.8
241.838	5.55
242.221	4.71
242.603	6.8
242.986	7.26
243.368	5.67
243.75	6.92
244.133	6.13
244.515	6.53
244.897	6.58
245.279	6.15
245.661	5.48
246.043	5.82
246.425	5.66
246.807	7.27
247.189	6.09
247.571	6.46
247.953	6.25
248.335	6.33
248.717	6.28
249.098	6.18
249.48	5.81
249.862	5.95
250.243	5.82
250.625	6.57
251.006	6.23
251.388	4.37
251.769	5.19
252.151	6.07
252.532	6.47
252.913	6.65
253.295	5.06
253.676	5.93
254.057	6.37
254.438	5.92
254.819	5.53
255.2	5.21
255.581	5.84
255.962	4.65
256.343	5.59
256.724	5.04
257.105	5.01
257.486	5.89
257.867	4.61
258.247	4.7
258.628	5.45
259.009	6.28
259.389	6.29
259.77	5.79
260.15	5.44
260.531	5.3
260.911	6.43
261.292	5.88
261.672	5.89
262.052	6.04
262.432	6.03
262.813	5.99
263.193	5.73
263.573	5.94
263.953	5.43
264.333	5.92
264.713	5.43
265.093	5.35
265.473	5.87
265.853	4.49
266.233	5.7
266.612	4.15
266.992	3.92
267.372	5.83
267.752	5.44
268.131	5.16
268.511	6.1
268.89	6.17
269.27	5.35
269.649	5.24
270.029	5.5
270.408	7.32
270.787	5.78
271.167	6.39
271.546	6.62
271.925	5.32
272.304	5.66
272.683	6.16
273.062	5.59
273.441	5.9
273.82	5.23
274.199	5.62
274.578	5.73
274.957	5.59
275.336	5.38
275.715	5.47
276.093	5.56
276.472	5.66
276.851	5.59
277.229	5.3
277.608	5.62
277.986	5.68
278.365	5.88
278.743	4.97
279.122	5.33
279.5	5.71
279.878	6.11
280.257	5.39
280.635	5.07
281.013	5.43
281.391	5.6
281.769	5.2
282.147	6.16
282.525	5.87
282.903	6.07
283.281	5.93
283.659	5.69
284.037	6.25
284.415	6.09
284.792	6.02
285.17	5.29
285.548	5.63
285.925	5.36
286.303	6.35
286.68	5.42
287.058	5.83
287.435	5.98
287.813	5.93
288.19	5.49
288.567	6.06
288.945	5.93
289.322	5.68
289.699	5.28
290.076	5.74
290.453	5.62
290.83	5.39
291.207	6.15
291.584	5.9
291.961	6.24
292.338	6.07
292.715	6.28
293.092	6.02
293.469	5.61
293.845	6.01
294.222	5.76
294.599	5.68
294.975	5.84
295.352	5.94
295.728	5.81
296.105	5.96
296.481	6.28
296.858	6.06
297.234	6.22
297.61	5.83
297.986	6.2
298.363	6.6
298.739	6.61
299.115	5.92
299.491	5.78
299.867	6.24
300.243	6.21
300.619	5.64
300.995	6.07
301.371	6.4
301.746	5.95
302.122	6.57
302.498	5.95
302.874	6.56
303.249	6.47
303.625	6.48
304	6.82
304.376	6.18
304.751	5.54
305.127	7.13
305.502	6.3
305.878	6.28
306.253	6.52
306.628	6.92
307.003	6.57
307.378	6.58
307.754	5.96
308.129	6.11
308.504	6.69
308.879	6.05
309.254	6.66
309.629	6.56
310.003	6.64
310.378	7.64
310.753	6.72
311.128	7.11
311.502	6.39
311.877	7.43
312.252	6.38
312.626	6.77
313.001	6.9
313.375	7.24
313.75	6.79
314.124	6.81
314.498	7.17
314.873	6.57
315.247	6.63
315.621	6.79
315.995	6.59
316.369	6.82
316.743	7.23
317.117	7.03
317.491	7.28
317.865	7.42
318.239	6.75
318.613	7.02
318.987	7.81
319.361	6.45
319.734	7.99
320.108	6.75
320.482	7.2
320.855	7.23
321.229	6.71
321.602	7.38
321.976	7.55
322.349	6.89
322.723	6.99
323.096	7.71
323.469	6.59
323.843	7.62
324.216	7.43
324.589	7.09
324.962	7.94
325.335	7.76
325.708	7.66
326.081	7.41
326.454	7.68
326.827	7.23
327.2	7.61
327.573	7.81
327.945	7.6
328.318	7.37
328.691	7.56
329.063	7.18
329.436	7.04
329.809	8.02
330.181	7.24
330.553	7.52
330.926	7.53
331.298	7.9
331.671	7.64
332.043	8.34
332.415	8.54
332.787	7.63
333.159	8.49
333.532	8.07
333.904	7.86
334.276	8.03
334.648	7.98
335.02	7.45
335.391	7.99
335.763	7.71
336.135	7.88
336.507	8.5
336.879	7.76
337.25	8.08
337.622	8.12
337.993	7.69
338.365	7.86
338.736	8.17
339.108	8.66
339.479	7.82
339.851	8.02
340.222	8.12
340.593	8.43
340.964	7.84
341.336	8.73
341.707	7.84
342.078	8.32
342.449	8.59
342.82	8.16
343.191	8.18
343.562	8.14
343.933	8.32
344.303	8.15
344.674	8.3
345.045	8.15
345.416	8.63
345.786	8.32
346.157	8.09
346.527	7.99
346.898	8.31
347.268	8.62
347.639	8.37
348.009	8.46
348.38	8.79
348.75	8.35
349.12	7.98
349.49	8.4
349.861	8.54
350.231	8.57
350.601	8.67
350.971	8.93
351.341	8.64
351.711	8.59
352.081	8.64
352.45	8.8
352.82	9.11
353.19	8.52
353.56	9
353.929	8.77
354.299	8.48
354.669	8.71
355.038	9.04
355.408	8.59
355.777	8.86
356.147	8.77
356.516	8.64
356.885	9.1
357.254	9.18
357.624	9.34
357.993	9.08
358.362	8.69
358.731	8.55
359.1	9.13
359.469	9.14
359.838	8.98
360.207	8.76
360.576	8.78
360.945	8.99
361.314	9.49
361.682	9.09
362.051	9.16
362.42	9.15
362.788	9.02
363.157	9.21
363.525	9.44
363.894	9.2
364.262	9.04
364.631	8.98
364.999	9.2
365.367	8.63
365.735	10.07
366.104	9.36
366.472	9.42
366.84	8.9
367.208	9.31
367.576	9.2
367.944	9.33
368.312	9.16
368.68	8.87
369.048	9.55
369.416	9.22
369.783	9.15
370.151	9.47
370.519	9.79
370.886	9.66
371.254	9.27
371.621	9.76
371.989	9.81
372.356	8.95
372.724	9.66
373.091	9.16
373.458	9.34
373.826	9.28
374.193	9.79
374.56	9.42
374.927	9.76
375.294	9.97
375.661	10.04
376.028	9.68
376.395	9.31
376.762	9.52
377.129	9.78
377.496	9.96
377.863	9.71
378.229	9.62
378.596	9.78
378.963	9.87
379.329	9.72
379.696	10.22
380.062	9.76
380.429	10.01
380.795	9.32
381.161	9.98
381.528	10.15
381.894	9.91
382.26	9.99
382.626	9.98
382.993	9.67
383.359	10.42
383.725	9.92
384.091	9.71
384.457	10.27
384.823	10.12
385.188	10.11
385.554	10.34
385.92	9.97
386.286	10.41
386.651	10.43
387.017	10.55
387.383	10.11
387.748	10.32
388.114	10.61
388.479	10.1
388.845	10.6
389.21	10.56
389.575	10.56
389.94	10.37
390.306	10.29
390.671	10.73
391.036	10.23
391.401	10.38
391.766	10.41
392.131	10.48
392.496	10.62
392.861	10.41
393.226	10.52
393.591	10.76
393.956	10.63
394.32	10.61
394.685	10.64
395.05	10.31
395.414	10.8
395.779	10.61
396.143	10.62
396.508	10.67
396.872	10.76
397.236	10.57
397.601	10.29
397.965	11.02
398.329	10.5
398.694	10.95
399.058	10.74
399.422	10.89
399.786	10.91
400.15	10.95
400.514	10.7
400.878	10.93
401.242	11.06
401.605	10.99
401.969	10.92
402.333	10.83
402.697	10.64
403.06	11.26
403.424	10.97
403.787	11.14
404.151	11.21
404.514	10.99
404.878	10.67
405.241	11.25
405.604	11.11
405.968	11.08
406.331	11.32
406.694	11.21
407.057	11.16
407.42	11.37
407.783	10.83
408.146	11.24
408.509	11.31
408.872	10.9
409.235	11.37
409.598	11.53
409.961	11.11
410.323	11.21
410.686	11.43
411.049	11.6
411.411	11.47
411.774	11.53
412.136	11.29
412.499	11.29
412.861	11.16
413.223	11.32
413.586	11.34
413.948	11.39
414.31	11.54
414.672	11.1
415.035	11.25
415.397	11.68
415.759	11.58
416.121	11.73
416.483	11.52
416.845	11.6
417.206	11.53
417.568	11.82
417.93	11.53
418.292	11.56
418.653	11.71
419.015	11.84
419.377	11.64
419.738	11.77
420.1	11.63
420.461	11.82
420.822	11.63
421.184	11.53
421.545	11.74
421.906	11.5
422.267	11.72
422.629	11.67
422.99	11.83
423.351	11.59
423.712	11.56
424.073	11.8
424.434	11.68
424.795	11.62
425.155	11.9
425.516	11.73
425.877	11.74
426.238	11.76
426.598	11.9
426.959	11.88
427.32	11.81
427.68	11.82
428.041	11.98
428.401	11.99
428.761	12.22
429.122	11.99
429.482	11.94
429.842	12.15
430.202	12.35
430.563	12.25
430.923	12.41
431.283	12.39
431.643	12.27
432.003	12.51
432.363	12.44
432.722	12.36
433.082	12.43
433.442	12.39
433.802	12.38
434.161	12.34
434.521	12.53
434.881	12.82
435.24	12.42
435.6	12.53
435.959	12.59
436.319	12.33
436.678	12.5
437.037	12.44
437.396	12.77
437.756	12.42
438.115	12.6
438.474	13.04
438.833	12.51
439.192	12.63
439.551	12.96
439.91	12.86
440.269	12.74
440.628	12.72
440.987	12.76
441.345	12.73
441.704	12.93
442.063	12.85
442.421	12.76
442.78	12.74
443.138	12.75
443.497	12.9
443.855	12.83
444.214	13.05
444.572	12.9
444.93	12.98
445.288	13.16
445.647	13.21
446.005	12.95
446.363	13.14
446.721	13.14
447.079	13.1
447.437	12.98
447.795	13.08
448.153	12.98
448.51	13.03
448.868	13
449.226	13.03
449.584	13.14
449.941	13.28
450.299	13.24
450.656	13.27
451.014	13.51
451.371	13.43
451.729	13.33
452.086	13.73
452.443	13.54
452.801	13.6
453.158	13.5
453.515	13.43
453.872	13.7
454.229	13.5
454.586	13.51
454.943	13.56
455.3	13.65
455.657	13.49
456.014	13.65
456.371	13.68
456.727	13.6
457.084	14.05
457.441	13.72
457.797	13.86
458.154	14.07
458.51	13.79
458.867	14.08
459.223	14.08
459.58	14.03
459.936	14.17
460.292	14.14
460.648	13.87
461.005	13.93
461.361	14.1
461.717	14.09
462.073	13.85
462.429	13.79
462.785	13.89
463.141	13.87
463.496	14.14
463.852	14.08
464.208	14.12
464.564	14.26
464.919	14.26
465.275	14.59
465.631	14.52
465.986	14.44
466.342	14.45
466.697	14.41
467.052	14.5
467.408	14.59
467.763	14.43
468.118	14.46
468.473	14.53
468.829	14.44
469.184	14.53
469.539	14.49
469.894	14.54
470.249	14.86
470.603	14.67
470.958	14.66
471.313	14.78
471.668	14.82
472.023	14.76
472.377	14.68
472.732	14.86
473.086	14.69
473.441	14.62
473.795	15.13
474.15	14.96
474.504	14.82
474.859	15
475.213	14.73
475.567	14.67
475.921	14.92
476.275	15.17
476.63	14.95
476.984	14.92
477.338	15.26
477.692	14.99
478.045	15.21
478.399	15.43
478.753	15.28
479.107	15.1
479.461	15.2
479.814	15.2
480.168	15.22
480.521	15.19
480.875	15.31
481.228	15.38
481.582	15.37
481.935	15.45
482.289	15.43
482.642	15.45
482.995	15.44
483.348	15.5
483.701	15.47
484.055	15.42
484.408	15.62
484.761	15.32
485.114	15.36
485.466	15.04
485.819	15.04
486.172	14.87
486.525	14.77
486.878	14.74
487.23	14.95
487.583	15.04
487.936	15.26
488.288	15.37
488.641	15.61
488.993	15.55
489.345	15.36
489.698	15.33
490.05	15.35
490.402	15.36
490.754	15.38
491.107	15.52
491.459	15.69
491.811	15.83
492.163	15.98
492.515	16.01
492.866	16.06
493.218	15.98
493.57	15.85
493.922	15.7
494.274	15.77
494.625	15.78
494.977	15.87
495.328	15.91
495.68	16.26
496.031	16.55
496.383	16.37
496.734	16.7
497.086	16.45
497.437	16.56
497.788	16.58
498.139	16.55
498.49	16.6
498.842	16.56
499.193	16.62
499.544	16.61
499.894	16.53
500.245	16.76
500.596	16.71
500.947	16.93
501.298	16.76
501.648	17.01
501.999	16.9
502.35	16.94
502.7	16.95
503.051	16.96
503.401	16.95
503.752	17.1
504.102	16.86
504.452	17.17
504.803	17.14
505.153	17.25
505.503	17.39
505.853	17.27
506.203	17.35
506.553	17.25
506.903	17.22
507.253	17.42
507.603	17.26
507.953	17.45
508.303	17.63
508.652	17.34
509.002	17.55
509.352	17.7
509.701	17.63
510.051	17.67
510.4	17.55
510.75	17.57
511.099	17.75
511.449	17.69
511.798	17.6
512.147	17.79
512.496	17.77
512.846	17.89
513.195	17.74
513.544	17.87
513.893	18.01
514.242	17.95
514.591	17.97
514.939	18
515.288	17.95
515.637	18.14
515.986	18.22
516.334	18.17
516.683	18.25
517.032	18.22
517.38	18.37
517.729	18.31
518.077	18.33
518.426	18.55
518.774	18.49
519.122	18.4
519.47	18.61
519.819	18.26
520.167	18.43
520.515	18.54
520.863	18.27
521.211	18.44
521.559	18.37
521.907	18.36
522.255	18.45
522.602	18.59
522.95	18.86
523.298	18.67
523.645	19
523.993	18.89
524.341	18.99
524.688	19.03
525.036	18.93
525.383	19.22
525.73	19.13
526.078	18.97
526.425	19.12
526.772	19.22
527.119	19.08
527.466	19.01
527.814	19.16
528.161	19.03
528.508	19.02
528.854	19.05
529.201	19.03
529.548	19.09
529.895	19.12
530.242	18.83
530.588	18.87
530.935	18.74
531.282	18.65
531.628	18.67
531.975	18.81
532.321	19.1
532.667	19.22
533.014	19.38
533.36	19.43
533.706	19.61
534.052	19.63
534.399	19.57
534.745	19.68
535.091	19.66
535.437	19.56
535.783	19.5
536.129	19.47
536.474	19.48
536.82	19.46
537.166	19.82
537.512	20.03
537.857	20.08
538.203	20.2
538.549	20.18
538.894	20.07
539.239	20.11
539.585	20.1
539.93	20.09
540.276	20.33
540.621	20.47
540.966	20.54
541.311	20.43
541.656	20.65
542.001	20.64
542.346	20.75
542.691	20.6
543.036	20.41
543.381	20.41
543.726	20.34
544.071	20.29
544.415	20.25
544.76	20.44
545.105	20.51
545.449	20.69
545.794	20.88
546.138	20.86
546.483	20.92
546.827	21.06
547.171	21.09
547.516	21.29
547.86	21.23
548.204	21.34
548.548	21.36
548.892	21.44
549.236	21.31
549.58	21.43
549.924	21.31
550.268	21.55
550.612	21.56
550.956	21.84
551.3	21.74
551.643	22.01
551.987	22.02
552.33	21.91
552.674	22.06
553.017	22.06
553.361	22.13
553.704	22.24
554.048	22.17
554.391	22.18
554.734	22.19
555.077	22.35
555.42	22.03
555.764	22.08
556.107	22.15
556.45	22.17
556.793	22.3
557.135	22.39
557.478	22.7
557.821	22.54
558.164	22.44
558.507	22.6
558.849	22.78
559.192	22.85
559.534	22.88
559.877	23
560.219	22.73
560.562	23.06
560.904	22.94
561.246	23.1
561.589	23.02
561.931	23.15
562.273	23
562.615	23.14
562.957	23.24
563.299	23.09
563.641	23.33
563.983	23.46
564.325	23.36
564.667	23.31
565.008	23.36
565.35	23.55
565.692	23.24
566.033	23.68
566.375	23.85
566.716	23.85
567.058	23.82
567.399	23.78
567.741	23.53
568.082	23.63
568.423	23.84
568.764	23.75
569.105	23.77
569.447	23.78
569.788	23.84
570.129	24.01
570.47	23.85
570.811	24.2
571.151	24.15
571.492	24.28
571.833	24.23
572.174	24.29
572.514	24.28
572.855	24.45
573.195	24.19
573.536	24.67
573.876	24.34
574.217	24.35
574.557	24.53
574.898	24.55
575.238	24.59
575.578	24.2
575.918	24.76
576.258	24.42
576.598	24.78
576.938	24.73
577.278	24.95
577.618	24.95
577.958	24.8
578.298	24.78
578.638	25.01
578.977	24.75
579.317	24.96
579.657	24.92
579.996	25.1
580.336	25.45
580.675	25.25
581.014	25.34
581.354	25.43
581.693	25.7
582.032	25.51
582.372	25.41
582.711	25.61
583.05	25.62
583.389	25.84
583.728	25.73
584.067	25.7
584.406	25.74
584.745	26.07
585.083	25.89
585.422	26.07
585.761	25.93
586.1	26.04
586.438	25.75
586.777	26.19
587.115	26.31
587.454	25.96
587.792	26.08
588.13	26.09
588.469	26.24
588.807	26.32
589.145	26.65
589.483	26.48
589.821	26.52
590.159	26.62
590.497	26.79
590.835	26.8
591.173	26.5
591.511	26.87
591.849	26.64
592.187	26.64
592.524	26.71
592.862	26.8
593.2	27.08
593.537	27.11
593.875	26.7
594.212	26.94
594.55	26.97
594.887	27.23
595.224	27.1
595.561	27.38
595.899	27.41
596.236	27.62
596.573	27.41
596.91	27.17
597.247	27.05
597.584	27.52
597.921	27.78
598.258	27.63
598.594	27.69
598.931	27.7
599.268	27.81
599.604	27.42
599.941	27.68
600.277	27.48
600.614	27.57
600.95	27.6
601.287	28.02
601.623	27.92
601.959	27.93
602.296	28.05
602.632	28.14
602.968	28.46
603.304	28.15
603.64	28.37
603.976	28.55
604.312	28.2
604.648	28.34
604.984	28.35
605.319	28.52
605.655	28.18
605.991	28.27
606.326	28.49
606.662	28.46
606.998	28.33
607.333	28.68
607.668	28.63
608.004	28.79
608.339	28.58
608.674	28.69
609.01	28.59
609.345	28.7
609.68	28.67
610.015	28.75
610.35	29.14
610.685	29.05
611.02	29.09
611.355	29.25
611.689	29.2
612.024	29.15
612.359	29.06
612.694	29.34
613.028	29.08
613.363	29.06
613.697	29.36
614.032	29.58
614.366	29.55
614.7	30.04
615.035	29.53
615.369	29.68
615.703	29.98
616.037	29.89
616.371	29.78
616.705	30.11
617.039	30.42
617.373	30.12
617.707	29.74
618.041	29.93
618.375	30.4
618.709	30.1
619.042	30.1
619.376	30.66
619.71	30.86
620.043	30.92
620.377	30.55
620.71	30.79
621.043	30.52
621.377	30.02
621.71	30.71
622.043	30.53
622.376	30.79
622.709	30.74
623.043	30.93
623.376	31.07
623.709	30.74
624.041	30.87
624.374	30.81
624.707	31.11
625.04	31.46
625.373	30.75
625.705	31.33
626.038	31.63
626.37	31.26
626.703	31.53
627.035	31.63
627.368	32.21
627.7	31.36
628.032	31.89
628.365	32.1
628.697	31.81
629.029	31.55
629.361	31.68
629.693	32.08
630.025	31.43
630.357	31.94
630.689	32.02
631.021	31.98
631.353	31.95
631.684	31.67
632.016	31.94
632.348	32.13
632.679	32.25
633.011	32.71
633.342	32.07
633.674	32.14
634.005	32.66
634.336	32.68
634.668	32.78
634.999	32.38
635.33	32.98
635.661	32.67
635.992	32.53
636.323	33.01
636.654	32.67
636.985	32.54
637.316	32.55
637.647	32.77
637.977	32.87
638.308	32.71
638.639	32.28
638.969	32.82
639.3	32.87
639.63	33.08
639.961	33.39
640.291	32.42
640.622	33.56
640.952	33.12
641.282	33.72
641.612	33.36
641.943	33.49
642.273	33.57
642.603	33.74
642.933	33.67
643.263	33.48
643.592	33.35
643.922	33.49
644.252	33.43
644.582	33.48
644.911	33.34
645.241	33.75
645.571	33.84
645.9	33.19
646.23	33.63
646.559	34.29
646.888	33.67
647.218	34.26
647.547	34.19
647.876	33.61
648.205	34.43
648.534	34.08
648.863	33.75
649.192	34.98
649.521	34.44
649.85	34.65
650.179	34.68
650.508	34.53
650.837	34.39
651.165	34.11
651.494	35.18
651.822	34.83
652.151	34.95
652.479	34.35
652.808	35.15
653.136	34.72
653.465	34.7
653.793	34.83
654.121	34.79
654.449	35.17
654.777	35.22
655.105	35.27
655.433	35.1
655.761	35.17
656.089	35.57
656.417	35.45
656.745	35.65
657.073	35.34
657.4	36.08
657.728	36.09
658.056	35.8
658.383	35.29
658.711	35.9
659.038	35.6
659.365	35.52
659.693	35.52
660.02	35.57
660.347	35.76
660.674	36.41
661.001	36.05
661.329	35.98
661.656	36.02
661.982	36.3
662.309	36.24
662.636	36.16
662.963	36.59
663.29	36.13
663.616	36.56
663.943	35.69
664.27	36.21
664.596	36.51
664.923	36.95
665.249	36.25
665.576	36.08
665.902	37.27
666.228	36.34
666.554	37.2
666.881	36.58
667.207	37.2
667.533	36.76
667.859	36.9
668.185	37.34
668.511	36.69
668.837	36.35
669.162	37.14
669.488	36.83
669.814	37.18
670.139	37.53
670.465	37.57
670.791	37.42
671.116	38.06
671.442	37.37
671.767	37.51
672.092	37.84
672.418	37.72
672.743	38.22
673.068	37.43
673.393	37.5
673.718	37.79
674.043	37.93
674.368	37.63
674.693	38.64
675.018	38.22
675.343	37.7
675.667	38.94
675.992	38.41
676.317	38.12
676.641	38.76
676.966	38.25
677.29	38.49
677.615	38.35
677.939	38.4
678.264	38.24
678.588	38.93
678.912	39.21
679.236	39.14
679.56	38.97
679.885	40.04
680.209	38.6
680.532	39.12
680.856	40.35
681.18	38.55
681.504	38.91
681.828	39.36
682.152	39.1
682.475	39.3
682.799	39.65
683.122	38.65
683.446	39.05
683.769	39.24
684.093	39.79
684.416	39.9
684.739	39.13
685.062	39.54
685.386	39.85
685.709	39.33
686.032	38.91
686.355	40.11
686.678	39.35
687.001	40.06
687.324	39.63
687.646	39.68
687.969	40.09
688.292	39.34
688.614	39.41
688.937	40.19
689.26	39.42
689.582	40.27
689.904	39.76
690.227	40.11
690.549	39.89
690.871	40.43
691.194	40
691.516	39.34
691.838	39.66
692.16	40.21
692.482	40.18
692.804	40.4
693.126	41.1
693.448	40.52
693.769	40.93
694.091	40.1
694.413	41.41
694.735	40.16
695.056	40.78
695.378	40.34
695.699	41
696.021	40.38
696.342	40.25
696.663	41.14
696.984	41.4
697.306	39.79
697.627	41.15
697.948	41.43
698.269	40.94
698.59	40.35
698.911	41.33
699.232	40.81
699.553	41.56
699.873	41.58
700.194	42.51
700.515	41.26
700.835	41.84
701.156	42.06
701.477	42.58
701.797	40.97
702.117	41.78
702.438	41.56
702.758	42
703.078	41.51
703.398	40.76
703.719	40.79
704.039	40.32
704.359	42.48
704.679	42
704.999	42.01
705.319	41.71
705.638	42.21
705.958	41.73
706.278	42.65
706.597	43.12
706.917	41.17
707.237	43.12
707.556	42.96
707.876	42.17
708.195	42.74
708.514	43.51
708.834	42.73
709.153	43.38
709.472	43.18
709.791	43.81
710.11	42.71
710.429	42.03
710.748	42.12
711.067	42.02
711.386	43.11
711.705	43.91
712.023	43.64
712.342	42.67
712.661	43.15
712.979	44.16
713.298	42.15
713.616	43.59
713.935	43.8
714.253	43.5
714.572	43.16
714.89	42.83
715.208	44.7
715.526	43.47
715.844	42.92
716.162	43.11
716.48	44.19
716.798	42.95
717.116	44.23
717.434	44.63
717.752	41.99
718.069	43.88
718.387	43.52
718.705	44.21
719.022	43.67
719.34	45
719.657	43.21
719.975	43.16
720.292	43.82
720.609	45.26
720.927	42.76
721.244	45.36
721.561	43.46
721.878	43.66
722.195	42.01
722.512	44.04
722.829	44.86
723.146	44.54
723.463	45.15
723.779	44.17
724.096	43.47
724.413	44.99
724.729	46.38
725.046	43.53
725.362	45.04
725.679	42.81
725.995	42.9
726.311	43.83
726.628	44.94
726.944	45.98
727.26	44.11
727.576	45.46
727.892	46.06
728.208	44.23
728.524	43.84
728.84	44.75
729.156	45.07
729.472	45.45
729.787	45.19
730.103	45.78
730.419	45.6
730.734	43.95
731.05	43.92
731.365	44.74
731.681	45.64
731.996	46.59
732.311	44.76
732.626	46.12
732.942	46.07
733.257	46.5
733.572	46.26
733.887	45.42
734.202	45.92
734.517	46.25
734.832	44.41
735.146	46.16
735.461	46.23
735.776	47.11
736.091	45.78
736.405	47.55
736.72	46.09
737.034	46.37
737.349	46.76
737.663	45.78
737.977	47.18
738.292	47.12
738.606	45.93
738.92	46.45
739.234	45.32
739.548	45.38
739.862	45.81
740.176	46.78
740.49	45.37
740.804	48.49
741.117	46.36
741.431	44.52
741.745	46.73
742.058	47.41
742.372	45.46
742.685	45.82
742.999	46.28
743.312	45.29
743.626	47.82
743.939	46.15
744.252	48.28
744.565	47.24
744.878	47.78
745.191	44.69
745.505	46.8
745.817	47.96
746.13	47.17
746.443	48.44
746.756	46.61
747.069	48.1
747.381	45.99
747.694	48.14
748.007	48.02
748.319	49.11
748.632	47.91
748.944	46.3
749.256	46.85
749.569	47.66
749.881	48.67
750.193	48.63
750.505	45.77
750.817	47.82
751.129	47.63
751.441	47.22
751.753	47.86
752.065	46.74
752.377	49.49
752.689	50.5
753	47.94
753.312	46.02
753.624	48.03
753.935	48.34
754.247	47.94
754.558	48.05
754.869	49.28
755.181	48.64
755.492	49.91
755.803	46.22
756.114	46.88
756.425	48.41
756.736	47.36
757.047	48.95
757.358	46.2
757.669	46.27
757.98	48.36
758.291	48.24
758.601	47.12
758.912	50.45
759.223	49.04
759.533	49.04
759.844	49.32
760.154	47.31
760.464	50.54
760.775	47.46
761.085	49.76
761.395	50.38
761.705	48.95
762.016	49.33
762.326	49.27
762.636	48.77
762.945	47.43
763.255	50.76
763.565	47.8
763.875	49.7
764.185	49.5
764.494	49.83
764.804	50.82
765.113	49.25
765.423	47.92
765.732	50.94
766.042	48.67
766.351	50.36
766.66	49.17
766.97	49.13
767.279	47.6
767.588	51.11
767.897	51.81
768.206	49.83
768.515	48.62
768.824	49.39
769.133	50.33
769.441	49.55
769.75	47.84
770.059	50.68
770.367	50.13
770.676	51.1
770.984	48.36
771.293	49.5
771.601	52.16
771.91	47.67
772.218	52.79
772.526	50.37
772.834	53.18
773.142	48.27
773.45	48.56
773.758	49.17
774.066	50.57
774.374	49.51
774.682	51.61
774.99	50.54
775.298	46.49
775.605	48.96
775.913	50.34
776.22	50.03
776.528	50.97
776.835	54.71
777.143	50.69
777.45	52.45
777.757	50.06
778.065	48.06
778.372	51.81
778.679	52.96
778.986	48.61
779.293	46.08
779.6	50.45
779.907	52.36
780.214	49.47
780.52	51.11
780.827	53.4
781.134	47.95
781.44	48.8
781.747	48.24
782.053	50.72
782.36	47.29
782.666	51.07
782.973	47.96
783.279	48.32
783.585	49.82
783.891	50.44
784.197	48.48
784.503	53.49
784.809	49.58
785.115	53.37
785.421	52.65
785.727	55.39
786.033	52.86
786.339	50.77
786.644	50.55
786.95	50.13
787.255	50.02
787.561	50.56
787.866	47.93
788.172	47.88
788.477	48.5
788.782	53.04
789.088	47.23
789.393	50.4
789.698	49.52
790.003	53.07
790.308	50.74
790.613	50.58
790.918	55.8
791.223	51.86
791.527	50.24
791.832	52
792.137	51.27
792.441	49.09
792.746	53.11
793.05	50.38
793.355	52.04
793.659	56.65
793.963	48.9
794.268	51.21
794.572	53.31
794.876	43.73
795.18	45.1
795.484	49.08
795.788	50.14
796.092	54.17
796.396	51.25
796.7	50.19
797.004	49.34
797.307	47.37
797.611	53.12
797.915	47.14
798.218	50.62
798.522	51.58
798.825	55.03
799.128	53.49
799.432	48.99
799.735	57.09
800.038	54.9
800.341	53.54
800.644	53.26
800.947	43.85
801.25	52.85
801.553	57.52
801.856	53.99
802.159	51.51
802.462	52.9
802.764	47.45
803.067	53.36
803.37	51.04
803.672	49.97
803.975	49.97
804.277	50.34
804.579	49.4
804.882	48.12
805.184	49.78
805.486	43.24
805.788	51.3
806.09	52.74
806.392	48.68
806.694	51.42
806.996	55.04
807.298	53.92
807.6	50.9
807.902	51.14
808.203	46.78
808.505	55.11
808.807	43.98
809.108	49.78
809.409	50.69
809.711	52.97
810.012	47.04
810.313	50.72
810.615	48.13
810.916	51.93
811.217	51.18
811.518	52.92
811.819	53.73
812.12	56.27
812.421	49.69
812.722	50.8
813.023	51.85
813.323	52.97
813.624	52.76
813.925	61.22
814.225	50.08
814.526	63.05
814.826	54.14
815.126	52.22
815.427	52.34
815.727	52.69
816.027	48.2
816.327	51.56
816.627	47.16
816.927	54.8
817.227	49.39
817.527	48.05
817.827	56.53
818.127	52.53
818.427	48.3
818.727	47.05
819.026	45.21
819.326	55.62
819.625	51.33
819.925	52.06
820.224	52.3
820.524	50.05
820.823	56.19
821.122	50.35
821.421	47.49
821.72	50.41
822.019	49.76
822.318	49.43
822.617	49.86
822.916	52.83
823.215	51.67
823.514	54.36
823.813	54.23
824.111	54.52
824.41	55.86
824.709	56.73
825.007	55.88
825.306	55.09
825.604	55.69
825.902	55.09
826.201	54.59
826.499	53.93
826.797	56.22
827.095	53.99
827.393	52.99
827.691	54.66
827.989	53.25
828.287	54.83
828.585	53.66
828.882	55.1
829.18	55.01
829.478	56.4
829.775	54.47
830.073	55.49
830.37	55.42
830.668	53.51
830.965	56.58
831.263	52.89
831.56	54.08
831.857	54.07
832.154	54.23
832.451	52.71
832.748	50.95
833.045	59.44
833.342	54.57
833.639	53.4
833.936	52.33
834.232	60.78
834.529	54.2
834.826	53.14
835.122	50.82
835.419	56.84
835.715	45.72
836.012	54.86
836.308	52.49
836.604	54.66
836.901	53.79
837.197	56.02
837.493	55.01
837.789	52.57
838.085	53.58
838.381	53.79
838.677	56.14
838.972	52.09
839.268	49.66
839.564	54.23
839.86	57.7
840.155	51.16
840.451	45.11
840.746	56.22
841.042	62.43
841.337	46.49
841.632	48.65
841.928	62.71
842.223	57.04
842.518	49.52
842.813	56.63
843.108	50.67
843.403	61.79
843.698	49.35
843.993	46.06
844.287	51.56
844.582	45.95
844.877	49.1
845.171	62.51
845.466	45.15
845.761	52.79
846.055	47.5
846.349	44.01
846.644	51.23
846.938	45.98
847.232	65.61
847.526	58.67
847.82	54.66
848.114	49.52
848.408	37.66
848.702	42.93
848.996	35.54
849.29	45.92
849.584	48.87
849.877	50.27
850.171	52.18
850.465	45.43
850.758	42.17
851.052	51.67
851.345	47.35
851.638	37.11
851.932	57.08
852.225	45.76
852.518	39.67
852.811	40.18
853.104	18.56
853.397	55.55
853.69	54.56
853.983	48.29
854.276	65.95
854.569	54.06
854.861	49.16
855.154	52.38
855.447	53.8
855.739	57.87
856.032	46.6
856.324	51.39
856.616	47.67
856.909	34.18
857.201	70.33
857.493	49.51
857.785	43.93
858.077	43.41
858.369	40.55
858.661	55.67
858.953	69.87
859.245	39.65
859.537	50.38
859.829	75.71
860.12	49.56
860.412	32.65
860.703	38.7
860.995	29.97
861.286	79.27
861.578	30.95
861.869	61.73
862.16	57.05
862.452	58.15
862.743	68.56
863.034	64.54
863.325	60.35
863.616	73.25
863.907	40.77
864.198	43.2
864.488	82.54
864.779	62.96
865.07	34.73
865.36	50.99
865.651	38.99
865.941	62.04
866.232	51.41
866.522	35.14
866.813	57.04
867.103	72.28
867.393	39.91
867.683	69.24
867.973	1.41
868.263	40.11
868.553	45.16
868.843	62.57
869.133	13.09
869.423	41.17
869.713	50.09
870.002	60.68
870.292	75.75
870.582	47.24
870.871	31.67
871.161	21.04
871.45	35.55
871.739	35.64
872.029	75.64
872.318	37.21
872.607	57.55
872.896	76
873.185	30.98
873.474	32.86
873.763	41.13
874.052	67.43
874.341	55.55
874.63	58.89
874.918	44.68
875.207	68.13
875.496	47.22
875.784	53.93
876.073	26.73
876.361	2.18
876.649	38.79
876.938	23.64
877.226	54.61
877.514	50.94
877.802	-0.53
878.09	63.28
878.378	60.46
878.666	41.85
878.954	15.32
879.242	81.33
879.53	70.69
879.817	51.84
880.105	32.32
880.392	49.38
880.68	45.3
880.967	117.48
881.255	53.18
881.542	33.37
881.83	52.46
882.117	48.18
882.404	13.98
882.691	64.25
882.978	53.45
883.265	80.27
883.552	59.96
883.839	51.19
884.126	62.53
884.413	54.25
884.699	59.74
884.986	54.65
885.273	53.83
885.559	53.83
885.846	53.83
