Data from 434_chest_Reflection__4__251.txt Node

Date: Fri Dec 15 18:35:13 CST 2023
User: ToomeyLab
Spectrometer: FLMS14357
Trigger mode: 0
Integration Time (sec): 1.000000E-2
Scans to average: 100
Electric dark correction enabled: true
Nonlinearity correction enabled: false
Boxcar width: 0
XAxis mode: Wavelengths
Number of Pixels in Spectrum: 2048
>>>>>Begin Spectral Data<<<<<
189.047	-15.05
189.435	-15.05
189.823	-15.05
190.211	-61.98
190.599	1.39
190.987	53.01
191.375	-65.81
191.763	-71.59
192.151	87.96
192.538	95.82
192.926	1615.04
193.314	99.33
193.702	-408.71
194.089	74.22
194.477	43.14
194.864	2.75
195.252	89.2
195.639	80.7
196.027	334.1
196.414	339.66
196.801	4918.68
197.189	17.87
197.576	174.14
197.963	-31.79
198.351	-25.59
198.738	-44.29
199.125	47.97
199.512	-41.19
199.899	65.37
200.286	41.12
200.673	-52.61
201.06	-60.38
201.447	-16.28
201.833	57.1
202.22	33.67
202.607	16.74
202.994	-2.31
203.38	31.9
203.767	29.72
204.154	44.13
204.54	64.81
204.927	-46.62
205.313	-41.63
205.699	26.86
206.086	21.83
206.472	10.71
206.858	5.48
207.245	-30.86
207.631	30.35
208.017	36.93
208.403	-21.69
208.789	40.27
209.175	40.92
209.561	-5.36
209.947	-8.09
210.333	-30.1
210.719	9.43
211.105	24.5
211.491	-7.87
211.876	11.07
212.262	29.01
212.648	-17.81
213.034	24.83
213.419	-29.15
213.805	-11.67
214.19	-24.31
214.576	-15.99
214.961	-34.95
215.346	-134.32
215.732	-46.33
216.117	-11.34
216.502	1.69
216.888	14.96
217.273	12.9
217.658	-2.26
218.043	21.9
218.428	-77.21
218.813	-16.1
219.198	-5.44
219.583	6.01
219.968	13.86
220.353	-69.04
220.738	2.39
221.122	19.87
221.507	-19.1
221.892	-13.51
222.276	-23.25
222.661	-5.57
223.046	5.14
223.43	8.31
223.815	11.66
224.199	-29.88
224.583	-11.03
224.968	4.91
225.352	10.42
225.736	-0.93
226.121	-15.68
226.505	9.74
226.889	12.25
227.273	1.47
227.657	8.23
228.041	4.52
228.425	-1.91
228.809	7.65
229.193	2.36
229.577	3.4
229.961	5.07
230.344	1.53
230.728	2.68
231.112	2.9
231.495	2.28
231.879	3.33
232.263	2.89
232.646	2.97
233.03	3.62
233.413	2.65
233.797	2.32
234.18	1.21
234.563	3.44
234.946	1.01
235.33	5.55
235.713	3.62
236.096	2.26
236.479	3.29
236.862	1.14
237.245	2.46
237.628	1.48
238.011	4.84
238.394	3.87
238.777	2.88
239.16	1.7
239.543	0.03
239.925	3.44
240.308	4.12
240.691	2.56
241.073	3.88
241.456	2.21
241.838	1.96
242.221	2.6
242.603	3.27
242.986	3.15
243.368	2.86
243.75	3.29
244.133	2.19
244.515	3.22
244.897	3.54
245.279	2.95
245.661	2.39
246.043	1.93
246.425	2.48
246.807	3.06
247.189	3.96
247.571	3.31
247.953	3.35
248.335	3.24
248.717	3.13
249.098	2.86
249.48	2.89
249.862	2.79
250.243	3.36
250.625	2.72
251.006	3.04
251.388	1.34
251.769	2.43
252.151	4.53
252.532	3.14
252.913	2.96
253.295	2.88
253.676	2.85
254.057	3.37
254.438	3.32
254.819	2.94
255.2	2.66
255.581	3.15
255.962	1.94
256.343	3.64
256.724	2.59
257.105	3.34
257.486	2.28
257.867	3.45
258.247	3.49
258.628	2.48
259.009	2.19
259.389	3.28
259.77	2.78
260.15	1.8
260.531	2.18
260.911	3.44
261.292	2.95
261.672	3.06
262.052	2.81
262.432	3.32
262.813	2.88
263.193	2.93
263.573	3.42
263.953	2.29
264.333	3.15
264.713	3.01
265.093	2.62
265.473	2.84
265.853	1.7
266.233	3.21
266.612	1.7
266.992	1.28
267.372	3.06
267.752	2.19
268.131	2.57
268.511	2.84
268.89	3.08
269.27	2.62
269.649	2.36
270.029	2.16
270.408	3.91
270.787	4.17
271.167	3.53
271.546	3.52
271.925	2.17
272.304	2.95
272.683	3.34
273.062	2.3
273.441	2.8
273.82	2.1
274.199	3.09
274.578	2.47
274.957	2.8
275.336	2.52
275.715	2.48
276.093	2.46
276.472	2.44
276.851	2.28
277.229	2.59
277.608	2.27
277.986	2.67
278.365	3.39
278.743	2.54
279.122	3.36
279.5	2.72
279.878	3.2
280.257	2.23
280.635	2.61
281.013	2.44
281.391	3.01
281.769	3.12
282.147	3.07
282.525	3.07
282.903	2.46
283.281	3.16
283.659	2.61
284.037	2.98
284.415	2.94
284.792	2.76
285.17	2.06
285.548	2.44
285.925	3.15
286.303	2.67
286.68	3.25
287.058	2.8
287.435	2.93
287.813	2.75
288.19	2.84
288.567	2.77
288.945	3.07
289.322	2.65
289.699	2.76
290.076	2.72
290.453	2.69
290.83	2.54
291.207	2.46
291.584	2.81
291.961	2.72
292.338	2.67
292.715	3.21
293.092	2.86
293.469	2.61
293.845	3.5
294.222	2.58
294.599	2.71
294.975	3.04
295.352	3.07
295.728	2.32
296.105	2.79
296.481	2.87
296.858	2.71
297.234	3.2
297.61	2.72
297.986	2.72
298.363	3.38
298.739	2.98
299.115	2.92
299.491	2.65
299.867	3.14
300.243	3.22
300.619	2.52
300.995	2.91
301.371	3.54
301.746	2.55
302.122	3.62
302.498	3.26
302.874	2.93
303.249	3.32
303.625	3.68
304	3.06
304.376	2.9
304.751	2.26
305.127	4.11
305.502	2.8
305.878	2.89
306.253	3.03
306.628	3.26
307.003	3.25
307.378	3.78
307.754	3.61
308.129	2.48
308.504	2.5
308.879	2.7
309.254	3.47
309.629	3.68
310.003	2.84
310.378	3.56
310.753	3.46
311.128	3.16
311.502	3.21
311.877	3.52
312.252	2.54
312.626	3.42
313.001	3.01
313.375	3.49
313.75	2.68
314.124	3.54
314.498	3.24
314.873	3.14
315.247	2.26
315.621	3.16
315.995	3.14
316.369	3.16
316.743	2.79
317.117	3.55
317.491	3.53
317.865	3.1
318.239	2.86
318.613	3.68
318.987	3.66
319.361	2.64
319.734	3.27
320.108	3.01
320.482	3.22
320.855	3.34
321.229	3.36
321.602	3.14
321.976	3.64
322.349	3.63
322.723	2.63
323.096	3.66
323.469	2.38
323.843	3.3
324.216	3.78
324.589	2.97
324.962	3.69
325.335	3.23
325.708	3.4
326.081	2.94
326.454	3.16
326.827	3.29
327.2	3.71
327.573	4.1
327.945	3.21
328.318	2.75
328.691	2.72
329.063	3.18
329.436	2.76
329.809	3.97
330.181	2.91
330.553	3.62
330.926	3.31
331.298	3.69
331.671	2.39
332.043	3.79
332.415	3.98
332.787	3.56
333.159	3.9
333.532	3.66
333.904	3.11
334.276	3.16
334.648	3.46
335.02	3.52
335.391	3.01
335.763	3.31
336.135	3.2
336.507	3.88
336.879	3.1
337.25	2.94
337.622	3.16
337.993	3.1
338.365	3.39
338.736	3.31
339.108	3.36
339.479	2.66
339.851	3.23
340.222	2.97
340.593	3.19
340.964	3.11
341.336	3.76
341.707	3.44
342.078	3.68
342.449	3.87
342.82	3.25
343.191	3.51
343.562	3.21
343.933	3.7
344.303	3.58
344.674	3.56
345.045	3.57
345.416	3.42
345.786	2.92
346.157	3.75
346.527	2.99
346.898	3.07
347.268	3.27
347.639	3.44
348.009	3.35
348.38	3.3
348.75	3.48
349.12	3.28
349.49	3.91
349.861	3.99
350.231	3.83
350.601	3.74
350.971	3.41
351.341	3.33
351.711	3.34
352.081	3.57
352.45	3.35
352.82	3.65
353.19	3.32
353.56	3.63
353.929	3.22
354.299	3.35
354.669	3.32
355.038	3.83
355.408	3.43
355.777	4.1
356.147	3.55
356.516	3.6
356.885	4.14
357.254	3.45
357.624	3.85
357.993	3.8
358.362	3.01
358.731	3.44
359.1	3.41
359.469	3.37
359.838	3.84
360.207	3.47
360.576	3.56
360.945	3.66
361.314	3.76
361.682	3.14
362.051	3.45
362.42	3.85
362.788	3.42
363.157	3.68
363.525	3.68
363.894	3.72
364.262	3.93
364.631	3.91
364.999	3.88
365.367	2.87
365.735	4.02
366.104	3.77
366.472	3.97
366.84	3.55
367.208	3.4
367.576	3.92
367.944	3.84
368.312	3.24
368.68	3.37
369.048	3.79
369.416	3.65
369.783	3.42
370.151	4.11
370.519	4.36
370.886	4.12
371.254	3.5
371.621	4.17
371.989	4.03
372.356	3.27
372.724	3.82
373.091	3.69
373.458	3.6
373.826	3.39
374.193	3.83
374.56	3.84
374.927	3.81
375.294	3.9
375.661	3.91
376.028	3.37
376.395	3.49
376.762	3.83
377.129	3.74
377.496	3.68
377.863	3.88
378.229	3.25
378.596	3.84
378.963	3.81
379.329	3.34
379.696	4.01
380.062	3.89
380.429	3.9
380.795	3.17
381.161	3.62
381.528	3.72
381.894	3.81
382.26	3.81
382.626	3.98
382.993	3.42
383.359	4.2
383.725	3.47
384.091	3.86
384.457	4.14
384.823	3.74
385.188	4.01
385.554	3.78
385.92	3.88
386.286	4.13
386.651	4.25
387.017	4.11
387.383	3.94
387.748	3.92
388.114	4.04
388.479	3.6
388.845	4
389.21	3.86
389.575	3.93
389.94	3.7
390.306	4.18
390.671	4.22
391.036	3.49
391.401	3.6
391.766	4.05
392.131	3.91
392.496	3.97
392.861	3.79
393.226	4.03
393.591	3.81
393.956	4.02
394.32	3.99
394.685	3.7
395.05	3.58
395.414	4.11
395.779	3.7
396.143	4.1
396.508	3.88
396.872	3.87
397.236	4.12
397.601	3.66
397.965	4.06
398.329	3.94
398.694	4.05
399.058	3.95
399.422	3.64
399.786	4.13
400.15	3.99
400.514	4.14
400.878	4.17
401.242	4.11
401.605	3.76
401.969	3.82
402.333	3.88
402.697	3.95
403.06	4.07
403.424	3.98
403.787	3.87
404.151	4.18
404.514	4.06
404.878	3.88
405.241	4.17
405.604	3.98
405.968	4.11
406.331	3.92
406.694	4.19
407.057	3.87
407.42	4.41
407.783	3.95
408.146	4.11
408.509	3.89
408.872	3.86
409.235	3.91
409.598	4.17
409.961	3.93
410.323	4.18
410.686	4.15
411.049	3.88
411.411	3.9
411.774	3.78
412.136	3.97
412.499	4.11
412.861	3.97
413.223	3.71
413.586	4.15
413.948	3.95
414.31	4.02
414.672	3.89
415.035	3.77
415.397	4.47
415.759	4
416.121	4.19
416.483	3.83
416.845	3.97
417.206	3.92
417.568	4.06
417.93	3.74
418.292	3.94
418.653	4.2
419.015	4.11
419.377	4.06
419.738	4.09
420.1	3.99
420.461	4.26
420.822	4.07
421.184	4
421.545	4.07
421.906	3.87
422.267	3.96
422.629	4
422.99	4.02
423.351	3.94
423.712	3.99
424.073	4.05
424.434	3.95
424.795	4.07
425.155	4.07
425.516	3.97
425.877	4.01
426.238	3.95
426.598	4.07
426.959	4.1
427.32	3.97
427.68	3.96
428.041	4.05
428.401	4.23
428.761	4.17
429.122	4.02
429.482	3.99
429.842	4.3
430.202	4.19
430.563	4.18
430.923	3.99
431.283	4.19
431.643	4.17
432.003	3.94
432.363	4.17
432.722	4.22
433.082	4.27
433.442	4.08
433.802	4.25
434.161	4.24
434.521	4.34
434.881	4.24
435.24	4.03
435.6	4.12
435.959	4.13
436.319	4.17
436.678	4.08
437.037	4.22
437.396	4.25
437.756	4.15
438.115	4.1
438.474	4.22
438.833	4.1
439.192	4.2
439.551	4.23
439.91	4.27
440.269	4.38
440.628	4.1
440.987	4.3
441.345	4.23
441.704	4.23
442.063	4.14
442.421	4.21
442.78	4.14
443.138	4.12
443.497	4.22
443.855	4.16
444.214	4.31
444.572	4.29
444.93	4.14
445.288	4.24
445.647	4.34
446.005	4.32
446.363	4.36
446.721	4.27
447.079	4.14
447.437	4.22
447.795	4.24
448.153	4.02
448.51	4.13
448.868	4.27
449.226	4.22
449.584	4.2
449.941	4.4
450.299	4.34
450.656	4.28
451.014	4.33
451.371	4.23
451.729	4.21
452.086	4.47
452.443	4.35
452.801	4.4
453.158	4.5
453.515	4.2
453.872	4.34
454.229	4.28
454.586	4.22
454.943	4.35
455.3	4.49
455.657	4.33
456.014	4.27
456.371	4.28
456.727	4.37
457.084	4.59
457.441	4.53
457.797	4.36
458.154	4.55
458.51	4.55
458.867	4.4
459.223	4.58
459.58	4.5
459.936	4.53
460.292	4.26
460.648	4.19
461.005	4.37
461.361	4.32
461.717	4.29
462.073	4.14
462.429	4.38
462.785	4.34
463.141	4.47
463.496	4.61
463.852	4.67
464.208	4.4
464.564	4.66
464.919	4.45
465.275	4.43
465.631	4.56
465.986	4.46
466.342	4.78
466.697	4.3
467.052	4.5
467.408	4.67
467.763	4.43
468.118	4.47
468.473	4.3
468.829	4.54
469.184	4.53
469.539	4.6
469.894	4.53
470.249	4.8
470.603	4.44
470.958	4.49
471.313	4.64
471.668	4.79
472.023	4.47
472.377	4.5
472.732	4.67
473.086	4.51
473.441	4.22
473.795	4.56
474.15	4.53
474.504	4.52
474.859	4.55
475.213	4.59
475.567	4.57
475.921	4.63
476.275	4.64
476.63	4.74
476.984	4.65
477.338	4.8
477.692	4.42
478.045	4.55
478.399	4.68
478.753	4.71
479.107	4.7
479.461	4.72
479.814	4.68
480.168	4.63
480.521	4.51
480.875	4.6
481.228	4.66
481.582	4.64
481.935	4.6
482.289	4.63
482.642	4.57
482.995	4.65
483.348	4.43
483.701	4.59
484.055	4.55
484.408	4.6
484.761	4.52
485.114	4.5
485.466	4.32
485.819	4.33
486.172	4.31
486.525	4.4
486.878	4.44
487.23	4.54
487.583	4.56
487.936	4.63
488.288	4.62
488.641	4.54
488.993	4.41
489.345	4.42
489.698	4.46
490.05	4.48
490.402	4.55
490.754	4.56
491.107	4.69
491.459	4.61
491.811	4.64
492.163	4.79
492.515	4.61
492.866	4.65
493.218	4.6
493.57	4.5
493.922	4.48
494.274	4.62
494.625	4.7
494.977	4.8
495.328	4.78
495.68	4.85
496.031	4.8
496.383	4.78
496.734	4.94
497.086	4.83
497.437	4.88
497.788	4.75
498.139	4.83
498.49	4.9
498.842	4.71
499.193	4.84
499.544	4.83
499.894	4.82
500.245	4.81
500.596	4.84
500.947	4.86
501.298	4.89
501.648	4.97
501.999	4.98
502.35	4.98
502.7	4.97
503.051	4.66
503.401	4.83
503.752	5.03
504.102	4.81
504.452	5.07
504.803	4.86
505.153	4.83
505.503	5.02
505.853	5.04
506.203	5.1
506.553	4.9
506.903	4.92
507.253	4.92
507.603	4.9
507.953	5.19
508.303	5.12
508.652	4.89
509.002	5.18
509.352	5.03
509.701	4.98
510.051	5
510.4	5.08
510.75	4.99
511.099	5.11
511.449	5.03
511.798	5.01
512.147	5.02
512.496	5.03
512.846	5.12
513.195	4.98
513.544	5.11
513.893	5.15
514.242	5.05
514.591	5.32
514.939	5.08
515.288	5.03
515.637	5.23
515.986	5.2
516.334	5.21
516.683	5.27
517.032	5.13
517.38	5.33
517.729	5.29
518.077	5.09
518.426	5.2
518.774	5.28
519.122	5.1
519.47	5.14
519.819	5.11
520.167	5.15
520.515	5.14
520.863	5.15
521.211	5.14
521.559	5.28
521.907	5.19
522.255	5.22
522.602	5.27
522.95	5.41
523.298	5.23
523.645	5.43
523.993	5.21
524.341	5.4
524.688	5.41
525.036	5.42
525.383	5.31
525.73	5.5
526.078	5.33
526.425	5.31
526.772	5.42
527.119	5.41
527.466	5.27
527.814	5.3
528.161	5.36
528.508	5.32
528.854	5.27
529.201	5.27
529.548	5.33
529.895	5.26
530.242	5.14
530.588	5.04
530.935	5.15
531.282	5.23
531.628	5.28
531.975	5.33
532.321	5.39
532.667	5.49
533.014	5.52
533.36	5.56
533.706	5.49
534.052	5.44
534.399	5.51
534.745	5.36
535.091	5.33
535.437	5.45
535.783	5.5
536.129	5.51
536.474	5.55
536.82	5.65
537.166	5.64
537.512	5.6
537.857	5.56
538.203	5.53
538.549	5.52
538.894	5.52
539.239	5.63
539.585	5.64
539.93	5.64
540.276	5.79
540.621	5.68
540.966	5.84
541.311	5.82
541.656	5.69
542.001	5.68
542.346	5.9
542.691	5.62
543.036	5.56
543.381	5.5
543.726	5.61
544.071	5.7
544.415	5.71
544.76	5.67
545.105	5.77
545.449	5.87
545.794	5.91
546.138	5.98
546.483	5.97
546.827	5.94
547.171	5.93
547.516	6.08
547.86	5.94
548.204	6
548.548	5.96
548.892	6.04
549.236	6.05
549.58	5.97
549.924	6.1
550.268	6.07
550.612	6.3
550.956	6.36
551.3	6.25
551.643	6.46
551.987	6.22
552.33	6.12
552.674	6.32
553.017	6.32
553.361	6.36
553.704	6.53
554.048	6.16
554.391	6.25
554.734	6.33
555.077	6.37
555.42	6.24
555.764	6.28
556.107	6.26
556.45	6.29
556.793	6.56
557.135	6.65
557.478	6.67
557.821	6.64
558.164	6.5
558.507	6.66
558.849	6.28
559.192	6.76
559.534	6.65
559.877	6.43
560.219	6.55
560.562	6.85
560.904	6.63
561.246	6.52
561.589	6.66
561.931	6.8
562.273	6.74
562.615	6.91
562.957	6.93
563.299	6.5
563.641	6.81
563.983	6.85
564.325	6.64
564.667	6.8
565.008	6.8
565.35	6.96
565.692	6.78
566.033	6.89
566.375	6.99
566.716	7.18
567.058	6.8
567.399	6.77
567.741	6.74
568.082	6.96
568.423	6.89
568.764	6.77
569.105	7.05
569.447	6.92
569.788	7.04
570.129	7.29
570.47	7.15
570.811	7.23
571.151	7.29
571.492	7.24
571.833	7.22
572.174	7.06
572.514	7.32
572.855	7.29
573.195	7.14
573.536	6.99
573.876	7
574.217	7.11
574.557	7.2
574.898	7.37
575.238	7.43
575.578	7.08
575.918	7.53
576.258	7.38
576.598	7.54
576.938	7.19
577.278	7.41
577.618	7.37
577.958	7.44
578.298	7.39
578.638	7.29
578.977	7.43
579.317	7.43
579.657	7.52
579.996	7.89
580.336	7.65
580.675	7.47
581.014	7.7
581.354	7.72
581.693	7.79
582.032	7.72
582.372	7.64
582.711	7.79
583.05	7.67
583.389	7.84
583.728	7.75
584.067	8.09
584.406	8.18
584.745	7.93
585.083	8
585.422	8.06
585.761	7.94
586.1	8
586.438	7.9
586.777	7.9
587.115	8.13
587.454	7.95
587.792	8.06
588.13	8.24
588.469	8
588.807	7.95
589.145	8.2
589.483	8.01
589.821	8.29
590.159	8.46
590.497	8.41
590.835	8.54
591.173	8.39
591.511	8.65
591.849	8.46
592.187	8.1
592.524	8.5
592.862	8.43
593.2	8.72
593.537	8.53
593.875	8.45
594.212	8.54
594.55	8.28
594.887	8.74
595.224	8.61
595.561	8.74
595.899	8.75
596.236	8.7
596.573	8.89
596.91	8.37
597.247	8.54
597.584	8.93
597.921	8.99
598.258	8.62
598.594	8.88
598.931	8.76
599.268	8.72
599.604	8.84
599.941	9
600.277	8.87
600.614	8.85
600.95	8.85
601.287	9.38
601.623	8.81
601.959	8.75
602.296	9.21
602.632	9.13
602.968	9.59
603.304	9.25
603.64	9.14
603.976	9.52
604.312	8.94
604.648	9.26
604.984	9.24
605.319	9.1
605.655	9.04
605.991	9.34
606.326	9.31
606.662	9.13
606.998	9.13
607.333	9.49
607.668	9.2
608.004	9.48
608.339	9.61
608.674	9.58
609.01	9.36
609.345	9.38
609.68	9.74
610.015	9.59
610.35	9.47
610.685	9.61
611.02	9.63
611.355	9.64
611.689	9.69
612.024	9.81
612.359	9.62
612.694	9.65
613.028	9.61
613.363	9.95
613.697	10.09
614.032	9.87
614.366	9.59
614.7	10.38
615.035	9.94
615.369	10.02
615.703	10.29
616.037	10.29
616.371	9.62
616.705	9.92
617.039	10.18
617.373	10.08
617.707	10.03
618.041	10.08
618.375	10.52
618.709	10.82
619.042	10.21
619.376	10.83
619.71	10.35
620.043	10.23
620.377	10.07
620.71	10.46
621.043	10.62
621.377	10.65
621.71	10.55
622.043	10.42
622.376	10.27
622.709	10.38
623.043	10.62
623.376	10.72
623.709	10.72
624.041	11.05
624.374	10.94
624.707	10.85
625.04	11.1
625.373	10.62
625.705	10.89
626.038	10.62
626.37	10.82
626.703	11.06
627.035	11.16
627.368	11.29
627.7	10.81
628.032	10.95
628.365	10.98
628.697	11.36
629.029	10.79
629.361	10.9
629.693	11.17
630.025	10.87
630.357	11.16
630.689	10.98
631.021	11.28
631.353	11.55
631.684	11.29
632.016	11.26
632.348	11.7
632.679	11.41
633.011	11.7
633.342	12.02
633.674	11.56
634.005	11.68
634.336	11.59
634.668	12.07
634.999	11.54
635.33	11.88
635.661	11.98
635.992	11.6
636.323	11.64
636.654	12.04
636.985	11.76
637.316	11.51
637.647	11.46
637.977	12.18
638.308	11.89
638.639	11.45
638.969	11.92
639.3	11.96
639.63	11.93
639.961	12.01
640.291	11.88
640.622	12.15
640.952	12.21
641.282	12.31
641.612	12.58
641.943	11.59
642.273	12.05
642.603	12.66
642.933	12.69
643.263	12.63
643.592	12.28
643.922	12.25
644.252	12.46
644.582	12.26
644.911	11.6
645.241	12.09
645.571	12.61
645.9	12.28
646.23	12.5
646.559	12.74
646.888	12.46
647.218	12.45
647.547	12.82
647.876	12.49
648.205	13.05
648.534	12.36
648.863	12.54
649.192	13.08
649.521	12.7
649.85	12.96
650.179	13.27
650.508	12.25
650.837	12.8
651.165	12.89
651.494	13.04
651.822	13.07
652.151	12.61
652.479	13.33
652.808	12.63
653.136	13.28
653.465	12.11
653.793	13.37
654.121	13.05
654.449	13.09
654.777	13.05
655.105	13.81
655.433	13.16
655.761	13.34
656.089	13.4
656.417	14.01
656.745	13.32
657.073	13.52
657.4	14.62
657.728	13.57
658.056	13.42
658.383	13.68
658.711	14.15
659.038	14.31
659.365	14.26
659.693	13.9
660.02	13.48
660.347	14.31
660.674	13.93
661.001	13.61
661.329	13.38
661.656	13.62
661.982	13.76
662.309	14.12
662.636	13.3
662.963	14.53
663.29	14
663.616	14.51
663.943	13.75
664.27	14.29
664.596	14.44
664.923	14.23
665.249	13.93
665.576	14.65
665.902	15
666.228	14.47
666.554	15.12
666.881	14.4
667.207	14.65
667.533	14.16
667.859	15.04
668.185	14.93
668.511	13.91
668.837	13.64
669.162	14.73
669.488	14.46
669.814	15.55
670.139	15.18
670.465	15
670.791	14.9
671.116	15.78
671.442	14.99
671.767	14.87
672.092	14.97
672.418	14.95
672.743	16.09
673.068	15.16
673.393	15.37
673.718	15.01
674.043	14.57
674.368	15.36
674.693	15.89
675.018	15.46
675.343	15.36
675.667	15.04
675.992	16.01
676.317	16.4
676.641	15.47
676.966	15.6
677.29	14.61
677.615	15.85
677.939	16.1
678.264	15.63
678.588	15.31
678.912	15.64
679.236	16.04
679.56	15.64
679.885	16.38
680.209	15.56
680.532	15.13
680.856	16.54
681.18	16
681.504	15.48
681.828	16.03
682.152	15.79
682.475	16.5
682.799	16.42
683.122	16.04
683.446	15.95
683.769	15.82
684.093	16.06
684.416	16.86
684.739	16.09
685.062	16.02
685.386	17.12
685.709	16.44
686.032	16.24
686.355	16.6
686.678	16.48
687.001	16.41
687.324	17.06
687.646	16.12
687.969	16.21
688.292	16.37
688.614	16.56
688.937	16.7
689.26	16.54
689.582	17.03
689.904	16.33
690.227	17.27
690.549	16.94
690.871	17.07
691.194	17.11
691.516	15.92
691.838	16.88
692.16	16.49
692.482	16.77
692.804	16.77
693.126	17.72
693.448	17.75
693.769	17.58
694.091	17.08
694.413	17.22
694.735	16.79
695.056	17.01
695.378	17.31
695.699	17.11
696.021	16.89
696.342	16.92
696.663	17.4
696.984	17.27
697.306	16.53
697.627	18.07
697.948	17.55
698.269	17.11
698.59	18.2
698.911	17.17
699.232	17.57
699.553	17.57
699.873	17.84
700.194	18.55
700.515	17.9
700.835	17.47
701.156	18.31
701.477	17.97
701.797	17.56
702.117	18.38
702.438	18.19
702.758	18.37
703.078	18.04
703.398	17.36
703.719	18.12
704.039	17.24
704.359	17.71
704.679	17.32
704.999	17.8
705.319	17.99
705.638	18.15
705.958	18.87
706.278	18.54
706.597	18.14
706.917	18.08
707.237	18.09
707.556	17.91
707.876	18.93
708.195	19.62
708.514	18.27
708.834	18.97
709.153	18.45
709.472	19.37
709.791	18.57
710.11	18.39
710.429	19.15
710.748	19.55
711.067	18.74
711.386	19.32
711.705	19.34
712.023	19.73
712.342	18.34
712.661	17.57
712.979	18.69
713.298	18.7
713.616	19.62
713.935	18.74
714.253	19.47
714.572	19.64
714.89	20.58
715.208	19.9
715.526	19.29
715.844	19.79
716.162	20.81
716.48	19.29
716.798	20.08
717.116	19.76
717.434	20.07
717.752	18.45
718.069	20.09
718.387	18.88
718.705	19.36
719.022	19.22
719.34	18.97
719.657	19.32
719.975	19.32
720.292	19.55
720.609	20.92
720.927	19.28
721.244	20.85
721.561	19.7
721.878	20.48
722.195	18.91
722.512	19.78
722.829	20.6
723.146	20.4
723.463	20.67
723.779	19.24
724.096	19.93
724.413	19.77
724.729	21.19
725.046	19.32
725.362	20.62
725.679	19.12
725.995	19.33
726.311	19.56
726.628	20.78
726.944	21.08
727.26	21.04
727.576	21.52
727.892	21.19
728.208	20.37
728.524	20.08
728.84	19.4
729.156	21.34
729.472	20.38
729.787	20.93
730.103	19.95
730.419	20.06
730.734	20.41
731.05	19.53
731.365	20.06
731.681	21.31
731.996	21.15
732.311	20.85
732.626	21.92
732.942	20.89
733.257	22.33
733.572	21.13
733.887	20.25
734.202	21.28
734.517	22.28
734.832	21.19
735.146	21.91
735.461	22.21
735.776	20.8
736.091	20.93
736.405	21.66
736.72	20.67
737.034	20.85
737.349	23.53
737.663	21.18
737.977	22.58
738.292	21.82
738.606	21.37
738.92	22.99
739.234	23.04
739.548	20.98
739.862	21.48
740.176	21.96
740.49	22.13
740.804	24.96
741.117	23.56
741.431	21.4
741.745	21.89
742.058	23.05
742.372	21.6
742.685	22.78
742.999	23.6
743.312	22.31
743.626	23.09
743.939	22.01
744.252	24.37
744.565	21.8
744.878	23.08
745.191	21.54
745.505	21.43
745.817	23.94
746.13	21.6
746.443	22.02
746.756	22.14
747.069	22.61
747.381	21.27
747.694	20.13
748.007	21.97
748.319	22.61
748.632	24.9
748.944	22.72
749.256	24.13
749.569	21.59
749.881	23.32
750.193	23.75
750.505	21.33
750.817	23.15
751.129	23.26
751.441	21.87
751.753	24.09
752.065	24.1
752.377	22.72
752.689	24.27
753	24.01
753.312	23.66
753.624	25.47
753.935	24.51
754.247	25.24
754.558	23.74
754.869	24.72
755.181	23.09
755.492	23.22
755.803	24
756.114	23.82
756.425	22.16
756.736	22.26
757.047	26.2
757.358	24.75
757.669	23.45
757.98	21.43
758.291	22.25
758.601	24.4
758.912	23.91
759.223	24.34
759.533	22.89
759.844	22.44
760.154	23.35
760.464	26.3
760.775	23.85
761.085	25.61
761.395	24.38
761.705	23.58
762.016	24.71
762.326	23.91
762.636	23.92
762.945	23.9
763.255	24.13
763.565	24.14
763.875	26.18
764.185	23
764.494	24.94
764.804	25.36
765.113	23.33
765.423	24.08
765.732	25.77
766.042	23.94
766.351	24.98
766.66	24.48
766.97	25.94
767.279	24.32
767.588	26.45
767.897	26.76
768.206	25.12
768.515	24.68
768.824	26.92
769.133	25.13
769.441	25.26
769.75	24.47
770.059	26.34
770.367	27.71
770.676	24.49
770.984	27.14
771.293	24.44
771.601	27.7
771.91	22.74
772.218	27.97
772.526	28.12
772.834	25.08
773.142	25.35
773.45	22.16
773.758	24.47
774.066	24.93
774.374	23.13
774.682	22.37
774.99	29.37
775.298	25.76
775.605	24.5
775.913	19.54
776.22	27.61
776.528	28.43
776.835	26.44
777.143	25.69
777.45	25.48
777.757	27.38
778.065	23.45
778.372	23.5
778.679	23.09
778.986	24.67
779.293	26.55
779.6	24.95
779.907	26.89
780.214	29.24
780.52	26.41
780.827	25.67
781.134	28.49
781.44	27.26
781.747	25.75
782.053	24.16
782.36	26.26
782.666	29.4
782.973	27.58
783.279	24.45
783.585	24.17
783.891	29.35
784.197	28.93
784.503	26.15
784.809	27.19
785.115	25.95
785.421	28.4
785.727	27.03
786.033	27.64
786.339	28.08
786.644	25.62
786.95	30.95
787.255	28.04
787.561	29.25
787.866	29.79
788.172	24.31
788.477	20.82
788.782	24.72
789.088	25.27
789.393	22.07
789.698	24.21
790.003	29.03
790.308	24.08
790.613	24.47
790.918	25.2
791.223	29.31
791.527	25.22
791.832	29.69
792.137	24.89
792.441	24.85
792.746	25.17
793.05	27.55
793.355	29.09
793.659	28.63
793.963	26.14
794.268	26.97
794.572	30
794.876	28.76
795.18	28.69
795.484	25.54
795.788	29.66
796.092	26.78
796.396	27.28
796.7	25.51
797.004	25.86
797.307	23.02
797.611	26.01
797.915	28.31
798.218	27.22
798.522	24.25
798.825	28.64
799.128	27.36
799.432	27.25
799.735	24.56
800.038	28.53
800.341	26.27
800.644	27.76
800.947	26.49
801.25	27.84
801.553	27.35
801.856	29.11
802.159	21.75
802.462	31.59
802.764	30.01
803.067	28.39
803.37	29.47
803.672	23.72
803.975	23.73
804.277	29.1
804.579	26.66
804.882	26.84
805.184	23.66
805.486	25.68
805.788	23.93
806.09	31.85
806.392	26.42
806.694	29.27
806.996	34.69
807.298	32.11
807.6	26.67
807.902	30.03
808.203	29.09
808.505	29.32
808.807	29.81
809.108	28.62
809.409	25.81
809.711	24.7
810.012	25.28
810.313	33.02
810.615	28.42
810.916	26.83
811.217	30.78
811.518	36.02
811.819	26.61
812.12	30.62
812.421	25.87
812.722	30.08
813.023	31.09
813.323	28.56
813.624	26.9
813.925	31.95
814.225	27.28
814.526	33.33
814.826	35.93
815.126	28.15
815.427	22.99
815.727	35.14
816.027	28.96
816.327	29.08
816.627	36.36
816.927	28.14
817.227	28.21
817.527	30.24
817.827	33.46
818.127	32.18
818.427	24.04
818.727	33.9
819.026	29.97
819.326	35.84
819.625	22.73
819.925	21.25
820.224	25.22
820.524	32.39
820.823	34.79
821.122	22.56
821.421	36.14
821.72	29.84
822.019	32.08
822.318	26.38
822.617	21.7
822.916	27.77
823.215	28.33
823.514	33.32
823.813	31.02
824.111	32.99
824.41	31.47
824.709	30.61
825.007	31.84
825.306	31.77
825.604	32.92
825.902	31.76
826.201	32.39
826.499	32.06
826.797	32.13
827.095	31.62
827.393	30.71
827.691	31.09
827.989	29.71
828.287	31.6
828.585	28.84
828.882	32.3
829.18	29.51
829.478	36.17
829.775	32.55
830.073	31.69
830.37	33.82
830.668	30.69
830.965	34.12
831.263	31.28
831.56	33.08
831.857	28.94
832.154	32.98
832.451	32.91
832.748	35.85
833.045	34.28
833.342	32.28
833.639	30.74
833.936	29.35
834.232	35.63
834.529	32.05
834.826	32.48
835.122	26.46
835.419	35.07
835.715	29.14
836.012	29.12
836.308	29.29
836.604	28.85
836.901	30.72
837.197	29.94
837.493	32.2
837.789	33.7
838.085	32.55
838.381	31.28
838.677	32.91
838.972	30.72
839.268	32.71
839.564	27.12
839.86	34.22
840.155	29.12
840.451	34.92
840.746	32.59
841.042	37.12
841.337	35.37
841.632	39.59
841.928	36.68
842.223	31.01
842.518	30.34
842.813	39.16
843.108	27.12
843.403	36.75
843.698	35.05
843.993	36.68
844.287	25.68
844.582	30.72
844.877	27.52
845.171	25.18
845.466	30.17
845.761	37.08
846.055	35.82
846.349	23.01
846.644	15.41
846.938	26.9
847.232	21.86
847.526	26.77
847.82	45.06
848.114	24.58
848.408	16.44
848.702	40.72
848.996	16.35
849.29	40.71
849.584	29.64
849.877	30.08
850.171	21.64
850.465	27.09
850.758	16.57
851.052	13.56
851.345	30.46
851.638	18.64
851.932	18.73
852.225	29.76
852.518	27.85
852.811	27.44
853.104	-0.57
853.397	40.01
853.69	42.08
853.983	2.11
854.276	36.75
854.569	26.85
854.861	29.93
855.154	30.78
855.447	12.21
855.739	36.36
856.032	23.21
856.324	28.11
856.616	23.2
856.909	30.38
857.201	38.19
857.493	22.44
857.785	21.99
858.077	32.55
858.369	28.2
858.661	16.34
858.953	15.68
859.245	18.69
859.537	22.72
859.829	39.17
860.12	37.13
860.412	44.36
860.703	39.24
860.995	25.04
861.286	10.78
861.578	20.06
861.869	40.63
862.16	21.38
862.452	31.82
862.743	55.44
863.034	50.53
863.325	12.64
863.616	31.95
863.907	-3.35
864.198	18.05
864.488	40.81
864.779	32.82
865.07	47.71
865.36	-5.07
865.651	15.35
865.941	48.96
866.232	19.48
866.522	-15.25
866.813	53.42
867.103	52.58
867.393	28.66
867.683	25.02
867.973	21.17
868.263	49.91
868.553	43.67
868.843	53.77
869.133	11.19
869.423	25.25
869.713	35.48
870.002	46.97
870.292	59.73
870.582	24.17
870.871	-22.84
871.161	23.36
871.45	10.32
871.739	-6.33
872.029	46.38
872.318	36.76
872.607	43.8
872.896	2.68
873.185	28.57
873.474	-6.37
873.763	41.15
874.052	37.41
874.341	49.59
874.63	40.56
874.918	12.73
875.207	33.96
875.496	48.75
875.784	-5.1
876.073	25.24
876.361	8.22
876.649	-11.36
876.938	16.74
877.226	27.54
877.514	31.99
877.802	19.12
878.09	-2.56
878.378	31.3
878.666	10.58
878.954	35.01
879.242	46.64
879.53	38.8
879.817	43.71
880.105	17.22
880.392	42.11
880.68	31.51
880.967	22.82
881.255	20.49
881.542	17.9
881.83	-2.27
882.117	48.02
882.404	-10.68
882.691	23.12
882.978	37.55
883.265	32.19
883.552	26.82
883.839	32.56
884.126	44.11
884.413	46.39
884.699	46.61
884.986	40.75
885.273	39.44
885.559	39.44
885.846	39.44
