Data from 434_forehead_Reflection__0__257.txt Node

Date: Fri Dec 15 18:37:01 CST 2023
User: ToomeyLab
Spectrometer: FLMS14357
Trigger mode: 0
Integration Time (sec): 1.000000E-2
Scans to average: 100
Electric dark correction enabled: true
Nonlinearity correction enabled: false
Boxcar width: 0
XAxis mode: Wavelengths
Number of Pixels in Spectrum: 2048
>>>>>Begin Spectral Data<<<<<
189.047	-24.59
189.435	-24.59
189.823	-24.59
190.211	-37.68
190.599	1.25
190.987	-16.07
191.375	-69.03
191.763	-251.35
192.151	139.48
192.538	169.87
192.926	1898.5
193.314	144.45
193.702	174.95
194.089	143.39
194.477	194.59
194.864	-21.29
195.252	87.39
195.639	100.26
196.027	-1714.19
196.414	189.18
196.801	4469.23
197.189	16.86
197.576	397.03
197.963	-123.81
198.351	-37.06
198.738	-55.32
199.125	39.07
199.512	40.59
199.899	26.66
200.286	45.66
200.673	40.6
201.06	55.43
201.447	19.41
201.833	69.05
202.22	16.97
202.607	21.36
202.994	70.05
203.38	7.48
203.767	-1.48
204.154	3.09
204.54	72.25
204.927	118.92
205.313	-27.43
205.699	41.87
206.086	41.04
206.472	43.37
206.858	22.02
207.245	-12.06
207.631	41.77
208.017	50.68
208.403	10.06
208.789	42.51
209.175	44.86
209.561	58.5
209.947	19.05
210.333	-10.08
210.719	24.29
211.105	-4.32
211.491	-59.86
211.876	50.44
212.262	2.09
212.648	56.31
213.034	46.08
213.419	-2.89
213.805	0.94
214.19	-3.08
214.576	-13.56
214.961	-20.26
215.346	-76.02
215.732	14.56
216.117	-17.01
216.502	-31.75
216.888	-5.34
217.273	19.81
217.658	-14.69
218.043	43.05
218.428	-59.28
218.813	-10.27
219.198	-1.18
219.583	2.52
219.968	21.7
220.353	-15.26
220.738	19.24
221.122	20.79
221.507	6.39
221.892	-20.06
222.276	-14.79
222.661	4.56
223.046	10.61
223.43	15
223.815	8.44
224.199	6.28
224.583	4.15
224.968	5.41
225.352	16.68
225.736	4.78
226.121	-10.32
226.505	3.35
226.889	13.21
227.273	2.29
227.657	8.59
228.041	8.39
228.425	4.03
228.809	12.06
229.193	7.37
229.577	7.65
229.961	7.29
230.344	6.1
230.728	6.25
231.112	6.31
231.495	6.67
231.879	4.49
232.263	7.04
232.646	4.11
233.03	6.82
233.413	5.25
233.797	5.83
234.18	4.79
234.563	6.49
234.946	4.96
235.33	7.66
235.713	7.67
236.096	4.8
236.479	6.93
236.862	5.2
237.245	5.99
237.628	4.69
238.011	7.52
238.394	7.94
238.777	5.46
239.16	5.31
239.543	5.39
239.925	6.87
240.308	6.01
240.691	6.91
241.073	6.55
241.456	3.92
241.838	6.26
242.221	5.51
242.603	6.99
242.986	5.94
243.368	6.51
243.75	6.57
244.133	5.6
244.515	6.09
244.897	6.05
245.279	6
245.661	5.2
246.043	5.15
246.425	5.42
246.807	7.39
247.189	5.22
247.571	5.98
247.953	6.04
248.335	5.32
248.717	5.86
249.098	5.72
249.48	5.56
249.862	5.53
250.243	5.26
250.625	5.9
251.006	5.95
251.388	4.46
251.769	4.89
252.151	6.29
252.532	5.41
252.913	5.35
253.295	5.58
253.676	6.18
254.057	6.03
254.438	5.32
254.819	5.48
255.2	4.8
255.581	5.24
255.962	4.72
256.343	5.53
256.724	5.49
257.105	4.99
257.486	4.4
257.867	6.63
258.247	5.12
258.628	6.06
259.009	5.42
259.389	6.33
259.77	5.52
260.15	5.28
260.531	4.72
260.911	6
261.292	5.77
261.672	5.81
262.052	5.33
262.432	5.49
262.813	5.5
263.193	5.62
263.573	5.4
263.953	6.29
264.333	5.84
264.713	4.88
265.093	4.25
265.473	5.75
265.853	4.24
266.233	6.06
266.612	3.54
266.992	3.45
267.372	6.17
267.752	5.63
268.131	6.35
268.511	6.06
268.89	5.59
269.27	4.96
269.649	4.6
270.029	5
270.408	6.36
270.787	5.42
271.167	5.96
271.546	5.62
271.925	4.92
272.304	5.12
272.683	5.92
273.062	5.48
273.441	5.38
273.82	4.79
274.199	5.52
274.578	5.72
274.957	5.27
275.336	5.48
275.715	5.06
276.093	4.7
276.472	4.81
276.851	5.09
277.229	4.97
277.608	4.99
277.986	5.63
278.365	5.56
278.743	4.86
279.122	5.32
279.5	5.35
279.878	5.77
280.257	5.27
280.635	5.17
281.013	5.25
281.391	5.56
281.769	5.15
282.147	5.91
282.525	5.79
282.903	5.29
283.281	6.03
283.659	5.86
284.037	5.14
284.415	5.53
284.792	5.93
285.17	4.22
285.548	5.18
285.925	5.63
286.303	5.7
286.68	5.7
287.058	5.4
287.435	5.29
287.813	5.52
288.19	5.33
288.567	5.28
288.945	5.74
289.322	5.49
289.699	5.8
290.076	5.05
290.453	5.73
290.83	5.19
291.207	5.25
291.584	5.66
291.961	5.84
292.338	5.35
292.715	5.96
293.092	5.4
293.469	5.91
293.845	5.2
294.222	5.62
294.599	5.5
294.975	5.07
295.352	5.55
295.728	5.19
296.105	5.93
296.481	6.21
296.858	5.66
297.234	5.76
297.61	5.87
297.986	6.21
298.363	5.92
298.739	6.08
299.115	5.72
299.491	5.65
299.867	5.56
300.243	6.16
300.619	5.62
300.995	5.35
301.371	6.35
301.746	5.84
302.122	6.33
302.498	5.83
302.874	5.7
303.249	5.82
303.625	6.21
304	6.2
304.376	5.85
304.751	5.78
305.127	6.79
305.502	5.93
305.878	5.76
306.253	6.05
306.628	6.56
307.003	5.74
307.378	6.78
307.754	6
308.129	5.79
308.504	6.33
308.879	5.54
309.254	7.01
309.629	6.85
310.003	6.37
310.378	7.33
310.753	6.93
311.128	6.77
311.502	6.7
311.877	6.72
312.252	6.46
312.626	6.53
313.001	6.47
313.375	6.51
313.75	6.32
314.124	6.71
314.498	6.55
314.873	6.73
315.247	6.73
315.621	6.88
315.995	5.85
316.369	6.98
316.743	7.08
317.117	7.05
317.491	6.39
317.865	6.8
318.239	6.71
318.613	7.33
318.987	7.86
319.361	6.72
319.734	7.46
320.108	7.77
320.482	6.08
320.855	7.48
321.229	7.18
321.602	7.03
321.976	7.29
322.349	6.85
322.723	7.08
323.096	7.78
323.469	6.53
323.843	7.8
324.216	7.48
324.589	7.11
324.962	7.09
325.335	6.76
325.708	7.38
326.081	7.11
326.454	7.71
326.827	7.85
327.2	7.66
327.573	7.8
327.945	7.04
328.318	7.08
328.691	6.86
329.063	7.24
329.436	7.25
329.809	8
330.181	7.82
330.553	7.36
330.926	7.28
331.298	7.31
331.671	7.18
332.043	7.71
332.415	7.48
332.787	8.16
333.159	8.16
333.532	8.46
333.904	8.06
334.276	8.36
334.648	8.02
335.02	7.48
335.391	7.63
335.763	7.59
336.135	8.42
336.507	8.17
336.879	7.9
337.25	7.57
337.622	7.09
337.993	7.73
338.365	7.69
338.736	8.2
339.108	8.38
339.479	7.45
339.851	7.99
340.222	7.83
340.593	8.29
340.964	7.44
341.336	8.06
341.707	7.58
342.078	8.67
342.449	8.01
342.82	8.11
343.191	8.17
343.562	8.35
343.933	8.11
344.303	8.1
344.674	7.94
345.045	8.14
345.416	8.49
345.786	7.66
346.157	8.77
346.527	7.4
346.898	8.34
347.268	8.48
347.639	7.95
348.009	8.44
348.38	8.45
348.75	8.66
349.12	8.24
349.49	7.94
349.861	8.12
350.231	8.14
350.601	8.25
350.971	8.3
351.341	8.69
351.711	7.97
352.081	8.68
352.45	8.48
352.82	8.44
353.19	8.4
353.56	8.39
353.929	8.32
354.299	8.26
354.669	8.52
355.038	9.06
355.408	8.74
355.777	8.54
356.147	8.32
356.516	8.71
356.885	8.81
357.254	8.6
357.624	8.96
357.993	9.02
358.362	8.59
358.731	8.64
359.1	8.83
359.469	8.68
359.838	8.73
360.207	8.44
360.576	8.34
360.945	8.58
361.314	9.38
361.682	8.64
362.051	8.82
362.42	8.9
362.788	8.78
363.157	8.89
363.525	8.99
363.894	8.95
364.262	8.99
364.631	8.75
364.999	9.23
365.367	8.74
365.735	9.54
366.104	9.17
366.472	9.1
366.84	8.92
367.208	8.91
367.576	9.36
367.944	9.31
368.312	9.18
368.68	8.78
369.048	9.36
369.416	9.01
369.783	8.91
370.151	9.18
370.519	9.73
370.886	9.63
371.254	9.09
371.621	9.65
371.989	9.65
372.356	8.99
372.724	9.7
373.091	9.03
373.458	9.41
373.826	9.25
374.193	9.6
374.56	10
374.927	9.67
375.294	9.6
375.661	9.18
376.028	9.41
376.395	9.44
376.762	9.68
377.129	9.57
377.496	9.58
377.863	9.65
378.229	9.24
378.596	9.85
378.963	9.4
379.329	9.72
379.696	9.64
380.062	9.54
380.429	9.56
380.795	9.79
381.161	9.79
381.528	9.98
381.894	9.81
382.26	9.87
382.626	9.85
382.993	9.63
383.359	9.97
383.725	9.83
384.091	9.84
384.457	9.78
384.823	9.99
385.188	10.05
385.554	9.94
385.92	10.08
386.286	10.08
386.651	10.06
387.017	10.36
387.383	9.92
387.748	10.06
388.114	10.47
388.479	9.85
388.845	10.4
389.21	10.24
389.575	9.9
389.94	10.26
390.306	10.46
390.671	10.08
391.036	10
391.401	10.01
391.766	10.37
392.131	10.5
392.496	10.24
392.861	10.43
393.226	10.5
393.591	10.51
393.956	10.35
394.32	10.24
394.685	10.39
395.05	10.3
395.414	10.34
395.779	10.14
396.143	10.6
396.508	10.46
396.872	10.42
397.236	10.58
397.601	10.43
397.965	10.85
398.329	10.59
398.694	10.55
399.058	10.58
399.422	10.28
399.786	10.94
400.15	10.97
400.514	10.87
400.878	10.85
401.242	10.6
401.605	10.65
401.969	10.77
402.333	10.64
402.697	10.93
403.06	10.73
403.424	10.84
403.787	10.8
404.151	10.88
404.514	10.61
404.878	10.74
405.241	11.06
405.604	10.89
405.968	11.16
406.331	11
406.694	10.93
407.057	11.1
407.42	11.3
407.783	10.86
408.146	10.98
408.509	11.16
408.872	10.86
409.235	10.94
409.598	11.1
409.961	11.27
410.323	11.23
410.686	11.16
411.049	11.1
411.411	10.99
411.774	11.26
412.136	11.2
412.499	11.02
412.861	11.32
413.223	11.31
413.586	11.41
413.948	11.18
414.31	11.24
414.672	11.07
415.035	10.98
415.397	11.73
415.759	11.3
416.121	11.55
416.483	11.43
416.845	11.38
417.206	11.61
417.568	11.54
417.93	11.22
418.292	11.39
418.653	11.43
419.015	11.48
419.377	11.55
419.738	11.47
420.1	11.42
420.461	11.53
420.822	11.54
421.184	11.28
421.545	11.49
421.906	11.38
422.267	11.51
422.629	11.45
422.99	11.49
423.351	11.44
423.712	11.39
424.073	11.39
424.434	11.66
424.795	11.56
425.155	11.56
425.516	11.61
425.877	11.56
426.238	11.5
426.598	11.61
426.959	11.58
427.32	11.57
427.68	11.67
428.041	11.66
428.401	11.8
428.761	11.9
429.122	12.08
429.482	11.71
429.842	11.95
430.202	12.04
430.563	11.96
430.923	12.19
431.283	12.1
431.643	12.21
432.003	12.46
432.363	12.24
432.722	12.33
433.082	12.32
433.442	12.2
433.802	12.19
434.161	12.25
434.521	12.31
434.881	12.37
435.24	12.33
435.6	12.34
435.959	12.41
436.319	12.21
436.678	12.22
437.037	12.36
437.396	12.6
437.756	12.48
438.115	12.21
438.474	12.68
438.833	12.41
439.192	12.42
439.551	12.64
439.91	12.52
440.269	12.58
440.628	12.71
440.987	12.63
441.345	12.47
441.704	12.68
442.063	12.63
442.421	12.69
442.78	12.55
443.138	12.59
443.497	12.54
443.855	12.57
444.214	12.85
444.572	12.83
444.93	12.79
445.288	12.81
445.647	13
446.005	12.97
446.363	13.15
446.721	12.97
447.079	12.94
447.437	12.96
447.795	12.95
448.153	12.81
448.51	12.94
448.868	12.94
449.226	12.92
449.584	12.9
449.941	13.19
450.299	13.11
450.656	13.09
451.014	13.11
451.371	13.06
451.729	13.07
452.086	13.3
452.443	13.06
452.801	13.29
453.158	13.5
453.515	13.35
453.872	13.42
454.229	13.24
454.586	13.36
454.943	13.33
455.3	13.52
455.657	13.46
456.014	13.5
456.371	13.44
456.727	13.6
457.084	13.68
457.441	13.57
457.797	13.7
458.154	13.64
458.51	13.56
458.867	13.8
459.223	13.8
459.58	14.09
459.936	13.91
460.292	13.8
460.648	13.78
461.005	13.89
461.361	13.97
461.717	13.92
462.073	13.58
462.429	13.64
462.785	13.7
463.141	13.79
463.496	13.82
463.852	14.12
464.208	13.93
464.564	14.05
464.919	14.2
465.275	13.99
465.631	14.4
465.986	14.22
466.342	14.35
466.697	13.99
467.052	14.37
467.408	14.27
467.763	14.53
468.118	14.36
468.473	14.4
468.829	14.42
469.184	14.22
469.539	14.63
469.894	14.38
470.249	14.55
470.603	14.48
470.958	14.62
471.313	14.64
471.668	14.98
472.023	14.72
472.377	14.45
472.732	14.7
473.086	14.5
473.441	14.34
473.795	14.86
474.15	14.88
474.504	14.83
474.859	14.72
475.213	14.77
475.567	14.74
475.921	14.97
476.275	14.91
476.63	14.92
476.984	15.02
477.338	15.15
477.692	15.04
478.045	15.13
478.399	14.97
478.753	15.3
479.107	15.13
479.461	15.24
479.814	15.2
480.168	15.2
480.521	15.09
480.875	15.28
481.228	15.18
481.582	15.19
481.935	15.4
482.289	15.33
482.642	15.32
482.995	15.3
483.348	15.4
483.701	15.25
484.055	15.3
484.408	15.29
484.761	15.28
485.114	15.13
485.466	14.96
485.819	14.97
486.172	14.76
486.525	14.67
486.878	14.65
487.23	14.72
487.583	14.97
487.936	15.21
488.288	15.2
488.641	15.36
488.993	15.38
489.345	15.19
489.698	15.17
490.05	15.11
490.402	15.18
490.754	15.23
491.107	15.41
491.459	15.47
491.811	15.61
492.163	15.66
492.515	15.74
492.866	15.9
493.218	15.84
493.57	15.73
493.922	15.64
494.274	15.56
494.625	15.57
494.977	15.85
495.328	16.02
495.68	16.13
496.031	16.36
496.383	16.15
496.734	16.67
497.086	16.42
497.437	16.49
497.788	16.45
498.139	16.48
498.49	16.57
498.842	16.41
499.193	16.51
499.544	16.51
499.894	16.39
500.245	16.63
500.596	16.74
500.947	16.76
501.298	16.59
501.648	16.7
501.999	16.92
502.35	16.86
502.7	16.93
503.051	16.74
503.401	16.93
503.752	17.22
504.102	17.07
504.452	17.09
504.803	17.18
505.153	16.96
505.503	17.07
505.853	17.18
506.203	17.19
506.553	17.21
506.903	17.14
507.253	17.24
507.603	17.25
507.953	17.49
508.303	17.54
508.652	17.21
509.002	17.65
509.352	17.54
509.701	17.5
510.051	17.46
510.4	17.43
510.75	17.44
511.099	17.54
511.449	17.62
511.798	17.53
512.147	17.54
512.496	17.65
512.846	17.9
513.195	17.64
513.544	17.81
513.893	17.85
514.242	17.93
514.591	17.94
514.939	18.01
515.288	17.82
515.637	17.93
515.986	17.91
516.334	18.03
516.683	18.25
517.032	18.02
517.38	18.32
517.729	18.23
518.077	18.21
518.426	18.29
518.774	18.39
519.122	18.31
519.47	18.34
519.819	18.28
520.167	18.33
520.515	18.48
520.863	18.21
521.211	18.3
521.559	18.28
521.907	18.33
522.255	18.21
522.602	18.57
522.95	18.56
523.298	18.54
523.645	18.84
523.993	18.79
524.341	18.87
524.688	18.81
525.036	18.86
525.383	18.99
525.73	19.06
526.078	19.11
526.425	18.98
526.772	19.12
527.119	19.11
527.466	19.04
527.814	18.88
528.161	18.88
528.508	18.76
528.854	18.93
529.201	18.93
529.548	18.92
529.895	18.98
530.242	18.78
530.588	18.71
530.935	18.66
531.282	18.61
531.628	18.48
531.975	18.65
532.321	18.88
532.667	19.07
533.014	19.15
533.36	19.28
533.706	19.48
534.052	19.38
534.399	19.51
534.745	19.5
535.091	19.54
535.437	19.42
535.783	19.37
536.129	19.35
536.474	19.33
536.82	19.51
537.166	19.61
537.512	19.86
537.857	20.02
538.203	20.22
538.549	20.02
538.894	20
539.239	20.02
539.585	19.95
539.93	19.94
540.276	20.22
540.621	20.41
540.966	20.39
541.311	20.46
541.656	20.54
542.001	20.42
542.346	20.67
542.691	20.52
543.036	20.36
543.381	20.28
543.726	20.19
544.071	20.19
544.415	20.25
544.76	20.23
545.105	20.39
545.449	20.56
545.794	20.72
546.138	20.67
546.483	20.73
546.827	20.97
547.171	21.11
547.516	21.2
547.86	21.07
548.204	21.09
548.548	21.18
548.892	21.26
549.236	21.17
549.58	21.19
549.924	21.14
550.268	21.32
550.612	21.6
550.956	21.7
551.3	21.55
551.643	21.64
551.987	21.98
552.33	21.78
552.674	22.01
553.017	21.92
553.361	22
553.704	22.01
554.048	22.11
554.391	22.02
554.734	22.12
555.077	22.23
555.42	21.98
555.764	22.12
556.107	21.99
556.45	22.19
556.793	22.24
557.135	22.25
557.478	22.56
557.821	22.64
558.164	22.46
558.507	22.49
558.849	22.71
559.192	22.77
559.534	22.87
559.877	22.98
560.219	22.9
560.562	23.08
560.904	22.91
561.246	23.02
561.589	23.04
561.931	23.18
562.273	22.99
562.615	23.03
562.957	23.15
563.299	23.3
563.641	23.05
563.983	23.25
564.325	23.11
564.667	23.14
565.008	23.43
565.35	23.52
565.692	23.35
566.033	23.34
566.375	23.54
566.716	23.67
567.058	23.45
567.399	23.48
567.741	23.44
568.082	23.54
568.423	23.79
568.764	23.77
569.105	23.88
569.447	23.66
569.788	23.68
570.129	24.14
570.47	23.84
570.811	24.07
571.151	24.16
571.492	24.22
571.833	24.02
572.174	24.05
572.514	24.17
572.855	24.43
573.195	24.4
573.536	24.2
573.876	24.26
574.217	24.29
574.557	24.26
574.898	24.71
575.238	24.38
575.578	24.41
575.918	24.55
576.258	24.59
576.598	24.83
576.938	24.67
577.278	24.77
577.618	24.68
577.958	24.75
578.298	24.77
578.638	24.7
578.977	24.99
579.317	24.8
579.657	24.98
579.996	25.15
580.336	25.43
580.675	25.16
581.014	25.17
581.354	25.41
581.693	25.41
582.032	25.12
582.372	25.44
582.711	25.81
583.05	25.55
583.389	25.78
583.728	25.47
584.067	26
584.406	25.68
584.745	26.03
585.083	26.06
585.422	26.1
585.761	26.05
586.1	25.87
586.438	25.95
586.777	26.57
587.115	26.24
587.454	26.3
587.792	26.31
588.13	26.09
588.469	26.36
588.807	26.2
589.145	26.44
589.483	26.45
589.821	26.54
590.159	26.33
590.497	26.61
590.835	26.46
591.173	26.58
591.511	26.74
591.849	27.18
592.187	26.85
592.524	26.91
592.862	26.65
593.2	27.1
593.537	26.87
593.875	26.81
594.212	27.04
594.55	26.85
594.887	27.33
595.224	27.02
595.561	27.13
595.899	27.34
596.236	27.42
596.573	27.23
596.91	26.85
597.247	27.41
597.584	27.44
597.921	27.45
598.258	27.34
598.594	27.62
598.931	27.64
599.268	27.47
599.604	27.35
599.941	27.49
600.277	27.5
600.614	27.65
600.95	27.51
601.287	28.04
601.623	27.9
601.959	27.87
602.296	28.2
602.632	28
602.968	28.32
603.304	28
603.64	28.17
603.976	28.57
604.312	28.14
604.648	28.56
604.984	28.49
605.319	28.51
605.655	28.71
605.991	28.74
606.326	28.67
606.662	28.49
606.998	28.49
607.333	28.49
607.668	28.75
608.004	28.64
608.339	28.72
608.674	28.75
609.01	28.61
609.345	29.15
609.68	29.16
610.015	29.01
610.35	28.91
610.685	28.84
611.02	29.24
611.355	29.38
611.689	29.01
612.024	29.48
612.359	29.48
612.694	29.28
613.028	29.48
613.363	29.53
613.697	29.44
614.032	29.79
614.366	29.52
614.7	29.47
615.035	29.9
615.369	29.68
615.703	29.9
616.037	30.09
616.371	29.7
616.705	30.04
617.039	30.19
617.373	29.74
617.707	29.92
618.041	30.04
618.375	30.32
618.709	30.15
619.042	30.29
619.376	30.6
619.71	30.81
620.043	30.77
620.377	30.19
620.71	30.86
621.043	30.83
621.377	30.2
621.71	30.85
622.043	30.52
622.376	30.89
622.709	30.86
623.043	30.79
623.376	31.22
623.709	31.17
624.041	31.31
624.374	30.88
624.707	30.95
625.04	31.41
625.373	31.09
625.705	31.64
626.038	31.38
626.37	30.89
626.703	31.6
627.035	31.83
627.368	32.07
627.7	31.82
628.032	31.35
628.365	31.85
628.697	32.25
629.029	31.41
629.361	31.71
629.693	31.69
630.025	31.52
630.357	31.98
630.689	31.93
631.021	32.08
631.353	31.9
631.684	32.19
632.016	32.12
632.348	32.43
632.679	32.69
633.011	32.88
633.342	32.47
633.674	32.55
634.005	32.44
634.336	32.9
634.668	32.71
634.999	32.58
635.33	33.26
635.661	33.09
635.992	33.16
636.323	32.65
636.654	32.75
636.985	32.92
637.316	32.83
637.647	32.48
637.977	33.01
638.308	33.09
638.639	33.04
638.969	32.9
639.3	33.13
639.63	32.94
639.961	33.28
640.291	33.34
640.622	33.5
640.952	33.35
641.282	33.49
641.612	33.63
641.943	33.68
642.273	33.49
642.603	34.14
642.933	33.96
643.263	34.04
643.592	33.99
643.922	33.49
644.252	33.88
644.582	33.83
644.911	33.45
645.241	33.78
645.571	34.04
645.9	34.39
646.23	33.52
646.559	34.62
646.888	34.05
647.218	34.48
647.547	34.28
647.876	34.48
648.205	34.62
648.534	34.4
648.863	34.58
649.192	34.87
649.521	34.27
649.85	34.58
650.179	34.76
650.508	34.37
650.837	34.28
651.165	34.85
651.494	35.49
651.822	35.21
652.151	34.83
652.479	35.33
652.808	34.64
653.136	35.04
653.465	34.76
653.793	35.11
654.121	34.52
654.449	35.36
654.777	35.42
655.105	35.61
655.433	35.21
655.761	35.81
656.089	35.74
656.417	35.42
656.745	35.31
657.073	35.36
657.4	36.6
657.728	36.1
658.056	36.14
658.383	36.26
658.711	35.73
659.038	36.64
659.365	36.53
659.693	36.2
660.02	36.62
660.347	36.32
660.674	36.54
661.001	36.4
661.329	35.75
661.656	36.23
661.982	36.2
662.309	35.78
662.636	36.04
662.963	36.9
663.29	36.66
663.616	36.69
663.943	36.42
664.27	36.5
664.596	37.63
664.923	36.55
665.249	37.24
665.576	37.12
665.902	37.47
666.228	37.84
666.554	37.63
666.881	37.08
667.207	37.6
667.533	37.61
667.859	37.69
668.185	37.04
668.511	36.84
668.837	36.8
669.162	37.24
669.488	36.4
669.814	37.66
670.139	38.06
670.465	37.84
670.791	37.73
671.116	38.15
671.442	37.22
671.767	37.24
672.092	38.05
672.418	38.74
672.743	37.95
673.068	37.8
673.393	37.84
673.718	37.69
674.043	38.25
674.368	38.38
674.693	39.04
675.018	38.39
675.343	38.32
675.667	38.89
675.992	38.7
676.317	38.72
676.641	38.61
676.966	39.02
677.29	38.42
677.615	38.87
677.939	38.97
678.264	38.75
678.588	38.61
678.912	39.17
679.236	39.04
679.56	38.8
679.885	39.65
680.209	39.31
680.532	39.08
680.856	39.88
681.18	38.9
681.504	38.84
681.828	39.71
682.152	39.51
682.475	39.98
682.799	40.03
683.122	38.91
683.446	39.32
683.769	39.68
684.093	39.53
684.416	39.67
684.739	39.84
685.062	39.63
685.386	39.95
685.709	39.25
686.032	39.48
686.355	39.67
686.678	40.04
687.001	39.25
687.324	40.67
687.646	39.99
687.969	40.81
688.292	40.15
688.614	40.88
688.937	41.26
689.26	39.94
689.582	40.68
689.904	40.24
690.227	39.81
690.549	40.81
690.871	40.98
691.194	40.55
691.516	40.01
691.838	40.12
692.16	40.5
692.482	41.64
692.804	39.4
693.126	40.74
693.448	41.06
693.769	41.35
694.091	40.55
694.413	42.38
694.735	40.96
695.056	41.6
695.378	41.59
695.699	40.83
696.021	41.22
696.342	39.9
696.663	40.68
696.984	40.6
697.306	40.17
697.627	41.41
697.948	40.94
698.269	40.99
698.59	41.88
698.911	41.09
699.232	42
699.553	42.5
699.873	41.74
700.194	42.68
700.515	42.73
700.835	42.36
701.156	42.63
701.477	42.15
701.797	41.74
702.117	42.22
702.438	41.96
702.758	42.06
703.078	41.56
703.398	41.31
703.719	42.09
704.039	41.87
704.359	43.3
704.679	43.24
704.999	42.05
705.319	41.96
705.638	41.99
705.958	42.7
706.278	42.08
706.597	42.63
706.917	41.64
707.237	43.2
707.556	42.44
707.876	42.78
708.195	43.63
708.514	41.98
708.834	42.33
709.153	44.19
709.472	43.41
709.791	43.63
710.11	43.81
710.429	44.31
710.748	43.33
711.067	42.7
711.386	43.3
711.705	44.84
712.023	42.98
712.342	43.09
712.661	43.13
712.979	44.15
713.298	43.91
713.616	43.44
713.935	44.13
714.253	43.3
714.572	43.38
714.89	42.83
715.208	43.2
715.526	42.48
715.844	43.22
716.162	44.61
716.48	44.54
716.798	44.79
717.116	44.19
717.434	44.62
717.752	42.66
718.069	45.25
718.387	44.47
718.705	43.79
719.022	43.26
719.34	44.36
719.657	43.44
719.975	44.9
720.292	43.71
720.609	44.44
720.927	44.92
721.244	44.7
721.561	43.78
721.878	45.57
722.195	44.1
722.512	45.19
722.829	45.61
723.146	45.06
723.463	45.49
723.779	44.04
724.096	44.03
724.413	45.11
724.729	44.06
725.046	44.79
725.362	45.9
725.679	44.5
725.995	45.08
726.311	45.04
726.628	44.88
726.944	44.73
727.26	45.44
727.576	44.08
727.892	47.01
728.208	43.18
728.524	45.7
728.84	45.41
729.156	45.56
729.472	45.11
729.787	44.91
730.103	45.75
730.419	46.46
730.734	45.45
731.05	44.69
731.365	45.42
731.681	44.83
731.996	47.75
732.311	45.54
732.626	46.44
732.942	47.36
733.257	46.57
733.572	46.35
733.887	45.96
734.202	45.4
734.517	47.06
734.832	46.42
735.146	46
735.461	47
735.776	47.3
736.091	46.66
736.405	47.02
736.72	45.46
737.034	47.62
737.349	47.2
737.663	47.94
737.977	46.93
738.292	46.86
738.606	48.02
738.92	48.74
739.234	49.06
739.548	45.8
739.862	44.94
740.176	47.56
740.49	47.14
740.804	49.61
741.117	46.64
741.431	46.52
741.745	47.77
742.058	48.31
742.372	46.58
742.685	45.76
742.999	47.33
743.312	47.74
743.626	46.42
743.939	46.1
744.252	48.41
744.565	45.89
744.878	47.23
745.191	46.64
745.505	46.81
745.817	50.25
746.13	48.35
746.443	48.72
746.756	49.97
747.069	48.56
747.381	49.86
747.694	49.53
748.007	50.1
748.319	48.12
748.632	49.47
748.944	47.62
749.256	50.66
749.569	47.61
749.881	49.43
750.193	47.59
750.505	45.54
750.817	50.33
751.129	48.28
751.441	48.61
751.753	50.19
752.065	46.07
752.377	48.59
752.689	49.85
753	47.9
753.312	46.64
753.624	48.9
753.935	49.69
754.247	49.41
754.558	48.55
754.869	49.68
755.181	48.3
755.492	48.47
755.803	48.06
756.114	47.68
756.425	48.11
756.736	48.92
757.047	51.35
757.358	49.37
757.669	48.31
757.98	48.45
758.291	49.34
758.601	48.9
758.912	50.65
759.223	48.35
759.533	48.67
759.844	48.24
760.154	50.62
760.464	49.53
760.775	49.38
761.085	48.99
761.395	49.96
761.705	48.48
762.016	50.37
762.326	48.98
762.636	48.86
762.945	48.66
763.255	50.92
763.565	49.85
763.875	50.24
764.185	50.28
764.494	50.7
764.804	49.71
765.113	48.54
765.423	48.37
765.732	50.77
766.042	49.66
766.351	51.41
766.66	51.21
766.97	50.15
767.279	48.33
767.588	51.28
767.897	51.29
768.206	49.59
768.515	49.18
768.824	50.36
769.133	51.21
769.441	51.16
769.75	50.14
770.059	53.02
770.367	51
770.676	51.1
770.984	53.01
771.293	50.2
771.601	55.99
771.91	47.85
772.218	52.39
772.526	53.33
772.834	50.13
773.142	50.1
773.45	48.07
773.758	50.37
774.066	51.88
774.374	48.42
774.682	52.7
774.99	54.19
775.298	49.6
775.605	51.33
775.913	48.25
776.22	55.37
776.528	54.38
776.835	52.81
777.143	53.27
777.45	51.75
777.757	55.04
778.065	51.04
778.372	50.32
778.679	49.48
778.986	51.63
779.293	52.16
779.6	51.9
779.907	53.84
780.214	54.18
780.52	51.91
780.827	50.17
781.134	50.2
781.44	50.44
781.747	49.45
782.053	48.91
782.36	51.49
782.666	54.68
782.973	51.54
783.279	50.06
783.585	51.77
783.891	50.98
784.197	48.19
784.503	52.44
784.809	49.75
785.115	52.64
785.421	58.62
785.727	55.08
786.033	51.73
786.339	57.11
786.644	49.43
786.95	49.39
787.255	53.12
787.561	54.58
787.866	52.7
788.172	50.19
788.477	51.41
788.782	51.08
789.088	48.94
789.393	46.57
789.698	49.36
790.003	54.17
790.308	53.18
790.613	52.32
790.918	52.61
791.223	49.49
791.527	51.23
791.832	53.34
792.137	50.51
792.441	49.58
792.746	51.28
793.05	51.2
793.355	53.35
793.659	53.27
793.963	54.81
794.268	53.67
794.572	51.48
794.876	51.19
795.18	52.41
795.484	54.29
795.788	57.05
796.092	54.1
796.396	48.29
796.7	50.98
797.004	50.63
797.307	52.71
797.611	52.38
797.915	48.7
798.218	55.38
798.522	54.06
798.825	58.55
799.128	51.05
799.432	54.45
799.735	49.83
800.038	52.82
800.341	52.21
800.644	53.06
800.947	54.71
801.25	48.96
801.553	48.26
801.856	52.25
802.159	52.43
802.462	55.85
802.764	49.07
803.067	55.53
803.37	56.02
803.672	49.33
803.975	52.97
804.277	57.37
804.579	52.99
804.882	51.91
805.184	46.43
805.486	49.79
805.788	52.05
806.09	58.09
806.392	53.53
806.694	52.96
806.996	57.71
807.298	57
807.6	56.99
807.902	53.1
808.203	54.86
808.505	53.6
808.807	46.94
809.108	53.41
809.409	49.22
809.711	47.52
810.012	53.85
810.313	55.08
810.615	51.11
810.916	56.57
811.217	51.58
811.518	60.64
811.819	51.29
812.12	62.36
812.421	50.08
812.722	53.92
813.023	53.2
813.323	53.32
813.624	50.95
813.925	56.74
814.225	56.73
814.526	61.23
814.826	60.76
815.126	50.44
815.427	58.12
815.727	54.65
816.027	48.56
816.327	51.67
816.627	47.21
816.927	52.4
817.227	56.58
817.527	55.79
817.827	55.84
818.127	60.25
818.427	50.06
818.727	46.44
819.026	58.53
819.326	56.97
819.625	45.57
819.925	51.72
820.224	59.95
820.524	51.88
820.823	57.92
821.122	52.49
821.421	51.54
821.72	51.08
822.019	57.48
822.318	54.2
822.617	49.76
822.916	54.1
823.215	51.1
823.514	56.6
823.813	55.91
824.111	54.52
824.41	59.9
824.709	57.19
825.007	55.87
825.306	55.73
825.604	57.86
825.902	56.74
826.201	55.81
826.499	55.38
826.797	55.65
827.095	56.55
827.393	54.18
827.691	56.29
827.989	54.64
828.287	54.31
828.585	54.22
828.882	55.74
829.18	54.77
829.478	58.99
829.775	54.58
830.073	57.44
830.37	56.82
830.668	54.47
830.965	56.61
831.263	56.02
831.56	55.97
831.857	57.54
832.154	54.78
832.451	56.32
832.748	49.98
833.045	54.75
833.342	61.42
833.639	56.29
833.936	59.29
834.232	57.98
834.529	59.71
834.826	57.27
835.122	46.15
835.419	52.53
835.715	54.23
836.012	56.86
836.308	55.35
836.604	50.02
836.901	54.75
837.197	54.69
837.493	56.41
837.789	51.94
838.085	53.78
838.381	57.3
838.677	55.41
838.972	52.64
839.268	55.38
839.564	59.02
839.86	57.86
840.155	46.93
840.451	53.54
840.746	56.67
841.042	53.94
841.337	61.23
841.632	54.69
841.928	53.97
842.223	58.71
842.518	57.78
842.813	54.45
843.108	61.66
843.403	64.9
843.698	50.44
843.993	46.77
844.287	52.68
844.582	54.04
844.877	51.19
845.171	62.79
845.466	69.38
845.761	55.61
846.055	53.3
846.349	44.63
846.644	60.22
846.938	48.64
847.232	70.76
847.526	57.7
847.82	55.81
848.114	59.68
848.408	59.26
848.702	51.83
848.996	49.53
849.29	64.01
849.584	54.67
849.877	61.54
850.171	54.72
850.465	37.42
850.758	54.42
851.052	85.86
851.345	65.5
851.638	50.97
851.932	34.5
852.225	70.76
852.518	67.23
852.811	42.87
853.104	42.48
853.397	64.71
853.69	71.42
853.983	45.6
854.276	69.27
854.569	54.97
854.861	52.07
855.154	78.76
855.447	69.2
855.739	42.17
856.032	38.76
856.324	62.87
856.616	52.03
856.909	47.1
857.201	73.55
857.493	70.35
857.785	29.76
858.077	70.26
858.369	27.72
858.661	70.53
858.953	45.65
859.245	40.1
859.537	63.34
859.829	81.51
860.12	60.05
860.412	81.79
860.703	25.15
860.995	45.64
861.286	34.3
861.578	44.49
861.869	69.21
862.16	67.64
862.452	50.59
862.743	67.85
863.034	67.92
863.325	45.57
863.616	22.83
863.907	24.97
864.198	39.8
864.488	79.03
864.779	65.68
865.07	44.48
865.36	0.09
865.651	58.09
865.941	51.38
866.232	69.93
866.522	23.49
866.813	82.99
867.103	56.01
867.393	36.6
867.683	68.57
867.973	30.91
868.263	65.95
868.553	67.4
868.843	65.83
869.133	47.26
869.423	54.8
869.713	37.54
870.002	51.53
870.292	58.09
870.582	58.37
870.871	54.13
871.161	70.6
871.45	63.45
871.739	33.65
872.029	89.08
872.318	57.44
872.607	63.16
872.896	62.07
873.185	69.4
873.474	22.93
873.763	52.49
874.052	109.21
874.341	69.83
874.63	62.72
874.918	57.69
875.207	86.83
875.496	54.04
875.784	9.84
876.073	55.18
876.361	60.54
876.649	83.17
876.938	89.34
877.226	74.26
877.514	42.79
877.802	45.83
878.09	51.48
878.378	69.13
878.666	65.67
878.954	14.54
879.242	67.38
879.53	58.08
879.817	47.75
880.105	88.79
880.392	72.88
880.68	93.01
880.967	21.92
881.255	70.85
881.542	48.33
881.83	92.24
882.117	73.83
882.404	12.86
882.691	74.1
882.978	54.37
883.265	74.01
883.552	78.88
883.839	53.77
884.126	60.05
884.413	73.88
884.699	62.82
884.986	53.8
885.273	55.52
885.559	55.52
885.846	55.52
