Data from 0046_crown_Reflection__2__173.txt Node

Date: Fri Nov 04 16:15:00 CDT 2022
User: ToomeyLab
Spectrometer: FLMS14357
Trigger mode: 0
Integration Time (sec): 1.000000E-2
Scans to average: 100
Electric dark correction enabled: true
Nonlinearity correction enabled: false
Boxcar width: 0
XAxis mode: Wavelengths
Number of Pixels in Spectrum: 2048
>>>>>Begin Spectral Data<<<<<
189.047	-126.9
189.435	-126.9
189.823	-126.9
190.211	11.27
190.599	77.14
190.987	274.24
191.375	68.17
191.763	24.44
192.151	57.99
192.538	178.84
192.926	-4.66
193.314	-26.86
193.702	118.93
194.089	-24.72
194.477	-81.09
194.864	-6.68
195.252	74.62
195.639	162.03
196.027	103.07
196.414	137.84
196.801	59.66
197.189	78.99
197.576	309.02
197.963	-131.47
198.351	-44.16
198.738	24.9
199.125	-11.82
199.512	-20.49
199.899	-34.04
200.286	16.44
200.673	-13.66
201.06	-1.68
201.447	-53.65
201.833	-6.82
202.22	10.6
202.607	-21.68
202.994	61.85
203.38	47.95
203.767	-2.87
204.154	26.21
204.54	-44.58
204.927	1.15
205.313	18.99
205.699	41.75
206.086	25.61
206.472	-19.47
206.858	-5.94
207.245	-10.06
207.631	12.36
208.017	20
208.403	2.68
208.789	11.78
209.175	3.11
209.561	-148.46
209.947	-104
210.333	4.48
210.719	0.65
211.105	-33.95
211.491	-14.61
211.876	-13.97
212.262	-12.2
212.648	-45.06
213.034	11.38
213.419	-23.81
213.805	-17.47
214.19	-18.15
214.576	-11.68
214.961	1.46
215.346	-6.57
215.732	13.66
216.117	-25.16
216.502	-9.01
216.888	-4.55
217.273	1.84
217.658	38.79
218.043	-16.02
218.428	11.5
218.813	-8.51
219.198	-2.3
219.583	-22.12
219.968	3.5
220.353	-7.58
220.738	-44.83
221.122	-3.51
221.507	25.76
221.892	-13.26
222.276	-10.39
222.661	13.95
223.046	-9.77
223.43	-3.88
223.815	-5.72
224.199	7.06
224.583	-20.72
224.968	-3.95
225.352	-0.06
225.736	-6.71
226.121	-15.27
226.505	0.78
226.889	2.49
227.273	2.97
227.657	-0.15
228.041	-0.01
228.425	3.68
228.809	3.05
229.193	2.18
229.577	0.72
229.961	3.27
230.344	2.41
230.728	2.59
231.112	1.67
231.495	2.07
231.879	2.35
232.263	2.09
232.646	1.05
233.03	0.11
233.413	-0.7
233.797	1.62
234.18	-0.82
234.563	1.79
234.946	1.88
235.33	3.7
235.713	0.3
236.096	2.34
236.479	1.64
236.862	1.29
237.245	0.02
237.628	0.89
238.011	-0.44
238.394	1.49
238.777	3.51
239.16	1.83
239.543	2.54
239.925	3.11
240.308	0.51
240.691	1.97
241.073	1.46
241.456	2.07
241.838	1.72
242.221	1.79
242.603	1.73
242.986	1.99
243.368	2.45
243.75	2.07
244.133	2.7
244.515	2.06
244.897	2.06
245.279	1.92
245.661	2.06
246.043	2.21
246.425	1.92
246.807	2.72
247.189	1.64
247.571	2.49
247.953	1.89
248.335	1.95
248.717	2.21
249.098	2.13
249.48	2.14
249.862	2.19
250.243	2.42
250.625	1.98
251.006	2.08
251.388	1.75
251.769	2.01
252.151	3.31
252.532	2.22
252.913	0.83
253.295	2.1
253.676	1.84
254.057	1.88
254.438	2.06
254.819	2.53
255.2	1.26
255.581	2.31
255.962	2.69
256.343	1.54
256.724	2.98
257.105	2.39
257.486	2.12
257.867	3.29
258.247	2.59
258.628	0.94
259.009	1.59
259.389	1.44
259.77	1.86
260.15	1.87
260.531	1.77
260.911	1.8
261.292	1.8
261.672	2.01
262.052	2.1
262.432	2.16
262.813	1.73
263.193	1.24
263.573	2.03
263.953	2.05
264.333	1.99
264.713	2.5
265.093	1.97
265.473	2.19
265.853	1.32
266.233	2
266.612	2.59
266.992	2.59
267.372	1.05
267.752	1.85
268.131	2.02
268.511	2.07
268.89	2.23
269.27	1.96
269.649	2
270.029	1.98
270.408	1.88
270.787	1.96
271.167	2.3
271.546	2.85
271.925	1.96
272.304	1.83
272.683	1.47
273.062	1.73
273.441	2.25
273.82	1.66
274.199	1.87
274.578	1.85
274.957	1.82
275.336	1.61
275.715	1.59
276.093	1.91
276.472	1.66
276.851	1.37
277.229	1.86
277.608	1.5
277.986	2.42
278.365	1.91
278.743	1.95
279.122	2.13
279.5	2.15
279.878	2.25
280.257	1.28
280.635	1.45
281.013	1.83
281.391	2.08
281.769	1.8
282.147	1.49
282.525	1.77
282.903	1.78
283.281	2.25
283.659	1.97
284.037	2
284.415	1.7
284.792	2.12
285.17	1.43
285.548	1.86
285.925	1.89
286.303	2.24
286.68	2.19
287.058	1.79
287.435	1.99
287.813	2.06
288.19	2.08
288.567	1.93
288.945	1.83
289.322	1.95
289.699	2.04
290.076	1.79
290.453	2.04
290.83	1.72
291.207	1.6
291.584	1.97
291.961	1.95
292.338	2.23
292.715	2.22
293.092	2.08
293.469	2.03
293.845	1.56
294.222	1.84
294.599	1.35
294.975	1.52
295.352	1.97
295.728	1.85
296.105	2.09
296.481	2.12
296.858	2.12
297.234	2.33
297.61	2.29
297.986	1.58
298.363	1.82
298.739	1.98
299.115	2.09
299.491	2.26
299.867	2.12
300.243	2
300.619	2.54
300.995	2.31
301.371	2.61
301.746	2.41
302.122	2.13
302.498	1.88
302.874	2.04
303.249	1.91
303.625	1.99
304	2.12
304.376	2.04
304.751	1.71
305.127	1.56
305.502	2.25
305.878	2.19
306.253	2.16
306.628	1.9
307.003	2.03
307.378	2.08
307.754	2.25
308.129	1.92
308.504	2.05
308.879	2.38
309.254	2.39
309.629	2.49
310.003	2.14
310.378	2.08
310.753	2.01
311.128	1.99
311.502	1.87
311.877	2.02
312.252	1.89
312.626	1.97
313.001	2.16
313.375	2.21
313.75	2.09
314.124	1.95
314.498	2.23
314.873	2.12
315.247	2.22
315.621	1.96
315.995	2.3
316.369	1.99
316.743	2.14
317.117	2.44
317.491	2.02
317.865	1.79
318.239	2.04
318.613	2.64
318.987	2.51
319.361	2.56
319.734	2.5
320.108	2
320.482	1.7
320.855	2.13
321.229	1.72
321.602	2.05
321.976	2.63
322.349	2.76
322.723	1.86
323.096	2.27
323.469	2.04
323.843	2.14
324.216	2.32
324.589	2.18
324.962	2.72
325.335	2.43
325.708	1.95
326.081	2.47
326.454	2.19
326.827	2.12
327.2	2.24
327.573	2.07
327.945	2.52
328.318	1.77
328.691	2.12
329.063	2.04
329.436	2.31
329.809	1.98
330.181	1.91
330.553	2.48
330.926	2.43
331.298	2.64
331.671	2.35
332.043	2.21
332.415	2.23
332.787	1.69
333.159	2.1
333.532	1.8
333.904	2.33
334.276	2.38
334.648	2.42
335.02	1.91
335.391	2.01
335.763	2.41
336.135	2.06
336.507	2.65
336.879	2.15
337.25	2.66
337.622	2.57
337.993	2.75
338.365	2.31
338.736	2.54
339.108	2.57
339.479	2.38
339.851	2.31
340.222	2.03
340.593	2.56
340.964	2.51
341.336	2.34
341.707	1.87
342.078	2.27
342.449	1.94
342.82	2.29
343.191	2.05
343.562	2.55
343.933	2.51
344.303	2.12
344.674	2.52
345.045	2.04
345.416	1.9
345.786	2.54
346.157	2.26
346.527	2.47
346.898	2.58
347.268	2.32
347.639	2.54
348.009	2.36
348.38	2.24
348.75	2.35
349.12	2.16
349.49	2.16
349.861	1.9
350.231	2.31
350.601	2.13
350.971	2.06
351.341	1.83
351.711	2.47
352.081	2.32
352.45	2.25
352.82	2.35
353.19	2.11
353.56	2.51
353.929	2.51
354.299	2.83
354.669	2.77
355.038	2.21
355.408	1.95
355.777	2.25
356.147	2.15
356.516	2.22
356.885	2.42
357.254	2.7
357.624	2.48
357.993	2.17
358.362	2.33
358.731	2.3
359.1	2.57
359.469	2.44
359.838	2.27
360.207	2.05
360.576	2.54
360.945	2.76
361.314	2.66
361.682	2.14
362.051	2.48
362.42	2.46
362.788	2.43
363.157	2.32
363.525	2.24
363.894	2.35
364.262	2.47
364.631	2.28
364.999	2.33
365.367	2.19
365.735	2.55
366.104	2.32
366.472	2.59
366.84	2.22
367.208	2.19
367.576	2.59
367.944	2.3
368.312	2.53
368.68	2.45
369.048	2.21
369.416	2.18
369.783	2.17
370.151	2.25
370.519	2.68
370.886	2.34
371.254	2.63
371.621	2.57
371.989	2.4
372.356	2.41
372.724	2.65
373.091	2.33
373.458	2.23
373.826	2.48
374.193	2.42
374.56	2.13
374.927	2.49
375.294	2.14
375.661	2.32
376.028	2.2
376.395	2.44
376.762	2.27
377.129	2.37
377.496	2.44
377.863	2.55
378.229	2.33
378.596	2.27
378.963	2.33
379.329	2.5
379.696	2.32
380.062	2.77
380.429	2.19
380.795	2.42
381.161	2.49
381.528	2.54
381.894	2.37
382.26	2.41
382.626	2.26
382.993	2.68
383.359	2.51
383.725	2.56
384.091	2.42
384.457	2.45
384.823	2.32
385.188	2.48
385.554	2.26
385.92	2.27
386.286	2.29
386.651	2.46
387.017	2.33
387.383	2.38
387.748	2.12
388.114	2.17
388.479	2.88
388.845	2.49
389.21	2.77
389.575	2.81
389.94	2.5
390.306	2.62
390.671	2.62
391.036	2.28
391.401	2.58
391.766	2.28
392.131	2.49
392.496	2.74
392.861	2.46
393.226	2.6
393.591	2.65
393.956	2.62
394.32	2.24
394.685	2.53
395.05	2.73
395.414	2.36
395.779	2.45
396.143	2.35
396.508	2.53
396.872	2.55
397.236	2.5
397.601	2.38
397.965	2.52
398.329	2.47
398.694	2.71
399.058	2.77
399.422	2.41
399.786	2.41
400.15	2.52
400.514	2.52
400.878	2.43
401.242	2.75
401.605	2.45
401.969	2.66
402.333	2.58
402.697	2.6
403.06	2.83
403.424	2.58
403.787	2.62
404.151	2.63
404.514	2.75
404.878	2.55
405.241	2.53
405.604	2.62
405.968	2.55
406.331	2.38
406.694	2.45
407.057	2.64
407.42	2.52
407.783	2.5
408.146	2.52
408.509	2.57
408.872	2.54
409.235	2.62
409.598	2.72
409.961	2.63
410.323	2.47
410.686	2.53
411.049	2.38
411.411	2.49
411.774	2.62
412.136	2.67
412.499	2.86
412.861	2.73
413.223	2.78
413.586	2.68
413.948	2.63
414.31	2.51
414.672	2.68
415.035	2.83
415.397	2.62
415.759	2.71
416.121	2.41
416.483	2.76
416.845	2.53
417.206	2.51
417.568	2.64
417.93	2.56
418.292	2.46
418.653	2.74
419.015	2.44
419.377	2.61
419.738	2.68
420.1	2.7
420.461	2.55
420.822	2.51
421.184	2.71
421.545	2.44
421.906	2.57
422.267	2.44
422.629	2.59
422.99	2.48
423.351	2.47
423.712	2.51
424.073	2.62
424.434	2.48
424.795	2.61
425.155	2.61
425.516	2.59
425.877	2.53
426.238	2.5
426.598	2.6
426.959	2.5
427.32	2.57
427.68	2.62
428.041	2.56
428.401	2.6
428.761	2.73
429.122	2.55
429.482	2.72
429.842	2.59
430.202	2.69
430.563	2.59
430.923	2.79
431.283	2.43
431.643	2.68
432.003	2.73
432.363	2.69
432.722	2.63
433.082	2.66
433.442	2.66
433.802	2.52
434.161	2.57
434.521	2.7
434.881	2.67
435.24	2.59
435.6	2.71
435.959	2.65
436.319	2.73
436.678	2.78
437.037	2.65
437.396	2.83
437.756	2.68
438.115	2.66
438.474	2.76
438.833	2.84
439.192	2.66
439.551	2.83
439.91	2.72
440.269	2.72
440.628	2.73
440.987	2.71
441.345	2.64
441.704	2.66
442.063	2.6
442.421	2.64
442.78	2.84
443.138	2.69
443.497	2.62
443.855	2.62
444.214	2.79
444.572	2.64
444.93	2.64
445.288	2.76
445.647	2.67
446.005	2.77
446.363	2.63
446.721	2.68
447.079	2.64
447.437	2.73
447.795	2.7
448.153	2.63
448.51	2.74
448.868	2.61
449.226	2.57
449.584	2.71
449.941	2.61
450.299	2.76
450.656	2.7
451.014	2.79
451.371	2.85
451.729	2.85
452.086	2.76
452.443	2.82
452.801	2.93
453.158	2.81
453.515	2.83
453.872	2.69
454.229	2.65
454.586	2.73
454.943	2.77
455.3	2.77
455.657	2.62
456.014	2.82
456.371	2.84
456.727	2.89
457.084	2.86
457.441	2.79
457.797	2.74
458.154	2.87
458.51	2.92
458.867	2.79
459.223	2.89
459.58	2.93
459.936	2.8
460.292	2.69
460.648	2.83
461.005	2.72
461.361	2.81
461.717	2.76
462.073	2.76
462.429	2.88
462.785	2.8
463.141	2.85
463.496	2.67
463.852	2.87
464.208	2.91
464.564	2.78
464.919	2.82
465.275	2.89
465.631	2.95
465.986	2.9
466.342	2.8
466.697	2.8
467.052	2.76
467.408	2.73
467.763	2.86
468.118	3.09
468.473	2.94
468.829	2.77
469.184	2.81
469.539	2.76
469.894	2.94
470.249	2.88
470.603	2.93
470.958	2.91
471.313	2.86
471.668	2.73
472.023	2.75
472.377	3
472.732	2.95
473.086	2.83
473.441	3
473.795	2.87
474.15	2.82
474.504	2.91
474.859	2.86
475.213	2.93
475.567	2.81
475.921	2.89
476.275	2.95
476.63	2.98
476.984	2.78
477.338	2.79
477.692	2.97
478.045	2.88
478.399	2.97
478.753	2.98
479.107	3.03
479.461	3.08
479.814	3.05
480.168	2.97
480.521	2.81
480.875	2.98
481.228	3.02
481.582	2.9
481.935	3.03
482.289	2.91
482.642	3.07
482.995	2.99
483.348	2.83
483.701	2.84
484.055	2.83
484.408	2.98
484.761	2.89
485.114	2.81
485.466	2.78
485.819	2.73
486.172	2.71
486.525	2.75
486.878	2.85
487.23	2.89
487.583	2.89
487.936	2.97
488.288	2.9
488.641	2.86
488.993	2.84
489.345	2.8
489.698	2.82
490.05	2.85
490.402	2.84
490.754	2.9
491.107	2.94
491.459	2.96
491.811	2.9
492.163	3.05
492.515	3.01
492.866	2.97
493.218	2.89
493.57	2.81
493.922	2.92
494.274	2.86
494.625	2.95
494.977	3.02
495.328	3.02
495.68	2.91
496.031	2.98
496.383	3.06
496.734	2.91
497.086	3.11
497.437	3.15
497.788	3.12
498.139	3.06
498.49	2.98
498.842	3.08
499.193	2.99
499.544	3.11
499.894	2.98
500.245	3.11
500.596	3.04
500.947	3.05
501.298	3.09
501.648	3.11
501.999	3.09
502.35	3.04
502.7	3.05
503.051	3.15
503.401	3.1
503.752	3.17
504.102	3.11
504.452	3.22
504.803	3.1
505.153	3.14
505.503	3.17
505.853	3.21
506.203	3.09
506.553	3.15
506.903	3.1
507.253	3.28
507.603	3.19
507.953	3.12
508.303	3.18
508.652	3.11
509.002	3.3
509.352	3.18
509.701	3.13
510.051	3.11
510.4	3.1
510.75	3.1
511.099	3.16
511.449	3.17
511.798	3.17
512.147	3.17
512.496	3.15
512.846	2.99
513.195	3.09
513.544	3.15
513.893	3.2
514.242	3.04
514.591	3.07
514.939	3.24
515.288	3.28
515.637	3.19
515.986	3.28
516.334	3.17
516.683	3.2
517.032	3.3
517.38	3.25
517.729	3.25
518.077	3.24
518.426	3.22
518.774	3.19
519.122	3.22
519.47	3.24
519.819	3.15
520.167	3.21
520.515	3.11
520.863	3.08
521.211	3.15
521.559	3.3
521.907	3.17
522.255	3.2
522.602	3.17
522.95	3.19
523.298	3.29
523.645	3.3
523.993	3.3
524.341	3.3
524.688	3.25
525.036	3.25
525.383	3.3
525.73	3.28
526.078	3.25
526.425	3.31
526.772	3.15
527.119	3.22
527.466	3.18
527.814	3.12
528.161	3.18
528.508	3.19
528.854	3.17
529.201	3.19
529.548	3.19
529.895	3.16
530.242	3.12
530.588	3.05
530.935	3.07
531.282	3.13
531.628	3.14
531.975	3.25
532.321	3.23
532.667	3.24
533.014	3.28
533.36	3.26
533.706	3.33
534.052	3.33
534.399	3.26
534.745	3.24
535.091	3.21
535.437	3.18
535.783	3.17
536.129	3.35
536.474	3.36
536.82	3.33
537.166	3.34
537.512	3.45
537.857	3.3
538.203	3.24
538.549	3.24
538.894	3.35
539.239	3.38
539.585	3.32
539.93	3.39
540.276	3.36
540.621	3.38
540.966	3.47
541.311	3.34
541.656	3.42
542.001	3.4
542.346	3.37
542.691	3.34
543.036	3.25
543.381	3.2
543.726	3.25
544.071	3.25
544.415	3.29
544.76	3.37
545.105	3.36
545.449	3.36
545.794	3.29
546.138	3.33
546.483	3.45
546.827	3.43
547.171	3.44
547.516	3.41
547.86	3.36
548.204	3.41
548.548	3.34
548.892	3.38
549.236	3.4
549.58	3.45
549.924	3.44
550.268	3.61
550.612	3.41
550.956	3.6
551.3	3.48
551.643	3.54
551.987	3.54
552.33	3.59
552.674	3.53
553.017	3.61
553.361	3.5
553.704	3.46
554.048	3.49
554.391	3.47
554.734	3.59
555.077	3.53
555.42	3.48
555.764	3.73
556.107	3.64
556.45	3.68
556.793	3.59
557.135	3.55
557.478	3.51
557.821	3.55
558.164	3.72
558.507	3.67
558.849	3.67
559.192	3.62
559.534	3.59
559.877	3.64
560.219	3.78
560.562	3.72
560.904	3.76
561.246	3.51
561.589	3.65
561.931	3.7
562.273	3.6
562.615	3.51
562.957	3.62
563.299	3.69
563.641	3.62
563.983	3.68
564.325	3.54
564.667	3.55
565.008	3.55
565.35	3.62
565.692	3.79
566.033	3.77
566.375	3.63
566.716	3.8
567.058	3.59
567.399	3.82
567.741	3.62
568.082	3.76
568.423	3.68
568.764	3.68
569.105	3.67
569.447	3.7
569.788	3.53
570.129	3.83
570.47	3.78
570.811	3.81
571.151	3.65
571.492	3.9
571.833	3.77
572.174	3.83
572.514	3.78
572.855	3.66
573.195	3.75
573.536	3.66
573.876	3.59
574.217	3.61
574.557	3.7
574.898	3.75
575.238	3.63
575.578	3.97
575.918	3.77
576.258	3.77
576.598	3.8
576.938	3.83
577.278	3.84
577.618	3.68
577.958	3.74
578.298	3.88
578.638	3.66
578.977	3.91
579.317	3.87
579.657	3.73
579.996	3.94
580.336	3.94
580.675	3.74
581.014	4.07
581.354	3.74
581.693	3.85
582.032	3.8
582.372	3.94
582.711	3.83
583.05	3.92
583.389	3.88
583.728	3.81
584.067	4.05
584.406	3.88
584.745	4.15
585.083	3.86
585.422	4.03
585.761	3.89
586.1	3.86
586.438	3.78
586.777	3.84
587.115	3.96
587.454	4.22
587.792	4.08
588.13	4.02
588.469	3.97
588.807	3.99
589.145	3.9
589.483	3.72
589.821	4
590.159	3.72
590.497	4.07
590.835	3.81
591.173	3.73
591.511	3.86
591.849	4.15
592.187	3.96
592.524	4.22
592.862	3.97
593.2	3.89
593.537	3.8
593.875	3.96
594.212	3.84
594.55	4.04
594.887	4.01
595.224	4.25
595.561	3.7
595.899	4.03
596.236	4.19
596.573	4.22
596.91	4.26
597.247	3.96
597.584	3.85
597.921	4.18
598.258	3.94
598.594	3.86
598.931	3.87
599.268	4.04
599.604	4.02
599.941	4.1
600.277	4.07
600.614	4.15
600.95	4.1
601.287	4.03
601.623	4.16
601.959	4.13
602.296	4.12
602.632	4.23
602.968	4.02
603.304	4.22
603.64	4.19
603.976	3.8
604.312	4.2
604.648	3.85
604.984	4.11
605.319	4.09
605.655	4.12
605.991	4.24
606.326	4.05
606.662	4.05
606.998	4.17
607.333	4.06
607.668	4.19
608.004	4.2
608.339	4.09
608.674	4.34
609.01	4.15
609.345	4.19
609.68	4.2
610.015	4.18
610.35	4.13
610.685	4.34
611.02	4.18
611.355	4.33
611.689	4.18
612.024	4.2
612.359	4.13
612.694	4.16
613.028	4.34
613.363	4.5
613.697	4.26
614.032	4.2
614.366	4.15
614.7	4.14
615.035	4.47
615.369	4.32
615.703	4.71
616.037	4.26
616.371	4.44
616.705	4.59
617.039	4.54
617.373	4.46
617.707	4.34
618.041	4.26
618.375	4.28
618.709	4.55
619.042	4.5
619.376	4.48
619.71	4.15
620.043	4.6
620.377	4.55
620.71	4.67
621.043	4.57
621.377	4.41
621.71	4.53
622.043	4.7
622.376	4.72
622.709	4.66
623.043	4.49
623.376	4.82
623.709	4.03
624.041	4.54
624.374	4.4
624.707	4.18
625.04	4.61
625.373	4.63
625.705	4.31
626.038	4.41
626.37	4.54
626.703	4.48
627.035	4.58
627.368	4.56
627.7	4.47
628.032	4.57
628.365	4.98
628.697	4.51
629.029	4.49
629.361	4.66
629.693	4.6
630.025	4.55
630.357	4.36
630.689	4.33
631.021	4.45
631.353	4.39
631.684	4.56
632.016	4.66
632.348	4.56
632.679	4.47
633.011	4.38
633.342	4.66
633.674	4.34
634.005	4.9
634.336	4.81
634.668	4.41
634.999	5.12
635.33	4.45
635.661	4.48
635.992	4.78
636.323	4.68
636.654	4.41
636.985	4.53
637.316	4.27
637.647	4.36
637.977	4.64
638.308	4.95
638.639	4.84
638.969	4.15
639.3	5.09
639.63	4.68
639.961	4.69
640.291	4.79
640.622	4.95
640.952	4.71
641.282	4.73
641.612	4.94
641.943	4.52
642.273	4.68
642.603	4.85
642.933	4.64
643.263	4.38
643.592	4.52
643.922	5.16
644.252	4.88
644.582	4.78
644.911	4.91
645.241	4.57
645.571	4.37
645.9	4.65
646.23	4.86
646.559	5.02
646.888	4.96
647.218	4.96
647.547	4.92
647.876	5.05
648.205	4.4
648.534	5.04
648.863	5
649.192	4.81
649.521	4.66
649.85	5.21
650.179	5.01
650.508	4.7
650.837	5.1
651.165	5.05
651.494	4.89
651.822	4.95
652.151	4.94
652.479	4.88
652.808	4.35
653.136	4.91
653.465	4.87
653.793	5.39
654.121	4.69
654.449	4.72
654.777	4.81
655.105	4.62
655.433	4.95
655.761	4.99
656.089	4.58
656.417	5.02
656.745	4.88
657.073	4.83
657.4	4.98
657.728	4.75
658.056	5.07
658.383	5.61
658.711	4.62
659.038	5.01
659.365	5.58
659.693	5.28
660.02	5.15
660.347	4.86
660.674	4.69
661.001	5.04
661.329	4.82
661.656	4.93
661.982	4.7
662.309	5.03
662.636	4.98
662.963	4.78
663.29	4.96
663.616	5.3
663.943	5.27
664.27	5.53
664.596	4.96
664.923	5.26
665.249	5.41
665.576	5.27
665.902	4.73
666.228	4.52
666.554	5.77
666.881	5.03
667.207	5.31
667.533	4.88
667.859	5.45
668.185	4.87
668.511	5.01
668.837	4.92
669.162	5.39
669.488	5.08
669.814	5.17
670.139	5.16
670.465	5.14
670.791	5.31
671.116	4.77
671.442	5.25
671.767	5.16
672.092	5.2
672.418	4.75
672.743	5.16
673.068	5.36
673.393	5.72
673.718	5.61
674.043	5.3
674.368	4.79
674.693	5.06
675.018	5.06
675.343	5.69
675.667	5.63
675.992	5.63
676.317	5.19
676.641	5.49
676.966	5
677.29	5.27
677.615	5.6
677.939	5.34
678.264	5.88
678.588	5.16
678.912	5.47
679.236	5.14
679.56	5.24
679.885	5.56
680.209	5.44
680.532	5.31
680.856	5.16
681.18	5.13
681.504	5.26
681.828	4.99
682.152	5.79
682.475	5.23
682.799	5.59
683.122	5.75
683.446	5.49
683.769	4.83
684.093	5.73
684.416	5.44
684.739	5.08
685.062	6.31
685.386	5.2
685.709	5.6
686.032	5.74
686.355	5.92
686.678	5.32
687.001	5.76
687.324	6.05
687.646	5.88
687.969	5.66
688.292	5.9
688.614	5.82
688.937	5.42
689.26	5.53
689.582	6.4
689.904	5.76
690.227	5.35
690.549	5.82
690.871	5.15
691.194	5.82
691.516	5.38
691.838	5.28
692.16	6.06
692.482	5.54
692.804	5.25
693.126	5.48
693.448	5.77
693.769	5.84
694.091	6.22
694.413	5.21
694.735	6.08
695.056	5.68
695.378	5.85
695.699	6.39
696.021	6.68
696.342	6.39
696.663	5.63
696.984	5.88
697.306	5.48
697.627	5.38
697.948	5.05
698.269	5.64
698.59	5.87
698.911	5.8
699.232	5.39
699.553	6.35
699.873	5.07
700.194	5.31
700.515	5.37
700.835	5.6
701.156	5.69
701.477	5.67
701.797	5.91
702.117	5.8
702.438	5.93
702.758	6.1
703.078	5.99
703.398	6.21
703.719	5.71
704.039	6.55
704.359	6.83
704.679	5.76
704.999	5.09
705.319	6.06
705.638	6.11
705.958	5.84
706.278	5.37
706.597	5.45
706.917	5.87
707.237	6.17
707.556	6.39
707.876	4.52
708.195	4.9
708.514	5.85
708.834	6.18
709.153	6.15
709.472	5.76
709.791	6.16
710.11	6
710.429	7
710.748	5.96
711.067	6.48
711.386	5.27
711.705	5.64
712.023	6.28
712.342	6.57
712.661	6.01
712.979	6.23
713.298	6.22
713.616	5.92
713.935	5.34
714.253	5.66
714.572	6.16
714.89	6.57
715.208	6.03
715.526	6.76
715.844	5.29
716.162	5.64
716.48	6.21
716.798	6.65
717.116	6.15
717.434	5.71
717.752	5.74
718.069	6.28
718.387	5.45
718.705	6.08
719.022	6.44
719.34	6.44
719.657	6.37
719.975	6.1
720.292	6.96
720.609	6.83
720.927	6.43
721.244	6.34
721.561	7.06
721.878	5.95
722.195	6.69
722.512	5.6
722.829	6.67
723.146	6.07
723.463	6.99
723.779	7.13
724.096	6.45
724.413	6.47
724.729	6.57
725.046	5.72
725.362	7.77
725.679	6.23
725.995	6.17
726.311	6.68
726.628	5.41
726.944	5.89
727.26	6.71
727.576	6.74
727.892	7.22
728.208	7.5
728.524	4.97
728.84	5.5
729.156	6.27
729.472	6.46
729.787	6.24
730.103	5.62
730.419	7.02
730.734	5.99
731.05	6.7
731.365	6.21
731.681	6.08
731.996	8.14
732.311	6.77
732.626	7.03
732.942	6.03
733.257	5.39
733.572	6.72
733.887	7.3
734.202	6.33
734.517	6.44
734.832	8.07
735.146	6.31
735.461	6.38
735.776	5.51
736.091	7.01
736.405	6.52
736.72	5.65
737.034	6.44
737.349	6.87
737.663	6.76
737.977	7.4
738.292	6.5
738.606	8.28
738.92	7.48
739.234	5.79
739.548	7.04
739.862	7.65
740.176	6.48
740.49	5.3
740.804	7.85
741.117	6.8
741.431	7.35
741.745	7.58
742.058	7.72
742.372	6.88
742.685	6.15
742.999	6.56
743.312	7.26
743.626	6.89
743.939	7.28
744.252	6.77
744.565	4.31
744.878	8.06
745.191	6.96
745.505	6
745.817	6.16
746.13	5.61
746.443	7.09
746.756	7.28
747.069	6.58
747.381	7.04
747.694	8.72
748.007	4.81
748.319	5.53
748.632	6.41
748.944	7.94
749.256	6.51
749.569	6.84
749.881	5.44
750.193	8.14
750.505	6.75
750.817	8.15
751.129	6.77
751.441	5.15
751.753	7.21
752.065	7.05
752.377	6.25
752.689	6.59
753	6.15
753.312	7.94
753.624	7.38
753.935	8.09
754.247	7.4
754.558	7.09
754.869	6.36
755.181	7.75
755.492	9.19
755.803	8.07
756.114	8.4
756.425	5.82
756.736	8.34
757.047	9.82
757.358	7.66
757.669	7.48
757.98	7.26
758.291	7.36
758.601	7.02
758.912	6.9
759.223	8.16
759.533	7.92
759.844	6.41
760.154	8.62
760.464	6.2
760.775	8.69
761.085	6.88
761.395	6.5
761.705	6.95
762.016	8.26
762.326	9.06
762.636	7.86
762.945	6.86
763.255	6.02
763.565	9.76
763.875	10.45
764.185	7.98
764.494	6.62
764.804	8.94
765.113	8.46
765.423	8.38
765.732	9.63
766.042	7.41
766.351	7.57
766.66	7.25
766.97	7.93
767.279	6.84
767.588	7.97
767.897	7.74
768.206	9.31
768.515	7.22
768.824	7
769.133	7.71
769.441	6.07
769.75	10.03
770.059	7.27
770.367	6.36
770.676	5.84
770.984	8.14
771.293	8.71
771.601	7.66
771.91	8.87
772.218	6.98
772.526	7.45
772.834	8.75
773.142	8.95
773.45	7.63
773.758	7.96
774.066	8.08
774.374	7.94
774.682	6.65
774.99	5.88
775.298	6.08
775.605	6.31
775.913	8.43
776.22	9.44
776.528	10.86
776.835	7.94
777.143	7.9
777.45	8.58
777.757	5.14
778.065	8.66
778.372	7.82
778.679	11.24
778.986	7.79
779.293	6.26
779.6	7.91
779.907	9.73
780.214	6.06
780.52	11.42
780.827	9.16
781.134	4.96
781.44	5.77
781.747	8.26
782.053	5.17
782.36	6.21
782.666	5.85
782.973	8.43
783.279	9.84
783.585	5.35
783.891	7.38
784.197	7.69
784.503	3.87
784.809	8.58
785.115	10.62
785.421	5.36
785.727	8.95
786.033	6.49
786.339	9.16
786.644	5.85
786.95	10
787.255	4.35
787.561	10
787.866	4.37
788.172	11.47
788.477	10.46
788.782	7.64
789.088	10.15
789.393	9.69
789.698	6.5
790.003	6.38
790.308	7.56
790.613	4.62
790.918	7.37
791.223	12.18
791.527	8.55
791.832	9.16
792.137	7.61
792.441	11.1
792.746	8.49
793.05	7.37
793.355	8.4
793.659	7.92
793.963	6.12
794.268	11.11
794.572	10.53
794.876	5.84
795.18	12.42
795.484	6.52
795.788	7.81
796.092	8.22
796.396	11.37
796.7	11.28
797.004	10.17
797.307	10.65
797.611	8.8
797.915	9.97
798.218	5.05
798.522	6.93
798.825	10.32
799.128	6.34
799.432	10.45
799.735	12.18
800.038	8.09
800.341	10.29
800.644	6.64
800.947	8.33
801.25	12.88
801.553	8.45
801.856	9.14
802.159	8.1
802.462	7.18
802.764	6.57
803.067	3.72
803.37	6.73
803.672	10.68
803.975	7.4
804.277	8.19
804.579	9.78
804.882	7.35
805.184	7.87
805.486	8.42
805.788	11.68
806.09	0.68
806.392	9.01
806.694	4.53
806.996	9.83
807.298	6.09
807.6	11.48
807.902	6.76
808.203	5.38
808.505	12.49
808.807	4.68
809.108	12.03
809.409	10.89
809.711	7.73
810.012	10.97
810.313	10.67
810.615	7.78
810.916	10.35
811.217	8.53
811.518	7.12
811.819	8.45
812.12	4.69
812.421	8.19
812.722	8.29
813.023	7.79
813.323	9.09
813.624	13.35
813.925	5.98
814.225	7.55
814.526	10.68
814.826	6.13
815.126	9.25
815.427	8.88
815.727	11.19
816.027	6.3
816.327	8.34
816.627	9.67
816.927	9.09
817.227	10.37
817.527	12.06
817.827	6.28
818.127	12.16
818.427	5.74
818.727	9.38
819.026	7.89
819.326	5.88
819.625	6.97
819.925	9.17
820.224	11.49
820.524	14.37
820.823	11.22
821.122	8.26
821.421	6.34
821.72	11.38
822.019	9.78
822.318	9.51
822.617	4.76
822.916	8.08
823.215	11.78
823.514	11.95
823.813	7.49
824.111	9.36
824.41	8.1
824.709	10.27
825.007	11.05
825.306	10.65
825.604	10.61
825.902	10.15
826.201	11.28
826.499	11.48
826.797	10.44
827.095	10.83
827.393	9.25
827.691	11.54
827.989	10.97
828.287	12.03
828.585	9.73
828.882	8.39
829.18	8.64
829.478	10.19
829.775	10.71
830.073	8.39
830.37	10.8
830.668	10.44
830.965	10.83
831.263	9.41
831.56	9.02
831.857	10.04
832.154	11.06
832.451	10.66
832.748	11.24
833.045	13.14
833.342	12.17
833.639	10.08
833.936	14.12
834.232	11.77
834.529	14.11
834.826	10.25
835.122	17.01
835.419	13.68
835.715	5.73
836.012	10.2
836.308	6.64
836.604	7.57
836.901	10.71
837.197	11.28
837.493	9.41
837.789	9.21
838.085	10.43
838.381	12.38
838.677	10.1
838.972	8.93
839.268	10.11
839.564	8.98
839.86	7.97
840.155	14.45
840.451	6.05
840.746	8
841.042	8.78
841.337	11.62
841.632	-3.48
841.928	6.09
842.223	6.3
842.518	11.46
842.813	3.34
843.108	10.43
843.403	2.51
843.698	9.58
843.993	4.63
844.287	6.83
844.582	0.4
844.877	11.37
845.171	8.75
845.466	8.59
845.761	4.46
846.055	13.22
846.349	4.99
846.644	12.07
846.938	14.78
847.232	4.6
847.526	8.75
847.82	6.38
848.114	15.13
848.408	11.28
848.702	4.66
848.996	7.07
849.29	20.53
849.584	13.15
849.877	-6.01
850.171	15.09
850.465	10.91
850.758	-10.57
851.052	9.11
851.345	-5.03
851.638	-16.9
851.932	13.76
852.225	10.42
852.518	2.53
852.811	18.51
853.104	25.14
853.397	-18.3
853.69	0.96
853.983	14.11
854.276	9.31
854.569	14.21
854.861	-12.58
855.154	24.93
855.447	-15.34
855.739	9.16
856.032	15.35
856.324	27.54
856.616	18.71
856.909	22.84
857.201	3.46
857.493	18.87
857.785	26.57
858.077	-6.59
858.369	0.38
858.661	-9.41
858.953	3.31
859.245	-5.62
859.537	-12.37
859.829	32.55
860.12	0.26
860.412	-1.47
860.703	0.58
860.995	4.87
861.286	15.76
861.578	8.75
861.869	31.39
862.16	13.63
862.452	-13.78
862.743	12.1
863.034	2.05
863.325	-6.39
863.616	14.07
863.907	-8.78
864.198	14.23
864.488	-4.18
864.779	27.61
865.07	8.86
865.36	1.37
865.651	6.36
865.941	9.33
866.232	2.1
866.522	25.06
866.813	14.11
867.103	10.11
867.393	19.6
867.683	9.58
867.973	-0.96
868.263	17.4
868.553	-4.3
868.843	19.37
869.133	5.8
869.423	3.9
869.713	16.05
870.002	11.33
870.292	-7.43
870.582	14.63
870.871	0.07
871.161	14.02
871.45	16.72
871.739	3.99
872.029	-20.15
872.318	-3.17
872.607	-14.51
872.896	6.67
873.185	4.35
873.474	20.56
873.763	5.57
874.052	2.54
874.341	22.61
874.63	12.54
874.918	1.37
875.207	19.18
875.496	-22.4
875.784	16.92
876.073	1.7
876.361	1.31
876.649	-16.38
876.938	7.48
877.226	24.55
877.514	43.39
877.802	1
878.09	-39.14
878.378	8.14
878.666	14.48
878.954	1.05
879.242	7.48
879.53	-20.96
879.817	0.5
880.105	0.79
880.392	-1.75
880.68	-23.77
880.967	-7.78
881.255	13.01
881.542	-0.63
881.83	-4.58
882.117	16.91
882.404	2.27
882.691	3.21
882.978	12.43
883.265	-3.92
883.552	13.99
883.839	3.37
884.126	12.88
884.413	24.41
884.699	9.43
884.986	16.73
885.273	2.97
885.559	2.97
885.846	2.97
