Data from 438_chest_Reflection__1__138.txt Node

Date: Tue Dec 12 19:32:44 CST 2023
User: ToomeyLab
Spectrometer: FLMS14357
Trigger mode: 0
Integration Time (sec): 1.000000E-2
Scans to average: 100
Electric dark correction enabled: true
Nonlinearity correction enabled: false
Boxcar width: 0
XAxis mode: Wavelengths
Number of Pixels in Spectrum: 2048
>>>>>Begin Spectral Data<<<<<
189.047	-135.89
189.435	-135.89
189.823	-135.89
190.211	-22.19
190.599	-135.46
190.987	127.65
191.375	-116.97
191.763	373.86
192.151	81.95
192.538	502.25
192.926	75.53
193.314	-373.13
193.702	-6.02
194.089	18.41
194.477	12.52
194.864	166.07
195.252	438.43
195.639	-121.94
196.027	386.8
196.414	-68.06
196.801	-677.65
197.189	141
197.576	-152.28
197.963	77.4
198.351	-4.81
198.738	-2.79
199.125	27.38
199.512	21.18
199.899	44.79
200.286	-2.85
200.673	-22.02
201.06	-43.96
201.447	-71.48
201.833	18.29
202.22	30.84
202.607	-239.54
202.994	-7.41
203.38	19.94
203.767	0.21
204.154	8.95
204.54	25.46
204.927	-32.33
205.313	8.38
205.699	-16.43
206.086	-17.18
206.472	15.86
206.858	-16.32
207.245	14.92
207.631	24.26
208.017	7.12
208.403	-13.52
208.789	-5.52
209.175	-17.66
209.561	35.18
209.947	-45.5
210.333	1.86
210.719	-32.14
211.105	-23.72
211.491	-16.86
211.876	-5.37
212.262	5.71
212.648	-79.25
213.034	-147.59
213.419	-40.07
213.805	-16.62
214.19	-5
214.576	23.53
214.961	22.97
215.346	-12.54
215.732	7.13
216.117	-15.01
216.502	-20.88
216.888	-9.44
217.273	-30.26
217.658	-43.86
218.043	11.28
218.428	3.61
218.813	23.91
219.198	-10.88
219.583	11.86
219.968	5.52
220.353	17.22
220.738	-6.06
221.122	3.74
221.507	-8.3
221.892	8.79
222.276	5.81
222.661	-9.56
223.046	-14.83
223.43	-8.9
223.815	9.32
224.199	8.65
224.583	3.58
224.968	1.79
225.352	-3.51
225.736	14.34
226.121	5.65
226.505	3.8
226.889	4.07
227.273	3.11
227.657	12.27
228.041	4.69
228.425	4.7
228.809	3.04
229.193	2.73
229.577	2.59
229.961	4.12
230.344	4.59
230.728	5.71
231.112	5.04
231.495	4.56
231.879	3.66
232.263	3.42
232.646	3.34
233.03	4.02
233.413	4.15
233.797	3.36
234.18	1.43
234.563	2.17
234.946	4.93
235.33	6.06
235.713	4.26
236.096	3.65
236.479	4.43
236.862	3.6
237.245	3.84
237.628	4.6
238.011	3.58
238.394	4.13
238.777	5.38
239.16	4.68
239.543	4.62
239.925	4.66
240.308	3.76
240.691	2.99
241.073	5.98
241.456	4.36
241.838	3.88
242.221	4.98
242.603	4.46
242.986	3.86
243.368	5.16
243.75	4.16
244.133	4.44
244.515	5
244.897	4.66
245.279	5.43
245.661	4.93
246.043	4.24
246.425	5.13
246.807	4.52
247.189	4.54
247.571	4.17
247.953	4.37
248.335	4.9
248.717	4.73
249.098	4.69
249.48	4.56
249.862	4.25
250.243	4.38
250.625	4.75
251.006	4.23
251.388	4.5
251.769	4.72
252.151	3.81
252.532	3.91
252.913	4.18
253.295	4.81
253.676	4.27
254.057	4.42
254.438	4.61
254.819	3.76
255.2	4.47
255.581	4.7
255.962	3.89
256.343	3.98
256.724	5
257.105	4.42
257.486	3.45
257.867	4.06
258.247	4.65
258.628	4.27
259.009	4.56
259.389	4.5
259.77	4.77
260.15	4.49
260.531	5
260.911	4.89
261.292	4.28
261.672	4.32
262.052	4.31
262.432	4.36
262.813	4.49
263.193	4.51
263.573	4.33
263.953	5.28
264.333	5.22
264.713	4.08
265.093	5.31
265.473	4.46
265.853	4.03
266.233	4.19
266.612	3.52
266.992	3.84
267.372	4.36
267.752	5.16
268.131	3.41
268.511	4.05
268.89	3.65
269.27	3.77
269.649	3.83
270.029	4.19
270.408	4.31
270.787	4.11
271.167	4.48
271.546	4.48
271.925	4.69
272.304	4.5
272.683	3.67
273.062	4.22
273.441	4.3
273.82	3.7
274.199	4.53
274.578	4.42
274.957	3.89
275.336	4.37
275.715	4.6
276.093	3.85
276.472	4.08
276.851	4.44
277.229	3.62
277.608	4.05
277.986	3.84
278.365	3.77
278.743	4
279.122	4.38
279.5	3.83
279.878	3.54
280.257	3.79
280.635	3.87
281.013	4.19
281.391	4.27
281.769	4
282.147	4.03
282.525	3.56
282.903	4.15
283.281	4.25
283.659	4.03
284.037	4.66
284.415	4.47
284.792	4.38
285.17	3.75
285.548	3.83
285.925	3.7
286.303	4.29
286.68	4.38
287.058	4.22
287.435	3.9
287.813	4.2
288.19	4.16
288.567	4.52
288.945	4.03
289.322	3.34
289.699	3.9
290.076	3.92
290.453	3.82
290.83	3.66
291.207	4.4
291.584	4.58
291.961	4.32
292.338	4.18
292.715	3.96
293.092	4.03
293.469	3.83
293.845	4.62
294.222	4.64
294.599	4.09
294.975	4.41
295.352	4.53
295.728	4.18
296.105	4.69
296.481	4.86
296.858	4.38
297.234	4.47
297.61	4.34
297.986	4.81
298.363	4.56
298.739	4.61
299.115	4.25
299.491	4.33
299.867	4.52
300.243	4.32
300.619	4.46
300.995	4.86
301.371	4.58
301.746	4.53
302.122	5.02
302.498	4.36
302.874	5.04
303.249	4.94
303.625	4.69
304	4.93
304.376	4.5
304.751	4.75
305.127	4.56
305.502	4.58
305.878	4.16
306.253	4.46
306.628	4.94
307.003	4.71
307.378	4.57
307.754	4.46
308.129	4.49
308.504	5.41
308.879	4.22
309.254	4.84
309.629	4.29
310.003	5.22
310.378	4.99
310.753	5.01
311.128	5.29
311.502	4.47
311.877	4.38
312.252	4.07
312.626	4.56
313.001	4.94
313.375	4.44
313.75	4.9
314.124	4.67
314.498	4.67
314.873	4.52
315.247	5.02
315.621	4.73
315.995	5.32
316.369	4.71
316.743	4.35
317.117	4.41
317.491	4.78
317.865	4.72
318.239	4.44
318.613	5.12
318.987	4.72
319.361	4.65
319.734	4.83
320.108	4.91
320.482	4.89
320.855	4.4
321.229	4.8
321.602	4.79
321.976	4.7
322.349	5.34
322.723	4.38
323.096	4.9
323.469	4.5
323.843	5.15
324.216	5.15
324.589	5.45
324.962	4.84
325.335	5.43
325.708	5.25
326.081	4.88
326.454	4.89
326.827	5.25
327.2	5.21
327.573	4.78
327.945	4.78
328.318	5.58
328.691	4.63
329.063	5.42
329.436	5.12
329.809	4.91
330.181	4.38
330.553	5.07
330.926	5.01
331.298	4.69
331.671	4.92
332.043	4.78
332.415	4.73
332.787	4.83
333.159	4.92
333.532	4.8
333.904	5.3
334.276	5.67
334.648	4.41
335.02	4.11
335.391	5.02
335.763	4.85
336.135	5.16
336.507	5.51
336.879	4.85
337.25	4.96
337.622	4.81
337.993	4.96
338.365	4.4
338.736	5.34
339.108	5.12
339.479	5.65
339.851	4.58
340.222	4.93
340.593	5.26
340.964	4.78
341.336	5.29
341.707	4.89
342.078	4.92
342.449	4.86
342.82	5.07
343.191	5.08
343.562	4.77
343.933	5.11
344.303	4.87
344.674	5.05
345.045	5
345.416	5.16
345.786	4.78
346.157	5.4
346.527	5.42
346.898	5.05
347.268	5.45
347.639	5.06
348.009	5.01
348.38	4.58
348.75	5.39
349.12	5.44
349.49	4.6
349.861	5.49
350.231	4.62
350.601	5.3
350.971	5.5
351.341	5.47
351.711	5.25
352.081	5.14
352.45	5.16
352.82	5.28
353.19	5.08
353.56	5
353.929	4.68
354.299	5
354.669	5.05
355.038	4.52
355.408	5.3
355.777	5.36
356.147	5.32
356.516	5.06
356.885	5.14
357.254	4.96
357.624	4.93
357.993	5.04
358.362	5.24
358.731	5.19
359.1	4.93
359.469	5.12
359.838	5.1
360.207	4.97
360.576	5.38
360.945	4.81
361.314	5.14
361.682	5.53
362.051	5.33
362.42	5.29
362.788	5.22
363.157	5.45
363.525	5.3
363.894	5.17
364.262	5.34
364.631	4.9
364.999	5.33
365.367	5.15
365.735	5.13
366.104	5.06
366.472	4.93
366.84	5.1
367.208	4.91
367.576	5.17
367.944	5.56
368.312	5.05
368.68	5.05
369.048	5.36
369.416	5.24
369.783	5.1
370.151	5.32
370.519	5.01
370.886	5.36
371.254	4.89
371.621	5.39
371.989	5.23
372.356	5.39
372.724	5.12
373.091	5.33
373.458	5.19
373.826	5.31
374.193	4.96
374.56	5.5
374.927	5.34
375.294	5.15
375.661	5.68
376.028	5.62
376.395	5.64
376.762	5.88
377.129	5.32
377.496	5.21
377.863	5.14
378.229	5.36
378.596	5.02
378.963	5.22
379.329	5.29
379.696	5.16
380.062	5.73
380.429	5.35
380.795	5.67
381.161	5.36
381.528	5.43
381.894	5.55
382.26	5.26
382.626	5.47
382.993	5.35
383.359	5.1
383.725	5.33
384.091	5.25
384.457	5.29
384.823	5.49
385.188	5.37
385.554	5.18
385.92	5.23
386.286	5.5
386.651	5.36
387.017	5.47
387.383	5.32
387.748	5.37
388.114	5.51
388.479	5.51
388.845	5.6
389.21	5.26
389.575	5.02
389.94	5.4
390.306	5.28
390.671	5.21
391.036	5.46
391.401	5.68
391.766	5.69
392.131	5.44
392.496	5.31
392.861	5.19
393.226	5.64
393.591	5.44
393.956	5.4
394.32	5.49
394.685	5.51
395.05	5.21
395.414	5.38
395.779	5.25
396.143	5.55
396.508	5.41
396.872	5.58
397.236	5.34
397.601	5.46
397.965	5.47
398.329	5.51
398.694	5.27
399.058	5.82
399.422	5.45
399.786	5.42
400.15	5.37
400.514	5.69
400.878	5.35
401.242	5.31
401.605	5.78
401.969	5.51
402.333	5.47
402.697	5.52
403.06	5.2
403.424	5.57
403.787	5.3
404.151	5.9
404.514	5.38
404.878	5.41
405.241	5.66
405.604	5.18
405.968	5.45
406.331	5.82
406.694	5.79
407.057	5.34
407.42	5.52
407.783	5.34
408.146	5.67
408.509	5.34
408.872	5.66
409.235	5.49
409.598	5.74
409.961	5.52
410.323	5.55
410.686	5.84
411.049	5.85
411.411	5.52
411.774	5.77
412.136	5.54
412.499	5.74
412.861	5.72
413.223	5.82
413.586	5.39
413.948	5.58
414.31	5.52
414.672	5.84
415.035	5.57
415.397	5.74
415.759	5.77
416.121	5.63
416.483	5.71
416.845	5.73
417.206	5.58
417.568	5.68
417.93	5.79
418.292	5.59
418.653	5.66
419.015	5.67
419.377	5.75
419.738	5.76
420.1	5.59
420.461	5.63
420.822	5.76
421.184	5.59
421.545	5.76
421.906	5.57
422.267	5.69
422.629	5.64
422.99	5.62
423.351	5.57
423.712	5.58
424.073	5.77
424.434	5.59
424.795	5.64
425.155	5.61
425.516	5.59
425.877	5.62
426.238	5.69
426.598	5.67
426.959	5.56
427.32	5.69
427.68	5.66
428.041	5.79
428.401	5.69
428.761	5.75
429.122	5.86
429.482	5.92
429.842	5.87
430.202	5.7
430.563	5.85
430.923	5.78
431.283	5.82
431.643	5.91
432.003	5.78
432.363	5.99
432.722	5.73
433.082	5.76
433.442	5.73
433.802	5.77
434.161	5.8
434.521	5.88
434.881	5.82
435.24	5.77
435.6	5.81
435.959	5.82
436.319	5.99
436.678	5.9
437.037	5.74
437.396	5.85
437.756	5.75
438.115	5.94
438.474	5.82
438.833	5.98
439.192	6.14
439.551	5.91
439.91	5.86
440.269	5.91
440.628	5.83
440.987	5.66
441.345	5.91
441.704	5.9
442.063	5.94
442.421	5.89
442.78	5.85
443.138	5.88
443.497	5.94
443.855	5.94
444.214	6.05
444.572	6.06
444.93	5.96
445.288	5.78
445.647	6.08
446.005	5.93
446.363	5.72
446.721	5.89
447.079	5.97
447.437	5.81
447.795	5.9
448.153	5.91
448.51	5.98
448.868	5.91
449.226	5.95
449.584	5.95
449.941	5.91
450.299	5.98
450.656	5.94
451.014	6.05
451.371	6.02
451.729	6.06
452.086	6
452.443	6.22
452.801	6.14
453.158	6.11
453.515	6.2
453.872	5.99
454.229	6.22
454.586	5.94
454.943	5.87
455.3	6.06
455.657	6.13
456.014	6.19
456.371	6
456.727	6.16
457.084	6.02
457.441	6
457.797	6.01
458.154	6.06
458.51	6.11
458.867	6.15
459.223	6.22
459.58	6.12
459.936	6.07
460.292	6.17
460.648	6.25
461.005	6.03
461.361	6.06
461.717	6.2
462.073	5.93
462.429	6.19
462.785	6.09
463.141	6.18
463.496	6.18
463.852	6.4
464.208	6.28
464.564	6.3
464.919	6.23
465.275	6.33
465.631	6.38
465.986	6.33
466.342	6.12
466.697	6.35
467.052	6.56
467.408	6.37
467.763	6.36
468.118	6.22
468.473	6.26
468.829	6.31
469.184	6.17
469.539	6.4
469.894	6.48
470.249	6.34
470.603	6.22
470.958	6.39
471.313	6.64
471.668	6.47
472.023	6.39
472.377	6.17
472.732	6.44
473.086	6.44
473.441	6.38
473.795	6.51
474.15	6.4
474.504	6.23
474.859	6.61
475.213	6.37
475.567	6.26
475.921	6.48
476.275	6.24
476.63	6.39
476.984	6.51
477.338	6.49
477.692	6.33
478.045	6.3
478.399	6.41
478.753	6.46
479.107	6.5
479.461	6.49
479.814	6.5
480.168	6.46
480.521	6.33
480.875	6.45
481.228	6.62
481.582	6.56
481.935	6.67
482.289	6.57
482.642	6.51
482.995	6.45
483.348	6.4
483.701	6.68
484.055	6.45
484.408	6.41
484.761	6.39
485.114	6.32
485.466	6.24
485.819	6.15
486.172	6.17
486.525	6.23
486.878	6.32
487.23	6.37
487.583	6.36
487.936	6.54
488.288	6.45
488.641	6.45
488.993	6.33
489.345	6.31
489.698	6.32
490.05	6.37
490.402	6.37
490.754	6.39
491.107	6.49
491.459	6.6
491.811	6.64
492.163	6.57
492.515	6.67
492.866	6.48
493.218	6.47
493.57	6.48
493.922	6.43
494.274	6.5
494.625	6.53
494.977	6.71
495.328	6.78
495.68	6.64
496.031	6.89
496.383	6.81
496.734	6.71
497.086	6.68
497.437	6.79
497.788	6.84
498.139	6.69
498.49	6.82
498.842	6.77
499.193	6.77
499.544	6.78
499.894	6.84
500.245	6.86
500.596	6.89
500.947	6.92
501.298	6.94
501.648	6.94
501.999	6.85
502.35	7.05
502.7	6.93
503.051	6.96
503.401	6.99
503.752	7.13
504.102	6.91
504.452	7.11
504.803	7.11
505.153	7.1
505.503	7.21
505.853	7.16
506.203	7.06
506.553	6.98
506.903	7.18
507.253	7.04
507.603	6.98
507.953	6.96
508.303	7.19
508.652	7.29
509.002	7.12
509.352	7.07
509.701	7.24
510.051	7.22
510.4	7.13
510.75	6.99
511.099	7.13
511.449	7.33
511.798	7.15
512.147	7.25
512.496	7.27
512.846	7.31
513.195	7.22
513.544	7.31
513.893	7.1
514.242	7.2
514.591	7.21
514.939	7.26
515.288	7.27
515.637	7.35
515.986	7.34
516.334	7.44
516.683	7.32
517.032	7.37
517.38	7.42
517.729	7.4
518.077	7.4
518.426	7.48
518.774	7.56
519.122	7.46
519.47	7.33
519.819	7.33
520.167	7.34
520.515	7.32
520.863	7.39
521.211	7.35
521.559	7.45
521.907	7.38
522.255	7.53
522.602	7.63
522.95	7.64
523.298	7.52
523.645	7.72
523.993	7.69
524.341	7.7
524.688	7.75
525.036	7.7
525.383	7.59
525.73	7.63
526.078	7.73
526.425	7.75
526.772	7.53
527.119	7.59
527.466	7.66
527.814	7.6
528.161	7.75
528.508	7.71
528.854	7.66
529.201	7.64
529.548	7.73
529.895	7.6
530.242	7.49
530.588	7.49
530.935	7.6
531.282	7.61
531.628	7.62
531.975	7.66
532.321	7.71
532.667	7.72
533.014	7.81
533.36	7.85
533.706	7.86
534.052	7.86
534.399	7.82
534.745	7.86
535.091	7.85
535.437	7.83
535.783	7.82
536.129	7.93
536.474	7.91
536.82	8.04
537.166	8.17
537.512	8.09
537.857	8.21
538.203	8.19
538.549	8.16
538.894	8.21
539.239	8.13
539.585	8.31
539.93	8.33
540.276	8.3
540.621	8.39
540.966	8.32
541.311	8.36
541.656	8.36
542.001	8.33
542.346	8.31
542.691	8.37
543.036	8.21
543.381	8.22
543.726	8.21
544.071	8.31
544.415	8.32
544.76	8.36
545.105	8.37
545.449	8.57
545.794	8.61
546.138	8.55
546.483	8.76
546.827	8.71
547.171	8.71
547.516	8.76
547.86	8.71
548.204	8.81
548.548	8.73
548.892	8.81
549.236	8.81
549.58	8.89
549.924	8.97
550.268	8.94
550.612	8.83
550.956	9.17
551.3	9.28
551.643	9.14
551.987	9.16
552.33	9.13
552.674	9.31
553.017	9.32
553.361	9.45
553.704	9.19
554.048	9.23
554.391	9.34
554.734	9.41
555.077	9.41
555.42	9.14
555.764	9.44
556.107	9.53
556.45	9.45
556.793	9.5
557.135	9.41
557.478	9.52
557.821	9.59
558.164	9.66
558.507	9.57
558.849	9.42
559.192	9.41
559.534	9.58
559.877	9.82
560.219	9.74
560.562	9.74
560.904	9.9
561.246	9.8
561.589	9.89
561.931	9.87
562.273	9.74
562.615	9.76
562.957	9.98
563.299	10
563.641	9.88
563.983	10.04
564.325	10.04
564.667	10.19
565.008	9.99
565.35	10.17
565.692	10.16
566.033	10.27
566.375	10.13
566.716	10.17
567.058	10.35
567.399	10.39
567.741	10.31
568.082	10.15
568.423	10.45
568.764	10.29
569.105	10.37
569.447	10.54
569.788	10.37
570.129	10.42
570.47	10.58
570.811	10.53
571.151	10.8
571.492	10.9
571.833	10.85
572.174	10.82
572.514	10.84
572.855	10.84
573.195	10.54
573.536	10.7
573.876	10.9
574.217	10.87
574.557	10.78
574.898	10.67
575.238	10.96
575.578	10.92
575.918	10.98
576.258	11.31
576.598	10.9
576.938	11.09
577.278	11.04
577.618	11.46
577.958	11.2
578.298	11.42
578.638	11.21
578.977	11.28
579.317	11.53
579.657	11.51
579.996	11.51
580.336	11.62
580.675	11.38
581.014	11.51
581.354	11.62
581.693	11.7
582.032	11.67
582.372	11.86
582.711	11.91
583.05	11.87
583.389	12.06
583.728	11.83
584.067	11.78
584.406	11.97
584.745	11.97
585.083	11.79
585.422	12.24
585.761	12.33
586.1	12.23
586.438	12.44
586.777	12.19
587.115	11.97
587.454	12.4
587.792	12.21
588.13	12.38
588.469	12.25
588.807	12.45
589.145	12.51
589.483	12.28
589.821	12.52
590.159	12.67
590.497	12.42
590.835	12.7
591.173	12.79
591.511	12.68
591.849	12.6
592.187	12.89
592.524	12.59
592.862	12.59
593.2	12.6
593.537	12.9
593.875	13.02
594.212	13.05
594.55	13.31
594.887	13.34
595.224	13.06
595.561	13.24
595.899	13.14
596.236	13.14
596.573	13.11
596.91	13.57
597.247	13.18
597.584	13.2
597.921	13.3
598.258	13.63
598.594	13.32
598.931	13.31
599.268	13.33
599.604	13.4
599.941	13.41
600.277	13.69
600.614	13.76
600.95	13.67
601.287	13.64
601.623	13.67
601.959	13.86
602.296	13.8
602.632	13.92
602.968	14.15
603.304	13.93
603.64	14.03
603.976	13.86
604.312	14.07
604.648	14.04
604.984	14.07
605.319	14.32
605.655	14.07
605.991	14.3
606.326	14.08
606.662	14.34
606.998	14.38
607.333	14.24
607.668	14.36
608.004	14.54
608.339	14.36
608.674	14.67
609.01	14.3
609.345	14.62
609.68	14.86
610.015	14.7
610.35	14.93
610.685	14.91
611.02	14.89
611.355	14.71
611.689	14.85
612.024	14.99
612.359	15.2
612.694	14.9
613.028	15.11
613.363	15.19
613.697	15.42
614.032	15.43
614.366	15.31
614.7	15.5
615.035	15.36
615.369	15.1
615.703	15.31
616.037	15.29
616.371	15.43
616.705	15.43
617.039	15.7
617.373	15.49
617.707	15.52
618.041	15.69
618.375	15.66
618.709	15.85
619.042	15.68
619.376	15.84
619.71	15.93
620.043	16.02
620.377	16.02
620.71	15.91
621.043	15.57
621.377	15.9
621.71	16.41
622.043	16.34
622.376	16.52
622.709	16.57
623.043	16.03
623.376	16.66
623.709	16.47
624.041	16
624.374	16.48
624.707	16.19
625.04	16.71
625.373	16.97
625.705	16.58
626.038	16.62
626.37	16.74
626.703	16.75
627.035	16.63
627.368	16.9
627.7	16.5
628.032	16.7
628.365	16.77
628.697	16.92
629.029	17.1
629.361	16.94
629.693	16.83
630.025	16.86
630.357	17.32
630.689	17.06
631.021	17.31
631.353	17.45
631.684	17.38
632.016	17.04
632.348	17.59
632.679	17.11
633.011	17.55
633.342	17.74
633.674	17.78
634.005	17.69
634.336	17.63
634.668	17.58
634.999	18.01
635.33	17.94
635.661	17.69
635.992	17.81
636.323	17.65
636.654	17.92
636.985	17.86
637.316	17.69
637.647	17.73
637.977	18.11
638.308	18.3
638.639	18.43
638.969	18.27
639.3	18.51
639.63	18.55
639.961	18.29
640.291	18.23
640.622	18.46
640.952	18.64
641.282	18.66
641.612	18.69
641.943	18.6
642.273	18.94
642.603	19.11
642.933	18.92
643.263	18.1
643.592	18.77
643.922	18.91
644.252	19.05
644.582	18.8
644.911	19.01
645.241	18.87
645.571	19.3
645.9	18.82
646.23	18.94
646.559	19.29
646.888	19.16
647.218	19.06
647.547	19.18
647.876	19.37
648.205	19.35
648.534	19.49
648.863	19.31
649.192	19.71
649.521	20.05
649.85	19.29
650.179	19.98
650.508	19.19
650.837	19.52
651.165	19.57
651.494	19.66
651.822	19.73
652.151	20.59
652.479	19.82
652.808	20.14
653.136	20.07
653.465	19.99
653.793	20.2
654.121	20.16
654.449	20.27
654.777	20.39
655.105	20.59
655.433	20.08
655.761	19.96
656.089	20.3
656.417	20.46
656.745	20.06
657.073	20.2
657.4	20.59
657.728	20.56
658.056	20.54
658.383	20.46
658.711	20.76
659.038	20.44
659.365	20.39
659.693	20.71
660.02	20.51
660.347	20.73
660.674	21.07
661.001	21.01
661.329	20.7
661.656	20.71
661.982	20.51
662.309	21.36
662.636	20.8
662.963	21.14
663.29	21.26
663.616	21.18
663.943	21.09
664.27	21.32
664.596	21.47
664.923	22.06
665.249	21.11
665.576	21.18
665.902	21.61
666.228	21.86
666.554	21.5
666.881	20.88
667.207	21.64
667.533	21.58
667.859	21.75
668.185	22.11
668.511	21.77
668.837	21.48
669.162	22.3
669.488	21.65
669.814	22.1
670.139	22.22
670.465	21.65
670.791	22.2
671.116	22.24
671.442	22.03
671.767	22.33
672.092	22.96
672.418	22.48
672.743	22.66
673.068	21.73
673.393	23.17
673.718	22.1
674.043	22.94
674.368	22.12
674.693	22.58
675.018	22.32
675.343	22.77
675.667	23.04
675.992	22.91
676.317	22.57
676.641	22.21
676.966	22.81
677.29	22.83
677.615	22.91
677.939	22.42
678.264	24.19
678.588	23.46
678.912	22.23
679.236	22.93
679.56	23.99
679.885	23.39
680.209	23.4
680.532	23.44
680.856	23.44
681.18	23.5
681.504	23.46
681.828	23.44
682.152	23.18
682.475	23.88
682.799	23.39
683.122	23.52
683.446	24.06
683.769	25.06
684.093	23.24
684.416	23.74
684.739	23.89
685.062	23.42
685.386	24.61
685.709	24.42
686.032	24.22
686.355	23.37
686.678	24.78
687.001	24.51
687.324	23.84
687.646	24.73
687.969	23.86
688.292	23.96
688.614	24.21
688.937	24.51
689.26	24.36
689.582	24.24
689.904	24.4
690.227	24.98
690.549	25.03
690.871	24.73
691.194	25.39
691.516	25
691.838	24.5
692.16	24.84
692.482	24.26
692.804	24.24
693.126	24.49
693.448	24.48
693.769	24.57
694.091	25.62
694.413	25.03
694.735	26.07
695.056	24.63
695.378	25.41
695.699	24.84
696.021	24.82
696.342	24.74
696.663	24.82
696.984	24.65
697.306	25.28
697.627	25.06
697.948	25.16
698.269	25.73
698.59	25.9
698.911	25.45
699.232	25.17
699.553	25.32
699.873	25.88
700.194	26.18
700.515	26.09
700.835	25.79
701.156	25.59
701.477	26.05
701.797	25.56
702.117	25.74
702.438	26.27
702.758	26.08
703.078	26.12
703.398	26.4
703.719	25.42
704.039	26.74
704.359	26.17
704.679	27.01
704.999	26.26
705.319	25.37
705.638	27.67
705.958	26.2
706.278	27.2
706.597	26.56
706.917	26.86
707.237	26.72
707.556	26.67
707.876	26.46
708.195	26.86
708.514	26.57
708.834	27.4
709.153	27.14
709.472	26.32
709.791	26.6
710.11	27.47
710.429	27.08
710.748	26.91
711.067	27.3
711.386	26.61
711.705	27.28
712.023	26.45
712.342	27.67
712.661	27.87
712.979	28.97
713.298	27.65
713.616	27.71
713.935	27.59
714.253	26.61
714.572	27.52
714.89	28.12
715.208	28.18
715.526	27.71
715.844	27.91
716.162	27.67
716.48	27.25
716.798	27.25
717.116	27.53
717.434	28.57
717.752	27.65
718.069	27.91
718.387	27.48
718.705	27.55
719.022	28.11
719.34	28.26
719.657	28.74
719.975	28.02
720.292	28.83
720.609	29.29
720.927	27.42
721.244	29.42
721.561	28.88
721.878	28.32
722.195	27.92
722.512	28.99
722.829	29.91
723.146	27.33
723.463	28.39
723.779	28.81
724.096	28.81
724.413	29
724.729	27.59
725.046	28.41
725.362	27.79
725.679	26.7
725.995	28.87
726.311	29.07
726.628	28.65
726.944	28.83
727.26	28.94
727.576	28.78
727.892	28.95
728.208	29.46
728.524	28.32
728.84	29.12
729.156	30.43
729.472	30.78
729.787	29.66
730.103	30.11
730.419	30.66
730.734	27.95
731.05	30.35
731.365	29.65
731.681	29.66
731.996	31.27
732.311	29.28
732.626	30.3
732.942	28.91
733.257	29.53
733.572	29.56
733.887	31.34
734.202	30.91
734.517	30.2
734.832	30.18
735.146	30.92
735.461	32.5
735.776	30.66
736.091	30.57
736.405	31.19
736.72	30.6
737.034	30.57
737.349	30.36
737.663	30.82
737.977	30.32
738.292	30.02
738.606	28.14
738.92	30.33
739.234	29.85
739.548	32.12
739.862	31.8
740.176	29.72
740.49	30.6
740.804	32.18
741.117	30.38
741.431	30.13
741.745	31.39
742.058	31.09
742.372	31.01
742.685	29.5
742.999	28.43
743.312	30.64
743.626	29.37
743.939	30.49
744.252	29.65
744.565	32.22
744.878	30.7
745.191	31.52
745.505	30.49
745.817	33.86
746.13	30.42
746.443	31.42
746.756	33.72
747.069	32.21
747.381	32.14
747.694	30.62
748.007	28.94
748.319	31.76
748.632	31.52
748.944	30.71
749.256	32.3
749.569	30.79
749.881	33.57
750.193	30.73
750.505	31.08
750.817	32.63
751.129	30.34
751.441	32.63
751.753	33.31
752.065	30.54
752.377	33.67
752.689	32.79
753	32.29
753.312	32.4
753.624	34.84
753.935	32.49
754.247	32.9
754.558	32.17
754.869	32.41
755.181	33.69
755.492	32.57
755.803	33.15
756.114	32.93
756.425	33.98
756.736	33.73
757.047	31.07
757.358	33.91
757.669	33.68
757.98	32.85
758.291	32.11
758.601	31.45
758.912	34.23
759.223	33.7
759.533	32.15
759.844	34.28
760.154	33.91
760.464	32.55
760.775	33.73
761.085	33.5
761.395	33.51
761.705	33.02
762.016	32.05
762.326	32.98
762.636	32.58
762.945	33.81
763.255	33.55
763.565	32.64
763.875	31.87
764.185	32.54
764.494	31.08
764.804	33.34
765.113	35.71
765.423	33.7
765.732	33.86
766.042	33.9
766.351	34.14
766.66	34.24
766.97	34.9
767.279	33.34
767.588	34.01
767.897	36.08
768.206	34.94
768.515	33.19
768.824	34.74
769.133	34.83
769.441	34.63
769.75	32.44
770.059	35.57
770.367	35.37
770.676	36.23
770.984	34.35
771.293	33.87
771.601	32.15
771.91	34.57
772.218	34.88
772.526	33.33
772.834	32.97
773.142	37.9
773.45	35.46
773.758	36.56
774.066	34.58
774.374	31.19
774.682	35.19
774.99	34.83
775.298	33.43
775.605	35.76
775.913	32.46
776.22	34.44
776.528	33.5
776.835	33.26
777.143	40.48
777.45	36.05
777.757	34.33
778.065	34.26
778.372	34.44
778.679	33.78
778.986	35.08
779.293	37.13
779.6	33.9
779.907	33.69
780.214	35.25
780.52	36.12
780.827	37.35
781.134	35.68
781.44	34.52
781.747	33.4
782.053	37.15
782.36	34.88
782.666	30.7
782.973	31.96
783.279	34.72
783.585	32.91
783.891	37.91
784.197	38.07
784.503	34.61
784.809	33.22
785.115	37.84
785.421	32.94
785.727	34.01
786.033	35.33
786.339	35.07
786.644	33.38
786.95	36.91
787.255	34.93
787.561	35
787.866	34.52
788.172	33.8
788.477	36
788.782	37.62
789.088	37.56
789.393	36.66
789.698	34.4
790.003	34.39
790.308	36.37
790.613	32.75
790.918	35.89
791.223	37.71
791.527	37.48
791.832	33.3
792.137	35.3
792.441	36.28
792.746	36.94
793.05	39.32
793.355	35.08
793.659	35.4
793.963	37.83
794.268	33.09
794.572	32.12
794.876	36.84
795.18	34.44
795.484	32.43
795.788	35.86
796.092	32.65
796.396	35.71
796.7	39.54
797.004	41.12
797.307	32.02
797.611	34.79
797.915	34.29
798.218	35.47
798.522	33.38
798.825	35.73
799.128	34.69
799.432	39.66
799.735	36.42
800.038	39.56
800.341	40.16
800.644	36.75
800.947	41.7
801.25	32.25
801.553	34.93
801.856	34.87
802.159	35.81
802.462	35.81
802.764	38.58
803.067	36.68
803.37	37.24
803.672	35.86
803.975	31.42
804.277	33.24
804.579	36.71
804.882	35.25
805.184	35.99
805.486	33.9
805.788	39.4
806.09	38.2
806.392	41.88
806.694	39.66
806.996	35.2
807.298	37.99
807.6	41.12
807.902	37.49
808.203	38.21
808.505	35.14
808.807	37.88
809.108	30.53
809.409	38.19
809.711	36.73
810.012	33.93
810.313	35.94
810.615	34.89
810.916	35.01
811.217	35.95
811.518	39.04
811.819	36.59
812.12	36.14
812.421	39.61
812.722	43.36
813.023	38
813.323	36.95
813.624	36.71
813.925	36.57
814.225	38.41
814.526	37.58
814.826	44.39
815.126	40.02
815.427	33.19
815.727	30.86
816.027	36.24
816.327	37.96
816.627	43.24
816.927	37.83
817.227	36.84
817.527	38.22
817.827	30.42
818.127	41.17
818.427	37.26
818.727	28.42
819.026	39.1
819.326	35.64
819.625	41.83
819.925	36.09
820.224	40.73
820.524	35.39
820.823	42.14
821.122	41.67
821.421	29.04
821.72	37.58
822.019	32.45
822.318	37.3
822.617	37.49
822.916	35.75
823.215	41.04
823.514	39.71
823.813	39.9
824.111	41.5
824.41	39.37
824.709	42.28
825.007	40.95
825.306	41.21
825.604	41.77
825.902	40.19
826.201	40.24
826.499	42
826.797	41.45
827.095	41.05
827.393	40.24
827.691	40.09
827.989	40.3
828.287	38.48
828.585	39.95
828.882	41.08
829.18	40.19
829.478	41.89
829.775	39.95
830.073	39.32
830.37	43.79
830.668	43.58
830.965	42.3
831.263	40.05
831.56	39.02
831.857	34.06
832.154	37.4
832.451	37.48
832.748	36.4
833.045	44.69
833.342	37.51
833.639	39.71
833.936	37.19
834.232	40.94
834.529	35.58
834.826	40.77
835.122	35.01
835.419	41
835.715	44.02
836.012	41.37
836.308	38.13
836.604	44.65
836.901	44.11
837.197	44.03
837.493	38.89
837.789	39.85
838.085	43.53
838.381	38.62
838.677	41.12
838.972	42.31
839.268	34.89
839.564	41.83
839.86	38.07
840.155	35.9
840.451	37.05
840.746	48.7
841.042	33.95
841.337	44.39
841.632	44.41
841.928	39.75
842.223	26.74
842.518	39.59
842.813	43.9
843.108	31.98
843.403	41.83
843.698	33.8
843.993	35.21
844.287	28.78
844.582	36.69
844.877	37.36
845.171	49.51
845.466	40.04
845.761	43.33
846.055	33.73
846.349	40.64
846.644	37.09
846.938	31.93
847.232	42.4
847.526	30.83
847.82	46.1
848.114	42.99
848.408	28.8
848.702	32.59
848.996	49.33
849.29	35.88
849.584	50.13
849.877	21.19
850.171	42.16
850.465	39.95
850.758	27.69
851.052	25.44
851.345	23.85
851.638	64.28
851.932	30.33
852.225	24.49
852.518	24.75
852.811	35
853.104	34.6
853.397	56.35
853.69	27.36
853.983	40.19
854.276	18.49
854.569	58.44
854.861	30.33
855.154	50.65
855.447	27.16
855.739	39.9
856.032	19.9
856.324	25.23
856.616	25.64
856.909	16.88
857.201	21.41
857.493	3.34
857.785	31.84
858.077	26.25
858.369	14.37
858.661	39.45
858.953	36.15
859.245	30.6
859.537	35.72
859.829	31.02
860.12	33.26
860.412	-27.08
860.703	32.25
860.995	70.87
861.286	48.92
861.578	21.96
861.869	28.59
862.16	25.12
862.452	35.57
862.743	30.65
863.034	43.15
863.325	48.36
863.616	32.67
863.907	29.73
864.198	34.97
864.488	33.12
864.779	24.34
865.07	22.44
865.36	33.77
865.651	1.55
865.941	-0.51
866.232	22.81
866.522	16.14
866.813	26.48
867.103	55.79
867.393	9.91
867.683	17.9
867.973	52.02
868.263	46.65
868.553	72.14
868.843	35.59
869.133	46.56
869.423	48.09
869.713	11.61
870.002	14.37
870.292	30.83
870.582	8.06
870.871	32.46
871.161	63.39
871.45	31.59
871.739	46.01
872.029	4.52
872.318	19.03
872.607	27.47
872.896	19.15
873.185	30.74
873.474	57.37
873.763	40.89
874.052	39.8
874.341	59.13
874.63	24.82
874.918	-7.88
875.207	19.15
875.496	29.24
875.784	41.54
876.073	44.49
876.361	15.74
876.649	33.88
876.938	30.33
877.226	41.65
877.514	10.74
877.802	26.46
878.09	21.27
878.378	18.69
878.666	46.65
878.954	46.74
879.242	55.81
879.53	52.65
879.817	30.39
880.105	25.52
880.392	7.87
880.68	20.67
880.967	64.92
881.255	38.22
881.542	23.8
881.83	43.26
882.117	33.45
882.404	33.56
882.691	-38.92
882.978	4.23
883.265	11.54
883.552	55.51
883.839	27.29
884.126	38.15
884.413	34.35
884.699	49.2
884.986	48.19
885.273	39.32
885.559	39.32
885.846	39.32
