Data from 438_crown_Reflection__2__144.txt Node

Date: Tue Dec 12 19:34:48 CST 2023
User: ToomeyLab
Spectrometer: FLMS14357
Trigger mode: 0
Integration Time (sec): 1.000000E-2
Scans to average: 100
Electric dark correction enabled: true
Nonlinearity correction enabled: false
Boxcar width: 0
XAxis mode: Wavelengths
Number of Pixels in Spectrum: 2048
>>>>>Begin Spectral Data<<<<<
189.047	347.4
189.435	347.4
189.823	347.4
190.211	-37.74
190.599	162.61
190.987	79.06
191.375	503.79
191.763	73.54
192.151	97.03
192.538	326.69
192.926	115.25
193.314	-174.63
193.702	1.41
194.089	5.33
194.477	58.31
194.864	311.03
195.252	-65.7
195.639	-76.16
196.027	-1690.86
196.414	-3.05
196.801	-273.81
197.189	-119.28
197.576	-237.91
197.963	23.82
198.351	14.89
198.738	55.67
199.125	-9.99
199.512	-91.91
199.899	10.19
200.286	-18.42
200.673	-35.38
201.06	-25.48
201.447	-104.15
201.833	-74.24
202.22	17.51
202.607	-274.51
202.994	-6.35
203.38	-11.03
203.767	-1.5
204.154	11.5
204.54	33.02
204.927	-16.31
205.313	-4.25
205.699	-30.22
206.086	-48.27
206.472	31.54
206.858	-17.8
207.245	-22.52
207.631	16.93
208.017	17.39
208.403	-34.54
208.789	4.27
209.175	-56.99
209.561	3.04
209.947	-71.76
210.333	-0.26
210.719	-17.06
211.105	-19.6
211.491	-13.88
211.876	-15.79
212.262	19.5
212.648	-21.98
213.034	-104.31
213.419	-27.2
213.805	-50.59
214.19	23.15
214.576	0.83
214.961	-3.69
215.346	-29.82
215.732	39.25
216.117	1.99
216.502	-28.76
216.888	-5.67
217.273	-28.32
217.658	-58.7
218.043	-36.29
218.428	-9.29
218.813	8.08
219.198	-25.88
219.583	10.37
219.968	15.69
220.353	-1.96
220.738	-17.32
221.122	10.79
221.507	-24.37
221.892	-2.13
222.276	-0.42
222.661	1.94
223.046	-2.53
223.43	12.44
223.815	-6.67
224.199	8.47
224.583	-1.58
224.968	-1.05
225.352	-9.53
225.736	10.88
226.121	-9.75
226.505	2.18
226.889	5.66
227.273	1.2
227.657	7.09
228.041	4.85
228.425	3.94
228.809	0.24
229.193	3.86
229.577	6.77
229.961	3.98
230.344	4.71
230.728	5.82
231.112	6
231.495	5.35
231.879	5.82
232.263	3.4
232.646	4.41
233.03	4.62
233.413	3.89
233.797	3.45
234.18	1.03
234.563	2.68
234.946	5.67
235.33	6.15
235.713	5.77
236.096	3.3
236.479	6.08
236.862	4.28
237.245	4.04
237.628	5.5
238.011	5.13
238.394	3.05
238.777	6.3
239.16	4.54
239.543	5.09
239.925	4.45
240.308	4.5
240.691	4.59
241.073	4.16
241.456	4.7
241.838	4.89
242.221	6.14
242.603	5.32
242.986	4.62
243.368	5.47
243.75	5.03
244.133	5.54
244.515	5.63
244.897	5.05
245.279	5.68
245.661	5.02
246.043	3.68
246.425	5.75
246.807	4
247.189	5.05
247.571	5.7
247.953	5.17
248.335	5.2
248.717	5.66
249.098	5.79
249.48	5.43
249.862	5.05
250.243	5.11
250.625	5.81
251.006	4.99
251.388	4.96
251.769	5.27
252.151	4.4
252.532	5.32
252.913	5.31
253.295	5.66
253.676	5.44
254.057	5.44
254.438	5.49
254.819	4.83
255.2	4.43
255.581	5.77
255.962	4.5
256.343	4.32
256.724	4.83
257.105	5.52
257.486	3.42
257.867	4.3
258.247	4.82
258.628	5.05
259.009	4.39
259.389	5.06
259.77	5.21
260.15	5.05
260.531	4.99
260.911	5.27
261.292	4.69
261.672	5.15
262.052	5.34
262.432	5.26
262.813	4.93
263.193	5.46
263.573	5.5
263.953	5.88
264.333	6.18
264.713	4.89
265.093	4.76
265.473	5.61
265.853	4.28
266.233	3.81
266.612	3.72
266.992	4.33
267.372	5.32
267.752	5.93
268.131	4.2
268.511	4.34
268.89	4.33
269.27	4.52
269.649	5.1
270.029	5.04
270.408	5.62
270.787	4.49
271.167	4.48
271.546	4.72
271.925	4.92
272.304	5.43
272.683	4.6
273.062	4.99
273.441	5.01
273.82	4.61
274.199	4.74
274.578	4.85
274.957	4.92
275.336	4.99
275.715	5.17
276.093	4.13
276.472	5.03
276.851	5.38
277.229	4.51
277.608	4.24
277.986	4.66
278.365	4.37
278.743	4.82
279.122	4.9
279.5	3.78
279.878	4.28
280.257	4.68
280.635	4.82
281.013	4.28
281.391	4.56
281.769	4.98
282.147	4.74
282.525	4.35
282.903	4.42
283.281	4.43
283.659	4.35
284.037	4.68
284.415	4.59
284.792	4.72
285.17	4.56
285.548	4.77
285.925	4.58
286.303	4.6
286.68	4.3
287.058	4.73
287.435	4.48
287.813	4.51
288.19	4.58
288.567	4.56
288.945	4.21
289.322	3.63
289.699	4.52
290.076	4.29
290.453	4.63
290.83	4.04
291.207	4.8
291.584	4.64
291.961	4.58
292.338	4.89
292.715	4.62
293.092	4.33
293.469	4.26
293.845	4.65
294.222	4.67
294.599	4.42
294.975	4.37
295.352	4.5
295.728	4.58
296.105	4.82
296.481	4.59
296.858	4.27
297.234	4.64
297.61	4.26
297.986	4.71
298.363	4.9
298.739	4.53
299.115	4.5
299.491	4.64
299.867	4.64
300.243	4.58
300.619	4.58
300.995	4.54
301.371	4.85
301.746	4.42
302.122	5.11
302.498	4.5
302.874	4.11
303.249	5.22
303.625	4.29
304	4.69
304.376	4.73
304.751	4.98
305.127	4.08
305.502	4.78
305.878	4.13
306.253	4.45
306.628	4.46
307.003	4.34
307.378	4.47
307.754	4.12
308.129	4.26
308.504	5.01
308.879	4.24
309.254	5
309.629	4.11
310.003	4.7
310.378	4.51
310.753	5.02
311.128	4.72
311.502	4.29
311.877	4.07
312.252	3.52
312.626	4.18
313.001	4.61
313.375	4.11
313.75	4.45
314.124	4.52
314.498	4.56
314.873	4.39
315.247	4.91
315.621	4.38
315.995	4.27
316.369	4.87
316.743	4.22
317.117	3.69
317.491	3.82
317.865	4.1
318.239	4.14
318.613	4.56
318.987	4.59
319.361	3.96
319.734	3.96
320.108	4.51
320.482	4.04
320.855	3.71
321.229	4.83
321.602	4.73
321.976	4.37
322.349	4.17
322.723	3.99
323.096	4.58
323.469	4.14
323.843	4.58
324.216	4.36
324.589	4.46
324.962	4.81
325.335	4.31
325.708	4.81
326.081	4.49
326.454	4.56
326.827	4.82
327.2	4.49
327.573	4.18
327.945	4.59
328.318	4.53
328.691	3.8
329.063	4.62
329.436	4.37
329.809	4.38
330.181	3.33
330.553	4.36
330.926	4.95
331.298	4.7
331.671	3.99
332.043	4.14
332.415	4.44
332.787	3.81
333.159	4.38
333.532	4.79
333.904	4.37
334.276	4.94
334.648	3.92
335.02	4
335.391	3.92
335.763	4.32
336.135	4.36
336.507	4.62
336.879	4.18
337.25	4.1
337.622	4.37
337.993	4.17
338.365	4.1
338.736	3.99
339.108	4.16
339.479	4.46
339.851	3.96
340.222	4
340.593	4.64
340.964	4.53
341.336	4.57
341.707	3.62
342.078	4.3
342.449	4.25
342.82	4.94
343.191	4.64
343.562	4.51
343.933	4.7
344.303	4.55
344.674	3.98
345.045	4.51
345.416	4.24
345.786	4.11
346.157	4.16
346.527	5
346.898	4.09
347.268	4.15
347.639	4.4
348.009	4.31
348.38	4.21
348.75	4.84
349.12	4.4
349.49	4.36
349.861	4.71
350.231	4.38
350.601	4.68
350.971	4.4
351.341	4.46
351.711	4.5
352.081	4.66
352.45	4.3
352.82	4.67
353.19	3.99
353.56	4.26
353.929	4.2
354.299	4.14
354.669	4.15
355.038	3.97
355.408	4.21
355.777	4.75
356.147	4.23
356.516	4.32
356.885	4.43
357.254	4.43
357.624	4.14
357.993	3.86
358.362	4.04
358.731	4.66
359.1	4.36
359.469	4.33
359.838	4.3
360.207	4.16
360.576	4.79
360.945	4.29
361.314	4.47
361.682	4.42
362.051	4.56
362.42	4.62
362.788	4.38
363.157	4.88
363.525	4.82
363.894	4.29
364.262	4.53
364.631	4.21
364.999	4.57
365.367	4.65
365.735	4.3
366.104	4.13
366.472	4.27
366.84	4.43
367.208	4.58
367.576	4.64
367.944	4.9
368.312	4.74
368.68	4.35
369.048	4.43
369.416	4.65
369.783	4.58
370.151	4.85
370.519	4.55
370.886	4.65
371.254	4.58
371.621	4.49
371.989	4.7
372.356	4.59
372.724	4.49
373.091	4.25
373.458	4.44
373.826	4.76
374.193	4.04
374.56	4.64
374.927	4.73
375.294	4.21
375.661	5.26
376.028	5.09
376.395	4.79
376.762	5.01
377.129	4.49
377.496	4.37
377.863	4.84
378.229	4.4
378.596	4.44
378.963	4.63
379.329	4.58
379.696	4.32
380.062	5.12
380.429	4.84
380.795	4.74
381.161	4.65
381.528	4.65
381.894	4.88
382.26	4.23
382.626	4.72
382.993	5.09
383.359	4.72
383.725	4.85
384.091	4.65
384.457	4.71
384.823	4.54
385.188	4.7
385.554	4.76
385.92	4.5
386.286	4.78
386.651	4.88
387.017	4.91
387.383	4.77
387.748	4.65
388.114	4.84
388.479	4.97
388.845	4.83
389.21	4.55
389.575	4.82
389.94	4.73
390.306	4.84
390.671	4.67
391.036	4.99
391.401	4.58
391.766	4.94
392.131	4.95
392.496	4.73
392.861	4.47
393.226	4.83
393.591	5
393.956	4.66
394.32	4.81
394.685	5.07
395.05	4.6
395.414	4.57
395.779	4.83
396.143	4.94
396.508	4.68
396.872	4.87
397.236	4.85
397.601	4.79
397.965	4.76
398.329	4.84
398.694	4.67
399.058	5.1
399.422	4.7
399.786	4.97
400.15	4.74
400.514	5
400.878	4.88
401.242	4.91
401.605	4.95
401.969	4.84
402.333	4.96
402.697	4.99
403.06	4.71
403.424	4.94
403.787	4.7
404.151	5.07
404.514	4.73
404.878	4.89
405.241	5.07
405.604	4.75
405.968	5
406.331	5.02
406.694	5
407.057	4.77
407.42	4.86
407.783	5.14
408.146	4.75
408.509	4.96
408.872	5.02
409.235	4.9
409.598	4.85
409.961	4.94
410.323	4.95
410.686	4.91
411.049	5.01
411.411	5.17
411.774	5.14
412.136	5.16
412.499	5.05
412.861	4.98
413.223	5.28
413.586	4.93
413.948	5.04
414.31	5.18
414.672	4.99
415.035	5.01
415.397	5.06
415.759	5.01
416.121	4.92
416.483	4.98
416.845	5.04
417.206	5.26
417.568	4.85
417.93	5.37
418.292	5.04
418.653	5.18
419.015	5.11
419.377	5.01
419.738	5.17
420.1	5.01
420.461	5.16
420.822	5.16
421.184	5.13
421.545	5.3
421.906	5.12
422.267	5.08
422.629	5.04
422.99	5.03
423.351	5.07
423.712	5.08
424.073	5.15
424.434	5.04
424.795	5.21
425.155	4.96
425.516	4.99
425.877	5.03
426.238	5.1
426.598	5.13
426.959	5.09
427.32	5.12
427.68	5.12
428.041	5.14
428.401	5.09
428.761	5.3
429.122	5.36
429.482	5.45
429.842	5.33
430.202	5.17
430.563	5.27
430.923	5.22
431.283	5.15
431.643	5.26
432.003	5.13
432.363	5.26
432.722	5.22
433.082	5.24
433.442	5.31
433.802	5.43
434.161	5.29
434.521	5.36
434.881	5.18
435.24	5.33
435.6	5.25
435.959	5.3
436.319	5.38
436.678	5.24
437.037	5.3
437.396	5.14
437.756	5.19
438.115	5.29
438.474	5.3
438.833	5.4
439.192	5.39
439.551	5.46
439.91	5.11
440.269	5.29
440.628	5.18
440.987	5.17
441.345	5.45
441.704	5.3
442.063	5.21
442.421	5.37
442.78	5.25
443.138	5.24
443.497	5.24
443.855	5.32
444.214	5.38
444.572	5.35
444.93	5.34
445.288	5.32
445.647	5.44
446.005	5.37
446.363	5.1
446.721	5.25
447.079	5.46
447.437	5.29
447.795	5.29
448.153	5.28
448.51	5.35
448.868	5.32
449.226	5.4
449.584	5.39
449.941	5.4
450.299	5.39
450.656	5.33
451.014	5.45
451.371	5.44
451.729	5.41
452.086	5.42
452.443	5.54
452.801	5.4
453.158	5.46
453.515	5.58
453.872	5.57
454.229	5.57
454.586	5.26
454.943	5.23
455.3	5.39
455.657	5.43
456.014	5.64
456.371	5.5
456.727	5.47
457.084	5.47
457.441	5.54
457.797	5.48
458.154	5.46
458.51	5.43
458.867	5.66
459.223	5.59
459.58	5.54
459.936	5.16
460.292	5.47
460.648	5.62
461.005	5.53
461.361	5.48
461.717	5.59
462.073	5.47
462.429	5.42
462.785	5.43
463.141	5.47
463.496	5.47
463.852	5.74
464.208	5.74
464.564	5.41
464.919	5.81
465.275	5.84
465.631	5.78
465.986	5.68
466.342	5.69
466.697	5.68
467.052	5.62
467.408	5.67
467.763	5.71
468.118	5.51
468.473	5.66
468.829	5.84
469.184	5.65
469.539	5.7
469.894	5.58
470.249	5.53
470.603	5.57
470.958	5.63
471.313	5.93
471.668	5.71
472.023	5.72
472.377	5.5
472.732	5.68
473.086	5.78
473.441	5.88
473.795	5.68
474.15	5.8
474.504	5.62
474.859	5.7
475.213	5.65
475.567	5.73
475.921	5.68
476.275	5.63
476.63	5.57
476.984	5.8
477.338	5.8
477.692	5.52
478.045	5.77
478.399	5.75
478.753	5.69
479.107	5.67
479.461	5.86
479.814	5.72
480.168	5.56
480.521	5.74
480.875	5.66
481.228	5.83
481.582	5.84
481.935	5.8
482.289	5.82
482.642	6.02
482.995	5.8
483.348	5.88
483.701	5.91
484.055	5.73
484.408	5.76
484.761	5.69
485.114	5.66
485.466	5.55
485.819	5.49
486.172	5.47
486.525	5.53
486.878	5.58
487.23	5.59
487.583	5.6
487.936	5.74
488.288	5.65
488.641	5.71
488.993	5.67
489.345	5.61
489.698	5.6
490.05	5.61
490.402	5.6
490.754	5.61
491.107	5.67
491.459	5.68
491.811	5.81
492.163	5.71
492.515	5.9
492.866	5.67
493.218	5.73
493.57	5.7
493.922	5.68
494.274	5.69
494.625	5.8
494.977	5.93
495.328	5.96
495.68	5.82
496.031	5.91
496.383	5.94
496.734	5.94
497.086	5.92
497.437	5.84
497.788	5.97
498.139	5.78
498.49	5.95
498.842	5.82
499.193	5.9
499.544	5.88
499.894	5.95
500.245	6.06
500.596	5.94
500.947	5.84
501.298	6.02
501.648	6.03
501.999	5.83
502.35	5.92
502.7	5.94
503.051	6.04
503.401	5.93
503.752	6.23
504.102	6.02
504.452	5.96
504.803	6.17
505.153	6.03
505.503	6.05
505.853	5.98
506.203	6.07
506.553	5.88
506.903	6.11
507.253	6.06
507.603	6.15
507.953	6.1
508.303	6.04
508.652	6.12
509.002	6.03
509.352	5.99
509.701	6.09
510.051	6.04
510.4	6.03
510.75	6.09
511.099	6.02
511.449	6.2
511.798	6.01
512.147	6.1
512.496	6.12
512.846	6.14
513.195	6.04
513.544	6.19
513.893	6
514.242	6.08
514.591	5.94
514.939	6
515.288	6.09
515.637	6.03
515.986	6.08
516.334	6.24
516.683	6.16
517.032	6.25
517.38	6.15
517.729	6.18
518.077	6.12
518.426	6.18
518.774	6.25
519.122	6.16
519.47	6.06
519.819	6.08
520.167	6.05
520.515	6.07
520.863	6.04
521.211	6.05
521.559	6.08
521.907	6.15
522.255	6.14
522.602	6.21
522.95	6.29
523.298	6.19
523.645	6.31
523.993	6.3
524.341	6.23
524.688	6.2
525.036	6.37
525.383	6.36
525.73	6.15
526.078	6.21
526.425	6.21
526.772	6.21
527.119	6.2
527.466	6.11
527.814	6.13
528.161	6.14
528.508	6.07
528.854	6.09
529.201	6.13
529.548	6.15
529.895	6.03
530.242	5.99
530.588	5.97
530.935	6.04
531.282	5.99
531.628	6.05
531.975	6.1
532.321	6.09
532.667	6.09
533.014	6.2
533.36	6.15
533.706	6.23
534.052	6.18
534.399	6.29
534.745	6.17
535.091	6.17
535.437	6.16
535.783	6.09
536.129	6.18
536.474	6.22
536.82	6.14
537.166	6.32
537.512	6.2
537.857	6.38
538.203	6.26
538.549	6.26
538.894	6.29
539.239	6.22
539.585	6.26
539.93	6.32
540.276	6.26
540.621	6.32
540.966	6.3
541.311	6.35
541.656	6.36
542.001	6.35
542.346	6.24
542.691	6.23
543.036	6.23
543.381	6.08
543.726	6.18
544.071	6.2
544.415	6.16
544.76	6.3
545.105	6.26
545.449	6.36
545.794	6.45
546.138	6.32
546.483	6.43
546.827	6.44
547.171	6.45
547.516	6.41
547.86	6.46
548.204	6.4
548.548	6.45
548.892	6.36
549.236	6.32
549.58	6.46
549.924	6.36
550.268	6.6
550.612	6.39
550.956	6.53
551.3	6.62
551.643	6.54
551.987	6.55
552.33	6.52
552.674	6.5
553.017	6.68
553.361	6.81
553.704	6.6
554.048	6.53
554.391	6.45
554.734	6.63
555.077	6.58
555.42	6.45
555.764	6.6
556.107	6.45
556.45	6.49
556.793	6.63
557.135	6.48
557.478	6.52
557.821	6.59
558.164	6.59
558.507	6.67
558.849	6.5
559.192	6.66
559.534	6.51
559.877	6.53
560.219	6.53
560.562	6.62
560.904	6.66
561.246	6.53
561.589	6.69
561.931	6.45
562.273	6.43
562.615	6.55
562.957	6.59
563.299	6.82
563.641	6.66
563.983	6.63
564.325	6.67
564.667	6.64
565.008	6.44
565.35	6.54
565.692	6.49
566.033	6.74
566.375	6.69
566.716	6.42
567.058	6.72
567.399	6.75
567.741	6.64
568.082	6.65
568.423	6.69
568.764	6.65
569.105	6.66
569.447	6.73
569.788	6.74
570.129	6.63
570.47	6.58
570.811	6.81
571.151	6.78
571.492	6.76
571.833	6.78
572.174	6.7
572.514	6.63
572.855	6.83
573.195	6.87
573.536	6.67
573.876	6.65
574.217	6.65
574.557	6.71
574.898	6.68
575.238	6.75
575.578	6.65
575.918	6.55
576.258	6.8
576.598	6.68
576.938	6.7
577.278	6.76
577.618	6.72
577.958	6.62
578.298	6.92
578.638	6.76
578.977	6.71
579.317	6.84
579.657	6.88
579.996	6.94
580.336	6.84
580.675	6.77
581.014	6.67
581.354	6.82
581.693	6.87
582.032	6.64
582.372	6.85
582.711	6.74
583.05	6.9
583.389	6.92
583.728	6.71
584.067	7.1
584.406	6.73
584.745	6.88
585.083	6.78
585.422	7.04
585.761	7.04
586.1	6.96
586.438	7.07
586.777	6.95
587.115	6.78
587.454	6.95
587.792	6.85
588.13	7.2
588.469	7.07
588.807	6.87
589.145	7.1
589.483	6.89
589.821	6.91
590.159	6.92
590.497	6.86
590.835	7.05
591.173	6.92
591.511	6.97
591.849	6.81
592.187	7.15
592.524	6.68
592.862	6.68
593.2	6.71
593.537	6.87
593.875	7.21
594.212	6.87
594.55	7.02
594.887	7.37
595.224	6.91
595.561	7
595.899	6.85
596.236	6.82
596.573	6.87
596.91	7.11
597.247	6.98
597.584	7.01
597.921	7.05
598.258	7.15
598.594	6.97
598.931	7.05
599.268	6.87
599.604	6.92
599.941	6.92
600.277	7.08
600.614	7.11
600.95	6.92
601.287	7.04
601.623	6.89
601.959	6.73
602.296	7.05
602.632	6.86
602.968	6.87
603.304	6.78
603.64	7.35
603.976	6.77
604.312	7.01
604.648	6.88
604.984	7.03
605.319	6.94
605.655	7.06
605.991	7.09
606.326	6.84
606.662	6.93
606.998	7.06
607.333	7.16
607.668	6.87
608.004	7.13
608.339	7.18
608.674	7.05
609.01	6.92
609.345	7.2
609.68	7.29
610.015	6.81
610.35	6.97
610.685	7.02
611.02	7.25
611.355	7.23
611.689	7.02
612.024	6.98
612.359	7.16
612.694	7.1
613.028	7.14
613.363	6.89
613.697	7.25
614.032	7.08
614.366	7.19
614.7	7.21
615.035	6.98
615.369	7.04
615.703	7.27
616.037	7.15
616.371	6.94
616.705	7.04
617.039	7.16
617.373	7.02
617.707	6.79
618.041	7.18
618.375	7.11
618.709	7.31
619.042	6.94
619.376	6.77
619.71	7.39
620.043	7.02
620.377	7.35
620.71	6.91
621.043	7.12
621.377	6.63
621.71	7.36
622.043	7.22
622.376	7.46
622.709	7.52
623.043	7.2
623.376	7.4
623.709	7.42
624.041	7.27
624.374	7.02
624.707	7.28
625.04	7.3
625.373	7.46
625.705	7.13
626.038	7.32
626.37	7.19
626.703	7.51
627.035	7.41
627.368	7.7
627.7	7.27
628.032	7.34
628.365	7.29
628.697	7.4
629.029	7.13
629.361	7.19
629.693	7.25
630.025	7.08
630.357	7.52
630.689	7.24
631.021	7.15
631.353	7.61
631.684	7.45
632.016	7.15
632.348	7.25
632.679	7.02
633.011	7.88
633.342	7.33
633.674	7.46
634.005	7.49
634.336	7.48
634.668	7.43
634.999	7.57
635.33	7.55
635.661	7.12
635.992	7.27
636.323	7.12
636.654	7.52
636.985	7.19
637.316	7.4
637.647	7.14
637.977	7.11
638.308	7.35
638.639	7.28
638.969	7.26
639.3	7.48
639.63	7.59
639.961	7.47
640.291	7.07
640.622	7.38
640.952	7.5
641.282	7.7
641.612	7.16
641.943	7.49
642.273	7.38
642.603	7.8
642.933	7.25
643.263	7.13
643.592	7.29
643.922	7.34
644.252	7.7
644.582	7.38
644.911	7.47
645.241	6.99
645.571	7.91
645.9	6.95
646.23	7.1
646.559	7.61
646.888	7.38
647.218	7.75
647.547	7.29
647.876	7.27
648.205	8.13
648.534	7.78
648.863	7.73
649.192	7.9
649.521	7.94
649.85	7.07
650.179	7.73
650.508	7.93
650.837	7.15
651.165	7.44
651.494	6.91
651.822	7.44
652.151	7.72
652.479	8.01
652.808	7.76
653.136	7.69
653.465	7.65
653.793	7.58
654.121	7.6
654.449	7.81
654.777	7.75
655.105	8
655.433	7.94
655.761	7.5
656.089	7.85
656.417	7.94
656.745	7.46
657.073	7.32
657.4	7.58
657.728	7.39
658.056	7.57
658.383	7.39
658.711	7.79
659.038	7.64
659.365	7.62
659.693	7.57
660.02	7.4
660.347	7.63
660.674	7.72
661.001	7.74
661.329	7.33
661.656	7.74
661.982	7.33
662.309	7.78
662.636	7.6
662.963	7.76
663.29	7.69
663.616	7.48
663.943	8.04
664.27	7.9
664.596	8.23
664.923	8.3
665.249	7.57
665.576	8.38
665.902	7.96
666.228	8.44
666.554	7.71
666.881	7.1
667.207	8.12
667.533	7.62
667.859	7.77
668.185	7.93
668.511	8.27
668.837	7.27
669.162	8.35
669.488	7.18
669.814	7.87
670.139	7.41
670.465	7.56
670.791	8.4
671.116	7.86
671.442	7.72
671.767	7.31
672.092	8.6
672.418	7.89
672.743	7.53
673.068	7.22
673.393	7.64
673.718	7.94
674.043	8.34
674.368	7.12
674.693	7.96
675.018	7.37
675.343	7.8
675.667	7.89
675.992	7.2
676.317	7.64
676.641	7.13
676.966	7.45
677.29	7.82
677.615	7.48
677.939	7.51
678.264	7.89
678.588	8.33
678.912	7.82
679.236	7.93
679.56	8.03
679.885	8.29
680.209	8.51
680.532	7.84
680.856	8.05
681.18	7.97
681.504	7.76
681.828	8.06
682.152	8.07
682.475	8.43
682.799	8.13
683.122	8.4
683.446	8.42
683.769	8.75
684.093	7.64
684.416	8.22
684.739	8.06
685.062	8.28
685.386	9.07
685.709	8.8
686.032	7.56
686.355	8.06
686.678	8.68
687.001	7.87
687.324	8.6
687.646	7.75
687.969	7.77
688.292	8.54
688.614	8.01
688.937	7.78
689.26	8.58
689.582	8.26
689.904	8.03
690.227	8.53
690.549	8.41
690.871	7.49
691.194	7.92
691.516	8.12
691.838	7.4
692.16	8.57
692.482	7.94
692.804	7.6
693.126	8.26
693.448	8.39
693.769	7.78
694.091	9.01
694.413	9.08
694.735	8.07
695.056	7.73
695.378	7.48
695.699	8.06
696.021	7.02
696.342	8.15
696.663	8.12
696.984	7.86
697.306	7.64
697.627	7.51
697.948	8
698.269	8.02
698.59	8.6
698.911	8.47
699.232	7.51
699.553	8.51
699.873	8.65
700.194	8.46
700.515	8.82
700.835	8.3
701.156	8.44
701.477	8.72
701.797	8.71
702.117	8.03
702.438	9.18
702.758	8.39
703.078	9.49
703.398	8.42
703.719	8.08
704.039	8.52
704.359	8.23
704.679	9.15
704.999	10.09
705.319	7.12
705.638	8.02
705.958	7.91
706.278	8.62
706.597	8.57
706.917	8.16
707.237	7.86
707.556	8.94
707.876	8.3
708.195	8.98
708.514	8.72
708.834	9.31
709.153	8.39
709.472	9.35
709.791	8.98
710.11	8.88
710.429	8.31
710.748	7.2
711.067	9.32
711.386	8.79
711.705	8.99
712.023	8.86
712.342	8.89
712.661	7.65
712.979	9.4
713.298	9.05
713.616	8.6
713.935	9.02
714.253	7.65
714.572	7.84
714.89	9.09
715.208	9.1
715.526	8.03
715.844	8.8
716.162	9.2
716.48	9.17
716.798	8.36
717.116	9
717.434	9.25
717.752	8.19
718.069	9.29
718.387	8.73
718.705	8.55
719.022	9.28
719.34	8.08
719.657	8.86
719.975	8.53
720.292	9.33
720.609	7.8
720.927	7.64
721.244	8.28
721.561	8.52
721.878	8.01
722.195	8.44
722.512	8.74
722.829	8.89
723.146	9.33
723.463	7.82
723.779	8.54
724.096	9.24
724.413	8.43
724.729	7.95
725.046	10.73
725.362	8.02
725.679	8.36
725.995	10.67
726.311	9.08
726.628	9.47
726.944	8.99
727.26	8.45
727.576	8.14
727.892	7.59
728.208	7.71
728.524	7.79
728.84	8.08
729.156	8.77
729.472	9.3
729.787	8.93
730.103	9.08
730.419	7.8
730.734	7.54
731.05	8.6
731.365	10.56
731.681	9.45
731.996	8.86
732.311	9.2
732.626	9.75
732.942	8.87
733.257	7.97
733.572	9.32
733.887	8.85
734.202	9.29
734.517	7.93
734.832	8.79
735.146	10.34
735.461	9.8
735.776	8.35
736.091	8.25
736.405	8.8
736.72	7.59
737.034	8.77
737.349	7.95
737.663	8.23
737.977	8.08
738.292	9.1
738.606	8
738.92	6.16
739.234	8.6
739.548	9.86
739.862	8.6
740.176	8.5
740.49	9.07
740.804	9.71
741.117	8.04
741.431	9.27
741.745	10.79
742.058	9.66
742.372	8.36
742.685	9.81
742.999	7.55
743.312	7.78
743.626	8.61
743.939	8.91
744.252	8.31
744.565	7.96
744.878	9.68
745.191	9.89
745.505	9.58
745.817	12.16
746.13	8.78
746.443	7.82
746.756	9.33
747.069	11.23
747.381	9.64
747.694	8.61
748.007	8
748.319	9.63
748.632	10.55
748.944	7.2
749.256	7.87
749.569	7.94
749.881	8.75
750.193	8.44
750.505	9.35
750.817	8.76
751.129	7.53
751.441	11.29
751.753	10.6
752.065	6.98
752.377	10.82
752.689	9.15
753	9.4
753.312	9.36
753.624	11.99
753.935	9.46
754.247	10.16
754.558	9.49
754.869	9.7
755.181	10.27
755.492	10.94
755.803	8.15
756.114	10.81
756.425	11.5
756.736	10.37
757.047	7.79
757.358	9.59
757.669	9.06
757.98	8.85
758.291	7.2
758.601	10.42
758.912	9.09
759.223	9.62
759.533	9.38
759.844	8.8
760.154	10.75
760.464	8.8
760.775	11.53
761.085	7.32
761.395	7.49
761.705	10.3
762.016	9.41
762.326	10.79
762.636	8.66
762.945	9.7
763.255	11.08
763.565	9.05
763.875	9.89
764.185	8.8
764.494	8.89
764.804	8.37
765.113	10.93
765.423	11.56
765.732	10.14
766.042	9.88
766.351	10.8
766.66	9.55
766.97	10.43
767.279	8.68
767.588	9.74
767.897	10.28
768.206	10.79
768.515	10.78
768.824	10.85
769.133	10.93
769.441	9.22
769.75	6.51
770.059	8.64
770.367	8.1
770.676	10.75
770.984	9.67
771.293	11.61
771.601	8.13
771.91	9.86
772.218	10.27
772.526	5.75
772.834	9.44
773.142	7.52
773.45	8.63
773.758	10.86
774.066	9.81
774.374	9.36
774.682	11.41
774.99	5.28
775.298	8.19
775.605	9.31
775.913	9.44
776.22	8.42
776.528	7.2
776.835	7.56
777.143	9.84
777.45	7.81
777.757	9
778.065	10.39
778.372	6.2
778.679	4.42
778.986	9.69
779.293	12.68
779.6	6.03
779.907	8.66
780.214	8.84
780.52	8.57
780.827	11.44
781.134	10.96
781.44	9.9
781.747	6.09
782.053	10.88
782.36	6.13
782.666	7.95
782.973	7.16
783.279	5.27
783.585	5.39
783.891	11.61
784.197	12.76
784.503	9.97
784.809	10.26
785.115	12.03
785.421	11.37
785.727	10.47
786.033	6.48
786.339	8.94
786.644	6.58
786.95	13.7
787.255	10.95
787.561	12.2
787.866	11.13
788.172	8.92
788.477	4.92
788.782	7.88
789.088	11.12
789.393	7.63
789.698	10.29
790.003	11.61
790.308	9.85
790.613	6.56
790.918	8.69
791.223	11.11
791.527	8.96
791.832	12.12
792.137	8.88
792.441	8.43
792.746	10.36
793.05	11.2
793.355	9.01
793.659	11.59
793.963	7.52
794.268	6.49
794.572	10.51
794.876	7.34
795.18	6.8
795.484	6.6
795.788	9.19
796.092	4.33
796.396	6.63
796.7	4.89
797.004	10.16
797.307	6.52
797.611	3.47
797.915	7.28
798.218	5.58
798.522	5.94
798.825	12.02
799.128	9.03
799.432	10.69
799.735	7.41
800.038	9.67
800.341	11.72
800.644	3.03
800.947	9.56
801.25	1.3
801.553	8.21
801.856	6.11
802.159	10.3
802.462	11.18
802.764	8.01
803.067	7.36
803.37	8
803.672	3.8
803.975	6.72
804.277	10.13
804.579	7.17
804.882	7.4
805.184	12.12
805.486	7.06
805.788	6.27
806.09	7.89
806.392	7.82
806.694	11.25
806.996	5.75
807.298	6.28
807.6	5.7
807.902	9.44
808.203	4.48
808.505	8.05
808.807	5.64
809.108	-0.1
809.409	10.56
809.711	3.14
810.012	5
810.313	6.79
810.615	8.41
810.916	3.87
811.217	9.81
811.518	5.7
811.819	7.86
812.12	9.55
812.421	8.79
812.722	8.09
813.023	1
813.323	9.3
813.624	13.27
813.925	16.99
814.225	6.51
814.526	10.93
814.826	12.33
815.126	-1.33
815.427	6.35
815.727	5.31
816.027	4.33
816.327	2.48
816.627	13.73
816.927	15.73
817.227	7.23
817.527	4.37
817.827	3.48
818.127	10.28
818.427	3.22
818.727	0.66
819.026	5.61
819.326	6.29
819.625	5.31
819.925	9.08
820.224	7.54
820.524	7.8
820.823	14.4
821.122	7.6
821.421	8.74
821.72	8.93
822.019	0.53
822.318	7.85
822.617	10.88
822.916	7.86
823.215	13.43
823.514	12.19
823.813	9.83
824.111	12.37
824.41	12.66
824.709	12.87
825.007	14
825.306	13.57
825.604	11.86
825.902	12.47
826.201	12.02
826.499	11.76
826.797	12.43
827.095	12.86
827.393	11.6
827.691	13.43
827.989	9.07
828.287	10.86
828.585	13.34
828.882	11.6
829.18	11.51
829.478	12.06
829.775	13.44
830.073	12.23
830.37	12.85
830.668	11.03
830.965	15.43
831.263	10.38
831.56	11.11
831.857	7.45
832.154	8.72
832.451	6.55
832.748	10.97
833.045	7.31
833.342	16.74
833.639	10.05
833.936	2.89
834.232	11.35
834.529	8.69
834.826	11.82
835.122	10.24
835.419	7.35
835.715	12.23
836.012	6.3
836.308	11.28
836.604	11.36
836.901	10.77
837.197	11.94
837.493	11.47
837.789	11.83
838.085	12
838.381	9.04
838.677	9.39
838.972	9.47
839.268	0.77
839.564	13.09
839.86	11.24
840.155	7.91
840.451	9.62
840.746	3.97
841.042	-1
841.337	-8.29
841.632	8.99
841.928	11.83
842.223	4.7
842.518	2.2
842.813	7.99
843.108	2.35
843.403	6.3
843.698	10.83
843.993	1.04
844.287	0.06
844.582	5.53
844.877	5.73
845.171	6.55
845.466	3.64
845.761	12.54
846.055	9.74
846.349	-4.44
846.644	9.63
846.938	4.08
847.232	6.9
847.526	-1.34
847.82	17.02
848.114	17.69
848.408	0.01
848.702	12.69
848.996	21.05
849.29	12.39
849.584	-10.63
849.877	8.16
850.171	6.66
850.465	-4.42
850.758	-7.48
851.052	-17.45
851.345	-1.79
851.638	12.05
851.932	-8.53
852.225	-31.72
852.518	4.6
852.811	12.38
853.104	-20.89
853.397	-4.12
853.69	1.17
853.983	-9.51
854.276	-7.76
854.569	3.96
854.861	11.34
855.154	12.16
855.447	2.32
855.739	32.04
856.032	-10.33
856.324	10.56
856.616	15.79
856.909	-5.98
857.201	11.02
857.493	-54.57
857.785	8.6
858.077	-17.46
858.369	-11.54
858.661	-2.95
858.953	10.3
859.245	-6.94
859.537	12.98
859.829	10.06
860.12	-4.31
860.412	-73.02
860.703	10.99
860.995	-1.44
861.286	6.58
861.578	0.67
861.869	-5.45
862.16	26.64
862.452	9.77
862.743	-5.39
863.034	14.39
863.325	8.79
863.616	-12.8
863.907	1.78
864.198	-7.93
864.488	14.85
864.779	-10.68
865.07	-14.73
865.36	1.64
865.651	-31.15
865.941	-33.72
866.232	-4.36
866.522	-41.76
866.813	-11.39
867.103	8.63
867.393	-20.88
867.683	-6.62
867.973	-12.67
868.263	-18.46
868.553	29.9
868.843	6.14
869.133	-21
869.423	-2.46
869.713	-3.82
870.002	-35.91
870.292	0.01
870.582	-11.95
870.871	11.78
871.161	-14.6
871.45	25.25
871.739	-7.81
872.029	-35.89
872.318	4.79
872.607	-18.51
872.896	5.99
873.185	-21.16
873.474	-18.75
873.763	-13.94
874.052	0.3
874.341	2.13
874.63	23.22
874.918	-54.09
875.207	14.11
875.496	-1.73
875.784	44.48
876.073	-10.04
876.361	2.34
876.649	7.45
876.938	-5.85
877.226	13.53
877.514	-65.58
877.802	3.14
878.09	-11.02
878.378	-13
878.666	-3.47
878.954	28.44
879.242	-6.78
879.53	-14.71
879.817	-52.59
880.105	4.76
880.392	-14.86
880.68	11.54
880.967	26.75
881.255	-14.7
881.542	-25.74
881.83	25.86
882.117	-6.38
882.404	5.93
882.691	-37.28
882.978	-25.13
883.265	-34.84
883.552	8.28
883.839	1.22
884.126	13.36
884.413	8.69
884.699	10.78
884.986	9.69
885.273	8.71
885.559	8.71
885.846	8.71
