Data from 438_forehead_Reflection__1__148.txt Node

Date: Tue Dec 12 19:35:57 CST 2023
User: ToomeyLab
Spectrometer: FLMS14357
Trigger mode: 0
Integration Time (sec): 1.000000E-2
Scans to average: 100
Electric dark correction enabled: true
Nonlinearity correction enabled: false
Boxcar width: 0
XAxis mode: Wavelengths
Number of Pixels in Spectrum: 2048
>>>>>Begin Spectral Data<<<<<
189.047	824.15
189.435	824.15
189.823	824.15
190.211	125.57
190.599	136.33
190.987	347.12
191.375	-286.93
191.763	-385.04
192.151	119.38
192.538	-215.44
192.926	247.18
193.314	-594.24
193.702	-1.48
194.089	396.19
194.477	-41.87
194.864	228.24
195.252	129.24
195.639	-97.49
196.027	-2454.31
196.414	48.41
196.801	412.42
197.189	-46.78
197.576	-164.95
197.963	107.13
198.351	13.78
198.738	75.95
199.125	31
199.512	-22.49
199.899	37.85
200.286	54.7
200.673	42.1
201.06	-6.06
201.447	-61.49
201.833	37.89
202.22	26.25
202.607	-37.98
202.994	51.18
203.38	2.11
203.767	2.79
204.154	29.42
204.54	35.8
204.927	-31.86
205.313	24.24
205.699	24.78
206.086	-20.67
206.472	75.28
206.858	18.66
207.245	40.14
207.631	49.23
208.017	24.57
208.403	4.59
208.789	20.06
209.175	27.27
209.561	20.47
209.947	5.79
210.333	23.33
210.719	16.87
211.105	6.66
211.491	27.82
211.876	41.74
212.262	35.45
212.648	13.3
213.034	12.57
213.419	15.78
213.805	4.93
214.19	59.34
214.576	38.42
214.961	33.66
215.346	20.2
215.732	29.17
216.117	-9.6
216.502	18.28
216.888	-27.19
217.273	4.34
217.658	34.03
218.043	-2.74
218.428	24.41
218.813	18.08
219.198	-18.54
219.583	11.22
219.968	17.84
220.353	-8.37
220.738	23.36
221.122	27.93
221.507	-15.23
221.892	11.26
222.276	13.85
222.661	9.86
223.046	6.79
223.43	16.93
223.815	13.96
224.199	15.03
224.583	10.26
224.968	16.66
225.352	2.69
225.736	16.62
226.121	10.06
226.505	4.48
226.889	9.82
227.273	3.06
227.657	12.36
228.041	7.54
228.425	4.27
228.809	6.92
229.193	3.28
229.577	6.88
229.961	3.9
230.344	4.54
230.728	4.72
231.112	4.33
231.495	4.92
231.879	5.46
232.263	5.15
232.646	3.56
233.03	4.53
233.413	4.34
233.797	6.2
234.18	3.75
234.563	3.72
234.946	4.89
235.33	6.25
235.713	6.59
236.096	4.86
236.479	5.24
236.862	5.54
237.245	5.73
237.628	6.15
238.011	5.37
238.394	3.9
238.777	5.79
239.16	5.05
239.543	4.97
239.925	5.22
240.308	3.82
240.691	4.94
241.073	5.94
241.456	5.24
241.838	3.51
242.221	5.13
242.603	5.66
242.986	4.08
243.368	5.35
243.75	4.66
244.133	4.55
244.515	4.42
244.897	4.22
245.279	4.52
245.661	4.43
246.043	3.72
246.425	5.94
246.807	4.36
247.189	4.72
247.571	4.73
247.953	4.49
248.335	4.28
248.717	4.15
249.098	4.23
249.48	4.15
249.862	4.13
250.243	4.02
250.625	5
251.006	4.46
251.388	4.94
251.769	4.71
252.151	4.13
252.532	4.76
252.913	5.34
253.295	4.74
253.676	3.63
254.057	4.08
254.438	4.65
254.819	4.48
255.2	4.04
255.581	5.31
255.962	3.55
256.343	5.4
256.724	5.23
257.105	5.86
257.486	3.89
257.867	5.22
258.247	4.55
258.628	4.69
259.009	5.23
259.389	4.32
259.77	4.33
260.15	4.99
260.531	5.27
260.911	4.94
261.292	3.99
261.672	4.08
262.052	4.21
262.432	4.46
262.813	4.4
263.193	4.71
263.573	4.25
263.953	5.56
264.333	5.97
264.713	4.96
265.093	4.51
265.473	5.24
265.853	3.64
266.233	3.78
266.612	4.57
266.992	4.93
267.372	5.62
267.752	5.62
268.131	4.24
268.511	3.86
268.89	4.08
269.27	3.82
269.649	4.38
270.029	4.33
270.408	5.03
270.787	3.78
271.167	4.23
271.546	4.4
271.925	4.67
272.304	4.92
272.683	3.87
273.062	4.69
273.441	4.6
273.82	3.72
274.199	4.64
274.578	4.18
274.957	3.96
275.336	4.3
275.715	4.51
276.093	3.99
276.472	4.74
276.851	4.82
277.229	3.83
277.608	3.86
277.986	4.33
278.365	4
278.743	4.52
279.122	4.29
279.5	4.28
279.878	3.7
280.257	4.67
280.635	4.16
281.013	4.59
281.391	5.19
281.769	4.52
282.147	3.91
282.525	4.01
282.903	4.11
283.281	3.97
283.659	4.26
284.037	4.61
284.415	4.38
284.792	4.72
285.17	4.11
285.548	4.52
285.925	4.21
286.303	4.22
286.68	4.29
287.058	4.49
287.435	4.66
287.813	3.97
288.19	4.51
288.567	4.66
288.945	4.31
289.322	4.3
289.699	4.85
290.076	4.53
290.453	4.97
290.83	4.68
291.207	4.56
291.584	4.59
291.961	4.65
292.338	4.55
292.715	4.94
293.092	4.7
293.469	4.96
293.845	4.88
294.222	4.93
294.599	5.07
294.975	5.14
295.352	5.58
295.728	5.15
296.105	4.95
296.481	5.3
296.858	5.53
297.234	5.68
297.61	5.58
297.986	5.74
298.363	5.55
298.739	5.12
299.115	5.32
299.491	5.55
299.867	5.48
300.243	5.56
300.619	5.79
300.995	6
301.371	6.11
301.746	5.79
302.122	6.77
302.498	5.97
302.874	6.48
303.249	6.66
303.625	6.14
304	6.33
304.376	6.34
304.751	6.23
305.127	6.5
305.502	7.49
305.878	6.3
306.253	6.42
306.628	6.84
307.003	6.79
307.378	6.89
307.754	6.64
308.129	7.11
308.504	7.69
308.879	6.84
309.254	7.43
309.629	7.2
310.003	7.45
310.378	7.42
310.753	7.51
311.128	7.72
311.502	7.21
311.877	7.37
312.252	7.42
312.626	7.38
313.001	7.6
313.375	7.4
313.75	7.97
314.124	7.98
314.498	8
314.873	8.03
315.247	8.32
315.621	8.12
315.995	8.14
316.369	8
316.743	7.8
317.117	7.36
317.491	8.32
317.865	8.04
318.239	8.76
318.613	8.84
318.987	9.34
319.361	8.09
319.734	8.46
320.108	8.52
320.482	8.69
320.855	8.56
321.229	8.83
321.602	9.18
321.976	9.55
322.349	9.21
322.723	9.03
323.096	8.98
323.469	9.58
323.843	10.05
324.216	9.81
324.589	9.75
324.962	9.77
325.335	9.91
325.708	9.67
326.081	9.4
326.454	9.45
326.827	10.3
327.2	9.92
327.573	9.52
327.945	9.95
328.318	10.16
328.691	9.8
329.063	10.62
329.436	10.23
329.809	10.16
330.181	9.91
330.553	10.5
330.926	10.83
331.298	10.52
331.671	10.75
332.043	10.46
332.415	11.36
332.787	10.67
333.159	10.65
333.532	11.26
333.904	11.13
334.276	11.34
334.648	10.84
335.02	10.88
335.391	10.77
335.763	11.07
336.135	11.47
336.507	11.44
336.879	11.4
337.25	11.22
337.622	11.64
337.993	11.4
338.365	10.77
338.736	10.82
339.108	11.42
339.479	11.87
339.851	11.47
340.222	11.46
340.593	11.5
340.964	11.77
341.336	12.23
341.707	11.25
342.078	11.63
342.449	11.86
342.82	12.58
343.191	12.42
343.562	11.96
343.933	12.79
344.303	12.65
344.674	12.69
345.045	12.32
345.416	12.49
345.786	12.1
346.157	12.72
346.527	12.6
346.898	12.48
347.268	12.64
347.639	12.9
348.009	12.71
348.38	13.31
348.75	13.17
349.12	13.05
349.49	12.97
349.861	13.2
350.231	13.09
350.601	13.66
350.971	13.58
351.341	13.49
351.711	13.84
352.081	13.38
352.45	13.46
352.82	13.82
353.19	13.75
353.56	13.42
353.929	13.55
354.299	13.4
354.669	13.95
355.038	13.68
355.408	13.9
355.777	14.14
356.147	13.86
356.516	14.26
356.885	14.19
357.254	14.04
357.624	14.32
357.993	14.12
358.362	14.35
358.731	14.63
359.1	14.61
359.469	14.27
359.838	14.31
360.207	14.78
360.576	14.57
360.945	14.42
361.314	14.96
361.682	14.75
362.051	15.12
362.42	15
362.788	14.79
363.157	15.06
363.525	15.06
363.894	14.85
364.262	14.95
364.631	14.98
364.999	15.22
365.367	15.24
365.735	15.26
366.104	14.96
366.472	15.23
366.84	15.64
367.208	15.25
367.576	15.28
367.944	15.77
368.312	15.9
368.68	15.67
369.048	15.82
369.416	15.9
369.783	16.23
370.151	15.98
370.519	15.83
370.886	15.94
371.254	16.05
371.621	16.11
371.989	16.39
372.356	15.81
372.724	16.38
373.091	16.23
373.458	16.37
373.826	16.2
374.193	16.4
374.56	16.63
374.927	16.63
375.294	16.79
375.661	17.11
376.028	17.04
376.395	16.79
376.762	17.74
377.129	17.08
377.496	16.96
377.863	17.13
378.229	17.41
378.596	17.08
378.963	17.47
379.329	17.06
379.696	17.12
380.062	17.64
380.429	17.6
380.795	17.5
381.161	17.5
381.528	17.35
381.894	17.67
382.26	17.51
382.626	18.06
382.993	17.95
383.359	17.81
383.725	17.77
384.091	18.1
384.457	18.2
384.823	18.44
385.188	18.15
385.554	18.37
385.92	18.09
386.286	18.32
386.651	18.58
387.017	18.6
387.383	18.6
387.748	18.4
388.114	18.86
388.479	18.7
388.845	18.6
389.21	18.57
389.575	18.47
389.94	18.57
390.306	19.07
390.671	18.9
391.036	18.81
391.401	18.98
391.766	18.9
392.131	19.12
392.496	19.07
392.861	19.24
393.226	19.42
393.591	19.26
393.956	19.27
394.32	19.59
394.685	19.77
395.05	19.45
395.414	19.59
395.779	19.64
396.143	19.88
396.508	19.64
396.872	19.99
397.236	19.95
397.601	20.09
397.965	19.99
398.329	20.28
398.694	19.99
399.058	20.29
399.422	20.18
399.786	20.18
400.15	19.98
400.514	20.74
400.878	20.53
401.242	20.55
401.605	20.73
401.969	20.6
402.333	20.66
402.697	20.52
403.06	20.8
403.424	20.83
403.787	20.94
404.151	20.83
404.514	20.71
404.878	20.76
405.241	21.05
405.604	20.99
405.968	21.03
406.331	21.15
406.694	21.42
407.057	21.08
407.42	21.03
407.783	21.33
408.146	21.26
408.509	21.5
408.872	21.62
409.235	21.37
409.598	21.71
409.961	21.86
410.323	21.67
410.686	22.02
411.049	21.82
411.411	22
411.774	22.04
412.136	21.91
412.499	21.92
412.861	22.18
413.223	22.42
413.586	22.14
413.948	22.18
414.31	22.43
414.672	22.34
415.035	22.72
415.397	22.46
415.759	22.41
416.121	22.7
416.483	22.62
416.845	22.33
417.206	22.65
417.568	22.74
417.93	22.67
418.292	22.89
418.653	22.82
419.015	22.67
419.377	22.97
419.738	22.86
420.1	22.77
420.461	22.75
420.822	22.84
421.184	22.89
421.545	23.02
421.906	23
422.267	22.94
422.629	23.01
422.99	23.01
423.351	22.99
423.712	23.05
424.073	23.11
424.434	23.27
424.795	23.35
425.155	23.26
425.516	23.28
425.877	23.3
426.238	23.46
426.598	23.51
426.959	23.51
427.32	23.73
427.68	23.88
428.041	24.04
428.401	23.99
428.761	24.02
429.122	24.21
429.482	24.45
429.842	23.98
430.202	24.46
430.563	24.48
430.923	24.7
431.283	24.68
431.643	24.71
432.003	24.63
432.363	24.9
432.722	24.86
433.082	24.86
433.442	25.05
433.802	24.93
434.161	24.97
434.521	25.08
434.881	24.86
435.24	25.15
435.6	25.27
435.959	25.05
436.319	25.1
436.678	25.17
437.037	25.23
437.396	25.39
437.756	25.45
438.115	25.62
438.474	25.51
438.833	25.47
439.192	25.82
439.551	25.7
439.91	25.59
440.269	25.61
440.628	25.67
440.987	25.66
441.345	25.83
441.704	25.75
442.063	25.81
442.421	25.82
442.78	25.82
443.138	25.92
443.497	25.87
443.855	26.01
444.214	26.28
444.572	26.43
444.93	26.47
445.288	26.35
445.647	26.47
446.005	26.42
446.363	26.43
446.721	26.52
447.079	26.66
447.437	26.34
447.795	26.53
448.153	26.34
448.51	26.51
448.868	26.44
449.226	26.61
449.584	26.8
449.941	26.75
450.299	26.86
450.656	26.83
451.014	27.13
451.371	27.26
451.729	27.43
452.086	27.36
452.443	27.62
452.801	27.77
453.158	27.65
453.515	27.75
453.872	27.52
454.229	27.72
454.586	27.51
454.943	27.59
455.3	27.92
455.657	27.99
456.014	28.16
456.371	28.09
456.727	28.26
457.084	28.12
457.441	28.26
457.797	28.25
458.154	28.31
458.51	28.25
458.867	28.41
459.223	28.5
459.58	28.54
459.936	28.36
460.292	28.61
460.648	28.63
461.005	28.39
461.361	28.35
461.717	28.28
462.073	28.15
462.429	28.44
462.785	28.52
463.141	28.68
463.496	28.86
463.852	29.17
464.208	29.22
464.564	29.37
464.919	29.21
465.275	29.38
465.631	29.58
465.986	29.63
466.342	29.46
466.697	29.69
467.052	29.59
467.408	29.66
467.763	29.77
468.118	29.73
468.473	29.56
468.829	29.95
469.184	29.77
469.539	30.05
469.894	30.11
470.249	30.17
470.603	29.86
470.958	30.18
471.313	30.49
471.668	30.44
472.023	30.38
472.377	30.39
472.732	30.57
473.086	30.38
473.441	30.37
473.795	30.79
474.15	30.74
474.504	30.46
474.859	30.62
475.213	30.79
475.567	30.84
475.921	30.98
476.275	30.74
476.63	30.92
476.984	31.03
477.338	31.24
477.692	30.94
478.045	31.05
478.399	31.1
478.753	30.97
479.107	31.26
479.461	31.19
479.814	31.37
480.168	31.07
480.521	31.38
480.875	31.32
481.228	31.38
481.582	31.54
481.935	31.64
482.289	31.58
482.642	31.51
482.995	31.57
483.348	31.66
483.701	31.49
484.055	31.31
484.408	31.37
484.761	31.2
485.114	30.81
485.466	30.64
485.819	30.61
486.172	30.73
486.525	30.92
486.878	31.02
487.23	31.1
487.583	31.24
487.936	31.71
488.288	31.58
488.641	31.49
488.993	31.36
489.345	31.34
489.698	31.39
490.05	31.4
490.402	31.49
490.754	31.69
491.107	31.94
491.459	32.17
491.811	32.46
492.163	32.37
492.515	32.39
492.866	32.34
493.218	31.98
493.57	32.05
493.922	32.01
494.274	32.24
494.625	32.39
494.977	32.85
495.328	32.98
495.68	33.26
496.031	33.41
496.383	33.36
496.734	33.47
497.086	33.51
497.437	33.6
497.788	33.68
498.139	33.52
498.49	33.46
498.842	33.51
499.193	33.42
499.544	33.68
499.894	33.78
500.245	33.8
500.596	33.89
500.947	33.85
501.298	34.15
501.648	34.23
501.999	34.08
502.35	34.53
502.7	34.39
503.051	34.43
503.401	34.5
503.752	34.69
504.102	34.75
504.452	34.69
504.803	34.86
505.153	34.96
505.503	34.71
505.853	34.78
506.203	34.85
506.553	34.68
506.903	35.03
507.253	34.83
507.603	35.07
507.953	34.98
508.303	35.25
508.652	35.06
509.002	35.23
509.352	35.35
509.701	35.49
510.051	35.18
510.4	35.25
510.75	35.3
511.099	35.26
511.449	35.34
511.798	35.24
512.147	35.55
512.496	35.76
512.846	35.72
513.195	35.64
513.544	35.67
513.893	35.68
514.242	35.82
514.591	35.94
514.939	35.65
515.288	35.98
515.637	36.02
515.986	35.99
516.334	36.29
516.683	36.34
517.032	36.33
517.38	36.4
517.729	36.49
518.077	36.45
518.426	36.43
518.774	36.42
519.122	36.42
519.47	36.3
519.819	36.28
520.167	36.08
520.515	36.11
520.863	36.1
521.211	36.04
521.559	36.25
521.907	36.38
522.255	36.61
522.602	36.72
522.95	37.03
523.298	36.92
523.645	37.12
523.993	37.18
524.341	37.3
524.688	37.35
525.036	37.33
525.383	37.49
525.73	37.24
526.078	37.48
526.425	37.35
526.772	37.23
527.119	37.12
527.466	37.05
527.814	37.03
528.161	37.1
528.508	37.16
528.854	37.32
529.201	37.37
529.548	37.12
529.895	36.9
530.242	36.58
530.588	36.66
530.935	36.89
531.282	36.84
531.628	37.02
531.975	37.09
532.321	37.19
532.667	37.51
533.014	37.7
533.36	37.62
533.706	37.89
534.052	38.08
534.399	37.93
534.745	37.82
535.091	37.61
535.437	37.62
535.783	37.79
536.129	38.05
536.474	38.15
536.82	38.27
537.166	38.54
537.512	38.58
537.857	38.61
538.203	38.65
538.549	38.44
538.894	38.43
539.239	38.59
539.585	38.97
539.93	38.91
540.276	39
540.621	39.29
540.966	39.25
541.311	39.57
541.656	39.15
542.001	39.34
542.346	39.15
542.691	38.94
543.036	38.66
543.381	38.53
543.726	38.63
544.071	38.76
544.415	39.11
544.76	39.15
545.105	39.31
545.449	39.28
545.794	39.55
546.138	39.49
546.483	39.86
546.827	39.8
547.171	39.89
547.516	40.11
547.86	40.23
548.204	40.1
548.548	39.97
548.892	40.06
549.236	40.33
549.58	40.42
549.924	40.59
550.268	40.83
550.612	40.8
550.956	40.97
551.3	40.88
551.643	41.22
551.987	41.41
552.33	41.14
552.674	41.25
553.017	41.61
553.361	41.58
553.704	41.44
554.048	41.48
554.391	41.36
554.734	41.48
555.077	41.45
555.42	41.48
555.764	41.37
556.107	41.55
556.45	41.67
556.793	41.75
557.135	41.77
557.478	41.89
557.821	42.14
558.164	42.17
558.507	42.44
558.849	42.18
559.192	42.36
559.534	42.41
559.877	42.25
560.219	42.36
560.562	42.57
560.904	42.34
561.246	42.17
561.589	42.5
561.931	42.61
562.273	42.47
562.615	42.65
562.957	42.56
563.299	42.9
563.641	42.77
563.983	43.03
564.325	42.54
564.667	42.76
565.008	42.94
565.35	42.83
565.692	43.07
566.033	43.18
566.375	43.18
566.716	43.03
567.058	43.38
567.399	43.03
567.741	43.02
568.082	42.88
568.423	43.23
568.764	43.13
569.105	43.1
569.447	43.38
569.788	43.17
570.129	43.28
570.47	43.58
570.811	43.76
571.151	43.87
571.492	43.88
571.833	44.17
572.174	43.87
572.514	43.91
572.855	43.86
573.195	43.82
573.536	43.95
573.876	43.82
574.217	43.95
574.557	43.9
574.898	43.71
575.238	44.02
575.578	44.01
575.918	44.32
576.258	44.48
576.598	44.2
576.938	44.23
577.278	44.22
577.618	44.44
577.958	44.4
578.298	44.49
578.638	44.72
578.977	45
579.317	44.91
579.657	44.91
579.996	45.08
580.336	45.14
580.675	45.05
581.014	45.51
581.354	45.37
581.693	45.63
582.032	45.31
582.372	45.39
582.711	45.55
583.05	45.73
583.389	45.72
583.728	45.51
584.067	45.53
584.406	45.87
584.745	45.77
585.083	45.47
585.422	46.06
585.761	46.13
586.1	46.13
586.438	46.05
586.777	46.18
587.115	46.03
587.454	45.72
587.792	46.44
588.13	46.42
588.469	46.54
588.807	46.06
589.145	46.4
589.483	46.63
589.821	46.67
590.159	46.35
590.497	46.31
590.835	46.69
591.173	46.31
591.511	46.67
591.849	46.5
592.187	46.77
592.524	46.65
592.862	46.58
593.2	46.99
593.537	46.65
593.875	46.89
594.212	46.97
594.55	47.25
594.887	47.34
595.224	47.33
595.561	47.08
595.899	46.79
596.236	46.9
596.573	46.97
596.91	47.2
597.247	47.32
597.584	47.2
597.921	47.36
598.258	47.5
598.594	47.09
598.931	47.15
599.268	46.92
599.604	47.2
599.941	47.27
600.277	47.4
600.614	47.57
600.95	47.72
601.287	47.67
601.623	47.76
601.959	48.12
602.296	47.98
602.632	48.57
602.968	48.15
603.304	47.82
603.64	48.28
603.976	48.32
604.312	48.21
604.648	48.53
604.984	48.06
605.319	48.27
605.655	48.08
605.991	48.1
606.326	47.87
606.662	48.2
606.998	47.88
607.333	48.06
607.668	48.31
608.004	48.35
608.339	48.12
608.674	48.75
609.01	48.89
609.345	48.8
609.68	49.1
610.015	48.62
610.35	49.33
610.685	48.8
611.02	48.8
611.355	48.42
611.689	48.46
612.024	48.62
612.359	48.86
612.694	48.91
613.028	49.23
613.363	49.15
613.697	49.28
614.032	49.07
614.366	49.69
614.7	49.66
615.035	49.59
615.369	49.22
615.703	49.87
616.037	49.73
616.371	49.9
616.705	49.65
617.039	50.27
617.373	49.86
617.707	49.81
618.041	50.21
618.375	50.41
618.709	49.84
619.042	50.17
619.376	49.9
619.71	50.32
620.043	50.45
620.377	50.19
620.71	49.91
621.043	49.98
621.377	50.44
621.71	50.64
622.043	50.78
622.376	50.71
622.709	50.85
623.043	49.95
623.376	50.65
623.709	50.78
624.041	50.79
624.374	50.65
624.707	50.71
625.04	50.6
625.373	51.43
625.705	50.68
626.038	50.8
626.37	51.09
626.703	50.88
627.035	51.04
627.368	51.28
627.7	50.88
628.032	51.45
628.365	50.86
628.697	50.78
629.029	51.09
629.361	50.73
629.693	51.22
630.025	50.67
630.357	51.1
630.689	51.04
631.021	51.83
631.353	51.36
631.684	51.77
632.016	51.5
632.348	51.54
632.679	51.44
633.011	52.08
633.342	51.84
633.674	52.06
634.005	52.05
634.336	51.6
634.668	52.31
634.999	51.79
635.33	52.17
635.661	51.74
635.992	52.11
636.323	52.15
636.654	51.89
636.985	51.94
637.316	52.25
637.647	51.74
637.977	52.07
638.308	52.04
638.639	52.46
638.969	52.18
639.3	52.39
639.63	52.86
639.961	52.37
640.291	52.41
640.622	52.74
640.952	53.04
641.282	52.95
641.612	52.96
641.943	53.37
642.273	52.98
642.603	52.93
642.933	53.68
643.263	52.76
643.592	52.48
643.922	53.19
644.252	53.45
644.582	52.91
644.911	52.72
645.241	53.17
645.571	53.45
645.9	52.87
646.23	53.3
646.559	53.29
646.888	52.97
647.218	53.09
647.547	53.53
647.876	53.74
648.205	53.27
648.534	53.45
648.863	53.66
649.192	53.45
649.521	53.63
649.85	53.52
650.179	53.54
650.508	53.93
650.837	53.38
651.165	53.8
651.494	53.94
651.822	54.04
652.151	53.71
652.479	54.42
652.808	54.25
653.136	53.86
653.465	54.11
653.793	54.44
654.121	54.1
654.449	53.7
654.777	53.84
655.105	54.09
655.433	54.57
655.761	54.51
656.089	54.28
656.417	54.92
656.745	54.25
657.073	54.11
657.4	53.82
657.728	54.93
658.056	54.52
658.383	53.63
658.711	54.71
659.038	53.98
659.365	54.05
659.693	54.82
660.02	54.42
660.347	54.76
660.674	55
661.001	54.75
661.329	54.45
661.656	54.41
661.982	54.81
662.309	54.43
662.636	54.91
662.963	54.72
663.29	54.81
663.616	54.43
663.943	54.7
664.27	54.82
664.596	54.88
664.923	55.22
665.249	55.56
665.576	54.7
665.902	55.3
666.228	55.58
666.554	55.18
666.881	54.66
667.207	56.55
667.533	55.33
667.859	55.01
668.185	55.51
668.511	55.38
668.837	54.55
669.162	56.42
669.488	55.33
669.814	55.69
670.139	55.5
670.465	55.27
670.791	55.61
671.116	55.83
671.442	55.04
671.767	55.29
672.092	55.74
672.418	55.78
672.743	56.27
673.068	55.83
673.393	56.29
673.718	57.06
674.043	55.92
674.368	56.03
674.693	56.02
675.018	56.25
675.343	56.32
675.667	55.81
675.992	56.46
676.317	56.59
676.641	55.67
676.966	56.07
677.29	56.44
677.615	56.72
677.939	56.48
678.264	57.09
678.588	56.63
678.912	55.82
679.236	55.93
679.56	56.41
679.885	57.55
680.209	56.68
680.532	56.24
680.856	56.6
681.18	56.55
681.504	56.41
681.828	56.46
682.152	56.43
682.475	57.02
682.799	56.88
683.122	56.78
683.446	56.36
683.769	57.79
684.093	56.65
684.416	57.31
684.739	56.64
685.062	56.77
685.386	57.8
685.709	57.51
686.032	57.07
686.355	57.39
686.678	57.36
687.001	57.03
687.324	57.79
687.646	56.95
687.969	56.87
688.292	57.3
688.614	57.97
688.937	57.26
689.26	57.72
689.582	57.19
689.904	57.5
690.227	57.17
690.549	57.05
690.871	58.15
691.194	57.85
691.516	58.35
691.838	57.72
692.16	58.12
692.482	57.3
692.804	57.09
693.126	57.83
693.448	57.34
693.769	57.86
694.091	58.53
694.413	58.14
694.735	57.69
695.056	58.06
695.378	58.1
695.699	57.25
696.021	57.99
696.342	57.83
696.663	58.82
696.984	58.6
697.306	58.35
697.627	57.64
697.948	57.73
698.269	58.41
698.59	59.24
698.911	57.89
699.232	58.1
699.553	58.95
699.873	58.88
700.194	58.63
700.515	58.71
700.835	58.74
701.156	58.48
701.477	58.14
701.797	57.91
702.117	58.27
702.438	58.99
702.758	58.61
703.078	59.69
703.398	58.81
703.719	58.84
704.039	58.29
704.359	58.9
704.679	59.5
704.999	58.71
705.319	59.05
705.638	59.23
705.958	57.73
706.278	58.97
706.597	59.77
706.917	59.11
707.237	58.78
707.556	58.42
707.876	60.27
708.195	59.54
708.514	58.66
708.834	59.29
709.153	59.36
709.472	59.02
709.791	60.38
710.11	59.31
710.429	60.2
710.748	59.47
711.067	60.85
711.386	59.31
711.705	59.49
712.023	59.6
712.342	60.08
712.661	60.24
712.979	60.63
713.298	60.49
713.616	59.16
713.935	60.32
714.253	59.37
714.572	59.59
714.89	58.74
715.208	59.15
715.526	59.49
715.844	59.98
716.162	59.73
716.48	59.67
716.798	59.22
717.116	60.03
717.434	60.07
717.752	59.33
718.069	58.63
718.387	60.5
718.705	60.63
719.022	60.62
719.34	60.45
719.657	60.38
719.975	60.46
720.292	61.22
720.609	61.31
720.927	61.2
721.244	59.58
721.561	60.91
721.878	60.26
722.195	61.22
722.512	61.06
722.829	61.35
723.146	60.6
723.463	60.31
723.779	61.79
724.096	61.03
724.413	60.45
724.729	59.27
725.046	59.75
725.362	61.33
725.679	59.71
725.995	60.19
726.311	60.7
726.628	61.49
726.944	60.61
727.26	60.89
727.576	59.91
727.892	61.43
728.208	59.69
728.524	58.14
728.84	61.09
729.156	62.64
729.472	61.12
729.787	61.61
730.103	60.97
730.419	60.43
730.734	59.47
731.05	60.92
731.365	60.91
731.681	61.83
731.996	62.28
732.311	61.64
732.626	62.1
732.942	61.48
733.257	60.2
733.572	62.32
733.887	60.73
734.202	62.55
734.517	59.65
734.832	60.89
735.146	62.8
735.461	62.43
735.776	60.45
736.091	61.24
736.405	62.24
736.72	62.5
737.034	61.31
737.349	61.6
737.663	60.81
737.977	60.93
738.292	61.83
738.606	60.37
738.92	62.51
739.234	60.7
739.548	61.11
739.862	60.92
740.176	60.87
740.49	61.37
740.804	61.88
741.117	63.09
741.431	62.04
741.745	62.64
742.058	63.38
742.372	63.53
742.685	60.74
742.999	61.47
743.312	63.87
743.626	61.69
743.939	62.9
744.252	62.4
744.565	62.12
744.878	62.07
745.191	63.12
745.505	62.55
745.817	63.16
746.13	61.02
746.443	61.95
746.756	61.61
747.069	63.02
747.381	61.81
747.694	62.23
748.007	62.09
748.319	63.23
748.632	62.46
748.944	61.95
749.256	63.12
749.569	63.2
749.881	61.4
750.193	62.49
750.505	63.18
750.817	63.48
751.129	63.61
751.441	63.62
751.753	64.06
752.065	61.04
752.377	63.6
752.689	63.76
753	63.19
753.312	61.5
753.624	63.72
753.935	62.31
754.247	62.06
754.558	61.8
754.869	65.12
755.181	62.22
755.492	65.37
755.803	63.8
756.114	64.47
756.425	65.77
756.736	63.5
757.047	64.08
757.358	63.1
757.669	63.82
757.98	63.05
758.291	63.62
758.601	63.03
758.912	61.85
759.223	63.25
759.533	63.19
759.844	65.22
760.154	63.59
760.464	64.64
760.775	62.52
761.085	64.05
761.395	63.64
761.705	62.58
762.016	64.47
762.326	65.93
762.636	62.74
762.945	63.51
763.255	63.71
763.565	62.28
763.875	62.56
764.185	63.7
764.494	63.18
764.804	64.19
765.113	63.15
765.423	63.23
765.732	63.18
766.042	63.91
766.351	65.51
766.66	64.59
766.97	64.81
767.279	63.78
767.588	65.08
767.897	64.4
768.206	64.5
768.515	64.85
768.824	62.57
769.133	64.19
769.441	64.03
769.75	62.96
770.059	66.35
770.367	64.28
770.676	65.18
770.984	63.71
771.293	65.44
771.601	60.89
771.91	66.46
772.218	65.12
772.526	66.39
772.834	62.17
773.142	65.97
773.45	64.6
773.758	67.51
774.066	65.93
774.374	62
774.682	65.25
774.99	64.32
775.298	62.32
775.605	65.36
775.913	64.74
776.22	63.71
776.528	63.65
776.835	65.25
777.143	65.66
777.45	62
777.757	66.33
778.065	66.48
778.372	63.65
778.679	65.21
778.986	64.81
779.293	67.36
779.6	64.4
779.907	66.37
780.214	64.71
780.52	68.58
780.827	63.34
781.134	66.66
781.44	67.56
781.747	61.96
782.053	62.05
782.36	63.1
782.666	64.35
782.973	63.74
783.279	64.55
783.585	67.25
783.891	66.35
784.197	66.81
784.503	64.98
784.809	63.59
785.115	63.15
785.421	68.83
785.727	64.47
786.033	62.93
786.339	67.17
786.644	60.92
786.95	62.39
787.255	65.92
787.561	67.32
787.866	67.99
788.172	63.57
788.477	64.4
788.782	66.26
789.088	66.6
789.393	64.85
789.698	68.03
790.003	68.23
790.308	67.19
790.613	62.31
790.918	67.15
791.223	63.82
791.527	63.61
791.832	67.51
792.137	66.32
792.441	65.26
792.746	64.56
793.05	61.27
793.355	64.51
793.659	65.66
793.963	67.71
794.268	67.05
794.572	64.57
794.876	68.73
795.18	65.76
795.484	65.72
795.788	61.64
796.092	60.05
796.396	71.24
796.7	63.33
797.004	65.91
797.307	67.01
797.611	70.71
797.915	65.06
798.218	68.47
798.522	61.51
798.825	66.02
799.128	61.41
799.432	63.59
799.735	62.96
800.038	71.7
800.341	64.18
800.644	70.32
800.947	66.73
801.25	66.32
801.553	68.09
801.856	64.49
802.159	65.27
802.462	69.89
802.764	69.03
803.067	64.74
803.37	59.1
803.672	61.73
803.975	62.04
804.277	66.63
804.579	65.1
804.882	62.63
805.184	64.88
805.486	65.91
805.788	69.71
806.09	64.45
806.392	71.33
806.694	65.2
806.996	66.38
807.298	71.08
807.6	70.25
807.902	71.55
808.203	66.67
808.505	62.93
808.807	69.54
809.108	66.23
809.409	66.23
809.711	58.6
810.012	61.12
810.313	65.2
810.615	68.48
810.916	73.02
811.217	68.96
811.518	69.44
811.819	68.83
812.12	68.14
812.421	69.63
812.722	69.69
813.023	69.67
813.323	62.08
813.624	68.81
813.925	69.23
814.225	64.95
814.526	63.9
814.826	68.13
815.126	75.34
815.427	68.61
815.727	60.51
816.027	64.85
816.327	69.63
816.627	63.36
816.927	67.86
817.227	60.95
817.527	67.38
817.827	73.77
818.127	67.02
818.427	57.59
818.727	60.81
819.026	66.65
819.326	69
819.625	65.3
819.925	67.47
820.224	76.39
820.524	71.92
820.823	70.24
821.122	69.31
821.421	65.11
821.72	73.01
822.019	65.8
822.318	68.99
822.617	67.23
822.916	66.75
823.215	70.2
823.514	69.05
823.813	64.86
824.111	67.87
824.41	65.34
824.709	68.09
825.007	70.3
825.306	68.58
825.604	69.2
825.902	66.83
826.201	69.92
826.499	69.64
826.797	69.27
827.095	68.16
827.393	69.94
827.691	67.44
827.989	68.45
828.287	70.62
828.585	69.27
828.882	68.04
829.18	68.44
829.478	70.3
829.775	68.52
830.073	68.75
830.37	71.82
830.668	71.26
830.965	69.86
831.263	68.45
831.56	68.17
831.857	66.93
832.154	67.09
832.451	68.59
832.748	65.92
833.045	74.71
833.342	69.83
833.639	64.94
833.936	69.35
834.232	65.59
834.529	64.78
834.826	69.41
835.122	70.63
835.419	68.22
835.715	70.86
836.012	73.52
836.308	69.03
836.604	69.41
836.901	68.28
837.197	67.52
837.493	66.68
837.789	73.22
838.085	72.69
838.381	71.18
838.677	69.83
838.972	70.86
839.268	67.29
839.564	69.61
839.86	73.98
840.155	64.39
840.451	72.27
840.746	72.16
841.042	66.5
841.337	71.01
841.632	68.98
841.928	63.72
842.223	64.56
842.518	59.19
842.813	75.96
843.108	66.12
843.403	74.83
843.698	66.2
843.993	64.36
844.287	64.31
844.582	80.12
844.877	69.6
845.171	65.46
845.466	60.07
845.761	72.67
846.055	63.79
846.349	62.67
846.644	87.22
846.938	65.95
847.232	70.1
847.526	78.01
847.82	63.69
848.114	79.79
848.408	72.75
848.702	60.01
848.996	70.91
849.29	71.78
849.584	59.2
849.877	61.66
850.171	65.9
850.465	74.65
850.758	56.42
851.052	66.53
851.345	71.14
851.638	61.92
851.932	77.7
852.225	63.22
852.518	62.26
852.811	62.49
853.104	59.89
853.397	59.8
853.69	63.61
853.983	67.77
854.276	70.36
854.569	94.9
854.861	68.67
855.154	95.62
855.447	71.79
855.739	67.77
856.032	41.5
856.324	62.38
856.616	52.36
856.909	64.58
857.201	63.68
857.493	59.4
857.785	54.32
858.077	63.41
858.369	74.3
858.661	86.9
858.953	77.44
859.245	44.89
859.537	91.35
859.829	58.46
860.12	82.13
860.412	69.18
860.703	66.02
860.995	95.95
861.286	67.95
861.578	68.97
861.869	57.01
862.16	65.93
862.452	81.48
862.743	65.66
863.034	89.63
863.325	70.69
863.616	67.32
863.907	70.43
864.198	53.59
864.488	90.04
864.779	48.72
865.07	82.87
865.36	57.79
865.651	35.91
865.941	59.93
866.232	70.54
866.522	73.81
866.813	70.88
867.103	74.8
867.393	83.27
867.683	73.16
867.973	96.02
868.263	66.03
868.553	76
868.843	91.59
869.133	88.47
869.423	68.12
869.713	59.09
870.002	53.5
870.292	56.24
870.582	68.63
870.871	69.01
871.161	54.29
871.45	75.53
871.739	55.75
872.029	41.24
872.318	70.76
872.607	68.21
872.896	70.82
873.185	59.37
873.474	78.59
873.763	75.09
874.052	52.23
874.341	76.37
874.63	65.26
874.918	69.61
875.207	52.12
875.496	89.38
875.784	99.85
876.073	42.77
876.361	73.63
876.649	81.81
876.938	72.43
877.226	89.98
877.514	96.99
877.802	84.12
878.09	93.98
878.378	47.98
878.666	76.65
878.954	74.44
879.242	84.08
879.53	81.06
879.817	60.37
880.105	94.92
880.392	68.52
880.68	80.61
880.967	94.83
881.255	62.11
881.542	82.97
881.83	66.65
882.117	70.94
882.404	72.44
882.691	75.89
882.978	81.09
883.265	69.16
883.552	65.59
883.839	47.12
884.126	70.6
884.413	69.35
884.699	81.47
884.986	74.18
885.273	75.81
885.559	75.81
885.846	75.81
