Data from 0379_chest_Reflection__4__124.txt Node

Date: Mon Dec 11 19:02:54 CST 2023
User: ToomeyLab
Spectrometer: FLMS14357
Trigger mode: 0
Integration Time (sec): 1.000000E-2
Scans to average: 100
Electric dark correction enabled: true
Nonlinearity correction enabled: false
Boxcar width: 0
XAxis mode: Wavelengths
Number of Pixels in Spectrum: 2048
>>>>>Begin Spectral Data<<<<<
189.047	51.05
189.435	51.05
189.823	51.05
190.211	27.55
190.599	75.28
190.987	70.36
191.375	84.07
191.763	60.93
192.151	31.78
192.538	26.17
192.926	-263.93
193.314	354.69
193.702	57.48
194.089	-49.3
194.477	11.09
194.864	500.19
195.252	-87.73
195.639	-338.76
196.027	325.46
196.414	72.71
196.801	31.24
197.189	-31.1
197.576	132.68
197.963	-47.24
198.351	-9.24
198.738	26.8
199.125	15.45
199.512	7.55
199.899	-4.47
200.286	41.93
200.673	-125.91
201.06	37.99
201.447	103.6
201.833	-13.41
202.22	9.57
202.607	34.91
202.994	-61.16
203.38	-24.51
203.767	16.08
204.154	41.62
204.54	-10.86
204.927	9.51
205.313	-76.46
205.699	-10.26
206.086	0.49
206.472	13.85
206.858	13.73
207.245	4.39
207.631	-32.28
208.017	33.2
208.403	67.57
208.789	3.63
209.175	18.62
209.561	13.38
209.947	5.68
210.333	42.58
210.719	9.14
211.105	30.4
211.491	7.37
211.876	5.83
212.262	-7.6
212.648	8.27
213.034	3.54
213.419	-12.2
213.805	-31.13
214.19	7.19
214.576	6.44
214.961	32.77
215.346	24.68
215.732	-20.67
216.117	-11.92
216.502	-7.91
216.888	21.96
217.273	53.36
217.658	17.92
218.043	5.41
218.428	17.14
218.813	7.38
219.198	-21.34
219.583	-6.75
219.968	6.13
220.353	-34.62
220.738	21.15
221.122	17.32
221.507	23.23
221.892	12.38
222.276	2.78
222.661	-11.9
223.046	-2.42
223.43	16.43
223.815	-1.08
224.199	5.16
224.583	-1.96
224.968	6.64
225.352	7.72
225.736	9.61
226.121	6.23
226.505	0.76
226.889	2.93
227.273	4.37
227.657	16.85
228.041	4.77
228.425	3.23
228.809	-0.27
229.193	2.21
229.577	4.91
229.961	4.18
230.344	3.66
230.728	3.48
231.112	3.6
231.495	3.28
231.879	4.03
232.263	2.87
232.646	1.58
233.03	2.28
233.413	2.43
233.797	4.45
234.18	4.41
234.563	2.82
234.946	4.57
235.33	4.83
235.713	4.8
236.096	2.57
236.479	3.58
236.862	2.78
237.245	2.87
237.628	3.82
238.011	3.5
238.394	1.78
238.777	3.08
239.16	1.01
239.543	1.8
239.925	1.73
240.308	3.29
240.691	2.3
241.073	2.29
241.456	4.08
241.838	5.58
242.221	3.19
242.603	2.57
242.986	3.16
243.368	1.86
243.75	2.9
244.133	3.34
244.515	3
244.897	3.17
245.279	2.68
245.661	3.01
246.043	2.86
246.425	1.98
246.807	3.42
247.189	2.02
247.571	2.95
247.953	2.94
248.335	3.26
248.717	3.15
249.098	2.8
249.48	2.96
249.862	3.07
250.243	3.1
250.625	2.89
251.006	2.46
251.388	2.77
251.769	3.3
252.151	4.75
252.532	3.18
252.913	4.03
253.295	4.2
253.676	3
254.057	3.01
254.438	2.92
254.819	2.66
255.2	2.52
255.581	1.54
255.962	2.55
256.343	1.77
256.724	2.74
257.105	3.21
257.486	2.1
257.867	3.63
258.247	2.84
258.628	3.1
259.009	3.84
259.389	3.21
259.77	2.45
260.15	2.12
260.531	2.5
260.911	2.11
261.292	2.41
261.672	2.72
262.052	2.46
262.432	2.77
262.813	2.93
263.193	2.7
263.573	3.11
263.953	2.95
264.333	2.23
264.713	2.81
265.093	2.42
265.473	3.16
265.853	2.45
266.233	2.75
266.612	2.28
266.992	2.39
267.372	3.2
267.752	2.63
268.131	2.73
268.511	2.36
268.89	2.78
269.27	3.04
269.649	2.57
270.029	2.84
270.408	2.79
270.787	2.47
271.167	2.09
271.546	2.46
271.925	2.81
272.304	2.38
272.683	2.71
273.062	2.19
273.441	2.75
273.82	2.32
274.199	2.36
274.578	2.39
274.957	2.51
275.336	2.74
275.715	2.93
276.093	3.6
276.472	3.05
276.851	3.19
277.229	2.61
277.608	2.39
277.986	2.89
278.365	1.72
278.743	2.88
279.122	2.65
279.5	3.41
279.878	2.52
280.257	2.67
280.635	2.57
281.013	2.1
281.391	2.42
281.769	2.01
282.147	2.33
282.525	2.21
282.903	3.02
283.281	2.66
283.659	2.35
284.037	2.42
284.415	2.66
284.792	2.81
285.17	2.83
285.548	2.87
285.925	2.3
286.303	2.84
286.68	2.15
287.058	2.63
287.435	2.58
287.813	2.8
288.19	2.57
288.567	2.5
288.945	2.34
289.322	2.37
289.699	2.13
290.076	2.4
290.453	2.61
290.83	2.98
291.207	2.91
291.584	2.74
291.961	2.7
292.338	2.74
292.715	2.98
293.092	2.63
293.469	2.38
293.845	2.58
294.222	2.9
294.599	2.01
294.975	2.52
295.352	1.89
295.728	2.34
296.105	2.6
296.481	2.65
296.858	2.69
297.234	2.74
297.61	3.09
297.986	2.82
298.363	2.69
298.739	2.87
299.115	2.38
299.491	2.82
299.867	2.85
300.243	2.95
300.619	2.62
300.995	2.27
301.371	2.63
301.746	2.41
302.122	2.78
302.498	3.38
302.874	3
303.249	3.01
303.625	2.83
304	2.85
304.376	2.67
304.751	2.67
305.127	2.92
305.502	3.02
305.878	2.82
306.253	2.86
306.628	2.97
307.003	2.45
307.378	3.15
307.754	2.68
308.129	2.75
308.504	2.01
308.879	2.64
309.254	2.85
309.629	3.02
310.003	3.17
310.378	2.87
310.753	3.19
311.128	2.67
311.502	2.11
311.877	2.91
312.252	2.93
312.626	2.9
313.001	3.21
313.375	2.57
313.75	2.71
314.124	2.73
314.498	2.68
314.873	2.47
315.247	2.9
315.621	3.6
315.995	3.42
316.369	3.02
316.743	3.46
317.117	3
317.491	3.03
317.865	3.12
318.239	3.33
318.613	3.23
318.987	3.34
319.361	3.43
319.734	2.79
320.108	2.93
320.482	2.51
320.855	2.87
321.229	2.41
321.602	2.78
321.976	3.29
322.349	3.06
322.723	2.67
323.096	3.08
323.469	3.17
323.843	3.6
324.216	3.47
324.589	3.23
324.962	2.05
325.335	2.87
325.708	3.54
326.081	3.43
326.454	3.37
326.827	2.68
327.2	2.42
327.573	2.44
327.945	3.64
328.318	3.07
328.691	2.7
329.063	2.97
329.436	3.12
329.809	2.4
330.181	3.3
330.553	2.94
330.926	2.85
331.298	3.36
331.671	3.01
332.043	3.32
332.415	3.55
332.787	2.96
333.159	3.21
333.532	2.88
333.904	3.19
334.276	2.91
334.648	3.56
335.02	2.8
335.391	2.99
335.763	2.99
336.135	3.61
336.507	3.29
336.879	3.42
337.25	2.82
337.622	2.71
337.993	3.51
338.365	2.43
338.736	3.27
339.108	3.55
339.479	2.96
339.851	3.19
340.222	2.91
340.593	2.44
340.964	2.96
341.336	3.16
341.707	2.77
342.078	3.22
342.449	3.02
342.82	2.94
343.191	3.23
343.562	2.73
343.933	3.38
344.303	3.44
344.674	3.36
345.045	3.56
345.416	2.64
345.786	3.28
346.157	3.2
346.527	3.04
346.898	3.33
347.268	2.84
347.639	3.32
348.009	3.38
348.38	2.81
348.75	3.05
349.12	3.25
349.49	2.73
349.861	3.01
350.231	2.93
350.601	3.68
350.971	2.93
351.341	2.61
351.711	3.25
352.081	3
352.45	3.12
352.82	2.93
353.19	3.02
353.56	2.83
353.929	3.57
354.299	3.31
354.669	3.28
355.038	3.17
355.408	3.15
355.777	3.42
356.147	3.44
356.516	3.12
356.885	2.91
357.254	3.41
357.624	2.98
357.993	2.95
358.362	3.23
358.731	3.21
359.1	3.17
359.469	2.81
359.838	3.16
360.207	2.98
360.576	3.16
360.945	3.34
361.314	3.93
361.682	3
362.051	3.14
362.42	2.83
362.788	2.79
363.157	3.13
363.525	2.75
363.894	2.92
364.262	3.11
364.631	3.19
364.999	3.1
365.367	3.16
365.735	3.16
366.104	2.94
366.472	3.32
366.84	3.09
367.208	3
367.576	3.34
367.944	3.11
368.312	3.15
368.68	3.05
369.048	2.92
369.416	3.11
369.783	2.62
370.151	3.3
370.519	3.65
370.886	2.9
371.254	3.9
371.621	3.56
371.989	3.53
372.356	3.58
372.724	3.56
373.091	3.68
373.458	3.04
373.826	3.32
374.193	3.14
374.56	3.45
374.927	3.7
375.294	3.5
375.661	3.27
376.028	3.23
376.395	3.22
376.762	3.46
377.129	3.28
377.496	3.22
377.863	3.12
378.229	3.31
378.596	3.17
378.963	3.21
379.329	3.16
379.696	3.31
380.062	3.21
380.429	3.22
380.795	3.56
381.161	3.13
381.528	3.48
381.894	3.17
382.26	3.43
382.626	3.1
382.993	3.12
383.359	3.4
383.725	3.08
384.091	3.17
384.457	3.06
384.823	3.6
385.188	3.52
385.554	2.96
385.92	2.93
386.286	3.39
386.651	3.27
387.017	3.2
387.383	3.31
387.748	3.16
388.114	3.17
388.479	3.31
388.845	3.12
389.21	3.32
389.575	3.36
389.94	3.54
390.306	3.31
390.671	3.42
391.036	3.37
391.401	3.63
391.766	3.4
392.131	3.49
392.496	3.49
392.861	3.3
393.226	3.19
393.591	3.45
393.956	3.2
394.32	3.31
394.685	3.45
395.05	3.6
395.414	3.54
395.779	3.16
396.143	3.46
396.508	3.26
396.872	3.35
397.236	3.51
397.601	3.18
397.965	3.59
398.329	3.37
398.694	3.26
399.058	3.08
399.422	3.16
399.786	3.15
400.15	3.31
400.514	3.29
400.878	3.44
401.242	3.43
401.605	3.63
401.969	3.29
402.333	3.15
402.697	3.31
403.06	3.23
403.424	3.43
403.787	3.66
404.151	3.32
404.514	3.29
404.878	3.64
405.241	3.25
405.604	3.28
405.968	3.26
406.331	3.11
406.694	3.36
407.057	3.33
407.42	3.57
407.783	3.33
408.146	3.52
408.509	3.3
408.872	3.39
409.235	3.3
409.598	3.43
409.961	3.47
410.323	3.44
410.686	3.59
411.049	3.66
411.411	3.55
411.774	3.57
412.136	3.29
412.499	3.61
412.861	3.19
413.223	3.51
413.586	3.73
413.948	3.45
414.31	3.21
414.672	3.22
415.035	3.32
415.397	3.48
415.759	3.73
416.121	3.59
416.483	3.59
416.845	3.37
417.206	3.33
417.568	3.52
417.93	3.52
418.292	3.34
418.653	3.36
419.015	3.37
419.377	3.44
419.738	3.35
420.1	3.44
420.461	3.38
420.822	3.32
421.184	3.45
421.545	3.33
421.906	3.46
422.267	3.46
422.629	3.25
422.99	3.29
423.351	3.27
423.712	3.34
424.073	3.36
424.434	3.35
424.795	3.49
425.155	3.34
425.516	3.33
425.877	3.28
426.238	3.32
426.598	3.33
426.959	3.31
427.32	3.39
427.68	3.46
428.041	3.27
428.401	3.39
428.761	3.53
429.122	3.39
429.482	3.5
429.842	3.47
430.202	3.48
430.563	3.52
430.923	3.47
431.283	3.41
431.643	3.44
432.003	3.63
432.363	3.65
432.722	3.51
433.082	3.39
433.442	3.44
433.802	3.37
434.161	3.71
434.521	3.45
434.881	3.48
435.24	3.4
435.6	3.45
435.959	3.48
436.319	3.42
436.678	3.38
437.037	3.56
437.396	3.61
437.756	3.46
438.115	3.59
438.474	3.7
438.833	3.34
439.192	3.45
439.551	3.41
439.91	3.5
440.269	3.62
440.628	3.44
440.987	3.6
441.345	3.67
441.704	3.48
442.063	3.52
442.421	3.46
442.78	3.44
443.138	3.49
443.497	3.5
443.855	3.33
444.214	3.63
444.572	3.52
444.93	3.58
445.288	3.6
445.647	3.58
446.005	3.45
446.363	3.45
446.721	3.51
447.079	3.4
447.437	3.43
447.795	3.48
448.153	3.66
448.51	3.53
448.868	3.42
449.226	3.37
449.584	3.53
449.941	3.55
450.299	3.43
450.656	3.51
451.014	3.65
451.371	3.43
451.729	3.69
452.086	3.53
452.443	3.73
452.801	3.78
453.158	3.59
453.515	3.47
453.872	3.63
454.229	3.66
454.586	3.57
454.943	3.56
455.3	3.67
455.657	3.64
456.014	3.61
456.371	3.81
456.727	3.69
457.084	3.62
457.441	3.63
457.797	3.78
458.154	3.56
458.51	3.81
458.867	3.5
459.223	3.62
459.58	3.63
459.936	3.76
460.292	3.67
460.648	3.7
461.005	3.54
461.361	3.7
461.717	3.49
462.073	3.5
462.429	3.65
462.785	3.54
463.141	3.58
463.496	3.71
463.852	3.6
464.208	3.6
464.564	3.72
464.919	3.73
465.275	3.62
465.631	3.55
465.986	3.76
466.342	3.8
466.697	3.7
467.052	3.6
467.408	3.97
467.763	3.86
468.118	3.65
468.473	3.62
468.829	3.78
469.184	3.84
469.539	3.72
469.894	3.58
470.249	3.8
470.603	3.72
470.958	3.86
471.313	3.82
471.668	3.91
472.023	3.74
472.377	3.75
472.732	3.72
473.086	3.92
473.441	3.86
473.795	3.87
474.15	3.83
474.504	3.76
474.859	3.83
475.213	3.88
475.567	3.89
475.921	3.89
476.275	3.78
476.63	3.71
476.984	3.81
477.338	3.77
477.692	3.69
478.045	3.84
478.399	3.68
478.753	3.63
479.107	3.69
479.461	3.77
479.814	3.78
480.168	3.88
480.521	3.99
480.875	3.79
481.228	3.76
481.582	4.06
481.935	3.73
482.289	3.73
482.642	3.8
482.995	3.91
483.348	3.79
483.701	3.67
484.055	3.79
484.408	3.79
484.761	3.74
485.114	3.66
485.466	3.63
485.819	3.53
486.172	3.54
486.525	3.61
486.878	3.64
487.23	3.7
487.583	3.68
487.936	3.68
488.288	3.81
488.641	3.66
488.993	3.59
489.345	3.69
489.698	3.67
490.05	3.68
490.402	3.64
490.754	3.72
491.107	3.79
491.459	3.86
491.811	3.81
492.163	3.89
492.515	3.77
492.866	3.81
493.218	3.72
493.57	3.68
493.922	3.68
494.274	3.78
494.625	3.86
494.977	3.87
495.328	3.91
495.68	3.98
496.031	3.96
496.383	3.83
496.734	4.01
497.086	4.12
497.437	4.06
497.788	3.94
498.139	3.95
498.49	3.92
498.842	3.99
499.193	3.93
499.544	3.82
499.894	4.04
500.245	3.91
500.596	3.99
500.947	3.96
501.298	4.08
501.648	3.85
501.999	4.03
502.35	4.05
502.7	4.02
503.051	3.97
503.401	4
503.752	4.11
504.102	4.1
504.452	4.01
504.803	4.19
505.153	4.11
505.503	4.16
505.853	4.15
506.203	4.01
506.553	4.08
506.903	4.03
507.253	4.22
507.603	4.03
507.953	4.05
508.303	4.07
508.652	4.09
509.002	4.03
509.352	4.3
509.701	4.17
510.051	4.06
510.4	4.14
510.75	4.1
511.099	4.14
511.449	4.09
511.798	4.16
512.147	4.3
512.496	4.11
512.846	4.06
513.195	4.18
513.544	4.25
513.893	4.12
514.242	4.25
514.591	4.17
514.939	4.15
515.288	4.32
515.637	4.25
515.986	4.11
516.334	4.35
516.683	4.39
517.032	4.47
517.38	4.29
517.729	4.2
518.077	4.31
518.426	4.37
518.774	4.23
519.122	4.33
519.47	4.31
519.819	4.24
520.167	4.19
520.515	4.15
520.863	4.16
521.211	4.35
521.559	4.28
521.907	4.28
522.255	4.33
522.602	4.31
522.95	4.47
523.298	4.4
523.645	4.58
523.993	4.4
524.341	4.41
524.688	4.35
525.036	4.43
525.383	4.46
525.73	4.58
526.078	4.58
526.425	4.45
526.772	4.45
527.119	4.44
527.466	4.41
527.814	4.44
528.161	4.32
528.508	4.5
528.854	4.4
529.201	4.42
529.548	4.46
529.895	4.34
530.242	4.33
530.588	4.28
530.935	4.33
531.282	4.35
531.628	4.37
531.975	4.38
532.321	4.47
532.667	4.49
533.014	4.42
533.36	4.54
533.706	4.55
534.052	4.58
534.399	4.58
534.745	4.59
535.091	4.51
535.437	4.49
535.783	4.53
536.129	4.6
536.474	4.69
536.82	4.67
537.166	4.72
537.512	4.61
537.857	4.7
538.203	4.77
538.549	4.67
538.894	4.76
539.239	4.78
539.585	4.7
539.93	4.81
540.276	4.81
540.621	4.78
540.966	4.88
541.311	4.81
541.656	4.99
542.001	4.99
542.346	4.94
542.691	4.88
543.036	4.79
543.381	4.66
543.726	4.77
544.071	4.78
544.415	4.82
544.76	4.83
545.105	4.84
545.449	4.86
545.794	4.9
546.138	5
546.483	5.02
546.827	5.17
547.171	5.09
547.516	5.05
547.86	5.08
548.204	5.09
548.548	5.11
548.892	5.09
549.236	5.01
549.58	5.24
549.924	5.14
550.268	5.17
550.612	5.15
550.956	5.18
551.3	5.2
551.643	5.28
551.987	5.34
552.33	5.39
552.674	5.5
553.017	5.3
553.361	5.27
553.704	5.12
554.048	5.39
554.391	5.35
554.734	5.41
555.077	5.54
555.42	5.47
555.764	5.4
556.107	5.59
556.45	5.73
556.793	5.4
557.135	5.55
557.478	5.57
557.821	5.57
558.164	5.72
558.507	5.69
558.849	5.57
559.192	5.53
559.534	5.6
559.877	5.66
560.219	5.69
560.562	5.89
560.904	5.83
561.246	5.67
561.589	5.63
561.931	5.94
562.273	5.76
562.615	5.71
562.957	5.77
563.299	5.86
563.641	5.85
563.983	6.06
564.325	5.98
564.667	5.9
565.008	5.95
565.35	6.01
565.692	6.11
566.033	6.09
566.375	5.95
566.716	6.07
567.058	5.99
567.399	6.04
567.741	5.98
568.082	6.1
568.423	6.05
568.764	6.12
569.105	6.14
569.447	6.04
569.788	6.13
570.129	6.38
570.47	6.17
570.811	6.09
571.151	6.35
571.492	6.36
571.833	6.33
572.174	6.65
572.514	6.49
572.855	6.27
573.195	6.4
573.536	6.42
573.876	6.3
574.217	6.45
574.557	6.45
574.898	6.49
575.238	6.7
575.578	6.69
575.918	6.65
576.258	6.68
576.598	6.58
576.938	6.66
577.278	6.59
577.618	6.61
577.958	6.62
578.298	6.78
578.638	6.86
578.977	6.8
579.317	6.79
579.657	6.6
579.996	6.57
580.336	6.8
580.675	7.12
581.014	6.99
581.354	6.84
581.693	7.24
582.032	6.85
582.372	7.18
582.711	7.04
583.05	6.93
583.389	7.11
583.728	7.42
584.067	7.25
584.406	6.94
584.745	7.2
585.083	7.12
585.422	7.45
585.761	7.35
586.1	7.52
586.438	7.26
586.777	7.56
587.115	7.28
587.454	7.26
587.792	7.26
588.13	7.59
588.469	7.37
588.807	7.67
589.145	7.73
589.483	7.55
589.821	7.28
590.159	7.44
590.497	7.64
590.835	7.73
591.173	7.61
591.511	7.71
591.849	7.79
592.187	7.68
592.524	7.79
592.862	7.71
593.2	7.78
593.537	8.07
593.875	8.06
594.212	7.89
594.55	7.85
594.887	8.21
595.224	8.2
595.561	8.01
595.899	7.88
596.236	8.12
596.573	8.1
596.91	7.93
597.247	8.04
597.584	7.96
597.921	8.06
598.258	8.21
598.594	8.04
598.931	8.11
599.268	8.18
599.604	8.36
599.941	8.5
600.277	8.24
600.614	8.59
600.95	8.4
601.287	8.43
601.623	8.42
601.959	8.71
602.296	8.69
602.632	8.7
602.968	8.56
603.304	8.79
603.64	8.65
603.976	9.02
604.312	8.74
604.648	8.89
604.984	9.08
605.319	8.77
605.655	8.75
605.991	8.7
606.326	8.79
606.662	8.78
606.998	8.76
607.333	8.86
607.668	9.08
608.004	8.76
608.339	9.13
608.674	9.4
609.01	9.27
609.345	8.98
609.68	9.23
610.015	9.45
610.35	9.07
610.685	9.37
611.02	9.13
611.355	9.27
611.689	9.29
612.024	9.22
612.359	9.43
612.694	9.47
613.028	9.43
613.363	9.61
613.697	9.35
614.032	9.61
614.366	9.8
614.7	9.6
615.035	9.71
615.369	9.85
615.703	9.52
616.037	9.74
616.371	10.25
616.705	9.72
617.039	10.04
617.373	10
617.707	9.84
618.041	10.18
618.375	10.08
618.709	10.21
619.042	9.83
619.376	10.53
619.71	10
620.043	10.07
620.377	10.08
620.71	10.4
621.043	10.3
621.377	9.85
621.71	10.53
622.043	9.93
622.376	10.12
622.709	10.58
623.043	10.26
623.376	10.59
623.709	10.93
624.041	10.49
624.374	10.92
624.707	10.58
625.04	11.41
625.373	10.78
625.705	10.86
626.038	10.74
626.37	11.12
626.703	11.01
627.035	10.82
627.368	11.14
627.7	10.73
628.032	10.97
628.365	11.19
628.697	10.78
629.029	11.03
629.361	11.03
629.693	11.27
630.025	10.99
630.357	11.1
630.689	11.11
631.021	10.99
631.353	10.99
631.684	11.21
632.016	11.25
632.348	11.58
632.679	11.79
633.011	11.92
633.342	11.7
633.674	11.46
634.005	11.57
634.336	11.96
634.668	11.69
634.999	12.11
635.33	11.36
635.661	11.72
635.992	12.01
636.323	11.89
636.654	12.07
636.985	12.03
637.316	11.9
637.647	12.32
637.977	12.22
638.308	12.25
638.639	11.78
638.969	11.98
639.3	12.26
639.63	12.03
639.961	12.11
640.291	12.25
640.622	12.15
640.952	12.69
641.282	12.24
641.612	12.9
641.943	12.57
642.273	12.31
642.603	13.16
642.933	12.83
643.263	12.66
643.592	12.52
643.922	12.6
644.252	12.62
644.582	13.32
644.911	12.93
645.241	12.56
645.571	13.14
645.9	12.79
646.23	12.85
646.559	12.53
646.888	13
647.218	13.12
647.547	12.82
647.876	13.16
648.205	13.53
648.534	13.32
648.863	13.21
649.192	12.96
649.521	13.56
649.85	13.24
650.179	13.04
650.508	13.27
650.837	13.38
651.165	13.93
651.494	13.53
651.822	13.35
652.151	14.19
652.479	13.88
652.808	14.02
653.136	13.72
653.465	13.86
653.793	13.45
654.121	13.64
654.449	14.2
654.777	14.46
655.105	13.87
655.433	14.37
655.761	14.36
656.089	14.23
656.417	14.17
656.745	14.68
657.073	14.22
657.4	14.52
657.728	13.86
658.056	14.98
658.383	14.5
658.711	14.83
659.038	14.62
659.365	14.68
659.693	14.54
660.02	14.57
660.347	14.81
660.674	14.63
661.001	14.75
661.329	15.3
661.656	14.77
661.982	14.64
662.309	14.84
662.636	15.06
662.963	15.05
663.29	14.84
663.616	14.37
663.943	14.73
664.27	15.38
664.596	14.93
664.923	15.25
665.249	15.24
665.576	15.67
665.902	14.98
666.228	15.72
666.554	16.24
666.881	15.79
667.207	15.77
667.533	15.49
667.859	15.45
668.185	16.22
668.511	15.76
668.837	15.89
669.162	15.81
669.488	15.89
669.814	15.62
670.139	15.57
670.465	16.04
670.791	16.15
671.116	16.62
671.442	16.1
671.767	16.29
672.092	15.81
672.418	16.26
672.743	15.7
673.068	16.06
673.393	15.95
673.718	15.92
674.043	17.02
674.368	16.49
674.693	16.27
675.018	17.05
675.343	16.15
675.667	16.47
675.992	16.82
676.317	16.31
676.641	16.9
676.966	16.97
677.29	16.43
677.615	17.57
677.939	16.77
678.264	16.24
678.588	17.35
678.912	16.62
679.236	16.8
679.56	17.2
679.885	17.08
680.209	16.54
680.532	18.17
680.856	17.48
681.18	17.54
681.504	16.91
681.828	17.12
682.152	16.65
682.475	17.37
682.799	17.69
683.122	17.29
683.446	16.93
683.769	17.24
684.093	17.44
684.416	17.09
684.739	17.63
685.062	17.77
685.386	17.55
685.709	17.82
686.032	17.65
686.355	17.14
686.678	17.64
687.001	18.46
687.324	17.08
687.646	17.4
687.969	18.12
688.292	18.92
688.614	18.04
688.937	18.79
689.26	18.56
689.582	18.3
689.904	18.78
690.227	19.11
690.549	18.28
690.871	18.53
691.194	18.66
691.516	17.94
691.838	18.68
692.16	19.18
692.482	18.6
692.804	18.54
693.126	19
693.448	18.12
693.769	19.34
694.091	19.15
694.413	19.43
694.735	19.69
695.056	18.93
695.378	19.55
695.699	18.18
696.021	19.25
696.342	19.69
696.663	19.94
696.984	19.3
697.306	19.55
697.627	19.91
697.948	19.22
698.269	19.25
698.59	19.91
698.911	19.91
699.232	20.42
699.553	19.93
699.873	20.03
700.194	19.75
700.515	20.24
700.835	19.61
701.156	19.56
701.477	19.51
701.797	20
702.117	19.76
702.438	19.64
702.758	19.58
703.078	19.89
703.398	20.47
703.719	20.8
704.039	20.78
704.359	20.35
704.679	21.03
704.999	20.03
705.319	21.19
705.638	19.72
705.958	20.74
706.278	21.02
706.597	21.55
706.917	20.85
707.237	21.11
707.556	20.53
707.876	20.55
708.195	21.18
708.514	21.78
708.834	21.25
709.153	20.34
709.472	20.76
709.791	22.09
710.11	22.37
710.429	20.81
710.748	20.33
711.067	20.91
711.386	22.04
711.705	20.91
712.023	21.65
712.342	21.67
712.661	20.53
712.979	21.28
713.298	20.67
713.616	22.08
713.935	21.88
714.253	21.64
714.572	21.95
714.89	22.3
715.208	21.41
715.526	21.12
715.844	21.99
716.162	22.33
716.48	21.49
716.798	22.15
717.116	22.8
717.434	22.26
717.752	21.79
718.069	21.89
718.387	21.5
718.705	22.01
719.022	23.39
719.34	22.75
719.657	22.04
719.975	21.61
720.292	22.4
720.609	23.5
720.927	23.07
721.244	23.75
721.561	21.32
721.878	22.78
722.195	22.42
722.512	22.04
722.829	22.84
723.146	23.77
723.463	23.78
723.779	23.44
724.096	22.63
724.413	22.27
724.729	24.21
725.046	23.06
725.362	23.55
725.679	24.85
725.995	23.59
726.311	22.08
726.628	25.53
726.944	24.03
727.26	22.9
727.576	22.48
727.892	23.32
728.208	23.52
728.524	23.11
728.84	24.49
729.156	23.39
729.472	23.96
729.787	22.63
730.103	22.98
730.419	23.62
730.734	23.51
731.05	24.48
731.365	25.14
731.681	24.65
731.996	23.12
732.311	24.67
732.626	24.28
732.942	24.03
733.257	23.1
733.572	25.09
733.887	24.99
734.202	25.17
734.517	25
734.832	24.22
735.146	23.06
735.461	26.46
735.776	24.9
736.091	24.42
736.405	23.53
736.72	24.86
737.034	24.83
737.349	25.19
737.663	23.61
737.977	24.08
738.292	24.75
738.606	24.35
738.92	25.16
739.234	24.48
739.548	24.32
739.862	27.72
740.176	24.48
740.49	24.85
740.804	26.92
741.117	25.23
741.431	24.91
741.745	24.91
742.058	25.48
742.372	25.87
742.685	25.6
742.999	26.35
743.312	25.24
743.626	25
743.939	25.34
744.252	26.73
744.565	26.35
744.878	26.43
745.191	24.27
745.505	27.51
745.817	26.72
746.13	27.12
746.443	25.26
746.756	26.52
747.069	27.24
747.381	28.06
747.694	25.68
748.007	27.08
748.319	26.65
748.632	25.2
748.944	26.95
749.256	28.76
749.569	26.52
749.881	26.4
750.193	27.14
750.505	26.81
750.817	26.27
751.129	29.07
751.441	29.31
751.753	25.55
752.065	25.84
752.377	28.8
752.689	27.65
753	26.02
753.312	27.84
753.624	27.73
753.935	27.86
754.247	27.23
754.558	27.96
754.869	27.34
755.181	26.28
755.492	27.86
755.803	25.79
756.114	27.83
756.425	29.24
756.736	27.86
757.047	29.27
757.358	26.53
757.669	31.27
757.98	28.45
758.291	28.72
758.601	28.79
758.912	28.02
759.223	29.32
759.533	26.62
759.844	28.83
760.154	29.59
760.464	28.44
760.775	29.79
761.085	28.04
761.395	29.86
761.705	29.61
762.016	28.17
762.326	29.31
762.636	29.28
762.945	28.31
763.255	28.03
763.565	30.06
763.875	28.31
764.185	29.65
764.494	29.79
764.804	29.45
765.113	28.21
765.423	28.21
765.732	30.4
766.042	28.77
766.351	28.57
766.66	29.33
766.97	27.67
767.279	29.81
767.588	29.83
767.897	28.79
768.206	29.55
768.515	31.44
768.824	29.35
769.133	28.79
769.441	30.54
769.75	28.9
770.059	28.86
770.367	28.8
770.676	29.94
770.984	28.47
771.293	28.04
771.601	28.17
771.91	29.32
772.218	30.45
772.526	30.51
772.834	28.89
773.142	30.4
773.45	28.81
773.758	32.42
774.066	31.32
774.374	30.45
774.682	30.96
774.99	30.15
775.298	30.41
775.605	30.22
775.913	34.47
776.22	31.78
776.528	32.8
776.835	29.58
777.143	32.39
777.45	25.66
777.757	29.15
778.065	30.38
778.372	32.01
778.679	33.69
778.986	33.13
779.293	34.3
779.6	29.29
779.907	31.63
780.214	27.99
780.52	31.24
780.827	34.98
781.134	28.76
781.44	29.92
781.747	31.86
782.053	30.84
782.36	31.52
782.666	32.08
782.973	31.76
783.279	32.32
783.585	32.2
783.891	32.36
784.197	33.7
784.503	32.15
784.809	35.94
785.115	34.21
785.421	29.24
785.727	34.17
786.033	33.69
786.339	30.1
786.644	31.28
786.95	33.88
787.255	31.86
787.561	38.72
787.866	32.13
788.172	29.99
788.477	35.24
788.782	29.64
789.088	34.26
789.393	30.33
789.698	32.88
790.003	29.62
790.308	28.2
790.613	33.51
790.918	32.05
791.223	34.61
791.527	32.22
791.832	33.64
792.137	35.4
792.441	36.92
792.746	32.47
793.05	34.69
793.355	35.38
793.659	33.18
793.963	36.48
794.268	33.55
794.572	36.61
794.876	33.59
795.18	34.97
795.484	36.41
795.788	33.62
796.092	34.67
796.396	26.82
796.7	32.51
797.004	37.51
797.307	34.4
797.611	32.36
797.915	33.31
798.218	36.98
798.522	35.04
798.825	35.21
799.128	34.72
799.432	36.89
799.735	36.87
800.038	32.96
800.341	29.71
800.644	36.36
800.947	33.54
801.25	35.52
801.553	36.59
801.856	35.97
802.159	37.6
802.462	36.79
802.764	35.44
803.067	34.47
803.37	34.16
803.672	35.73
803.975	34.86
804.277	38.82
804.579	34.59
804.882	36.68
805.184	36.95
805.486	34.03
805.788	35.37
806.09	35
806.392	36.61
806.694	34.3
806.996	31.18
807.298	45.11
807.6	36.94
807.902	38.59
808.203	34.25
808.505	34.72
808.807	31.15
809.108	42.69
809.409	38.1
809.711	29.25
810.012	28.63
810.313	33.24
810.615	36.22
810.916	36.74
811.217	41.47
811.518	30.36
811.819	39.72
812.12	36.47
812.421	38.6
812.722	30.99
813.023	40.33
813.323	36.88
813.624	39.68
813.925	32.25
814.225	34.22
814.526	39.94
814.826	39.46
815.126	36.51
815.427	28.68
815.727	33.61
816.027	40.33
816.327	38.58
816.627	34.4
816.927	33.06
817.227	42.03
817.527	37.72
817.827	34.84
818.127	33.08
818.427	34.83
818.727	34.32
819.026	33.59
819.326	36.9
819.625	36.36
819.925	38.69
820.224	44.52
820.524	39.92
820.823	36.9
821.122	38.81
821.421	33.75
821.72	41.11
822.019	41.82
822.318	36.34
822.617	37.49
822.916	43.22
823.215	34.25
823.514	42.77
823.813	35.23
824.111	37.75
824.41	38.71
824.709	38.8
825.007	39.21
825.306	38.46
825.604	38.54
825.902	38.51
826.201	38.98
826.499	38.19
826.797	38.36
827.095	40.04
827.393	39.99
827.691	40.27
827.989	38.41
828.287	40.55
828.585	39.23
828.882	39.16
829.18	37.64
829.478	38.68
829.775	40.32
830.073	40.16
830.37	39.41
830.668	40.31
830.965	39.49
831.263	37.64
831.56	42.14
831.857	42.1
832.154	37.29
832.451	40.03
832.748	39.56
833.045	39.33
833.342	38.77
833.639	47.52
833.936	44.42
834.232	38.25
834.529	39.82
834.826	40.71
835.122	44.88
835.419	36.85
835.715	43.39
836.012	38.22
836.308	43.46
836.604	39.98
836.901	43.63
837.197	37.66
837.493	42.49
837.789	41.74
838.085	42.93
838.381	37.5
838.677	41.17
838.972	36.93
839.268	42.17
839.564	37.8
839.86	42.42
840.155	40.92
840.451	44.62
840.746	37.71
841.042	40.81
841.337	37.86
841.632	44.08
841.928	29.28
842.223	46.86
842.518	47.23
842.813	43.53
843.108	39.2
843.403	29.51
843.698	40.57
843.993	39.98
844.287	37.3
844.582	36.08
844.877	37.01
845.171	43.12
845.466	35.99
845.761	33.2
846.055	34.4
846.349	47.78
846.644	41.44
846.938	57.58
847.232	32.68
847.526	51.89
847.82	17.72
848.114	18.01
848.408	33.27
848.702	42.59
848.996	36.08
849.29	33.4
849.584	48.1
849.877	43.64
850.171	42.47
850.465	45.23
850.758	43.61
851.052	35.52
851.345	29.38
851.638	56.22
851.932	63.56
852.225	48.08
852.518	72.15
852.811	56.54
853.104	55.65
853.397	34.19
853.69	37.03
853.983	12.6
854.276	36.28
854.569	55.83
854.861	36.2
855.154	24.55
855.447	29.77
855.739	41.5
856.032	48.76
856.324	65.93
856.616	48.4
856.909	57.5
857.201	35.73
857.493	32.71
857.785	32.78
858.077	17.05
858.369	26.9
858.661	45.06
858.953	32.45
859.245	18.83
859.537	54.29
859.829	29.45
860.12	44.48
860.412	53.76
860.703	36.39
860.995	42.43
861.286	42.4
861.578	20.46
861.869	8.41
862.16	10.67
862.452	23.88
862.743	44.47
863.034	49.71
863.325	13.58
863.616	37.52
863.907	32.01
864.198	54.93
864.488	44.48
864.779	15.9
865.07	19.16
865.36	40.63
865.651	36.93
865.941	34.27
866.232	22.47
866.522	1.88
866.813	51.15
867.103	52.59
867.393	50.85
867.683	33.58
867.973	71.01
868.263	31.26
868.553	35.03
868.843	32.97
869.133	49.35
869.423	47.77
869.713	22.59
870.002	44.96
870.292	58.46
870.582	43.5
870.871	43.69
871.161	44.49
871.45	39.15
871.739	39.4
872.029	35.19
872.318	40.76
872.607	27.68
872.896	16.86
873.185	13.51
873.474	44.29
873.763	44.52
874.052	37.62
874.341	34.32
874.63	18.09
874.918	58.2
875.207	71.62
875.496	36.37
875.784	60.89
876.073	60.08
876.361	36.27
876.649	45.89
876.938	60.62
877.226	54.94
877.514	31.97
877.802	74.6
878.09	43.7
878.378	41.19
878.666	41.56
878.954	25.71
879.242	52.9
879.53	46.64
879.817	77.16
880.105	62.71
880.392	43.73
880.68	7.1
880.967	32.73
881.255	54.05
881.542	69.74
881.83	91.09
882.117	34.63
882.404	50.63
882.691	32.87
882.978	83.38
883.265	15.48
883.552	62.78
883.839	29.82
884.126	30.49
884.413	42.83
884.699	52.66
884.986	40.93
885.273	48.63
885.559	48.63
885.846	48.63
