Data from 0371_crown_Reflection__3__177.txt Node

Date: Fri Dec 15 18:08:25 CST 2023
User: ToomeyLab
Spectrometer: FLMS14357
Trigger mode: 0
Integration Time (sec): 1.000000E-2
Scans to average: 100
Electric dark correction enabled: true
Nonlinearity correction enabled: false
Boxcar width: 0
XAxis mode: Wavelengths
Number of Pixels in Spectrum: 2048
>>>>>Begin Spectral Data<<<<<
189.047	-135.96
189.435	-135.96
189.823	-135.96
190.211	25.52
190.599	-495.44
190.987	21.68
191.375	311.58
191.763	241
192.151	-31.43
192.538	182.74
192.926	60.88
193.314	140.05
193.702	158.44
194.089	123.91
194.477	-26.02
194.864	-35.46
195.252	53.81
195.639	99.79
196.027	243.74
196.414	609.96
196.801	132.22
197.189	268.62
197.576	167.17
197.963	-289.41
198.351	-60.59
198.738	-54.3
199.125	-10.92
199.512	-7.34
199.899	102.29
200.286	39.67
200.673	8.77
201.06	3.44
201.447	5.02
201.833	1.82
202.22	13.66
202.607	22.75
202.994	46.4
203.38	19.39
203.767	25.55
204.154	-4.91
204.54	36.35
204.927	-39.36
205.313	-30.14
205.699	2.81
206.086	41.73
206.472	32.42
206.858	19.9
207.245	-37.84
207.631	50.3
208.017	48.48
208.403	6.91
208.789	12.92
209.175	29.45
209.561	-33.53
209.947	-12.43
210.333	28.65
210.719	34.71
211.105	9.57
211.491	-31.94
211.876	7.01
212.262	-11.45
212.648	7.7
213.034	15.91
213.419	15.26
213.805	-3.52
214.19	-59.97
214.576	27.77
214.961	4.29
215.346	-93.25
215.732	14.19
216.117	6.74
216.502	-69.18
216.888	12.63
217.273	46.57
217.658	-0.24
218.043	20.31
218.428	-26.97
218.813	-33.21
219.198	-47.23
219.583	-0.27
219.968	36.68
220.353	-3.11
220.738	34.12
221.122	12.16
221.507	-19.98
221.892	-33.44
222.276	-49.61
222.661	14.19
223.046	17.6
223.43	16.77
223.815	13.41
224.199	-1.7
224.583	9.21
224.968	4.76
225.352	10.96
225.736	-0.42
226.121	3.91
226.505	10.78
226.889	11.89
227.273	4.2
227.657	10.11
228.041	10.42
228.425	12.83
228.809	14.1
229.193	7.06
229.577	11.84
229.961	12.73
230.344	10.72
230.728	10.56
231.112	11.11
231.495	10.72
231.879	10.37
232.263	10.62
232.646	11.78
233.03	11.07
233.413	9
233.797	9.32
234.18	9.2
234.563	9.85
234.946	9.91
235.33	12.15
235.713	11.76
236.096	11.36
236.479	10.52
236.862	6.66
237.245	10.2
237.628	10.85
238.011	10.22
238.394	8.82
238.777	11.05
239.16	8.88
239.543	10.23
239.925	10.21
240.308	8.55
240.691	10.4
241.073	9.59
241.456	10.59
241.838	8.76
242.221	9.39
242.603	10.01
242.986	9.13
243.368	9.8
243.75	10.83
244.133	9.98
244.515	10.1
244.897	10.14
245.279	9.44
245.661	8.76
246.043	9.26
246.425	8.92
246.807	10.39
247.189	9.82
247.571	9.54
247.953	9.84
248.335	9.6
248.717	9.25
249.098	9.1
249.48	9.31
249.862	9.47
250.243	9.18
250.625	9.31
251.006	9.01
251.388	8.61
251.769	8.39
252.151	10.15
252.532	8.56
252.913	9.28
253.295	7.98
253.676	8.58
254.057	8.78
254.438	8.5
254.819	8.41
255.2	7.75
255.581	9.73
255.962	6.91
256.343	10.16
256.724	9.02
257.105	7.54
257.486	6.9
257.867	8.83
258.247	8.5
258.628	7.95
259.009	8.87
259.389	8.58
259.77	7.25
260.15	7.33
260.531	7.53
260.911	9.08
261.292	8.05
261.672	8.38
262.052	8.06
262.432	7.98
262.813	8.2
263.193	7.94
263.573	8.36
263.953	7.78
264.333	8.29
264.713	8.15
265.093	7.7
265.473	8.78
265.853	6.91
266.233	8.2
266.612	5.62
266.992	6.92
267.372	8.27
267.752	8.25
268.131	8.01
268.511	8.36
268.89	7.91
269.27	7.13
269.649	7.34
270.029	7.7
270.408	8.26
270.787	8.03
271.167	8.07
271.546	8.27
271.925	7
272.304	7.07
272.683	8.01
273.062	7.19
273.441	7.44
273.82	7.03
274.199	7.36
274.578	7.91
274.957	7.56
275.336	7.29
275.715	7.17
276.093	7.04
276.472	7.41
276.851	7.61
277.229	7.34
277.608	6.87
277.986	7.5
278.365	7.51
278.743	6.71
279.122	7.18
279.5	7.28
279.878	7.73
280.257	7.38
280.635	6.87
281.013	7.26
281.391	8.2
281.769	7.29
282.147	7.76
282.525	7.51
282.903	7.67
283.281	7.03
283.659	7.58
284.037	7.52
284.415	7.7
284.792	7.35
285.17	6.79
285.548	6.77
285.925	7.25
286.303	7.54
286.68	7.33
287.058	7.23
287.435	7.06
287.813	7.21
288.19	7.17
288.567	6.86
288.945	7.14
289.322	7.3
289.699	7.81
290.076	6.83
290.453	7.4
290.83	7.37
291.207	6.49
291.584	6.94
291.961	7.23
292.338	7.14
292.715	6.96
293.092	7.28
293.469	7.14
293.845	6.93
294.222	6.23
294.599	6.99
294.975	6.6
295.352	6.98
295.728	6.22
296.105	7.06
296.481	7.18
296.858	7.44
297.234	6.55
297.61	6.88
297.986	6.82
298.363	6.93
298.739	7.36
299.115	7.02
299.491	6.82
299.867	7.06
300.243	7.04
300.619	6.59
300.995	6.94
301.371	6.76
301.746	6.93
302.122	7.21
302.498	7.26
302.874	6.68
303.249	7.32
303.625	6.95
304	7.26
304.376	6.88
304.751	6.54
305.127	7.44
305.502	6.93
305.878	6.05
306.253	7.02
306.628	7.24
307.003	6.77
307.378	7.22
307.754	6.87
308.129	5.81
308.504	6.13
308.879	6.5
309.254	7.77
309.629	7.48
310.003	7.09
310.378	7.06
310.753	7.37
311.128	6.65
311.502	7.24
311.877	7.37
312.252	6.49
312.626	7.13
313.001	6.45
313.375	7.6
313.75	6.38
314.124	6.8
314.498	7.01
314.873	7.09
315.247	6.8
315.621	6.57
315.995	6.41
316.369	6.97
316.743	6.83
317.117	6.78
317.491	7.01
317.865	6.87
318.239	6.35
318.613	7.07
318.987	7.06
319.361	6.67
319.734	7.3
320.108	7.47
320.482	6.81
320.855	7.19
321.229	6.64
321.602	6.75
321.976	7.04
322.349	7.25
322.723	6.66
323.096	7.71
323.469	6.46
323.843	6.97
324.216	7.26
324.589	6.44
324.962	7.41
325.335	7.07
325.708	6.72
326.081	7.25
326.454	6.94
326.827	6.96
327.2	7.22
327.573	7.38
327.945	7.21
328.318	7.16
328.691	7.26
329.063	7.27
329.436	7.08
329.809	7.74
330.181	7.04
330.553	6.31
330.926	6.93
331.298	7.01
331.671	6.92
332.043	7.46
332.415	7.68
332.787	6.84
333.159	7.72
333.532	7.13
333.904	7.87
334.276	7.07
334.648	7.29
335.02	7.19
335.391	7.13
335.763	7
336.135	7.38
336.507	7.86
336.879	7.92
337.25	6.75
337.622	7.3
337.993	7.3
338.365	7.18
338.736	7.75
339.108	7.26
339.479	6.89
339.851	7.42
340.222	7.97
340.593	7.26
340.964	7.31
341.336	7.86
341.707	6.94
342.078	7.18
342.449	7.73
342.82	7.43
343.191	7.11
343.562	7.73
343.933	7.46
344.303	7.92
344.674	7.35
345.045	7.21
345.416	8.17
345.786	7.43
346.157	7.96
346.527	7.63
346.898	7.14
347.268	8
347.639	7.94
348.009	7.84
348.38	7.43
348.75	7.18
349.12	7.57
349.49	8.05
349.861	7.64
350.231	7.56
350.601	7.95
350.971	7.9
351.341	8.11
351.711	7.66
352.081	7.42
352.45	7.28
352.82	7.55
353.19	7.95
353.56	7.69
353.929	7.67
354.299	8.17
354.669	7.52
355.038	8.05
355.408	7.93
355.777	7.88
356.147	7.42
356.516	8.08
356.885	8.03
357.254	7.76
357.624	7.78
357.993	7.92
358.362	7.49
358.731	7.75
359.1	7.45
359.469	7.89
359.838	8.05
360.207	7.6
360.576	7.94
360.945	8.1
361.314	8.65
361.682	7.67
362.051	7.71
362.42	7.98
362.788	7.89
363.157	8.01
363.525	8.21
363.894	8.26
364.262	7.92
364.631	7.89
364.999	8.3
365.367	7.75
365.735	8.55
366.104	8.55
366.472	7.99
366.84	7.78
367.208	8.18
367.576	8.27
367.944	8.11
368.312	8
368.68	8
369.048	8.48
369.416	8.21
369.783	7.9
370.151	8.19
370.519	9.13
370.886	8.3
371.254	8.37
371.621	8.75
371.989	8.12
372.356	7.78
372.724	8.78
373.091	8.3
373.458	8.39
373.826	8.09
374.193	8.33
374.56	8.59
374.927	8.31
375.294	8.64
375.661	8.29
376.028	8.59
376.395	8.21
376.762	8.44
377.129	8.5
377.496	8.15
377.863	8.34
378.229	8.19
378.596	8.32
378.963	8.6
379.329	8.24
379.696	8.4
380.062	8.66
380.429	8.52
380.795	8.31
381.161	8.71
381.528	8.71
381.894	8.63
382.26	8.42
382.626	8.82
382.993	7.87
383.359	8.51
383.725	8.15
384.091	8.51
384.457	8.26
384.823	8.27
385.188	8.77
385.554	8.26
385.92	8.7
386.286	8.59
386.651	8.68
387.017	8.72
387.383	8.47
387.748	8.42
388.114	8.92
388.479	8.6
388.845	8.61
389.21	8.62
389.575	8.63
389.94	8.38
390.306	8.51
390.671	8.64
391.036	8.24
391.401	8.31
391.766	8.43
392.131	8.44
392.496	8.68
392.861	8.52
393.226	8.71
393.591	8.67
393.956	8.78
394.32	8.56
394.685	8.33
395.05	8.56
395.414	8.65
395.779	8.59
396.143	8.65
396.508	8.58
396.872	8.61
397.236	8.53
397.601	8.59
397.965	8.52
398.329	8.66
398.694	8.67
399.058	8.6
399.422	8.48
399.786	8.87
400.15	8.69
400.514	8.96
400.878	8.71
401.242	8.99
401.605	8.66
401.969	8.88
402.333	8.81
402.697	8.61
403.06	8.65
403.424	8.66
403.787	8.72
404.151	8.83
404.514	8.89
404.878	8.55
405.241	8.93
405.604	8.62
405.968	8.88
406.331	8.72
406.694	8.99
407.057	8.57
407.42	9
407.783	8.55
408.146	8.98
408.509	8.8
408.872	8.52
409.235	8.68
409.598	8.78
409.961	8.93
410.323	9.1
410.686	8.85
411.049	8.61
411.411	8.86
411.774	8.85
412.136	8.74
412.499	8.77
412.861	8.56
413.223	8.66
413.586	8.54
413.948	8.65
414.31	8.65
414.672	8.6
415.035	8.74
415.397	8.99
415.759	8.39
416.121	8.9
416.483	8.61
416.845	8.67
417.206	8.71
417.568	9.06
417.93	8.63
418.292	8.59
418.653	8.85
419.015	8.89
419.377	8.73
419.738	8.9
420.1	8.73
420.461	8.76
420.822	8.8
421.184	8.72
421.545	8.76
421.906	8.6
422.267	8.79
422.629	8.74
422.99	8.68
423.351	8.58
423.712	8.51
424.073	8.63
424.434	8.59
424.795	8.55
425.155	8.66
425.516	8.72
425.877	8.79
426.238	8.53
426.598	8.64
426.959	8.54
427.32	8.5
427.68	8.61
428.041	8.55
428.401	8.69
428.761	8.45
429.122	8.61
429.482	8.44
429.842	8.61
430.202	8.68
430.563	8.62
430.923	8.7
431.283	8.7
431.643	8.81
432.003	8.82
432.363	8.89
432.722	8.87
433.082	8.78
433.442	8.71
433.802	8.77
434.161	8.68
434.521	8.85
434.881	8.72
435.24	8.77
435.6	8.79
435.959	8.58
436.319	8.71
436.678	8.59
437.037	8.55
437.396	8.86
437.756	8.78
438.115	8.69
438.474	8.91
438.833	8.52
439.192	8.54
439.551	8.88
439.91	8.58
440.269	8.63
440.628	8.71
440.987	8.75
441.345	8.68
441.704	8.75
442.063	8.65
442.421	8.63
442.78	8.49
443.138	8.63
443.497	8.55
443.855	8.41
444.214	8.66
444.572	8.68
444.93	8.71
445.288	8.63
445.647	8.81
446.005	8.5
446.363	8.83
446.721	8.71
447.079	8.55
447.437	8.75
447.795	8.74
448.153	8.54
448.51	8.64
448.868	8.52
449.226	8.54
449.584	8.45
449.941	8.53
450.299	8.54
450.656	8.58
451.014	8.6
451.371	8.57
451.729	8.46
452.086	8.72
452.443	8.59
452.801	8.67
453.158	8.62
453.515	8.56
453.872	8.82
454.229	8.6
454.586	8.51
454.943	8.58
455.3	8.59
455.657	8.37
456.014	8.35
456.371	8.63
456.727	8.62
457.084	8.63
457.441	8.46
457.797	8.68
458.154	8.8
458.51	8.66
458.867	8.77
459.223	8.49
459.58	8.63
459.936	8.71
460.292	8.64
460.648	8.62
461.005	8.67
461.361	8.61
461.717	8.66
462.073	8.51
462.429	8.3
462.785	8.37
463.141	8.3
463.496	8.32
463.852	8.46
464.208	8.55
464.564	8.64
464.919	8.59
465.275	8.64
465.631	8.38
465.986	8.48
466.342	8.52
466.697	8.41
467.052	8.57
467.408	8.45
467.763	8.3
468.118	8.47
468.473	8.42
468.829	8.63
469.184	8.44
469.539	8.52
469.894	8.38
470.249	8.66
470.603	8.51
470.958	8.54
471.313	8.7
471.668	8.67
472.023	8.52
472.377	8.48
472.732	8.37
473.086	8.32
473.441	8.19
473.795	8.55
474.15	8.54
474.504	8.76
474.859	8.66
475.213	8.23
475.567	8.31
475.921	8.4
476.275	8.21
476.63	8.48
476.984	8.7
477.338	8.49
477.692	8.27
478.045	8.41
478.399	8.55
478.753	8.48
479.107	8.33
479.461	8.44
479.814	8.33
480.168	8.34
480.521	8.26
480.875	8.17
481.228	8.32
481.582	8.43
481.935	8.32
482.289	8.48
482.642	8.5
482.995	8.41
483.348	8.39
483.701	8.36
484.055	8.37
484.408	8.47
484.761	8.33
485.114	8.31
485.466	8.35
485.819	8.2
486.172	7.95
486.525	7.81
486.878	7.69
487.23	7.69
487.583	7.9
487.936	8.03
488.288	8.07
488.641	8.21
488.993	8.17
489.345	8.12
489.698	8.11
490.05	7.93
490.402	7.95
490.754	7.88
491.107	7.89
491.459	7.91
491.811	8.03
492.163	8.08
492.515	8.13
492.866	8.25
493.218	8.25
493.57	8.22
493.922	8.01
494.274	7.9
494.625	7.89
494.977	7.97
495.328	8
495.68	8.04
496.031	8.18
496.383	8.16
496.734	8.35
497.086	8.23
497.437	8.38
497.788	8.27
498.139	8.18
498.49	8.4
498.842	8.05
499.193	8.19
499.544	8.13
499.894	8.19
500.245	8.18
500.596	8.07
500.947	8.2
501.298	8.08
501.648	8.09
501.999	8.15
502.35	8.15
502.7	8.17
503.051	7.74
503.401	8.08
503.752	8.25
504.102	8.15
504.452	8.21
504.803	8.12
505.153	8.21
505.503	8.16
505.853	8.19
506.203	8.18
506.553	8.13
506.903	7.88
507.253	7.99
507.603	8.04
507.953	8.22
508.303	8.14
508.652	8.01
509.002	8.09
509.352	8.3
509.701	8.12
510.051	8.12
510.4	8.01
510.75	7.98
511.099	8.12
511.449	7.99
511.798	8.05
512.147	8.02
512.496	7.96
512.846	8.04
513.195	7.98
513.544	8.07
513.893	8.04
514.242	7.88
514.591	8.19
514.939	8.03
515.288	7.9
515.637	8.07
515.986	8.03
516.334	8.16
516.683	7.96
517.032	7.99
517.38	8.07
517.729	7.96
518.077	7.81
518.426	8.12
518.774	8.07
519.122	8
519.47	8.04
519.819	7.83
520.167	8.06
520.515	8.04
520.863	7.92
521.211	7.95
521.559	7.88
521.907	7.72
522.255	7.76
522.602	7.88
522.95	7.92
523.298	7.88
523.645	7.95
523.993	7.81
524.341	8
524.688	7.94
525.036	7.88
525.383	7.97
525.73	8.12
526.078	8.05
526.425	8.02
526.772	8.01
527.119	8.06
527.466	7.88
527.814	7.81
528.161	7.8
528.508	7.86
528.854	7.69
529.201	7.7
529.548	7.8
529.895	7.86
530.242	7.85
530.588	7.82
530.935	7.62
531.282	7.52
531.628	7.39
531.975	7.47
532.321	7.5
532.667	7.68
533.014	7.67
533.36	7.7
533.706	7.74
534.052	7.75
534.399	7.75
534.745	7.77
535.091	7.85
535.437	7.79
535.783	7.7
536.129	7.59
536.474	7.48
536.82	7.52
537.166	7.6
537.512	7.79
537.857	7.71
538.203	7.82
538.549	7.79
538.894	7.73
539.239	7.75
539.585	7.63
539.93	7.58
540.276	7.62
540.621	7.73
540.966	7.79
541.311	7.7
541.656	7.61
542.001	7.85
542.346	7.99
542.691	7.77
543.036	7.83
543.381	7.64
543.726	7.57
544.071	7.53
544.415	7.46
544.76	7.42
545.105	7.57
545.449	7.65
545.794	7.58
546.138	7.52
546.483	7.64
546.827	7.68
547.171	7.73
547.516	7.69
547.86	7.67
548.204	7.54
548.548	7.73
548.892	7.79
549.236	7.57
549.58	7.53
549.924	7.55
550.268	7.74
550.612	7.63
550.956	7.78
551.3	7.64
551.643	7.76
551.987	7.91
552.33	7.58
552.674	7.68
553.017	7.71
553.361	7.54
553.704	7.75
554.048	7.79
554.391	7.5
554.734	7.57
555.077	7.68
555.42	7.32
555.764	7.66
556.107	7.41
556.45	7.33
556.793	7.49
557.135	7.67
557.478	7.71
557.821	7.62
558.164	7.41
558.507	7.81
558.849	7.26
559.192	7.5
559.534	7.7
559.877	7.62
560.219	7.56
560.562	7.61
560.904	7.6
561.246	7.78
561.589	7.65
561.931	7.48
562.273	7.37
562.615	7.71
562.957	7.46
563.299	7.53
563.641	7.59
563.983	7.42
564.325	7.28
564.667	7.35
565.008	7.36
565.35	7.32
565.692	7.35
566.033	7.55
566.375	7.61
566.716	7.55
567.058	7.64
567.399	7.5
567.741	7.26
568.082	7.66
568.423	7.51
568.764	7.47
569.105	7.47
569.447	7.37
569.788	7.29
570.129	7.37
570.47	7.43
570.811	7.33
571.151	7.29
571.492	7.43
571.833	7.51
572.174	7.37
572.514	7.43
572.855	7.58
573.195	7.48
573.536	7.54
573.876	7.26
574.217	7.3
574.557	7.38
574.898	7.36
575.238	7.29
575.578	7.06
575.918	7.48
576.258	7.48
576.598	7.45
576.938	7.23
577.278	7.31
577.618	7.55
577.958	7.2
578.298	7.28
578.638	7.2
578.977	7.06
579.317	7.14
579.657	7.31
579.996	7.24
580.336	7.45
580.675	7.08
581.014	7.23
581.354	7.25
581.693	7.08
582.032	7.27
582.372	7.3
582.711	7.18
583.05	7.04
583.389	7.21
583.728	7.18
584.067	7.52
584.406	7.37
584.745	7.16
585.083	7.41
585.422	7.37
585.761	7.4
586.1	7.15
586.438	7.08
586.777	7.32
587.115	7.41
587.454	7.2
587.792	7
588.13	7.33
588.469	7.39
588.807	7.24
589.145	7.11
589.483	7.1
589.821	7.05
590.159	7.29
590.497	7.36
590.835	7.33
591.173	7.08
591.511	7.47
591.849	6.95
592.187	7.19
592.524	7.25
592.862	7.24
593.2	7.23
593.537	7.31
593.875	6.86
594.212	7.04
594.55	7.04
594.887	7.08
595.224	7.05
595.561	7.2
595.899	6.89
596.236	7.08
596.573	7.05
596.91	6.54
597.247	6.93
597.584	7.34
597.921	6.94
598.258	7.16
598.594	7.07
598.931	7.17
599.268	7.17
599.604	6.87
599.941	7.12
600.277	7.04
600.614	6.9
600.95	6.63
601.287	6.87
601.623	7.05
601.959	6.97
602.296	7.1
602.632	6.76
602.968	7.15
603.304	6.91
603.64	6.73
603.976	6.85
604.312	7.16
604.648	7.03
604.984	6.99
605.319	7.08
605.655	7.08
605.991	6.92
606.326	7.02
606.662	7.07
606.998	6.77
607.333	6.85
607.668	6.86
608.004	6.8
608.339	7.02
608.674	7.04
609.01	6.83
609.345	6.73
609.68	7.21
610.015	6.98
610.35	7.18
610.685	6.79
611.02	6.89
611.355	6.97
611.689	7.05
612.024	6.88
612.359	6.76
612.694	6.97
613.028	6.66
613.363	6.98
613.697	6.88
614.032	6.84
614.366	6.87
614.7	7
615.035	7.24
615.369	6.64
615.703	6.98
616.037	6.92
616.371	6.56
616.705	6.64
617.039	6.63
617.373	6.64
617.707	6.69
618.041	7.08
618.375	7.08
618.709	7.01
619.042	6.88
619.376	6.87
619.71	7.06
620.043	6.78
620.377	6.86
620.71	6.78
621.043	6.53
621.377	6.7
621.71	6.59
622.043	6.67
622.376	6.38
622.709	7.01
623.043	7.11
623.376	6.27
623.709	6.94
624.041	7.03
624.374	7.1
624.707	6.83
625.04	7.17
625.373	6.05
625.705	6.8
626.038	6.47
626.37	6.63
626.703	7
627.035	6.72
627.368	6.89
627.7	6.84
628.032	6.69
628.365	6.69
628.697	6.96
629.029	6.66
629.361	6.66
629.693	6.88
630.025	6.51
630.357	6.88
630.689	7
631.021	6.36
631.353	7.04
631.684	6.54
632.016	6.51
632.348	6.63
632.679	6.6
633.011	6.74
633.342	6.76
633.674	6.79
634.005	7.27
634.336	6.45
634.668	7.17
634.999	6.47
635.33	7.01
635.661	6.73
635.992	6.59
636.323	6.57
636.654	7.06
636.985	6.66
637.316	6.9
637.647	6.28
637.977	7
638.308	7.01
638.639	6.3
638.969	6.58
639.3	6.34
639.63	6.47
639.961	6.51
640.291	6.46
640.622	7.05
640.952	6.23
641.282	6.76
641.612	6.61
641.943	6.64
642.273	6.59
642.603	6.83
642.933	6.64
643.263	6.9
643.592	6.38
643.922	6.6
644.252	6.29
644.582	6.65
644.911	6.05
645.241	6.81
645.571	6.74
645.9	6.19
646.23	6.29
646.559	6.78
646.888	6.23
647.218	6.53
647.547	6.8
647.876	6.37
648.205	6.95
648.534	6.49
648.863	6.55
649.192	7.16
649.521	6.95
649.85	5.94
650.179	6.38
650.508	6.4
650.837	6.5
651.165	6.15
651.494	6.2
651.822	6.95
652.151	6.36
652.479	6.73
652.808	6.23
653.136	6.74
653.465	5.88
653.793	6.39
654.121	6.25
654.449	6.86
654.777	6.5
655.105	6.41
655.433	6.25
655.761	6.12
656.089	6.51
656.417	6.6
656.745	6.03
657.073	6.75
657.4	6.91
657.728	6.84
658.056	6.66
658.383	6.49
658.711	6.84
659.038	6.46
659.365	7.05
659.693	6.83
660.02	6.32
660.347	6.38
660.674	6.53
661.001	6.78
661.329	6.37
661.656	6.57
661.982	6.64
662.309	6.53
662.636	6.18
662.963	6.74
663.29	6.23
663.616	6.86
663.943	5.87
664.27	5.87
664.596	6.79
664.923	6.52
665.249	6.83
665.576	6.79
665.902	7.73
666.228	6.4
666.554	6.44
666.881	6.41
667.207	7.01
667.533	6.34
667.859	6.29
668.185	6.92
668.511	6.09
668.837	6.24
669.162	6.63
669.488	5.81
669.814	6.56
670.139	6.8
670.465	6.85
670.791	7.21
671.116	6.88
671.442	6.69
671.767	6.83
672.092	6.59
672.418	6.7
672.743	6.8
673.068	6.17
673.393	5.88
673.718	6.34
674.043	6.63
674.368	6.35
674.693	6.95
675.018	6.02
675.343	5.6
675.667	6.38
675.992	7.3
676.317	6.38
676.641	6.98
676.966	6.39
677.29	6.62
677.615	6.99
677.939	6.66
678.264	6.94
678.588	6.84
678.912	6.79
679.236	6.47
679.56	5.81
679.885	6.91
680.209	6.54
680.532	6.31
680.856	6.64
681.18	6.51
681.504	6.32
681.828	6.97
682.152	6.64
682.475	6.79
682.799	6.26
683.122	6.53
683.446	5.85
683.769	6.28
684.093	5.77
684.416	6.83
684.739	6.79
685.062	6.46
685.386	6.78
685.709	6.38
686.032	6.37
686.355	6.77
686.678	6.13
687.001	6.77
687.324	7.3
687.646	6.69
687.969	6.08
688.292	6.81
688.614	6.37
688.937	7.22
689.26	6.38
689.582	7.65
689.904	5.93
690.227	6.88
690.549	5.75
690.871	6.98
691.194	6.15
691.516	7.12
691.838	7.24
692.16	5.99
692.482	5.74
692.804	6.77
693.126	6.97
693.448	6.8
693.769	7.84
694.091	6.87
694.413	6.73
694.735	6.24
695.056	7.19
695.378	6.73
695.699	6.04
696.021	5.92
696.342	6.33
696.663	6.29
696.984	5.97
697.306	5.59
697.627	7.04
697.948	6.68
698.269	7.42
698.59	6.77
698.911	6.42
699.232	6.5
699.553	6.7
699.873	6.96
700.194	7.02
700.515	7.09
700.835	6.84
701.156	7.06
701.477	6.51
701.797	6.39
702.117	6.77
702.438	7.34
702.758	6.14
703.078	5.87
703.398	5.67
703.719	7.14
704.039	5.55
704.359	7.2
704.679	7.23
704.999	6.18
705.319	6.4
705.638	6.84
705.958	6.39
706.278	6.61
706.597	6.41
706.917	6.47
707.237	6.5
707.556	7.31
707.876	6.64
708.195	7.87
708.514	6.44
708.834	5.81
709.153	6.32
709.472	7.04
709.791	7.14
710.11	6.3
710.429	6.83
710.748	7.44
711.067	5.89
711.386	5.99
711.705	6.88
712.023	6.51
712.342	6.22
712.661	6.24
712.979	5.22
713.298	6.88
713.616	7.11
713.935	6.92
714.253	5.93
714.572	6.76
714.89	7.73
715.208	7.26
715.526	7.73
715.844	6.74
716.162	6.56
716.48	6.59
716.798	7.09
717.116	5.24
717.434	6.57
717.752	5.24
718.069	7.4
718.387	6.91
718.705	6.43
719.022	5.13
719.34	6.7
719.657	5.85
719.975	7.86
720.292	7.1
720.609	5.8
720.927	7.19
721.244	7.1
721.561	6.45
721.878	7.55
722.195	6.84
722.512	7.4
722.829	7.84
723.146	6.21
723.463	7.45
723.779	5.99
724.096	8.5
724.413	5.81
724.729	7.17
725.046	6.39
725.362	7.16
725.679	5.41
725.995	6.15
726.311	5.58
726.628	7.06
726.944	8.14
727.26	8.54
727.576	7.11
727.892	6.77
728.208	6.75
728.524	6.56
728.84	5.53
729.156	6.8
729.472	5
729.787	5
730.103	7.74
730.419	6.84
730.734	6.32
731.05	6.84
731.365	5.46
731.681	7.39
731.996	7.72
732.311	6.74
732.626	6.78
732.942	5.8
733.257	7.44
733.572	7.33
733.887	6.9
734.202	6.58
734.517	7.74
734.832	5.91
735.146	8.09
735.461	7.87
735.776	7.02
736.091	5.76
736.405	7.69
736.72	5.91
737.034	6.79
737.349	9.69
737.663	7.5
737.977	6.9
738.292	6.97
738.606	7.68
738.92	7.73
739.234	7.46
739.548	5.89
739.862	7.02
740.176	6.23
740.49	6.32
740.804	7.93
741.117	8.43
741.431	6.25
741.745	6.65
742.058	6.35
742.372	6.06
742.685	7.82
742.999	6.17
743.312	6.41
743.626	6.7
743.939	5.45
744.252	7.59
744.565	5.8
744.878	7.78
745.191	5.14
745.505	6.38
745.817	6.39
746.13	6
746.443	7.3
746.756	8.97
747.069	6.4
747.381	7.57
747.694	6.82
748.007	6.32
748.319	6.39
748.632	7.25
748.944	6
749.256	8.16
749.569	5.49
749.881	7.09
750.193	7.39
750.505	4.84
750.817	6.93
751.129	6.27
751.441	7.4
751.753	7.72
752.065	8.25
752.377	7.23
752.689	8.35
753	7.39
753.312	7.91
753.624	6.52
753.935	6.99
754.247	7.63
754.558	6.2
754.869	5.71
755.181	8.18
755.492	8.97
755.803	8.53
756.114	8.44
756.425	5.78
756.736	6.1
757.047	8.26
757.358	6.98
757.669	7.09
757.98	5.83
758.291	7.75
758.601	7.5
758.912	4.45
759.223	8.07
759.533	5.66
759.844	5.64
760.154	6.21
760.464	9.32
760.775	7.82
761.085	6.15
761.395	8.54
761.705	5.85
762.016	8.03
762.326	6.23
762.636	6.89
762.945	7.1
763.255	5.55
763.565	4.79
763.875	8.49
764.185	6.69
764.494	7.71
764.804	7.93
765.113	8.93
765.423	6.79
765.732	7
766.042	6.91
766.351	8.24
766.66	7.7
766.97	8.6
767.279	6.95
767.588	8.81
767.897	7.82
768.206	6.97
768.515	5.33
768.824	6.96
769.133	8.86
769.441	7.41
769.75	5.61
770.059	7.13
770.367	6.55
770.676	8.47
770.984	9.2
771.293	5.29
771.601	7.51
771.91	3.3
772.218	10.26
772.526	8.78
772.834	7.96
773.142	5.41
773.45	7.84
773.758	5.74
774.066	7.78
774.374	6.23
774.682	7.32
774.99	7.62
775.298	4.58
775.605	4.9
775.913	7.43
776.22	6.93
776.528	8.16
776.835	7.51
777.143	6.93
777.45	8.24
777.757	8.33
778.065	7.25
778.372	4.87
778.679	7
778.986	6.8
779.293	8.46
779.6	10.33
779.907	3.51
780.214	7.65
780.52	7.3
780.827	10.68
781.134	6.62
781.44	3.13
781.747	4.98
782.053	7.48
782.36	2.98
782.666	7.44
782.973	4.97
783.279	9.55
783.585	7.11
783.891	9.51
784.197	6.79
784.503	8.16
784.809	9.33
785.115	6.42
785.421	9.95
785.727	9.86
786.033	9.12
786.339	9.42
786.644	4.12
786.95	7.55
787.255	4.81
787.561	10.25
787.866	3.16
788.172	6.8
788.477	8.27
788.782	8.91
789.088	3.63
789.393	8.46
789.698	6.96
790.003	6.26
790.308	3.8
790.613	7.06
790.918	9.36
791.223	6.95
791.527	3.2
791.832	8.66
792.137	1.51
792.441	5.75
792.746	8.92
793.05	5.02
793.355	9.32
793.659	9.03
793.963	6.06
794.268	5.54
794.572	9.41
794.876	9.3
795.18	7.39
795.484	0.61
795.788	10.09
796.092	4.24
796.396	8.29
796.7	6.27
797.004	6.67
797.307	-0.41
797.611	5.36
797.915	11.06
798.218	7.14
798.522	5.86
798.825	5.26
799.128	5.37
799.432	4.94
799.735	5.95
800.038	11.58
800.341	6.52
800.644	9.52
800.947	8.75
801.25	4.33
801.553	5.76
801.856	3.35
802.159	4.87
802.462	4.62
802.764	4.94
803.067	7.39
803.37	9.03
803.672	3.53
803.975	6.43
804.277	5.73
804.579	-0.22
804.882	3.53
805.184	1.72
805.486	6.84
805.788	10.16
806.09	10.52
806.392	7.32
806.694	3.69
806.996	11.83
807.298	13.8
807.6	10.34
807.902	9.65
808.203	4.27
808.505	0.81
808.807	5.17
809.108	4.03
809.409	10.79
809.711	2.93
810.012	3.31
810.313	3.71
810.615	2.06
810.916	3.21
811.217	7.03
811.518	11.45
811.819	5.01
812.12	6.08
812.421	7.01
812.722	9.9
813.023	11.93
813.323	5.03
813.624	2.7
813.925	13.35
814.225	8
814.526	13.71
814.826	8.36
815.126	0.69
815.427	3.82
815.727	4.62
816.027	4.95
816.327	9.08
816.627	2.48
816.927	8.14
817.227	5.21
817.527	0.35
817.827	12.7
818.127	5.35
818.427	5.09
818.727	5.73
819.026	8.84
819.326	15.27
819.625	10.06
819.925	5.04
820.224	7.6
820.524	8.62
820.823	10.91
821.122	7.57
821.421	2.39
821.72	3.97
822.019	2.93
822.318	5.59
822.617	0.86
822.916	5.74
823.215	7.79
823.514	9.63
823.813	6.19
824.111	6.9
824.41	10.5
824.709	9.56
825.007	9.59
825.306	7.71
825.604	9.62
825.902	9.19
826.201	7.89
826.499	8.19
826.797	9.44
827.095	7.86
827.393	7.83
827.691	9.74
827.989	6.22
828.287	8.25
828.585	7.83
828.882	6.97
829.18	9.59
829.478	11.16
829.775	9.82
830.073	9.8
830.37	10.13
830.668	7.07
830.965	10.78
831.263	8.35
831.56	3.85
831.857	7.71
832.154	8.39
832.451	7.07
832.748	6.78
833.045	11.19
833.342	6.54
833.639	2.05
833.936	7.84
834.232	5.54
834.529	2.9
834.826	7.99
835.122	7.34
835.419	4.44
835.715	-0.41
836.012	8.74
836.308	1.99
836.604	3.82
836.901	3.54
837.197	6.9
837.493	9.33
837.789	5.4
838.085	8.15
838.381	6.54
838.677	4.36
838.972	5.78
839.268	3.38
839.564	8.35
839.86	6.26
840.155	-1.88
840.451	-4.56
840.746	7.06
841.042	8.19
841.337	8.69
841.632	7.43
841.928	12.25
842.223	-2.28
842.518	5.79
842.813	16.87
843.108	10.43
843.403	22.38
843.698	6.46
843.993	2.7
844.287	9.25
844.582	0.41
844.877	5.35
845.171	6.79
845.466	0.48
845.761	6.18
846.055	-2.68
846.349	-5.22
846.644	-1.51
846.938	-10.82
847.232	3.51
847.526	-1.74
847.82	13.28
848.114	1.55
848.408	-5.72
848.702	14.75
848.996	-9.63
849.29	16.47
849.584	-14.9
849.877	16.97
850.171	2.14
850.465	3.83
850.758	17.27
851.052	5.57
851.345	11
851.638	12.95
851.932	-7.35
852.225	1.79
852.518	13.87
852.811	17.25
853.104	-44.17
853.397	34.08
853.69	13.72
853.983	-25.01
854.276	9.19
854.569	0.82
854.861	-5.92
855.154	-14.12
855.447	-26.74
855.739	13.51
856.032	2.94
856.324	21.61
856.616	18.34
856.909	-6.71
857.201	16.68
857.493	-16.88
857.785	-12.37
858.077	8.85
858.369	3.87
858.661	-31.63
858.953	-11.7
859.245	-8.47
859.537	-2.53
859.829	4.12
860.12	22.69
860.412	-5.08
860.703	-4.34
860.995	-7.71
861.286	-24.29
861.578	4.76
861.869	14.67
862.16	-6.31
862.452	3.4
862.743	-27.1
863.034	7.63
863.325	-2.7
863.616	31.64
863.907	-1.45
864.198	-10.5
864.488	6.94
864.779	5.54
865.07	-12.11
865.36	-11.23
865.651	15.21
865.941	13.68
866.232	-18.95
866.522	-37.37
866.813	21.14
867.103	14.5
867.393	-27.75
867.683	-23.09
867.973	-5.74
868.263	-13.29
868.553	16.5
868.843	-4.55
869.133	-25.26
869.423	12.78
869.713	24.52
870.002	-4.84
870.292	0.07
870.582	-4.5
870.871	17.01
871.161	2.27
871.45	3.3
871.739	-34.1
872.029	-26.45
872.318	25.24
872.607	35.37
872.896	-4.77
873.185	-11.75
873.474	-22.02
873.763	20.6
874.052	0.09
874.341	21.41
874.63	-22.96
874.918	20.2
875.207	34.41
875.496	-9.88
875.784	-68.32
876.073	-67.48
876.361	-60.89
876.649	-48.32
876.938	8.25
877.226	1.45
877.514	37.84
877.802	-61.37
878.09	-12.36
878.378	18.22
878.666	-14.96
878.954	-38.54
879.242	5.7
879.53	20.18
879.817	10.67
880.105	-31.23
880.392	14.61
880.68	-10.19
880.967	-40.95
881.255	7.44
881.542	-35.56
881.83	-93.86
882.117	9.78
882.404	-21.12
882.691	-5.3
882.978	-13.4
883.265	4.09
883.552	28.14
883.839	-5.94
884.126	-2.7
884.413	19.49
884.699	12.89
884.986	19.07
885.273	8.83
885.559	8.83
885.846	8.83
