Data from 0371_crown_Reflection__1__175.txt Node

Date: Fri Dec 15 18:08:03 CST 2023
User: ToomeyLab
Spectrometer: FLMS14357
Trigger mode: 0
Integration Time (sec): 1.000000E-2
Scans to average: 100
Electric dark correction enabled: true
Nonlinearity correction enabled: false
Boxcar width: 0
XAxis mode: Wavelengths
Number of Pixels in Spectrum: 2048
>>>>>Begin Spectral Data<<<<<
189.047	50.94
189.435	50.94
189.823	50.94
190.211	221.88
190.599	419.77
190.987	170.41
191.375	-470.74
191.763	-22.04
192.151	36.8
192.538	100.91
192.926	87.26
193.314	94.2
193.702	236.12
194.089	1.48
194.477	140.71
194.864	18.62
195.252	212.9
195.639	163.8
196.027	12.36
196.414	297.84
196.801	94.63
197.189	227.28
197.576	163.1
197.963	36.76
198.351	-80.25
198.738	-79.2
199.125	15.22
199.512	-11.79
199.899	10.5
200.286	25
200.673	6.98
201.06	-12.83
201.447	-29.16
201.833	-16.16
202.22	12.73
202.607	8.17
202.994	-62.8
203.38	8.45
203.767	14.53
204.154	9.93
204.54	7.78
204.927	-90.37
205.313	26.74
205.699	2.63
206.086	22.05
206.472	-17.22
206.858	-10.5
207.245	-79.82
207.631	18.35
208.017	-8.73
208.403	5.62
208.789	7.17
209.175	-10.44
209.561	1.85
209.947	-17.51
210.333	-63.05
210.719	11.07
211.105	34.27
211.491	-26.23
211.876	-4.69
212.262	-0.86
212.648	11.8
213.034	16.67
213.419	-36.74
213.805	8.44
214.19	14.35
214.576	-49.85
214.961	-25.69
215.346	-41.31
215.732	-15.02
216.117	-14.51
216.502	-0.75
216.888	21.24
217.273	6.26
217.658	-20.73
218.043	0.85
218.428	-37.59
218.813	-32.9
219.198	-25.15
219.583	-3.36
219.968	17.15
220.353	-38.49
220.738	23.39
221.122	2.89
221.507	2.77
221.892	-12.15
222.276	-43.39
222.661	1.49
223.046	16.69
223.43	13.15
223.815	-4.95
224.199	-0.46
224.583	13.42
224.968	7.07
225.352	9.5
225.736	-1.41
226.121	4.84
226.505	11.75
226.889	1.11
227.273	-0.6
227.657	9.72
228.041	7.14
228.425	5.45
228.809	6.49
229.193	6.32
229.577	7.95
229.961	8.47
230.344	8.61
230.728	9.23
231.112	10.25
231.495	9.71
231.879	7.1
232.263	8.2
232.646	7.81
233.03	9.16
233.413	8.13
233.797	5.51
234.18	7.63
234.563	8.68
234.946	6.17
235.33	10.48
235.713	7.31
236.096	7.01
236.479	7.67
236.862	7.04
237.245	8.5
237.628	6.61
238.011	9.2
238.394	7.7
238.777	8.13
239.16	6.17
239.543	7.25
239.925	8.42
240.308	7.74
240.691	8.6
241.073	8.1
241.456	9.56
241.838	7.7
242.221	7.32
242.603	7.91
242.986	7.1
243.368	7.99
243.75	7.96
244.133	7.83
244.515	7.98
244.897	7.71
245.279	7.69
245.661	7.46
246.043	6.14
246.425	7.17
246.807	8.18
247.189	7.25
247.571	7.9
247.953	7.68
248.335	7.69
248.717	7.81
249.098	7.58
249.48	7.57
249.862	7.25
250.243	7.49
250.625	7.3
251.006	7.13
251.388	6.51
251.769	7.49
252.151	7.46
252.532	7.21
252.913	7.06
253.295	6.12
253.676	6.84
254.057	7.72
254.438	6.86
254.819	6.69
255.2	6.33
255.581	6.93
255.962	5.44
256.343	6.84
256.724	6.44
257.105	6.98
257.486	7.8
257.867	7.64
258.247	6.72
258.628	5.6
259.009	6.11
259.389	6.66
259.77	6.13
260.15	5.81
260.531	6.8
260.911	7.15
261.292	6.92
261.672	7.14
262.052	6.94
262.432	6.71
262.813	6.81
263.193	6.79
263.573	6.79
263.953	5.98
264.333	6.43
264.713	6.42
265.093	6.33
265.473	6.34
265.853	5.2
266.233	6.12
266.612	4.08
266.992	4.94
267.372	6.36
267.752	6.35
268.131	6.38
268.511	7.02
268.89	6.36
269.27	5.85
269.649	5.55
270.029	5.74
270.408	7.05
270.787	5.97
271.167	6.67
271.546	6.44
271.925	6.43
272.304	6.13
272.683	6.91
273.062	6.1
273.441	6.26
273.82	5.53
274.199	6.58
274.578	6.12
274.957	5.8
275.336	6.15
275.715	6.06
276.093	5.55
276.472	5.84
276.851	5.81
277.229	5.98
277.608	5.23
277.986	5.55
278.365	5.75
278.743	5.38
279.122	5.27
279.5	6
279.878	6.09
280.257	5.73
280.635	5.21
281.013	6.28
281.391	6.41
281.769	6.07
282.147	6.57
282.525	6.27
282.903	5.95
283.281	5.99
283.659	5.75
284.037	6.22
284.415	5.61
284.792	5.82
285.17	4.98
285.548	5.52
285.925	5.55
286.303	6.21
286.68	5.58
287.058	5.64
287.435	5.88
287.813	5.78
288.19	5.33
288.567	5.39
288.945	5.9
289.322	5.26
289.699	5.86
290.076	5.49
290.453	5.6
290.83	5.41
291.207	5.24
291.584	5.66
291.961	5.92
292.338	5.64
292.715	5.82
293.092	5.81
293.469	5.27
293.845	6.23
294.222	4.91
294.599	5.35
294.975	5.54
295.352	6.02
295.728	5.46
296.105	5.72
296.481	6.12
296.858	5.83
297.234	5.26
297.61	4.83
297.986	5.34
298.363	5.62
298.739	5.48
299.115	5.36
299.491	5.42
299.867	5.29
300.243	5.57
300.619	5.07
300.995	5.44
301.371	5.38
301.746	5.15
302.122	5.34
302.498	5.45
302.874	5.61
303.249	5.2
303.625	5.46
304	5.62
304.376	5.04
304.751	4.81
305.127	6.23
305.502	5.1
305.878	4.25
306.253	5.27
306.628	6.15
307.003	5.62
307.378	6.12
307.754	5.45
308.129	4.31
308.504	5.77
308.879	4.97
309.254	6.01
309.629	5.91
310.003	4.92
310.378	5.67
310.753	5.85
311.128	5.79
311.502	5.69
311.877	6.06
312.252	5.02
312.626	5.15
313.001	5.54
313.375	5.51
313.75	5.33
314.124	5.53
314.498	5.05
314.873	5.13
315.247	4.71
315.621	4.96
315.995	4.69
316.369	5.48
316.743	5.44
317.117	5.64
317.491	4.98
317.865	5.15
318.239	5.42
318.613	5.26
318.987	5.91
319.361	4.75
319.734	5.15
320.108	5.28
320.482	5.1
320.855	6.35
321.229	4.99
321.602	5.34
321.976	5.52
322.349	4.91
322.723	5.01
323.096	5.79
323.469	5.22
323.843	5.13
324.216	5.84
324.589	5.76
324.962	6.21
325.335	5.37
325.708	5.17
326.081	5.31
326.454	5.62
326.827	5.61
327.2	5.84
327.573	5.3
327.945	5.72
328.318	5.2
328.691	4.8
329.063	5.28
329.436	5.04
329.809	5.46
330.181	5.46
330.553	5.06
330.926	5.53
331.298	5.61
331.671	5.54
332.043	6.47
332.415	6.35
332.787	5.16
333.159	5.9
333.532	5.31
333.904	5.1
334.276	5.32
334.648	5.39
335.02	5.75
335.391	5.4
335.763	5.41
336.135	5.65
336.507	5.88
336.879	5.37
337.25	5.27
337.622	5.41
337.993	5.65
338.365	5.77
338.736	6.16
339.108	5.94
339.479	5.81
339.851	6.16
340.222	6.06
340.593	5.88
340.964	5.26
341.336	6.15
341.707	5.55
342.078	6.36
342.449	6.05
342.82	5.6
343.191	5.59
343.562	5.88
343.933	5.97
344.303	5.45
344.674	5.81
345.045	5.86
345.416	6.43
345.786	5.68
346.157	5.95
346.527	5.55
346.898	5.33
347.268	5.82
347.639	5.62
348.009	5.98
348.38	6.08
348.75	6.32
349.12	5.68
349.49	6.55
349.861	6.28
350.231	5.55
350.601	6.78
350.971	6.41
351.341	6.53
351.711	6.09
352.081	6.04
352.45	6.19
352.82	6
353.19	6.62
353.56	6.19
353.929	6.32
354.299	6.08
354.669	5.65
355.038	6.35
355.408	6.06
355.777	6.31
356.147	5.66
356.516	6.26
356.885	6.42
357.254	6.22
357.624	6.46
357.993	6.47
358.362	5.69
358.731	6.27
359.1	6.28
359.469	6.37
359.838	6.43
360.207	6.43
360.576	6.26
360.945	6.48
361.314	6.57
361.682	5.86
362.051	6.23
362.42	6.37
362.788	6.61
363.157	6.38
363.525	6.57
363.894	6.25
364.262	6.28
364.631	6.14
364.999	6.56
365.367	6.23
365.735	7.22
366.104	6.57
366.472	6.46
366.84	6.52
367.208	6.31
367.576	6.51
367.944	6.52
368.312	6.33
368.68	6.16
369.048	6.85
369.416	6.36
369.783	6.4
370.151	6.64
370.519	7.01
370.886	7.04
371.254	6.7
371.621	6.63
371.989	6.7
372.356	6.27
372.724	6.7
373.091	6.41
373.458	6.59
373.826	6.86
374.193	6.72
374.56	6.72
374.927	6.69
375.294	6.48
375.661	6.33
376.028	6.15
376.395	6.32
376.762	6.7
377.129	6.76
377.496	6.53
377.863	7
378.229	6.25
378.596	6.81
378.963	6.57
379.329	6.41
379.696	6.87
380.062	6.53
380.429	6.82
380.795	6.66
381.161	7.02
381.528	6.96
381.894	6.69
382.26	6.68
382.626	7.1
382.993	6.36
383.359	7.02
383.725	6.78
384.091	6.58
384.457	7.21
384.823	6.75
385.188	6.91
385.554	6.72
385.92	7.06
386.286	6.82
386.651	6.88
387.017	6.74
387.383	7.21
387.748	6.71
388.114	7.14
388.479	6.66
388.845	7.21
389.21	7.05
389.575	6.76
389.94	7.03
390.306	7.02
390.671	7.04
391.036	6.66
391.401	6.81
391.766	6.92
392.131	7.25
392.496	6.83
392.861	6.85
393.226	7.43
393.591	7.03
393.956	6.86
394.32	6.89
394.685	6.74
395.05	6.7
395.414	7.06
395.779	6.78
396.143	7.22
396.508	7.01
396.872	7.14
397.236	7.01
397.601	6.65
397.965	7.02
398.329	6.92
398.694	7.16
399.058	7.25
399.422	6.88
399.786	7.19
400.15	7.29
400.514	7
400.878	7.15
401.242	7.15
401.605	7.03
401.969	7.08
402.333	7.2
402.697	7.17
403.06	7.06
403.424	7.22
403.787	7.04
404.151	7.37
404.514	7.12
404.878	6.86
405.241	7
405.604	7.13
405.968	7.16
406.331	6.91
406.694	7.14
407.057	7.25
407.42	7.29
407.783	6.88
408.146	7.06
408.509	6.9
408.872	7.36
409.235	7.2
409.598	7.26
409.961	7.1
410.323	7.46
410.686	6.98
411.049	7.19
411.411	7.47
411.774	7.14
412.136	7.06
412.499	7.15
412.861	7.1
413.223	7.09
413.586	7.22
413.948	7.37
414.31	7.06
414.672	6.84
415.035	7.02
415.397	7.31
415.759	7.09
416.121	7.29
416.483	7
416.845	7.16
417.206	6.9
417.568	7.44
417.93	6.9
418.292	7.01
418.653	7.14
419.015	7.21
419.377	7.03
419.738	7.08
420.1	7.06
420.461	7.32
420.822	7.32
421.184	7.1
421.545	7.13
421.906	7.13
422.267	7.17
422.629	7.17
422.99	7.27
423.351	7.2
423.712	7.13
424.073	7.06
424.434	7.05
424.795	7.08
425.155	7.19
425.516	7.06
425.877	7.24
426.238	7.06
426.598	7.15
426.959	7.02
427.32	7.07
427.68	7.12
428.041	6.87
428.401	7.11
428.761	7.09
429.122	7.16
429.482	7.05
429.842	7.22
430.202	7.11
430.563	7.07
430.923	7.24
431.283	7.41
431.643	7.32
432.003	7.3
432.363	7.17
432.722	7.19
433.082	7.17
433.442	7.3
433.802	6.99
434.161	7.18
434.521	7.51
434.881	7.43
435.24	7
435.6	7.16
435.959	7.2
436.319	7.07
436.678	7.07
437.037	7.1
437.396	7.26
437.756	7.33
438.115	6.93
438.474	7.33
438.833	7.06
439.192	7.16
439.551	7.1
439.91	7.24
440.269	7.12
440.628	7.1
440.987	7.27
441.345	7.09
441.704	7.22
442.063	7.12
442.421	7.08
442.78	7.15
443.138	7.05
443.497	7.14
443.855	6.98
444.214	7.12
444.572	7.2
444.93	7.05
445.288	7.2
445.647	7.25
446.005	7.13
446.363	7.15
446.721	7.36
447.079	7.08
447.437	7.18
447.795	7.16
448.153	7.12
448.51	7.2
448.868	7.1
449.226	7.07
449.584	7
449.941	7.14
450.299	7.03
450.656	7.04
451.014	6.99
451.371	7.1
451.729	7.08
452.086	7.28
452.443	7.29
452.801	7.24
453.158	7.05
453.515	7.15
453.872	7.25
454.229	7.16
454.586	7.09
454.943	7.27
455.3	7.12
455.657	7.03
456.014	7.02
456.371	7.01
456.727	7.2
457.084	7.37
457.441	7.18
457.797	7.07
458.154	7.21
458.51	7.26
458.867	7.16
459.223	7.17
459.58	7.06
459.936	7.17
460.292	7.23
460.648	7.09
461.005	7.19
461.361	7.19
461.717	7.23
462.073	6.92
462.429	6.89
462.785	6.96
463.141	6.98
463.496	6.98
463.852	7.16
464.208	7.01
464.564	7.27
464.919	6.99
465.275	7.08
465.631	7.3
465.986	7.1
466.342	7.17
466.697	7.12
467.052	7.27
467.408	7.25
467.763	7.05
468.118	7.2
468.473	7.1
468.829	7.29
469.184	7.07
469.539	7.1
469.894	6.98
470.249	7.2
470.603	7.33
470.958	7.37
471.313	7.26
471.668	7.27
472.023	7.29
472.377	7.06
472.732	7.14
473.086	7.01
473.441	6.91
473.795	7.06
474.15	7.31
474.504	7.16
474.859	7.27
475.213	7.18
475.567	7.12
475.921	7.05
476.275	7.12
476.63	7.15
476.984	7.22
477.338	7.05
477.692	6.97
478.045	7.02
478.399	7.07
478.753	7.2
479.107	7.09
479.461	7.07
479.814	7.02
480.168	7
480.521	6.99
480.875	6.99
481.228	6.99
481.582	7.02
481.935	7.01
482.289	7.07
482.642	7.02
482.995	7.04
483.348	6.94
483.701	7.09
484.055	7.14
484.408	7.09
484.761	7.03
485.114	7
485.466	6.86
485.819	6.82
486.172	6.69
486.525	6.58
486.878	6.56
487.23	6.63
487.583	6.69
487.936	6.83
488.288	6.84
488.641	6.96
488.993	6.87
489.345	6.8
489.698	6.76
490.05	6.67
490.402	6.71
490.754	6.66
491.107	6.7
491.459	6.72
491.811	6.88
492.163	6.88
492.515	6.9
492.866	6.94
493.218	7.06
493.57	6.88
493.922	6.71
494.274	6.65
494.625	6.74
494.977	6.77
495.328	6.82
495.68	6.8
496.031	7.03
496.383	7.01
496.734	7.09
497.086	7.02
497.437	6.97
497.788	7.02
498.139	6.8
498.49	7.12
498.842	6.8
499.193	6.79
499.544	6.86
499.894	6.96
500.245	6.83
500.596	6.81
500.947	7.01
501.298	6.7
501.648	6.99
501.999	6.96
502.35	6.96
502.7	6.86
503.051	6.76
503.401	6.83
503.752	7.12
504.102	6.89
504.452	7.03
504.803	6.89
505.153	6.89
505.503	6.97
505.853	6.87
506.203	6.88
506.553	6.94
506.903	6.73
507.253	6.96
507.603	6.68
507.953	7.1
508.303	7.08
508.652	6.71
509.002	7.05
509.352	6.88
509.701	7.03
510.051	6.8
510.4	6.77
510.75	6.75
511.099	6.91
511.449	6.76
511.798	6.76
512.147	6.98
512.496	6.86
512.846	6.83
513.195	6.82
513.544	6.7
513.893	6.85
514.242	6.76
514.591	6.97
514.939	6.91
515.288	6.76
515.637	6.88
515.986	6.74
516.334	6.7
516.683	6.79
517.032	6.79
517.38	6.96
517.729	6.93
518.077	6.7
518.426	6.92
518.774	6.9
519.122	6.81
519.47	6.77
519.819	6.62
520.167	6.74
520.515	6.77
520.863	6.75
521.211	6.78
521.559	6.74
521.907	6.67
522.255	6.76
522.602	6.75
522.95	6.64
523.298	6.78
523.645	6.7
523.993	6.68
524.341	6.73
524.688	6.76
525.036	6.79
525.383	6.85
525.73	6.86
526.078	6.8
526.425	6.56
526.772	6.77
527.119	6.66
527.466	6.74
527.814	6.78
528.161	6.63
528.508	6.71
528.854	6.61
529.201	6.57
529.548	6.52
529.895	6.66
530.242	6.57
530.588	6.54
530.935	6.47
531.282	6.38
531.628	6.36
531.975	6.35
532.321	6.44
532.667	6.51
533.014	6.57
533.36	6.48
533.706	6.62
534.052	6.6
534.399	6.56
534.745	6.6
535.091	6.62
535.437	6.57
535.783	6.44
536.129	6.4
536.474	6.4
536.82	6.38
537.166	6.58
537.512	6.54
537.857	6.58
538.203	6.63
538.549	6.56
538.894	6.54
539.239	6.57
539.585	6.49
539.93	6.46
540.276	6.62
540.621	6.56
540.966	6.53
541.311	6.45
541.656	6.49
542.001	6.52
542.346	6.77
542.691	6.51
543.036	6.5
543.381	6.39
543.726	6.45
544.071	6.4
544.415	6.44
544.76	6.34
545.105	6.47
545.449	6.46
545.794	6.51
546.138	6.36
546.483	6.52
546.827	6.5
547.171	6.53
547.516	6.59
547.86	6.37
548.204	6.5
548.548	6.51
548.892	6.5
549.236	6.48
549.58	6.46
549.924	6.44
550.268	6.43
550.612	6.58
550.956	6.75
551.3	6.4
551.643	6.67
551.987	6.67
552.33	6.54
552.674	6.49
553.017	6.49
553.361	6.42
553.704	6.83
554.048	6.46
554.391	6.29
554.734	6.38
555.077	6.51
555.42	6.41
555.764	6.35
556.107	6.29
556.45	6.42
556.793	6.3
557.135	6.49
557.478	6.61
557.821	6.4
558.164	6.35
558.507	6.52
558.849	6.4
559.192	6.44
559.534	6.33
559.877	6.44
560.219	6.28
560.562	6.79
560.904	6.57
561.246	6.5
561.589	6.48
561.931	6.32
562.273	6.35
562.615	6.58
562.957	6.4
563.299	6.35
563.641	6.42
563.983	6.27
564.325	6.27
564.667	6.4
565.008	6.11
565.35	6.65
565.692	6.29
566.033	6.24
566.375	6.58
566.716	6.59
567.058	6.29
567.399	6.24
567.741	6.24
568.082	6.41
568.423	6.23
568.764	6.11
569.105	6.32
569.447	6.22
569.788	6.27
570.129	6.35
570.47	6.37
570.811	6.41
571.151	6.43
571.492	6.36
571.833	6.29
572.174	6.24
572.514	6.22
572.855	6.31
573.195	6.43
573.536	6.38
573.876	6.08
574.217	6.15
574.557	6.34
574.898	6.37
575.238	6.33
575.578	6.18
575.918	6.36
576.258	6.42
576.598	6.3
576.938	6.3
577.278	6.17
577.618	6.03
577.958	6.03
578.298	6.38
578.638	6.14
578.977	6.08
579.317	6.04
579.657	6.16
579.996	6.15
580.336	6.12
580.675	6.28
581.014	5.94
581.354	6.07
581.693	6.13
582.032	6.17
582.372	6.3
582.711	6.13
583.05	6.11
583.389	6.41
583.728	6.06
584.067	6.14
584.406	6.05
584.745	6.26
585.083	6.38
585.422	6.36
585.761	6.19
586.1	6.18
586.438	6.22
586.777	6.26
587.115	5.98
587.454	6.13
587.792	6.03
588.13	6.35
588.469	6.09
588.807	6
589.145	5.87
589.483	6.21
589.821	6.26
590.159	6.16
590.497	6.21
590.835	6.28
591.173	5.89
591.511	6.5
591.849	5.96
592.187	6.24
592.524	6.23
592.862	6.2
593.2	6.29
593.537	6.06
593.875	5.89
594.212	5.98
594.55	6.11
594.887	6.07
595.224	5.86
595.561	5.93
595.899	5.87
596.236	5.8
596.573	6.25
596.91	5.71
597.247	5.94
597.584	6.23
597.921	6.03
598.258	5.64
598.594	5.95
598.931	5.89
599.268	6.07
599.604	5.88
599.941	6
600.277	5.79
600.614	5.97
600.95	5.76
601.287	5.87
601.623	6.04
601.959	5.79
602.296	5.93
602.632	5.98
602.968	6
603.304	6.1
603.64	5.82
603.976	5.7
604.312	5.71
604.648	6.14
604.984	6
605.319	5.97
605.655	5.85
605.991	5.78
606.326	5.82
606.662	5.85
606.998	5.69
607.333	5.83
607.668	5.75
608.004	5.88
608.339	6.12
608.674	6.09
609.01	5.55
609.345	5.46
609.68	6.14
610.015	5.6
610.35	5.91
610.685	5.92
611.02	5.88
611.355	5.71
611.689	5.81
612.024	5.67
612.359	5.55
612.694	5.89
613.028	5.45
613.363	5.88
613.697	5.91
614.032	5.49
614.366	6.09
614.7	5.84
615.035	6.21
615.369	5.73
615.703	5.91
616.037	5.93
616.371	5.51
616.705	5.55
617.039	5.78
617.373	5.25
617.707	5.54
618.041	5.4
618.375	5.95
618.709	5.81
619.042	5.95
619.376	5.87
619.71	5.62
620.043	5.59
620.377	5.53
620.71	5.86
621.043	5.73
621.377	5.48
621.71	5.63
622.043	5.79
622.376	5.22
622.709	5.68
623.043	5.59
623.376	5.84
623.709	5.39
624.041	6.45
624.374	5.66
624.707	5.58
625.04	5.97
625.373	5.45
625.705	5.59
626.038	5.88
626.37	5.4
626.703	5.6
627.035	5.96
627.368	6.01
627.7	5.94
628.032	5.59
628.365	5.89
628.697	5.73
629.029	5.39
629.361	5.82
629.693	5.87
630.025	5.67
630.357	5.67
630.689	5.79
631.021	5.66
631.353	5.62
631.684	5.26
632.016	5.31
632.348	6
632.679	5.37
633.011	5.59
633.342	5.8
633.674	5.45
634.005	5.94
634.336	5.59
634.668	6.16
634.999	5.56
635.33	6.07
635.661	5.8
635.992	5.82
636.323	5.74
636.654	5.99
636.985	5.65
637.316	5.29
637.647	5.08
637.977	5.92
638.308	5.66
638.639	5.16
638.969	5.33
639.3	5.7
639.63	5.17
639.961	5.82
640.291	5.69
640.622	5.68
640.952	5.44
641.282	5.61
641.612	5.95
641.943	5.2
642.273	5.91
642.603	5.91
642.933	5.42
643.263	5.48
643.592	5.46
643.922	5.58
644.252	5.65
644.582	5.51
644.911	5.43
645.241	5.61
645.571	5.59
645.9	5.14
646.23	5.63
646.559	5.7
646.888	5.05
647.218	5.21
647.547	5.34
647.876	5.46
648.205	5.3
648.534	5.42
648.863	5.28
649.192	5.93
649.521	5.32
649.85	5.2
650.179	5.21
650.508	5.53
650.837	4.89
651.165	5.78
651.494	5.16
651.822	5.51
652.151	5.63
652.479	5.55
652.808	4.93
653.136	5.98
653.465	5.01
653.793	4.97
654.121	5.04
654.449	5.33
654.777	5.55
655.105	5.6
655.433	5.46
655.761	5.45
656.089	5.55
656.417	5.3
656.745	5.21
657.073	4.38
657.4	6.2
657.728	5.66
658.056	5.33
658.383	5.36
658.711	5.58
659.038	5.31
659.365	5.66
659.693	5.51
660.02	4.97
660.347	5.92
660.674	5.34
661.001	5.76
661.329	4.99
661.656	5.66
661.982	5.7
662.309	5.27
662.636	5.25
662.963	5.68
663.29	5.32
663.616	5.61
663.943	4.82
664.27	4.68
664.596	5.99
664.923	5.4
665.249	5.18
665.576	5.43
665.902	6.06
666.228	5.49
666.554	5.3
666.881	5.36
667.207	5.08
667.533	5.84
667.859	5.45
668.185	6.23
668.511	4.94
668.837	4.46
669.162	5.33
669.488	5.55
669.814	6.27
670.139	5.64
670.465	5.06
670.791	5.1
671.116	5.9
671.442	5.71
671.767	5.65
672.092	6.15
672.418	5.9
672.743	5.41
673.068	5
673.393	5.56
673.718	4.95
674.043	5.42
674.368	5
674.693	6.45
675.018	5.15
675.343	5.55
675.667	4.97
675.992	6.09
676.317	6.03
676.641	5.78
676.966	5.48
677.29	4.98
677.615	6.06
677.939	5.43
678.264	5.83
678.588	5.5
678.912	5.25
679.236	6.34
679.56	4.88
679.885	5.67
680.209	5.77
680.532	5.55
680.856	6.37
681.18	5.14
681.504	5.38
681.828	6.17
682.152	4.98
682.475	5.7
682.799	5.87
683.122	5.4
683.446	5.16
683.769	6.06
684.093	5.69
684.416	6.07
684.739	5.22
685.062	6.14
685.386	5.94
685.709	5.21
686.032	5.7
686.355	5.76
686.678	5.54
687.001	5.83
687.324	6.68
687.646	5.11
687.969	4.67
688.292	5.67
688.614	4.92
688.937	5.92
689.26	5.6
689.582	5.3
689.904	5.33
690.227	5.9
690.549	5.2
690.871	5.89
691.194	6.05
691.516	5.41
691.838	5.95
692.16	4.63
692.482	4.99
692.804	5.02
693.126	4.97
693.448	5.66
693.769	6.39
694.091	4.79
694.413	6.5
694.735	4.4
695.056	5.26
695.378	5.1
695.699	5.02
696.021	4.84
696.342	4.4
696.663	5.13
696.984	5.22
697.306	4.73
697.627	5.93
697.948	5.3
698.269	5.66
698.59	6.77
698.911	5.18
699.232	4.48
699.553	5.15
699.873	5.24
700.194	6.46
700.515	5.85
700.835	5.76
701.156	5.7
701.477	5.1
701.797	5.39
702.117	5.76
702.438	5.79
702.758	4.86
703.078	4.56
703.398	4.59
703.719	4.36
704.039	3.64
704.359	5.63
704.679	5.31
704.999	4.65
705.319	4.92
705.638	5.62
705.958	5.34
706.278	5.7
706.597	5.26
706.917	5.17
707.237	5.45
707.556	5.12
707.876	4.93
708.195	5.53
708.514	5.01
708.834	5.07
709.153	5.77
709.472	7.06
709.791	6.67
710.11	4.85
710.429	6.02
710.748	6.42
711.067	5.68
711.386	5.59
711.705	5
712.023	5.55
712.342	4.61
712.661	4.64
712.979	5.62
713.298	5.2
713.616	6.75
713.935	5.46
714.253	5
714.572	5.78
714.89	5.09
715.208	6.38
715.526	5.39
715.844	5.36
716.162	5.5
716.48	6.38
716.798	6.53
717.116	5.52
717.434	6.04
717.752	3.75
718.069	6.05
718.387	5.17
718.705	4.77
719.022	4.8
719.34	6
719.657	5.34
719.975	6.08
720.292	5.95
720.609	7.2
720.927	5.89
721.244	7.04
721.561	5.23
721.878	7.27
722.195	3.87
722.512	6.88
722.829	6.84
723.146	5.52
723.463	6.26
723.779	4.22
724.096	6.08
724.413	4.68
724.729	4.77
725.046	4.41
725.362	5.08
725.679	5.46
725.995	4.26
726.311	4.95
726.628	5.05
726.944	6.51
727.26	6.66
727.576	6.31
727.892	5.84
728.208	4.55
728.524	4.24
728.84	4.78
729.156	4.93
729.472	3.54
729.787	5.04
730.103	6.54
730.419	5.98
730.734	6.61
731.05	4.82
731.365	3.93
731.681	6.83
731.996	5.47
732.311	5.3
732.626	5.51
732.942	4.06
733.257	5.99
733.572	6.18
733.887	5.92
734.202	5.68
734.517	6.1
734.832	6
735.146	5.76
735.461	7.12
735.776	4.59
736.091	6.23
736.405	6.26
736.72	3.79
737.034	5.58
737.349	7.84
737.663	6.36
737.977	5.58
738.292	5.33
738.606	6.14
738.92	5.68
739.234	4.62
739.548	4.53
739.862	5.44
740.176	3.93
740.49	5.99
740.804	7.56
741.117	5.69
741.431	5.37
741.745	4.86
742.058	5.25
742.372	3.87
742.685	5.05
742.999	6.17
743.312	4.54
743.626	4.62
743.939	7.55
744.252	6.82
744.565	4.06
744.878	7.1
745.191	3.78
745.505	4.79
745.817	6.88
746.13	5.85
746.443	6.82
746.756	7.65
747.069	5.57
747.381	6.28
747.694	5.86
748.007	3.72
748.319	5.2
748.632	6.14
748.944	5.27
749.256	6.32
749.569	4.34
749.881	8.56
750.193	6.69
750.505	6.31
750.817	5.16
751.129	6.62
751.441	7.39
751.753	6.04
752.065	6.89
752.377	5.6
752.689	7.46
753	5.23
753.312	7.18
753.624	6.61
753.935	7.76
754.247	5.8
754.558	5.43
754.869	5.39
755.181	5.53
755.492	6.27
755.803	4.06
756.114	6.73
756.425	5.04
756.736	5.89
757.047	7.75
757.358	6.7
757.669	6.67
757.98	6.67
758.291	7.19
758.601	5.72
758.912	5.93
759.223	6.45
759.533	3.73
759.844	5.07
760.154	3.52
760.464	7.1
760.775	4.57
761.085	5.97
761.395	5.95
761.705	5.31
762.016	4.29
762.326	6.61
762.636	4.05
762.945	3.83
763.255	6.31
763.565	3.36
763.875	5.93
764.185	7.3
764.494	5.62
764.804	6.7
765.113	4.16
765.423	5.43
765.732	6.22
766.042	4.59
766.351	5.89
766.66	5.83
766.97	8.02
767.279	5.4
767.588	5.48
767.897	6.92
768.206	3.55
768.515	5.23
768.824	6.01
769.133	5.82
769.441	4.7
769.75	4.7
770.059	7.84
770.367	6.73
770.676	6.22
770.984	8.1
771.293	5.54
771.601	7.35
771.91	6.55
772.218	6.99
772.526	4.71
772.834	5.61
773.142	5.08
773.45	4.61
773.758	5.92
774.066	2.07
774.374	3.32
774.682	3.88
774.99	7.53
775.298	2.24
775.605	5.06
775.913	4.57
776.22	6.53
776.528	6.29
776.835	11.11
777.143	5.27
777.45	2.87
777.757	9.23
778.065	5.04
778.372	2.27
778.679	5.2
778.986	4.64
779.293	2.12
779.6	6.95
779.907	7.43
780.214	8.45
780.52	5.95
780.827	6.68
781.134	5.6
781.44	2.45
781.747	5.48
782.053	2.54
782.36	4.32
782.666	3.1
782.973	4.04
783.279	6.58
783.585	5.8
783.891	8.21
784.197	5.83
784.503	6.48
784.809	3.55
785.115	9.6
785.421	7.23
785.727	7.78
786.033	7.06
786.339	7.67
786.644	5.23
786.95	6.75
787.255	4.92
787.561	6.77
787.866	3.9
788.172	3.69
788.477	3.18
788.782	3.52
789.088	6.35
789.393	3.62
789.698	5.11
790.003	-0.33
790.308	3.24
790.613	4.4
790.918	8.71
791.223	8.15
791.527	2.45
791.832	4.35
792.137	-0.98
792.441	3.06
792.746	1.45
793.05	1.36
793.355	6.08
793.659	9.99
793.963	1.78
794.268	5.12
794.572	8.69
794.876	5.74
795.18	6.75
795.484	3
795.788	6.48
796.092	3.11
796.396	8.04
796.7	2.22
797.004	1.89
797.307	-0.14
797.611	8.95
797.915	4.86
798.218	2.38
798.522	8.91
798.825	6.65
799.128	7.55
799.432	3.44
799.735	4.87
800.038	10.81
800.341	0.45
800.644	2.21
800.947	9.87
801.25	6
801.553	5.51
801.856	-0.03
802.159	0.05
802.462	3.89
802.764	6.07
803.067	4.3
803.37	6.7
803.672	0.29
803.975	0.94
804.277	-0.16
804.579	4.51
804.882	4.53
805.184	3.57
805.486	3.95
805.788	4.88
806.09	12.63
806.392	1.98
806.694	9.01
806.996	8.17
807.298	4.46
807.6	0.28
807.902	6.56
808.203	1.95
808.505	5.32
808.807	7.51
809.108	3.31
809.409	7.11
809.711	0.85
810.012	2.3
810.313	3.49
810.615	6.21
810.916	4.69
811.217	2.51
811.518	4.05
811.819	5.96
812.12	3.38
812.421	1.68
812.722	8.15
813.023	6.79
813.323	6.26
813.624	-1.22
813.925	7.69
814.225	4.26
814.526	8.32
814.826	10.86
815.126	-2.89
815.427	7.55
815.727	5.23
816.027	6.76
816.327	-0.09
816.627	-3.04
816.927	6.16
817.227	9.05
817.527	3.8
817.827	9.03
818.127	10.66
818.427	4.09
818.727	3.82
819.026	5.22
819.326	6.61
819.625	6.9
819.925	-0.35
820.224	8.21
820.524	4.6
820.823	10.44
821.122	2.19
821.421	5.97
821.72	0.25
822.019	3.75
822.318	9
822.617	-2.71
822.916	5.54
823.215	1.6
823.514	10.06
823.813	4.95
824.111	5.87
824.41	7.92
824.709	8.41
825.007	6.34
825.306	6.34
825.604	7.8
825.902	6.85
826.201	6.31
826.499	6.58
826.797	7.03
827.095	7.9
827.393	7.27
827.691	8.39
827.989	4.74
828.287	8.03
828.585	4.39
828.882	6.9
829.18	6.95
829.478	11.25
829.775	7.14
830.073	9.45
830.37	7.56
830.668	4.62
830.965	10.46
831.263	7.74
831.56	6.69
831.857	2.75
832.154	7.08
832.451	3.04
832.748	5.25
833.045	3.84
833.342	12.6
833.639	8.24
833.936	0.23
834.232	5.85
834.529	2.06
834.826	1.64
835.122	5.57
835.419	2.16
835.715	4.08
836.012	5.14
836.308	1.48
836.604	-2.18
836.901	4.38
837.197	5.71
837.493	6.6
837.789	7.45
838.085	6.68
838.381	3.98
838.677	7.5
838.972	4.35
839.268	4.57
839.564	4.21
839.86	7.04
840.155	-1.16
840.451	-12.16
840.746	4.42
841.042	6.11
841.337	1.63
841.632	4.11
841.928	5.3
842.223	-7.35
842.518	-1.63
842.813	14.76
843.108	0.69
843.403	14.29
843.698	3.01
843.993	5.34
844.287	-0.1
844.582	-2.68
844.877	4.97
845.171	0.62
845.466	2.81
845.761	7.23
846.055	6.7
846.349	13.24
846.644	-20.14
846.938	-18.26
847.232	-1.91
847.526	-2.57
847.82	10.83
848.114	-10.87
848.408	1.13
848.702	14.48
848.996	-27.88
849.29	16.85
849.584	9.56
849.877	4.31
850.171	9.06
850.465	5.92
850.758	10.02
851.052	-31.43
851.345	8.56
851.638	8.47
851.932	-21.16
852.225	-12.15
852.518	-11.1
852.811	-25.15
853.104	-45.92
853.397	-0.91
853.69	-33.55
853.983	-16.64
854.276	10.58
854.569	-13.1
854.861	-11.54
855.154	-12.49
855.447	-44.89
855.739	-2.47
856.032	-18.37
856.324	9.19
856.616	7.51
856.909	13.62
857.201	2.96
857.493	-19.63
857.785	-28.62
858.077	-3.83
858.369	-12.01
858.661	-11.9
858.953	-17.26
859.245	-19.04
859.537	-10.93
859.829	21.65
860.12	17.12
860.412	-16.36
860.703	-17.75
860.995	-15.64
861.286	-20.73
861.578	-22.13
861.869	7.24
862.16	-4.41
862.452	4.7
862.743	-32.69
863.034	5.61
863.325	4.41
863.616	-48.78
863.907	-11.6
864.198	-17.7
864.488	15.95
864.779	-10.89
865.07	-9.93
865.36	-21.73
865.651	10.69
865.941	-1.84
866.232	-30.88
866.522	-12.53
866.813	0.41
867.103	22.45
867.393	-35.65
867.683	5.99
867.973	-55.66
868.263	-2.96
868.553	7.66
868.843	-18.44
869.133	-62.93
869.423	11.33
869.713	3.39
870.002	16.63
870.292	3.39
870.582	-24.27
870.871	-54.66
871.161	0.11
871.45	-31.7
871.739	-34.88
872.029	-28
872.318	14.06
872.607	28.98
872.896	-51.43
873.185	20.12
873.474	-38.26
873.763	-21.8
874.052	13.45
874.341	16.45
874.63	-22.13
874.918	8.78
875.207	42.82
875.496	8.12
875.784	-44
876.073	-60.09
876.361	-59.99
876.649	-23.81
876.938	-32.57
877.226	-16.04
877.514	4
877.802	-13.05
878.09	-45.59
878.378	18.91
878.666	-15.56
878.954	-47.85
879.242	-26.91
879.53	10.82
879.817	0.74
880.105	-7.8
880.392	-8.7
880.68	-27.46
880.967	-20.3
881.255	2.48
881.542	-29.98
881.83	-87.86
882.117	-0.75
882.404	-36.79
882.691	4.37
882.978	-9.49
883.265	-2.31
883.552	3.38
883.839	12.7
884.126	-9.59
884.413	25.62
884.699	3.88
884.986	18.84
885.273	1.35
885.559	1.35
885.846	1.35
