Data from 0002_chest_Reflection__3__274.txt Node

Date: Thu Dec 15 18:53:16 CST 2022
User: ToomeyLab
Spectrometer: FLMS14357
Trigger mode: 0
Integration Time (sec): 1.000000E-2
Scans to average: 100
Electric dark correction enabled: true
Nonlinearity correction enabled: false
Boxcar width: 0
XAxis mode: Wavelengths
Number of Pixels in Spectrum: 2048
>>>>>Begin Spectral Data<<<<<
189.047	-117.65
189.435	-117.65
189.823	-117.65
190.211	-57.43
190.599	16.32
190.987	216.1
191.375	-86.52
191.763	33.72
192.151	-21.53
192.538	63.19
192.926	49.01
193.314	101.89
193.702	-16658.33
194.089	-28.98
194.477	-50.93
194.864	78.78
195.252	187.62
195.639	92.66
196.027	58.83
196.414	-25.97
196.801	-2.39
197.189	118.06
197.576	-1.56
197.963	-432.38
198.351	-8.57
198.738	-53.86
199.125	-57.86
199.512	-14.3
199.899	-60.86
200.286	18.48
200.673	45.77
201.06	18.7
201.447	-8.2
201.833	11.58
202.22	12.13
202.607	-49.48
202.994	-20.62
203.38	14.32
203.767	-1.03
204.154	30.2
204.54	-4.64
204.927	19.09
205.313	44.78
205.699	14.53
206.086	10.61
206.472	18.01
206.858	-7.21
207.245	6.48
207.631	-24.76
208.017	25.66
208.403	-36.94
208.789	-12.49
209.175	-15.58
209.561	-82.39
209.947	-16.93
210.333	7.04
210.719	32.78
211.105	33.68
211.491	30
211.876	-18.28
212.262	45.98
212.648	0.9
213.034	-7.76
213.419	-4.89
213.805	-8.47
214.19	-22.05
214.576	7.36
214.961	14.09
215.346	-16.23
215.732	10.01
216.117	-7.54
216.502	-61.5
216.888	-16.75
217.273	-1.93
217.658	-16.11
218.043	-31.52
218.428	-44.45
218.813	1.15
219.198	-19.85
219.583	-29.69
219.968	26.49
220.353	-2.63
220.738	-23.86
221.122	-16.18
221.507	-23.44
221.892	-37.68
222.276	-14.19
222.661	-24.34
223.046	-15.53
223.43	10.17
223.815	0.89
224.199	18.59
224.583	-13.05
224.968	-1.42
225.352	-6.84
225.736	17.06
226.121	-3.81
226.505	0.99
226.889	1.05
227.273	-4.79
227.657	-0.67
228.041	0.36
228.425	0.11
228.809	-0.05
229.193	2.25
229.577	1.82
229.961	2.32
230.344	3.2
230.728	4.35
231.112	3.38
231.495	1.5
231.879	1.91
232.263	3.35
232.646	2.96
233.03	5.24
233.413	2.56
233.797	-0.06
234.18	3.82
234.563	6.19
234.946	-0.18
235.33	2.75
235.713	3.95
236.096	4.81
236.479	2.53
236.862	2.3
237.245	1.56
237.628	3.4
238.011	2.62
238.394	2.57
238.777	2.07
239.16	3.24
239.543	4.38
239.925	1.74
240.308	1.81
240.691	2.53
241.073	2
241.456	2.82
241.838	2.13
242.221	3.43
242.603	3.19
242.986	3.37
243.368	3.66
243.75	3.35
244.133	3.59
244.515	2.94
244.897	2.55
245.279	2.72
245.661	3.69
246.043	2.82
246.425	3.31
246.807	2.71
247.189	2.98
247.571	2.77
247.953	2.88
248.335	3.02
248.717	3.18
249.098	3.25
249.48	2.92
249.862	3.13
250.243	3.28
250.625	3.34
251.006	3.57
251.388	3.19
251.769	1.47
252.151	3.18
252.532	2.69
252.913	3
253.295	2.8
253.676	2.95
254.057	2.8
254.438	3.23
254.819	2.35
255.2	3.09
255.581	3.92
255.962	2.97
256.343	3.65
256.724	2.82
257.105	3.15
257.486	2.43
257.867	2.08
258.247	3.3
258.628	2.7
259.009	2.66
259.389	2.31
259.77	2.18
260.15	3.51
260.531	2.89
260.911	2.78
261.292	2.95
261.672	2.93
262.052	2.82
262.432	2.17
262.813	2.76
263.193	3.38
263.573	2.93
263.953	2.79
264.333	2.79
264.713	3.04
265.093	2.94
265.473	2.36
265.853	2.24
266.233	2.91
266.612	1.95
266.992	2.32
267.372	3.47
267.752	3.28
268.131	2.55
268.511	2.77
268.89	3.49
269.27	1.71
269.649	1.93
270.029	2.47
270.408	2.44
270.787	2.82
271.167	2.79
271.546	3.72
271.925	2.5
272.304	2.7
272.683	2.48
273.062	2.6
273.441	2.39
273.82	2.84
274.199	2.79
274.578	3.1
274.957	2.41
275.336	2.97
275.715	3.17
276.093	2.46
276.472	2.79
276.851	2.27
277.229	2.68
277.608	2.34
277.986	2.43
278.365	2.89
278.743	3.04
279.122	2.4
279.5	2.27
279.878	2.38
280.257	2.92
280.635	3.15
281.013	2.44
281.391	2.38
281.769	3
282.147	2.23
282.525	2.5
282.903	2.48
283.281	3.06
283.659	2.65
284.037	2.55
284.415	2.04
284.792	2.88
285.17	2.54
285.548	2.24
285.925	2.26
286.303	3.1
286.68	2.64
287.058	2.51
287.435	2.62
287.813	2.47
288.19	2.27
288.567	2.86
288.945	1.8
289.322	2.37
289.699	2.78
290.076	2.69
290.453	2.45
290.83	2.56
291.207	2.26
291.584	2.72
291.961	2.63
292.338	2.53
292.715	2.2
293.092	2.72
293.469	2.25
293.845	2.81
294.222	2.61
294.599	2.65
294.975	2.35
295.352	2.32
295.728	2.65
296.105	2.19
296.481	2.64
296.858	2.71
297.234	2.27
297.61	2.55
297.986	3.06
298.363	2.52
298.739	2.75
299.115	2.47
299.491	2.65
299.867	2.28
300.243	2.4
300.619	2.25
300.995	2.95
301.371	2.76
301.746	2.72
302.122	2.65
302.498	2.47
302.874	2.81
303.249	2.3
303.625	2.37
304	2.86
304.376	2.7
304.751	2.33
305.127	2.21
305.502	2.65
305.878	2.62
306.253	2.4
306.628	2.84
307.003	2.3
307.378	1.67
307.754	2.62
308.129	2.41
308.504	2.45
308.879	2.41
309.254	2.32
309.629	2.52
310.003	2.58
310.378	2.57
310.753	2.62
311.128	2.16
311.502	2.65
311.877	2.15
312.252	2.56
312.626	2.85
313.001	2.7
313.375	2.59
313.75	2.74
314.124	2.82
314.498	3
314.873	2.65
315.247	2.24
315.621	2.53
315.995	2.67
316.369	2.29
316.743	2.54
317.117	2.48
317.491	2.42
317.865	2.25
318.239	2.73
318.613	2.14
318.987	2.04
319.361	2.33
319.734	2.71
320.108	2.64
320.482	3.15
320.855	2.46
321.229	2.15
321.602	2.24
321.976	1.83
322.349	2.47
322.723	2.11
323.096	2.73
323.469	2.27
323.843	2.35
324.216	2.66
324.589	2.59
324.962	2.4
325.335	1.9
325.708	2.44
326.081	2.32
326.454	2.74
326.827	1.87
327.2	2.44
327.573	2.63
327.945	1.86
328.318	2.17
328.691	2.5
329.063	1.88
329.436	1.46
329.809	2.23
330.181	3.28
330.553	2.58
330.926	2.69
331.298	2.27
331.671	2.71
332.043	1.9
332.415	2.8
332.787	2.71
333.159	2.7
333.532	2.34
333.904	2.66
334.276	2.51
334.648	2.45
335.02	2.06
335.391	2.27
335.763	2.59
336.135	2.56
336.507	2.57
336.879	2.3
337.25	2.09
337.622	2.9
337.993	2.44
338.365	2.52
338.736	2.58
339.108	2.62
339.479	2.37
339.851	2.81
340.222	2.68
340.593	2.54
340.964	2.58
341.336	2.49
341.707	2.51
342.078	2.51
342.449	2.26
342.82	2.88
343.191	2.53
343.562	2.78
343.933	2.23
344.303	2.98
344.674	2.75
345.045	2.88
345.416	2.71
345.786	2.52
346.157	2.55
346.527	2.35
346.898	2.28
347.268	2.82
347.639	2.55
348.009	2.57
348.38	2.33
348.75	2.55
349.12	2.79
349.49	2.73
349.861	2.6
350.231	2.41
350.601	2.23
350.971	2.3
351.341	2.64
351.711	2.53
352.081	2.26
352.45	2.41
352.82	2.05
353.19	2.67
353.56	2.16
353.929	2.33
354.299	2.39
354.669	2.81
355.038	2.71
355.408	2.33
355.777	2.84
356.147	2.43
356.516	2.35
356.885	2.74
357.254	2.23
357.624	2.38
357.993	2.75
358.362	2.72
358.731	2.86
359.1	2.39
359.469	2.78
359.838	2.64
360.207	2.42
360.576	2.95
360.945	2.64
361.314	2.49
361.682	2.28
362.051	2.19
362.42	2.74
362.788	2.83
363.157	2.7
363.525	2.46
363.894	2.49
364.262	2.55
364.631	2.82
364.999	2.59
365.367	2.44
365.735	2.48
366.104	2.58
366.472	2.32
366.84	2.51
367.208	2.72
367.576	2.54
367.944	2.82
368.312	2.52
368.68	2.8
369.048	2.82
369.416	2.22
369.783	2.41
370.151	3.07
370.519	2.88
370.886	2.3
371.254	2.95
371.621	2.88
371.989	2.8
372.356	2.63
372.724	2.64
373.091	2.43
373.458	2.74
373.826	2.81
374.193	2.54
374.56	2.55
374.927	2.56
375.294	3.05
375.661	2.94
376.028	2.45
376.395	2.7
376.762	2.48
377.129	2.68
377.496	2.66
377.863	2.74
378.229	2.83
378.596	2.8
378.963	2.83
379.329	2.76
379.696	2.69
380.062	2.73
380.429	2.8
380.795	2.91
381.161	2.55
381.528	2.26
381.894	2.79
382.26	2.92
382.626	2.6
382.993	3.13
383.359	2.6
383.725	2.6
384.091	2.91
384.457	2.65
384.823	2.84
385.188	2.82
385.554	2.69
385.92	2.66
386.286	2.68
386.651	2.41
387.017	2.85
387.383	2.73
387.748	2.81
388.114	2.72
388.479	2.68
388.845	2.46
389.21	2.82
389.575	3.01
389.94	2.94
390.306	2.66
390.671	2.84
391.036	2.65
391.401	2.93
391.766	2.63
392.131	3.07
392.496	2.65
392.861	2.76
393.226	2.39
393.591	2.84
393.956	2.8
394.32	2.92
394.685	2.89
395.05	2.73
395.414	2.68
395.779	2.89
396.143	2.74
396.508	2.64
396.872	2.69
397.236	3.09
397.601	2.85
397.965	2.83
398.329	2.82
398.694	2.72
399.058	2.92
399.422	3.12
399.786	2.6
400.15	2.77
400.514	2.93
400.878	2.94
401.242	2.86
401.605	2.8
401.969	2.84
402.333	2.59
402.697	3.09
403.06	2.83
403.424	2.88
403.787	2.86
404.151	2.93
404.514	2.82
404.878	2.52
405.241	2.89
405.604	2.69
405.968	2.87
406.331	2.94
406.694	2.9
407.057	2.84
407.42	2.97
407.783	2.99
408.146	2.87
408.509	2.85
408.872	2.87
409.235	2.91
409.598	2.84
409.961	3.04
410.323	2.8
410.686	2.91
411.049	2.91
411.411	2.82
411.774	2.91
412.136	2.93
412.499	3.11
412.861	2.58
413.223	2.9
413.586	2.86
413.948	3.14
414.31	2.82
414.672	2.86
415.035	3.01
415.397	2.78
415.759	2.67
416.121	3.03
416.483	2.91
416.845	2.95
417.206	2.73
417.568	2.67
417.93	2.92
418.292	2.94
418.653	2.82
419.015	2.83
419.377	2.86
419.738	2.9
420.1	2.92
420.461	2.81
420.822	2.88
421.184	2.85
421.545	2.94
421.906	2.93
422.267	2.82
422.629	2.9
422.99	2.87
423.351	2.83
423.712	2.86
424.073	2.94
424.434	2.98
424.795	2.85
425.155	2.74
425.516	2.78
425.877	2.85
426.238	2.89
426.598	2.89
426.959	2.92
427.32	2.79
427.68	2.9
428.041	3.01
428.401	2.83
428.761	3.05
429.122	2.8
429.482	2.96
429.842	2.87
430.202	2.96
430.563	2.95
430.923	2.89
431.283	3
431.643	3.04
432.003	3.01
432.363	3.13
432.722	3.06
433.082	2.71
433.442	3.09
433.802	3
434.161	2.88
434.521	2.93
434.881	3
435.24	2.86
435.6	3.04
435.959	2.93
436.319	3.02
436.678	3.05
437.037	2.87
437.396	3.09
437.756	2.88
438.115	2.98
438.474	3.03
438.833	2.9
439.192	2.86
439.551	2.84
439.91	3.01
440.269	2.91
440.628	2.87
440.987	2.94
441.345	2.86
441.704	2.87
442.063	2.88
442.421	2.93
442.78	2.9
443.138	2.95
443.497	2.85
443.855	3.05
444.214	2.84
444.572	3.09
444.93	2.95
445.288	2.96
445.647	2.79
446.005	3.04
446.363	2.98
446.721	2.97
447.079	2.92
447.437	2.95
447.795	2.98
448.153	2.92
448.51	2.93
448.868	2.95
449.226	2.97
449.584	2.97
449.941	2.98
450.299	2.98
450.656	2.91
451.014	3.1
451.371	3.02
451.729	3.08
452.086	3.06
452.443	3.14
452.801	3.11
453.158	3.18
453.515	2.96
453.872	3.04
454.229	2.86
454.586	2.81
454.943	3.03
455.3	2.9
455.657	3
456.014	3.13
456.371	2.98
456.727	2.93
457.084	3.27
457.441	3.14
457.797	3
458.154	3.07
458.51	2.9
458.867	2.99
459.223	2.88
459.58	3.06
459.936	3.1
460.292	3.06
460.648	2.94
461.005	3.07
461.361	3.01
461.717	2.99
462.073	3.03
462.429	3.11
462.785	3.15
463.141	3.02
463.496	3.11
463.852	3.18
464.208	3.21
464.564	3.08
464.919	3.11
465.275	3
465.631	3.13
465.986	3.28
466.342	3.04
466.697	3.13
467.052	3.28
467.408	3.28
467.763	3.09
468.118	2.9
468.473	3.04
468.829	2.99
469.184	3.18
469.539	2.98
469.894	3.22
470.249	3.12
470.603	3.06
470.958	3.1
471.313	3.14
471.668	3.18
472.023	3.07
472.377	3.06
472.732	3.19
473.086	3
473.441	3.12
473.795	3.3
474.15	3.05
474.504	3.14
474.859	2.82
475.213	3.08
475.567	2.94
475.921	3.12
476.275	3.16
476.63	3.08
476.984	2.91
477.338	3.06
477.692	3.12
478.045	3.06
478.399	3.16
478.753	3.11
479.107	3.16
479.461	3.12
479.814	3.25
480.168	3.13
480.521	3.09
480.875	3.17
481.228	3.14
481.582	3.08
481.935	3.25
482.289	3.29
482.642	3.26
482.995	3.11
483.348	3.13
483.701	3.2
484.055	3.04
484.408	3.03
484.761	3.05
485.114	2.91
485.466	2.89
485.819	2.95
486.172	2.97
486.525	3
486.878	3.09
487.23	3.04
487.583	3.11
487.936	3.01
488.288	3.07
488.641	3.05
488.993	2.99
489.345	2.98
489.698	3.01
490.05	3.02
490.402	3.06
490.754	3.09
491.107	3.09
491.459	3.11
491.811	3.23
492.163	3.13
492.515	3.03
492.866	2.99
493.218	3.04
493.57	3.06
493.922	3.07
494.274	3.28
494.625	3.24
494.977	3.14
495.328	3.13
495.68	3.22
496.031	3.21
496.383	3.15
496.734	3.08
497.086	3.3
497.437	3.28
497.788	3.22
498.139	3.15
498.49	3.24
498.842	3.34
499.193	3.16
499.544	3.28
499.894	3.18
500.245	3.33
500.596	3.29
500.947	3.21
501.298	3.22
501.648	3.24
501.999	3.35
502.35	3.09
502.7	3.37
503.051	3.28
503.401	3.32
503.752	3.25
504.102	3.21
504.452	3.24
504.803	3.1
505.153	3.36
505.503	3.28
505.853	3.33
506.203	3.31
506.553	3.27
506.903	3.26
507.253	3.22
507.603	3.39
507.953	3.36
508.303	3.28
508.652	3.17
509.002	3.42
509.352	3.36
509.701	3.26
510.051	3.37
510.4	3.35
510.75	3.22
511.099	3.21
511.449	3.39
511.798	3.34
512.147	3.42
512.496	3.35
512.846	3.38
513.195	3.24
513.544	3.39
513.893	3.32
514.242	3.32
514.591	3.32
514.939	3.39
515.288	3.43
515.637	3.34
515.986	3.41
516.334	3.45
516.683	3.37
517.032	3.35
517.38	3.33
517.729	3.41
518.077	3.37
518.426	3.41
518.774	3.33
519.122	3.44
519.47	3.34
519.819	3.43
520.167	3.36
520.515	3.43
520.863	3.33
521.211	3.41
521.559	3.45
521.907	3.53
522.255	3.41
522.602	3.44
522.95	3.51
523.298	3.52
523.645	3.61
523.993	3.48
524.341	3.54
524.688	3.52
525.036	3.56
525.383	3.53
525.73	3.37
526.078	3.59
526.425	3.5
526.772	3.44
527.119	3.54
527.466	3.48
527.814	3.54
528.161	3.53
528.508	3.58
528.854	3.51
529.201	3.42
529.548	3.4
529.895	3.38
530.242	3.39
530.588	3.38
530.935	3.44
531.282	3.44
531.628	3.49
531.975	3.49
532.321	3.53
532.667	3.58
533.014	3.6
533.36	3.58
533.706	3.62
534.052	3.61
534.399	3.58
534.745	3.57
535.091	3.44
535.437	3.53
535.783	3.55
536.129	3.58
536.474	3.67
536.82	3.68
537.166	3.6
537.512	3.59
537.857	3.65
538.203	3.62
538.549	3.61
538.894	3.63
539.239	3.68
539.585	3.66
539.93	3.73
540.276	3.67
540.621	3.79
540.966	3.71
541.311	3.83
541.656	3.67
542.001	3.66
542.346	3.68
542.691	3.64
543.036	3.68
543.381	3.66
543.726	3.7
544.071	3.74
544.415	3.69
544.76	3.76
545.105	3.72
545.449	3.8
545.794	3.84
546.138	3.77
546.483	3.83
546.827	3.83
547.171	3.92
547.516	3.9
547.86	3.91
548.204	3.96
548.548	3.92
548.892	3.92
549.236	3.87
549.58	4.01
549.924	3.99
550.268	4
550.612	3.93
550.956	4.15
551.3	4.14
551.643	4
551.987	4.28
552.33	4.26
552.674	4.05
553.017	4.14
553.361	4.15
553.704	4.35
554.048	4.08
554.391	4.1
554.734	4.1
555.077	4.24
555.42	4.1
555.764	4.21
556.107	4.23
556.45	4.17
556.793	4.31
557.135	4.29
557.478	4.17
557.821	4.47
558.164	4.4
558.507	4.2
558.849	4.36
559.192	4.11
559.534	4.18
559.877	4.42
560.219	4.28
560.562	4.26
560.904	4.4
561.246	4.36
561.589	4.5
561.931	4.36
562.273	4.33
562.615	4.42
562.957	4.33
563.299	4.47
563.641	4.2
563.983	4.32
564.325	4.35
564.667	4.38
565.008	4.35
565.35	4.38
565.692	4.4
566.033	4.55
566.375	4.41
566.716	4.42
567.058	4.51
567.399	4.54
567.741	4.54
568.082	4.56
568.423	4.42
568.764	4.59
569.105	4.66
569.447	4.42
569.788	4.6
570.129	4.5
570.47	4.71
570.811	4.61
571.151	4.68
571.492	4.55
571.833	4.56
572.174	4.73
572.514	4.73
572.855	4.87
573.195	4.56
573.536	4.82
573.876	4.7
574.217	4.72
574.557	4.81
574.898	4.71
575.238	4.82
575.578	4.82
575.918	4.8
576.258	4.96
576.598	4.85
576.938	4.87
577.278	4.96
577.618	4.84
577.958	4.91
578.298	4.89
578.638	4.88
578.977	4.93
579.317	5
579.657	5.11
579.996	5.02
580.336	5.07
580.675	4.92
581.014	5
581.354	4.92
581.693	5.21
582.032	5.13
582.372	5.25
582.711	5.27
583.05	5.09
583.389	5.34
583.728	5.45
584.067	5.32
584.406	5.35
584.745	5.25
585.083	5.21
585.422	5.5
585.761	5.17
586.1	5.23
586.438	5.37
586.777	5.28
587.115	5.33
587.454	5.13
587.792	5.3
588.13	5.34
588.469	5.31
588.807	5.52
589.145	5.49
589.483	5.28
589.821	5.64
590.159	5.7
590.497	5.64
590.835	5.61
591.173	5.7
591.511	5.68
591.849	5.67
592.187	5.73
592.524	5.66
592.862	5.59
593.2	5.61
593.537	5.76
593.875	5.5
594.212	5.57
594.55	5.79
594.887	5.61
595.224	5.75
595.561	5.79
595.899	5.9
596.236	5.96
596.573	5.92
596.91	5.93
597.247	5.99
597.584	5.97
597.921	5.83
598.258	5.97
598.594	5.9
598.931	5.66
599.268	5.84
599.604	5.96
599.941	6.03
600.277	5.94
600.614	5.99
600.95	6
601.287	5.81
601.623	5.9
601.959	6.25
602.296	6.27
602.632	5.92
602.968	6.1
603.304	6.41
603.64	6.18
603.976	6.2
604.312	6.13
604.648	6.32
604.984	6.18
605.319	6.27
605.655	6.18
605.991	6.25
606.326	6.25
606.662	6.18
606.998	6.47
607.333	6.41
607.668	6.2
608.004	6.48
608.339	6.34
608.674	6.55
609.01	6.7
609.345	6.55
609.68	6.59
610.015	6.71
610.35	6.67
610.685	6.46
611.02	6.5
611.355	6.7
611.689	6.47
612.024	6.68
612.359	6.71
612.694	6.65
613.028	6.72
613.363	6.82
613.697	6.66
614.032	6.52
614.366	6.81
614.7	7.02
615.035	6.75
615.369	7.15
615.703	6.92
616.037	6.82
616.371	6.81
616.705	7.05
617.039	6.99
617.373	6.96
617.707	7.15
618.041	6.72
618.375	6.58
618.709	7.24
619.042	7.09
619.376	6.92
619.71	7.06
620.043	7.29
620.377	7.25
620.71	7.23
621.043	7.49
621.377	7.54
621.71	7.9
622.043	7.31
622.376	7.21
622.709	7.61
623.043	7.5
623.376	7.23
623.709	7.58
624.041	7.39
624.374	7.4
624.707	7.61
625.04	7.53
625.373	7.75
625.705	7.85
626.038	7.54
626.37	7.38
626.703	7.6
627.035	7.76
627.368	7.62
627.7	7.71
628.032	7.43
628.365	7.91
628.697	7.95
629.029	7.57
629.361	8.04
629.693	7.68
630.025	8.05
630.357	7.89
630.689	7.75
631.021	7.93
631.353	8.16
631.684	8
632.016	7.71
632.348	7.79
632.679	8.14
633.011	8.27
633.342	7.93
633.674	8.15
634.005	8.16
634.336	8.36
634.668	8.22
634.999	8.13
635.33	8.51
635.661	7.95
635.992	8.09
636.323	8.03
636.654	8.27
636.985	8.31
637.316	8.19
637.647	8.1
637.977	8.21
638.308	8.59
638.639	8.17
638.969	8.35
639.3	8.47
639.63	8.37
639.961	8.6
640.291	8.38
640.622	8.53
640.952	8.42
641.282	8.44
641.612	8.57
641.943	8.29
642.273	8.87
642.603	8.76
642.933	9.14
643.263	8.87
643.592	8.83
643.922	9.33
644.252	9.19
644.582	9.1
644.911	8.88
645.241	8.72
645.571	8.79
645.9	8.96
646.23	8.97
646.559	8.8
646.888	9.34
647.218	8.99
647.547	9.03
647.876	9.18
648.205	8.92
648.534	9.02
648.863	9.42
649.192	9.56
649.521	9.63
649.85	9.01
650.179	9.02
650.508	9.23
650.837	9.02
651.165	9.36
651.494	9.36
651.822	9.53
652.151	8.87
652.479	9.6
652.808	9.26
653.136	9.4
653.465	9.37
653.793	9.09
654.121	9.53
654.449	9.37
654.777	9.28
655.105	9.37
655.433	9.94
655.761	9.59
656.089	9.44
656.417	10.12
656.745	10.36
657.073	9.6
657.4	9.68
657.728	9.37
658.056	10.04
658.383	9.76
658.711	9.92
659.038	10.17
659.365	9.84
659.693	9.92
660.02	9.82
660.347	9.69
660.674	9.9
661.001	10.06
661.329	9.62
661.656	9.77
661.982	9.97
662.309	9.71
662.636	9.51
662.963	10.35
663.29	10.19
663.616	10.05
663.943	10.41
664.27	10.53
664.596	9.96
664.923	10.46
665.249	10.47
665.576	10.23
665.902	10
666.228	10.84
666.554	10.57
666.881	10.29
667.207	10.57
667.533	10.91
667.859	9.85
668.185	10.28
668.511	10.56
668.837	10.77
669.162	10.7
669.488	9.98
669.814	10.58
670.139	10.17
670.465	11.03
670.791	10.12
671.116	10.5
671.442	9.61
671.767	10.47
672.092	10.78
672.418	10.89
672.743	10.45
673.068	10.92
673.393	11.29
673.718	10.62
674.043	11.11
674.368	10.77
674.693	10.98
675.018	10.82
675.343	11.24
675.667	10.7
675.992	11.55
676.317	10.46
676.641	11.53
676.966	11.29
677.29	10.45
677.615	10.96
677.939	11.61
678.264	11.02
678.588	11.54
678.912	11.12
679.236	11.49
679.56	11.42
679.885	11.71
680.209	11.84
680.532	11.79
680.856	11.18
681.18	12.14
681.504	11.21
681.828	10.97
682.152	11.65
682.475	11.47
682.799	11.37
683.122	11.73
683.446	11.17
683.769	11.77
684.093	11.26
684.416	11.77
684.739	11.7
685.062	11.83
685.386	11.93
685.709	11.61
686.032	11.84
686.355	11.32
686.678	11.97
687.001	11.17
687.324	11.81
687.646	11.68
687.969	12.39
688.292	12.05
688.614	11.95
688.937	12.53
689.26	11.85
689.582	12.68
689.904	11.83
690.227	11.84
690.549	12.6
690.871	12.16
691.194	11.76
691.516	11.36
691.838	12.65
692.16	12.04
692.482	12.43
692.804	12.92
693.126	11.99
693.448	12.23
693.769	11.99
694.091	12.22
694.413	12
694.735	12.77
695.056	12.25
695.378	12.35
695.699	13.09
696.021	12.76
696.342	11.74
696.663	13.18
696.984	11.74
697.306	11.71
697.627	13.07
697.948	12.66
698.269	12.5
698.59	12.38
698.911	12.74
699.232	13.11
699.553	13.54
699.873	12.87
700.194	12.83
700.515	12.58
700.835	12.93
701.156	13.2
701.477	12.73
701.797	12.64
702.117	12.45
702.438	13.58
702.758	12.86
703.078	13.55
703.398	13.76
703.719	13.38
704.039	13.37
704.359	13.36
704.679	13.9
704.999	13.98
705.319	12.77
705.638	13.09
705.958	13.08
706.278	13.98
706.597	13.3
706.917	13.39
707.237	12.62
707.556	12.93
707.876	13.59
708.195	14.74
708.514	13.41
708.834	13.08
709.153	13.31
709.472	14.38
709.791	13.49
710.11	12.82
710.429	14.66
710.748	14.78
711.067	13.84
711.386	14.13
711.705	14.24
712.023	14.24
712.342	13.65
712.661	14.12
712.979	14.42
713.298	14.1
713.616	14.99
713.935	14.07
714.253	14.1
714.572	13.33
714.89	15.17
715.208	13.57
715.526	13.69
715.844	14.55
716.162	14.65
716.48	14.31
716.798	15.15
717.116	15.12
717.434	14.69
717.752	14.47
718.069	14.78
718.387	14.4
718.705	14.41
719.022	15.2
719.34	13.94
719.657	14.24
719.975	14.47
720.292	14.45
720.609	13.11
720.927	15.47
721.244	15.25
721.561	14.47
721.878	15.09
722.195	15.55
722.512	15.73
722.829	15.16
723.146	14.68
723.463	13.93
723.779	13.25
724.096	12.88
724.413	16.03
724.729	16.24
725.046	14.63
725.362	15.04
725.679	13.88
725.995	14.15
726.311	15.29
726.628	16.18
726.944	16.02
727.26	14.64
727.576	15.54
727.892	15.41
728.208	15.14
728.524	14.99
728.84	15.22
729.156	14.89
729.472	14.69
729.787	15.02
730.103	14.74
730.419	14.39
730.734	14.29
731.05	15.36
731.365	16.79
731.681	16.98
731.996	15.6
732.311	15.05
732.626	15.85
732.942	16.17
733.257	15.67
733.572	16.01
733.887	16.7
734.202	15.31
734.517	16.25
734.832	15.71
735.146	16.42
735.461	16.46
735.776	16.26
736.091	17.13
736.405	16.7
736.72	15.03
737.034	16.18
737.349	16.07
737.663	15.9
737.977	16.77
738.292	16.69
738.606	17.33
738.92	16.65
739.234	15.73
739.548	16.64
739.862	16.2
740.176	16.22
740.49	16.52
740.804	16.02
741.117	14.81
741.431	18.04
741.745	16.48
742.058	18.42
742.372	14.47
742.685	17.38
742.999	15.91
743.312	16.19
743.626	17.26
743.939	16.25
744.252	16.72
744.565	16
744.878	15.33
745.191	17.44
745.505	16.98
745.817	15.71
746.13	19.2
746.443	16.04
746.756	17.3
747.069	18.74
747.381	16.13
747.694	17.95
748.007	16.77
748.319	17.46
748.632	15.78
748.944	16.11
749.256	16.76
749.569	17.38
749.881	17.23
750.193	15.44
750.505	17.56
750.817	17.68
751.129	17.15
751.441	17.76
751.753	18.71
752.065	18.01
752.377	18.89
752.689	16.53
753	17.52
753.312	17.92
753.624	16.49
753.935	16.49
754.247	17.02
754.558	16.83
754.869	18.49
755.181	17.45
755.492	17.12
755.803	19.02
756.114	18.58
756.425	17.5
756.736	18.76
757.047	19.17
757.358	18.65
757.669	16.8
757.98	17.57
758.291	18.28
758.601	16.76
758.912	17.41
759.223	17.2
759.533	19.75
759.844	18.85
760.154	18.48
760.464	20.1
760.775	18.94
761.085	18.41
761.395	16.63
761.705	17.47
762.016	19.17
762.326	20.97
762.636	19.38
762.945	19.75
763.255	17.33
763.565	19.42
763.875	17.51
764.185	18.8
764.494	17.36
764.804	17.13
765.113	19
765.423	19.96
765.732	20.04
766.042	18.78
766.351	19.2
766.66	19.64
766.97	19.26
767.279	19.96
767.588	16.46
767.897	17.47
768.206	19.16
768.515	20.15
768.824	19.79
769.133	17.49
769.441	18.53
769.75	17.79
770.059	19.71
770.367	20.24
770.676	19.69
770.984	16.92
771.293	17.48
771.601	18.14
771.91	17.62
772.218	18.82
772.526	18.83
772.834	17.29
773.142	16.98
773.45	22.55
773.758	19.77
774.066	18.47
774.374	21.53
774.682	19.52
774.99	16.77
775.298	20.52
775.605	16.42
775.913	18.83
776.22	18
776.528	18.9
776.835	19.93
777.143	22.18
777.45	16.12
777.757	18.91
778.065	17.86
778.372	17.92
778.679	22.91
778.986	21.62
779.293	20.95
779.6	21.66
779.907	16.97
780.214	19.59
780.52	20.14
780.827	20
781.134	19.07
781.44	20.8
781.747	21.7
782.053	16.51
782.36	19.09
782.666	20.34
782.973	16.5
783.279	22.51
783.585	20.69
783.891	21.26
784.197	21.03
784.503	18.6
784.809	21.66
785.115	21.3
785.421	20.63
785.727	24.5
786.033	18.35
786.339	21.56
786.644	17.36
786.95	19.45
787.255	17.38
787.561	19.13
787.866	21.23
788.172	20.81
788.477	20.56
788.782	15.46
789.088	19.37
789.393	21.23
789.698	20.43
790.003	22.41
790.308	21.22
790.613	19.01
790.918	19.83
791.223	22.84
791.527	25.71
791.832	22.17
792.137	23.37
792.441	20.7
792.746	20.61
793.05	20.65
793.355	20.23
793.659	21.28
793.963	22.87
794.268	23.11
794.572	22.39
794.876	18
795.18	22.49
795.484	23.68
795.788	24.23
796.092	19.06
796.396	15.97
796.7	19.71
797.004	19.58
797.307	19.14
797.611	20.15
797.915	18.82
798.218	19.25
798.522	18.12
798.825	24.41
799.128	22.62
799.432	22.37
799.735	17.85
800.038	24.13
800.341	24.29
800.644	18.99
800.947	23.1
801.25	21.01
801.553	23.79
801.856	27.15
802.159	20.24
802.462	17.63
802.764	20.74
803.067	23.56
803.37	23.48
803.672	18.17
803.975	18.69
804.277	17.55
804.579	21.63
804.882	25.57
805.184	20.69
805.486	20.49
805.788	27.81
806.09	21.21
806.392	23.34
806.694	27.42
806.996	26.35
807.298	18.97
807.6	21.71
807.902	24.78
808.203	22.08
808.505	20.37
808.807	23.05
809.108	19.14
809.409	23.74
809.711	23.64
810.012	22.63
810.313	21.97
810.615	23.4
810.916	25.59
811.217	19.35
811.518	18.69
811.819	20.96
812.12	22.09
812.421	18.79
812.722	19.24
813.023	24.51
813.323	22.48
813.624	27.31
813.925	21.49
814.225	30.37
814.526	19.27
814.826	20.83
815.126	21.08
815.427	23.88
815.727	22.99
816.027	24.55
816.327	23.27
816.627	29.33
816.927	17.38
817.227	19
817.527	26.99
817.827	22.36
818.127	18.59
818.427	20.51
818.727	23.67
819.026	22.18
819.326	25.17
819.625	21.68
819.925	23.51
820.224	25.09
820.524	21.16
820.823	23.1
821.122	20.94
821.421	14.65
821.72	22.4
822.019	17.85
822.318	29.41
822.617	25.27
822.916	21.39
823.215	25.7
823.514	25.24
823.813	24.11
824.111	24.98
824.41	23.96
824.709	25.14
825.007	25.47
825.306	27.1
825.604	26.48
825.902	27.07
826.201	26.78
826.499	25.81
826.797	25.73
827.095	26.45
827.393	26.73
827.691	27.5
827.989	27.45
828.287	26.96
828.585	22.6
828.882	24.07
829.18	25.12
829.478	27.1
829.775	25.62
830.073	27.95
830.37	25.51
830.668	27.19
830.965	29.41
831.263	27.59
831.56	25.91
831.857	26.59
832.154	24.45
832.451	25.96
832.748	26.48
833.045	26.18
833.342	25.72
833.639	24.99
833.936	20.43
834.232	28.19
834.529	22.71
834.826	30.09
835.122	26.4
835.419	24.03
835.715	23.07
836.012	28.98
836.308	31.31
836.604	27.4
836.901	26.03
837.197	24.8
837.493	27.18
837.789	23.87
838.085	21.76
838.381	27.31
838.677	29.29
838.972	23.64
839.268	24.47
839.564	26.58
839.86	27.78
840.155	25.18
840.451	29.15
840.746	23.72
841.042	30.09
841.337	18.55
841.632	22.23
841.928	22.14
842.223	22.93
842.518	26.75
842.813	21.23
843.108	27.34
843.403	27.68
843.698	28.01
843.993	25.1
844.287	18.97
844.582	20.78
844.877	32.26
845.171	27.49
845.466	22.87
845.761	34.23
846.055	29.43
846.349	25.03
846.644	17.79
846.938	25.47
847.232	22.34
847.526	27.73
847.82	19.05
848.114	30.59
848.408	32.7
848.702	33.82
848.996	29.48
849.29	31.15
849.584	15.36
849.877	26.04
850.171	22.61
850.465	22.9
850.758	17.26
851.052	11.82
851.345	27.2
851.638	24.57
851.932	3.13
852.225	29.76
852.518	18.5
852.811	6.11
853.104	27.79
853.397	12.92
853.69	39.72
853.983	19.76
854.276	23.39
854.569	16.74
854.861	25.19
855.154	21.13
855.447	23.03
855.739	-18.82
856.032	6.04
856.324	32.03
856.616	43.38
856.909	5.24
857.201	11.05
857.493	22.77
857.785	26.65
858.077	20.64
858.369	49.09
858.661	16.66
858.953	37.51
859.245	22.49
859.537	2.04
859.829	10.9
860.12	22.22
860.412	4.5
860.703	29.59
860.995	26.68
861.286	17.52
861.578	25.96
861.869	33.92
862.16	27.84
862.452	25.69
862.743	12.67
863.034	20.19
863.325	23.09
863.616	15.08
863.907	43.31
864.198	17.76
864.488	14.74
864.779	42.93
865.07	23.75
865.36	32.2
865.651	45.25
865.941	14.12
866.232	47.74
866.522	10.07
866.813	36.02
867.103	12.72
867.393	24.62
867.683	25.33
867.973	8.03
868.263	9.69
868.553	29.79
868.843	18.64
869.133	27.29
869.423	11.55
869.713	-6.04
870.002	31.54
870.292	28.47
870.582	1.45
870.871	19.69
871.161	9.21
871.45	9
871.739	37.44
872.029	28.97
872.318	15.35
872.607	40.83
872.896	24.51
873.185	47.91
873.474	-20.83
873.763	25.32
874.052	41.76
874.341	21.08
874.63	13.13
874.918	28.86
875.207	23.44
875.496	24.2
875.784	13.21
876.073	0.85
876.361	29.13
876.649	13.67
876.938	20.27
877.226	13.41
877.514	40.46
877.802	-36.7
878.09	39.69
878.378	16.98
878.666	34.92
878.954	37.45
879.242	9.05
879.53	24.54
879.817	8.17
880.105	27.83
880.392	19.27
880.68	30.09
880.967	0.52
881.255	21.99
881.542	-3.83
881.83	33.75
882.117	15.6
882.404	15.52
882.691	12.01
882.978	29.86
883.265	39.37
883.552	26.52
883.839	25.28
884.126	39.06
884.413	28.32
884.699	32.55
884.986	33.19
885.273	32.46
885.559	32.46
885.846	32.46
