Data from 0002_forehead_Reflection__2__283.txt Node

Date: Thu Dec 15 18:55:45 CST 2022
User: ToomeyLab
Spectrometer: FLMS14357
Trigger mode: 0
Integration Time (sec): 1.000000E-2
Scans to average: 100
Electric dark correction enabled: true
Nonlinearity correction enabled: false
Boxcar width: 0
XAxis mode: Wavelengths
Number of Pixels in Spectrum: 2048
>>>>>Begin Spectral Data<<<<<
189.047	0.63
189.435	0.63
189.823	0.63
190.211	-211.94
190.599	48.71
190.987	-403.77
191.375	-25.83
191.763	354.46
192.151	-12.63
192.538	41.65
192.926	172.15
193.314	144.78
193.702	17358.33
194.089	-67.48
194.477	-126.37
194.864	-84.15
195.252	154.63
195.639	28.42
196.027	55.09
196.414	129
196.801	-65.51
197.189	211.92
197.576	-16.91
197.963	-322.65
198.351	34.38
198.738	9.65
199.125	-35.73
199.512	14.71
199.899	-26.17
200.286	-25.02
200.673	64.87
201.06	-27.53
201.447	15.44
201.833	-7.63
202.22	7.11
202.607	8.32
202.994	-6.22
203.38	22.17
203.767	34.67
204.154	-20.5
204.54	-10.55
204.927	3.07
205.313	60.37
205.699	68.44
206.086	29.67
206.472	20.42
206.858	14.14
207.245	0.1
207.631	19.26
208.017	54.48
208.403	30.7
208.789	27.39
209.175	18.38
209.561	-106.42
209.947	27.81
210.333	33.88
210.719	42.82
211.105	19.57
211.491	22.63
211.876	-14.96
212.262	42.1
212.648	21.53
213.034	4.05
213.419	11.94
213.805	-32.41
214.19	-42.87
214.576	-28.32
214.961	12.57
215.346	-4.85
215.732	-5.28
216.117	30.89
216.502	-23.03
216.888	-13.71
217.273	-26.63
217.658	0.57
218.043	16.91
218.428	22.15
218.813	10.88
219.198	-18.6
219.583	-22.55
219.968	-2.39
220.353	3.48
220.738	-1.2
221.122	13.62
221.507	10.36
221.892	-30.24
222.276	-23.46
222.661	-24.7
223.046	-2.39
223.43	19.36
223.815	-0.72
224.199	1.69
224.583	-9.16
224.968	-10.44
225.352	-4.4
225.736	16.31
226.121	-9.03
226.505	-0.58
226.889	0.02
227.273	-0.8
227.657	7.11
228.041	2.39
228.425	1.58
228.809	2.72
229.193	2.7
229.577	2.72
229.961	2.63
230.344	4.45
230.728	4.63
231.112	4.99
231.495	2.27
231.879	3.61
232.263	4.79
232.646	3.03
233.03	6.17
233.413	4.97
233.797	3.29
234.18	5.37
234.563	3.12
234.946	2.11
235.33	3.57
235.713	4.76
236.096	5.01
236.479	5.22
236.862	4.79
237.245	4.11
237.628	4.39
238.011	5.23
238.394	5.78
238.777	4.33
239.16	5.3
239.543	5
239.925	4.25
240.308	2.67
240.691	3.5
241.073	3.83
241.456	4.32
241.838	3.22
242.221	3.86
242.603	4.23
242.986	3.19
243.368	4.29
243.75	3.86
244.133	4.07
244.515	3.48
244.897	3.63
245.279	3.99
245.661	3.47
246.043	3.56
246.425	4.7
246.807	5.03
247.189	4.07
247.571	3.64
247.953	4.09
248.335	4.04
248.717	4.09
249.098	4.02
249.48	4.44
249.862	4.13
250.243	4.03
250.625	4.04
251.006	4.44
251.388	4.09
251.769	3
252.151	4.06
252.532	3.43
252.913	4.29
253.295	3.76
253.676	3.68
254.057	4.04
254.438	4.25
254.819	4.54
255.2	3.89
255.581	4.81
255.962	3.94
256.343	4.72
256.724	3.75
257.105	3.37
257.486	2.64
257.867	4.15
258.247	4.09
258.628	4
259.009	3.07
259.389	3.03
259.77	3.91
260.15	4.2
260.531	3.61
260.911	4.22
261.292	3.92
261.672	3.98
262.052	3.99
262.432	3.49
262.813	4.03
263.193	3.97
263.573	4.29
263.953	4.24
264.333	4.12
264.713	4.23
265.093	3.5
265.473	2.72
265.853	3.81
266.233	3.69
266.612	3.84
266.992	4.33
267.372	4.49
267.752	4.28
268.131	4.25
268.511	3.92
268.89	4.29
269.27	3.32
269.649	3.75
270.029	3.65
270.408	3.86
270.787	3.66
271.167	4.24
271.546	4.6
271.925	3.71
272.304	3.66
272.683	3.55
273.062	3.94
273.441	3.8
273.82	4.22
274.199	4.26
274.578	3.89
274.957	4.05
275.336	4.43
275.715	4.2
276.093	3.58
276.472	3.44
276.851	3.81
277.229	3.87
277.608	3.47
277.986	3.91
278.365	4.73
278.743	4.24
279.122	3.99
279.5	4.13
279.878	3.9
280.257	4.25
280.635	4.09
281.013	3.83
281.391	3.93
281.769	3.88
282.147	4.04
282.525	3.31
282.903	3.62
283.281	3.84
283.659	4.32
284.037	4.03
284.415	3.82
284.792	4.18
285.17	3.74
285.548	3.97
285.925	3.89
286.303	4.59
286.68	4.34
287.058	4.09
287.435	4.21
287.813	4.17
288.19	4.17
288.567	3.82
288.945	4.02
289.322	4.61
289.699	4.66
290.076	4.38
290.453	3.4
290.83	4.12
291.207	3.76
291.584	4.11
291.961	4.59
292.338	4.4
292.715	4.09
293.092	4.84
293.469	4.33
293.845	4.63
294.222	5.19
294.599	4.63
294.975	3.7
295.352	4.43
295.728	4.79
296.105	4.75
296.481	4.72
296.858	4.72
297.234	4.37
297.61	4.47
297.986	4.89
298.363	4.71
298.739	4.85
299.115	4.93
299.491	5.14
299.867	4.54
300.243	4.62
300.619	4.7
300.995	5.14
301.371	5.1
301.746	5.19
302.122	4.82
302.498	4.53
302.874	5.22
303.249	5.04
303.625	5.04
304	5.19
304.376	5.2
304.751	5.54
305.127	4.84
305.502	5.49
305.878	5.47
306.253	5.03
306.628	5.72
307.003	5.36
307.378	5.35
307.754	5.54
308.129	5.48
308.504	5.94
308.879	6.28
309.254	5.87
309.629	5.48
310.003	5.67
310.378	6.08
310.753	5.93
311.128	5.63
311.502	5.55
311.877	5.7
312.252	6.09
312.626	6.31
313.001	5.91
313.375	6.09
313.75	6.02
314.124	6.34
314.498	6.39
314.873	5.97
315.247	6.51
315.621	5.98
315.995	6.46
316.369	5.8
316.743	5.85
317.117	6.2
317.491	6.44
317.865	6.12
318.239	6.74
318.613	6.23
318.987	6.44
319.361	6.59
319.734	6.59
320.108	7.04
320.482	7.07
320.855	6.61
321.229	7.02
321.602	6.44
321.976	5.86
322.349	6.76
322.723	6.91
323.096	7.46
323.469	7.09
323.843	6.6
324.216	6.51
324.589	7.06
324.962	6.96
325.335	6.97
325.708	6.9
326.081	7.61
326.454	7.32
326.827	7.42
327.2	7.29
327.573	7.71
327.945	6.86
328.318	7.33
328.691	7.36
329.063	6.87
329.436	7.29
329.809	7.8
330.181	8.22
330.553	7.9
330.926	7.52
331.298	7.44
331.671	8.04
332.043	7.58
332.415	7.81
332.787	7.99
333.159	7.61
333.532	7.95
333.904	7.67
334.276	7.83
334.648	7.82
335.02	7.66
335.391	7.88
335.763	8.08
336.135	8.32
336.507	8.05
336.879	8.31
337.25	8.15
337.622	8.09
337.993	7.79
338.365	8.16
338.736	8.27
339.108	8.1
339.479	7.98
339.851	8.6
340.222	8.58
340.593	8.2
340.964	8.37
341.336	8.27
341.707	8.58
342.078	8.25
342.449	8.75
342.82	8.48
343.191	8.5
343.562	8.18
343.933	8.79
344.303	8.88
344.674	8.79
345.045	8.9
345.416	9.02
345.786	8.69
346.157	9
346.527	8.82
346.898	8.78
347.268	9.04
347.639	9.31
348.009	9.1
348.38	8.86
348.75	9.17
349.12	9.34
349.49	9.29
349.861	9.32
350.231	9.26
350.601	9.74
350.971	9.26
351.341	9.3
351.711	9.49
352.081	9.34
352.45	9.49
352.82	9.29
353.19	9.32
353.56	9.28
353.929	9.23
354.299	9.62
354.669	9.81
355.038	9.9
355.408	9.6
355.777	9.83
356.147	9.56
356.516	9.72
356.885	9.73
357.254	9.65
357.624	9.77
357.993	9.63
358.362	9.83
358.731	10.06
359.1	9.98
359.469	10
359.838	10.22
360.207	10.12
360.576	10.31
360.945	9.9
361.314	9.96
361.682	10.08
362.051	10.43
362.42	10.19
362.788	10.58
363.157	10.16
363.525	10.39
363.894	10.28
364.262	10.5
364.631	10.61
364.999	10.52
365.367	10.5
365.735	10.65
366.104	10.47
366.472	10.68
366.84	10.48
367.208	10.82
367.576	10.7
367.944	10.8
368.312	10.76
368.68	11.07
369.048	10.96
369.416	10.78
369.783	10.85
370.151	11.4
370.519	11.33
370.886	11.17
371.254	11.16
371.621	10.99
371.989	11.51
372.356	11.18
372.724	11.17
373.091	11.24
373.458	11.12
373.826	11.5
374.193	11.33
374.56	11.62
374.927	11.31
375.294	11.41
375.661	11.81
376.028	11.38
376.395	11.65
376.762	11.59
377.129	11.72
377.496	11.68
377.863	11.86
378.229	12.08
378.596	11.81
378.963	11.85
379.329	12.26
379.696	11.74
380.062	11.81
380.429	11.82
380.795	12.21
381.161	11.83
381.528	11.85
381.894	12.36
382.26	12.11
382.626	12.22
382.993	12.26
383.359	12.12
383.725	12.2
384.091	12.53
384.457	12.38
384.823	12.76
385.188	12.18
385.554	12.4
385.92	12.3
386.286	12.64
386.651	12.37
387.017	12.7
387.383	12.42
387.748	13.05
388.114	13.03
388.479	12.99
388.845	12.73
389.21	12.94
389.575	13.13
389.94	12.8
390.306	12.97
390.671	12.85
391.036	13.04
391.401	13.04
391.766	12.9
392.131	13.21
392.496	13.17
392.861	13.36
393.226	13.14
393.591	13.11
393.956	13.36
394.32	13.31
394.685	13.36
395.05	13.36
395.414	13.44
395.779	13.64
396.143	13.54
396.508	13.65
396.872	13.45
397.236	13.79
397.601	13.75
397.965	13.59
398.329	14.08
398.694	13.74
399.058	13.82
399.422	13.82
399.786	13.79
400.15	14.12
400.514	13.92
400.878	14.18
401.242	14.39
401.605	14.34
401.969	14.26
402.333	14.26
402.697	14.4
403.06	14.18
403.424	14.34
403.787	14.37
404.151	14.39
404.514	14.43
404.878	14.41
405.241	14.44
405.604	14.24
405.968	14.47
406.331	14.51
406.694	14.44
407.057	14.43
407.42	14.63
407.783	14.91
408.146	14.4
408.509	14.89
408.872	14.86
409.235	14.99
409.598	14.97
409.961	14.83
410.323	14.74
410.686	14.77
411.049	15.18
411.411	14.79
411.774	14.9
412.136	14.96
412.499	15.32
412.861	14.76
413.223	14.97
413.586	15.35
413.948	15.33
414.31	15.2
414.672	15.16
415.035	15.32
415.397	15.28
415.759	15.33
416.121	15.37
416.483	15.31
416.845	15.58
417.206	15.42
417.568	15.27
417.93	15.47
418.292	15.44
418.653	15.41
419.015	15.52
419.377	15.52
419.738	15.71
420.1	15.55
420.461	15.52
420.822	15.63
421.184	15.69
421.545	15.68
421.906	15.69
422.267	15.56
422.629	15.63
422.99	15.69
423.351	15.74
423.712	15.88
424.073	15.75
424.434	16.08
424.795	15.95
425.155	15.85
425.516	15.73
425.877	15.98
426.238	15.98
426.598	16.09
426.959	16.04
427.32	16.11
427.68	16.22
428.041	16.44
428.401	16.37
428.761	16.58
429.122	16.5
429.482	16.52
429.842	16.58
430.202	16.7
430.563	16.78
430.923	16.75
431.283	16.69
431.643	17.06
432.003	16.91
432.363	17.06
432.722	17.09
433.082	16.92
433.442	17.01
433.802	16.93
434.161	17.07
434.521	17.1
434.881	17.07
435.24	17.06
435.6	17.27
435.959	17.2
436.319	17.26
436.678	17.39
437.037	17.23
437.396	17.28
437.756	17.43
438.115	17.56
438.474	17.39
438.833	17.53
439.192	17.51
439.551	17.46
439.91	17.57
440.269	17.62
440.628	17.37
440.987	17.66
441.345	17.72
441.704	17.58
442.063	17.6
442.421	17.71
442.78	17.73
443.138	17.78
443.497	17.7
443.855	18.03
444.214	17.79
444.572	18.06
444.93	18.17
445.288	18.2
445.647	17.81
446.005	18.21
446.363	18.24
446.721	17.93
447.079	17.98
447.437	18.06
447.795	17.97
448.153	18.05
448.51	18.01
448.868	18.17
449.226	18.21
449.584	18.31
449.941	18.28
450.299	18.43
450.656	18.57
451.014	18.66
451.371	18.66
451.729	18.74
452.086	18.61
452.443	18.92
452.801	18.85
453.158	18.87
453.515	19.02
453.872	18.99
454.229	18.79
454.586	18.91
454.943	19.09
455.3	19.17
455.657	19.16
456.014	19.16
456.371	19.3
456.727	19.44
457.084	19.46
457.441	19.41
457.797	19.53
458.154	19.35
458.51	19.55
458.867	19.53
459.223	19.55
459.58	19.61
459.936	19.39
460.292	19.45
460.648	19.28
461.005	19.36
461.361	19.31
461.717	19.38
462.073	19.48
462.429	19.53
462.785	19.76
463.141	19.76
463.496	19.95
463.852	20
464.208	20.03
464.564	20.08
464.919	20.11
465.275	20.23
465.631	20.21
465.986	20.31
466.342	20.21
466.697	20.54
467.052	20.41
467.408	20.36
467.763	20.38
468.118	20.42
468.473	20.59
468.829	20.45
469.184	20.61
469.539	20.55
469.894	20.75
470.249	20.67
470.603	20.92
470.958	20.75
471.313	20.92
471.668	20.89
472.023	20.94
472.377	21
472.732	21.14
473.086	20.98
473.441	20.91
473.795	21.1
474.15	20.97
474.504	21.11
474.859	21.17
475.213	21.16
475.567	21.16
475.921	21.46
476.275	21.36
476.63	21.48
476.984	21.34
477.338	21.52
477.692	21.5
478.045	21.52
478.399	21.5
478.753	21.64
479.107	21.78
479.461	21.55
479.814	21.52
480.168	21.69
480.521	21.83
480.875	21.75
481.228	21.73
481.582	21.89
481.935	22.02
482.289	21.84
482.642	21.72
482.995	21.78
483.348	21.74
483.701	21.75
484.055	21.69
484.408	21.45
484.761	21.34
485.114	21.24
485.466	21.25
485.819	21.28
486.172	21.29
486.525	21.28
486.878	21.37
487.23	21.57
487.583	21.79
487.936	21.82
488.288	21.8
488.641	21.76
488.993	21.7
489.345	21.71
489.698	21.76
490.05	21.81
490.402	21.8
490.754	22.04
491.107	22.06
491.459	22.44
491.811	22.59
492.163	22.5
492.515	22.4
492.866	22.21
493.218	22.1
493.57	22.37
493.922	22.26
494.274	22.41
494.625	22.67
494.977	22.91
495.328	23.07
495.68	23.22
496.031	23.34
496.383	23.22
496.734	23.35
497.086	23.57
497.437	23.69
497.788	23.55
498.139	23.38
498.49	23.43
498.842	23.64
499.193	23.37
499.544	23.38
499.894	23.53
500.245	23.75
500.596	23.78
500.947	23.72
501.298	23.88
501.648	23.82
501.999	24.2
502.35	24.17
502.7	24.19
503.051	24.28
503.401	24.21
503.752	24.27
504.102	24.2
504.452	24.36
504.803	24.24
505.153	24.42
505.503	24.47
505.853	24.51
506.203	24.61
506.553	24.44
506.903	24.6
507.253	24.76
507.603	24.66
507.953	24.52
508.303	24.86
508.652	24.59
509.002	24.88
509.352	24.75
509.701	24.87
510.051	24.83
510.4	24.88
510.75	24.65
511.099	24.77
511.449	25.04
511.798	24.94
512.147	25
512.496	25.02
512.846	25.06
513.195	25.27
513.544	25.09
513.893	25.16
514.242	25.25
514.591	25.35
514.939	25.38
515.288	25.43
515.637	25.38
515.986	25.51
516.334	25.74
516.683	25.83
517.032	25.74
517.38	25.64
517.729	25.79
518.077	25.7
518.426	25.97
518.774	25.7
519.122	25.82
519.47	25.64
519.819	25.7
520.167	25.55
520.515	25.65
520.863	25.71
521.211	25.8
521.559	26.08
521.907	26.05
522.255	26.15
522.602	26.18
522.95	26.32
523.298	26.39
523.645	26.52
523.993	26.54
524.341	26.59
524.688	26.62
525.036	26.69
525.383	26.71
525.73	26.59
526.078	26.81
526.425	26.63
526.772	26.49
527.119	26.46
527.466	26.49
527.814	26.49
528.161	26.51
528.508	26.65
528.854	26.58
529.201	26.46
529.548	26.37
529.895	26.32
530.242	26.38
530.588	26.37
530.935	26.44
531.282	26.42
531.628	26.54
531.975	26.63
532.321	26.9
532.667	27.07
533.014	27.24
533.36	27.25
533.706	27.25
534.052	27.18
534.399	27.16
534.745	27.16
535.091	27.1
535.437	27.2
535.783	27.27
536.129	27.29
536.474	27.54
536.82	27.73
537.166	27.72
537.512	27.68
537.857	27.83
538.203	27.73
538.549	27.75
538.894	27.9
539.239	27.99
539.585	28.13
539.93	28.09
540.276	28.27
540.621	28.51
540.966	28.37
541.311	28.56
541.656	28.51
542.001	28.4
542.346	28.18
542.691	28.06
543.036	28.1
543.381	28.06
543.726	28.26
544.071	28.11
544.415	28.29
544.76	28.38
545.105	28.57
545.449	28.73
545.794	28.63
546.138	28.66
546.483	28.9
546.827	29.14
547.171	29.12
547.516	29.23
547.86	29.18
548.204	29.05
548.548	29.22
548.892	29.32
549.236	29.37
549.58	29.44
549.924	29.66
550.268	29.81
550.612	29.96
550.956	29.91
551.3	30.17
551.643	30.09
551.987	30.41
552.33	30.19
552.674	30.27
553.017	30.37
553.361	30.27
553.704	30.25
554.048	30.41
554.391	30.33
554.734	30.45
555.077	30.36
555.42	30.44
555.764	30.45
556.107	30.68
556.45	30.65
556.793	31.01
557.135	30.83
557.478	30.83
557.821	31.05
558.164	30.99
558.507	30.96
558.849	31.32
559.192	31.1
559.534	31.15
559.877	31.17
560.219	31.28
560.562	31.19
560.904	31.59
561.246	31.5
561.589	31.57
561.931	31.47
562.273	31.41
562.615	31.62
562.957	31.65
563.299	31.67
563.641	31.79
563.983	31.59
564.325	31.63
564.667	31.86
565.008	31.8
565.35	31.98
565.692	32.08
566.033	32.19
566.375	31.97
566.716	31.94
567.058	32.19
567.399	32.12
567.741	32.27
568.082	32.24
568.423	31.96
568.764	32.09
569.105	32.28
569.447	32.19
569.788	32.53
570.129	32.46
570.47	32.59
570.811	32.65
571.151	32.75
571.492	32.7
571.833	32.61
572.174	32.83
572.514	32.86
572.855	32.81
573.195	32.84
573.536	32.95
573.876	32.87
574.217	32.94
574.557	32.88
574.898	32.85
575.238	33.31
575.578	33.12
575.918	33.09
576.258	33.32
576.598	33.32
576.938	33.19
577.278	33.42
577.618	33.34
577.958	33.41
578.298	33.43
578.638	33.6
578.977	33.64
579.317	33.68
579.657	33.73
579.996	34
580.336	33.87
580.675	34.19
581.014	34.14
581.354	33.87
581.693	34.11
582.032	34.25
582.372	34.39
582.711	34.34
583.05	34.45
583.389	34.48
583.728	34.58
584.067	34.48
584.406	34.62
584.745	34.4
585.083	34.45
585.422	34.78
585.761	34.79
586.1	34.86
586.438	34.7
586.777	35.02
587.115	34.95
587.454	34.99
587.792	34.9
588.13	34.92
588.469	34.87
588.807	35.14
589.145	35.15
589.483	35.16
589.821	35.51
590.159	35.34
590.497	35.04
590.835	35.43
591.173	35.67
591.511	35.51
591.849	35.21
592.187	35.29
592.524	35.62
592.862	35.62
593.2	35.88
593.537	35.87
593.875	35.64
594.212	35.77
594.55	35.88
594.887	36.01
595.224	36.18
595.561	35.91
595.899	36.08
596.236	36.16
596.573	35.77
596.91	36.27
597.247	36.26
597.584	36.01
597.921	36.48
598.258	36.08
598.594	36.25
598.931	36
599.268	36.13
599.604	36.3
599.941	36.07
600.277	36.46
600.614	36.49
600.95	36.36
601.287	36.94
601.623	36.41
601.959	36.9
602.296	36.99
602.632	36.7
602.968	36.97
603.304	37.09
603.64	37.19
603.976	36.73
604.312	36.94
604.648	36.52
604.984	36.86
605.319	37.03
605.655	37.14
605.991	36.95
606.326	36.89
606.662	36.72
606.998	37.37
607.333	37.25
607.668	36.98
608.004	37.31
608.339	37.31
608.674	37.81
609.01	37.86
609.345	37.95
609.68	37.55
610.015	37.81
610.35	38.05
610.685	37.64
611.02	37.61
611.355	37.64
611.689	37.91
612.024	37.91
612.359	38.11
612.694	37.91
613.028	38.02
613.363	38.5
613.697	38.42
614.032	38.23
614.366	38.06
614.7	38.51
615.035	38.5
615.369	38.71
615.703	38.64
616.037	38.49
616.371	38.61
616.705	39.04
617.039	38.41
617.373	38.84
617.707	38.93
618.041	39.02
618.375	38.58
618.709	39.21
619.042	38.99
619.376	39.44
619.71	38.94
620.043	39.47
620.377	39.44
620.71	39.49
621.043	39.66
621.377	39.25
621.71	39.6
622.043	39.75
622.376	39.72
622.709	39.85
623.043	39.02
623.376	39.33
623.709	40.19
624.041	39.48
624.374	39.97
624.707	39.96
625.04	39.89
625.373	39.68
625.705	39.9
626.038	39.86
626.37	39.82
626.703	40.04
627.035	39.83
627.368	40.59
627.7	40.3
628.032	39.95
628.365	40.32
628.697	40.25
629.029	39.95
629.361	40.12
629.693	40.34
630.025	39.97
630.357	40.67
630.689	40.56
631.021	40.89
631.353	40.67
631.684	40.64
632.016	40.87
632.348	41.18
632.679	40.65
633.011	40.94
633.342	40.74
633.674	40.26
634.005	40.46
634.336	41.13
634.668	41.03
634.999	41.22
635.33	40.87
635.661	41.04
635.992	41.3
636.323	41.05
636.654	41.21
636.985	41.31
637.316	41.09
637.647	41.36
637.977	41.33
638.308	41.52
638.639	41.52
638.969	42.24
639.3	41.7
639.63	41.6
639.961	42.06
640.291	41.67
640.622	41.87
640.952	41.57
641.282	41.94
641.612	41.85
641.943	42.07
642.273	42.26
642.603	42.22
642.933	42.2
643.263	42.57
643.592	42.86
643.922	42.49
644.252	42.07
644.582	42.3
644.911	42.37
645.241	42.15
645.571	42.37
645.9	42.38
646.23	42.35
646.559	42.27
646.888	42.88
647.218	42.7
647.547	42.45
647.876	42.36
648.205	42.34
648.534	42.55
648.863	42.94
649.192	42.81
649.521	42.8
649.85	43.66
650.179	43.04
650.508	43.44
650.837	43.18
651.165	43.11
651.494	43.25
651.822	43.28
652.151	42.91
652.479	43.15
652.808	42.95
653.136	42.86
653.465	43.71
653.793	43.35
654.121	43.4
654.449	43.35
654.777	43.82
655.105	44.24
655.433	43.92
655.761	43.41
656.089	43.65
656.417	43.62
656.745	44.51
657.073	43.67
657.4	43.88
657.728	44.16
658.056	43.91
658.383	43.94
658.711	45
659.038	44.09
659.365	44.41
659.693	44.49
660.02	44.15
660.347	43.9
660.674	44.58
661.001	44.23
661.329	43.85
661.656	44.33
661.982	44.02
662.309	44.51
662.636	44.3
662.963	44.35
663.29	44.31
663.616	44.75
663.943	44.52
664.27	45.27
664.596	44.6
664.923	44.34
665.249	45.08
665.576	44.87
665.902	44.89
666.228	45.31
666.554	44.8
666.881	44.86
667.207	45.49
667.533	45.32
667.859	44.97
668.185	44.83
668.511	45.42
668.837	45.01
669.162	44.68
669.488	44.71
669.814	45.46
670.139	44.86
670.465	45.07
670.791	45.5
671.116	45.51
671.442	45.51
671.767	45.12
672.092	45.09
672.418	45.43
672.743	45.03
673.068	45.36
673.393	45.43
673.718	45.49
674.043	46.06
674.368	46.22
674.693	45.58
675.018	45.78
675.343	46.05
675.667	46.58
675.992	46.53
676.317	45.92
676.641	45.77
676.966	45.87
677.29	45.74
677.615	46.58
677.939	46.58
678.264	45.83
678.588	45.76
678.912	46
679.236	46.83
679.56	46.6
679.885	46.09
680.209	46.29
680.532	46.9
680.856	46.52
681.18	47.04
681.504	46.83
681.828	46.8
682.152	46.57
682.475	46.96
682.799	46.63
683.122	46.53
683.446	46.82
683.769	46.56
684.093	47.26
684.416	46.37
684.739	47.06
685.062	46.44
685.386	46.8
685.709	46.94
686.032	48.08
686.355	46.5
686.678	47.1
687.001	47.55
687.324	47.26
687.646	47.19
687.969	47.46
688.292	47.12
688.614	47.55
688.937	47.97
689.26	48.09
689.582	47.6
689.904	47.1
690.227	48.18
690.549	48.05
690.871	47.98
691.194	46.88
691.516	47.48
691.838	47.61
692.16	47.25
692.482	47.47
692.804	47.99
693.126	47.54
693.448	47.66
693.769	47.55
694.091	47.63
694.413	48.17
694.735	47.54
695.056	49.04
695.378	48.4
695.699	48.59
696.021	48.31
696.342	49.01
696.663	49.52
696.984	47.9
697.306	47.41
697.627	48.53
697.948	48.6
698.269	48.2
698.59	48.9
698.911	48.76
699.232	48.76
699.553	48.46
699.873	48.71
700.194	48.73
700.515	48.49
700.835	49
701.156	49.57
701.477	49
701.797	49.07
702.117	48.92
702.438	49.67
702.758	48.01
703.078	49.24
703.398	48.82
703.719	49.01
704.039	49.46
704.359	49.38
704.679	48.63
704.999	49.01
705.319	49.17
705.638	48.97
705.958	49.94
706.278	49.09
706.597	49.24
706.917	50.37
707.237	50.36
707.556	49.89
707.876	50.27
708.195	49.57
708.514	48.85
708.834	50.51
709.153	49.8
709.472	50.9
709.791	49.88
710.11	49.48
710.429	50.25
710.748	50.1
711.067	50.74
711.386	50.01
711.705	49.75
712.023	50.55
712.342	49.92
712.661	50.69
712.979	50.34
713.298	50.28
713.616	49.42
713.935	50.37
714.253	50.5
714.572	50.78
714.89	51
715.208	49.97
715.526	50.94
715.844	51.05
716.162	51.11
716.48	50
716.798	51.7
717.116	50.55
717.434	50.74
717.752	50.58
718.069	50.76
718.387	51.16
718.705	50.38
719.022	52.05
719.34	50.86
719.657	51.72
719.975	50.9
720.292	51.4
720.609	51.7
720.927	51.12
721.244	52.33
721.561	50.86
721.878	52.1
722.195	51.97
722.512	51.36
722.829	50.53
723.146	50.66
723.463	50.49
723.779	49.54
724.096	50.98
724.413	51.64
724.729	51.6
725.046	50.53
725.362	50.44
725.679	51.51
725.995	50.78
726.311	51.19
726.628	51.99
726.944	51.36
727.26	50.32
727.576	51.14
727.892	51.7
728.208	51.11
728.524	50.72
728.84	51.75
729.156	50.73
729.472	52.25
729.787	51.76
730.103	51.98
730.419	51.78
730.734	52.48
731.05	51.8
731.365	52.49
731.681	52.61
731.996	51.76
732.311	52.68
732.626	52.18
732.942	51.73
733.257	52.35
733.572	52.46
733.887	51.91
734.202	52.33
734.517	53.09
734.832	52.11
735.146	52.68
735.461	53.14
735.776	52.34
736.091	51.98
736.405	52.35
736.72	51.08
737.034	53.47
737.349	52.32
737.663	52.29
737.977	53.52
738.292	51.7
738.606	52.91
738.92	54.17
739.234	52.36
739.548	52.01
739.862	53.26
740.176	53.65
740.49	52.31
740.804	53
741.117	53.25
741.431	52.74
741.745	52.63
742.058	54.3
742.372	51.86
742.685	54.65
742.999	52.53
743.312	53.35
743.626	54.49
743.939	52.91
744.252	53.97
744.565	55
744.878	52.81
745.191	53.7
745.505	53.45
745.817	52.1
746.13	54.3
746.443	50.48
746.756	53.2
747.069	53.11
747.381	53.04
747.694	53.26
748.007	54.34
748.319	54.37
748.632	53.55
748.944	53.86
749.256	53.45
749.569	53.37
749.881	53.74
750.193	51.66
750.505	53.17
750.817	54.54
751.129	53.73
751.441	54.48
751.753	54.51
752.065	53.49
752.377	53.98
752.689	53.8
753	54.18
753.312	55.09
753.624	54.04
753.935	55.09
754.247	54.01
754.558	54.64
754.869	53.8
755.181	54.01
755.492	53.66
755.803	55.84
756.114	55.22
756.425	53.68
756.736	53.35
757.047	54.78
757.358	53.68
757.669	53.85
757.98	52.48
758.291	55.45
758.601	55.4
758.912	53.75
759.223	54.45
759.533	52.57
759.844	55.33
760.154	53.91
760.464	56.1
760.775	54.19
761.085	55.65
761.395	54.08
761.705	53.96
762.016	54.86
762.326	56.65
762.636	54.53
762.945	54.82
763.255	55.63
763.565	57.13
763.875	54.82
764.185	57.11
764.494	55.84
764.804	54.73
765.113	55.61
765.423	55.64
765.732	54.87
766.042	55.51
766.351	55.65
766.66	55.47
766.97	55.97
767.279	56.16
767.588	54.95
767.897	55.6
768.206	56.28
768.515	54.87
768.824	56.69
769.133	55.16
769.441	54.15
769.75	54.85
770.059	53.84
770.367	54.79
770.676	55.49
770.984	54.72
771.293	57.34
771.601	56.29
771.91	54.43
772.218	56.63
772.526	57.84
772.834	56.52
773.142	53.44
773.45	55.75
773.758	56.65
774.066	51.81
774.374	57.76
774.682	56.11
774.99	51.78
775.298	56.91
775.605	55.66
775.913	55.24
776.22	53.41
776.528	54.28
776.835	53.49
777.143	52.05
777.45	53.04
777.757	55.4
778.065	56.13
778.372	55.15
778.679	54.51
778.986	56.31
779.293	55.86
779.6	59.05
779.907	56.13
780.214	53.97
780.52	53.24
780.827	57.54
781.134	56.27
781.44	56.17
781.747	59.36
782.053	55.37
782.36	57.77
782.666	56.28
782.973	54.29
783.279	58.49
783.585	56.55
783.891	55.28
784.197	58.11
784.503	54.1
784.809	55.53
785.115	58.42
785.421	60
785.727	56.79
786.033	57.55
786.339	58.35
786.644	54.2
786.95	55.18
787.255	54.86
787.561	52.68
787.866	56.75
788.172	53.99
788.477	56.38
788.782	55
789.088	51.6
789.393	57.54
789.698	59.81
790.003	56.81
790.308	54.45
790.613	55.87
790.918	56.99
791.223	59.42
791.527	54.67
791.832	55.22
792.137	61.24
792.441	57.7
792.746	52.6
793.05	60.18
793.355	56.07
793.659	56.53
793.963	59.12
794.268	58.75
794.572	56.02
794.876	56.14
795.18	59.55
795.484	56.81
795.788	56.87
796.092	57.64
796.396	57.2
796.7	56.82
797.004	57.05
797.307	56.94
797.611	56.11
797.915	52.92
798.218	55.17
798.522	55.72
798.825	58.29
799.128	58.71
799.432	55.61
799.735	58.28
800.038	54.05
800.341	62.2
800.644	54.39
800.947	58.42
801.25	59.49
801.553	57.56
801.856	57.16
802.159	56.72
802.462	54.38
802.764	59.91
803.067	59.66
803.37	58.48
803.672	60.47
803.975	58.27
804.277	57.33
804.579	59.53
804.882	58.9
805.184	54.56
805.486	55.54
805.788	63.06
806.09	56.39
806.392	58.04
806.694	54.51
806.996	59.56
807.298	54.65
807.6	61.59
807.902	58.2
808.203	55.99
808.505	57.58
808.807	58.48
809.108	55.32
809.409	55.47
809.711	60.8
810.012	57.78
810.313	58.77
810.615	61.73
810.916	58.18
811.217	59.31
811.518	53.52
811.819	61
812.12	58.08
812.421	61.5
812.722	56.66
813.023	60.03
813.323	60.7
813.624	58.39
813.925	56.2
814.225	57.01
814.526	52.63
814.826	57.79
815.126	55.93
815.427	57.57
815.727	60.58
816.027	60.21
816.327	61.32
816.627	58.79
816.927	46.99
817.227	56.1
817.527	54.46
817.827	52.54
818.127	52.27
818.427	55.27
818.727	54.19
819.026	64.16
819.326	54.02
819.625	56.78
819.925	59.06
820.224	64.08
820.524	60.25
820.823	59.7
821.122	54.82
821.421	54.96
821.72	59.01
822.019	57.52
822.318	61.65
822.617	58.15
822.916	56.92
823.215	60.72
823.514	59.38
823.813	60.32
824.111	60.11
824.41	60.04
824.709	59.91
825.007	60.32
825.306	60.41
825.604	61.51
825.902	60.49
826.201	61.37
826.499	61.51
826.797	60.34
827.095	60.77
827.393	61.73
827.691	59.9
827.989	58.68
828.287	61.66
828.585	57.33
828.882	59.21
829.18	61.66
829.478	61.92
829.775	61.08
830.073	61.44
830.37	60.85
830.668	59.7
830.965	60.28
831.263	64.51
831.56	63.63
831.857	62.02
832.154	62.43
832.451	63.64
832.748	57.19
833.045	57.63
833.342	57.95
833.639	54.1
833.936	55.66
834.232	63.25
834.529	65.37
834.826	60.36
835.122	59.3
835.419	63.11
835.715	64.28
836.012	61.12
836.308	63.79
836.604	62.15
836.901	59.42
837.197	60.41
837.493	63.51
837.789	58.52
838.085	60.8
838.381	60.58
838.677	62.35
838.972	56.9
839.268	62.54
839.564	64.26
839.86	57.02
840.155	62.28
840.451	61.85
840.746	69.18
841.042	56.16
841.337	53.5
841.632	61.7
841.928	58.59
842.223	63.45
842.518	57.73
842.813	63.82
843.108	61.78
843.403	62.17
843.698	60.15
843.993	57.63
844.287	55.48
844.582	59.11
844.877	59.24
845.171	58.99
845.466	55.76
845.761	63.7
846.055	57.18
846.349	59.88
846.644	46.41
846.938	70.76
847.232	52.01
847.526	58.48
847.82	56.12
848.114	51.32
848.408	52.34
848.702	67.16
848.996	54.61
849.29	68.61
849.584	59.16
849.877	60.96
850.171	74.32
850.465	47.11
850.758	36.48
851.052	51.49
851.345	47.83
851.638	45.73
851.932	65.4
852.225	46.25
852.518	46.44
852.811	38.93
853.104	47.17
853.397	53.06
853.69	50.89
853.983	44.88
854.276	66.91
854.569	46.71
854.861	39.62
855.154	57.76
855.447	50.63
855.739	33.7
856.032	64.52
856.324	60.94
856.616	59.17
856.909	38.59
857.201	49.73
857.493	42.3
857.785	30.2
858.077	62.1
858.369	54.21
858.661	41.4
858.953	51.71
859.245	58.09
859.537	24.34
859.829	55.63
860.12	44.38
860.412	45.48
860.703	47.46
860.995	51.18
861.286	74.06
861.578	38.66
861.869	63.72
862.16	44.29
862.452	33.56
862.743	29.4
863.034	66.29
863.325	52.38
863.616	50.95
863.907	60.13
864.198	28.29
864.488	76.97
864.779	75.97
865.07	84.66
865.36	67.5
865.651	83.53
865.941	56.83
866.232	68.1
866.522	60.93
866.813	66.59
867.103	47.76
867.393	50.01
867.683	50.87
867.973	54.26
868.263	49.18
868.553	38.41
868.843	76.29
869.133	55.65
869.423	78.62
869.713	57.91
870.002	52.44
870.292	51.77
870.582	60.47
870.871	60.42
871.161	54.08
871.45	41.28
871.739	50.82
872.029	54.82
872.318	52.93
872.607	52.93
872.896	57.2
873.185	48.95
873.474	39.95
873.763	72.35
874.052	36.46
874.341	84.34
874.63	64.37
874.918	51.57
875.207	49.37
875.496	54.44
875.784	15.42
876.073	42.06
876.361	84.53
876.649	29.59
876.938	57.74
877.226	47.41
877.514	64.18
877.802	52.31
878.09	66.07
878.378	40.25
878.666	57.42
878.954	63.05
879.242	55.41
879.53	49.25
879.817	33.05
880.105	55.04
880.392	12.91
880.68	66.57
880.967	34.83
881.255	67.15
881.542	45.65
881.83	85.39
882.117	49.18
882.404	29.7
882.691	48.62
882.978	58.25
883.265	63.26
883.552	61.26
883.839	58.97
884.126	66.3
884.413	62.98
884.699	56.54
884.986	56.38
885.273	67.14
885.559	67.14
885.846	67.14
