Data from 0002_forehead_Reflection__4__285.txt Node

Date: Thu Dec 15 18:56:09 CST 2022
User: ToomeyLab
Spectrometer: FLMS14357
Trigger mode: 0
Integration Time (sec): 1.000000E-2
Scans to average: 100
Electric dark correction enabled: true
Nonlinearity correction enabled: false
Boxcar width: 0
XAxis mode: Wavelengths
Number of Pixels in Spectrum: 2048
>>>>>Begin Spectral Data<<<<<
189.047	181.77
189.435	181.77
189.823	181.77
190.211	-176.35
190.599	30.45
190.987	89.29
191.375	-83.67
191.763	249.35
192.151	-111.56
192.538	140.44
192.926	227.7
193.314	40.77
193.702	6808.33
194.089	34.33
194.477	-12.92
194.864	113.96
195.252	108.61
195.639	64.19
196.027	-14.08
196.414	130.17
196.801	-9.3
197.189	219.5
197.576	0.99
197.963	-86.07
198.351	25.83
198.738	-11.43
199.125	28.26
199.512	45.38
199.899	-52.66
200.286	-22.04
200.673	40.59
201.06	-6.79
201.447	50.35
201.833	37.97
202.22	12.42
202.607	21.94
202.994	22.49
203.38	28.43
203.767	-16.22
204.154	45.18
204.54	29.31
204.927	19.55
205.313	38.22
205.699	59.37
206.086	43.6
206.472	18.59
206.858	19.35
207.245	-1.66
207.631	27.48
208.017	46.03
208.403	-78.5
208.789	25.55
209.175	-29.18
209.561	-24.73
209.947	16.12
210.333	7.45
210.719	9.28
211.105	35.42
211.491	-15.9
211.876	14.75
212.262	44.17
212.648	12.04
213.034	3.68
213.419	2.78
213.805	-3.27
214.19	-0.52
214.576	-16.73
214.961	11.14
215.346	9.08
215.732	-10.33
216.117	32.26
216.502	-20.81
216.888	34.57
217.273	26.12
217.658	17.1
218.043	5.92
218.428	-3.39
218.813	7.35
219.198	-15.84
219.583	-3.29
219.968	2.07
220.353	-18.81
220.738	2.45
221.122	-5.09
221.507	-16.79
221.892	-35.01
222.276	-3.85
222.661	-5.31
223.046	-13
223.43	12.11
223.815	8.69
224.199	-2.65
224.583	-1.79
224.968	1.76
225.352	-6.03
225.736	15.47
226.121	1.27
226.505	-3.85
226.889	3.14
227.273	-2.76
227.657	4.4
228.041	3.28
228.425	-1.35
228.809	-2.81
229.193	2.97
229.577	1.02
229.961	0.35
230.344	2.26
230.728	1.99
231.112	2.82
231.495	-0.47
231.879	1.96
232.263	2.15
232.646	0.9
233.03	3.94
233.413	1.32
233.797	0.53
234.18	1.32
234.563	0.97
234.946	-0.2
235.33	3.14
235.713	2.35
236.096	3.16
236.479	3.53
236.862	-0.06
237.245	-0.38
237.628	2.23
238.011	1.06
238.394	1.22
238.777	2.84
239.16	4.02
239.543	2.73
239.925	2.27
240.308	1.49
240.691	2.34
241.073	1.83
241.456	1.75
241.838	1.94
242.221	2.14
242.603	1.64
242.986	1.89
243.368	1.7
243.75	1.86
244.133	1.96
244.515	1.69
244.897	1.56
245.279	1.89
245.661	0.87
246.043	2.12
246.425	1.64
246.807	1.11
247.189	1.96
247.571	1.94
247.953	1.66
248.335	1.68
248.717	1.83
249.098	1.48
249.48	1.54
249.862	1.77
250.243	1.41
250.625	1.7
251.006	1.81
251.388	2.44
251.769	1.68
252.151	2.65
252.532	1.9
252.913	1.68
253.295	1.75
253.676	1.93
254.057	1.79
254.438	1.79
254.819	2.1
255.2	2.77
255.581	3.52
255.962	2.62
256.343	3.06
256.724	2.51
257.105	1.83
257.486	0.88
257.867	1.81
258.247	1.71
258.628	1.87
259.009	2.1
259.389	1.68
259.77	1.27
260.15	2.75
260.531	1.57
260.911	1.86
261.292	1.84
261.672	1.84
262.052	1.95
262.432	1.73
262.813	2.06
263.193	1.95
263.573	1.75
263.953	1.09
264.333	1.5
264.713	2.48
265.093	1.36
265.473	0.8
265.853	2.63
266.233	2
266.612	1.78
266.992	1.61
267.372	2.15
267.752	2.02
268.131	1.82
268.511	1.84
268.89	2.47
269.27	1.16
269.649	1.75
270.029	2.2
270.408	1.89
270.787	2.17
271.167	1.67
271.546	2.62
271.925	2.08
272.304	1.75
272.683	1.44
273.062	1.7
273.441	1.49
273.82	1.86
274.199	1.79
274.578	1.93
274.957	1.91
275.336	2.21
275.715	2.32
276.093	1.92
276.472	1.34
276.851	1.42
277.229	2.07
277.608	1.44
277.986	1.81
278.365	2.84
278.743	1.81
279.122	1.23
279.5	1.78
279.878	1.87
280.257	2.37
280.635	1.84
281.013	1.18
281.391	1.67
281.769	2.23
282.147	1.66
282.525	1.64
282.903	1.7
283.281	2.01
283.659	2.02
284.037	1.76
284.415	1.35
284.792	2.03
285.17	1.82
285.548	1.63
285.925	1.95
286.303	2.59
286.68	2.07
287.058	2.29
287.435	1.77
287.813	2.18
288.19	1.74
288.567	2.13
288.945	1.79
289.322	2.15
289.699	2.3
290.076	2.17
290.453	1.67
290.83	1.99
291.207	2.06
291.584	2.45
291.961	2.02
292.338	1.79
292.715	2.29
293.092	2.5
293.469	1.93
293.845	2.1
294.222	3.03
294.599	1.9
294.975	1.64
295.352	2.69
295.728	2.03
296.105	1.97
296.481	2.12
296.858	2.37
297.234	2.09
297.61	2.6
297.986	2.82
298.363	2.53
298.739	2.87
299.115	2.97
299.491	2.68
299.867	2.19
300.243	2.36
300.619	2.35
300.995	2.67
301.371	3
301.746	2.85
302.122	2.14
302.498	2.99
302.874	3.44
303.249	2.79
303.625	2.34
304	2.98
304.376	3.17
304.751	2.93
305.127	2.63
305.502	2.82
305.878	3.31
306.253	2.81
306.628	3.1
307.003	3.09
307.378	2.73
307.754	2.75
308.129	2.65
308.504	3.35
308.879	3.31
309.254	3.53
309.629	3.19
310.003	3.38
310.378	3.38
310.753	3.77
311.128	2.98
311.502	3.22
311.877	3.07
312.252	3.55
312.626	3.65
313.001	3.48
313.375	3.53
313.75	3.5
314.124	3.8
314.498	3.82
314.873	3.55
315.247	3.73
315.621	3.91
315.995	3.21
316.369	3.39
316.743	3.71
317.117	3.78
317.491	3.77
317.865	3.3
318.239	4.16
318.613	3.59
318.987	3.87
319.361	4.08
319.734	4.31
320.108	4.2
320.482	3.89
320.855	4.25
321.229	3.77
321.602	3.89
321.976	3.68
322.349	5.2
322.723	4.71
323.096	4.6
323.469	4.09
323.843	4.1
324.216	4.39
324.589	4.69
324.962	4.14
325.335	4.43
325.708	4.54
326.081	4.2
326.454	4.75
326.827	4.24
327.2	4.38
327.573	5.16
327.945	4.38
328.318	4.55
328.691	4.88
329.063	4.53
329.436	4.79
329.809	5.31
330.181	5.26
330.553	4.81
330.926	5.02
331.298	4.4
331.671	5.17
332.043	4.82
332.415	4.61
332.787	5.16
333.159	4.72
333.532	4.64
333.904	4.98
334.276	5.38
334.648	5.14
335.02	5.05
335.391	5.21
335.763	5.27
336.135	5.3
336.507	4.82
336.879	5.7
337.25	5.32
337.622	5.54
337.993	5.34
338.365	5.75
338.736	5.11
339.108	5.83
339.479	5.58
339.851	5.22
340.222	6.02
340.593	5.28
340.964	5.64
341.336	5.36
341.707	5.48
342.078	5.53
342.449	5.6
342.82	6.06
343.191	5.82
343.562	6.01
343.933	5.36
344.303	5.43
344.674	5.56
345.045	5.74
345.416	6.09
345.786	5.79
346.157	6.25
346.527	5.82
346.898	5.38
347.268	6.03
347.639	5.97
348.009	6.14
348.38	6.06
348.75	6.35
349.12	6.58
349.49	6.2
349.861	6.06
350.231	6.36
350.601	5.9
350.971	6.34
351.341	6.5
351.711	6.35
352.081	6.16
352.45	6.39
352.82	6
353.19	6.34
353.56	6.26
353.929	6.51
354.299	7.02
354.669	6.95
355.038	6.97
355.408	6.53
355.777	6.8
356.147	6.87
356.516	6.42
356.885	6.85
357.254	6.66
357.624	6.53
357.993	6.9
358.362	6.91
358.731	7.25
359.1	6.76
359.469	6.97
359.838	7.23
360.207	7.26
360.576	7.51
360.945	7.22
361.314	6.96
361.682	7.05
362.051	7.4
362.42	7.33
362.788	7.46
363.157	7.06
363.525	7.2
363.894	7.1
364.262	7.45
364.631	7.71
364.999	7.56
365.367	7.15
365.735	7.27
366.104	7.62
366.472	7.75
366.84	7.45
367.208	7.88
367.576	7.71
367.944	7.55
368.312	7.58
368.68	7.72
369.048	7.82
369.416	7.65
369.783	7.57
370.151	8.1
370.519	8.26
370.886	8.2
371.254	8.69
371.621	8.18
371.989	8.17
372.356	8.32
372.724	7.93
373.091	7.89
373.458	8.2
373.826	8.34
374.193	8.17
374.56	8.54
374.927	8.08
375.294	8.49
375.661	8.36
376.028	8.56
376.395	8.59
376.762	8.09
377.129	8.34
377.496	8.48
377.863	8.81
378.229	8.92
378.596	8.49
378.963	8.62
379.329	8.99
379.696	8.72
380.062	8.63
380.429	8.9
380.795	9.15
381.161	8.74
381.528	8.84
381.894	9.08
382.26	9.03
382.626	9.12
382.993	9.33
383.359	8.93
383.725	9.06
384.091	9.36
384.457	9.04
384.823	9.32
385.188	9.23
385.554	9.36
385.92	9.27
386.286	9.16
386.651	9.31
387.017	9.69
387.383	9.45
387.748	9.58
388.114	9.56
388.479	9.52
388.845	9.59
389.21	10.08
389.575	9.82
389.94	9.86
390.306	9.94
390.671	9.93
391.036	9.8
391.401	9.79
391.766	9.89
392.131	10.21
392.496	9.84
392.861	9.82
393.226	9.85
393.591	9.86
393.956	10.16
394.32	10.18
394.685	10.2
395.05	10.19
395.414	10.24
395.779	10.25
396.143	10.15
396.508	10.48
396.872	10.25
397.236	10.61
397.601	10.39
397.965	10.55
398.329	10.65
398.694	10.42
399.058	10.53
399.422	10.45
399.786	10.84
400.15	10.66
400.514	10.96
400.878	10.83
401.242	10.98
401.605	10.91
401.969	10.96
402.333	10.76
402.697	11.15
403.06	10.99
403.424	11.23
403.787	11.05
404.151	11.15
404.514	11.31
404.878	11.09
405.241	11.04
405.604	11.29
405.968	11.16
406.331	11.26
406.694	11.16
407.057	11.21
407.42	11.05
407.783	11.39
408.146	11.53
408.509	11.55
408.872	11.55
409.235	11.8
409.598	11.79
409.961	11.79
410.323	11.64
410.686	11.63
411.049	11.8
411.411	11.67
411.774	11.87
412.136	11.65
412.499	11.93
412.861	11.54
413.223	11.78
413.586	12.09
413.948	12.19
414.31	12.09
414.672	12.26
415.035	12.34
415.397	12.29
415.759	11.89
416.121	12.27
416.483	12.24
416.845	12.27
417.206	12.32
417.568	12.41
417.93	12.22
418.292	12.17
418.653	12.1
419.015	12.27
419.377	12.3
419.738	12.39
420.1	12.34
420.461	12.33
420.822	12.33
421.184	12.28
421.545	12.37
421.906	12.33
422.267	12.32
422.629	12.29
422.99	12.37
423.351	12.41
423.712	12.48
424.073	12.6
424.434	12.68
424.795	12.6
425.155	12.58
425.516	12.61
425.877	12.71
426.238	12.68
426.598	12.77
426.959	12.87
427.32	12.87
427.68	13.04
428.041	13.17
428.401	13
428.761	13.2
429.122	13.35
429.482	13.39
429.842	13.44
430.202	13.48
430.563	13.45
430.923	13.54
431.283	13.69
431.643	13.72
432.003	13.75
432.363	13.82
432.722	13.79
433.082	13.76
433.442	13.86
433.802	13.75
434.161	13.7
434.521	13.75
434.881	13.93
435.24	13.81
435.6	13.84
435.959	13.82
436.319	13.99
436.678	14.09
437.037	14.17
437.396	14.19
437.756	14.4
438.115	14.31
438.474	14.24
438.833	14.32
439.192	14.3
439.551	14.23
439.91	14.42
440.269	14.31
440.628	14.23
440.987	14.36
441.345	14.43
441.704	14.38
442.063	14.34
442.421	14.41
442.78	14.44
443.138	14.48
443.497	14.71
443.855	14.82
444.214	14.71
444.572	15.01
444.93	14.94
445.288	14.79
445.647	14.87
446.005	14.91
446.363	14.87
446.721	14.87
447.079	14.75
447.437	14.83
447.795	14.73
448.153	14.8
448.51	14.97
448.868	14.86
449.226	15.01
449.584	15.15
449.941	15.23
450.299	15.27
450.656	15.29
451.014	15.48
451.371	15.54
451.729	15.62
452.086	15.59
452.443	15.79
452.801	15.7
453.158	15.87
453.515	15.61
453.872	15.67
454.229	15.62
454.586	15.67
454.943	15.86
455.3	16.06
455.657	15.87
456.014	16.03
456.371	16.08
456.727	16.12
457.084	16.13
457.441	16.24
457.797	16.3
458.154	16.31
458.51	16.4
458.867	16.4
459.223	16.38
459.58	16.36
459.936	16.31
460.292	16.34
460.648	16.26
461.005	16.29
461.361	16.15
461.717	16.14
462.073	16.34
462.429	16.42
462.785	16.85
463.141	16.79
463.496	16.87
463.852	16.91
464.208	16.96
464.564	16.95
464.919	17
465.275	16.89
465.631	17.31
465.986	17.32
466.342	17.03
466.697	17.1
467.052	17.33
467.408	17.49
467.763	17.48
468.118	17.23
468.473	17.43
468.829	17.42
469.184	17.68
469.539	17.37
469.894	17.71
470.249	17.7
470.603	17.77
470.958	17.74
471.313	17.73
471.668	17.77
472.023	17.98
472.377	17.91
472.732	17.97
473.086	17.9
473.441	17.97
473.795	18.28
474.15	17.98
474.504	18.08
474.859	18.06
475.213	18.18
475.567	18.16
475.921	18.37
476.275	18.41
476.63	18.4
476.984	18.25
477.338	18.49
477.692	18.55
478.045	18.61
478.399	18.52
478.753	18.38
479.107	18.7
479.461	18.45
479.814	18.74
480.168	18.68
480.521	18.72
480.875	18.66
481.228	18.92
481.582	18.89
481.935	19.03
482.289	18.92
482.642	18.88
482.995	18.78
483.348	18.72
483.701	18.76
484.055	18.66
484.408	18.51
484.761	18.23
485.114	18.04
485.466	17.99
485.819	18.06
486.172	18.27
486.525	18.43
486.878	18.62
487.23	18.76
487.583	18.88
487.936	18.9
488.288	18.79
488.641	18.59
488.993	18.54
489.345	18.56
489.698	18.71
490.05	18.82
490.402	18.93
490.754	19.14
491.107	19.3
491.459	19.63
491.811	19.65
492.163	19.62
492.515	19.43
492.866	19.06
493.218	19.12
493.57	19.27
493.922	19.36
494.274	19.7
494.625	19.97
494.977	20.15
495.328	20.27
495.68	20.36
496.031	20.38
496.383	20.35
496.734	20.51
497.086	20.63
497.437	20.72
497.788	20.76
498.139	20.25
498.49	20.42
498.842	20.55
499.193	20.5
499.544	20.65
499.894	20.69
500.245	20.86
500.596	20.85
500.947	20.98
501.298	21.02
501.648	21.07
501.999	21.03
502.35	21.13
502.7	21.45
503.051	21.38
503.401	21.39
503.752	21.51
504.102	21.58
504.452	21.57
504.803	21.58
505.153	21.58
505.503	21.74
505.853	21.64
506.203	21.83
506.553	21.81
506.903	21.92
507.253	21.86
507.603	22.04
507.953	22.01
508.303	22.01
508.652	21.85
509.002	22.07
509.352	21.96
509.701	21.96
510.051	22.14
510.4	21.97
510.75	21.93
511.099	22.06
511.449	22.28
511.798	22.22
512.147	22.22
512.496	22.33
512.846	22.47
513.195	22.46
513.544	22.49
513.893	22.39
514.242	22.46
514.591	22.57
514.939	22.66
515.288	22.77
515.637	22.85
515.986	22.88
516.334	23.02
516.683	23.09
517.032	23.02
517.38	22.98
517.729	23.17
518.077	23.17
518.426	23.17
518.774	23.15
519.122	23.05
519.47	22.96
519.819	22.8
520.167	22.83
520.515	22.97
520.863	23.02
521.211	23.06
521.559	23.27
521.907	23.44
522.255	23.46
522.602	23.7
522.95	23.68
523.298	23.9
523.645	23.84
523.993	24.03
524.341	23.99
524.688	23.89
525.036	24.03
525.383	24.08
525.73	23.84
526.078	24.21
526.425	24.03
526.772	23.8
527.119	23.69
527.466	23.79
527.814	23.82
528.161	23.88
528.508	24.03
528.854	23.98
529.201	23.83
529.548	23.74
529.895	23.41
530.242	23.46
530.588	23.58
530.935	23.7
531.282	23.9
531.628	24.11
531.975	24.13
532.321	24.43
532.667	24.56
533.014	24.65
533.36	24.74
533.706	24.78
534.052	24.49
534.399	24.49
534.745	24.27
535.091	24.41
535.437	24.43
535.783	24.74
536.129	24.82
536.474	25.14
536.82	25.29
537.166	25.32
537.512	25.33
537.857	25.15
538.203	25.03
538.549	25.23
538.894	25.44
539.239	25.64
539.585	25.66
539.93	25.82
540.276	25.86
540.621	26.26
540.966	25.99
541.311	26.22
541.656	25.89
542.001	25.85
542.346	25.55
542.691	25.38
543.036	25.38
543.381	25.42
543.726	25.65
544.071	25.8
544.415	25.96
544.76	26.09
545.105	26.07
545.449	26.18
545.794	26.51
546.138	26.45
546.483	26.66
546.827	26.63
547.171	26.68
547.516	26.91
547.86	26.77
548.204	26.68
548.548	26.79
548.892	26.93
549.236	27.05
549.58	27.17
549.924	27.29
550.268	27.57
550.612	27.91
550.956	27.79
551.3	27.96
551.643	27.75
551.987	28.08
552.33	28.11
552.674	28.11
553.017	28.3
553.361	28.08
553.704	28.05
554.048	28
554.391	28.07
554.734	28.11
555.077	28.34
555.42	28.24
555.764	28.44
556.107	28.62
556.45	28.73
556.793	28.69
557.135	28.8
557.478	28.85
557.821	28.83
558.164	28.94
558.507	29.04
558.849	29.15
559.192	28.93
559.534	28.99
559.877	29.21
560.219	29.41
560.562	29.46
560.904	29.39
561.246	29.27
561.589	29.5
561.931	29.48
562.273	29.61
562.615	29.45
562.957	29.64
563.299	29.66
563.641	29.57
563.983	29.66
564.325	29.83
564.667	30.01
565.008	29.92
565.35	30.15
565.692	30.03
566.033	30.21
566.375	30.09
566.716	29.85
567.058	30.06
567.399	30.05
567.741	30.07
568.082	30.13
568.423	29.79
568.764	30.05
569.105	30.27
569.447	30.4
569.788	30.64
570.129	30.54
570.47	30.54
570.811	30.77
571.151	30.5
571.492	30.52
571.833	30.71
572.174	30.81
572.514	30.63
572.855	30.77
573.195	30.85
573.536	30.96
573.876	30.75
574.217	30.83
574.557	30.93
574.898	30.93
575.238	31.15
575.578	31.21
575.918	31.29
576.258	31.46
576.598	31.34
576.938	31.36
577.278	31.37
577.618	31.51
577.958	31.65
578.298	31.71
578.638	31.76
578.977	31.69
579.317	31.74
579.657	32.12
579.996	32.13
580.336	32.27
580.675	32.46
581.014	32.64
581.354	32.23
581.693	32.36
582.032	32.53
582.372	32.65
582.711	32.67
583.05	32.92
583.389	32.62
583.728	32.86
584.067	32.85
584.406	33.18
584.745	32.98
585.083	33.18
585.422	33.16
585.761	33.46
586.1	33.31
586.438	33.13
586.777	33.48
587.115	33.65
587.454	33.35
587.792	33.32
588.13	33.51
588.469	33.51
588.807	33.47
589.145	33.59
589.483	33.8
589.821	33.73
590.159	33.9
590.497	33.69
590.835	34.12
591.173	34.01
591.511	34.16
591.849	33.93
592.187	33.69
592.524	34.06
592.862	34.15
593.2	34.21
593.537	34.55
593.875	34.06
594.212	34.39
594.55	34.31
594.887	34.58
595.224	34.69
595.561	34.22
595.899	34.65
596.236	34.71
596.573	34.29
596.91	34.56
597.247	34.82
597.584	34.54
597.921	34.82
598.258	34.87
598.594	34.37
598.931	34.45
599.268	34.67
599.604	34.71
599.941	34.69
600.277	35.15
600.614	35.2
600.95	35.12
601.287	35.23
601.623	35.27
601.959	35.83
602.296	35.42
602.632	35.57
602.968	35.65
603.304	35.87
603.64	35.8
603.976	35.65
604.312	35.55
604.648	35.69
604.984	35.59
605.319	35.56
605.655	35.51
605.991	35.59
606.326	35.22
606.662	35.58
606.998	35.96
607.333	35.73
607.668	36.07
608.004	35.99
608.339	36.2
608.674	36.28
609.01	36.59
609.345	36.54
609.68	36.56
610.015	36.46
610.35	36.73
610.685	36.32
611.02	36.53
611.355	36.36
611.689	36.71
612.024	36.38
612.359	36.83
612.694	36.98
613.028	37
613.363	37.36
613.697	37.27
614.032	37.08
614.366	36.93
614.7	37.26
615.035	37.67
615.369	37.6
615.703	37.59
616.037	37.91
616.371	37.59
616.705	37.86
617.039	37.88
617.373	37.88
617.707	37.88
618.041	37.9
618.375	38.11
618.709	37.65
619.042	38.08
619.376	38.24
619.71	37.81
620.043	38.41
620.377	38.12
620.71	38.28
621.043	38.4
621.377	38.41
621.71	38.64
622.043	38.73
622.376	38.87
622.709	38.67
623.043	38.6
623.376	38.51
623.709	38.97
624.041	38.58
624.374	38.75
624.707	38.58
625.04	39.05
625.373	39.16
625.705	39.41
626.038	39.25
626.37	39.1
626.703	39.2
627.035	39.21
627.368	38.98
627.7	39.26
628.032	39.43
628.365	39.19
628.697	39.28
629.029	39.26
629.361	39.2
629.693	39.35
630.025	39.69
630.357	39.73
630.689	39.25
631.021	40.24
631.353	39.86
631.684	39.72
632.016	39.79
632.348	40.17
632.679	40.55
633.011	40.38
633.342	40.38
633.674	40.26
634.005	39.62
634.336	40.24
634.668	40.19
634.999	40.46
635.33	40.23
635.661	40.04
635.992	40.26
636.323	40.45
636.654	40.88
636.985	40.66
637.316	40.92
637.647	40.87
637.977	40.49
638.308	40.84
638.639	40.96
638.969	41.03
639.3	41.12
639.63	41.25
639.961	41.06
640.291	40.91
640.622	41.59
640.952	41.07
641.282	41.19
641.612	41.44
641.943	41.17
642.273	41.6
642.603	41.31
642.933	42.03
643.263	41.56
643.592	41.83
643.922	41.92
644.252	41.92
644.582	41.83
644.911	41.67
645.241	41.92
645.571	42.12
645.9	42.24
646.23	42.22
646.559	41.79
646.888	42.37
647.218	42.48
647.547	42.39
647.876	42.69
648.205	42.21
648.534	42.48
648.863	42.59
649.192	42.51
649.521	42.15
649.85	42.63
650.179	42.43
650.508	42.84
650.837	43
651.165	43.35
651.494	42.77
651.822	42.72
652.151	42.39
652.479	43.05
652.808	43.05
653.136	42.37
653.465	43.03
653.793	42.85
654.121	43.2
654.449	42.95
654.777	43.33
655.105	43.36
655.433	43.92
655.761	43.6
656.089	43.49
656.417	43.36
656.745	43.61
657.073	43.35
657.4	43.72
657.728	43.14
658.056	43.8
658.383	43.61
658.711	43.73
659.038	44.21
659.365	44.16
659.693	43.67
660.02	43.89
660.347	43.64
660.674	43.65
661.001	43.84
661.329	43.57
661.656	43.62
661.982	43.87
662.309	44.03
662.636	43.94
662.963	44.38
663.29	43.67
663.616	44.16
663.943	44.69
664.27	44.57
664.596	44.21
664.923	44.61
665.249	44.45
665.576	44.41
665.902	44.68
666.228	44.81
666.554	45.32
666.881	44.71
667.207	45.62
667.533	44.73
667.859	45.09
668.185	45.16
668.511	45.36
668.837	45.28
669.162	45.12
669.488	44.81
669.814	44.95
670.139	45.16
670.465	45.32
670.791	45.18
671.116	45.94
671.442	44.97
671.767	45
672.092	45.71
672.418	45.57
672.743	44.94
673.068	44.79
673.393	45.96
673.718	45.67
674.043	45.38
674.368	46.37
674.693	45.67
675.018	46.15
675.343	46.16
675.667	46.68
675.992	45.94
676.317	45.73
676.641	45.85
676.966	45.91
677.29	46.85
677.615	46.84
677.939	46.58
678.264	45.29
678.588	46.53
678.912	46.61
679.236	46.58
679.56	46.56
679.885	46.24
680.209	46.79
680.532	47.08
680.856	47.11
681.18	46.62
681.504	46.91
681.828	47.06
682.152	46.56
682.475	46.28
682.799	46.85
683.122	46.96
683.446	46.39
683.769	47.55
684.093	47.05
684.416	46.36
684.739	47.07
685.062	47.18
685.386	47.56
685.709	47.36
686.032	47.93
686.355	47.02
686.678	48.2
687.001	47.51
687.324	47.23
687.646	47.36
687.969	47.89
688.292	47.83
688.614	47.54
688.937	47.77
689.26	47.68
689.582	47.92
689.904	48.19
690.227	47.89
690.549	48.02
690.871	47.99
691.194	47.62
691.516	48.04
691.838	48.03
692.16	48.2
692.482	48.21
692.804	48.8
693.126	48.09
693.448	47.87
693.769	47.73
694.091	47.87
694.413	48.51
694.735	48.35
695.056	48.6
695.378	47.83
695.699	49.17
696.021	49.81
696.342	48.41
696.663	49.14
696.984	49.01
697.306	48.18
697.627	49.03
697.948	48.44
698.269	48.95
698.59	48.56
698.911	49.57
699.232	48.66
699.553	49.52
699.873	48.86
700.194	48.77
700.515	48.79
700.835	49.06
701.156	49.56
701.477	49.05
701.797	48.75
702.117	49.49
702.438	49.16
702.758	49.45
703.078	49.03
703.398	48.73
703.719	50.11
704.039	49.96
704.359	49.35
704.679	50.07
704.999	49.4
705.319	49.62
705.638	49.34
705.958	48.9
706.278	49.96
706.597	50.36
706.917	48.98
707.237	49.93
707.556	49.93
707.876	49.72
708.195	50.27
708.514	49.7
708.834	50.04
709.153	50.31
709.472	50.47
709.791	50.83
710.11	50.5
710.429	50.4
710.748	51.49
711.067	51.51
711.386	50.51
711.705	50.18
712.023	51.78
712.342	50.67
712.661	51.05
712.979	50.78
713.298	50.92
713.616	51.13
713.935	51.69
714.253	51.78
714.572	50.88
714.89	51.92
715.208	52.24
715.526	52.51
715.844	51.41
716.162	52.44
716.48	51.3
716.798	51.94
717.116	51.25
717.434	51.77
717.752	51.06
718.069	50.77
718.387	51.85
718.705	50.98
719.022	51.73
719.34	51.97
719.657	52.53
719.975	51.65
720.292	51.8
720.609	51.95
720.927	52.32
721.244	52.38
721.561	51.99
721.878	53.09
722.195	52.25
722.512	52.97
722.829	52.14
723.146	51.7
723.463	52.51
723.779	50.6
724.096	51.46
724.413	53.68
724.729	51.81
725.046	51.17
725.362	51.66
725.679	52.03
725.995	51.67
726.311	51.45
726.628	52.33
726.944	53.08
727.26	50.92
727.576	51.56
727.892	52.96
728.208	51.54
728.524	53
728.84	51.97
729.156	50.51
729.472	52.69
729.787	52.83
730.103	52.98
730.419	51.99
730.734	53.27
731.05	53.52
731.365	52.79
731.681	53.26
731.996	53.27
732.311	52.3
732.626	53.67
732.942	53.15
733.257	53.54
733.572	54.19
733.887	54.15
734.202	53.5
734.517	53.5
734.832	53.31
735.146	52.89
735.461	52.81
735.776	52.64
736.091	53.74
736.405	53.06
736.72	52.53
737.034	53.69
737.349	54.08
737.663	53.97
737.977	55.41
738.292	51.68
738.606	53.71
738.92	55.37
739.234	54.09
739.548	53.17
739.862	54.85
740.176	53.23
740.49	54.47
740.804	53.5
741.117	54.08
741.431	53.35
741.745	54.45
742.058	53.98
742.372	53.2
742.685	54.36
742.999	52.71
743.312	55.96
743.626	55.49
743.939	53.19
744.252	53.4
744.565	55.49
744.878	52.48
745.191	54.37
745.505	54.57
745.817	55.12
746.13	54.77
746.443	55.33
746.756	55.98
747.069	53.6
747.381	54.97
747.694	52.62
748.007	55.38
748.319	56
748.632	55.17
748.944	55.13
749.256	54.51
749.569	55.55
749.881	56.02
750.193	53.66
750.505	55.32
750.817	54.71
751.129	55.24
751.441	55.93
751.753	55.13
752.065	56.33
752.377	58.34
752.689	55.37
753	56.02
753.312	55.1
753.624	54.56
753.935	54.14
754.247	57.33
754.558	54.25
754.869	56.02
755.181	55.82
755.492	56.13
755.803	54.77
756.114	55.48
756.425	54.87
756.736	54.52
757.047	56.27
757.358	55.2
757.669	55.15
757.98	55.74
758.291	56.32
758.601	57.25
758.912	55.96
759.223	54.79
759.533	55.64
759.844	55.09
760.154	56.03
760.464	56.74
760.775	58.07
761.085	54.8
761.395	55.37
761.705	57.25
762.016	56.36
762.326	58.86
762.636	56.7
762.945	56.29
763.255	56.16
763.565	58.02
763.875	56.97
764.185	57.98
764.494	57
764.804	56.25
765.113	55.12
765.423	57.43
765.732	56.74
766.042	58.23
766.351	58.29
766.66	56.51
766.97	56.85
767.279	58.65
767.588	56.38
767.897	56.85
768.206	55.55
768.515	55.5
768.824	58.32
769.133	58.76
769.441	56.16
769.75	56.05
770.059	55.85
770.367	57.65
770.676	56.88
770.984	54.51
771.293	59.75
771.601	55.26
771.91	57.9
772.218	56.98
772.526	53.26
772.834	57.41
773.142	58.27
773.45	56.37
773.758	60.79
774.066	54.8
774.374	59.33
774.682	55.29
774.99	54.84
775.298	55.33
775.605	59.52
775.913	56.7
776.22	55.58
776.528	59.63
776.835	56.74
777.143	57.53
777.45	56.64
777.757	58.1
778.065	58.06
778.372	57.36
778.679	59.4
778.986	56.04
779.293	56.71
779.6	55.56
779.907	56.29
780.214	56.71
780.52	56.91
780.827	57.91
781.134	58.05
781.44	59.69
781.747	58.47
782.053	58.42
782.36	60.11
782.666	58.1
782.973	57.07
783.279	59.18
783.585	60.11
783.891	56.42
784.197	59.01
784.503	58.42
784.809	57.67
785.115	59.12
785.421	60.8
785.727	63.35
786.033	62.88
786.339	60.75
786.644	56.8
786.95	57.76
787.255	57.57
787.561	57.1
787.866	58.57
788.172	57.01
788.477	55.97
788.782	55.91
789.088	55.95
789.393	60.88
789.698	57.1
790.003	60.86
790.308	57.94
790.613	58.1
790.918	60.1
791.223	58.8
791.527	61.16
791.832	58.53
792.137	61.55
792.441	59.31
792.746	54.58
793.05	60.34
793.355	60.83
793.659	61.84
793.963	57.1
794.268	60.86
794.572	60
794.876	56.87
795.18	57.35
795.484	58.6
795.788	58.29
796.092	57.93
796.396	59.68
796.7	59.6
797.004	56.44
797.307	58.19
797.611	61.12
797.915	57.99
798.218	57.64
798.522	55.38
798.825	59.57
799.128	63.29
799.432	56.62
799.735	61.67
800.038	60.64
800.341	60.5
800.644	55.84
800.947	61.42
801.25	58.46
801.553	61.47
801.856	58.84
802.159	57.97
802.462	58.28
802.764	60.11
803.067	58.04
803.37	55.41
803.672	61.4
803.975	60.61
804.277	59.82
804.579	58.19
804.882	58.42
805.184	60.05
805.486	60.77
805.788	62.28
806.09	58.91
806.392	60.58
806.694	59.79
806.996	65.36
807.298	58.57
807.6	64.59
807.902	62.78
808.203	57.3
808.505	56.75
808.807	59.77
809.108	57.23
809.409	57.26
809.711	62.02
810.012	56.52
810.313	60.88
810.615	59.97
810.916	61.82
811.217	56.12
811.518	56.22
811.819	60.56
812.12	58.79
812.421	55.79
812.722	60.39
813.023	65.55
813.323	61.38
813.624	62.23
813.925	60.21
814.225	63.81
814.526	54.2
814.826	59.31
815.126	57.62
815.427	58.99
815.727	65.45
816.027	62.89
816.327	57.32
816.627	68.65
816.927	58.35
817.227	55.92
817.527	56.84
817.827	53.17
818.127	54.76
818.427	63.06
818.727	58.36
819.026	63.06
819.326	57.22
819.625	67.02
819.925	62.92
820.224	67.86
820.524	57.38
820.823	59.59
821.122	57.11
821.421	54.07
821.72	60.91
822.019	60.15
822.318	61.94
822.617	60.82
822.916	62.12
823.215	61.38
823.514	60.89
823.813	60.59
824.111	63.01
824.41	62.58
824.709	63.24
825.007	64.17
825.306	63.67
825.604	63.27
825.902	63.2
826.201	62.71
826.499	62.14
826.797	62.76
827.095	62.72
827.393	63.57
827.691	61.72
827.989	61.53
828.287	61.44
828.585	60.45
828.882	58.83
829.18	63.3
829.478	64.26
829.775	63.42
830.073	63.61
830.37	64.79
830.668	61.85
830.965	65.35
831.263	62.59
831.56	65.2
831.857	64.4
832.154	62.56
832.451	63.97
832.748	58.01
833.045	65.3
833.342	58.32
833.639	59.93
833.936	58.33
834.232	65.35
834.529	64.48
834.826	66.29
835.122	59.98
835.419	62.65
835.715	64.42
836.012	61.99
836.308	65.72
836.604	64.21
836.901	60.96
837.197	61.26
837.493	63.9
837.789	60.23
838.085	62.54
838.381	59.89
838.677	60.51
838.972	57.33
839.268	61.83
839.564	66.43
839.86	59.26
840.155	64.47
840.451	67.89
840.746	58.43
841.042	55.44
841.337	61.09
841.632	58.92
841.928	70.25
842.223	58.57
842.518	59.77
842.813	65.07
843.108	62.62
843.403	72.02
843.698	65.37
843.993	67.54
844.287	56.15
844.582	60.89
844.877	59.98
845.171	56.01
845.466	66.46
845.761	65.45
846.055	65.31
846.349	51.32
846.644	54.08
846.938	58.53
847.232	56.39
847.526	62.01
847.82	60.19
848.114	47.47
848.408	52.67
848.702	74.21
848.996	57.27
849.29	62.26
849.584	82
849.877	55.52
850.171	66.57
850.465	49.83
850.758	48.98
851.052	55.25
851.345	56.25
851.638	69.65
851.932	55.15
852.225	54.35
852.518	54.35
852.811	43.34
853.104	39.66
853.397	50.4
853.69	59.28
853.983	49.99
854.276	62.19
854.569	51.25
854.861	45.25
855.154	55.57
855.447	68.92
855.739	46
856.032	70.64
856.324	47.51
856.616	69.75
856.909	48.63
857.201	65.09
857.493	51.45
857.785	54.29
858.077	67.83
858.369	75.3
858.661	43.71
858.953	60.86
859.245	50.56
859.537	62.57
859.829	67.07
860.12	54.26
860.412	52.08
860.703	59.52
860.995	79.42
861.286	53.64
861.578	47.44
861.869	48.03
862.16	50.65
862.452	58.66
862.743	63.65
863.034	63.99
863.325	66.13
863.616	55.68
863.907	59.64
864.198	29.45
864.488	58.35
864.779	75.64
865.07	62.45
865.36	74.44
865.651	71.7
865.941	53.94
866.232	75.57
866.522	42.61
866.813	70.9
867.103	47.88
867.393	47.52
867.683	38.21
867.973	57.76
868.263	50.2
868.553	53.78
868.843	31.84
869.133	44.39
869.423	74.3
869.713	27.53
870.002	67.84
870.292	55.37
870.582	34.32
870.871	47.57
871.161	44.78
871.45	46.4
871.739	71.46
872.029	78.66
872.318	55.16
872.607	79.34
872.896	66.97
873.185	43.04
873.474	32.6
873.763	74.04
874.052	53.26
874.341	79.6
874.63	35.27
874.918	63.45
875.207	54.97
875.496	62.02
875.784	9.8
876.073	27.28
876.361	58.83
876.649	52.68
876.938	73.38
877.226	50.19
877.514	65.31
877.802	78.43
878.09	45.49
878.378	59.1
878.666	72.23
878.954	65.47
879.242	51.36
879.53	60.13
879.817	62.43
880.105	51.04
880.392	66.89
880.68	79.55
880.967	39.76
881.255	60.64
881.542	61.58
881.83	62.3
882.117	37.41
882.404	39.44
882.691	42.24
882.978	73.69
883.265	63.21
883.552	56.97
883.839	61.29
884.126	67.26
884.413	71.19
884.699	64.54
884.986	59.56
885.273	65.11
885.559	65.11
885.846	65.11
