Data from 0002_chest_Reflection__1__272.txt Node

Date: Thu Dec 15 18:52:52 CST 2022
User: ToomeyLab
Spectrometer: FLMS14357
Trigger mode: 0
Integration Time (sec): 1.000000E-2
Scans to average: 100
Electric dark correction enabled: true
Nonlinearity correction enabled: false
Boxcar width: 0
XAxis mode: Wavelengths
Number of Pixels in Spectrum: 2048
>>>>>Begin Spectral Data<<<<<
189.047	94.34
189.435	94.34
189.823	94.34
190.211	850.68
190.599	84.81
190.987	141.73
191.375	220.37
191.763	201.25
192.151	-112.91
192.538	-102.87
192.926	76.46
193.314	10.51
193.702	12408.33
194.089	-9.88
194.477	-39.98
194.864	-12.69
195.252	-86.18
195.639	42.15
196.027	-28.18
196.414	91.55
196.801	33.5
197.189	129.55
197.576	-110.1
197.963	-453.86
198.351	1.47
198.738	23.25
199.125	-8.02
199.512	21.01
199.899	-55.33
200.286	-9.92
200.673	60.13
201.06	29.51
201.447	-0.62
201.833	18.98
202.22	28.27
202.607	-9.52
202.994	-8.5
203.38	14.32
203.767	-4.01
204.154	14.71
204.54	52.86
204.927	33.28
205.313	51.56
205.699	10.29
206.086	5.22
206.472	14.14
206.858	4.6
207.245	13.68
207.631	2.13
208.017	36.64
208.403	-87.01
208.789	-14.83
209.175	-6.1
209.561	-119.27
209.947	-12.82
210.333	-8.15
210.719	-9.96
211.105	42.39
211.491	13.27
211.876	-20.21
212.262	21.54
212.648	15.58
213.034	-4.64
213.419	-48.45
213.805	-12.21
214.19	-27.64
214.576	-4.8
214.961	0.3
215.346	-6.45
215.732	9.51
216.117	11.2
216.502	5.84
216.888	-41.57
217.273	-16.07
217.658	-8.39
218.043	-17.18
218.428	-35.83
218.813	20.41
219.198	-47.51
219.583	-9.48
219.968	27.76
220.353	-16.1
220.738	6.64
221.122	5.7
221.507	-33.57
221.892	-29.5
222.276	-15.04
222.661	-2.76
223.046	-13.25
223.43	14.77
223.815	8.91
224.199	-7.65
224.583	-11.36
224.968	0.13
225.352	-10.77
225.736	11.29
226.121	9.9
226.505	-12.18
226.889	-1.16
227.273	-8.35
227.657	2.68
228.041	2.15
228.425	-5.19
228.809	-0.13
229.193	0.41
229.577	2.83
229.961	2.15
230.344	3.98
230.728	4.47
231.112	4.17
231.495	3.14
231.879	2.33
232.263	2.49
232.646	2.31
233.03	4.82
233.413	3.57
233.797	1.37
234.18	6.27
234.563	4.44
234.946	1.41
235.33	3.39
235.713	3.83
236.096	4.74
236.479	4.12
236.862	1.33
237.245	1.94
237.628	3.22
238.011	2.62
238.394	2.76
238.777	5.34
239.16	4.47
239.543	2.81
239.925	2.67
240.308	0.75
240.691	3.02
241.073	2.12
241.456	3.83
241.838	3.81
242.221	3.79
242.603	3.78
242.986	2.66
243.368	3.57
243.75	3.36
244.133	3.53
244.515	3.79
244.897	3.54
245.279	3.24
245.661	2.53
246.043	2.59
246.425	3.37
246.807	2.92
247.189	3.74
247.571	3.43
247.953	3.32
248.335	3.57
248.717	3.49
249.098	3.29
249.48	3.16
249.862	3.49
250.243	3.79
250.625	3.81
251.006	3.51
251.388	3.26
251.769	2.97
252.151	3.2
252.532	3.09
252.913	2.98
253.295	2.94
253.676	3.33
254.057	3.29
254.438	3.5
254.819	3.23
255.2	3.5
255.581	3.15
255.962	4.07
256.343	4
256.724	4.59
257.105	2.14
257.486	2.39
257.867	1.72
258.247	2.96
258.628	4.17
259.009	2.61
259.389	2.73
259.77	2.99
260.15	4.01
260.531	3.12
260.911	3.19
261.292	3.14
261.672	3.1
262.052	3.17
262.432	2.97
262.813	3.39
263.193	3.23
263.573	3.19
263.953	2.76
264.333	3.26
264.713	3.29
265.093	2.73
265.473	2.75
265.853	3.12
266.233	3.65
266.612	2.09
266.992	2.85
267.372	2.88
267.752	3.57
268.131	2.59
268.511	3.06
268.89	3.31
269.27	2.47
269.649	2.82
270.029	2.48
270.408	2.91
270.787	3.4
271.167	3.14
271.546	3.47
271.925	3.07
272.304	2.68
272.683	2.64
273.062	2.8
273.441	2.56
273.82	3.01
274.199	2.6
274.578	3
274.957	3.19
275.336	3.08
275.715	3.04
276.093	2.93
276.472	2.25
276.851	2.86
277.229	2.68
277.608	2.62
277.986	2.78
278.365	3.41
278.743	3.35
279.122	2.42
279.5	2.59
279.878	2.72
280.257	3.29
280.635	3.56
281.013	2.64
281.391	2.36
281.769	3.28
282.147	3.2
282.525	2.39
282.903	2.68
283.281	3.43
283.659	3.58
284.037	2.63
284.415	2.4
284.792	3.26
285.17	2.53
285.548	2.79
285.925	2.77
286.303	3.25
286.68	2.96
287.058	2.81
287.435	2.62
287.813	2.54
288.19	2.69
288.567	2.64
288.945	2.8
289.322	2.85
289.699	2.78
290.076	2.7
290.453	2.62
290.83	2.8
291.207	2.76
291.584	3.24
291.961	2.71
292.338	2.37
292.715	2.61
293.092	3.23
293.469	2.99
293.845	2.96
294.222	3.05
294.599	2.94
294.975	2.47
295.352	2.96
295.728	2.99
296.105	2.53
296.481	2.88
296.858	2.64
297.234	2.33
297.61	2.6
297.986	2.7
298.363	2.86
298.739	3.22
299.115	2.83
299.491	3.07
299.867	2.77
300.243	2.49
300.619	2.66
300.995	2.65
301.371	3.07
301.746	2.79
302.122	2.53
302.498	2.64
302.874	3.17
303.249	2.4
303.625	2.71
304	2.68
304.376	2.92
304.751	2.54
305.127	2.5
305.502	2.7
305.878	2.91
306.253	2.12
306.628	2.73
307.003	2.3
307.378	2.1
307.754	2.62
308.129	2.18
308.504	2.96
308.879	2.92
309.254	2.95
309.629	3.07
310.003	3.02
310.378	2.58
310.753	2.46
311.128	1.99
311.502	2.62
311.877	2.8
312.252	2.76
312.626	2.85
313.001	2.83
313.375	2.9
313.75	2.84
314.124	2.9
314.498	2.65
314.873	2.39
315.247	2.44
315.621	2.41
315.995	2.51
316.369	2.48
316.743	2.45
317.117	2.18
317.491	2.63
317.865	2.03
318.239	3.08
318.613	2.55
318.987	2.21
319.361	2.6
319.734	2.57
320.108	2.87
320.482	2.74
320.855	2.74
321.229	3.03
321.602	2.75
321.976	2.22
322.349	2.97
322.723	2.79
323.096	2.59
323.469	2.29
323.843	2.33
324.216	3.05
324.589	3.03
324.962	2.03
325.335	2.29
325.708	2.59
326.081	2.45
326.454	2.77
326.827	2.3
327.2	2.06
327.573	2.85
327.945	2.23
328.318	2.6
328.691	2.42
329.063	2.1
329.436	2.63
329.809	2.81
330.181	3.33
330.553	3.43
330.926	2.85
331.298	2.28
331.671	2.92
332.043	2.53
332.415	2.86
332.787	2.58
333.159	2.48
333.532	2.66
333.904	2.78
334.276	2.8
334.648	2.95
335.02	2.72
335.391	2.47
335.763	2.58
336.135	2.93
336.507	2.06
336.879	2.69
337.25	2.13
337.622	3.04
337.993	2.55
338.365	2.44
338.736	3.01
339.108	2.77
339.479	3.04
339.851	2.99
340.222	3.06
340.593	2.58
340.964	2.63
341.336	2.7
341.707	2.71
342.078	2.58
342.449	2.32
342.82	2.59
343.191	2.85
343.562	2.73
343.933	2.49
344.303	2.5
344.674	2.74
345.045	2.59
345.416	2.66
345.786	2.58
346.157	2.82
346.527	2.75
346.898	2.38
347.268	2.7
347.639	2.27
348.009	2.88
348.38	2.6
348.75	2.79
349.12	2.86
349.49	3.15
349.861	2.9
350.231	2.7
350.601	2.71
350.971	2.65
351.341	2.7
351.711	2.63
352.081	2.49
352.45	2.36
352.82	2.35
353.19	2.57
353.56	2.87
353.929	2.78
354.299	2.73
354.669	2.59
355.038	2.94
355.408	2.71
355.777	3.14
356.147	2.68
356.516	2.48
356.885	2.55
357.254	2.46
357.624	2.62
357.993	2.82
358.362	3.05
358.731	2.86
359.1	2.75
359.469	2.85
359.838	2.91
360.207	2.73
360.576	2.73
360.945	2.59
361.314	2.72
361.682	2.65
362.051	2.72
362.42	2.59
362.788	2.79
363.157	2.74
363.525	2.8
363.894	2.56
364.262	2.56
364.631	2.91
364.999	2.75
365.367	2.49
365.735	2.62
366.104	2.49
366.472	2.5
366.84	2.79
367.208	2.99
367.576	2.8
367.944	2.74
368.312	2.68
368.68	2.78
369.048	2.79
369.416	2.45
369.783	3.04
370.151	3.26
370.519	2.9
370.886	2.89
371.254	3.23
371.621	2.95
371.989	2.81
372.356	2.94
372.724	2.59
373.091	2.81
373.458	2.48
373.826	2.79
374.193	2.67
374.56	3.07
374.927	2.73
375.294	3.04
375.661	2.61
376.028	3.03
376.395	2.85
376.762	2.7
377.129	2.64
377.496	2.85
377.863	2.85
378.229	3.01
378.596	3.12
378.963	2.94
379.329	3.06
379.696	2.52
380.062	2.95
380.429	2.51
380.795	3.13
381.161	2.79
381.528	2.62
381.894	2.59
382.26	2.88
382.626	2.94
382.993	3.04
383.359	2.71
383.725	2.58
384.091	2.69
384.457	2.64
384.823	2.84
385.188	2.9
385.554	3.04
385.92	2.75
386.286	2.94
386.651	2.8
387.017	3.04
387.383	2.83
387.748	3.19
388.114	3.05
388.479	2.73
388.845	2.63
389.21	3.22
389.575	3.06
389.94	3.4
390.306	3.08
390.671	2.84
391.036	3.04
391.401	3.02
391.766	3
392.131	3.03
392.496	2.97
392.861	2.95
393.226	2.79
393.591	2.87
393.956	2.97
394.32	3.26
394.685	2.98
395.05	2.88
395.414	2.91
395.779	3.06
396.143	2.89
396.508	2.85
396.872	3.07
397.236	3.21
397.601	3.18
397.965	2.91
398.329	2.77
398.694	2.82
399.058	2.8
399.422	2.83
399.786	2.94
400.15	3.02
400.514	2.94
400.878	2.91
401.242	2.93
401.605	2.84
401.969	2.96
402.333	3.05
402.697	3.28
403.06	2.88
403.424	2.97
403.787	3.14
404.151	2.95
404.514	3.21
404.878	2.88
405.241	3.03
405.604	3.04
405.968	3.14
406.331	3.01
406.694	2.93
407.057	2.94
407.42	2.99
407.783	3.24
408.146	2.97
408.509	3.15
408.872	3.03
409.235	3.13
409.598	3.19
409.961	3.24
410.323	3.02
410.686	2.96
411.049	3.16
411.411	2.92
411.774	3.06
412.136	3.08
412.499	3.2
412.861	2.7
413.223	2.95
413.586	3.14
413.948	3.35
414.31	3.23
414.672	2.95
415.035	3.1
415.397	2.97
415.759	3.14
416.121	3.15
416.483	3.05
416.845	2.87
417.206	3.06
417.568	2.88
417.93	3.13
418.292	3.07
418.653	2.84
419.015	3.06
419.377	3.05
419.738	3.1
420.1	3.2
420.461	3.06
420.822	3.03
421.184	2.96
421.545	2.97
421.906	2.98
422.267	3.08
422.629	2.99
422.99	2.98
423.351	3
423.712	3.04
424.073	3.13
424.434	3.12
424.795	2.99
425.155	2.95
425.516	2.91
425.877	3.05
426.238	3.07
426.598	3.05
426.959	3.05
427.32	3.04
427.68	3.13
428.041	3.13
428.401	3.01
428.761	3.23
429.122	3.12
429.482	3.05
429.842	3.08
430.202	3.19
430.563	3.08
430.923	3.06
431.283	3.09
431.643	3.23
432.003	3.18
432.363	3.16
432.722	3.13
433.082	2.98
433.442	3.23
433.802	3.11
434.161	3.11
434.521	3.16
434.881	3.27
435.24	3.15
435.6	3.15
435.959	3.09
436.319	3.01
436.678	3.28
437.037	3.2
437.396	3.14
437.756	3.01
438.115	3.13
438.474	3.14
438.833	3.01
439.192	3.09
439.551	3.06
439.91	3.07
440.269	3.06
440.628	3.07
440.987	3.2
441.345	3.2
441.704	3.15
442.063	3.09
442.421	3.1
442.78	3.18
443.138	3.15
443.497	3.16
443.855	3.13
444.214	3.02
444.572	3.38
444.93	3.07
445.288	3.17
445.647	3.03
446.005	3.07
446.363	3.21
446.721	3.16
447.079	3.09
447.437	3.14
447.795	3.13
448.153	3.21
448.51	3.14
448.868	3.08
449.226	3.19
449.584	3.19
449.941	3.15
450.299	3.17
450.656	3.27
451.014	3.31
451.371	3.27
451.729	3.28
452.086	3.21
452.443	3.2
452.801	3.17
453.158	3.36
453.515	3.18
453.872	3.3
454.229	3.08
454.586	3.16
454.943	3.35
455.3	3.28
455.657	3.14
456.014	3.22
456.371	3.27
456.727	3.29
457.084	3.33
457.441	3.28
457.797	3.26
458.154	3.27
458.51	3.13
458.867	3.43
459.223	3.13
459.58	3.21
459.936	3.23
460.292	3.17
460.648	3.08
461.005	3.1
461.361	3.17
461.717	3.15
462.073	3.28
462.429	3.24
462.785	3.33
463.141	3.28
463.496	3.28
463.852	3.27
464.208	3.26
464.564	3.11
464.919	3.23
465.275	3.25
465.631	3.31
465.986	3.41
466.342	3.21
466.697	3.29
467.052	3.43
467.408	3.34
467.763	3.2
468.118	3.08
468.473	3.27
468.829	3.23
469.184	3.36
469.539	3.2
469.894	3.46
470.249	3.39
470.603	3.3
470.958	3.47
471.313	3.34
471.668	3.28
472.023	3.4
472.377	3.23
472.732	3.47
473.086	3.36
473.441	3.3
473.795	3.65
474.15	3.42
474.504	3.43
474.859	3.27
475.213	3.4
475.567	3.3
475.921	3.33
476.275	3.47
476.63	3.42
476.984	3.09
477.338	3.4
477.692	3.31
478.045	3.45
478.399	3.34
478.753	3.32
479.107	3.37
479.461	3.3
479.814	3.39
480.168	3.35
480.521	3.52
480.875	3.42
481.228	3.5
481.582	3.44
481.935	3.52
482.289	3.43
482.642	3.56
482.995	3.29
483.348	3.3
483.701	3.42
484.055	3.34
484.408	3.31
484.761	3.25
485.114	3.13
485.466	3.14
485.819	3.19
486.172	3.22
486.525	3.25
486.878	3.31
487.23	3.28
487.583	3.35
487.936	3.3
488.288	3.26
488.641	3.24
488.993	3.22
489.345	3.22
489.698	3.25
490.05	3.29
490.402	3.27
490.754	3.34
491.107	3.26
491.459	3.46
491.811	3.42
492.163	3.36
492.515	3.29
492.866	3.26
493.218	3.26
493.57	3.37
493.922	3.29
494.274	3.39
494.625	3.49
494.977	3.45
495.328	3.52
495.68	3.49
496.031	3.55
496.383	3.53
496.734	3.51
497.086	3.52
497.437	3.55
497.788	3.62
498.139	3.46
498.49	3.49
498.842	3.52
499.193	3.49
499.544	3.56
499.894	3.47
500.245	3.57
500.596	3.6
500.947	3.48
501.298	3.52
501.648	3.56
501.999	3.59
502.35	3.48
502.7	3.74
503.051	3.55
503.401	3.58
503.752	3.56
504.102	3.62
504.452	3.57
504.803	3.51
505.153	3.64
505.503	3.61
505.853	3.61
506.203	3.59
506.553	3.63
506.903	3.61
507.253	3.58
507.603	3.69
507.953	3.61
508.303	3.63
508.652	3.43
509.002	3.79
509.352	3.63
509.701	3.56
510.051	3.82
510.4	3.61
510.75	3.56
511.099	3.57
511.449	3.66
511.798	3.58
512.147	3.57
512.496	3.68
512.846	3.64
513.195	3.69
513.544	3.68
513.893	3.73
514.242	3.64
514.591	3.64
514.939	3.71
515.288	3.74
515.637	3.7
515.986	3.74
516.334	3.79
516.683	3.78
517.032	3.67
517.38	3.64
517.729	3.76
518.077	3.8
518.426	3.81
518.774	3.68
519.122	3.73
519.47	3.7
519.819	3.75
520.167	3.7
520.515	3.75
520.863	3.7
521.211	3.7
521.559	3.72
521.907	3.8
522.255	3.77
522.602	3.74
522.95	3.8
523.298	3.86
523.645	3.77
523.993	3.92
524.341	3.8
524.688	3.76
525.036	3.82
525.383	3.86
525.73	3.72
526.078	3.88
526.425	3.74
526.772	3.8
527.119	3.77
527.466	3.86
527.814	3.79
528.161	3.88
528.508	3.83
528.854	3.88
529.201	3.78
529.548	3.77
529.895	3.66
530.242	3.67
530.588	3.68
530.935	3.77
531.282	3.78
531.628	3.84
531.975	3.83
532.321	3.9
532.667	3.88
533.014	3.96
533.36	3.94
533.706	3.96
534.052	3.95
534.399	3.92
534.745	3.85
535.091	3.8
535.437	3.94
535.783	3.94
536.129	3.95
536.474	4.04
536.82	4.08
537.166	3.99
537.512	3.99
537.857	4.07
538.203	4
538.549	4
538.894	4.04
539.239	4.13
539.585	4.17
539.93	4.15
540.276	4.14
540.621	4.28
540.966	4.21
541.311	4.26
541.656	4.22
542.001	4.12
542.346	4.04
542.691	3.96
543.036	4.03
543.381	4.01
543.726	4.14
544.071	4.12
544.415	4.11
544.76	4.14
545.105	4.14
545.449	4.24
545.794	4.29
546.138	4.21
546.483	4.26
546.827	4.2
547.171	4.3
547.516	4.33
547.86	4.4
548.204	4.36
548.548	4.4
548.892	4.4
549.236	4.39
549.58	4.38
549.924	4.51
550.268	4.46
550.612	4.56
550.956	4.58
551.3	4.68
551.643	4.42
551.987	4.51
552.33	4.6
552.674	4.58
553.017	4.64
553.361	4.74
553.704	4.54
554.048	4.58
554.391	4.72
554.734	4.53
555.077	4.67
555.42	4.57
555.764	4.71
556.107	4.8
556.45	4.77
556.793	4.81
557.135	4.71
557.478	4.71
557.821	4.76
558.164	4.84
558.507	4.74
558.849	4.95
559.192	4.79
559.534	4.85
559.877	4.84
560.219	4.88
560.562	4.94
560.904	5.08
561.246	4.8
561.589	5.09
561.931	4.86
562.273	4.76
562.615	4.82
562.957	4.94
563.299	5.05
563.641	4.89
563.983	4.92
564.325	4.97
564.667	4.94
565.008	5.16
565.35	4.85
565.692	5.13
566.033	5.07
566.375	5.01
566.716	4.94
567.058	5.1
567.399	5.03
567.741	5.2
568.082	5.12
568.423	5.05
568.764	5.14
569.105	5.22
569.447	5.18
569.788	5.23
570.129	5.25
570.47	5.28
570.811	5.28
571.151	5.29
571.492	5.28
571.833	5.16
572.174	5.34
572.514	5.34
572.855	5.42
573.195	5.33
573.536	5.44
573.876	5.45
574.217	5.4
574.557	5.42
574.898	5.35
575.238	5.54
575.578	5.53
575.918	5.51
576.258	5.68
576.598	5.52
576.938	5.46
577.278	5.58
577.618	5.59
577.958	5.64
578.298	5.52
578.638	5.6
578.977	5.69
579.317	5.8
579.657	5.61
579.996	5.73
580.336	5.93
580.675	5.65
581.014	5.83
581.354	5.68
581.693	5.85
582.032	6.07
582.372	6.03
582.711	6.02
583.05	5.94
583.389	6.09
583.728	6.07
584.067	5.85
584.406	6.13
584.745	5.85
585.083	6.01
585.422	6.25
585.761	6.23
586.1	6.24
586.438	6.13
586.777	6.15
587.115	6.21
587.454	6.26
587.792	6.13
588.13	6.28
588.469	6.09
588.807	6.29
589.145	6.28
589.483	6.17
589.821	6.22
590.159	6.34
590.497	6.43
590.835	6.56
591.173	6.36
591.511	6.48
591.849	6.49
592.187	6.33
592.524	6.61
592.862	6.38
593.2	6.48
593.537	6.65
593.875	6.72
594.212	6.83
594.55	6.64
594.887	6.62
595.224	6.73
595.561	6.75
595.899	6.76
596.236	6.78
596.573	6.54
596.91	6.64
597.247	6.89
597.584	6.75
597.921	6.81
598.258	6.94
598.594	6.78
598.931	6.8
599.268	6.82
599.604	6.97
599.941	6.87
600.277	6.88
600.614	6.97
600.95	7.23
601.287	6.89
601.623	6.99
601.959	7.59
602.296	7.23
602.632	7.16
602.968	7.24
603.304	7.32
603.64	7.08
603.976	6.91
604.312	7.32
604.648	7.17
604.984	7.41
605.319	7.19
605.655	7.3
605.991	7.1
606.326	7.27
606.662	7.22
606.998	7.45
607.333	7.57
607.668	7.33
608.004	7.24
608.339	7.44
608.674	7.46
609.01	7.63
609.345	7.6
609.68	7.44
610.015	7.59
610.35	7.66
610.685	7.51
611.02	7.59
611.355	7.4
611.689	7.61
612.024	7.72
612.359	7.85
612.694	7.81
613.028	7.8
613.363	7.99
613.697	7.93
614.032	7.96
614.366	7.97
614.7	7.98
615.035	8.01
615.369	8.2
615.703	8.25
616.037	8.54
616.371	8.04
616.705	8.42
617.039	8.18
617.373	8.34
617.707	8.36
618.041	7.84
618.375	7.74
618.709	7.98
619.042	8.18
619.376	8.14
619.71	8.37
620.043	8.65
620.377	8.59
620.71	8.47
621.043	8.64
621.377	8.64
621.71	8.92
622.043	8.8
622.376	8.56
622.709	8.9
623.043	8.72
623.376	8.38
623.709	8.74
624.041	8.72
624.374	8.75
624.707	8.59
625.04	8.77
625.373	8.7
625.705	9.36
626.038	9.02
626.37	8.54
626.703	9
627.035	8.97
627.368	9.36
627.7	9.11
628.032	9.07
628.365	9.11
628.697	9.07
629.029	9.26
629.361	9.2
629.693	9.3
630.025	9.14
630.357	9.18
630.689	9.52
631.021	9.55
631.353	9.68
631.684	9.23
632.016	8.71
632.348	9.2
632.679	9.69
633.011	9.87
633.342	9.43
633.674	9.39
634.005	9.49
634.336	10.05
634.668	9.45
634.999	9.48
635.33	9.74
635.661	9.78
635.992	9.74
636.323	9.73
636.654	9.63
636.985	9.76
637.316	9.92
637.647	9.94
637.977	9.91
638.308	10.05
638.639	10.1
638.969	10
639.3	10.2
639.63	10.12
639.961	10.15
640.291	10.07
640.622	10.22
640.952	9.99
641.282	9.88
641.612	10.14
641.943	10.33
642.273	10.17
642.603	10.34
642.933	10.73
643.263	10.42
643.592	10.89
643.922	10.9
644.252	10.36
644.582	10.41
644.911	10.34
645.241	9.76
645.571	10.6
645.9	10.46
646.23	11.11
646.559	10.73
646.888	11.22
647.218	10.65
647.547	10.58
647.876	10.47
648.205	10.58
648.534	10.8
648.863	10.58
649.192	10.46
649.521	10.86
649.85	11.11
650.179	10.78
650.508	10.95
650.837	11.42
651.165	11.24
651.494	11.04
651.822	11.21
652.151	10.61
652.479	11.3
652.808	10.8
653.136	10.69
653.465	10.94
653.793	11.27
654.121	11.31
654.449	11.24
654.777	11.06
655.105	11.38
655.433	11.47
655.761	11.6
656.089	11.48
656.417	11.79
656.745	12.14
657.073	11.51
657.4	11.46
657.728	11.01
658.056	11.35
658.383	11.68
658.711	11.82
659.038	11.96
659.365	11.84
659.693	11.4
660.02	11.82
660.347	11.88
660.674	11.75
661.001	11.64
661.329	11.75
661.656	11.61
661.982	11.61
662.309	11.62
662.636	12.03
662.963	12.47
663.29	12.45
663.616	11.96
663.943	12.04
664.27	11.86
664.596	12.04
664.923	11.85
665.249	12.46
665.576	12.09
665.902	12.07
666.228	12.97
666.554	12.66
666.881	12.15
667.207	12.27
667.533	12.3
667.859	12.83
668.185	12.08
668.511	12.39
668.837	12.38
669.162	12.79
669.488	12.84
669.814	12.68
670.139	11.95
670.465	12.85
670.791	12.17
671.116	12.31
671.442	12.04
671.767	12.86
672.092	12.43
672.418	12.58
672.743	12.34
673.068	12.96
673.393	13.03
673.718	12.52
674.043	12.84
674.368	12.87
674.693	12.81
675.018	13.62
675.343	13.47
675.667	13.29
675.992	12.9
676.317	12.93
676.641	13.52
676.966	13.74
677.29	12.89
677.615	13.17
677.939	13.76
678.264	13.52
678.588	13.7
678.912	13.49
679.236	13.23
679.56	12.94
679.885	13.03
680.209	13.36
680.532	14.03
680.856	13.64
681.18	14.33
681.504	14.04
681.828	13.78
682.152	13.62
682.475	13.5
682.799	13.73
683.122	14.15
683.446	13.33
683.769	14.01
684.093	14.24
684.416	13.62
684.739	13.28
685.062	14.24
685.386	13.69
685.709	14.3
686.032	14.54
686.355	14.81
686.678	15.06
687.001	14.26
687.324	14.48
687.646	13.66
687.969	14.22
688.292	14.29
688.614	13.96
688.937	14.8
689.26	15.26
689.582	14.55
689.904	14.54
690.227	15.09
690.549	15.6
690.871	14.91
691.194	14.72
691.516	14.57
691.838	14.85
692.16	13.97
692.482	14.64
692.804	15.03
693.126	14.19
693.448	14.48
693.769	15.05
694.091	14.72
694.413	14.73
694.735	14.79
695.056	15.13
695.378	15.06
695.699	14.63
696.021	15.04
696.342	15.18
696.663	15.82
696.984	14.49
697.306	14.74
697.627	15.43
697.948	15.18
698.269	15.12
698.59	15.05
698.911	14.82
699.232	15.2
699.553	15.68
699.873	15.44
700.194	15.4
700.515	15.4
700.835	15.82
701.156	16.26
701.477	15.53
701.797	15.27
702.117	15.57
702.438	16.02
702.758	15.5
703.078	15.87
703.398	15.28
703.719	16.69
704.039	15.95
704.359	16.34
704.679	16.1
704.999	16.29
705.319	15.29
705.638	16.04
705.958	14.59
706.278	15.6
706.597	16.82
706.917	17.06
707.237	15.99
707.556	15.79
707.876	15.68
708.195	16.49
708.514	15.74
708.834	15.63
709.153	16.68
709.472	17.58
709.791	16.31
710.11	16.51
710.429	16.65
710.748	17.74
711.067	17.47
711.386	16.59
711.705	16.37
712.023	17.05
712.342	17.02
712.661	17.53
712.979	17.73
713.298	17.03
713.616	16.79
713.935	17.43
714.253	17.56
714.572	16.63
714.89	17.25
715.208	15.57
715.526	17.96
715.844	17.39
716.162	17.45
716.48	17.65
716.798	17.53
717.116	16.87
717.434	17.22
717.752	17.61
718.069	17.06
718.387	16.65
718.705	17.79
719.022	18.08
719.34	17.31
719.657	17.54
719.975	17.04
720.292	18.38
720.609	17.04
720.927	17.38
721.244	17.99
721.561	17.49
721.878	18.64
722.195	18.1
722.512	17.88
722.829	17.74
723.146	17.37
723.463	17.95
723.779	16.5
724.096	17.02
724.413	18.23
724.729	18.47
725.046	19.41
725.362	17.69
725.679	17.97
725.995	17.16
726.311	18.14
726.628	18.82
726.944	19.07
727.26	18.47
727.576	17.78
727.892	17.51
728.208	17.63
728.524	17.15
728.84	18.34
729.156	16.89
729.472	16.9
729.787	19.51
730.103	17.74
730.419	17.41
730.734	18.25
731.05	18.72
731.365	19.75
731.681	19.23
731.996	18.79
732.311	18.65
732.626	19.2
732.942	18.37
733.257	18.92
733.572	18.94
733.887	19.34
734.202	18.87
734.517	20.48
734.832	19.29
735.146	20.2
735.461	18.92
735.776	20.53
736.091	19.55
736.405	18.97
736.72	18.84
737.034	20.34
737.349	18.95
737.663	20.9
737.977	20.24
738.292	19.07
738.606	19.96
738.92	20.35
739.234	20.55
739.548	18.09
739.862	20.5
740.176	20.23
740.49	19.56
740.804	21.39
741.117	18.86
741.431	19.89
741.745	19.75
742.058	18.74
742.372	20.04
742.685	20.82
742.999	18.56
743.312	19.78
743.626	21.09
743.939	17.88
744.252	20.08
744.565	20.57
744.878	19.36
745.191	20.25
745.505	20.21
745.817	22.44
746.13	21.88
746.443	19.66
746.756	21.01
747.069	21.14
747.381	20.58
747.694	22.21
748.007	21.39
748.319	21.63
748.632	18.47
748.944	19.96
749.256	20.04
749.569	20.05
749.881	19.62
750.193	21.77
750.505	22.54
750.817	20.93
751.129	20.81
751.441	22.2
751.753	22.04
752.065	21.86
752.377	22.64
752.689	19.74
753	22.12
753.312	22.02
753.624	20.65
753.935	20.16
754.247	20.77
754.558	20.25
754.869	23.02
755.181	20.48
755.492	20.01
755.803	22.02
756.114	22.17
756.425	20.91
756.736	21.91
757.047	24.63
757.358	21.24
757.669	21.9
757.98	19.63
758.291	20.08
758.601	20.91
758.912	20.86
759.223	21.43
759.533	21.3
759.844	20.73
760.154	22.86
760.464	23.24
760.775	23.15
761.085	21.78
761.395	20.54
761.705	21.63
762.016	22.26
762.326	23.51
762.636	22.56
762.945	21.88
763.255	21.88
763.565	23.36
763.875	23.41
764.185	23.03
764.494	21.62
764.804	22.55
765.113	23.03
765.423	23.12
765.732	22.78
766.042	23.29
766.351	23.56
766.66	22.63
766.97	21.82
767.279	23.29
767.588	21.56
767.897	21.4
768.206	23.86
768.515	24.38
768.824	23.33
769.133	21.98
769.441	20.16
769.75	22.94
770.059	23.12
770.367	23.6
770.676	22.89
770.984	21.79
771.293	25.37
771.601	23.07
771.91	23.31
772.218	23.5
772.526	22.3
772.834	22.66
773.142	22.53
773.45	22.25
773.758	25.17
774.066	24.5
774.374	26.36
774.682	24.41
774.99	22.09
775.298	21.34
775.605	22.14
775.913	21.68
776.22	21.12
776.528	23.24
776.835	24.8
777.143	24.65
777.45	21.91
777.757	24.62
778.065	21.97
778.372	24.1
778.679	26.24
778.986	25.3
779.293	24.92
779.6	23.55
779.907	22.75
780.214	24.96
780.52	24.4
780.827	23.01
781.134	24.65
781.44	26.14
781.747	25.47
782.053	25.08
782.36	23.09
782.666	21.52
782.973	21.96
783.279	24.64
783.585	24.56
783.891	25.07
784.197	24.18
784.503	23.77
784.809	26.84
785.115	25.6
785.421	26.73
785.727	24.97
786.033	24.47
786.339	27.04
786.644	20.97
786.95	25.19
787.255	22.39
787.561	21.31
787.866	25.8
788.172	24.15
788.477	23.01
788.782	22.86
789.088	22.67
789.393	24.79
789.698	25.04
790.003	22.73
790.308	26.09
790.613	24.56
790.918	21.4
791.223	27.18
791.527	27.5
791.832	25.97
792.137	26.12
792.441	24.48
792.746	23.83
793.05	24.35
793.355	23.44
793.659	25.17
793.963	24.33
794.268	26.13
794.572	24.3
794.876	22.75
795.18	26.62
795.484	28.61
795.788	27.23
796.092	25.73
796.396	22.47
796.7	20.57
797.004	23.8
797.307	26.52
797.611	28.5
797.915	24.99
798.218	26.87
798.522	23.08
798.825	25.51
799.128	25.11
799.432	21.85
799.735	23.14
800.038	27.29
800.341	27.97
800.644	25.14
800.947	23.93
801.25	26.6
801.553	31.06
801.856	27.4
802.159	24.19
802.462	27.2
802.764	27.41
803.067	26.27
803.37	24.27
803.672	24.98
803.975	27.26
804.277	25.78
804.579	25.71
804.882	25.87
805.184	25.75
805.486	23.26
805.788	32.7
806.09	21.37
806.392	28.36
806.694	23.44
806.996	30.08
807.298	26.73
807.6	24.5
807.902	26.59
808.203	23.83
808.505	26.68
808.807	26.16
809.108	27.58
809.409	30.49
809.711	24.51
810.012	23.91
810.313	32.06
810.615	32.17
810.916	26.18
811.217	26.01
811.518	21.27
811.819	25.48
812.12	25.49
812.421	24.17
812.722	29.88
813.023	29.76
813.323	28.05
813.624	29.52
813.925	22.55
814.225	27.92
814.526	16.93
814.826	29.1
815.126	26.47
815.427	28.35
815.727	24.92
816.027	31.98
816.327	29.77
816.627	32.49
816.927	25.38
817.227	24.7
817.527	27.99
817.827	22.47
818.127	23.62
818.427	25.81
818.727	26.47
819.026	23.54
819.326	28.13
819.625	25.29
819.925	30.1
820.224	30.01
820.524	29.92
820.823	25.48
821.122	27.42
821.421	25.09
821.72	25.29
822.019	27.16
822.318	30.5
822.617	29.76
822.916	26.67
823.215	30.7
823.514	31.74
823.813	31.16
824.111	30.05
824.41	30.62
824.709	30.97
825.007	30.64
825.306	31.55
825.604	32
825.902	31.36
826.201	30.95
826.499	29.69
826.797	30.07
827.095	32.61
827.393	33.14
827.691	32.39
827.989	31.26
828.287	31.8
828.585	28.17
828.882	29.18
829.18	30.7
829.478	32.46
829.775	31.59
830.073	32.28
830.37	31.22
830.668	31.43
830.965	32.89
831.263	30.42
831.56	33.26
831.857	30.28
832.154	28.77
832.451	31.96
832.748	29.64
833.045	33.24
833.342	30.38
833.639	28.69
833.936	26.01
834.232	29.42
834.529	29.33
834.826	27.28
835.122	28.85
835.419	33.24
835.715	33.71
836.012	34.15
836.308	33.42
836.604	29.5
836.901	32.66
837.197	31.05
837.493	32.37
837.789	31.27
838.085	31.34
838.381	32.53
838.677	37.1
838.972	31.68
839.268	34.44
839.564	33.5
839.86	26.3
840.155	39.99
840.451	32.47
840.746	33.52
841.042	29.79
841.337	22.82
841.632	28
841.928	38.16
842.223	29.34
842.518	35.99
842.813	28.9
843.108	27.88
843.403	35.35
843.698	25.26
843.993	36.52
844.287	22.66
844.582	34.81
844.877	33.75
845.171	30.42
845.466	35.32
845.761	28.83
846.055	31.93
846.349	30.84
846.644	30.2
846.938	24.9
847.232	21.93
847.526	22.68
847.82	24.63
848.114	32.48
848.408	25.33
848.702	39.92
848.996	40.88
849.29	39.43
849.584	24.84
849.877	31
850.171	44.26
850.465	29.27
850.758	17.09
851.052	22.73
851.345	28.15
851.638	26.81
851.932	38.86
852.225	20.47
852.518	34.88
852.811	23.08
853.104	10.19
853.397	32.94
853.69	44.33
853.983	30.34
854.276	30.72
854.569	7.85
854.861	10.63
855.154	45.23
855.447	9.73
855.739	1.64
856.032	20.41
856.324	30.47
856.616	35.52
856.909	9.23
857.201	4.66
857.493	18.9
857.785	17.32
858.077	9.96
858.369	23.74
858.661	35.07
858.953	31.39
859.245	15.14
859.537	10.93
859.829	12.54
860.12	11.43
860.412	22.19
860.703	27.38
860.995	29.2
861.286	20.61
861.578	19.58
861.869	49.27
862.16	11.25
862.452	1.59
862.743	37.08
863.034	27.49
863.325	32.48
863.616	23.12
863.907	25.8
864.198	15.3
864.488	14.67
864.779	26.9
865.07	42.11
865.36	38.74
865.651	31.05
865.941	27.53
866.232	41.8
866.522	30.15
866.813	37.9
867.103	3.9
867.393	23.45
867.683	8.08
867.973	14.47
868.263	1.82
868.553	20.23
868.843	7.91
869.133	10.73
869.423	13.31
869.713	47.76
870.002	31.37
870.292	18.92
870.582	11.8
870.871	16.5
871.161	33.58
871.45	15.54
871.739	31.23
872.029	23.83
872.318	32.34
872.607	35.5
872.896	34.59
873.185	32.88
873.474	2.15
873.763	45.51
874.052	45
874.341	38.03
874.63	33.14
874.918	27.55
875.207	16.56
875.496	28.36
875.784	36.08
876.073	39.17
876.361	28.71
876.649	63.74
876.938	13.78
877.226	29.14
877.514	27.22
877.802	53.53
878.09	52.7
878.378	44.71
878.666	45.69
878.954	40.86
879.242	36
879.53	38.93
879.817	4.74
880.105	23.21
880.392	14.77
880.68	32.71
880.967	12.98
881.255	25.62
881.542	34.38
881.83	47.92
882.117	20.62
882.404	22.73
882.691	32.5
882.978	34.42
883.265	25.9
883.552	44.35
883.839	37.12
884.126	42.65
884.413	38.06
884.699	41.74
884.986	38.45
885.273	44.18
885.559	44.18
885.846	44.18
