Data from 0002_chest_Reflection__2__273.txt Node

Date: Thu Dec 15 18:53:06 CST 2022
User: ToomeyLab
Spectrometer: FLMS14357
Trigger mode: 0
Integration Time (sec): 1.000000E-2
Scans to average: 100
Electric dark correction enabled: true
Nonlinearity correction enabled: false
Boxcar width: 0
XAxis mode: Wavelengths
Number of Pixels in Spectrum: 2048
>>>>>Begin Spectral Data<<<<<
189.047	-29.84
189.435	-29.84
189.823	-29.84
190.211	-214.19
190.599	86.4
190.987	207.88
191.375	-37.59
191.763	167.99
192.151	-22.65
192.538	8.62
192.926	20.11
193.314	55.3
193.702	-991.67
194.089	-91.4
194.477	-79.59
194.864	113.08
195.252	109.98
195.639	36.9
196.027	49.72
196.414	135.97
196.801	67.49
197.189	247.25
197.576	78.18
197.963	-261.91
198.351	-31.68
198.738	4.62
199.125	-28.5
199.512	14.89
199.899	-24.71
200.286	-38.53
200.673	45.82
201.06	-2.08
201.447	18.42
201.833	-18.5
202.22	2.06
202.607	-53.65
202.994	-25.27
203.38	5.33
203.767	-1.91
204.154	48.57
204.54	21.48
204.927	-7.38
205.313	3.1
205.699	9.75
206.086	41.72
206.472	-5.48
206.858	-13.88
207.245	3.24
207.631	5.41
208.017	27.48
208.403	-82.66
208.789	-22.39
209.175	0.91
209.561	-165.29
209.947	-13.69
210.333	-36.56
210.719	44.01
211.105	24.01
211.491	6.46
211.876	-22.06
212.262	9.61
212.648	5.91
213.034	-6.48
213.419	19.28
213.805	-25.05
214.19	-16.93
214.576	-20.53
214.961	-13.38
215.346	-32.51
215.732	13.6
216.117	5.55
216.502	-13.72
216.888	-10.99
217.273	-22.24
217.658	-23.88
218.043	-28
218.428	-29.72
218.813	6.16
219.198	-60.44
219.583	-15.14
219.968	-7.02
220.353	-33.29
220.738	2.5
221.122	-18.22
221.507	-23.24
221.892	-27.59
222.276	-22.63
222.661	3.75
223.046	-0.27
223.43	15.53
223.815	-3.79
224.199	-7.46
224.583	-2.09
224.968	1.61
225.352	-9.02
225.736	17.34
226.121	2.78
226.505	2.18
226.889	4.41
227.273	-1.31
227.657	5.45
228.041	4.83
228.425	2.08
228.809	2.45
229.193	5.9
229.577	4.49
229.961	4.52
230.344	4.97
230.728	5.88
231.112	5.61
231.495	4.42
231.879	5.73
232.263	4.99
232.646	3.79
233.03	6.39
233.413	4.93
233.797	5.1
234.18	6.23
234.563	7.51
234.946	3.88
235.33	5.84
235.713	6.4
236.096	7.03
236.479	5.76
236.862	5.42
237.245	4.3
237.628	5.68
238.011	3
238.394	2.77
238.777	4.28
239.16	6.73
239.543	4.42
239.925	4.74
240.308	2.63
240.691	4.31
241.073	4.28
241.456	4.36
241.838	4.46
242.221	5.57
242.603	5.07
242.986	5.34
243.368	5.44
243.75	5.48
244.133	5.5
244.515	5.13
244.897	5.32
245.279	5.51
245.661	4.34
246.043	5.92
246.425	5.24
246.807	4.89
247.189	5.5
247.571	5.24
247.953	5.03
248.335	5.02
248.717	5.12
249.098	4.98
249.48	4.9
249.862	4.97
250.243	4.96
250.625	5.43
251.006	5.23
251.388	4.41
251.769	4.85
252.151	3.8
252.532	4.57
252.913	5.33
253.295	4.99
253.676	4.58
254.057	4.9
254.438	4.27
254.819	4.78
255.2	5.31
255.581	4.2
255.962	5.99
256.343	5.08
256.724	4.85
257.105	3.83
257.486	3.79
257.867	3.19
258.247	4.38
258.628	4.93
259.009	4.7
259.389	4.3
259.77	4.82
260.15	4.65
260.531	5.1
260.911	4.7
261.292	4.89
261.672	4.64
262.052	4.74
262.432	4.37
262.813	4.78
263.193	4.66
263.573	4.28
263.953	4.27
264.333	4.87
264.713	4.68
265.093	4.64
265.473	3.46
265.853	4.43
266.233	4.53
266.612	3.89
266.992	3.95
267.372	4.83
267.752	5.45
268.131	4.2
268.511	4.68
268.89	4.76
269.27	3.87
269.649	4.58
270.029	4.54
270.408	4.05
270.787	4.79
271.167	4.82
271.546	4.91
271.925	4.58
272.304	4.68
272.683	4.26
273.062	4.53
273.441	4.26
273.82	4.79
274.199	4.38
274.578	4.31
274.957	4.46
275.336	4.79
275.715	5.08
276.093	4.27
276.472	4.02
276.851	4.16
277.229	4.64
277.608	3.89
277.986	4.32
278.365	4.86
278.743	4.37
279.122	4.09
279.5	4.25
279.878	4.21
280.257	3.97
280.635	3.96
281.013	3.98
281.391	4.43
281.769	4.61
282.147	4.21
282.525	4.16
282.903	4.09
283.281	4.81
283.659	4.31
284.037	4.24
284.415	4.33
284.792	4.2
285.17	3.93
285.548	4.43
285.925	4.09
286.303	4.84
286.68	4.47
287.058	4.43
287.435	4.01
287.813	4.52
288.19	3.76
288.567	4.22
288.945	4.53
289.322	3.86
289.699	4.61
290.076	3.54
290.453	3.45
290.83	4.33
291.207	3.97
291.584	4.45
291.961	4.74
292.338	3.88
292.715	3.91
293.092	4.21
293.469	4.09
293.845	3.94
294.222	4.8
294.599	3.84
294.975	3.13
295.352	4.09
295.728	3.91
296.105	4.21
296.481	4.33
296.858	4.07
297.234	3.57
297.61	4.05
297.986	4.5
298.363	4.28
298.739	4.28
299.115	4.08
299.491	4.22
299.867	3.93
300.243	3.75
300.619	3.94
300.995	3.89
301.371	4.4
301.746	3.98
302.122	3.74
302.498	3.94
302.874	3.84
303.249	4.29
303.625	3.75
304	4.06
304.376	4.46
304.751	4.02
305.127	4.16
305.502	4.04
305.878	3.74
306.253	3.65
306.628	4.13
307.003	3.97
307.378	3.61
307.754	4.17
308.129	3.83
308.504	4.19
308.879	4.02
309.254	4.15
309.629	4.19
310.003	3.53
310.378	3.99
310.753	4.37
311.128	4.11
311.502	3.95
311.877	3.92
312.252	3.91
312.626	4.24
313.001	3.82
313.375	4.11
313.75	4.02
314.124	3.99
314.498	4.28
314.873	3.7
315.247	3.76
315.621	3.38
315.995	4.16
316.369	3.72
316.743	3.69
317.117	3.55
317.491	3.76
317.865	3.16
318.239	3.93
318.613	3.65
318.987	3.18
319.361	3.39
319.734	3.67
320.108	3.44
320.482	4.01
320.855	3.58
321.229	3.43
321.602	3.99
321.976	3.04
322.349	3.92
322.723	4.14
323.096	4.02
323.469	3.32
323.843	3.78
324.216	3.64
324.589	3.95
324.962	3.46
325.335	3.72
325.708	3.78
326.081	3.92
326.454	3.54
326.827	3.69
327.2	3.27
327.573	3.78
327.945	3.65
328.318	3.39
328.691	3.7
329.063	3.35
329.436	3.5
329.809	3.73
330.181	4.37
330.553	3.77
330.926	4.18
331.298	3.82
331.671	3.51
332.043	3.38
332.415	3.97
332.787	3.8
333.159	3.53
333.532	3.89
333.904	4.05
334.276	3.49
334.648	4.04
335.02	3.85
335.391	3.4
335.763	3.85
336.135	3.81
336.507	3.69
336.879	3.55
337.25	3.8
337.622	3.81
337.993	3.58
338.365	3.79
338.736	3.65
339.108	3.85
339.479	3.66
339.851	4.08
340.222	4.18
340.593	3.64
340.964	4.17
341.336	3.62
341.707	3.6
342.078	3.44
342.449	3.92
342.82	3.64
343.191	3.76
343.562	4.08
343.933	3.58
344.303	3.74
344.674	3.66
345.045	3.98
345.416	4.45
345.786	3.69
346.157	3.74
346.527	3.61
346.898	3.62
347.268	3.66
347.639	3.78
348.009	3.89
348.38	3.45
348.75	3.94
349.12	4.09
349.49	3.86
349.861	3.69
350.231	3.62
350.601	3.81
350.971	3.33
351.341	3.7
351.711	3.55
352.081	3.76
352.45	3.69
352.82	3.39
353.19	3.47
353.56	3.53
353.929	3.75
354.299	3.66
354.669	3.86
355.038	4.06
355.408	3.93
355.777	4.14
356.147	3.68
356.516	3.97
356.885	3.75
357.254	3.55
357.624	3.32
357.993	3.74
358.362	3.95
358.731	4.09
359.1	3.93
359.469	3.73
359.838	3.94
360.207	3.66
360.576	4.07
360.945	4.13
361.314	3.68
361.682	3.95
362.051	3.94
362.42	3.94
362.788	3.87
363.157	3.68
363.525	3.98
363.894	3.56
364.262	3.85
364.631	4.25
364.999	3.93
365.367	3.82
365.735	3.68
366.104	3.96
366.472	3.92
366.84	3.98
367.208	4.03
367.576	3.83
367.944	3.83
368.312	3.71
368.68	3.98
369.048	4.08
369.416	3.53
369.783	3.82
370.151	4.14
370.519	4.04
370.886	3.86
371.254	4.07
371.621	3.89
371.989	4.17
372.356	3.72
372.724	3.92
373.091	4.04
373.458	3.64
373.826	4.18
374.193	4.09
374.56	4
374.927	3.66
375.294	3.78
375.661	3.95
376.028	3.84
376.395	4.12
376.762	3.78
377.129	3.93
377.496	3.78
377.863	3.94
378.229	3.91
378.596	4.25
378.963	4.04
379.329	4.08
379.696	3.89
380.062	3.94
380.429	3.66
380.795	3.96
381.161	3.69
381.528	3.67
381.894	3.88
382.26	4.07
382.626	3.98
382.993	4.3
383.359	3.87
383.725	3.86
384.091	4.16
384.457	3.76
384.823	4.1
385.188	4.37
385.554	3.87
385.92	3.84
386.286	4.08
386.651	3.77
387.017	4.22
387.383	3.87
387.748	4.18
388.114	3.95
388.479	4.07
388.845	4.04
389.21	4.2
389.575	4.11
389.94	4.09
390.306	4.09
390.671	4.17
391.036	3.94
391.401	4.09
391.766	3.89
392.131	4.29
392.496	4.05
392.861	3.96
393.226	3.78
393.591	4.28
393.956	4.11
394.32	4.19
394.685	4.18
395.05	3.96
395.414	4.19
395.779	4.19
396.143	3.86
396.508	4.01
396.872	4.01
397.236	4.45
397.601	4.23
397.965	4.27
398.329	4.13
398.694	4.11
399.058	4.06
399.422	3.98
399.786	4.15
400.15	4.07
400.514	4.12
400.878	4.25
401.242	4.18
401.605	4.15
401.969	4.02
402.333	4.14
402.697	4.56
403.06	4.2
403.424	4.26
403.787	4.12
404.151	4.1
404.514	4.17
404.878	3.89
405.241	4.05
405.604	4.04
405.968	4.36
406.331	4.24
406.694	4.24
407.057	4.14
407.42	4.17
407.783	4.26
408.146	4.23
408.509	4.2
408.872	4.3
409.235	4.08
409.598	4.11
409.961	4.43
410.323	4.34
410.686	4.16
411.049	4.21
411.411	4.23
411.774	4.16
412.136	4.3
412.499	4.3
412.861	3.67
413.223	4.17
413.586	4.28
413.948	4.31
414.31	4.39
414.672	4.1
415.035	4.46
415.397	3.94
415.759	4.08
416.121	4.46
416.483	4.24
416.845	4.29
417.206	4.07
417.568	4.18
417.93	4.12
418.292	4.1
418.653	4.14
419.015	4.09
419.377	4.15
419.738	4.21
420.1	4.12
420.461	4.13
420.822	4.11
421.184	4.18
421.545	4.23
421.906	4.17
422.267	4.18
422.629	4.1
422.99	4.17
423.351	4.1
423.712	4.14
424.073	4.32
424.434	4.3
424.795	4.1
425.155	4.04
425.516	4.14
425.877	4.28
426.238	4.19
426.598	4.23
426.959	4.33
427.32	4.13
427.68	4.18
428.041	4.28
428.401	4.21
428.761	4.33
429.122	4.28
429.482	4.22
429.842	4.35
430.202	4.35
430.563	4.27
430.923	4.27
431.283	4.31
431.643	4.35
432.003	4.34
432.363	4.38
432.722	4.34
433.082	4.29
433.442	4.35
433.802	4.37
434.161	4.31
434.521	4.33
434.881	4.35
435.24	4.26
435.6	4.39
435.959	4.22
436.319	4.35
436.678	4.33
437.037	4.34
437.396	4.34
437.756	4.31
438.115	4.21
438.474	4.32
438.833	4.2
439.192	4.34
439.551	4.41
439.91	4.34
440.269	4.37
440.628	4.34
440.987	4.43
441.345	4.33
441.704	4.28
442.063	4.31
442.421	4.25
442.78	4.27
443.138	4.37
443.497	4.36
443.855	4.34
444.214	4.25
444.572	4.53
444.93	4.41
445.288	4.21
445.647	4.22
446.005	4.29
446.363	4.48
446.721	4.28
447.079	4.21
447.437	4.31
447.795	4.34
448.153	4.26
448.51	4.28
448.868	4.23
449.226	4.34
449.584	4.39
449.941	4.41
450.299	4.41
450.656	4.37
451.014	4.45
451.371	4.48
451.729	4.42
452.086	4.49
452.443	4.35
452.801	4.42
453.158	4.52
453.515	4.4
453.872	4.38
454.229	4.33
454.586	4.31
454.943	4.35
455.3	4.39
455.657	4.4
456.014	4.49
456.371	4.49
456.727	4.66
457.084	4.6
457.441	4.48
457.797	4.36
458.154	4.41
458.51	4.42
458.867	4.39
459.223	4.39
459.58	4.44
459.936	4.44
460.292	4.28
460.648	4.31
461.005	4.36
461.361	4.32
461.717	4.34
462.073	4.46
462.429	4.45
462.785	4.5
463.141	4.42
463.496	4.55
463.852	4.61
464.208	4.54
464.564	4.4
464.919	4.39
465.275	4.49
465.631	4.71
465.986	4.46
466.342	4.38
466.697	4.39
467.052	4.61
467.408	4.58
467.763	4.38
468.118	4.28
468.473	4.51
468.829	4.36
469.184	4.49
469.539	4.46
469.894	4.64
470.249	4.52
470.603	4.52
470.958	4.62
471.313	4.55
471.668	4.56
472.023	4.66
472.377	4.69
472.732	4.61
473.086	4.54
473.441	4.44
473.795	4.66
474.15	4.48
474.504	4.46
474.859	4.38
475.213	4.74
475.567	4.46
475.921	4.74
476.275	4.6
476.63	4.59
476.984	4.38
477.338	4.59
477.692	4.62
478.045	4.61
478.399	4.61
478.753	4.51
479.107	4.56
479.461	4.42
479.814	4.54
480.168	4.55
480.521	4.59
480.875	4.66
481.228	4.61
481.582	4.59
481.935	4.75
482.289	4.66
482.642	4.68
482.995	4.62
483.348	4.53
483.701	4.62
484.055	4.44
484.408	4.5
484.761	4.45
485.114	4.3
485.466	4.28
485.819	4.3
486.172	4.38
486.525	4.38
486.878	4.48
487.23	4.51
487.583	4.54
487.936	4.49
488.288	4.45
488.641	4.43
488.993	4.39
489.345	4.41
489.698	4.42
490.05	4.45
490.402	4.47
490.754	4.55
491.107	4.5
491.459	4.56
491.811	4.63
492.163	4.58
492.515	4.56
492.866	4.44
493.218	4.47
493.57	4.52
493.922	4.45
494.274	4.67
494.625	4.67
494.977	4.66
495.328	4.68
495.68	4.69
496.031	4.72
496.383	4.74
496.734	4.7
497.086	4.81
497.437	4.67
497.788	4.76
498.139	4.67
498.49	4.67
498.842	4.72
499.193	4.61
499.544	4.68
499.894	4.67
500.245	4.81
500.596	4.74
500.947	4.79
501.298	4.67
501.648	4.71
501.999	4.87
502.35	4.83
502.7	5.01
503.051	4.85
503.401	4.85
503.752	4.75
504.102	4.63
504.452	4.71
504.803	4.77
505.153	4.87
505.503	4.8
505.853	4.76
506.203	4.87
506.553	4.78
506.903	4.85
507.253	4.86
507.603	4.81
507.953	4.79
508.303	4.87
508.652	4.69
509.002	4.92
509.352	4.9
509.701	4.74
510.051	4.91
510.4	4.84
510.75	4.74
511.099	4.76
511.449	4.86
511.798	4.82
512.147	4.91
512.496	4.89
512.846	4.83
513.195	4.86
513.544	4.97
513.893	4.87
514.242	4.89
514.591	4.87
514.939	4.97
515.288	5
515.637	4.91
515.986	5.02
516.334	4.94
516.683	5
517.032	4.89
517.38	4.85
517.729	4.95
518.077	4.87
518.426	5.01
518.774	4.92
519.122	4.95
519.47	4.94
519.819	4.91
520.167	4.89
520.515	4.94
520.863	4.9
521.211	4.95
521.559	4.89
521.907	5.07
522.255	5
522.602	5.05
522.95	5.02
523.298	5.08
523.645	5.17
523.993	5.05
524.341	5.11
524.688	5.04
525.036	5.09
525.383	5.09
525.73	5.04
526.078	5.25
526.425	5.08
526.772	5.06
527.119	5.1
527.466	5.16
527.814	5.12
528.161	5.12
528.508	5.2
528.854	5.06
529.201	5.04
529.548	4.99
529.895	4.9
530.242	4.92
530.588	4.95
530.935	5.01
531.282	4.97
531.628	5.03
531.975	5.01
532.321	5.08
532.667	5.12
533.014	5.17
533.36	5.12
533.706	5.18
534.052	5.18
534.399	5.11
534.745	5.11
535.091	5.15
535.437	5.13
535.783	5.18
536.129	5.23
536.474	5.26
536.82	5.36
537.166	5.2
537.512	5.29
537.857	5.31
538.203	5.26
538.549	5.23
538.894	5.24
539.239	5.29
539.585	5.39
539.93	5.43
540.276	5.3
540.621	5.54
540.966	5.53
541.311	5.48
541.656	5.35
542.001	5.37
542.346	5.32
542.691	5.29
543.036	5.32
543.381	5.3
543.726	5.32
544.071	5.4
544.415	5.42
544.76	5.48
545.105	5.34
545.449	5.45
545.794	5.48
546.138	5.52
546.483	5.55
546.827	5.51
547.171	5.77
547.516	5.68
547.86	5.61
548.204	5.54
548.548	5.62
548.892	5.65
549.236	5.66
549.58	5.67
549.924	5.75
550.268	5.84
550.612	5.84
550.956	5.87
551.3	6.06
551.643	5.85
551.987	5.93
552.33	5.94
552.674	5.73
553.017	5.88
553.361	5.93
553.704	5.85
554.048	5.84
554.391	5.97
554.734	5.82
555.077	5.9
555.42	6.03
555.764	5.98
556.107	5.9
556.45	6.08
556.793	6.24
557.135	6.21
557.478	6.11
557.821	6.11
558.164	6.21
558.507	6.12
558.849	6.16
559.192	5.95
559.534	6.13
559.877	6.19
560.219	6.26
560.562	6.24
560.904	6.42
561.246	6.16
561.589	6.43
561.931	6.18
562.273	6.26
562.615	6.3
562.957	6.25
563.299	6.37
563.641	6.39
563.983	6.26
564.325	6.37
564.667	6.43
565.008	6.33
565.35	6.4
565.692	6.44
566.033	6.39
566.375	6.43
566.716	6.3
567.058	6.47
567.399	6.56
567.741	6.37
568.082	6.62
568.423	6.49
568.764	6.61
569.105	6.5
569.447	6.45
569.788	6.46
570.129	6.74
570.47	6.74
570.811	6.66
571.151	6.81
571.492	6.72
571.833	6.7
572.174	6.95
572.514	6.86
572.855	6.84
573.195	6.77
573.536	7.02
573.876	6.78
574.217	6.75
574.557	6.83
574.898	6.8
575.238	7.04
575.578	7.01
575.918	6.94
576.258	7.31
576.598	6.93
576.938	6.88
577.278	6.93
577.618	7
577.958	7.23
578.298	7.33
578.638	6.97
578.977	7.18
579.317	7.31
579.657	7.25
579.996	7.24
580.336	7.35
580.675	7.21
581.014	7.29
581.354	7.19
581.693	7.34
582.032	7.45
582.372	7.42
582.711	7.25
583.05	7.59
583.389	7.65
583.728	7.81
584.067	7.35
584.406	7.66
584.745	7.39
585.083	7.47
585.422	7.78
585.761	7.68
586.1	7.83
586.438	7.65
586.777	7.69
587.115	7.74
587.454	7.7
587.792	7.74
588.13	7.54
588.469	7.56
588.807	7.78
589.145	7.93
589.483	7.75
589.821	7.9
590.159	8.02
590.497	8.04
590.835	7.88
591.173	8.17
591.511	7.96
591.849	7.97
592.187	7.95
592.524	8.03
592.862	7.99
593.2	8.33
593.537	7.93
593.875	7.96
594.212	8.22
594.55	8.29
594.887	8.27
595.224	8.48
595.561	8.15
595.899	8.33
596.236	8.26
596.573	8.4
596.91	8.41
597.247	8.59
597.584	8.44
597.921	8.34
598.258	8.53
598.594	8.41
598.931	8.38
599.268	8.4
599.604	8.36
599.941	8.46
600.277	8.75
600.614	8.61
600.95	8.41
601.287	8.69
601.623	8.57
601.959	8.8
602.296	8.89
602.632	8.85
602.968	8.79
603.304	9.02
603.64	8.87
603.976	8.76
604.312	8.76
604.648	9.09
604.984	9.03
605.319	8.86
605.655	9.05
605.991	8.96
606.326	8.93
606.662	8.69
606.998	9.09
607.333	9.05
607.668	8.98
608.004	9.08
608.339	9.14
608.674	9.14
609.01	9.57
609.345	9.36
609.68	9.05
610.015	9.44
610.35	9.48
610.685	9.14
611.02	9.06
611.355	9.29
611.689	9.45
612.024	9.52
612.359	9.58
612.694	9.69
613.028	9.54
613.363	9.49
613.697	9.7
614.032	9.62
614.366	9.92
614.7	9.85
615.035	9.68
615.369	9.84
615.703	9.81
616.037	9.72
616.371	9.56
616.705	9.96
617.039	9.84
617.373	9.97
617.707	9.89
618.041	10.06
618.375	9.65
618.709	10.16
619.042	10.12
619.376	10.05
619.71	9.92
620.043	10.37
620.377	10.39
620.71	10.39
621.043	10.34
621.377	10.29
621.71	10.28
622.043	10.59
622.376	10.77
622.709	11.02
623.043	10.22
623.376	10.43
623.709	10.79
624.041	10.23
624.374	10.56
624.707	10.47
625.04	10.36
625.373	10.9
625.705	10.74
626.038	10.77
626.37	10.5
626.703	10.72
627.035	10.67
627.368	10.97
627.7	10.92
628.032	11.01
628.365	10.84
628.697	11.08
629.029	10.96
629.361	10.95
629.693	10.88
630.025	11.02
630.357	10.98
630.689	10.9
631.021	10.94
631.353	11.03
631.684	11.19
632.016	10.94
632.348	11.12
632.679	11.33
633.011	11.07
633.342	11.56
633.674	11.31
634.005	11.66
634.336	11.53
634.668	11.4
634.999	11.16
635.33	11.21
635.661	11.33
635.992	11.45
636.323	11.53
636.654	11.27
636.985	11.71
637.316	11.45
637.647	11.69
637.977	11.55
638.308	12.05
638.639	11.7
638.969	11.55
639.3	11.89
639.63	11.38
639.961	11.85
640.291	11.26
640.622	11.85
640.952	11.87
641.282	11.69
641.612	11.71
641.943	11.69
642.273	11.75
642.603	11.99
642.933	12.27
643.263	12.25
643.592	12.32
643.922	12.45
644.252	12.46
644.582	12.28
644.911	12.18
645.241	12.1
645.571	11.98
645.9	12.46
646.23	12.38
646.559	12.22
646.888	12.37
647.218	12.58
647.547	12.61
647.876	12.57
648.205	12.12
648.534	12.54
648.863	12.59
649.192	12.42
649.521	12.59
649.85	12.95
650.179	12.77
650.508	12.81
650.837	12.69
651.165	12.68
651.494	12.88
651.822	13.03
652.151	12.59
652.479	13.14
652.808	12.89
653.136	12.6
653.465	13.29
653.793	13.01
654.121	12.87
654.449	12.89
654.777	12.8
655.105	12.67
655.433	13.18
655.761	13.33
656.089	13.5
656.417	13.98
656.745	13.39
657.073	13.22
657.4	12.99
657.728	12.87
658.056	13.74
658.383	13.81
658.711	13.1
659.038	13.37
659.365	13.57
659.693	13.44
660.02	13.24
660.347	13.49
660.674	13.31
661.001	13.55
661.329	13.7
661.656	13.69
661.982	13.49
662.309	13.7
662.636	13.78
662.963	13.69
663.29	13.75
663.616	13.7
663.943	13.86
664.27	13.61
664.596	13.73
664.923	14.01
665.249	14.2
665.576	14.03
665.902	13.59
666.228	14.14
666.554	14.59
666.881	13.62
667.207	14.36
667.533	14.49
667.859	14.21
668.185	14.14
668.511	14.72
668.837	14.42
669.162	14.03
669.488	13.89
669.814	14.61
670.139	14.39
670.465	14.79
670.791	14.28
671.116	14.63
671.442	14.25
671.767	14.29
672.092	14.3
672.418	14.62
672.743	14.32
673.068	14.15
673.393	14.71
673.718	14.3
674.043	14.94
674.368	14.74
674.693	15.34
675.018	15.06
675.343	15.1
675.667	14.84
675.992	14.75
676.317	14.22
676.641	14.97
676.966	14.87
677.29	14.85
677.615	15.63
677.939	15.44
678.264	15.28
678.588	14.91
678.912	15.06
679.236	15.56
679.56	15.22
679.885	15.31
680.209	15.85
680.532	15.86
680.856	15.68
681.18	15.77
681.504	16.18
681.828	15.28
682.152	14.88
682.475	15.84
682.799	15.72
683.122	15.89
683.446	15.28
683.769	15.33
684.093	15.61
684.416	15.54
684.739	15.52
685.062	15.78
685.386	15.96
685.709	15.51
686.032	15.49
686.355	16.19
686.678	16.4
687.001	16.24
687.324	15.49
687.646	16.14
687.969	15.75
688.292	16.11
688.614	16.59
688.937	16.79
689.26	16.62
689.582	16.03
689.904	16.42
690.227	16.57
690.549	16.45
690.871	16.33
691.194	15.67
691.516	16.66
691.838	17.1
692.16	16.73
692.482	15.68
692.804	16.64
693.126	16.06
693.448	16.88
693.769	16.5
694.091	16.79
694.413	16.8
694.735	16.04
695.056	17.23
695.378	16.72
695.699	17.56
696.021	16.74
696.342	16.72
696.663	17.3
696.984	16.31
697.306	16.24
697.627	17.46
697.948	16.35
698.269	18.33
698.59	17.6
698.911	16.55
699.232	17.5
699.553	17.84
699.873	16.9
700.194	17.41
700.515	17.29
700.835	17.05
701.156	17.65
701.477	17.65
701.797	17.23
702.117	17.37
702.438	17.95
702.758	17.1
703.078	18.04
703.398	17.41
703.719	18.27
704.039	17.49
704.359	17.02
704.679	17.33
704.999	18.42
705.319	16.78
705.638	17.02
705.958	17.55
706.278	18.03
706.597	18.14
706.917	18.36
707.237	18.12
707.556	17.79
707.876	19.04
708.195	18.56
708.514	18.41
708.834	17.56
709.153	17.9
709.472	18.76
709.791	17.43
710.11	18.04
710.429	18.02
710.748	18.66
711.067	18.62
711.386	17.43
711.705	18.12
712.023	18.04
712.342	18.43
712.661	19.29
712.979	19.4
713.298	18.4
713.616	18.37
713.935	18.63
714.253	18.37
714.572	18.74
714.89	19.1
715.208	18.75
715.526	18.78
715.844	19.52
716.162	18.76
716.48	18.2
716.798	18.79
717.116	18.87
717.434	19.72
717.752	19.47
718.069	18.76
718.387	18.82
718.705	19.12
719.022	19.56
719.34	18.57
719.657	19.69
719.975	19.3
720.292	18.44
720.609	19.35
720.927	19.73
721.244	20.82
721.561	17.71
721.878	20.3
722.195	19.75
722.512	19.91
722.829	19.46
723.146	19.53
723.463	20.31
723.779	18.54
724.096	18.88
724.413	19.84
724.729	19.4
725.046	20.44
725.362	19.28
725.679	19
725.995	17.07
726.311	18.59
726.628	20.14
726.944	19.86
727.26	20.03
727.576	20.48
727.892	19.26
728.208	19.3
728.524	19.03
728.84	19.69
729.156	18.79
729.472	19.87
729.787	20.82
730.103	21.35
730.419	19.85
730.734	19.67
731.05	20.69
731.365	20.64
731.681	20.36
731.996	21.24
732.311	19.54
732.626	19.29
732.942	18.99
733.257	19.27
733.572	21.13
733.887	22.2
734.202	20.88
734.517	20.2
734.832	20.52
735.146	20.25
735.461	21.46
735.776	21.88
736.091	21.72
736.405	20.6
736.72	20.14
737.034	20.57
737.349	21.03
737.663	21.54
737.977	21.87
738.292	19.63
738.606	21.69
738.92	22.05
739.234	21.31
739.548	21.38
739.862	20.56
740.176	21.78
740.49	21.6
740.804	21.92
741.117	20.37
741.431	21.73
741.745	20.96
742.058	21.09
742.372	20.17
742.685	21.11
742.999	20.8
743.312	21.79
743.626	22.7
743.939	20.87
744.252	21.4
744.565	22.38
744.878	21.07
745.191	22.29
745.505	20.93
745.817	23.95
746.13	23.19
746.443	21.23
746.756	22.34
747.069	22.34
747.381	22.44
747.694	23.38
748.007	23.15
748.319	23.74
748.632	21.95
748.944	21.27
749.256	21.58
749.569	21.74
749.881	21.8
750.193	22.05
750.505	22.2
750.817	22.48
751.129	24.75
751.441	21.87
751.753	22.33
752.065	22.57
752.377	24
752.689	22.04
753	22.57
753.312	23.18
753.624	22.61
753.935	21.73
754.247	22.94
754.558	23.09
754.869	23.64
755.181	22.21
755.492	22.31
755.803	23.7
756.114	22.23
756.425	21.12
756.736	22.55
757.047	22.38
757.358	22.83
757.669	24.43
757.98	22.27
758.291	22.82
758.601	24.01
758.912	23.79
759.223	22.79
759.533	24.03
759.844	24.54
760.154	23.7
760.464	25.13
760.775	24.29
761.085	23.01
761.395	21.32
761.705	22.64
762.016	22.42
762.326	25.92
762.636	24.62
762.945	23.69
763.255	23.34
763.565	24.57
763.875	23
764.185	24.83
764.494	24.76
764.804	22.86
765.113	23.58
765.423	24.11
765.732	24.27
766.042	24.93
766.351	24.88
766.66	23.72
766.97	23.28
767.279	24.33
767.588	22.86
767.897	23.95
768.206	23.84
768.515	24.73
768.824	24.79
769.133	23.97
769.441	22.34
769.75	22.9
770.059	23.63
770.367	23.66
770.676	23.15
770.984	23.04
771.293	27.04
771.601	22.08
771.91	23.15
772.218	22.35
772.526	24.11
772.834	21.67
773.142	24.92
773.45	23.67
773.758	25.41
774.066	23.61
774.374	27.45
774.682	25.25
774.99	23.6
775.298	23.41
775.605	25.61
775.913	19.4
776.22	24.59
776.528	23.85
776.835	25.06
777.143	24.57
777.45	23.21
777.757	28.03
778.065	22.67
778.372	22.48
778.679	25.08
778.986	27.02
779.293	26.19
779.6	24.59
779.907	27.23
780.214	26.17
780.52	24.59
780.827	24.35
781.134	27.41
781.44	28.79
781.747	25.32
782.053	25.63
782.36	26.26
782.666	23.68
782.973	24.85
783.279	25.17
783.585	28.55
783.891	23.54
784.197	27.96
784.503	19.85
784.809	26.1
785.115	27.96
785.421	25.23
785.727	27.98
786.033	23.06
786.339	28.75
786.644	20.56
786.95	25.67
787.255	22.39
787.561	24.8
787.866	24.97
788.172	27.93
788.477	23.94
788.782	25.33
789.088	25.48
789.393	27.42
789.698	24.93
790.003	25.91
790.308	26.66
790.613	26.88
790.918	26.23
791.223	27.64
791.527	28.52
791.832	26.04
792.137	26.28
792.441	28.41
792.746	24.58
793.05	26.48
793.355	28.15
793.659	28.95
793.963	23.99
794.268	25.63
794.572	22.49
794.876	25.14
795.18	29.06
795.484	28.91
795.788	26.86
796.092	26.81
796.396	23.25
796.7	24.45
797.004	24.52
797.307	26.6
797.611	28.98
797.915	24.62
798.218	27.19
798.522	24.11
798.825	27.84
799.128	29.15
799.432	25.3
799.735	25.68
800.038	29.9
800.341	28.42
800.644	27.36
800.947	26.88
801.25	27.54
801.553	28.84
801.856	32.09
802.159	24.58
802.462	22.6
802.764	30.38
803.067	28.47
803.37	26.94
803.672	25.97
803.975	29.06
804.277	26.63
804.579	28.18
804.882	27.01
805.184	32.48
805.486	31.72
805.788	29.65
806.09	32.02
806.392	26.37
806.694	26.59
806.996	31.66
807.298	25.86
807.6	29.63
807.902	24.19
808.203	23.13
808.505	25.18
808.807	25.32
809.108	26.78
809.409	30.84
809.711	25.86
810.012	32.14
810.313	27.08
810.615	27.67
810.916	29.18
811.217	27.03
811.518	21.79
811.819	25.54
812.12	22.39
812.421	24.48
812.722	29.22
813.023	27.58
813.323	25.61
813.624	28.67
813.925	25.5
814.225	31.53
814.526	25.55
814.826	29.59
815.126	24.32
815.427	29.38
815.727	29.22
816.027	31.8
816.327	30.64
816.627	27.35
816.927	28.64
817.227	24.14
817.527	29.35
817.827	29.58
818.127	24.39
818.427	25.65
818.727	28.36
819.026	25.41
819.326	29.91
819.625	23.15
819.925	32.38
820.224	29.32
820.524	29.08
820.823	31.16
821.122	24.86
821.421	26.42
821.72	30.56
822.019	26.71
822.318	34.29
822.617	31.31
822.916	26.38
823.215	32.27
823.514	31.67
823.813	31.92
824.111	31.17
824.41	32.8
824.709	31.13
825.007	31.91
825.306	32.55
825.604	32.53
825.902	33.23
826.201	31.74
826.499	32.21
826.797	31.82
827.095	32.77
827.393	32.9
827.691	32.18
827.989	30.88
828.287	30.86
828.585	29.81
828.882	30.21
829.18	32.5
829.478	33.39
829.775	33.72
830.073	33.03
830.37	31.28
830.668	33.19
830.965	33.06
831.263	32.04
831.56	31.95
831.857	30.58
832.154	34.89
832.451	32.27
832.748	28.95
833.045	33.9
833.342	28.43
833.639	29.61
833.936	28.98
834.232	33.6
834.529	34.33
834.826	32.78
835.122	25.58
835.419	30.72
835.715	30.93
836.012	32.8
836.308	34.78
836.604	31.73
836.901	30.91
837.197	33.74
837.493	33.87
837.789	31.89
838.085	28.81
838.381	29.23
838.677	36.7
838.972	30.28
839.268	30.32
839.564	30.38
839.86	17.87
840.155	31.32
840.451	31.62
840.746	26.07
841.042	27.14
841.337	30.62
841.632	31.01
841.928	37.27
842.223	27.83
842.518	27.99
842.813	29.42
843.108	28.43
843.403	35.68
843.698	33.24
843.993	32.03
844.287	32.65
844.582	25.15
844.877	28.25
845.171	35.42
845.466	31.04
845.761	32.76
846.055	20.06
846.349	20.57
846.644	23.54
846.938	36.43
847.232	29.13
847.526	37.27
847.82	27.03
848.114	16.44
848.408	27.41
848.702	40.27
848.996	37.88
849.29	36.41
849.584	18.6
849.877	32.7
850.171	30.63
850.465	22.78
850.758	10.06
851.052	20.54
851.345	17.39
851.638	11.61
851.932	34.66
852.225	38.45
852.518	22.09
852.811	3.38
853.104	22.47
853.397	19.91
853.69	31.58
853.983	28.3
854.276	33.16
854.569	10.63
854.861	27.47
855.154	28.28
855.447	26.4
855.739	11.43
856.032	42.53
856.324	32
856.616	24.98
856.909	20.89
857.201	-11.87
857.493	16.33
857.785	30.92
858.077	17.58
858.369	36.31
858.661	14.33
858.953	35.37
859.245	48.18
859.537	-8.06
859.829	15.47
860.12	41.59
860.412	30.38
860.703	33.41
860.995	58.89
861.286	2.68
861.578	35.01
861.869	18.12
862.16	18.32
862.452	6.78
862.743	30.75
863.034	30.58
863.325	21.85
863.616	34.4
863.907	45.01
864.198	15.88
864.488	35.38
864.779	48.7
865.07	36.21
865.36	47.33
865.651	32.43
865.941	7.94
866.232	37.72
866.522	20.11
866.813	36.2
867.103	-5.97
867.393	17.62
867.683	43.04
867.973	4.96
868.263	6.08
868.553	26.26
868.843	4.55
869.133	25.11
869.423	34.38
869.713	-0.69
870.002	55.47
870.292	30.53
870.582	13.95
870.871	16.31
871.161	18.47
871.45	18.77
871.739	42.45
872.029	26.99
872.318	42.64
872.607	39.73
872.896	28.68
873.185	33.62
873.474	9.77
873.763	40.96
874.052	25.63
874.341	45.65
874.63	34.44
874.918	36.28
875.207	-8.24
875.496	18.47
875.784	35.28
876.073	30.74
876.361	42.37
876.649	19.81
876.938	13.99
877.226	42.26
877.514	51.11
877.802	7.39
878.09	30.18
878.378	19.97
878.666	28.97
878.954	38.15
879.242	30.75
879.53	21.05
879.817	20.53
880.105	51.38
880.392	23.56
880.68	25.01
880.967	9.66
881.255	36.49
881.542	10.05
881.83	35.11
882.117	21
882.404	8.57
882.691	14.07
882.978	57.59
883.265	42.01
883.552	28.17
883.839	43.27
884.126	41.64
884.413	31.81
884.699	35.08
884.986	35.06
885.273	41.39
885.559	41.39
885.846	41.39
