Data from 0071_crown_Reflection__1__320.txt Node

Date: Fri Dec 16 16:39:15 CST 2022
User: ToomeyLab
Spectrometer: FLMS14357
Trigger mode: 0
Integration Time (sec): 1.000000E-2
Scans to average: 100
Electric dark correction enabled: true
Nonlinearity correction enabled: false
Boxcar width: 0
XAxis mode: Wavelengths
Number of Pixels in Spectrum: 2048
>>>>>Begin Spectral Data<<<<<
189.047	5640
189.435	5640
189.823	5640
190.211	56
190.599	106.75
190.987	-7.6
191.375	-95.61
191.763	7004.82
192.151	-169.8
192.538	-2.39
192.926	-8.79
193.314	110.12
193.702	2677.42
194.089	129.72
194.477	-991.49
194.864	265.09
195.252	294.61
195.639	164.25
196.027	1152.85
196.414	114.98
196.801	-41.75
197.189	147.43
197.576	-118.48
197.963	101.12
198.351	-14.53
198.738	-20.35
199.125	18.16
199.512	-24.14
199.899	-85.78
200.286	-120.45
200.673	11.88
201.06	57.25
201.447	27.51
201.833	14.64
202.22	12.29
202.607	-52.3
202.994	18.33
203.38	-46.9
203.767	-8.35
204.154	-86.56
204.54	10.47
204.927	14.03
205.313	32.83
205.699	-30.02
206.086	-34.71
206.472	-9.39
206.858	1.86
207.245	-3.17
207.631	-66.19
208.017	6.2
208.403	13.81
208.789	-1.26
209.175	45.24
209.561	-2.33
209.947	-14.2
210.333	-72.03
210.719	-23.73
211.105	-86.45
211.491	-11.46
211.876	-34.06
212.262	-72.05
212.648	-44.9
213.034	-14.82
213.419	-3.61
213.805	-28.26
214.19	-42.36
214.576	-24.52
214.961	-30.11
215.346	-44.04
215.732	-33.09
216.117	-15.98
216.502	-36.92
216.888	-55.37
217.273	-13.29
217.658	-18.59
218.043	-46.11
218.428	-1.65
218.813	-5.39
219.198	-47.97
219.583	-9.17
219.968	-14.46
220.353	-16.7
220.738	-53.21
221.122	-18.74
221.507	-30.01
221.892	-0.89
222.276	-5.84
222.661	-11.32
223.046	6.4
223.43	-14.26
223.815	-3.97
224.199	-6.14
224.583	-2.59
224.968	5.7
225.352	-0.44
225.736	-3.84
226.121	-10.94
226.505	-0.53
226.889	-2.18
227.273	-4.6
227.657	-2.08
228.041	0.16
228.425	0.44
228.809	-1.15
229.193	-1.16
229.577	2.05
229.961	2.45
230.344	2.13
230.728	2.31
231.112	2.9
231.495	2.03
231.879	2.16
232.263	1.35
232.646	-0.03
233.03	0.15
233.413	2.44
233.797	2.67
234.18	0.12
234.563	0.79
234.946	0.77
235.33	2.41
235.713	1.92
236.096	0.94
236.479	1.89
236.862	1.42
237.245	1.72
237.628	2.4
238.011	0.43
238.394	4.33
238.777	1.22
239.16	0.07
239.543	-0.87
239.925	1.79
240.308	1.91
240.691	1.55
241.073	2.1
241.456	1.85
241.838	2.55
242.221	2.45
242.603	1.92
242.986	3.13
243.368	2.2
243.75	1.99
244.133	2.07
244.515	1.88
244.897	2.18
245.279	1.64
245.661	1.77
246.043	2.76
246.425	0.87
246.807	2.25
247.189	1.37
247.571	2.27
247.953	2.24
248.335	2.59
248.717	2.22
249.098	2.37
249.48	2.12
249.862	2.01
250.243	2.35
250.625	2.11
251.006	2.4
251.388	2.46
251.769	1.69
252.151	1.88
252.532	2
252.913	1.97
253.295	1.89
253.676	2.83
254.057	1.8
254.438	1.33
254.819	1.65
255.2	2.17
255.581	1.76
255.962	1.92
256.343	3.44
256.724	1.93
257.105	1.5
257.486	1.59
257.867	0.69
258.247	1.27
258.628	2.49
259.009	1.41
259.389	1.96
259.77	2.12
260.15	2.77
260.531	2.34
260.911	2.24
261.292	2.22
261.672	2.29
262.052	2.19
262.432	2.07
262.813	1.96
263.193	1.41
263.573	1.49
263.953	1.6
264.333	1.55
264.713	2.2
265.093	1.58
265.473	2.91
265.853	1.71
266.233	1.53
266.612	2.34
266.992	1.81
267.372	2.07
267.752	1.44
268.131	1.97
268.511	2.26
268.89	2.17
269.27	1.97
269.649	1.99
270.029	1.35
270.408	1.39
270.787	2.26
271.167	2.37
271.546	1.27
271.925	1.43
272.304	2.07
272.683	1.69
273.062	2.29
273.441	2.55
273.82	2.39
274.199	2.1
274.578	1.87
274.957	2
275.336	1.88
275.715	2.51
276.093	2.64
276.472	1.91
276.851	1.63
277.229	1.96
277.608	1.79
277.986	2.19
278.365	2.07
278.743	1.74
279.122	1.59
279.5	1.83
279.878	0.89
280.257	2.17
280.635	1.68
281.013	2.24
281.391	1.79
281.769	1.5
282.147	1.9
282.525	1.8
282.903	1.87
283.281	1.75
283.659	1.94
284.037	2.15
284.415	2.06
284.792	2.19
285.17	1.42
285.548	1.87
285.925	1.44
286.303	2.08
286.68	2.36
287.058	1.89
287.435	1.98
287.813	2.22
288.19	2.38
288.567	1.95
288.945	1.75
289.322	1.5
289.699	1.65
290.076	2.18
290.453	1.48
290.83	2.21
291.207	1.73
291.584	1.74
291.961	2.25
292.338	1.96
292.715	1.92
293.092	2.07
293.469	2.49
293.845	2.27
294.222	1.84
294.599	2.32
294.975	1.83
295.352	1.12
295.728	1.98
296.105	2.11
296.481	2.53
296.858	2.1
297.234	1.93
297.61	2.15
297.986	2.02
298.363	1.92
298.739	2.37
299.115	1.74
299.491	1.97
299.867	2.24
300.243	1.82
300.619	1.86
300.995	2
301.371	2.04
301.746	1.46
302.122	2.14
302.498	2.56
302.874	2.08
303.249	2.55
303.625	2.1
304	1.67
304.376	2.17
304.751	1.89
305.127	2.08
305.502	2.41
305.878	1.78
306.253	1.7
306.628	2.07
307.003	1.86
307.378	1.46
307.754	2.27
308.129	1.58
308.504	1.6
308.879	2.28
309.254	2.11
309.629	1.47
310.003	2.25
310.378	2.05
310.753	2.21
311.128	2.25
311.502	2
311.877	2.12
312.252	1.96
312.626	1.92
313.001	1.87
313.375	1.91
313.75	1.71
314.124	2.41
314.498	1.9
314.873	2.15
315.247	1.87
315.621	1.85
315.995	2.25
316.369	2.21
316.743	1.78
317.117	2.15
317.491	2.06
317.865	1.66
318.239	1.82
318.613	2.31
318.987	1.45
319.361	2.23
319.734	1.81
320.108	2.45
320.482	1.97
320.855	2.35
321.229	2.75
321.602	2.3
321.976	1.74
322.349	1.49
322.723	1.3
323.096	2.04
323.469	1.54
323.843	2.7
324.216	1.55
324.589	2.41
324.962	2.38
325.335	2.44
325.708	2.38
326.081	2.12
326.454	2.15
326.827	2.51
327.2	2.06
327.573	2.46
327.945	1.82
328.318	2
328.691	2.35
329.063	2.03
329.436	1.74
329.809	1.88
330.181	2.26
330.553	2.45
330.926	2.57
331.298	1.82
331.671	2.28
332.043	1.73
332.415	2.81
332.787	2.41
333.159	1.84
333.532	1.46
333.904	2.7
334.276	2.2
334.648	2.11
335.02	2.18
335.391	2.75
335.763	2.1
336.135	2.53
336.507	2.58
336.879	2.38
337.25	2.36
337.622	2.45
337.993	2.22
338.365	2.26
338.736	2.06
339.108	1.44
339.479	1.66
339.851	2.49
340.222	2.57
340.593	2.23
340.964	2.15
341.336	1.77
341.707	2.02
342.078	1.86
342.449	2.23
342.82	2.09
343.191	1.82
343.562	2.55
343.933	2.2
344.303	2.2
344.674	2.3
345.045	2.63
345.416	1.98
345.786	1.9
346.157	2.13
346.527	1.94
346.898	2.59
347.268	2.42
347.639	2.14
348.009	2.49
348.38	2.41
348.75	2.36
349.12	2.51
349.49	2.1
349.861	2.5
350.231	2.11
350.601	2.04
350.971	2.21
351.341	2.28
351.711	1.79
352.081	2.11
352.45	2.37
352.82	2.77
353.19	2.22
353.56	2.25
353.929	2.42
354.299	2.36
354.669	2.3
355.038	2.38
355.408	2.81
355.777	2.16
356.147	2.65
356.516	2.21
356.885	2.43
357.254	2.63
357.624	2.47
357.993	2.34
358.362	2.24
358.731	2.22
359.1	2.72
359.469	2.72
359.838	1.97
360.207	2.28
360.576	1.9
360.945	2.31
361.314	2.43
361.682	2.26
362.051	2.3
362.42	2.53
362.788	2.35
363.157	2.26
363.525	2.55
363.894	2.25
364.262	2.3
364.631	3.06
364.999	2.33
365.367	2.44
365.735	2.13
366.104	2.44
366.472	2.42
366.84	2.47
367.208	2.15
367.576	2.31
367.944	2.61
368.312	2.03
368.68	2.22
369.048	2.29
369.416	2.41
369.783	2.16
370.151	2.23
370.519	2.17
370.886	2.18
371.254	2.68
371.621	2.68
371.989	2.72
372.356	2.25
372.724	2.43
373.091	2.7
373.458	2.25
373.826	2.59
374.193	2.69
374.56	2.36
374.927	2.19
375.294	2.46
375.661	2.53
376.028	2.62
376.395	2.35
376.762	2.55
377.129	2.62
377.496	2.62
377.863	2.58
378.229	2.42
378.596	2.31
378.963	2.18
379.329	2.59
379.696	2.56
380.062	2.76
380.429	2.78
380.795	2.56
381.161	2.27
381.528	1.89
381.894	2.81
382.26	2.57
382.626	2.46
382.993	2.48
383.359	2.43
383.725	2.97
384.091	2.62
384.457	2.86
384.823	2.69
385.188	2.6
385.554	2.57
385.92	2.63
386.286	2.71
386.651	2.64
387.017	2.8
387.383	2.31
387.748	2.36
388.114	2.81
388.479	2.54
388.845	2.66
389.21	2.9
389.575	2.67
389.94	2.43
390.306	2.58
390.671	2.27
391.036	2.67
391.401	2.81
391.766	2.82
392.131	2.4
392.496	2.48
392.861	2.59
393.226	2.5
393.591	2.55
393.956	2.72
394.32	2.57
394.685	2.69
395.05	2.51
395.414	2.64
395.779	2.38
396.143	2.59
396.508	2.81
396.872	2.67
397.236	2.42
397.601	2.6
397.965	2.44
398.329	2.67
398.694	2.59
399.058	2.62
399.422	2.65
399.786	2.55
400.15	2.69
400.514	2.55
400.878	2.44
401.242	2.85
401.605	2.55
401.969	2.46
402.333	2.68
402.697	2.89
403.06	2.8
403.424	2.31
403.787	2.79
404.151	2.37
404.514	2.93
404.878	2.43
405.241	2.78
405.604	2.5
405.968	2.8
406.331	2.58
406.694	2.85
407.057	2.95
407.42	2.61
407.783	2.7
408.146	2.8
408.509	2.45
408.872	2.6
409.235	2.57
409.598	2.68
409.961	2.58
410.323	2.67
410.686	2.54
411.049	2.59
411.411	2.64
411.774	2.55
412.136	2.73
412.499	2.78
412.861	2.63
413.223	2.72
413.586	2.39
413.948	2.63
414.31	2.8
414.672	2.61
415.035	2.54
415.397	2.84
415.759	2.59
416.121	2.67
416.483	2.83
416.845	2.59
417.206	2.84
417.568	2.78
417.93	2.66
418.292	2.6
418.653	2.47
419.015	2.8
419.377	2.82
419.738	2.6
420.1	2.64
420.461	2.56
420.822	2.81
421.184	2.59
421.545	2.59
421.906	2.69
422.267	2.61
422.629	2.58
422.99	2.67
423.351	2.65
423.712	2.64
424.073	2.72
424.434	2.63
424.795	2.67
425.155	2.56
425.516	2.69
425.877	2.65
426.238	2.54
426.598	2.77
426.959	2.57
427.32	2.74
427.68	2.81
428.041	2.76
428.401	2.69
428.761	2.69
429.122	2.56
429.482	2.58
429.842	2.63
430.202	2.5
430.563	2.66
430.923	2.61
431.283	2.77
431.643	2.73
432.003	2.79
432.363	2.78
432.722	2.9
433.082	2.67
433.442	2.72
433.802	2.75
434.161	2.72
434.521	2.63
434.881	2.71
435.24	2.65
435.6	2.66
435.959	2.76
436.319	2.67
436.678	2.72
437.037	2.7
437.396	2.65
437.756	2.65
438.115	2.72
438.474	2.8
438.833	2.78
439.192	2.96
439.551	2.84
439.91	2.89
440.269	2.83
440.628	2.77
440.987	2.65
441.345	2.67
441.704	2.7
442.063	2.77
442.421	2.74
442.78	2.77
443.138	2.63
443.497	2.57
443.855	2.78
444.214	2.81
444.572	2.65
444.93	2.67
445.288	2.71
445.647	2.82
446.005	2.64
446.363	2.69
446.721	2.53
447.079	2.67
447.437	2.71
447.795	2.75
448.153	2.65
448.51	2.67
448.868	2.76
449.226	2.77
449.584	2.67
449.941	2.82
450.299	2.8
450.656	2.81
451.014	2.77
451.371	2.85
451.729	2.76
452.086	2.59
452.443	2.76
452.801	2.89
453.158	2.8
453.515	2.71
453.872	2.8
454.229	2.74
454.586	2.72
454.943	2.64
455.3	2.99
455.657	2.54
456.014	2.9
456.371	2.9
456.727	2.75
457.084	2.66
457.441	2.71
457.797	2.74
458.154	2.81
458.51	2.71
458.867	2.79
459.223	2.72
459.58	2.67
459.936	2.68
460.292	2.85
460.648	2.7
461.005	2.59
461.361	2.7
461.717	2.79
462.073	2.78
462.429	2.78
462.785	2.79
463.141	2.72
463.496	2.7
463.852	2.98
464.208	2.8
464.564	2.59
464.919	2.61
465.275	2.87
465.631	2.82
465.986	2.78
466.342	2.79
466.697	2.78
467.052	2.83
467.408	2.87
467.763	2.57
468.118	2.72
468.473	2.9
468.829	2.74
469.184	2.89
469.539	2.67
469.894	2.79
470.249	2.85
470.603	2.96
470.958	2.86
471.313	2.76
471.668	2.83
472.023	2.99
472.377	2.7
472.732	2.71
473.086	2.61
473.441	2.92
473.795	3.02
474.15	2.73
474.504	2.69
474.859	2.77
475.213	2.83
475.567	2.77
475.921	2.94
476.275	2.84
476.63	2.81
476.984	2.64
477.338	2.99
477.692	2.77
478.045	2.74
478.399	2.88
478.753	2.75
479.107	2.67
479.461	2.78
479.814	2.8
480.168	2.77
480.521	2.75
480.875	3
481.228	2.87
481.582	2.72
481.935	2.8
482.289	2.74
482.642	2.85
482.995	2.7
483.348	2.85
483.701	2.75
484.055	2.72
484.408	2.68
484.761	2.55
485.114	2.51
485.466	2.58
485.819	2.62
486.172	2.73
486.525	2.78
486.878	2.69
487.23	2.83
487.583	2.81
487.936	2.72
488.288	2.67
488.641	2.66
488.993	2.62
489.345	2.67
489.698	2.72
490.05	2.7
490.402	2.79
490.754	2.83
491.107	2.81
491.459	2.79
491.811	2.88
492.163	2.84
492.515	2.73
492.866	2.58
493.218	2.64
493.57	2.76
493.922	2.76
494.274	2.87
494.625	2.79
494.977	2.82
495.328	2.99
495.68	3.03
496.031	2.96
496.383	2.77
496.734	2.88
497.086	2.76
497.437	2.86
497.788	2.84
498.139	2.67
498.49	2.88
498.842	2.87
499.193	2.85
499.544	2.86
499.894	2.92
500.245	2.88
500.596	2.75
500.947	2.74
501.298	2.9
501.648	2.87
501.999	2.99
502.35	2.91
502.7	2.95
503.051	2.96
503.401	2.87
503.752	2.75
504.102	2.83
504.452	2.89
504.803	2.76
505.153	2.8
505.503	2.85
505.853	2.68
506.203	2.83
506.553	2.91
506.903	2.9
507.253	2.77
507.603	2.74
507.953	2.88
508.303	2.9
508.652	2.92
509.002	2.94
509.352	2.86
509.701	2.82
510.051	2.88
510.4	2.83
510.75	2.89
511.099	2.87
511.449	2.88
511.798	2.9
512.147	2.9
512.496	2.81
512.846	2.85
513.195	2.9
513.544	2.8
513.893	2.8
514.242	2.89
514.591	2.94
514.939	2.84
515.288	2.88
515.637	2.94
515.986	2.84
516.334	3.03
516.683	2.92
517.032	2.81
517.38	2.83
517.729	2.87
518.077	2.88
518.426	2.77
518.774	2.84
519.122	2.81
519.47	2.85
519.819	2.79
520.167	2.83
520.515	2.73
520.863	2.81
521.211	2.84
521.559	2.83
521.907	2.89
522.255	2.9
522.602	3.05
522.95	2.78
523.298	2.87
523.645	2.75
523.993	3
524.341	2.86
524.688	2.83
525.036	3.04
525.383	2.88
525.73	2.8
526.078	2.93
526.425	2.92
526.772	2.71
527.119	2.77
527.466	2.83
527.814	2.75
528.161	2.87
528.508	2.86
528.854	2.7
529.201	2.75
529.548	2.66
529.895	2.66
530.242	2.65
530.588	2.75
530.935	2.79
531.282	2.82
531.628	2.83
531.975	2.86
532.321	2.84
532.667	2.85
533.014	2.8
533.36	2.85
533.706	2.85
534.052	2.74
534.399	2.74
534.745	2.77
535.091	2.75
535.437	2.85
535.783	2.85
536.129	2.9
536.474	2.97
536.82	2.77
537.166	2.93
537.512	2.88
537.857	2.83
538.203	2.87
538.549	2.98
538.894	2.85
539.239	3.08
539.585	2.97
539.93	2.98
540.276	2.84
540.621	2.92
540.966	2.86
541.311	3
541.656	2.68
542.001	2.88
542.346	2.78
542.691	2.75
543.036	2.76
543.381	2.87
543.726	2.89
544.071	2.89
544.415	2.87
544.76	2.82
545.105	2.85
545.449	2.84
545.794	2.81
546.138	2.97
546.483	2.86
546.827	2.92
547.171	2.87
547.516	2.98
547.86	2.79
548.204	2.86
548.548	2.98
548.892	2.85
549.236	2.97
549.58	2.98
549.924	2.9
550.268	3
550.612	3
550.956	2.72
551.3	2.94
551.643	3.11
551.987	2.89
552.33	2.95
552.674	3.06
553.017	2.86
553.361	2.93
553.704	2.92
554.048	2.91
554.391	2.93
554.734	2.94
555.077	2.98
555.42	2.96
555.764	2.91
556.107	2.9
556.45	2.92
556.793	3.18
557.135	3.05
557.478	3.24
557.821	2.9
558.164	3.04
558.507	2.99
558.849	2.86
559.192	3.07
559.534	2.99
559.877	3.12
560.219	3.09
560.562	2.95
560.904	2.95
561.246	2.98
561.589	3.02
561.931	3.23
562.273	2.91
562.615	3.06
562.957	2.99
563.299	2.98
563.641	3
563.983	3.09
564.325	3.09
564.667	3.04
565.008	2.95
565.35	3.25
565.692	3.21
566.033	3.11
566.375	2.81
566.716	2.87
567.058	3.17
567.399	2.94
567.741	2.96
568.082	3.03
568.423	3.01
568.764	3.06
569.105	3.09
569.447	2.91
569.788	3.1
570.129	2.91
570.47	3.16
570.811	3.06
571.151	2.98
571.492	3.25
571.833	3.12
572.174	3
572.514	2.89
572.855	2.94
573.195	2.86
573.536	2.94
573.876	2.91
574.217	3.08
574.557	3.09
574.898	2.94
575.238	3.06
575.578	3.29
575.918	3.01
576.258	3.08
576.598	3.02
576.938	3.15
577.278	2.89
577.618	3.09
577.958	2.99
578.298	3.11
578.638	3.11
578.977	2.99
579.317	3.21
579.657	3.24
579.996	3.13
580.336	2.83
580.675	3.19
581.014	3.13
581.354	3.08
581.693	3.06
582.032	2.94
582.372	3.2
582.711	2.95
583.05	3.26
583.389	3.22
583.728	3.31
584.067	3.13
584.406	3.18
584.745	2.83
585.083	3.24
585.422	3.02
585.761	3.22
586.1	3.08
586.438	3.04
586.777	2.96
587.115	2.98
587.454	3.1
587.792	2.99
588.13	3.29
588.469	3.17
588.807	3.34
589.145	3.32
589.483	2.95
589.821	3.2
590.159	3.17
590.497	2.95
590.835	2.98
591.173	3.29
591.511	3.4
591.849	3.35
592.187	3.16
592.524	3.12
592.862	3.1
593.2	3.26
593.537	3.01
593.875	3.28
594.212	3.22
594.55	3.29
594.887	3.01
595.224	3.04
595.561	3.22
595.899	3
596.236	3.31
596.573	2.96
596.91	3.1
597.247	3.08
597.584	3.13
597.921	3.24
598.258	3.35
598.594	2.99
598.931	3.14
599.268	3.1
599.604	3.32
599.941	3.16
600.277	3.29
600.614	3.3
600.95	3.17
601.287	3.3
601.623	3.41
601.959	3.38
602.296	3.27
602.632	3.26
602.968	3.2
603.304	3.04
603.64	2.99
603.976	3.16
604.312	3.42
604.648	3.32
604.984	3.24
605.319	3.25
605.655	3.13
605.991	3.21
606.326	3.05
606.662	3.17
606.998	3.28
607.333	3.14
607.668	3.34
608.004	3.26
608.339	3.1
608.674	3.47
609.01	3.42
609.345	3.38
609.68	2.99
610.015	3.19
610.35	3.14
610.685	3.2
611.02	3.37
611.355	3.36
611.689	3.25
612.024	3.32
612.359	3.42
612.694	3.45
613.028	3.41
613.363	3.18
613.697	3.29
614.032	3.66
614.366	3.25
614.7	3.48
615.035	3.2
615.369	2.93
615.703	3.71
616.037	2.99
616.371	3.38
616.705	3.19
617.039	3.48
617.373	3.08
617.707	3.26
618.041	3.13
618.375	3.37
618.709	3.34
619.042	3.39
619.376	3.39
619.71	3.27
620.043	3.42
620.377	3.16
620.71	3.25
621.043	2.93
621.377	3.22
621.71	3.08
622.043	3.45
622.376	3.25
622.709	3.41
623.043	3.33
623.376	3.5
623.709	3.4
624.041	3.52
624.374	3.08
624.707	3.15
625.04	3.61
625.373	3.15
625.705	2.96
626.038	3.34
626.37	3.21
626.703	3.34
627.035	3.57
627.368	3.75
627.7	3.42
628.032	3.59
628.365	3.08
628.697	3.51
629.029	3.4
629.361	3.26
629.693	3.54
630.025	3.17
630.357	3.44
630.689	3.76
631.021	3.54
631.353	3.57
631.684	3.48
632.016	3.21
632.348	3.35
632.679	3.29
633.011	3.17
633.342	3.62
633.674	3.32
634.005	3.42
634.336	3.5
634.668	3.18
634.999	3.58
635.33	3.15
635.661	3.36
635.992	3.39
636.323	3.33
636.654	3.3
636.985	3.11
637.316	3.7
637.647	3.52
637.977	3.51
638.308	3.45
638.639	3.36
638.969	3.46
639.3	3.38
639.63	3.23
639.961	3.37
640.291	3.72
640.622	3.64
640.952	3.79
641.282	2.66
641.612	3.26
641.943	3.87
642.273	3.37
642.603	3.57
642.933	3.57
643.263	3.79
643.592	3.48
643.922	4.3
644.252	3.67
644.582	3.08
644.911	3.13
645.241	3.36
645.571	3.65
645.9	3.84
646.23	3.56
646.559	3.21
646.888	3.42
647.218	3.53
647.547	3.56
647.876	3.87
648.205	3.58
648.534	3.2
648.863	3.36
649.192	3.32
649.521	3.08
649.85	3.65
650.179	3.38
650.508	3.51
650.837	3.7
651.165	3.46
651.494	3.56
651.822	3.42
652.151	3.57
652.479	4.05
652.808	2.95
653.136	3.43
653.465	3.86
653.793	3.74
654.121	3.82
654.449	3.58
654.777	3.58
655.105	3.68
655.433	4.04
655.761	3.4
656.089	3.41
656.417	3.21
656.745	3.87
657.073	3.95
657.4	3.92
657.728	3.77
658.056	3.65
658.383	3.78
658.711	3.66
659.038	3.96
659.365	3.38
659.693	3.54
660.02	3.35
660.347	3.6
660.674	3.5
661.001	3.19
661.329	3.88
661.656	3.28
661.982	3.74
662.309	3.49
662.636	3.55
662.963	4.08
663.29	3.46
663.616	3.91
663.943	3.89
664.27	3.83
664.596	3.22
664.923	4.08
665.249	3.64
665.576	3.55
665.902	3.61
666.228	3.34
666.554	3.76
666.881	3.97
667.207	3.43
667.533	4.06
667.859	3.52
668.185	3.71
668.511	3.09
668.837	2.8
669.162	4.03
669.488	3.34
669.814	4.34
670.139	4.23
670.465	3.62
670.791	4.2
671.116	3.4
671.442	3.95
671.767	3.74
672.092	3.69
672.418	3.92
672.743	3.4
673.068	2.92
673.393	4.08
673.718	3.31
674.043	3.18
674.368	3.97
674.693	3.48
675.018	3.62
675.343	3.97
675.667	3.55
675.992	2.96
676.317	4.22
676.641	3.8
676.966	3.78
677.29	3.16
677.615	3.35
677.939	3.29
678.264	3.89
678.588	3.91
678.912	4.31
679.236	4.51
679.56	3.48
679.885	4.23
680.209	3.42
680.532	3.83
680.856	4.12
681.18	3.78
681.504	3.22
681.828	3.4
682.152	4.05
682.475	4.16
682.799	4.26
683.122	3.49
683.446	3.48
683.769	3.82
684.093	4.24
684.416	3.79
684.739	3.92
685.062	3.7
685.386	3.5
685.709	4.03
686.032	3.47
686.355	3.78
686.678	4.31
687.001	3.74
687.324	3.05
687.646	3.27
687.969	3.38
688.292	4.06
688.614	4.26
688.937	4.36
689.26	3.4
689.582	3.39
689.904	4.14
690.227	3.95
690.549	3.7
690.871	4.12
691.194	3.38
691.516	3.81
691.838	3.51
692.16	4.26
692.482	3.73
692.804	3.56
693.126	4.02
693.448	4.41
693.769	4.07
694.091	4.03
694.413	4.27
694.735	3.47
695.056	3.83
695.378	3.99
695.699	4.98
696.021	4.5
696.342	3.25
696.663	3.84
696.984	4.27
697.306	4.08
697.627	3.28
697.948	4.44
698.269	4.3
698.59	4.25
698.911	3.35
699.232	4.55
699.553	4.31
699.873	4.39
700.194	4.04
700.515	4.36
700.835	4.27
701.156	4.46
701.477	3.44
701.797	4.44
702.117	4.29
702.438	4.62
702.758	4.13
703.078	3.89
703.398	4.1
703.719	4.62
704.039	4.5
704.359	3.64
704.679	3.56
704.999	3.73
705.319	3.59
705.638	4.42
705.958	5.17
706.278	3.99
706.597	4.2
706.917	4.44
707.237	3.45
707.556	4.13
707.876	3.52
708.195	4.48
708.514	3.69
708.834	4.07
709.153	5.22
709.472	5.03
709.791	4.01
710.11	4.23
710.429	3.86
710.748	4.1
711.067	4.21
711.386	5.38
711.705	3.54
712.023	3.44
712.342	3.97
712.661	4.79
712.979	4.59
713.298	4.57
713.616	4.83
713.935	4.66
714.253	4.84
714.572	3.42
714.89	3.72
715.208	5.86
715.526	4.52
715.844	4.22
716.162	3.49
716.48	4.88
716.798	4.11
717.116	5.61
717.434	4.78
717.752	4.39
718.069	3.31
718.387	4.26
718.705	3.89
719.022	4.59
719.34	4.08
719.657	4.88
719.975	3.16
720.292	4.51
720.609	5.1
720.927	4.88
721.244	3.88
721.561	4.38
721.878	3.92
722.195	4.55
722.512	4.3
722.829	5.06
723.146	3.44
723.463	3.85
723.779	3.58
724.096	3.65
724.413	3.61
724.729	4.74
725.046	4.68
725.362	2.28
725.679	5.5
725.995	4.22
726.311	4.71
726.628	4.63
726.944	5.17
727.26	3.68
727.576	4.68
727.892	4.16
728.208	4.96
728.524	4.33
728.84	3.5
729.156	3.87
729.472	5.16
729.787	4.81
730.103	3.59
730.419	4.67
730.734	3.67
731.05	4.38
731.365	5.13
731.681	3.27
731.996	3.48
732.311	4.61
732.626	4.83
732.942	4.03
733.257	5.92
733.572	4.11
733.887	4.79
734.202	4.58
734.517	3.82
734.832	4.24
735.146	4.52
735.461	4.37
735.776	3.62
736.091	3.73
736.405	5.49
736.72	5.11
737.034	3.73
737.349	4.15
737.663	3.78
737.977	4.35
738.292	4.8
738.606	3.93
738.92	4.4
739.234	4.69
739.548	5.01
739.862	4.47
740.176	5.13
740.49	5.34
740.804	5.12
741.117	5.95
741.431	4.51
741.745	3.22
742.058	4.67
742.372	3.72
742.685	3.26
742.999	3.7
743.312	3.64
743.626	3.46
743.939	3.64
744.252	3.21
744.565	4.02
744.878	3.09
745.191	3.69
745.505	4.03
745.817	4.44
746.13	4.63
746.443	4.22
746.756	5.24
747.069	5.11
747.381	3
747.694	2.65
748.007	4.76
748.319	5.47
748.632	3.55
748.944	5.55
749.256	6.67
749.569	3.49
749.881	4.88
750.193	3.83
750.505	6.13
750.817	2.95
751.129	5.29
751.441	4.14
751.753	6.8
752.065	4.51
752.377	3.44
752.689	4.38
753	3.43
753.312	5.69
753.624	5.17
753.935	3.81
754.247	6.3
754.558	6.12
754.869	5.76
755.181	4.38
755.492	7.41
755.803	4.53
756.114	4.98
756.425	6
756.736	3.81
757.047	5.55
757.358	3.03
757.669	4.1
757.98	5.36
758.291	4.28
758.601	4.04
758.912	4.02
759.223	5.97
759.533	5.69
759.844	4.1
760.154	5.9
760.464	4.1
760.775	5.53
761.085	4.01
761.395	5.3
761.705	4.59
762.016	4.94
762.326	6.78
762.636	4.96
762.945	4.74
763.255	5.25
763.565	2.39
763.875	5.14
764.185	5.4
764.494	5.46
764.804	5.56
765.113	5.65
765.423	5.08
765.732	5.11
766.042	4.69
766.351	5.8
766.66	6.3
766.97	6.41
767.279	6.25
767.588	4.8
767.897	4.57
768.206	5.82
768.515	3.69
768.824	4.04
769.133	3.66
769.441	5.45
769.75	3.29
770.059	3.61
770.367	3.24
770.676	4.41
770.984	4.17
771.293	2.68
771.601	1.92
771.91	4.07
772.218	0.47
772.526	4.63
772.834	7.83
773.142	2.37
773.45	2.27
773.758	5.55
774.066	1.98
774.374	4.55
774.682	2.72
774.99	4.34
775.298	4.76
775.605	3.3
775.913	4.95
776.22	2.84
776.528	4.13
776.835	6.92
777.143	4.73
777.45	7.58
777.757	1.22
778.065	4.77
778.372	4.92
778.679	6.58
778.986	6.83
779.293	3.35
779.6	0.14
779.907	2.3
780.214	6.6
780.52	5.88
780.827	2.59
781.134	4.79
781.44	0.25
781.747	3.86
782.053	4.99
782.36	3.06
782.666	4.33
782.973	3.79
783.279	5.69
783.585	3.61
783.891	4.06
784.197	0.75
784.503	6.38
784.809	10.14
785.115	1.05
785.421	5.63
785.727	4
786.033	0.14
786.339	6.17
786.644	6.15
786.95	6.13
787.255	8.81
787.561	6.16
787.866	3.29
788.172	7.94
788.477	2.24
788.782	2.89
789.088	5.38
789.393	4.79
789.698	4.14
790.003	5.64
790.308	5.07
790.613	4.1
790.918	7.16
791.223	3.58
791.527	8.3
791.832	7.59
792.137	9.53
792.441	6.05
792.746	3.35
793.05	6.51
793.355	7.8
793.659	5.06
793.963	3.96
794.268	1.64
794.572	9.58
794.876	-2.06
795.18	1.24
795.484	2.01
795.788	1.22
796.092	3.3
796.396	2.82
796.7	4.78
797.004	5.36
797.307	7.03
797.611	5.78
797.915	4.92
798.218	7.27
798.522	1.88
798.825	3.73
799.128	3.19
799.432	8.9
799.735	2.48
800.038	-0.82
800.341	4.73
800.644	0.99
800.947	4.33
801.25	4.04
801.553	2.32
801.856	0.1
802.159	2.37
802.462	3.06
802.764	1.56
803.067	-0.63
803.37	5.01
803.672	1.36
803.975	6.1
804.277	9.01
804.579	2.12
804.882	5.17
805.184	1.89
805.486	3.48
805.788	7.54
806.09	6.31
806.392	3.42
806.694	9.43
806.996	8.54
807.298	3.79
807.6	5.89
807.902	7.22
808.203	8.55
808.505	3.98
808.807	9.1
809.108	4.75
809.409	5.98
809.711	4.72
810.012	6.4
810.313	3.59
810.615	6.43
810.916	5.8
811.217	8.72
811.518	9.18
811.819	2.57
812.12	9.23
812.421	2.24
812.722	3.6
813.023	9.51
813.323	9.96
813.624	8.19
813.925	5.29
814.225	1.6
814.526	7.35
814.826	3
815.126	-0.6
815.427	3.78
815.727	3.42
816.027	8
816.327	-0.79
816.627	6.26
816.927	2.91
817.227	0.93
817.527	6.67
817.827	6.65
818.127	6.38
818.427	-1.13
818.727	5.91
819.026	10.02
819.326	12.13
819.625	3.15
819.925	1.98
820.224	0.56
820.524	7.89
820.823	-1.26
821.122	5.22
821.421	6.54
821.72	5.39
822.019	3.54
822.318	5.11
822.617	4.6
822.916	5.76
823.215	6.52
823.514	5.66
823.813	6.74
824.111	7.54
824.41	5.67
824.709	8.64
825.007	8.73
825.306	7.61
825.604	8.57
825.902	8.37
826.201	7.43
826.499	8.9
826.797	8.19
827.095	6.05
827.393	8.45
827.691	8.72
827.989	8.2
828.287	8.16
828.585	3.9
828.882	6.5
829.18	6.97
829.478	7.84
829.775	8.83
830.073	8.01
830.37	8.1
830.668	7.11
830.965	8.28
831.263	10.02
831.56	10.11
831.857	7.1
832.154	10.34
832.451	7.8
832.748	5.07
833.045	14.92
833.342	3.29
833.639	7.44
833.936	3.24
834.232	5.21
834.529	11.42
834.826	9.27
835.122	5.53
835.419	4.7
835.715	3.19
836.012	3.99
836.308	9.57
836.604	2.6
836.901	10.81
837.197	8.05
837.493	11.03
837.789	9.37
838.085	5.37
838.381	9.7
838.677	7.58
838.972	3.39
839.268	-0.3
839.564	11.98
839.86	2.61
840.155	-2.47
840.451	0.18
840.746	8.52
841.042	-5.99
841.337	-8.2
841.632	13.29
841.928	12.97
842.223	4.95
842.518	6.85
842.813	0.53
843.108	7.39
843.403	6.15
843.698	-3.96
843.993	-3.64
844.287	7.06
844.582	11.02
844.877	8.34
845.171	8.31
845.466	-8.32
845.761	-1.31
846.055	2.93
846.349	-14.98
846.644	9.88
846.938	-15.26
847.232	-7.53
847.526	-16.67
847.82	6.34
848.114	-0.08
848.408	9.68
848.702	-9.3
848.996	1.6
849.29	-11.33
849.584	-15.24
849.877	13.86
850.171	5.13
850.465	-10.47
850.758	-9.08
851.052	0.49
851.345	18.85
851.638	19.56
851.932	11.24
852.225	-12.86
852.518	-1.81
852.811	-11.86
853.104	-16.01
853.397	-6.49
853.69	12.19
853.983	-6.31
854.276	-6.43
854.569	-36.15
854.861	-8.77
855.154	11.93
855.447	3.17
855.739	-7.44
856.032	-34.1
856.324	-10.55
856.616	16.95
856.909	-4.54
857.201	7.63
857.493	-2.74
857.785	-0.14
858.077	-14.03
858.369	1.26
858.661	3.54
858.953	-17.36
859.245	-12.48
859.537	14.58
859.829	-4.18
860.12	-26.4
860.412	-30.82
860.703	-2.7
860.995	-25.43
861.286	-16.12
861.578	-44.87
861.869	-23.39
862.16	17.01
862.452	-4.28
862.743	18.8
863.034	1.13
863.325	-11.27
863.616	13.77
863.907	0.6
864.198	0.72
864.488	-11.62
864.779	-11.72
865.07	-26.03
865.36	8.41
865.651	19.33
865.941	28.68
866.232	-3.39
866.522	-7.64
866.813	24.94
867.103	-17.17
867.393	-43.27
867.683	11.65
867.973	-0.56
868.263	-15.69
868.553	-4.78
868.843	-46.76
869.133	-7.71
869.423	-6.66
869.713	-8.1
870.002	-39.68
870.292	-20.08
870.582	0.31
870.871	-10.81
871.161	-12.51
871.45	17.97
871.739	-53.9
872.029	-43.74
872.318	1.47
872.607	13.39
872.896	7.01
873.185	19.94
873.474	-13.56
873.763	2.57
874.052	-10.63
874.341	-147.82
874.63	14.67
874.918	-0.7
875.207	-14.97
875.496	9.01
875.784	-8.01
876.073	0.85
876.361	-17.47
876.649	12.95
876.938	-8.93
877.226	2.16
877.514	-23.95
877.802	-29.62
878.09	-28.99
878.378	6.28
878.666	-69.43
878.954	5.24
879.242	3.94
879.53	-5.53
879.817	-3.42
880.105	-4.27
880.392	-20
880.68	-6.8
880.967	23.81
881.255	-1.5
881.542	15.05
881.83	-13.86
882.117	-23.58
882.404	-2.56
882.691	-23.33
882.978	1.55
883.265	6.02
883.552	-4.24
883.839	1.9
884.126	-4.36
884.413	8.46
884.699	5.04
884.986	4.99
885.273	2.94
885.559	2.94
885.846	2.94
