Data from 0071_crown_Reflection__4__323.txt Node

Date: Fri Dec 16 16:39:57 CST 2022
User: ToomeyLab
Spectrometer: FLMS14357
Trigger mode: 0
Integration Time (sec): 1.000000E-2
Scans to average: 100
Electric dark correction enabled: true
Nonlinearity correction enabled: false
Boxcar width: 0
XAxis mode: Wavelengths
Number of Pixels in Spectrum: 2048
>>>>>Begin Spectral Data<<<<<
189.047	6442.86
189.435	6442.86
189.823	6442.86
190.211	60.7
190.599	224.55
190.987	-14.3
191.375	84.75
191.763	1598.8
192.151	295.59
192.538	30.28
192.926	-25.56
193.314	89.52
193.702	-2390.32
194.089	-173.34
194.477	-1190.78
194.864	-61.11
195.252	-165.04
195.639	270.09
196.027	-325.81
196.414	546.38
196.801	76.94
197.189	105.16
197.576	-0.06
197.963	79.77
198.351	-50.83
198.738	-69
199.125	26.82
199.512	-35.22
199.899	-114.7
200.286	-51.92
200.673	7.17
201.06	29.74
201.447	36.99
201.833	-43.48
202.22	17.7
202.607	-68.1
202.994	-16.86
203.38	-30.85
203.767	-12.46
204.154	-74.66
204.54	15.3
204.927	-17.21
205.313	-1.09
205.699	-39.36
206.086	-56.46
206.472	-13.51
206.858	-9.19
207.245	5.52
207.631	-34.14
208.017	18.39
208.403	9.11
208.789	-10.86
209.175	35.64
209.561	-69.94
209.947	-37.83
210.333	-27.86
210.719	-37.16
211.105	-37.33
211.491	-6.88
211.876	-64.49
212.262	-73.63
212.648	-85.24
213.034	-12.74
213.419	19.73
213.805	2.94
214.19	-13.57
214.576	-73.04
214.961	-37.2
215.346	-39.72
215.732	-55.38
216.117	-54.45
216.502	-39.5
216.888	-12.87
217.273	-9.72
217.658	-57.52
218.043	-37.87
218.428	-1.19
218.813	-42.02
219.198	-42.92
219.583	-22.01
219.968	-34.73
220.353	-13.42
220.738	-42.92
221.122	-15.17
221.507	-16.64
221.892	7.92
222.276	-12.7
222.661	-22.47
223.046	3.53
223.43	-11.57
223.815	9.06
224.199	-8.85
224.583	0.83
224.968	2.89
225.352	-22.37
225.736	1.24
226.121	0.29
226.505	-0.8
226.889	9.06
227.273	-2.01
227.657	-0
228.041	3.13
228.425	4.56
228.809	-0.15
229.193	-0
229.577	2.11
229.961	1.62
230.344	2.11
230.728	1.64
231.112	1.67
231.495	1.05
231.879	1.15
232.263	0.2
232.646	0.21
233.03	0.44
233.413	2.62
233.797	1.98
234.18	-0.21
234.563	1.31
234.946	1.46
235.33	1.03
235.713	0.55
236.096	0.03
236.479	1.76
236.862	-0.02
237.245	-0.13
237.628	1.07
238.011	0.12
238.394	3
238.777	2.35
239.16	-0.37
239.543	0.34
239.925	2.45
240.308	2.85
240.691	1.44
241.073	2.26
241.456	1.7
241.838	1.28
242.221	1.71
242.603	2.06
242.986	3.28
243.368	2.54
243.75	1.9
244.133	2.28
244.515	2.27
244.897	2.17
245.279	1.58
245.661	1.64
246.043	1.94
246.425	1.46
246.807	1.81
247.189	1.93
247.571	1.86
247.953	2.29
248.335	2.39
248.717	2.21
249.098	2.37
249.48	1.93
249.862	2.26
250.243	2.25
250.625	1.71
251.006	1.68
251.388	1.52
251.769	1.05
252.151	1.11
252.532	1.81
252.913	2.04
253.295	2.07
253.676	2.73
254.057	2.21
254.438	2.46
254.819	1.52
255.2	1.99
255.581	1.07
255.962	1.87
256.343	2.56
256.724	1.44
257.105	1.88
257.486	1.06
257.867	-0.37
258.247	2.35
258.628	2.63
259.009	1.64
259.389	2.74
259.77	1.85
260.15	2.43
260.531	2.04
260.911	2.14
261.292	2.22
261.672	2.1
262.052	2.11
262.432	2.05
262.813	1.7
263.193	1.89
263.573	2.07
263.953	1.71
264.333	1.64
264.713	1.52
265.093	1.52
265.473	2.7
265.853	1.26
266.233	1.46
266.612	1.84
266.992	1.59
267.372	1.39
267.752	1.57
268.131	2
268.511	2.33
268.89	2.45
269.27	2.64
269.649	2.74
270.029	1.92
270.408	1.72
270.787	1.83
271.167	2.35
271.546	1.31
271.925	1.99
272.304	2.45
272.683	1.82
273.062	2.01
273.441	2.33
273.82	2.28
274.199	2.11
274.578	1.55
274.957	2.1
275.336	2.45
275.715	2.17
276.093	2.7
276.472	2.13
276.851	1.68
277.229	2.24
277.608	2.29
277.986	1.96
278.365	1.81
278.743	2
279.122	1.35
279.5	1.74
279.878	1.42
280.257	1.98
280.635	1.25
281.013	2.75
281.391	1.8
281.769	2
282.147	2.34
282.525	2.08
282.903	2.2
283.281	2.25
283.659	1.87
284.037	1.78
284.415	1.81
284.792	1.99
285.17	1.53
285.548	2.02
285.925	2.01
286.303	1.89
286.68	2.47
287.058	2.1
287.435	1.87
287.813	2.2
288.19	2.35
288.567	1.81
288.945	2.18
289.322	1.66
289.699	1.9
290.076	2.23
290.453	1.94
290.83	2.03
291.207	1.9
291.584	1.68
291.961	1.86
292.338	1.69
292.715	2.11
293.092	1.8
293.469	2.21
293.845	1.89
294.222	1.98
294.599	2.26
294.975	1.92
295.352	1.46
295.728	1.64
296.105	1.7
296.481	2.38
296.858	2.03
297.234	1.68
297.61	2.27
297.986	2.08
298.363	1.74
298.739	2.07
299.115	1.79
299.491	2.14
299.867	1.94
300.243	1.91
300.619	1.84
300.995	2.28
301.371	2.27
301.746	2.05
302.122	2.29
302.498	2.25
302.874	2.07
303.249	2.22
303.625	2.39
304	1.36
304.376	1.8
304.751	2
305.127	1.58
305.502	2.24
305.878	2.04
306.253	1.9
306.628	2.06
307.003	2.13
307.378	1.57
307.754	2.42
308.129	1.54
308.504	1.92
308.879	2.32
309.254	1.96
309.629	1.47
310.003	2.76
310.378	2.18
310.753	2.14
311.128	1.91
311.502	1.65
311.877	2
312.252	2.19
312.626	1.71
313.001	1.94
313.375	2.23
313.75	1.78
314.124	2.58
314.498	1.98
314.873	2.04
315.247	1.58
315.621	2.11
315.995	2.02
316.369	1.59
316.743	2.02
317.117	1.95
317.491	1.99
317.865	1.31
318.239	2.39
318.613	2.31
318.987	2.12
319.361	2.56
319.734	2.59
320.108	1.61
320.482	1.75
320.855	2.14
321.229	2.99
321.602	1.95
321.976	1.84
322.349	1.73
322.723	1.96
323.096	1.91
323.469	1.92
323.843	2.04
324.216	1.39
324.589	1.92
324.962	2.21
325.335	1.96
325.708	2.55
326.081	2.61
326.454	2.45
326.827	2.34
327.2	2.43
327.573	2.71
327.945	2.36
328.318	2.46
328.691	2.17
329.063	2.29
329.436	2.08
329.809	1.91
330.181	1.76
330.553	2.22
330.926	2.14
331.298	2.01
331.671	2.05
332.043	2.42
332.415	2.52
332.787	3.09
333.159	2.03
333.532	2.21
333.904	2.41
334.276	2.09
334.648	2.47
335.02	2.25
335.391	1.93
335.763	1.95
336.135	1.89
336.507	2.36
336.879	1.68
337.25	2.45
337.622	2.42
337.993	2.17
338.365	2
338.736	2.63
339.108	1.91
339.479	2.03
339.851	2.59
340.222	2.42
340.593	2.07
340.964	2.19
341.336	1.73
341.707	2.01
342.078	2.11
342.449	2.51
342.82	2.77
343.191	1.9
343.562	2.12
343.933	2.14
344.303	2.41
344.674	1.98
345.045	2.44
345.416	2.25
345.786	2.19
346.157	1.95
346.527	2.4
346.898	2.1
347.268	2.25
347.639	2.5
348.009	2.55
348.38	2.47
348.75	2.37
349.12	2.3
349.49	2.5
349.861	2.82
350.231	2.61
350.601	1.98
350.971	2.41
351.341	2.24
351.711	2.1
352.081	2.72
352.45	2.38
352.82	2.58
353.19	2.28
353.56	2.38
353.929	2.42
354.299	2.43
354.669	2.49
355.038	2.67
355.408	3
355.777	2.24
356.147	2.64
356.516	2.83
356.885	2.15
357.254	2.75
357.624	2.46
357.993	2.29
358.362	2.5
358.731	2.46
359.1	2.66
359.469	2.48
359.838	2
360.207	2.32
360.576	2.43
360.945	2.4
361.314	2.45
361.682	2.2
362.051	2.22
362.42	2.86
362.788	2.74
363.157	2.43
363.525	2.35
363.894	2.4
364.262	2.27
364.631	3.04
364.999	2.21
365.367	2.56
365.735	2.31
366.104	2.41
366.472	2.94
366.84	2.49
367.208	1.97
367.576	2.68
367.944	3.13
368.312	1.91
368.68	2.53
369.048	2.75
369.416	2.31
369.783	2.58
370.151	2.49
370.519	2.19
370.886	2.72
371.254	2.41
371.621	2.13
371.989	2.49
372.356	2.43
372.724	2.67
373.091	2.44
373.458	2.24
373.826	2.26
374.193	2.84
374.56	2.43
374.927	2.46
375.294	2.82
375.661	2.62
376.028	2.56
376.395	2.62
376.762	2.93
377.129	2.8
377.496	2.81
377.863	2.71
378.229	2.4
378.596	2.49
378.963	2.31
379.329	2.6
379.696	2.29
380.062	2.68
380.429	2.64
380.795	2.2
381.161	2.53
381.528	2
381.894	2.91
382.26	2.39
382.626	2.64
382.993	2.46
383.359	2.69
383.725	2.99
384.091	2.47
384.457	2.5
384.823	2.55
385.188	2.68
385.554	2.56
385.92	2.87
386.286	2.79
386.651	2.6
387.017	2.52
387.383	2.63
387.748	2.43
388.114	2.81
388.479	2.95
388.845	2.97
389.21	2.68
389.575	2.89
389.94	2.62
390.306	2.48
390.671	2.52
391.036	2.9
391.401	3.14
391.766	2.83
392.131	2.33
392.496	2.47
392.861	2.59
393.226	2.68
393.591	2.96
393.956	2.65
394.32	2.58
394.685	2.88
395.05	2.49
395.414	2.74
395.779	2.54
396.143	2.7
396.508	2.99
396.872	2.71
397.236	2.54
397.601	2.72
397.965	2.39
398.329	2.76
398.694	2.61
399.058	2.74
399.422	2.66
399.786	2.72
400.15	2.72
400.514	2.59
400.878	2.57
401.242	2.89
401.605	2.63
401.969	2.67
402.333	2.59
402.697	2.74
403.06	2.74
403.424	2.94
403.787	2.89
404.151	2.53
404.514	2.99
404.878	2.71
405.241	3.06
405.604	2.66
405.968	2.97
406.331	2.91
406.694	2.83
407.057	3.02
407.42	2.69
407.783	2.62
408.146	2.81
408.509	2.8
408.872	2.59
409.235	2.89
409.598	3
409.961	2.82
410.323	2.45
410.686	2.51
411.049	2.61
411.411	2.75
411.774	2.68
412.136	2.95
412.499	2.61
412.861	2.58
413.223	2.81
413.586	2.63
413.948	2.86
414.31	2.87
414.672	2.78
415.035	2.88
415.397	2.91
415.759	2.9
416.121	2.88
416.483	2.96
416.845	2.95
417.206	2.92
417.568	2.76
417.93	2.76
418.292	2.86
418.653	2.86
419.015	2.94
419.377	2.8
419.738	2.78
420.1	2.75
420.461	2.62
420.822	2.86
421.184	2.82
421.545	2.73
421.906	2.89
422.267	2.65
422.629	2.81
422.99	2.76
423.351	2.76
423.712	2.81
424.073	2.91
424.434	2.83
424.795	2.76
425.155	2.74
425.516	2.72
425.877	2.88
426.238	2.72
426.598	2.79
426.959	2.67
427.32	2.86
427.68	3.01
428.041	2.93
428.401	2.81
428.761	2.72
429.122	2.78
429.482	2.79
429.842	2.97
430.202	2.83
430.563	2.9
430.923	2.87
431.283	2.91
431.643	3.02
432.003	2.95
432.363	3.06
432.722	2.83
433.082	2.78
433.442	2.83
433.802	2.91
434.161	2.9
434.521	2.92
434.881	2.93
435.24	2.77
435.6	2.99
435.959	2.73
436.319	2.93
436.678	2.93
437.037	2.89
437.396	2.94
437.756	2.88
438.115	2.98
438.474	3
438.833	2.96
439.192	3.03
439.551	2.94
439.91	2.97
440.269	2.93
440.628	2.91
440.987	2.78
441.345	2.85
441.704	2.86
442.063	2.82
442.421	2.96
442.78	2.89
443.138	2.83
443.497	2.8
443.855	2.91
444.214	3.07
444.572	2.81
444.93	2.95
445.288	2.98
445.647	3.1
446.005	2.9
446.363	2.94
446.721	2.76
447.079	2.85
447.437	2.84
447.795	2.92
448.153	2.91
448.51	2.85
448.868	2.95
449.226	2.9
449.584	2.94
449.941	3
450.299	2.95
450.656	3.06
451.014	2.98
451.371	3.13
451.729	2.99
452.086	2.7
452.443	2.86
452.801	2.98
453.158	2.99
453.515	2.83
453.872	2.94
454.229	2.9
454.586	2.8
454.943	2.87
455.3	3.01
455.657	2.9
456.014	2.9
456.371	3.03
456.727	2.82
457.084	2.86
457.441	2.92
457.797	3.08
458.154	2.95
458.51	3.01
458.867	2.96
459.223	2.9
459.58	2.88
459.936	2.86
460.292	3.04
460.648	2.77
461.005	2.85
461.361	2.86
461.717	2.93
462.073	2.97
462.429	2.98
462.785	2.99
463.141	3.04
463.496	2.94
463.852	3.09
464.208	2.99
464.564	2.8
464.919	2.9
465.275	2.96
465.631	2.94
465.986	2.93
466.342	3
466.697	2.83
467.052	2.85
467.408	2.96
467.763	2.79
468.118	3.02
468.473	3.08
468.829	2.93
469.184	2.97
469.539	2.89
469.894	2.97
470.249	2.99
470.603	3.11
470.958	3.17
471.313	2.85
471.668	3.02
472.023	3.07
472.377	3.05
472.732	2.95
473.086	2.94
473.441	3
473.795	3.06
474.15	3.02
474.504	2.95
474.859	3.13
475.213	2.89
475.567	2.9
475.921	3.05
476.275	3.13
476.63	3.14
476.984	2.88
477.338	3.2
477.692	2.97
478.045	3.06
478.399	2.98
478.753	2.84
479.107	3.01
479.461	2.92
479.814	2.95
480.168	3.04
480.521	3
480.875	3.21
481.228	3.04
481.582	2.87
481.935	2.95
482.289	2.92
482.642	2.98
482.995	2.97
483.348	2.93
483.701	2.94
484.055	2.84
484.408	2.93
484.761	2.81
485.114	2.73
485.466	2.75
485.819	2.81
486.172	2.86
486.525	2.94
486.878	2.92
487.23	2.97
487.583	2.91
487.936	2.94
488.288	2.91
488.641	2.86
488.993	2.81
489.345	2.88
489.698	2.91
490.05	2.9
490.402	2.97
490.754	2.98
491.107	3
491.459	3
491.811	3.08
492.163	3.11
492.515	2.99
492.866	2.76
493.218	2.86
493.57	2.94
493.922	2.99
494.274	2.99
494.625	2.94
494.977	3
495.328	3.05
495.68	3.1
496.031	3.14
496.383	3.05
496.734	3.18
497.086	2.98
497.437	3.15
497.788	2.91
498.139	3.03
498.49	3.04
498.842	2.97
499.193	3.08
499.544	3.09
499.894	3.12
500.245	3.03
500.596	3.01
500.947	3.02
501.298	3.01
501.648	3.06
501.999	3.19
502.35	3.12
502.7	3.09
503.051	3.15
503.401	3.12
503.752	2.98
504.102	3.13
504.452	2.87
504.803	2.97
505.153	3.12
505.503	3.05
505.853	2.99
506.203	3.01
506.553	3.09
506.903	2.95
507.253	3.05
507.603	3.1
507.953	3.36
508.303	3.12
508.652	3.11
509.002	3.07
509.352	3.07
509.701	3.08
510.051	3.1
510.4	3.09
510.75	3.01
511.099	2.92
511.449	3.05
511.798	3.05
512.147	3.04
512.496	3.21
512.846	2.99
513.195	3.07
513.544	3.06
513.893	2.91
514.242	3.06
514.591	3.22
514.939	3.04
515.288	3.07
515.637	3.04
515.986	3.04
516.334	3.12
516.683	3.04
517.032	2.95
517.38	3.01
517.729	3.13
518.077	3.19
518.426	3.07
518.774	3.08
519.122	3.05
519.47	3.07
519.819	3.07
520.167	3.02
520.515	3.03
520.863	3
521.211	3.05
521.559	3.05
521.907	2.99
522.255	3.12
522.602	3.16
522.95	3.13
523.298	3.1
523.645	2.97
523.993	3.14
524.341	3.08
524.688	3.06
525.036	3.18
525.383	3.14
525.73	3.17
526.078	3.17
526.425	3.07
526.772	2.94
527.119	2.99
527.466	3.01
527.814	3.02
528.161	3.07
528.508	3.03
528.854	2.97
529.201	2.95
529.548	2.91
529.895	2.87
530.242	2.86
530.588	2.96
530.935	3.04
531.282	3.08
531.628	3.06
531.975	3.04
532.321	3.02
532.667	3.06
533.014	3.06
533.36	3
533.706	2.97
534.052	3
534.399	2.89
534.745	2.96
535.091	2.96
535.437	3.04
535.783	3.07
536.129	3.04
536.474	3.15
536.82	3.13
537.166	3.12
537.512	3.05
537.857	3.1
538.203	3.02
538.549	3.12
538.894	3.07
539.239	3.07
539.585	3.17
539.93	3.2
540.276	3.09
540.621	3.19
540.966	3.05
541.311	3.04
541.656	3.04
542.001	3.06
542.346	3.02
542.691	2.93
543.036	2.96
543.381	3.02
543.726	3.09
544.071	3.18
544.415	3.1
544.76	3.05
545.105	3.08
545.449	3.05
545.794	3.08
546.138	3.22
546.483	3.12
546.827	3.18
547.171	3.21
547.516	3.21
547.86	3.13
548.204	3.02
548.548	3.27
548.892	3.09
549.236	3.21
549.58	3.21
549.924	3.21
550.268	3.24
550.612	3.24
550.956	3.21
551.3	3.18
551.643	3.22
551.987	3.22
552.33	3.18
552.674	3.26
553.017	3.27
553.361	3.22
553.704	3.03
554.048	3.32
554.391	3.17
554.734	3.08
555.077	3.22
555.42	3.22
555.764	3.18
556.107	3.09
556.45	3.14
556.793	3.46
557.135	3.39
557.478	3.34
557.821	3.3
558.164	3.37
558.507	3
558.849	3.1
559.192	3.24
559.534	3.02
559.877	3.41
560.219	3.31
560.562	3.32
560.904	3.15
561.246	3.28
561.589	3.29
561.931	3.51
562.273	3.02
562.615	3.31
562.957	3.27
563.299	3.39
563.641	3.23
563.983	3.12
564.325	3.11
564.667	3.31
565.008	3.14
565.35	3.46
565.692	3.38
566.033	3.24
566.375	3
566.716	3.38
567.058	3.23
567.399	3.23
567.741	3.37
568.082	3.13
568.423	3.23
568.764	3.23
569.105	3.31
569.447	3.23
569.788	3.29
570.129	3.26
570.47	3.41
570.811	3.34
571.151	3.31
571.492	3.51
571.833	3.36
572.174	3.36
572.514	3.21
572.855	3.36
573.195	3.22
573.536	3.18
573.876	3.25
574.217	3.24
574.557	3.34
574.898	3.15
575.238	3.32
575.578	3.44
575.918	3.1
576.258	3.27
576.598	3.3
576.938	3.35
577.278	3.36
577.618	3.33
577.958	3.29
578.298	3.3
578.638	3.2
578.977	3.58
579.317	3.47
579.657	3.28
579.996	3.24
580.336	3.14
580.675	3.45
581.014	3.31
581.354	3.59
581.693	3.48
582.032	3.31
582.372	3.37
582.711	3.27
583.05	3.45
583.389	3.42
583.728	3.37
584.067	3.5
584.406	3.29
584.745	3.39
585.083	3.88
585.422	3.49
585.761	3.56
586.1	3.52
586.438	3.48
586.777	3.38
587.115	3.48
587.454	3.49
587.792	3.4
588.13	3.59
588.469	3.46
588.807	3.58
589.145	3.35
589.483	3.16
589.821	3.43
590.159	3.45
590.497	3.05
590.835	3.13
591.173	3.61
591.511	3.54
591.849	3.38
592.187	3.32
592.524	3.19
592.862	3.47
593.2	3.36
593.537	3.4
593.875	3.38
594.212	3.38
594.55	3.38
594.887	3.56
595.224	3.33
595.561	3.33
595.899	3.32
596.236	3.33
596.573	3.32
596.91	3.44
597.247	3.5
597.584	3.4
597.921	3.7
598.258	3.36
598.594	3.25
598.931	3.33
599.268	3.41
599.604	3.65
599.941	3.39
600.277	3.55
600.614	3.53
600.95	3.71
601.287	3.4
601.623	3.83
601.959	3.29
602.296	3.61
602.632	3.46
602.968	3.41
603.304	3.48
603.64	3.38
603.976	3.45
604.312	3.66
604.648	3.55
604.984	3.66
605.319	3.41
605.655	3.48
605.991	3.44
606.326	3.29
606.662	3.25
606.998	3.58
607.333	3.49
607.668	3.55
608.004	3.43
608.339	3.43
608.674	3.36
609.01	3.54
609.345	3.55
609.68	3.52
610.015	3.67
610.35	3.56
610.685	3.62
611.02	3.71
611.355	3.8
611.689	3.29
612.024	3.64
612.359	3.66
612.694	3.77
613.028	3.79
613.363	3.5
613.697	3.68
614.032	3.48
614.366	3.23
614.7	3.72
615.035	3.36
615.369	3.72
615.703	3.99
616.037	3.56
616.371	3.6
616.705	3.47
617.039	3.43
617.373	3.64
617.707	3.3
618.041	3.72
618.375	3.54
618.709	3.72
619.042	3.63
619.376	3.41
619.71	3.74
620.043	3.37
620.377	3.43
620.71	3.75
621.043	3.54
621.377	3.52
621.71	3.99
622.043	3.7
622.376	3.28
622.709	3.94
623.043	3.17
623.376	3.21
623.709	3.54
624.041	3.38
624.374	3.45
624.707	3.62
625.04	4.02
625.373	3.56
625.705	3.7
626.038	3.72
626.37	3.87
626.703	3.57
627.035	3.67
627.368	3.63
627.7	3.84
628.032	3.97
628.365	3.47
628.697	3.65
629.029	3.9
629.361	3.58
629.693	3.84
630.025	3.68
630.357	3.6
630.689	3.79
631.021	3.6
631.353	3.9
631.684	3.73
632.016	3.47
632.348	3.81
632.679	3.47
633.011	3.45
633.342	4.1
633.674	3.57
634.005	4.33
634.336	3.87
634.668	3.82
634.999	3.69
635.33	3.53
635.661	3.65
635.992	3.6
636.323	3.44
636.654	3.89
636.985	3.67
637.316	3.62
637.647	3.68
637.977	3.8
638.308	3.4
638.639	3.59
638.969	3.41
639.3	3.84
639.63	3.72
639.961	3.77
640.291	4.11
640.622	3.7
640.952	3.85
641.282	3.38
641.612	3.65
641.943	3.92
642.273	3.8
642.603	3.67
642.933	3.71
643.263	4.13
643.592	3.91
643.922	4.04
644.252	4.13
644.582	3.74
644.911	3.22
645.241	3.44
645.571	3.65
645.9	4.37
646.23	3.57
646.559	4.16
646.888	3.64
647.218	3.82
647.547	4.21
647.876	4.39
648.205	3.59
648.534	4.09
648.863	4.58
649.192	3.48
649.521	3.41
649.85	3.95
650.179	3.53
650.508	3.8
650.837	3.9
651.165	3.78
651.494	3.54
651.822	4.06
652.151	4.19
652.479	4.16
652.808	3.33
653.136	3.73
653.465	3.66
653.793	3.86
654.121	3.98
654.449	3.84
654.777	4.4
655.105	4.46
655.433	4.26
655.761	3.66
656.089	3.94
656.417	3.52
656.745	4.36
657.073	4.1
657.4	3.68
657.728	3.98
658.056	3.44
658.383	3.93
658.711	3.95
659.038	4.06
659.365	3.72
659.693	3.76
660.02	3.57
660.347	4
660.674	3.63
661.001	3.24
661.329	3.93
661.656	3.69
661.982	4.35
662.309	4.11
662.636	3.65
662.963	4.03
663.29	4.15
663.616	4.21
663.943	4.33
664.27	4.23
664.596	3.76
664.923	4.22
665.249	4.09
665.576	3.7
665.902	3.88
666.228	3.77
666.554	3.48
666.881	4.27
667.207	3.92
667.533	4.3
667.859	3.54
668.185	4.06
668.511	3.32
668.837	2.69
669.162	4.13
669.488	3.86
669.814	4.45
670.139	4.37
670.465	4.45
670.791	4.34
671.116	4.42
671.442	4.32
671.767	4.15
672.092	3.67
672.418	4.24
672.743	4.06
673.068	4.04
673.393	4.3
673.718	3.48
674.043	4.32
674.368	4.51
674.693	4.23
675.018	3.67
675.343	4.65
675.667	4.32
675.992	3.5
676.317	4.67
676.641	4.04
676.966	3.91
677.29	4.33
677.615	3.63
677.939	3.94
678.264	4.36
678.588	4.39
678.912	4.58
679.236	4.08
679.56	3.27
679.885	3.82
680.209	3.7
680.532	3.69
680.856	4.58
681.18	3.94
681.504	3.93
681.828	3.66
682.152	4.08
682.475	4.46
682.799	4.52
683.122	4.06
683.446	3.66
683.769	4.48
684.093	4.35
684.416	4.04
684.739	4.79
685.062	4.12
685.386	4.08
685.709	3.56
686.032	3.91
686.355	4.34
686.678	4.44
687.001	2.78
687.324	3.51
687.646	3.79
687.969	4.39
688.292	3.79
688.614	5.06
688.937	4.23
689.26	3.26
689.582	3.8
689.904	4.86
690.227	4.32
690.549	4.46
690.871	4.23
691.194	4.07
691.516	3.85
691.838	4.11
692.16	4.01
692.482	4.69
692.804	3.74
693.126	3.98
693.448	4.1
693.769	4.54
694.091	5.09
694.413	4.53
694.735	4.88
695.056	3.89
695.378	4.5
695.699	5.2
696.021	3.9
696.342	3.55
696.663	4.55
696.984	4.48
697.306	3.89
697.627	3.62
697.948	4.28
698.269	4.36
698.59	4.62
698.911	4.75
699.232	4.9
699.553	4.32
699.873	4.45
700.194	4.31
700.515	4.29
700.835	4.26
701.156	4.48
701.477	3.66
701.797	4.43
702.117	4.44
702.438	5.16
702.758	4.63
703.078	4.02
703.398	4.53
703.719	5.1
704.039	4.7
704.359	3.65
704.679	3.68
704.999	3.67
705.319	4.22
705.638	5.44
705.958	4.44
706.278	3.94
706.597	4.75
706.917	4.54
707.237	4.32
707.556	4.11
707.876	3.83
708.195	4.43
708.514	4.38
708.834	4.63
709.153	4.58
709.472	4.52
709.791	3.77
710.11	3.99
710.429	3.85
710.748	3.84
711.067	4.25
711.386	5.37
711.705	4.43
712.023	4.2
712.342	4.46
712.661	4.99
712.979	6.16
713.298	5.87
713.616	5.03
713.935	4.75
714.253	5.51
714.572	3.61
714.89	3.89
715.208	5.25
715.526	4.45
715.844	4.57
716.162	3.9
716.48	4.82
716.798	4.98
717.116	5.45
717.434	5.63
717.752	4.71
718.069	4.16
718.387	4.83
718.705	4.78
719.022	4.84
719.34	3.86
719.657	4.89
719.975	4.35
720.292	3.07
720.609	4.5
720.927	4.22
721.244	4.2
721.561	3.74
721.878	4.39
722.195	5.06
722.512	4.96
722.829	3.89
723.146	4.34
723.463	3.58
723.779	3.72
724.096	3.45
724.413	4.61
724.729	5.3
725.046	5.04
725.362	2.54
725.679	5.39
725.995	3.9
726.311	4.58
726.628	4.7
726.944	5.06
727.26	3.41
727.576	4.86
727.892	3.92
728.208	5.06
728.524	4.99
728.84	4.92
729.156	5.64
729.472	5.49
729.787	5.55
730.103	5.24
730.419	4.39
730.734	5.21
731.05	5.11
731.365	5.41
731.681	4.6
731.996	3.92
732.311	4.3
732.626	5.06
732.942	5.4
733.257	5.83
733.572	5.14
733.887	5.87
734.202	5.36
734.517	5.12
734.832	4.6
735.146	4.5
735.461	4.19
735.776	5.53
736.091	5.18
736.405	4.85
736.72	4.08
737.034	5
737.349	4.57
737.663	4.6
737.977	4.74
738.292	5.04
738.606	5.56
738.92	6.35
739.234	5.14
739.548	5.05
739.862	4.77
740.176	3.19
740.49	4.75
740.804	5.23
741.117	6.19
741.431	4.46
741.745	4.28
742.058	4.11
742.372	5.12
742.685	3.27
742.999	5.15
743.312	4.18
743.626	3.88
743.939	4.34
744.252	3.42
744.565	4.91
744.878	5.12
745.191	4.89
745.505	4.35
745.817	6.17
746.13	5.64
746.443	4.88
746.756	5.47
747.069	3.94
747.381	4.83
747.694	2.79
748.007	5.19
748.319	6.11
748.632	3.03
748.944	4.88
749.256	7.07
749.569	4.19
749.881	4.01
750.193	5.51
750.505	5.35
750.817	5.26
751.129	4.2
751.441	4.3
751.753	5.96
752.065	4.9
752.377	3.46
752.689	5.72
753	2.5
753.312	5.68
753.624	6.2
753.935	4.04
754.247	6.89
754.558	6.08
754.869	6.5
755.181	4.74
755.492	6.1
755.803	4.4
756.114	4.45
756.425	5.87
756.736	5.79
757.047	7.55
757.358	4.87
757.669	6.82
757.98	5.32
758.291	5.14
758.601	4.46
758.912	5.57
759.223	6.99
759.533	6.31
759.844	4.92
760.154	5.27
760.464	5.48
760.775	5.27
761.085	4.79
761.395	5.21
761.705	5.49
762.016	6.6
762.326	4.45
762.636	6.73
762.945	6.4
763.255	5
763.565	4.39
763.875	6.29
764.185	5.15
764.494	4.67
764.804	5.14
765.113	5.24
765.423	4.98
765.732	6.45
766.042	5.42
766.351	5.59
766.66	6.06
766.97	5.6
767.279	6.03
767.588	7.18
767.897	6.95
768.206	7.21
768.515	5
768.824	5.25
769.133	5.29
769.441	6.92
769.75	5.58
770.059	4.36
770.367	4.52
770.676	4.7
770.984	6.19
771.293	3.98
771.601	4.23
771.91	5.86
772.218	3.93
772.526	4.47
772.834	7.53
773.142	4.22
773.45	1.43
773.758	5.75
774.066	3.68
774.374	3.65
774.682	5.42
774.99	5.48
775.298	5.8
775.605	4
775.913	4.75
776.22	2.25
776.528	2.95
776.835	5.54
777.143	5.63
777.45	4.87
777.757	2.04
778.065	5.35
778.372	2.06
778.679	5.74
778.986	4.71
779.293	0.27
779.6	3.5
779.907	3.72
780.214	4.44
780.52	7.73
780.827	4.11
781.134	4.32
781.44	3.4
781.747	7.42
782.053	5.8
782.36	4.47
782.666	7.41
782.973	4.8
783.279	8.47
783.585	4.56
783.891	4.38
784.197	6.31
784.503	8.11
784.809	8.32
785.115	-2.21
785.421	3.77
785.727	3
786.033	1.76
786.339	11.6
786.644	4.77
786.95	8.29
787.255	6.99
787.561	4.41
787.866	1.35
788.172	5.53
788.477	1.61
788.782	8.89
789.088	6.77
789.393	5.81
789.698	4.02
790.003	7.02
790.308	3.77
790.613	3.53
790.918	5.09
791.223	5.28
791.527	9.39
791.832	5.4
792.137	10.97
792.441	7.36
792.746	5.13
793.05	9.19
793.355	12.2
793.659	5.16
793.963	7.21
794.268	1.22
794.572	11.9
794.876	7.13
795.18	2.46
795.484	2.85
795.788	6.8
796.092	5.8
796.396	2.3
796.7	9.24
797.004	7.7
797.307	6.67
797.611	2.22
797.915	5.24
798.218	7.1
798.522	2.29
798.825	5.16
799.128	5.96
799.432	5.77
799.735	1.79
800.038	1.92
800.341	4.95
800.644	4.28
800.947	6.69
801.25	4.55
801.553	7.86
801.856	5.22
802.159	0.57
802.462	7.14
802.764	1.91
803.067	4.1
803.37	5.87
803.672	4.58
803.975	6.42
804.277	10.23
804.579	6.18
804.882	1.64
805.184	1.33
805.486	3.16
805.788	7.39
806.09	3.41
806.392	8.73
806.694	3.6
806.996	5.69
807.298	1.6
807.6	6.67
807.902	4.34
808.203	8.78
808.505	6.46
808.807	9.2
809.108	5.04
809.409	7.27
809.711	4.61
810.012	5.15
810.313	4
810.615	2.95
810.916	7.06
811.217	5.78
811.518	11.47
811.819	-0.21
812.12	8.18
812.421	6.3
812.722	2.31
813.023	5.38
813.323	14.5
813.624	8.03
813.925	2.47
814.225	7.84
814.526	10.07
814.826	9.56
815.126	6.71
815.427	5.83
815.727	6.33
816.027	4.33
816.327	-10.67
816.627	-1.53
816.927	1.43
817.227	2.9
817.527	7.54
817.827	6.09
818.127	8.74
818.427	-3.46
818.727	8.56
819.026	9.37
819.326	3.94
819.625	4.51
819.925	4.36
820.224	-2.34
820.524	-2.48
820.823	0.23
821.122	0.51
821.421	1.71
821.72	7.48
822.019	6.47
822.318	6.33
822.617	7.7
822.916	6.86
823.215	10.22
823.514	8.71
823.813	7.95
824.111	8.09
824.41	8.04
824.709	9.21
825.007	9.46
825.306	9.29
825.604	8.96
825.902	8.41
826.201	9.34
826.499	8.9
826.797	8.98
827.095	7.28
827.393	8.21
827.691	8.79
827.989	11.33
828.287	8.44
828.585	6.9
828.882	9.13
829.18	8.7
829.478	6.62
829.775	9.39
830.073	7.49
830.37	6.99
830.668	7.27
830.965	7.14
831.263	8.13
831.56	8.98
831.857	9.03
832.154	6.45
832.451	8.98
832.748	7.26
833.045	12.41
833.342	3.23
833.639	5.99
833.936	4.9
834.232	0.66
834.529	8.51
834.826	8.9
835.122	8.96
835.419	5.49
835.715	4.36
836.012	7.53
836.308	11.98
836.604	9.29
836.901	13.36
837.197	8.52
837.493	8.24
837.789	10.15
838.085	6.1
838.381	7.89
838.677	2.86
838.972	1.59
839.268	1.46
839.564	10.59
839.86	-0.14
840.155	7.34
840.451	0.17
840.746	-3.83
841.042	2.27
841.337	-3.84
841.632	5.96
841.928	11.25
842.223	4.67
842.518	3.53
842.813	4.19
843.108	2.08
843.403	6.84
843.698	-0.44
843.993	-3.56
844.287	-4.67
844.582	9.93
844.877	12.88
845.171	12.84
845.466	2.04
845.761	-6.82
846.055	-1.82
846.349	-15.17
846.644	8.97
846.938	6.07
847.232	-10.23
847.526	10.35
847.82	-2.94
848.114	-7.32
848.408	2.12
848.702	10.26
848.996	-1.96
849.29	-2.92
849.584	-3.18
849.877	1.86
850.171	-9.69
850.465	-0.66
850.758	-8.54
851.052	-3.07
851.345	11.93
851.638	14.55
851.932	9.71
852.225	1.81
852.518	5.38
852.811	-12.46
853.104	-6.5
853.397	4.2
853.69	-13.83
853.983	-10.05
854.276	-22.43
854.569	-6.72
854.861	16.51
855.154	0.86
855.447	-17.57
855.739	-9.67
856.032	-25.02
856.324	-15.8
856.616	10.59
856.909	22.62
857.201	12.16
857.493	6.28
857.785	-19.21
858.077	-36.51
858.369	-8.02
858.661	28.06
858.953	-25.87
859.245	-4.03
859.537	24.37
859.829	17.82
860.12	-11.83
860.412	7.02
860.703	7.28
860.995	-33.86
861.286	9.25
861.578	-8.34
861.869	-15.54
862.16	-16.09
862.452	7.15
862.743	17.25
863.034	-17.11
863.325	-19.54
863.616	32.31
863.907	-5.87
864.198	3.05
864.488	-7.47
864.779	-24.42
865.07	9.92
865.36	2.94
865.651	4.47
865.941	25.9
866.232	-25.89
866.522	10.7
866.813	13.3
867.103	-7.69
867.393	-30.59
867.683	7.74
867.973	-19.32
868.263	-19.46
868.553	-12.22
868.843	-44.19
869.133	-28.35
869.423	9.41
869.713	11.11
870.002	-17.54
870.292	-27.64
870.582	-5.86
870.871	10.84
871.161	-56.28
871.45	-2.43
871.739	-62.56
872.029	-18.74
872.318	-41.61
872.607	-5.18
872.896	1.9
873.185	-7.77
873.474	-25.7
873.763	5.28
874.052	-3.91
874.341	-143.39
874.63	-0.8
874.918	4.31
875.207	13.4
875.496	-6.4
875.784	-20.43
876.073	-39.14
876.361	-29.38
876.649	32.47
876.938	5.47
877.226	2.43
877.514	-5.29
877.802	0.65
878.09	-21.42
878.378	23.23
878.666	-14.16
878.954	23.43
879.242	3.59
879.53	-34.74
879.817	12.24
880.105	-17.74
880.392	-32.32
880.68	-27.51
880.967	7.8
881.255	-19.1
881.542	-26.56
881.83	-11.08
882.117	-16.08
882.404	-6.2
882.691	-2.91
882.978	-22.41
883.265	22.56
883.552	-20.58
883.839	9.39
884.126	-1.11
884.413	5.26
884.699	5.73
884.986	3.23
885.273	8.13
885.559	8.13
885.846	8.13
