Data from 0281_forehead_Reflection__2__227.txt Node

Date: Fri Oct 20 22:30:21 CDT 2023
User: ToomeyLab
Spectrometer: FLMS14357
Trigger mode: 0
Integration Time (sec): 1.000000E-2
Scans to average: 100
Electric dark correction enabled: true
Nonlinearity correction enabled: false
Boxcar width: 0
XAxis mode: Wavelengths
Number of Pixels in Spectrum: 2048
>>>>>Begin Spectral Data<<<<<
189.047	612.43
189.435	612.43
189.823	612.43
190.211	-52.25
190.599	189.7
190.987	43.18
191.375	26.41
191.763	1021.71
192.151	-85.18
192.538	58.03
192.926	133.36
193.314	163.83
193.702	110.25
194.089	52.09
194.477	-8.4
194.864	19.05
195.252	63.33
195.639	80.35
196.027	-77.58
196.414	92.66
196.801	-569.79
197.189	-157.53
197.576	20.93
197.963	14.14
198.351	50.8
198.738	29.76
199.125	34.53
199.512	146.07
199.899	48.39
200.286	35.23
200.673	94.94
201.06	115.2
201.447	53.93
201.833	62.24
202.22	74.05
202.607	73.95
202.994	40.34
203.38	45.31
203.767	50.42
204.154	57.26
204.54	64.34
204.927	58.39
205.313	12.48
205.699	68.76
206.086	54.48
206.472	36.88
206.858	53.91
207.245	32.58
207.631	51.98
208.017	37.08
208.403	32.93
208.789	29.98
209.175	28.26
209.561	34.46
209.947	-7.73
210.333	24.87
210.719	63.46
211.105	33.92
211.491	53.95
211.876	27.04
212.262	19.09
212.648	27.64
213.034	46.4
213.419	27.8
213.805	36.21
214.19	25.61
214.576	30.14
214.961	44.75
215.346	39.1
215.732	54.19
216.117	3.06
216.502	27.38
216.888	21.92
217.273	9.66
217.658	32.85
218.043	26.87
218.428	25.9
218.813	34.04
219.198	12.88
219.583	-2.75
219.968	3.39
220.353	21.79
220.738	35.55
221.122	11.42
221.507	12.46
221.892	25.98
222.276	11.39
222.661	41.13
223.046	14.55
223.43	9.45
223.815	17.46
224.199	25.81
224.583	12.94
224.968	18.81
225.352	4.47
225.736	17.41
226.121	12.51
226.505	12.93
226.889	9.33
227.273	11.42
227.657	12.34
228.041	18.14
228.425	5.9
228.809	10.98
229.193	9.89
229.577	11.74
229.961	7.89
230.344	6.21
230.728	5.4
231.112	6.88
231.495	6.23
231.879	5.53
232.263	7.15
232.646	5.5
233.03	5.88
233.413	5.84
233.797	6.66
234.18	5.47
234.563	7.56
234.946	10.23
235.33	7.87
235.713	8.12
236.096	6.35
236.479	7.24
236.862	7.67
237.245	5.66
237.628	5.94
238.011	8.01
238.394	6.26
238.777	8.57
239.16	6.04
239.543	8.89
239.925	7.59
240.308	7.4
240.691	6.52
241.073	7.17
241.456	6.71
241.838	6.54
242.221	8.11
242.603	7.32
242.986	6.63
243.368	6.5
243.75	5.56
244.133	5.21
244.515	5.73
244.897	5.28
245.279	5.76
245.661	4.92
246.043	5.61
246.425	4.78
246.807	6.35
247.189	5.9
247.571	5.21
247.953	5.96
248.335	6.04
248.717	5.02
249.098	4.7
249.48	5.07
249.862	5.41
250.243	5.55
250.625	5.93
251.006	5.81
251.388	5.63
251.769	5.99
252.151	5.29
252.532	6.01
252.913	5.11
253.295	5.11
253.676	5.47
254.057	5.7
254.438	5.17
254.819	5.7
255.2	4.63
255.581	6.06
255.962	6.26
256.343	5.27
256.724	5.45
257.105	5.55
257.486	5.9
257.867	4.84
258.247	6.04
258.628	5.21
259.009	5.76
259.389	5.96
259.77	5.09
260.15	5.44
260.531	5.62
260.911	5.42
261.292	5.21
261.672	5.01
262.052	5.22
262.432	5.14
262.813	5.3
263.193	5.11
263.573	5.16
263.953	5.08
264.333	5.54
264.713	5.76
265.093	5.67
265.473	5.82
265.853	5.08
266.233	5.37
266.612	5.66
266.992	5.61
267.372	5.22
267.752	5.36
268.131	5.42
268.511	5.67
268.89	5.36
269.27	5.31
269.649	4.78
270.029	5.44
270.408	5.67
270.787	5.62
271.167	4.93
271.546	5.09
271.925	5.74
272.304	5.6
272.683	5.41
273.062	5.36
273.441	5.34
273.82	5.43
274.199	5.56
274.578	5.28
274.957	5.35
275.336	5.64
275.715	5.79
276.093	4.99
276.472	5.66
276.851	5.87
277.229	5.22
277.608	5.24
277.986	4.94
278.365	5.89
278.743	4.91
279.122	5.25
279.5	5.23
279.878	4.67
280.257	5.27
280.635	5.72
281.013	5.75
281.391	5.76
281.769	5.01
282.147	4.72
282.525	5.32
282.903	4.75
283.281	5.25
283.659	5.09
284.037	4.99
284.415	4.9
284.792	4.81
285.17	4.79
285.548	4.97
285.925	5.24
286.303	4.84
286.68	5.26
287.058	5.47
287.435	5.4
287.813	4.9
288.19	5.2
288.567	4.83
288.945	5.35
289.322	5.71
289.699	4.99
290.076	5.51
290.453	5.43
290.83	5.27
291.207	6.01
291.584	5.41
291.961	5.34
292.338	5.1
292.715	5.46
293.092	5.62
293.469	5.91
293.845	5.68
294.222	5.19
294.599	5.74
294.975	6.84
295.352	6.6
295.728	6.09
296.105	5.9
296.481	5.99
296.858	5.88
297.234	6.27
297.61	5.46
297.986	5.59
298.363	6.05
298.739	5.84
299.115	5.99
299.491	5.86
299.867	5.76
300.243	6.15
300.619	6.03
300.995	6.26
301.371	6.58
301.746	6.65
302.122	6.18
302.498	5.68
302.874	6.65
303.249	6.02
303.625	6.64
304	7.17
304.376	6.31
304.751	6.22
305.127	6.52
305.502	6.82
305.878	6.73
306.253	7.15
306.628	6.8
307.003	7.31
307.378	6.93
307.754	7.52
308.129	7.44
308.504	6.87
308.879	7.68
309.254	7.79
309.629	7.5
310.003	6.82
310.378	7.56
310.753	7.68
311.128	7.79
311.502	7.58
311.877	7.66
312.252	7.43
312.626	7.81
313.001	7.55
313.375	7.97
313.75	7.79
314.124	7.65
314.498	8
314.873	7.65
315.247	8.29
315.621	8.28
315.995	8.48
316.369	8.29
316.743	8.83
317.117	8.7
317.491	8.1
317.865	9.34
318.239	8.92
318.613	8.67
318.987	9.2
319.361	8.16
319.734	8.93
320.108	9.37
320.482	9.37
320.855	9.19
321.229	9.77
321.602	9.77
321.976	9.54
322.349	10
322.723	9.55
323.096	9.55
323.469	10.32
323.843	10.05
324.216	10.21
324.589	9.78
324.962	10.63
325.335	10.18
325.708	10.15
326.081	10.17
326.454	10.22
326.827	10.57
327.2	11.06
327.573	9.99
327.945	10.31
328.318	10.25
328.691	10.47
329.063	11.21
329.436	11.05
329.809	11.18
330.181	11.64
330.553	11.34
330.926	11.24
331.298	10.64
331.671	10.68
332.043	11.22
332.415	11.13
332.787	11.61
333.159	11.35
333.532	11.63
333.904	11.68
334.276	11.15
334.648	11.62
335.02	12.11
335.391	11.84
335.763	11.81
336.135	12.01
336.507	12.24
336.879	11.63
337.25	12.1
337.622	12.44
337.993	12.72
338.365	12.21
338.736	12.39
339.108	12.89
339.479	12.6
339.851	12.57
340.222	12.32
340.593	12.12
340.964	12.52
341.336	13.17
341.707	12.98
342.078	12.73
342.449	13.16
342.82	12.65
343.191	13.03
343.562	13.11
343.933	12.77
344.303	13.55
344.674	13.67
345.045	13.16
345.416	14.23
345.786	13.54
346.157	13.72
346.527	13.61
346.898	13.71
347.268	14.02
347.639	14.41
348.009	14.07
348.38	13.99
348.75	14.12
349.12	14.09
349.49	14.48
349.861	14.41
350.231	14.09
350.601	14.27
350.971	14.93
351.341	15.33
351.711	15.25
352.081	14.56
352.45	14.83
352.82	14.81
353.19	15.21
353.56	15.46
353.929	14.57
354.299	14.84
354.669	15.08
355.038	15.6
355.408	15.68
355.777	15.53
356.147	15.35
356.516	15.35
356.885	15.77
357.254	15.48
357.624	15.83
357.993	16.07
358.362	15.71
358.731	15.95
359.1	15.98
359.469	16.22
359.838	16.2
360.207	16.04
360.576	16.56
360.945	16.49
361.314	16.36
361.682	16.93
362.051	16.42
362.42	16.77
362.788	16.91
363.157	16.84
363.525	16.78
363.894	16.57
364.262	16.84
364.631	17.1
364.999	17.09
365.367	17.49
365.735	17.1
366.104	17.07
366.472	17.43
366.84	17.6
367.208	17.82
367.576	17.51
367.944	17.68
368.312	17.62
368.68	18.02
369.048	18.15
369.416	18.19
369.783	18.04
370.151	18.13
370.519	18.37
370.886	18.34
371.254	18.75
371.621	19.12
371.989	18.61
372.356	18.87
372.724	19.1
373.091	18.96
373.458	18.66
373.826	18.99
374.193	18.86
374.56	19.09
374.927	19.23
375.294	19.22
375.661	19.36
376.028	19.65
376.395	19.38
376.762	19.27
377.129	19.74
377.496	20.22
377.863	20.03
378.229	20.39
378.596	20.15
378.963	20.3
379.329	20.4
379.696	20.15
380.062	20.7
380.429	20.23
380.795	20.6
381.161	20.42
381.528	20.98
381.894	20.39
382.26	21.26
382.626	21.1
382.993	20.88
383.359	20.91
383.725	21.16
384.091	21.22
384.457	21.21
384.823	21.45
385.188	21.73
385.554	21.66
385.92	21.48
386.286	21.77
386.651	21.88
387.017	21.99
387.383	21.92
387.748	21.77
388.114	21.85
388.479	22.05
388.845	22.45
389.21	22.32
389.575	22.19
389.94	22.57
390.306	22.19
390.671	22.71
391.036	22.52
391.401	23.12
391.766	23.02
392.131	22.93
392.496	23.03
392.861	23.19
393.226	23.35
393.591	23.08
393.956	23.24
394.32	23.54
394.685	23.29
395.05	23.92
395.414	24.12
395.779	23.48
396.143	23.66
396.508	23.69
396.872	23.92
397.236	24.01
397.601	24.1
397.965	24.16
398.329	24.31
398.694	24.42
399.058	24.25
399.422	24.75
399.786	24.5
400.15	24.5
400.514	24.57
400.878	24.81
401.242	25.35
401.605	25.04
401.969	24.9
402.333	25.23
402.697	25.37
403.06	25.37
403.424	25.39
403.787	25.49
404.151	25.5
404.514	25.61
404.878	25.85
405.241	25.99
405.604	25.89
405.968	26.08
406.331	26.08
406.694	25.81
407.057	26.13
407.42	26.65
407.783	26.39
408.146	26.6
408.509	26.4
408.872	26.61
409.235	26.76
409.598	26.94
409.961	26.93
410.323	26.88
410.686	26.92
411.049	26.95
411.411	27.21
411.774	27.39
412.136	26.99
412.499	27.47
412.861	27.31
413.223	27.63
413.586	27.52
413.948	27.42
414.31	27.73
414.672	28.04
415.035	28.02
415.397	28.14
415.759	28.05
416.121	28.03
416.483	28.55
416.845	28.25
417.206	28.4
417.568	28.35
417.93	28.54
418.292	28.37
418.653	28.44
419.015	28.56
419.377	28.66
419.738	28.47
420.1	28.39
420.461	28.51
420.822	28.69
421.184	28.52
421.545	28.84
421.906	28.67
422.267	28.75
422.629	28.8
422.99	28.87
423.351	28.87
423.712	28.89
424.073	28.96
424.434	29.09
424.795	29.26
425.155	29.35
425.516	29.46
425.877	29.46
426.238	29.4
426.598	29.47
426.959	29.71
427.32	29.57
427.68	29.85
428.041	30.26
428.401	30.2
428.761	30.47
429.122	30.72
429.482	30.58
429.842	30.74
430.202	31.01
430.563	31.18
430.923	31.15
431.283	31.25
431.643	31.31
432.003	31.56
432.363	31.24
432.722	31.54
433.082	31.54
433.442	31.58
433.802	31.61
434.161	31.62
434.521	31.77
434.881	31.79
435.24	31.76
435.6	31.97
435.959	31.78
436.319	31.86
436.678	31.98
437.037	32.01
437.396	32.2
437.756	32.44
438.115	32.39
438.474	32.69
438.833	32.66
439.192	32.38
439.551	32.77
439.91	32.77
440.269	32.75
440.628	32.94
440.987	32.99
441.345	32.76
441.704	32.9
442.063	32.93
442.421	32.94
442.78	33.05
443.138	32.99
443.497	33.11
443.855	33.21
444.214	33.42
444.572	33.65
444.93	33.71
445.288	33.77
445.647	33.99
446.005	33.89
446.363	33.97
446.721	33.91
447.079	33.84
447.437	33.93
447.795	33.83
448.153	33.58
448.51	33.75
448.868	33.79
449.226	33.85
449.584	33.84
449.941	34.15
450.299	34.15
450.656	34.46
451.014	34.87
451.371	34.85
451.729	34.96
452.086	35.17
452.443	35.26
452.801	35.35
453.158	35.29
453.515	35.52
453.872	35.6
454.229	35.61
454.586	35.49
454.943	35.58
455.3	35.61
455.657	35.79
456.014	35.55
456.371	35.97
456.727	35.99
457.084	35.82
457.441	36.21
457.797	36.3
458.154	36.16
458.51	36.27
458.867	36.21
459.223	36.69
459.58	36.63
459.936	36.64
460.292	36.63
460.648	36.73
461.005	36.49
461.361	36.55
461.717	36.29
462.073	36.28
462.429	36.46
462.785	36.26
463.141	36.82
463.496	37.01
463.852	37.31
464.208	37.29
464.564	37.56
464.919	37.37
465.275	37.61
465.631	37.74
465.986	37.91
466.342	38.2
466.697	37.93
467.052	37.86
467.408	38.02
467.763	38.27
468.118	38.15
468.473	38.2
468.829	38.23
469.184	38.31
469.539	38.51
469.894	38.35
470.249	38.33
470.603	38.53
470.958	38.69
471.313	38.72
471.668	39
472.023	38.61
472.377	38.94
472.732	39.1
473.086	39.22
473.441	39.29
473.795	39.43
474.15	39.22
474.504	39.45
474.859	39.41
475.213	39.71
475.567	39.49
475.921	39.52
476.275	39.74
476.63	39.85
476.984	39.8
477.338	39.9
477.692	39.92
478.045	40.14
478.399	40.15
478.753	40.04
479.107	39.97
479.461	40.06
479.814	40.35
480.168	40.36
480.521	40.4
480.875	40.58
481.228	40.43
481.582	40.56
481.935	40.61
482.289	40.8
482.642	40.8
482.995	40.73
483.348	40.65
483.701	40.45
484.055	40.65
484.408	40.3
484.761	40.29
485.114	40.15
485.466	39.82
485.819	39.86
486.172	39.81
486.525	39.87
486.878	39.96
487.23	39.94
487.583	40.21
487.936	40.43
488.288	40.57
488.641	40.65
488.993	40.65
489.345	40.55
489.698	40.36
490.05	40.5
490.402	40.53
490.754	40.6
491.107	40.78
491.459	41.13
491.811	41.48
492.163	41.7
492.515	41.81
492.866	41.72
493.218	41.42
493.57	41.36
493.922	41.26
494.274	41.26
494.625	41.27
494.977	41.55
495.328	42.05
495.68	42.14
496.031	42.41
496.383	42.74
496.734	42.94
497.086	43
497.437	43.2
497.788	43.19
498.139	43.2
498.49	42.99
498.842	43.01
499.193	42.89
499.544	43.08
499.894	43.04
500.245	43.2
500.596	43.32
500.947	43.55
501.298	43.55
501.648	43.69
501.999	44.06
502.35	43.91
502.7	43.96
503.051	44.07
503.401	44.26
503.752	44.25
504.102	44.38
504.452	44.4
504.803	44.51
505.153	44.74
505.503	44.55
505.853	44.63
506.203	44.32
506.553	44.5
506.903	44.69
507.253	44.6
507.603	44.8
507.953	44.9
508.303	44.8
508.652	45
509.002	44.92
509.352	45.12
509.701	45.18
510.051	45
510.4	44.98
510.75	45.05
511.099	45.06
511.449	44.88
511.798	44.99
512.147	45.13
512.496	45.31
512.846	45.29
513.195	45.44
513.544	45.48
513.893	45.3
514.242	45.59
514.591	45.69
514.939	45.53
515.288	45.62
515.637	45.76
515.986	45.91
516.334	45.71
516.683	46.19
517.032	46.42
517.38	46.44
517.729	46.23
518.077	46.43
518.426	46.34
518.774	46.46
519.122	46.35
519.47	46.5
519.819	46.29
520.167	46.16
520.515	45.99
520.863	46.16
521.211	46.02
521.559	46.15
521.907	46.2
522.255	46.26
522.602	46.59
522.95	46.69
523.298	46.83
523.645	47.09
523.993	47.25
524.341	47.05
524.688	47.39
525.036	47.42
525.383	47.06
525.73	47.43
526.078	47.49
526.425	47.55
526.772	47.33
527.119	47.31
527.466	47.02
527.814	47.24
528.161	47.02
528.508	47.09
528.854	47.24
529.201	47.22
529.548	47.19
529.895	47.1
530.242	46.74
530.588	46.85
530.935	46.97
531.282	46.99
531.628	46.75
531.975	46.85
532.321	46.88
532.667	47.29
533.014	47.46
533.36	47.72
533.706	47.78
534.052	47.93
534.399	47.84
534.745	47.83
535.091	47.56
535.437	47.53
535.783	47.63
536.129	47.58
536.474	47.74
536.82	47.95
537.166	48.09
537.512	48.37
537.857	48.75
538.203	48.66
538.549	48.7
538.894	48.51
539.239	48.63
539.585	48.51
539.93	48.73
540.276	48.91
540.621	49.11
540.966	49.36
541.311	49.41
541.656	49.3
542.001	49.33
542.346	49.37
542.691	49.37
543.036	48.86
543.381	48.64
543.726	48.67
544.071	48.56
544.415	48.75
544.76	48.85
545.105	48.99
545.449	49.23
545.794	49.58
546.138	49.45
546.483	49.43
546.827	49.81
547.171	50.04
547.516	50
547.86	50.14
548.204	49.99
548.548	50.28
548.892	50
549.236	50.18
549.58	50.38
549.924	49.9
550.268	50.61
550.612	50.68
550.956	50.79
551.3	50.88
551.643	51.05
551.987	51.25
552.33	51.25
552.674	50.94
553.017	51.4
553.361	51.72
553.704	51.46
554.048	51.58
554.391	51.62
554.734	51.69
555.077	51.42
555.42	51.44
555.764	51.44
556.107	51.63
556.45	51.51
556.793	51.63
557.135	51.89
557.478	52.05
557.821	52.34
558.164	52.23
558.507	52.23
558.849	52.12
559.192	52.08
559.534	52.45
559.877	52.21
560.219	52.48
560.562	52.57
560.904	52.89
561.246	52.5
561.589	52.66
561.931	52.98
562.273	52.74
562.615	52.99
562.957	53.15
563.299	52.66
563.641	52.76
563.983	52.91
564.325	52.92
564.667	53.04
565.008	53.16
565.35	53.31
565.692	53.34
566.033	53.11
566.375	53.07
566.716	53.52
567.058	53.59
567.399	53.36
567.741	53.16
568.082	53.39
568.423	53.03
568.764	53.07
569.105	53.01
569.447	53.43
569.788	53.48
570.129	53.62
570.47	53.52
570.811	53.66
571.151	53.45
571.492	53.91
571.833	53.77
572.174	53.66
572.514	53.78
572.855	53.76
573.195	53.96
573.536	53.98
573.876	53.81
574.217	53.85
574.557	53.68
574.898	53.57
575.238	53.92
575.578	53.92
575.918	54.42
576.258	54.06
576.598	54.45
576.938	54.36
577.278	54.46
577.618	54.33
577.958	54.36
578.298	54.25
578.638	54.45
578.977	54.84
579.317	54.96
579.657	54.9
579.996	54.76
580.336	54.95
580.675	55.03
581.014	55.1
581.354	54.95
581.693	55.14
582.032	55.55
582.372	55.45
582.711	55.55
583.05	55.54
583.389	55.58
583.728	55.65
584.067	55.9
584.406	55.54
584.745	55.65
585.083	55.79
585.422	55.9
585.761	55.73
586.1	55.91
586.438	55.64
586.777	56.03
587.115	56.1
587.454	56.38
587.792	56.06
588.13	56.19
588.469	56.33
588.807	56.4
589.145	56.44
589.483	56.17
589.821	56.24
590.159	56.13
590.497	56.42
590.835	56.41
591.173	56.51
591.511	56.52
591.849	56.41
592.187	56.31
592.524	56.27
592.862	56.5
593.2	56.57
593.537	56.45
593.875	56.96
594.212	56.98
594.55	56.99
594.887	56.73
595.224	56.87
595.561	56.8
595.899	56.53
596.236	56.88
596.573	56.77
596.91	57.03
597.247	57.09
597.584	57.18
597.921	57.04
598.258	57.33
598.594	56.72
598.931	56.88
599.268	56.74
599.604	57.03
599.941	56.65
600.277	56.95
600.614	56.55
600.95	57.01
601.287	57.34
601.623	57.68
601.959	57.76
602.296	57.76
602.632	58.09
602.968	57.99
603.304	57.99
603.64	57.87
603.976	58.17
604.312	57.93
604.648	57.86
604.984	57.86
605.319	57.95
605.655	57.58
605.991	57.81
606.326	57.57
606.662	57.65
606.998	57.71
607.333	57.71
607.668	57.64
608.004	57.83
608.339	57.97
608.674	57.56
609.01	58.41
609.345	58.64
609.68	58.29
610.015	58.79
610.35	58.53
610.685	58.5
611.02	58.7
611.355	58.29
611.689	57.94
612.024	58.6
612.359	58.51
612.694	58.4
613.028	58.83
613.363	58.96
613.697	58.48
614.032	58.84
614.366	59.07
614.7	58.92
615.035	59.21
615.369	59.56
615.703	59.07
616.037	59.59
616.371	59.1
616.705	58.89
617.039	59.12
617.373	59.18
617.707	59.4
618.041	59.74
618.375	59.6
618.709	59.33
619.042	59.67
619.376	59.37
619.71	59.62
620.043	59.64
620.377	59.68
620.71	59.63
621.043	59.49
621.377	59.74
621.71	59.8
622.043	60.27
622.376	59.52
622.709	60.2
623.043	59.72
623.376	59.89
623.709	59.96
624.041	60.03
624.374	60.08
624.707	60.04
625.04	60.36
625.373	60.41
625.705	60.19
626.038	60.46
626.37	60.06
626.703	60.5
627.035	60.5
627.368	60.06
627.7	60.3
628.032	59.94
628.365	61.09
628.697	61.04
629.029	60.16
629.361	60.86
629.693	60.2
630.025	60.71
630.357	60.97
630.689	60.67
631.021	60.35
631.353	60.57
631.684	60.64
632.016	60.95
632.348	61.11
632.679	60.59
633.011	60.9
633.342	60.91
633.674	61.75
634.005	61.1
634.336	61.38
634.668	61.45
634.999	61.21
635.33	60.73
635.661	61.47
635.992	61.39
636.323	61.16
636.654	61.25
636.985	61.28
637.316	61.21
637.647	61.46
637.977	60.61
638.308	61.48
638.639	61.2
638.969	61.66
639.3	61.73
639.63	61.68
639.961	61.66
640.291	61.5
640.622	61.51
640.952	61.81
641.282	61.93
641.612	61.83
641.943	61.79
642.273	61.65
642.603	62.06
642.933	62.23
643.263	62.01
643.592	61.92
643.922	62.5
644.252	61.4
644.582	61.81
644.911	62.58
645.241	62.55
645.571	62.03
645.9	62.28
646.23	62.65
646.559	62.51
646.888	62.65
647.218	62.49
647.547	62.02
647.876	62.17
648.205	62.29
648.534	63.16
648.863	62.78
649.192	62.41
649.521	62.76
649.85	62.02
650.179	62.81
650.508	63.17
650.837	63.16
651.165	62.75
651.494	62.44
651.822	62.33
652.151	63.34
652.479	62.64
652.808	62.72
653.136	62.26
653.465	63.28
653.793	63.56
654.121	63.65
654.449	63.26
654.777	62.21
655.105	63.16
655.433	63.24
655.761	63.3
656.089	63.52
656.417	63.26
656.745	63.47
657.073	63.31
657.4	63.83
657.728	63.55
658.056	63.18
658.383	63.06
658.711	63.85
659.038	63.55
659.365	63.45
659.693	64.09
660.02	63.74
660.347	63.23
660.674	64.12
661.001	63.43
661.329	64.27
661.656	64.17
661.982	63.27
662.309	63.5
662.636	64.05
662.963	63.71
663.29	63.94
663.616	63.82
663.943	63.63
664.27	64.16
664.596	64.22
664.923	63.75
665.249	64.38
665.576	64.13
665.902	64.73
666.228	64.28
666.554	64.1
666.881	63.72
667.207	63.91
667.533	64.01
667.859	64.04
668.185	64.51
668.511	64.7
668.837	63.8
669.162	64.06
669.488	65.11
669.814	63.99
670.139	64.41
670.465	64.45
670.791	64.15
671.116	64.49
671.442	65.28
671.767	63.63
672.092	64.89
672.418	64.35
672.743	64.57
673.068	64.23
673.393	64.05
673.718	65.38
674.043	64.52
674.368	64.53
674.693	64.65
675.018	65.25
675.343	64.48
675.667	64.87
675.992	64.77
676.317	64.68
676.641	65.28
676.966	64.24
677.29	64.24
677.615	64.71
677.939	64.76
678.264	64.86
678.588	65.75
678.912	66.09
679.236	64.72
679.56	65.83
679.885	65.77
680.209	64.86
680.532	65.55
680.856	64.82
681.18	66.02
681.504	64.86
681.828	65.71
682.152	65.72
682.475	65.1
682.799	65.58
683.122	65.84
683.446	65.47
683.769	65.46
684.093	65.61
684.416	65.93
684.739	66.01
685.062	64.61
685.386	65.25
685.709	65.16
686.032	65.84
686.355	65.24
686.678	65.2
687.001	65.47
687.324	65.21
687.646	65.78
687.969	65.66
688.292	64.97
688.614	66.28
688.937	65.74
689.26	65.78
689.582	65.6
689.904	65.13
690.227	66.43
690.549	65.44
690.871	65.97
691.194	65.46
691.516	66.09
691.838	65.36
692.16	65.31
692.482	65.65
692.804	66.88
693.126	65.49
693.448	66.25
693.769	65.99
694.091	66.07
694.413	66.58
694.735	66.06
695.056	66.01
695.378	65.76
695.699	66.35
696.021	66.16
696.342	66.57
696.663	67.12
696.984	66.17
697.306	66.97
697.627	65.86
697.948	66.17
698.269	66.77
698.59	66.48
698.911	66.48
699.232	67.04
699.553	67.08
699.873	67.81
700.194	67.4
700.515	67.19
700.835	66.67
701.156	66.6
701.477	66.74
701.797	66.87
702.117	66.61
702.438	67.15
702.758	66.5
703.078	66.72
703.398	66.73
703.719	66.97
704.039	66.84
704.359	66.74
704.679	67.3
704.999	67.01
705.319	66.83
705.638	66.93
705.958	66.43
706.278	67.29
706.597	67.04
706.917	67.86
707.237	66.16
707.556	66.85
707.876	67.51
708.195	66.98
708.514	68.45
708.834	67.33
709.153	66.89
709.472	67.77
709.791	68.02
710.11	68.41
710.429	67.35
710.748	67.86
711.067	67.31
711.386	66.78
711.705	67.29
712.023	67.53
712.342	69.05
712.661	67.85
712.979	67.35
713.298	68.47
713.616	66.89
713.935	68
714.253	68.33
714.572	67.75
714.89	66.84
715.208	67.94
715.526	68.97
715.844	68.3
716.162	66.41
716.48	67.56
716.798	67.49
717.116	67.6
717.434	67.14
717.752	68.14
718.069	68.06
718.387	66.87
718.705	66.9
719.022	68.08
719.34	67.23
719.657	68.59
719.975	68.11
720.292	69.32
720.609	68.98
720.927	66.91
721.244	68.18
721.561	67.56
721.878	68.03
722.195	68.84
722.512	68.43
722.829	68.1
723.146	66.87
723.463	68.64
723.779	68.6
724.096	68.54
724.413	68.1
724.729	68.6
725.046	67.5
725.362	69.01
725.679	69.54
725.995	68.08
726.311	67.48
726.628	69.07
726.944	69.77
727.26	67.76
727.576	68.37
727.892	68.88
728.208	68.59
728.524	70.06
728.84	69.09
729.156	69.7
729.472	68.94
729.787	68.95
730.103	69.68
730.419	70.21
730.734	69.57
731.05	69.33
731.365	68.78
731.681	66.98
731.996	68.43
732.311	69.82
732.626	68.31
732.942	68.81
733.257	68.02
733.572	70.25
733.887	67.05
734.202	69.89
734.517	69.03
734.832	69.48
735.146	69.31
735.461	67.89
735.776	68.88
736.091	69.74
736.405	69.91
736.72	68.98
737.034	68.47
737.349	70.86
737.663	69.95
737.977	68.61
738.292	71.12
738.606	69.44
738.92	69.37
739.234	69
739.548	69.38
739.862	69.97
740.176	67.98
740.49	69.08
740.804	70.58
741.117	69.21
741.431	68.52
741.745	69.19
742.058	69.41
742.372	71.34
742.685	70.19
742.999	68.48
743.312	69.86
743.626	68.47
743.939	71.56
744.252	68.37
744.565	70.1
744.878	68.37
745.191	69.44
745.505	70.29
745.817	68.45
746.13	68.18
746.443	68.18
746.756	69.86
747.069	70.54
747.381	70.17
747.694	71.73
748.007	69.32
748.319	71.66
748.632	69.04
748.944	70.15
749.256	69.66
749.569	70.05
749.881	71.21
750.193	69.7
750.505	69.78
750.817	70.1
751.129	68.59
751.441	69.99
751.753	69.25
752.065	71.79
752.377	70.33
752.689	70.33
753	69.6
753.312	69.44
753.624	69.25
753.935	71.47
754.247	70.64
754.558	70.92
754.869	70.58
755.181	70.5
755.492	70.89
755.803	70.42
756.114	70.33
756.425	70.17
756.736	70.67
757.047	70.59
757.358	68.13
757.669	70.34
757.98	70.26
758.291	68.2
758.601	70.87
758.912	68.64
759.223	67
759.533	69.63
759.844	71.67
760.154	69.36
760.464	71.13
760.775	69.84
761.085	70.5
761.395	70.35
761.705	72.41
762.016	68.4
762.326	72.05
762.636	71.32
762.945	71.01
763.255	71.57
763.565	70.94
763.875	71.42
764.185	70.44
764.494	71.59
764.804	70.51
765.113	69.75
765.423	71.58
765.732	69.84
766.042	71.82
766.351	70.85
766.66	71.42
766.97	70.36
767.279	70.67
767.588	71.09
767.897	68.59
768.206	69.56
768.515	71.01
768.824	69.21
769.133	69.98
769.441	71.1
769.75	69.39
770.059	73.04
770.367	70.34
770.676	72.53
770.984	71.07
771.293	71.56
771.601	69.78
771.91	69.4
772.218	68.91
772.526	69.16
772.834	69.26
773.142	70.46
773.45	69.36
773.758	71
774.066	67.44
774.374	68.61
774.682	70.08
774.99	69.62
775.298	71.62
775.605	71.12
775.913	69.5
776.22	71.85
776.528	68.24
776.835	70.38
777.143	72.52
777.45	72.73
777.757	69.34
778.065	72.84
778.372	71.5
778.679	73.75
778.986	69.44
779.293	66.62
779.6	72.72
779.907	71.53
780.214	71.6
780.52	71.82
780.827	71.29
781.134	71.53
781.44	71.19
781.747	69.97
782.053	73.23
782.36	67.55
782.666	70.05
782.973	67.84
783.279	73.27
783.585	68.27
783.891	67.72
784.197	73.02
784.503	66.67
784.809	68.79
785.115	74.51
785.421	71.93
785.727	73.66
786.033	70.61
786.339	68.16
786.644	72.8
786.95	74.88
787.255	71.94
787.561	67.01
787.866	72.45
788.172	74.58
788.477	71.11
788.782	73.67
789.088	72.14
789.393	69.93
789.698	74.31
790.003	71
790.308	72.47
790.613	70.7
790.918	74.36
791.223	70.65
791.527	72.98
791.832	74.24
792.137	74.89
792.441	67.85
792.746	74.64
793.05	72.57
793.355	72.76
793.659	74.01
793.963	70.39
794.268	71.21
794.572	67.96
794.876	67.77
795.18	71.28
795.484	72.77
795.788	72.69
796.092	70.18
796.396	65.64
796.7	71.27
797.004	73.8
797.307	76.63
797.611	72.75
797.915	72.07
798.218	70.64
798.522	69.91
798.825	72.63
799.128	74.26
799.432	71.87
799.735	72.91
800.038	70.99
800.341	66.79
800.644	73.13
800.947	75.44
801.25	69.49
801.553	71.01
801.856	74.06
802.159	67.04
802.462	73.28
802.764	73.65
803.067	70.25
803.37	72.18
803.672	71.01
803.975	67.81
804.277	74.53
804.579	73.93
804.882	75.47
805.184	73.02
805.486	66.28
805.788	69.34
806.09	68.58
806.392	69.94
806.694	67.47
806.996	74.28
807.298	69.98
807.6	70.57
807.902	72.76
808.203	69.64
808.505	72.14
808.807	75.98
809.108	75.14
809.409	69.3
809.711	70.32
810.012	73.74
810.313	69.05
810.615	70.96
810.916	75.99
811.217	68.3
811.518	72.21
811.819	70.46
812.12	73.23
812.421	69.93
812.722	72.11
813.023	74.07
813.323	73.3
813.624	65.86
813.925	81.29
814.225	74.05
814.526	75.52
814.826	73.31
815.126	76.26
815.427	75.63
815.727	74.03
816.027	73.07
816.327	74.68
816.627	77.52
816.927	73.63
817.227	69.65
817.527	75.85
817.827	76.16
818.127	72.12
818.427	70.21
818.727	77.08
819.026	66.97
819.326	78.26
819.625	67.96
819.925	71.86
820.224	71.79
820.524	68.69
820.823	70.91
821.122	64.78
821.421	76.47
821.72	77.55
822.019	68.64
822.318	73.9
822.617	75.03
822.916	71.5
823.215	75.57
823.514	77.15
823.813	75.21
824.111	73.2
824.41	75.94
824.709	74.31
825.007	73.89
825.306	74.1
825.604	74.19
825.902	74.27
826.201	72.86
826.499	72.7
826.797	71.28
827.095	72.5
827.393	72.08
827.691	70.49
827.989	72.57
828.287	72.85
828.585	73.85
828.882	70.97
829.18	73.41
829.478	70.19
829.775	72.23
830.073	71.94
830.37	72.32
830.668	73.67
830.965	71.92
831.263	74.03
831.56	73.64
831.857	71.46
832.154	76.19
832.451	67.51
832.748	75.26
833.045	68.53
833.342	69.87
833.639	71.42
833.936	70.46
834.232	75.01
834.529	69
834.826	76.19
835.122	73.57
835.419	70.77
835.715	63.26
836.012	65.91
836.308	70.55
836.604	73.13
836.901	73.73
837.197	74.22
837.493	74.83
837.789	70.73
838.085	70.97
838.381	74.4
838.677	70.68
838.972	73.2
839.268	73.39
839.564	70.75
839.86	70.17
840.155	77.58
840.451	78.86
840.746	69.3
841.042	71.7
841.337	74.47
841.632	67.06
841.928	69.41
842.223	69.81
842.518	72.94
842.813	68.77
843.108	68.31
843.403	80.22
843.698	78.31
843.993	72.76
844.287	72.05
844.582	62.92
844.877	68.46
845.171	78.27
845.466	62.72
845.761	74.13
846.055	76.1
846.349	72.42
846.644	66.77
846.938	74.4
847.232	79.13
847.526	78.62
847.82	84.82
848.114	74.06
848.408	64.57
848.702	89.22
848.996	83.88
849.29	70.88
849.584	80.85
849.877	90.45
850.171	79.19
850.465	82.31
850.758	50.4
851.052	59.16
851.345	66.12
851.638	54.67
851.932	65.63
852.225	75.77
852.518	81.62
852.811	81.93
853.104	72.27
853.397	60.74
853.69	74
853.983	69.06
854.276	66.54
854.569	69.24
854.861	69.41
855.154	86.16
855.447	77.99
855.739	67.04
856.032	65.76
856.324	73.66
856.616	61.88
856.909	66.23
857.201	58.73
857.493	72.63
857.785	73.24
858.077	67.02
858.369	59.67
858.661	49.18
858.953	66.7
859.245	54.67
859.537	73.3
859.829	83.47
860.12	69.69
860.412	71.91
860.703	84.96
860.995	72.63
861.286	77.3
861.578	90.9
861.869	62.52
862.16	112.24
862.452	85.84
862.743	56.57
863.034	81.12
863.325	72.64
863.616	39.81
863.907	83.32
864.198	75.55
864.488	71.67
864.779	54.83
865.07	79.38
865.36	58.37
865.651	79.88
865.941	81.5
866.232	59.28
866.522	65.22
866.813	48.53
867.103	64.33
867.393	63.28
867.683	78.63
867.973	82.45
868.263	86.8
868.553	79.25
868.843	64.41
869.133	77.67
869.423	88.31
869.713	99.09
870.002	69.91
870.292	67.22
870.582	73.29
870.871	94.11
871.161	57.3
871.45	107.4
871.739	53.61
872.029	73.03
872.318	84.91
872.607	120.35
872.896	82.52
873.185	88.01
873.474	94.48
873.763	87.53
874.052	67.26
874.341	66.83
874.63	93.1
874.918	87.79
875.207	70.8
875.496	76.43
875.784	71.47
876.073	82.72
876.361	89.72
876.649	49.11
876.938	68.93
877.226	58.69
877.514	78.4
877.802	68.96
878.09	74.55
878.378	77.32
878.666	53.53
878.954	61.94
879.242	49.68
879.53	80.92
879.817	61.95
880.105	84.41
880.392	78.13
880.68	81.46
880.967	65.36
881.255	81.08
881.542	73.19
881.83	72.93
882.117	77.59
882.404	70.66
882.691	72.64
882.978	76.65
883.265	78.68
883.552	71.84
883.839	60.99
884.126	72.37
884.413	57.74
884.699	65.57
884.986	73.81
885.273	65.16
885.559	65.16
885.846	65.16
