Data from 0281_forehead_Reflection__0__225.txt Node

Date: Fri Oct 20 22:30:00 CDT 2023
User: ToomeyLab
Spectrometer: FLMS14357
Trigger mode: 0
Integration Time (sec): 1.000000E-2
Scans to average: 100
Electric dark correction enabled: true
Nonlinearity correction enabled: false
Boxcar width: 0
XAxis mode: Wavelengths
Number of Pixels in Spectrum: 2048
>>>>>Begin Spectral Data<<<<<
189.047	-43.59
189.435	-43.59
189.823	-43.59
190.211	20.91
190.599	-172.31
190.987	74.63
191.375	54.41
191.763	1201.48
192.151	20.93
192.538	-80.85
192.926	-67.01
193.314	248.07
193.702	79.51
194.089	119.76
194.477	6.13
194.864	-55.69
195.252	108.28
195.639	144.25
196.027	94.24
196.414	159.41
196.801	-318.13
197.189	134.33
197.576	69.24
197.963	142.79
198.351	35.56
198.738	10.97
199.125	48.7
199.512	60.4
199.899	15.41
200.286	-18.13
200.673	49.93
201.06	53.38
201.447	19.59
201.833	38.4
202.22	42.14
202.607	40.82
202.994	22.4
203.38	6.76
203.767	13.7
204.154	29.71
204.54	32.21
204.927	51.53
205.313	4.16
205.699	26.44
206.086	37.75
206.472	24.88
206.858	48.9
207.245	-6.75
207.631	38.41
208.017	39.99
208.403	32.33
208.789	36.35
209.175	21.36
209.561	34.82
209.947	19.42
210.333	13.73
210.719	12.17
211.105	21.08
211.491	15.46
211.876	18.93
212.262	31.56
212.648	12.71
213.034	-4.81
213.419	-1.88
213.805	22.17
214.19	17.22
214.576	0.61
214.961	40.25
215.346	39.65
215.732	13.93
216.117	-10.09
216.502	3.77
216.888	9.55
217.273	13.83
217.658	26.31
218.043	2.28
218.428	12.79
218.813	18.97
219.198	11.83
219.583	1.41
219.968	-20.15
220.353	17.61
220.738	15.93
221.122	2.62
221.507	14.19
221.892	1.88
222.276	20.86
222.661	28.23
223.046	7.46
223.43	-10.38
223.815	13.65
224.199	24.99
224.583	3.56
224.968	5.85
225.352	5.84
225.736	8.47
226.121	10.58
226.505	2.16
226.889	11.88
227.273	7.94
227.657	9.71
228.041	7.88
228.425	5.77
228.809	3.47
229.193	4.33
229.577	5.06
229.961	1.73
230.344	3.13
230.728	3.19
231.112	3.75
231.495	2.49
231.879	3.07
232.263	4.38
232.646	2.99
233.03	3.75
233.413	3.23
233.797	3.69
234.18	3.91
234.563	2.32
234.946	5.94
235.33	3.25
235.713	6.29
236.096	3.87
236.479	3.23
236.862	2.55
237.245	2.14
237.628	2.96
238.011	4.77
238.394	3.03
238.777	5.61
239.16	2.37
239.543	6.57
239.925	5.06
240.308	3.41
240.691	3.33
241.073	4.49
241.456	2.38
241.838	2.3
242.221	4.05
242.603	2.63
242.986	2.95
243.368	4.06
243.75	3.64
244.133	2.73
244.515	2.5
244.897	3.05
245.279	2.87
245.661	2.7
246.043	3.43
246.425	2.62
246.807	3.7
247.189	2.14
247.571	3.01
247.953	2.89
248.335	2.91
248.717	3.04
249.098	2.64
249.48	2.82
249.862	3.13
250.243	3.27
250.625	3.15
251.006	3.41
251.388	3.12
251.769	3.79
252.151	2.33
252.532	2.97
252.913	3.83
253.295	2.58
253.676	3.45
254.057	2.73
254.438	3.1
254.819	3.72
255.2	2.5
255.581	3.34
255.962	3.24
256.343	3.25
256.724	2.91
257.105	3.65
257.486	3.63
257.867	2.38
258.247	3.75
258.628	2.6
259.009	2.69
259.389	2.58
259.77	2.97
260.15	3.27
260.531	3.22
260.911	3.51
261.292	2.87
261.672	3.01
262.052	2.95
262.432	2.85
262.813	2.75
263.193	3.36
263.573	3.29
263.953	3.47
264.333	3.19
264.713	3.4
265.093	3.48
265.473	3.02
265.853	3.51
266.233	3.2
266.612	3.5
266.992	3.39
267.372	3.53
267.752	3.29
268.131	3.03
268.511	3.03
268.89	3.03
269.27	2.74
269.649	2.23
270.029	2.57
270.408	3.48
270.787	3.11
271.167	3.11
271.546	3.57
271.925	3.31
272.304	3.54
272.683	3.39
273.062	3
273.441	3.18
273.82	2.99
274.199	3.26
274.578	3.1
274.957	2.93
275.336	3.28
275.715	3.13
276.093	2.73
276.472	3.5
276.851	3.22
277.229	3.09
277.608	2.7
277.986	2.2
278.365	3.53
278.743	3.19
279.122	3.39
279.5	2.78
279.878	2.34
280.257	2.94
280.635	3.62
281.013	3.58
281.391	3.6
281.769	3
282.147	2.85
282.525	2.99
282.903	3.47
283.281	2.69
283.659	3.16
284.037	3.18
284.415	2.73
284.792	2.9
285.17	2.96
285.548	3.14
285.925	2.76
286.303	2.92
286.68	2.57
287.058	3.72
287.435	3.32
287.813	2.7
288.19	3
288.567	2.93
288.945	3.4
289.322	3.97
289.699	2.67
290.076	3.48
290.453	2.85
290.83	3.07
291.207	3.61
291.584	3.08
291.961	3.05
292.338	2.83
292.715	3.36
293.092	3.37
293.469	3.35
293.845	3.4
294.222	3.11
294.599	3.32
294.975	4.34
295.352	3.27
295.728	3.71
296.105	3.09
296.481	3.3
296.858	3.39
297.234	3.5
297.61	3.03
297.986	3.58
298.363	3.51
298.739	3.65
299.115	3.39
299.491	3.29
299.867	3.58
300.243	3.7
300.619	3.42
300.995	3.37
301.371	3.64
301.746	3.62
302.122	3.96
302.498	3.58
302.874	3.9
303.249	4
303.625	3.87
304	4.01
304.376	3.81
304.751	3.52
305.127	3.33
305.502	4.28
305.878	3.89
306.253	4.1
306.628	4.33
307.003	4.13
307.378	3.99
307.754	4.7
308.129	3.84
308.504	4.65
308.879	4.1
309.254	4.66
309.629	4.34
310.003	4.02
310.378	4.63
310.753	4.67
311.128	4.36
311.502	4.33
311.877	4.12
312.252	4.09
312.626	4.75
313.001	4.3
313.375	4.5
313.75	4.7
314.124	4.39
314.498	4.8
314.873	4.14
315.247	4.86
315.621	4.49
315.995	5.27
316.369	4.51
316.743	4.72
317.117	4.95
317.491	4.29
317.865	5.04
318.239	5.6
318.613	5.53
318.987	5.58
319.361	4.56
319.734	4.98
320.108	4.98
320.482	5.33
320.855	4.92
321.229	6.25
321.602	5.24
321.976	5.26
322.349	5.68
322.723	4.91
323.096	5.34
323.469	5.7
323.843	5.92
324.216	5.97
324.589	5.94
324.962	6.38
325.335	6.14
325.708	5.33
326.081	5.75
326.454	5.49
326.827	6.06
327.2	6.11
327.573	5.92
327.945	5.82
328.318	5.5
328.691	6
329.063	6.04
329.436	6.16
329.809	5.82
330.181	6.22
330.553	6.24
330.926	6.06
331.298	6.06
331.671	6.16
332.043	5.87
332.415	5.88
332.787	6.24
333.159	6.19
333.532	6.32
333.904	6.21
334.276	6.21
334.648	6.04
335.02	7
335.391	6.94
335.763	6.48
336.135	6.55
336.507	6.27
336.879	6.7
337.25	7.02
337.622	6.89
337.993	7.2
338.365	6.67
338.736	7
339.108	7
339.479	6.51
339.851	7.07
340.222	6.85
340.593	6.24
340.964	6.63
341.336	7.36
341.707	6.57
342.078	7.1
342.449	6.89
342.82	6.97
343.191	7.17
343.562	7.51
343.933	6.93
344.303	7.01
344.674	7.34
345.045	7.35
345.416	7.69
345.786	7.01
346.157	7.28
346.527	7.4
346.898	7.2
347.268	7.62
347.639	7.38
348.009	7.4
348.38	7.31
348.75	7.74
349.12	7.36
349.49	7.64
349.861	8.1
350.231	7.51
350.601	7.54
350.971	8.27
351.341	7.7
351.711	8
352.081	7.52
352.45	7.59
352.82	8.04
353.19	7.87
353.56	8.11
353.929	7.99
354.299	7.75
354.669	8.02
355.038	8.22
355.408	8.59
355.777	8.38
356.147	8.04
356.516	8.09
356.885	8.3
357.254	8.59
357.624	8.28
357.993	8.07
358.362	8.17
358.731	7.91
359.1	8.08
359.469	8.47
359.838	8.43
360.207	8.45
360.576	8.55
360.945	8.21
361.314	8.44
361.682	8.94
362.051	8.08
362.42	8.41
362.788	8.97
363.157	8.76
363.525	8.4
363.894	8.55
364.262	8.57
364.631	8.8
364.999	8.99
365.367	9.12
365.735	8.74
366.104	8.54
366.472	8.77
366.84	9.3
367.208	8.93
367.576	8.84
367.944	9.24
368.312	9.24
368.68	9.46
369.048	9.32
369.416	9.41
369.783	9.49
370.151	9.43
370.519	9.38
370.886	9.08
371.254	9.66
371.621	9.93
371.989	9.39
372.356	9.71
372.724	9.89
373.091	9.47
373.458	9.6
373.826	9.64
374.193	9.93
374.56	9.79
374.927	9.84
375.294	9.98
375.661	10.21
376.028	10.05
376.395	10.4
376.762	9.92
377.129	10.15
377.496	10.44
377.863	10.53
378.229	10.11
378.596	10.52
378.963	10.2
379.329	10.51
379.696	10.33
380.062	10.66
380.429	10.34
380.795	10.36
381.161	10.42
381.528	10.74
381.894	10.51
382.26	10.82
382.626	10.93
382.993	10.53
383.359	10.66
383.725	11.08
384.091	11.12
384.457	10.96
384.823	11.19
385.188	11.33
385.554	10.91
385.92	11.27
386.286	11.47
386.651	10.88
387.017	11.18
387.383	11.06
387.748	11.22
388.114	10.95
388.479	11.53
388.845	11.66
389.21	11.48
389.575	11.21
389.94	11.42
390.306	11.39
390.671	11.54
391.036	11.41
391.401	11.75
391.766	11.77
392.131	11.72
392.496	11.96
392.861	11.77
393.226	11.74
393.591	11.87
393.956	11.91
394.32	12.04
394.685	11.77
395.05	12.18
395.414	12.27
395.779	11.92
396.143	12.02
396.508	12
396.872	12.24
397.236	12.29
397.601	12.26
397.965	12.2
398.329	12.31
398.694	12.51
399.058	12.47
399.422	12.71
399.786	12.54
400.15	12.56
400.514	12.37
400.878	12.66
401.242	12.86
401.605	12.74
401.969	12.56
402.333	12.94
402.697	13.04
403.06	13.15
403.424	12.73
403.787	12.74
404.151	12.86
404.514	12.96
404.878	13.19
405.241	13.28
405.604	13.15
405.968	13.29
406.331	12.97
406.694	13.44
407.057	13.26
407.42	13.65
407.783	13.34
408.146	13.32
408.509	13.42
408.872	13.49
409.235	13.63
409.598	13.73
409.961	13.7
410.323	13.68
410.686	13.41
411.049	13.97
411.411	13.73
411.774	13.88
412.136	13.72
412.499	13.93
412.861	13.86
413.223	13.98
413.586	14.14
413.948	14.23
414.31	14.39
414.672	14.26
415.035	14.22
415.397	14.42
415.759	14.32
416.121	14.37
416.483	14.53
416.845	14.47
417.206	14.64
417.568	14.57
417.93	14.36
418.292	14.27
418.653	14.52
419.015	14.44
419.377	14.35
419.738	14.53
420.1	14.42
420.461	14.55
420.822	14.51
421.184	14.59
421.545	14.55
421.906	14.47
422.267	14.68
422.629	14.77
422.99	14.48
423.351	14.63
423.712	14.63
424.073	14.77
424.434	14.86
424.795	14.87
425.155	14.86
425.516	14.95
425.877	14.99
426.238	14.83
426.598	15.08
426.959	14.94
427.32	15.21
427.68	15.26
428.041	15.16
428.401	15.47
428.761	15.47
429.122	15.61
429.482	15.55
429.842	15.75
430.202	15.78
430.563	15.83
430.923	15.96
431.283	15.77
431.643	15.92
432.003	16.25
432.363	16.08
432.722	16.09
433.082	16.11
433.442	15.98
433.802	16.32
434.161	16.03
434.521	16.18
434.881	16.14
435.24	16.27
435.6	16.2
435.959	16.25
436.319	16.22
436.678	16.41
437.037	16.41
437.396	16.57
437.756	16.77
438.115	16.79
438.474	16.83
438.833	16.71
439.192	16.77
439.551	16.65
439.91	16.82
440.269	16.89
440.628	16.9
440.987	16.98
441.345	16.8
441.704	16.9
442.063	16.89
442.421	16.91
442.78	16.98
443.138	17.02
443.497	16.92
443.855	17.18
444.214	17.25
444.572	17.23
444.93	17.49
445.288	17.56
445.647	17.49
446.005	17.27
446.363	17.52
446.721	17.58
447.079	17.59
447.437	17.44
447.795	17.33
448.153	17.27
448.51	17.27
448.868	17.35
449.226	17.38
449.584	17.54
449.941	17.57
450.299	17.73
450.656	17.76
451.014	17.99
451.371	18.14
451.729	18.01
452.086	18.16
452.443	18.33
452.801	18.2
453.158	18.48
453.515	18.38
453.872	18.39
454.229	18.36
454.586	18.54
454.943	18.49
455.3	18.35
455.657	18.62
456.014	18.58
456.371	18.76
456.727	18.7
457.084	18.76
457.441	18.94
457.797	18.86
458.154	18.87
458.51	19.07
458.867	19.05
459.223	19.26
459.58	19.15
459.936	19.02
460.292	19.1
460.648	18.96
461.005	18.89
461.361	18.97
461.717	18.74
462.073	18.81
462.429	18.94
462.785	19.07
463.141	19.36
463.496	19.36
463.852	19.54
464.208	19.69
464.564	19.93
464.919	19.65
465.275	19.97
465.631	20.04
465.986	20.01
466.342	19.81
466.697	19.8
467.052	19.9
467.408	20.15
467.763	20.25
468.118	20.34
468.473	20.2
468.829	20.28
469.184	20.37
469.539	20.2
469.894	20.35
470.249	20.34
470.603	20.4
470.958	20.65
471.313	20.78
471.668	20.59
472.023	20.61
472.377	20.67
472.732	20.85
473.086	20.86
473.441	21.06
473.795	21.01
474.15	20.99
474.504	20.93
474.859	21.01
475.213	21.07
475.567	21.02
475.921	21.02
476.275	21.09
476.63	21.32
476.984	21.4
477.338	21.07
477.692	21.3
478.045	21.27
478.399	21.31
478.753	21.38
479.107	21.35
479.461	21.4
479.814	21.78
480.168	21.52
480.521	21.5
480.875	21.57
481.228	21.76
481.582	21.5
481.935	21.81
482.289	21.73
482.642	21.79
482.995	21.66
483.348	21.68
483.701	21.71
484.055	21.74
484.408	21.52
484.761	21.39
485.114	21.21
485.466	20.86
485.819	20.66
486.172	20.62
486.525	20.86
486.878	21.14
487.23	21.4
487.583	21.49
487.936	21.55
488.288	21.68
488.641	21.71
488.993	21.5
489.345	21.42
489.698	21.31
490.05	21.35
490.402	21.5
490.754	21.71
491.107	21.82
491.459	22.14
491.811	22.29
492.163	22.42
492.515	22.5
492.866	22.49
493.218	22.21
493.57	21.88
493.922	21.83
494.274	22.1
494.625	22.32
494.977	22.6
495.328	22.88
495.68	23.18
496.031	23.12
496.383	23.37
496.734	23.62
497.086	23.49
497.437	23.7
497.788	23.62
498.139	23.61
498.49	23.46
498.842	23.26
499.193	23.42
499.544	23.54
499.894	23.56
500.245	23.69
500.596	23.8
500.947	23.82
501.298	23.96
501.648	23.89
501.999	24.22
502.35	24.16
502.7	24.44
503.051	24.33
503.401	24.48
503.752	24.47
504.102	24.49
504.452	24.3
504.803	24.64
505.153	24.6
505.503	24.71
505.853	24.62
506.203	24.64
506.553	24.65
506.903	24.71
507.253	24.78
507.603	24.86
507.953	24.93
508.303	24.8
508.652	25.02
509.002	24.96
509.352	25.07
509.701	25.07
510.051	25.05
510.4	25.07
510.75	24.88
511.099	24.97
511.449	25.09
511.798	25.1
512.147	25.03
512.496	25.17
512.846	25.06
513.195	25.45
513.544	25.43
513.893	25.37
514.242	25.38
514.591	25.68
514.939	25.42
515.288	25.54
515.637	25.82
515.986	25.88
516.334	25.91
516.683	25.84
517.032	25.91
517.38	26.08
517.729	26.12
518.077	26
518.426	26.24
518.774	26.13
519.122	26.16
519.47	26.16
519.819	26.13
520.167	25.93
520.515	25.89
520.863	25.82
521.211	25.93
521.559	26.18
521.907	26.14
522.255	26.2
522.602	26.44
522.95	26.58
523.298	26.66
523.645	26.78
523.993	26.69
524.341	26.98
524.688	26.99
525.036	27.12
525.383	26.94
525.73	27.09
526.078	26.99
526.425	27.19
526.772	26.91
527.119	26.92
527.466	26.75
527.814	26.51
528.161	26.67
528.508	26.69
528.854	26.8
529.201	26.85
529.548	26.84
529.895	26.69
530.242	26.21
530.588	26.08
530.935	26.05
531.282	26.31
531.628	26.56
531.975	26.77
532.321	26.89
532.667	27.05
533.014	27.31
533.36	27.54
533.706	27.55
534.052	27.55
534.399	27.52
534.745	27.38
535.091	27.06
535.437	26.95
535.783	27.14
536.129	27.39
536.474	27.58
536.82	27.88
537.166	27.81
537.512	28.13
537.857	28.3
538.203	28.26
538.549	28.07
538.894	27.95
539.239	27.89
539.585	28.22
539.93	28.5
540.276	28.6
540.621	28.73
540.966	28.83
541.311	29.03
541.656	28.9
542.001	28.96
542.346	28.82
542.691	28.63
543.036	28.21
543.381	27.96
543.726	27.99
544.071	28.17
544.415	28.45
544.76	28.56
545.105	28.75
545.449	28.8
545.794	28.95
546.138	29.11
546.483	29.16
546.827	29.51
547.171	29.68
547.516	29.62
547.86	29.78
548.204	29.72
548.548	29.78
548.892	29.62
549.236	29.57
549.58	29.63
549.924	29.81
550.268	30.21
550.612	29.95
550.956	30.47
551.3	30.32
551.643	30.53
551.987	30.79
552.33	30.76
552.674	30.74
553.017	30.81
553.361	31.01
553.704	30.83
554.048	30.98
554.391	30.83
554.734	30.76
555.077	30.83
555.42	30.84
555.764	30.91
556.107	31.12
556.45	31.18
556.793	31.08
557.135	31.25
557.478	31.44
557.821	31.45
558.164	31.66
558.507	31.74
558.849	31.58
559.192	31.6
559.534	31.84
559.877	31.68
560.219	31.92
560.562	32.06
560.904	31.89
561.246	32.02
561.589	31.91
561.931	32.36
562.273	32.16
562.615	32.25
562.957	32.36
563.299	32.27
563.641	32.24
563.983	32.27
564.325	32.31
564.667	32.44
565.008	32.11
565.35	32.52
565.692	32.55
566.033	32.57
566.375	32.68
566.716	32.49
567.058	32.62
567.399	32.82
567.741	32.63
568.082	32.57
568.423	32.57
568.764	32.36
569.105	32.69
569.447	32.56
569.788	32.77
570.129	32.94
570.47	32.83
570.811	33.14
571.151	33.1
571.492	33.27
571.833	33.21
572.174	33.23
572.514	33.22
572.855	33.31
573.195	33.1
573.536	32.96
573.876	33.5
574.217	33.26
574.557	33.06
574.898	33.14
575.238	33.48
575.578	33.36
575.918	33.68
576.258	33.6
576.598	33.97
576.938	33.76
577.278	33.75
577.618	33.72
577.958	33.87
578.298	33.9
578.638	34.02
578.977	34.16
579.317	34.27
579.657	34.3
579.996	34.22
580.336	34.52
580.675	34.55
581.014	34.74
581.354	34.42
581.693	34.67
582.032	35.04
582.372	34.84
582.711	35.18
583.05	34.93
583.389	34.98
583.728	35.21
584.067	35.37
584.406	35.16
584.745	34.98
585.083	35.39
585.422	35.13
585.761	35.35
586.1	35.4
586.438	34.94
586.777	35.5
587.115	35.62
587.454	35.52
587.792	35.75
588.13	35.84
588.469	35.7
588.807	35.85
589.145	35.8
589.483	35.82
589.821	35.76
590.159	35.87
590.497	36.14
590.835	35.8
591.173	35.84
591.511	36.16
591.849	35.92
592.187	36.01
592.524	35.76
592.862	36.02
593.2	36.1
593.537	35.76
593.875	36.2
594.212	36.49
594.55	36.69
594.887	36.51
595.224	36.57
595.561	36.27
595.899	36.44
596.236	36.51
596.573	36.63
596.91	36.57
597.247	36.74
597.584	36.5
597.921	36.53
598.258	36.69
598.594	36.72
598.931	36.52
599.268	36.07
599.604	36.42
599.941	36.35
600.277	36.92
600.614	36.65
600.95	36.95
601.287	37.17
601.623	37.35
601.959	37.61
602.296	37.18
602.632	37.03
602.968	37.3
603.304	37.62
603.64	37.85
603.976	37.53
604.312	37.43
604.648	37.47
604.984	37.19
605.319	37.26
605.655	37.13
605.991	37.28
606.326	37.31
606.662	37.23
606.998	37.04
607.333	37.25
607.668	37.33
608.004	37.27
608.339	37.48
608.674	37.83
609.01	37.94
609.345	38.27
609.68	38.32
610.015	37.95
610.35	38.36
610.685	38.39
611.02	38.21
611.355	38
611.689	37.79
612.024	38.01
612.359	37.91
612.694	38.1
613.028	38.3
613.363	38.4
613.697	38.37
614.032	38.38
614.366	38.94
614.7	39.12
615.035	39.08
615.369	39.13
615.703	38.76
616.037	39.13
616.371	39.12
616.705	38.73
617.039	38.87
617.373	38.99
617.707	39.46
618.041	38.9
618.375	39.07
618.709	39.43
619.042	39.54
619.376	39.46
619.71	39.48
620.043	39.38
620.377	39.18
620.71	39.39
621.043	39.84
621.377	39.83
621.71	39.47
622.043	39.58
622.376	39.98
622.709	39.89
623.043	39.56
623.376	40.06
623.709	39.57
624.041	39.66
624.374	39.84
624.707	39.8
625.04	40.14
625.373	40.26
625.705	40.27
626.038	40.29
626.37	39.82
626.703	40.55
627.035	40.28
627.368	40.23
627.7	40.12
628.032	40.03
628.365	40.15
628.697	40.79
629.029	40.07
629.361	40.61
629.693	40.25
630.025	40.11
630.357	40.61
630.689	40.61
631.021	40.47
631.353	40.6
631.684	40.36
632.016	40.92
632.348	40.44
632.679	40.81
633.011	40.9
633.342	40.67
633.674	40.98
634.005	40.67
634.336	41.3
634.668	40.96
634.999	41.1
635.33	40.54
635.661	41.33
635.992	41.12
636.323	40.93
636.654	41.08
636.985	41.28
637.316	41.5
637.647	41.13
637.977	40.73
638.308	41.39
638.639	41.64
638.969	41.84
639.3	41.32
639.63	41.8
639.961	41.28
640.291	41.79
640.622	41.44
640.952	42.4
641.282	41.35
641.612	42.03
641.943	42.06
642.273	41.98
642.603	41.98
642.933	42.23
643.263	42.43
643.592	41.49
643.922	41.81
644.252	41.68
644.582	41.74
644.911	42.51
645.241	42.66
645.571	42.63
645.9	42.25
646.23	42.18
646.559	42.41
646.888	42.14
647.218	42.32
647.547	42.79
647.876	42.27
648.205	42.41
648.534	42.42
648.863	42.6
649.192	42.83
649.521	42.58
649.85	42.57
650.179	42.81
650.508	43.14
650.837	42.75
651.165	42.93
651.494	42.38
651.822	42.93
652.151	43.08
652.479	42.39
652.808	43.09
653.136	42.72
653.465	43.23
653.793	43.31
654.121	43.01
654.449	43.01
654.777	43.12
655.105	43.34
655.433	44.09
655.761	43.47
656.089	43.45
656.417	43.66
656.745	43.42
657.073	43.28
657.4	43.87
657.728	43.58
658.056	43.31
658.383	43.53
658.711	43.48
659.038	43.49
659.365	43.97
659.693	43.84
660.02	44
660.347	43.32
660.674	43.55
661.001	43.22
661.329	43.89
661.656	43.48
661.982	43.26
662.309	43.76
662.636	44.05
662.963	44.22
663.29	44.06
663.616	43.86
663.943	43.54
664.27	43.99
664.596	44.46
664.923	43.78
665.249	44.64
665.576	44.26
665.902	44.86
666.228	44.52
666.554	44.51
666.881	44.3
667.207	45.02
667.533	44.14
667.859	44.07
668.185	44.38
668.511	44.49
668.837	44.68
669.162	45.07
669.488	44.68
669.814	44.38
670.139	44.36
670.465	45.14
670.791	44.95
671.116	44.49
671.442	45.43
671.767	44.7
672.092	44.18
672.418	44.4
672.743	44.86
673.068	45.2
673.393	44.52
673.718	45.54
674.043	45.17
674.368	45.12
674.693	45.98
675.018	45.37
675.343	45.49
675.667	45.68
675.992	44.96
676.317	45.15
676.641	45.45
676.966	45.11
677.29	44.59
677.615	45.67
677.939	44.84
678.264	45.59
678.588	45.81
678.912	45.43
679.236	45.61
679.56	45.86
679.885	45.07
680.209	45.42
680.532	45.5
680.856	45.68
681.18	46
681.504	45.73
681.828	46.49
682.152	46.02
682.475	45.82
682.799	45.19
683.122	46
683.446	46.27
683.769	45.67
684.093	46.19
684.416	46.32
684.739	46.26
685.062	45.63
685.386	46.85
685.709	46.11
686.032	46.37
686.355	46.61
686.678	46.54
687.001	46.62
687.324	45
687.646	46.5
687.969	46.13
688.292	46.48
688.614	46.41
688.937	45.99
689.26	45.99
689.582	46.1
689.904	46.11
690.227	46.9
690.549	46.37
690.871	46.05
691.194	47.01
691.516	46.13
691.838	46.79
692.16	45.98
692.482	46.46
692.804	46.95
693.126	46.2
693.448	47.23
693.769	45.96
694.091	46.75
694.413	47.17
694.735	46.26
695.056	46.58
695.378	46.94
695.699	46.81
696.021	47.48
696.342	46.58
696.663	47.21
696.984	46.56
697.306	47.64
697.627	46.69
697.948	47.48
698.269	47.44
698.59	47.97
698.911	47.22
699.232	46.75
699.553	47.55
699.873	47.84
700.194	47.28
700.515	46.98
700.835	47.34
701.156	47.19
701.477	47.4
701.797	46.8
702.117	47.16
702.438	47.73
702.758	47.29
703.078	47.44
703.398	47.54
703.719	48.59
704.039	47.91
704.359	47.17
704.679	48.29
704.999	48.02
705.319	48.41
705.638	48.33
705.958	47.55
706.278	47.66
706.597	48.49
706.917	47.87
707.237	47.47
707.556	47.35
707.876	47.53
708.195	47.35
708.514	47.67
708.834	49.1
709.153	48.41
709.472	49.29
709.791	48.95
710.11	48.03
710.429	48.52
710.748	48.4
711.067	47.15
711.386	47.32
711.705	49.54
712.023	48.48
712.342	48.07
712.661	48.28
712.979	48.45
713.298	48.49
713.616	48.67
713.935	49.24
714.253	48.85
714.572	49.44
714.89	49.39
715.208	48.52
715.526	49.41
715.844	49.83
716.162	48.52
716.48	48.28
716.798	48.6
717.116	47.53
717.434	49.57
717.752	49.13
718.069	49.1
718.387	47.95
718.705	49.1
719.022	48.71
719.34	49.79
719.657	48.86
719.975	48.53
720.292	48.86
720.609	49.57
720.927	48.32
721.244	48.87
721.561	49.48
721.878	49.33
722.195	50.17
722.512	49.56
722.829	49.35
723.146	49.49
723.463	50.15
723.779	50.17
724.096	49.43
724.413	48.95
724.729	49.25
725.046	50.57
725.362	50.11
725.679	49.24
725.995	49.62
726.311	50.01
726.628	50
726.944	49.5
727.26	49.65
727.576	50.7
727.892	48.13
728.208	50.41
728.524	49.68
728.84	49.63
729.156	51.05
729.472	50.35
729.787	50.82
730.103	51.76
730.419	49.6
730.734	49.52
731.05	50.56
731.365	49.13
731.681	50.56
731.996	49.78
732.311	51.29
732.626	50.66
732.942	49.91
733.257	49.46
733.572	50.38
733.887	49.47
734.202	49.85
734.517	49.86
734.832	50.41
735.146	51.46
735.461	49.57
735.776	50.13
736.091	50.53
736.405	51.37
736.72	51.1
737.034	49.89
737.349	51.26
737.663	48.97
737.977	50.88
738.292	51.8
738.606	50.56
738.92	50.61
739.234	50.47
739.548	51.12
739.862	51.49
740.176	50.32
740.49	50.57
740.804	51.23
741.117	51.46
741.431	51.01
741.745	50.52
742.058	50.82
742.372	51.83
742.685	51.36
742.999	49.11
743.312	50.35
743.626	51.57
743.939	51.99
744.252	49.25
744.565	50.35
744.878	50.27
745.191	51.16
745.505	49.43
745.817	51.55
746.13	51.14
746.443	53.31
746.756	51.84
747.069	51.58
747.381	53.1
747.694	51.28
748.007	51.79
748.319	53.51
748.632	49.77
748.944	51.33
749.256	52.64
749.569	51.17
749.881	53.39
750.193	50.28
750.505	50.81
750.817	50.51
751.129	51.26
751.441	50.39
751.753	50.05
752.065	52.57
752.377	53.86
752.689	53.35
753	51.6
753.312	51.84
753.624	51.14
753.935	53.31
754.247	50.3
754.558	53.05
754.869	53.13
755.181	51.34
755.492	53.3
755.803	51.66
756.114	51.76
756.425	53.18
756.736	52.42
757.047	51.76
757.358	52.07
757.669	51.6
757.98	50.35
758.291	52.23
758.601	51.88
758.912	51.5
759.223	51.44
759.533	51.84
759.844	54.31
760.154	52.44
760.464	50.89
760.775	51.08
761.085	51.59
761.395	53.64
761.705	52.76
762.016	52.87
762.326	51.84
762.636	54.3
762.945	52.73
763.255	51.31
763.565	51.69
763.875	51.07
764.185	52.01
764.494	52.43
764.804	52.76
765.113	53.12
765.423	53.54
765.732	52.52
766.042	53.19
766.351	52.56
766.66	51.52
766.97	51.86
767.279	52.07
767.588	52.41
767.897	51.59
768.206	53.03
768.515	52.8
768.824	52.89
769.133	52.21
769.441	53.68
769.75	53.91
770.059	53.6
770.367	52.23
770.676	54.98
770.984	52.49
771.293	50.9
771.601	53.89
771.91	53.52
772.218	53.14
772.526	53.03
772.834	54.13
773.142	52.2
773.45	51.61
773.758	51.9
774.066	52.85
774.374	50.34
774.682	50.8
774.99	53.17
775.298	53.06
775.605	52.53
775.913	53.61
776.22	50.6
776.528	53.43
776.835	54.15
777.143	54.73
777.45	54.46
777.757	51.49
778.065	52.58
778.372	56.28
778.679	54.95
778.986	49.99
779.293	54.4
779.6	53.4
779.907	53.8
780.214	53.68
780.52	52.64
780.827	55.84
781.134	54.2
781.44	53.22
781.747	52.99
782.053	56.13
782.36	52.36
782.666	53.95
782.973	51.44
783.279	54.65
783.585	52.47
783.891	49.02
784.197	55.27
784.503	53.89
784.809	52.49
785.115	54.36
785.421	51.24
785.727	54.56
786.033	55.47
786.339	54.88
786.644	54.93
786.95	57.4
787.255	58.04
787.561	49.41
787.866	54.21
788.172	54.8
788.477	54.9
788.782	56.65
789.088	55.7
789.393	51.38
789.698	51.92
790.003	52.22
790.308	52.27
790.613	52.35
790.918	55.27
791.223	51.69
791.527	51.85
791.832	57.03
792.137	57.45
792.441	51.83
792.746	51.06
793.05	50.49
793.355	50.81
793.659	59.22
793.963	54.77
794.268	52.21
794.572	54.38
794.876	55.68
795.18	56.19
795.484	53.88
795.788	54.95
796.092	53.59
796.396	54.05
796.7	55.87
797.004	59.66
797.307	55.3
797.611	51.71
797.915	52.46
798.218	54.24
798.522	55.51
798.825	57.37
799.128	57.22
799.432	54.69
799.735	54.47
800.038	51.87
800.341	51.27
800.644	58.94
800.947	58.18
801.25	53.83
801.553	49.61
801.856	57.34
802.159	50.36
802.462	53.73
802.764	55.27
803.067	56.6
803.37	54.19
803.672	55.33
803.975	55.14
804.277	57.2
804.579	52.25
804.882	56.03
805.184	58.59
805.486	54.27
805.788	54.96
806.09	50.97
806.392	56.91
806.694	51.73
806.996	56.72
807.298	53.11
807.6	57.75
807.902	49.2
808.203	55.74
808.505	58.28
808.807	57.65
809.108	57.15
809.409	61.75
809.711	52.57
810.012	50.99
810.313	54.45
810.615	49.46
810.916	55.82
811.217	60.58
811.518	49.86
811.819	54.67
812.12	56.93
812.421	52.37
812.722	56.3
813.023	53.11
813.323	47.72
813.624	56.42
813.925	59.77
814.225	57.42
814.526	58.27
814.826	58.82
815.126	59.8
815.427	52.48
815.727	59.47
816.027	52.08
816.327	55.73
816.627	55.71
816.927	60.23
817.227	54.65
817.527	55.97
817.827	55.61
818.127	51.55
818.427	54.59
818.727	50.61
819.026	47.86
819.326	55.15
819.625	56.84
819.925	48.27
820.224	60.46
820.524	53.48
820.823	50.67
821.122	55.73
821.421	55.25
821.72	65.34
822.019	56.74
822.318	56.46
822.617	53.04
822.916	60.29
823.215	52.17
823.514	55.49
823.813	58.31
824.111	55.38
824.41	57.11
824.709	55.35
825.007	55.74
825.306	57.68
825.604	55.79
825.902	56.18
826.201	56.58
826.499	57.27
826.797	57.8
827.095	56.66
827.393	56.66
827.691	56.89
827.989	58.43
828.287	58.25
828.585	59.08
828.882	55.65
829.18	56.75
829.478	57.36
829.775	57.14
830.073	55.68
830.37	56.3
830.668	57.35
830.965	57.22
831.263	57.03
831.56	56.11
831.857	56.52
832.154	56.9
832.451	57.26
832.748	58.39
833.045	55.69
833.342	57.99
833.639	57.52
833.936	55.23
834.232	59.72
834.529	58.3
834.826	60.77
835.122	57.01
835.419	56.92
835.715	54.31
836.012	55.09
836.308	55.1
836.604	54.82
836.901	57.6
837.197	59.78
837.493	57.14
837.789	54.34
838.085	58.28
838.381	57.7
838.677	57.38
838.972	56.71
839.268	53.91
839.564	62.22
839.86	59.76
840.155	63.22
840.451	61.31
840.746	61.06
841.042	60.81
841.337	47.9
841.632	60.3
841.928	52.36
842.223	52.26
842.518	48.99
842.813	50.9
843.108	58.06
843.403	61.03
843.698	61.06
843.993	53
844.287	58.8
844.582	51.05
844.877	66.37
845.171	56.32
845.466	58.03
845.761	52.99
846.055	59.63
846.349	51
846.644	53.47
846.938	53.28
847.232	61.41
847.526	64.34
847.82	49.15
848.114	62.63
848.408	56.19
848.702	53.67
848.996	56.25
849.29	48.3
849.584	38.09
849.877	52.82
850.171	50.68
850.465	36.89
850.758	38.94
851.052	37.27
851.345	63.34
851.638	45.64
851.932	38.92
852.225	55.63
852.518	56.97
852.811	59.18
853.104	72.57
853.397	33.41
853.69	46.57
853.983	56.84
854.276	56.77
854.569	53.46
854.861	56.43
855.154	84.61
855.447	56.72
855.739	53.31
856.032	40.69
856.324	40.93
856.616	55.51
856.909	56.15
857.201	38.11
857.493	51.15
857.785	95.13
858.077	67.27
858.369	46.64
858.661	46.32
858.953	40.89
859.245	41.01
859.537	53.61
859.829	60.71
860.12	67.25
860.412	61.72
860.703	53.43
860.995	44.79
861.286	28.05
861.578	49.08
861.869	48.46
862.16	60.6
862.452	52.35
862.743	54.88
863.034	63.12
863.325	59.97
863.616	35.26
863.907	33.87
864.198	34.68
864.488	67.69
864.779	64.67
865.07	53.95
865.36	43.92
865.651	35.71
865.941	41.67
866.232	53.43
866.522	59.34
866.813	41.07
867.103	63.01
867.393	53.98
867.683	61.89
867.973	69.41
868.263	60.58
868.553	55.21
868.843	37.67
869.133	62.7
869.423	63.27
869.713	63.2
870.002	37.5
870.292	64.81
870.582	60.6
870.871	45.89
871.161	43.7
871.45	68.11
871.739	50.06
872.029	27.36
872.318	67.5
872.607	86
872.896	37
873.185	61.1
873.474	62.93
873.763	38.19
874.052	50.88
874.341	69.87
874.63	49.25
874.918	27.43
875.207	51.17
875.496	46.31
875.784	51.05
876.073	68.27
876.361	71
876.649	30.87
876.938	55.52
877.226	63.06
877.514	53.93
877.802	51.92
878.09	33.49
878.378	53.45
878.666	57.84
878.954	50.46
879.242	61.58
879.53	53.16
879.817	24.37
880.105	94.58
880.392	64.44
880.68	58.26
880.967	65.89
881.255	48.5
881.542	55.55
881.83	65.1
882.117	54.68
882.404	54.39
882.691	90.8
882.978	62.74
883.265	54.85
883.552	45.86
883.839	31.61
884.126	50.69
884.413	50.69
884.699	60.8
884.986	64.05
885.273	65.68
885.559	65.68
885.846	65.68
