Data from 0281_forehead_Reflection__3__228.txt Node

Date: Fri Oct 20 22:30:31 CDT 2023
User: ToomeyLab
Spectrometer: FLMS14357
Trigger mode: 0
Integration Time (sec): 1.000000E-2
Scans to average: 100
Electric dark correction enabled: true
Nonlinearity correction enabled: false
Boxcar width: 0
XAxis mode: Wavelengths
Number of Pixels in Spectrum: 2048
>>>>>Begin Spectral Data<<<<<
189.047	-515.49
189.435	-515.49
189.823	-515.49
190.211	48.71
190.599	79.53
190.987	60.27
191.375	21.17
191.763	981.08
192.151	69.99
192.538	-40.02
192.926	38.49
193.314	291.73
193.702	-17.55
194.089	91.99
194.477	-29.22
194.864	-21.84
195.252	66.87
195.639	75.79
196.027	114.39
196.414	35.98
196.801	-592.85
197.189	134.12
197.576	-45.37
197.963	12.16
198.351	41.02
198.738	57.18
199.125	15.62
199.512	125.45
199.899	23.79
200.286	18.31
200.673	70.16
201.06	55.98
201.447	14.57
201.833	65.37
202.22	53.24
202.607	81.74
202.994	41.06
203.38	51.58
203.767	36.51
204.154	53.49
204.54	50.77
204.927	69.25
205.313	63.69
205.699	76.92
206.086	59.02
206.472	36.78
206.858	39.93
207.245	4.66
207.631	53.76
208.017	29.64
208.403	17.38
208.789	51.61
209.175	9.9
209.561	25.28
209.947	46.34
210.333	39.68
210.719	54.35
211.105	18.75
211.491	26.3
211.876	-2.99
212.262	35.52
212.648	40.57
213.034	44.45
213.419	16.34
213.805	13.05
214.19	42.88
214.576	35.76
214.961	16.58
215.346	47.11
215.732	38.73
216.117	-9.65
216.502	33.97
216.888	15.12
217.273	21.64
217.658	14.57
218.043	16.79
218.428	10.79
218.813	19.62
219.198	4.09
219.583	-18.17
219.968	2.73
220.353	22.38
220.738	-10.03
221.122	21.12
221.507	27.88
221.892	16.47
222.276	23.35
222.661	39.02
223.046	25.55
223.43	9.33
223.815	25.64
224.199	17.5
224.583	2.07
224.968	4.61
225.352	13.03
225.736	16.2
226.121	18.25
226.505	12.81
226.889	6.08
227.273	8.48
227.657	16.71
228.041	13.64
228.425	14.68
228.809	10.15
229.193	11.84
229.577	10.35
229.961	6.82
230.344	6.86
230.728	6.04
231.112	6.87
231.495	6.12
231.879	7.02
232.263	7.67
232.646	5.88
233.03	5.63
233.413	6.01
233.797	7.37
234.18	6.22
234.563	9.99
234.946	9.88
235.33	7.04
235.713	7.23
236.096	7.86
236.479	7.06
236.862	7.93
237.245	6.39
237.628	7.7
238.011	7.49
238.394	7.58
238.777	9.72
239.16	7.68
239.543	9.94
239.925	8.57
240.308	7.72
240.691	7.27
241.073	8.18
241.456	6.75
241.838	7.04
242.221	6.9
242.603	6.25
242.986	7.12
243.368	7.1
243.75	5.74
244.133	5.53
244.515	5.62
244.897	5.95
245.279	6.55
245.661	6.03
246.043	6.06
246.425	5.72
246.807	6.75
247.189	6.81
247.571	5.34
247.953	6.1
248.335	6.27
248.717	5.64
249.098	5.5
249.48	5.38
249.862	5.68
250.243	6.48
250.625	5.64
251.006	6.17
251.388	5.99
251.769	6.95
252.151	6.12
252.532	7.66
252.913	5.78
253.295	5.75
253.676	5.78
254.057	5.66
254.438	5.94
254.819	5.83
255.2	6
255.581	6.61
255.962	6.43
256.343	5.69
256.724	5.22
257.105	6.41
257.486	7.49
257.867	6.23
258.247	6.61
258.628	6.52
259.009	6.03
259.389	5.82
259.77	5.35
260.15	5.74
260.531	6
260.911	6.17
261.292	5.42
261.672	5.53
262.052	5.74
262.432	5.71
262.813	5.53
263.193	5.52
263.573	5.79
263.953	5.41
264.333	5.69
264.713	6.53
265.093	6.63
265.473	6.48
265.853	5.76
266.233	5.63
266.612	6.63
266.992	5.67
267.372	5.52
267.752	5.3
268.131	6.4
268.511	6.23
268.89	5.62
269.27	5.83
269.649	5.08
270.029	5.69
270.408	6.1
270.787	5.71
271.167	5.76
271.546	6.15
271.925	6.57
272.304	5.88
272.683	5.79
273.062	5.93
273.441	5.55
273.82	5.56
274.199	5.94
274.578	5.72
274.957	6.09
275.336	5.86
275.715	5.71
276.093	5
276.472	5.71
276.851	5.99
277.229	5.47
277.608	5.22
277.986	5.41
278.365	5.98
278.743	5.87
279.122	5.75
279.5	5.64
279.878	5.17
280.257	6.01
280.635	6
281.013	6.12
281.391	5.95
281.769	5.67
282.147	5.36
282.525	5.69
282.903	5.81
283.281	5.31
283.659	5.74
284.037	5.8
284.415	5.26
284.792	5.58
285.17	6.01
285.548	5.62
285.925	5.86
286.303	5.58
286.68	5.55
287.058	5.97
287.435	5.66
287.813	5.02
288.19	5.57
288.567	5.4
288.945	5.73
289.322	5.71
289.699	5.12
290.076	5.9
290.453	5.47
290.83	5.83
291.207	6.2
291.584	5.62
291.961	5.8
292.338	5.88
292.715	5.76
293.092	6.04
293.469	6
293.845	6.29
294.222	5.97
294.599	5.91
294.975	7.1
295.352	6.38
295.728	6.57
296.105	6.56
296.481	6.26
296.858	6.25
297.234	6.38
297.61	6
297.986	6.29
298.363	6.15
298.739	6.5
299.115	6.48
299.491	6.22
299.867	6.18
300.243	6.46
300.619	6.64
300.995	6.4
301.371	6.78
301.746	6.62
302.122	6.63
302.498	6.33
302.874	6.8
303.249	6.76
303.625	7.07
304	7.03
304.376	6.6
304.751	6.74
305.127	6.44
305.502	7.55
305.878	7.48
306.253	7.74
306.628	7.35
307.003	7.37
307.378	7.39
307.754	7.85
308.129	7.77
308.504	7.44
308.879	7.38
309.254	7.77
309.629	7.92
310.003	7
310.378	7.95
310.753	7.44
311.128	8.17
311.502	7.85
311.877	8.24
312.252	7.87
312.626	8.17
313.001	8.11
313.375	8.17
313.75	7.95
314.124	7.77
314.498	8.3
314.873	8.47
315.247	8.67
315.621	8.99
315.995	8.62
316.369	8.27
316.743	8.73
317.117	8.94
317.491	8.16
317.865	9.14
318.239	9.25
318.613	9.26
318.987	9.03
319.361	8.79
319.734	8.83
320.108	9.46
320.482	9.26
320.855	10.04
321.229	9.9
321.602	9.48
321.976	9.7
322.349	10.1
322.723	9.88
323.096	10.52
323.469	10.23
323.843	10.36
324.216	10.11
324.589	10.56
324.962	10.42
325.335	10.34
325.708	10.07
326.081	10.85
326.454	10.25
326.827	10.61
327.2	10.77
327.573	10.64
327.945	10.62
328.318	10.25
328.691	10.5
329.063	11.13
329.436	10.81
329.809	11.34
330.181	11.48
330.553	11.86
330.926	11.63
331.298	10.74
331.671	11.35
332.043	11.21
332.415	11.51
332.787	11.76
333.159	11.64
333.532	11.14
333.904	11.89
334.276	11.5
334.648	11.65
335.02	11.63
335.391	11.86
335.763	12.33
336.135	12.06
336.507	12.1
336.879	11.92
337.25	11.94
337.622	12.15
337.993	12.74
338.365	12.14
338.736	12.52
339.108	12.67
339.479	12.5
339.851	12.75
340.222	12.49
340.593	12.54
340.964	12.64
341.336	13.14
341.707	13.11
342.078	13.22
342.449	12.79
342.82	12.76
343.191	13.09
343.562	13.03
343.933	13.44
344.303	13.32
344.674	13.53
345.045	13.89
345.416	13.44
345.786	13.34
346.157	13.82
346.527	13.47
346.898	13.73
347.268	13.75
347.639	14.33
348.009	13.53
348.38	13.84
348.75	14.03
349.12	13.89
349.49	14.44
349.861	14.42
350.231	14.32
350.601	14.81
350.971	14.98
351.341	14.18
351.711	15.26
352.081	14.67
352.45	14.99
352.82	15.13
353.19	15.36
353.56	15.11
353.929	14.97
354.299	14.54
354.669	15.11
355.038	15.29
355.408	15.1
355.777	15.65
356.147	15.34
356.516	15.25
356.885	15.26
357.254	15.66
357.624	15.98
357.993	15.27
358.362	16.02
358.731	15.58
359.1	15.64
359.469	15.65
359.838	16.02
360.207	15.65
360.576	15.87
360.945	15.76
361.314	16.3
361.682	16.24
362.051	16.01
362.42	16.18
362.788	16.47
363.157	16.4
363.525	16.29
363.894	16.25
364.262	16.43
364.631	16.4
364.999	16.76
365.367	16.84
365.735	16.87
366.104	17.02
366.472	16.91
366.84	17.02
367.208	16.94
367.576	17.08
367.944	17.45
368.312	17.6
368.68	17.57
369.048	17.48
369.416	17.66
369.783	17.43
370.151	17.78
370.519	17.65
370.886	17.95
371.254	18.19
371.621	18.27
371.989	17.86
372.356	18.37
372.724	18.08
373.091	18.02
373.458	18.31
373.826	18.42
374.193	18.21
374.56	18.29
374.927	18.65
375.294	19.1
375.661	18.94
376.028	19.1
376.395	19.02
376.762	19.23
377.129	19.16
377.496	19.3
377.863	19.12
378.229	19.46
378.596	19.68
378.963	19.43
379.329	19.3
379.696	19.33
380.062	19.87
380.429	19.76
380.795	19.55
381.161	20.02
381.528	20.32
381.894	19.85
382.26	20.15
382.626	20.44
382.993	20.24
383.359	20.21
383.725	20.8
384.091	20.47
384.457	20.75
384.823	20.48
385.188	20.88
385.554	20.69
385.92	20.83
386.286	20.99
386.651	20.99
387.017	21.05
387.383	20.95
387.748	21.04
388.114	21.04
388.479	21.02
388.845	21.44
389.21	21.23
389.575	21.3
389.94	21.42
390.306	21.54
390.671	21.58
391.036	22.08
391.401	21.82
391.766	22.16
392.131	22
392.496	22.21
392.861	22.34
393.226	22.33
393.591	22.29
393.956	22.64
394.32	22.5
394.685	22.13
395.05	22.63
395.414	22.75
395.779	22.78
396.143	22.53
396.508	22.63
396.872	22.83
397.236	22.86
397.601	22.97
397.965	22.87
398.329	23.22
398.694	23.42
399.058	23.36
399.422	23.69
399.786	23.61
400.15	23.7
400.514	23.56
400.878	23.6
401.242	23.92
401.605	23.95
401.969	23.6
402.333	23.95
402.697	24.23
403.06	23.92
403.424	23.99
403.787	24.16
404.151	24.3
404.514	24.42
404.878	24.72
405.241	24.49
405.604	24.46
405.968	24.73
406.331	24.73
406.694	24.8
407.057	24.71
407.42	25.01
407.783	24.95
408.146	25.03
408.509	25.14
408.872	25.35
409.235	25.25
409.598	25.42
409.961	25.59
410.323	25.3
410.686	25.4
411.049	25.94
411.411	25.66
411.774	25.96
412.136	25.59
412.499	26.07
412.861	26.01
413.223	26.07
413.586	26.37
413.948	26.29
414.31	26.21
414.672	26.36
415.035	26.57
415.397	26.61
415.759	26.57
416.121	26.52
416.483	26.83
416.845	26.9
417.206	26.85
417.568	26.81
417.93	26.98
418.292	26.91
418.653	27.11
419.015	26.87
419.377	26.98
419.738	27.1
420.1	27.03
420.461	27.05
420.822	27.01
421.184	26.97
421.545	27.07
421.906	27.08
422.267	27.2
422.629	27.33
422.99	27.27
423.351	27.27
423.712	27.31
424.073	27.26
424.434	27.45
424.795	27.65
425.155	27.72
425.516	27.79
425.877	27.66
426.238	27.84
426.598	27.84
426.959	27.8
427.32	28.01
427.68	28
428.041	28.27
428.401	28.49
428.761	28.43
429.122	28.68
429.482	28.74
429.842	28.94
430.202	29
430.563	29.11
430.923	29.05
431.283	29.18
431.643	29.32
432.003	29.57
432.363	29.27
432.722	29.75
433.082	29.56
433.442	29.87
433.802	29.76
434.161	29.78
434.521	29.7
434.881	29.97
435.24	29.97
435.6	30.01
435.959	29.82
436.319	29.92
436.678	29.97
437.037	30.13
437.396	30.44
437.756	30.5
438.115	30.43
438.474	30.52
438.833	30.68
439.192	30.58
439.551	30.71
439.91	30.59
440.269	30.81
440.628	30.82
440.987	30.9
441.345	30.66
441.704	30.85
442.063	30.95
442.421	30.88
442.78	30.94
443.138	30.93
443.497	31.03
443.855	31.11
444.214	31.17
444.572	31.53
444.93	31.7
445.288	31.56
445.647	31.66
446.005	31.6
446.363	31.9
446.721	31.82
447.079	31.75
447.437	31.81
447.795	31.81
448.153	31.52
448.51	31.55
448.868	31.56
449.226	31.67
449.584	31.98
449.941	32.08
450.299	32.08
450.656	32.05
451.014	32.38
451.371	32.45
451.729	32.69
452.086	32.64
452.443	32.89
452.801	32.95
453.158	33.16
453.515	33.16
453.872	33.2
454.229	33.28
454.586	33.28
454.943	33.27
455.3	33.16
455.657	33.47
456.014	33.23
456.371	33.48
456.727	33.58
457.084	33.56
457.441	33.67
457.797	33.81
458.154	33.84
458.51	33.99
458.867	34.16
459.223	34.12
459.58	34.11
459.936	34.33
460.292	34.12
460.648	34.09
461.005	33.96
461.361	34.06
461.717	33.99
462.073	33.89
462.429	33.86
462.785	33.87
463.141	34.34
463.496	34.41
463.852	34.45
464.208	34.73
464.564	34.84
464.919	35.11
465.275	35.26
465.631	35.35
465.986	35.06
466.342	35.34
466.697	35.29
467.052	35.32
467.408	35.44
467.763	35.61
468.118	35.97
468.473	35.67
468.829	35.65
469.184	35.54
469.539	35.52
469.894	35.79
470.249	35.71
470.603	35.87
470.958	36.11
471.313	36.28
471.668	36.2
472.023	36.32
472.377	36.19
472.732	36.33
473.086	36.36
473.441	36.63
473.795	36.76
474.15	36.68
474.504	36.45
474.859	36.52
475.213	36.65
475.567	36.7
475.921	36.74
476.275	36.95
476.63	36.95
476.984	36.98
477.338	37.31
477.692	37.16
478.045	37.18
478.399	37.22
478.753	37.37
479.107	37.36
479.461	37.16
479.814	37.45
480.168	37.42
480.521	37.46
480.875	37.64
481.228	37.59
481.582	37.55
481.935	37.79
482.289	37.89
482.642	37.88
482.995	37.63
483.348	37.8
483.701	37.79
484.055	37.77
484.408	37.46
484.761	37.4
485.114	37.15
485.466	36.9
485.819	36.97
486.172	37.03
486.525	36.99
486.878	36.98
487.23	36.99
487.583	37.15
487.936	37.53
488.288	37.55
488.641	37.81
488.993	37.64
489.345	37.57
489.698	37.49
490.05	37.55
490.402	37.62
490.754	37.69
491.107	37.76
491.459	38.07
491.811	38.2
492.163	38.45
492.515	38.61
492.866	38.54
493.218	38.43
493.57	38.24
493.922	38.22
494.274	38.25
494.625	38.32
494.977	38.55
495.328	38.94
495.68	39.19
496.031	39.49
496.383	39.64
496.734	39.87
497.086	40.05
497.437	40.08
497.788	39.93
498.139	40.15
498.49	39.95
498.842	39.78
499.193	39.93
499.544	39.95
499.894	39.89
500.245	39.96
500.596	40.04
500.947	40.22
501.298	40.34
501.648	40.42
501.999	40.71
502.35	40.64
502.7	40.89
503.051	40.95
503.401	40.95
503.752	40.8
504.102	40.99
504.452	41.08
504.803	41.21
505.153	41.37
505.503	41.21
505.853	41.24
506.203	41.29
506.553	41.24
506.903	41.56
507.253	41.42
507.603	41.51
507.953	41.41
508.303	41.64
508.652	41.55
509.002	41.7
509.352	41.77
509.701	41.8
510.051	41.78
510.4	41.45
510.75	41.61
511.099	41.8
511.449	41.9
511.798	41.84
512.147	41.74
512.496	41.73
512.846	41.94
513.195	41.89
513.544	41.92
513.893	42.19
514.242	42.18
514.591	42.32
514.939	42.28
515.288	42.37
515.637	42.51
515.986	42.47
516.334	42.78
516.683	42.69
517.032	42.75
517.38	42.82
517.729	42.78
518.077	42.82
518.426	43.09
518.774	43.05
519.122	42.99
519.47	43.16
519.819	42.79
520.167	42.68
520.515	42.59
520.863	42.87
521.211	42.79
521.559	42.77
521.907	42.76
522.255	42.89
522.602	43.25
522.95	43.16
523.298	43.53
523.645	43.58
523.993	43.7
524.341	43.78
524.688	43.83
525.036	43.88
525.383	43.78
525.73	44.05
526.078	43.92
526.425	43.94
526.772	43.88
527.119	43.83
527.466	43.61
527.814	43.68
528.161	43.66
528.508	43.66
528.854	43.53
529.201	43.68
529.548	43.67
529.895	43.51
530.242	43.29
530.588	43.32
530.935	43.46
531.282	43.48
531.628	43.34
531.975	43.19
532.321	43.31
532.667	43.58
533.014	44.07
533.36	44.32
533.706	44.37
534.052	44.27
534.399	44.32
534.745	44.15
535.091	44.19
535.437	44.02
535.783	44.17
536.129	44.11
536.474	44.17
536.82	44.39
537.166	44.64
537.512	44.95
537.857	45.05
538.203	45.18
538.549	45.13
538.894	45.03
539.239	45.06
539.585	45.11
539.93	45.2
540.276	45.28
540.621	45.46
540.966	45.79
541.311	45.82
541.656	45.74
542.001	46.02
542.346	45.98
542.691	45.59
543.036	45.29
543.381	45.12
543.726	45.18
544.071	45.05
544.415	45.09
544.76	45.3
545.105	45.35
545.449	45.67
545.794	45.9
546.138	45.94
546.483	45.96
546.827	46.09
547.171	46.34
547.516	46.36
547.86	46.57
548.204	46.52
548.548	46.61
548.892	46.28
549.236	46.62
549.58	46.53
549.924	46.5
550.268	46.83
550.612	47
550.956	47.12
551.3	47.21
551.643	47.47
551.987	47.44
552.33	47.55
552.674	47.53
553.017	47.59
553.361	47.86
553.704	47.67
554.048	47.73
554.391	47.9
554.734	47.8
555.077	47.66
555.42	47.64
555.764	47.72
556.107	47.77
556.45	47.94
556.793	47.91
557.135	48.18
557.478	48.08
557.821	48.53
558.164	48.36
558.507	48.41
558.849	48.33
559.192	48.38
559.534	48.58
559.877	48.42
560.219	48.48
560.562	48.78
560.904	49.04
561.246	48.77
561.589	48.8
561.931	48.98
562.273	48.97
562.615	49.17
562.957	49.16
563.299	49.04
563.641	48.95
563.983	49.21
564.325	49.22
564.667	49.15
565.008	49.22
565.35	49.51
565.692	49.17
566.033	49.52
566.375	49.34
566.716	49.38
567.058	49.35
567.399	49.51
567.741	49.36
568.082	49.57
568.423	49.49
568.764	49.2
569.105	49.43
569.447	49.41
569.788	49.66
570.129	49.72
570.47	49.66
570.811	49.76
571.151	49.76
571.492	50.08
571.833	50.16
572.174	50.08
572.514	50.16
572.855	50.2
573.195	50.18
573.536	49.84
573.876	50.24
574.217	50.14
574.557	50.14
574.898	49.93
575.238	50.02
575.578	50.3
575.918	50.52
576.258	50.18
576.598	50.69
576.938	50.63
577.278	50.72
577.618	50.66
577.958	50.53
578.298	50.49
578.638	50.65
578.977	50.91
579.317	51.1
579.657	50.96
579.996	50.96
580.336	51
580.675	50.84
581.014	51.41
581.354	51.33
581.693	51.2
582.032	51.6
582.372	51.43
582.711	51.84
583.05	51.55
583.389	51.72
583.728	51.65
584.067	51.79
584.406	52.06
584.745	51.79
585.083	51.7
585.422	51.93
585.761	52.03
586.1	52.07
586.438	51.92
586.777	52.15
587.115	52.1
587.454	52.13
587.792	52.43
588.13	52.41
588.469	52.51
588.807	52.62
589.145	52.53
589.483	52.62
589.821	52.54
590.159	52.26
590.497	52.31
590.835	52.54
591.173	52.39
591.511	52.75
591.849	52.45
592.187	52.57
592.524	52.43
592.862	52.8
593.2	52.69
593.537	52.66
593.875	52.89
594.212	52.57
594.55	53.07
594.887	52.9
595.224	53.2
595.561	52.85
595.899	52.83
596.236	52.79
596.573	53.4
596.91	52.8
597.247	53.58
597.584	53.37
597.921	53.25
598.258	53.5
598.594	53.11
598.931	53.19
599.268	52.79
599.604	52.89
599.941	53.21
600.277	53.27
600.614	53.22
600.95	53.48
601.287	53.39
601.623	53.85
601.959	53.73
602.296	53.58
602.632	53.79
602.968	54.01
603.304	53.97
603.64	53.76
603.976	54.05
604.312	53.79
604.648	54.09
604.984	53.86
605.319	53.61
605.655	53.77
605.991	53.93
606.326	53.93
606.662	53.88
606.998	53.71
607.333	53.9
607.668	53.81
608.004	54.03
608.339	53.8
608.674	53.9
609.01	54.07
609.345	54.89
609.68	54.69
610.015	54.67
610.35	54.61
610.685	54.63
611.02	54.81
611.355	54.57
611.689	54.15
612.024	54.52
612.359	54.46
612.694	54.68
613.028	54.67
613.363	54.84
613.697	54.85
614.032	55.05
614.366	55.46
614.7	55.05
615.035	55.34
615.369	55.87
615.703	55.26
616.037	55.56
616.371	55.42
616.705	55.51
617.039	55.34
617.373	55.34
617.707	55.98
618.041	55.75
618.375	55.85
618.709	56.12
619.042	56.33
619.376	55.64
619.71	55.93
620.043	55.84
620.377	55.33
620.71	55.95
621.043	56.07
621.377	55.79
621.71	55.86
622.043	56.32
622.376	55.97
622.709	56.85
623.043	56.3
623.376	56.55
623.709	56.31
624.041	56.44
624.374	56.65
624.707	56.38
625.04	56.39
625.373	56.47
625.705	56.37
626.038	56.54
626.37	56.8
626.703	56.56
627.035	56.33
627.368	56.28
627.7	56.71
628.032	56.23
628.365	56.9
628.697	57.22
629.029	56.48
629.361	56.7
629.693	56.27
630.025	56.87
630.357	56.98
630.689	56.71
631.021	56.63
631.353	56.71
631.684	56.74
632.016	57.17
632.348	56.71
632.679	57.04
633.011	57.11
633.342	57.14
633.674	57.42
634.005	57.4
634.336	57.15
634.668	57.34
634.999	57.29
635.33	57.07
635.661	57.11
635.992	57.32
636.323	57.5
636.654	57.5
636.985	57.26
637.316	57.37
637.647	57.48
637.977	56.99
638.308	57.07
638.639	57.67
638.969	57.75
639.3	57.87
639.63	58.19
639.961	57.73
640.291	58.26
640.622	58.06
640.952	57.74
641.282	57.7
641.612	58.25
641.943	58.11
642.273	58.2
642.603	58.27
642.933	58.55
643.263	58.05
643.592	57.81
643.922	58.68
644.252	57.47
644.582	58.16
644.911	58.12
645.241	59
645.571	58.26
645.9	58.02
646.23	58.51
646.559	58.24
646.888	59.03
647.218	58.4
647.547	58.29
647.876	59.02
648.205	59.02
648.534	58.9
648.863	58.56
649.192	58.06
649.521	58.79
649.85	58.79
650.179	58.3
650.508	59.06
650.837	59.81
651.165	59.08
651.494	58.31
651.822	59.03
652.151	58.98
652.479	59.02
652.808	59.31
653.136	59.19
653.465	59.37
653.793	58.93
654.121	59.51
654.449	59.51
654.777	59.03
655.105	58.92
655.433	59.66
655.761	59.43
656.089	59.67
656.417	59.58
656.745	59.3
657.073	59.53
657.4	60.28
657.728	59.56
658.056	59.42
658.383	59.76
658.711	59.81
659.038	59.7
659.365	60.09
659.693	59.62
660.02	59.5
660.347	59.35
660.674	59.83
661.001	59.55
661.329	60.08
661.656	60.01
661.982	59.63
662.309	60.13
662.636	59.71
662.963	60.37
663.29	59.86
663.616	59.94
663.943	59.95
664.27	59.72
664.596	59.92
664.923	60.3
665.249	60.98
665.576	60.64
665.902	60.83
666.228	60.45
666.554	60.85
666.881	60.13
667.207	60.69
667.533	60.52
667.859	60.02
668.185	60.44
668.511	61.12
668.837	60.06
669.162	59.94
669.488	60.46
669.814	60.51
670.139	60.87
670.465	60.28
670.791	60.99
671.116	60.9
671.442	61.33
671.767	60.53
672.092	61.01
672.418	60.3
672.743	60.99
673.068	60.68
673.393	60.5
673.718	61.27
674.043	61.01
674.368	60.84
674.693	60.33
675.018	60.83
675.343	60.95
675.667	60.72
675.992	60.81
676.317	61.03
676.641	60.74
676.966	60.9
677.29	61.24
677.615	60.92
677.939	61.22
678.264	60.88
678.588	61.8
678.912	61.97
679.236	61.51
679.56	60.92
679.885	61.19
680.209	61.51
680.532	61.35
680.856	61.14
681.18	61.9
681.504	61.31
681.828	61.71
682.152	61.09
682.475	61.61
682.799	61.64
683.122	61.99
683.446	62.12
683.769	61.5
684.093	61.2
684.416	62.47
684.739	62.15
685.062	60.69
685.386	61.59
685.709	61.11
686.032	62.03
686.355	61.53
686.678	62.07
687.001	62.29
687.324	61.03
687.646	62.06
687.969	61.81
688.292	62.2
688.614	62.58
688.937	61.71
689.26	62.24
689.582	62.85
689.904	61.6
690.227	62.73
690.549	62.76
690.871	61.95
691.194	62.24
691.516	61.99
691.838	62.47
692.16	61.58
692.482	62.15
692.804	62.38
693.126	61.73
693.448	62.82
693.769	62.22
694.091	62.76
694.413	62.25
694.735	61.9
695.056	62.29
695.378	63.36
695.699	62.86
696.021	62.32
696.342	62.13
696.663	63.45
696.984	61.78
697.306	62.6
697.627	62.26
697.948	62.63
698.269	62.83
698.59	63.73
698.911	63.34
699.232	62.44
699.553	63.03
699.873	63.96
700.194	63
700.515	63.7
700.835	62.94
701.156	63.09
701.477	63.33
701.797	62.93
702.117	62.66
702.438	62.8
702.758	62.91
703.078	63.26
703.398	63.43
703.719	62.41
704.039	62.5
704.359	63.15
704.679	63.75
704.999	62.93
705.319	63.32
705.638	63.02
705.958	63.18
706.278	62.95
706.597	64.05
706.917	63.46
707.237	63.36
707.556	64.73
707.876	64.36
708.195	64.38
708.514	64.23
708.834	63.69
709.153	63.34
709.472	63.28
709.791	65.13
710.11	64.68
710.429	64.92
710.748	63.91
711.067	63.05
711.386	64.5
711.705	64.68
712.023	64.18
712.342	64.4
712.661	64.35
712.979	63.91
713.298	63.62
713.616	63.73
713.935	64.31
714.253	64.26
714.572	64.24
714.89	63.77
715.208	63.87
715.526	66.26
715.844	64.54
716.162	64.52
716.48	64.02
716.798	63.62
717.116	64.11
717.434	65.22
717.752	65.14
718.069	65.47
718.387	64.23
718.705	64.17
719.022	63.76
719.34	63.74
719.657	64.18
719.975	64.27
720.292	65.02
720.609	64.64
720.927	63.66
721.244	64.86
721.561	65.31
721.878	64.88
722.195	65.93
722.512	65.63
722.829	64.51
723.146	64.42
723.463	65.07
723.779	66.11
724.096	65.5
724.413	63.95
724.729	65.12
725.046	64.95
725.362	65.32
725.679	64.97
725.995	65.24
726.311	66.8
726.628	66.29
726.944	66.56
727.26	65.22
727.576	65.04
727.892	64.77
728.208	66.09
728.524	65.75
728.84	65.64
729.156	66.62
729.472	64.88
729.787	65.81
730.103	65.7
730.419	66.22
730.734	65.05
731.05	65.04
731.365	64.39
731.681	65.47
731.996	65.13
732.311	65.14
732.626	65.31
732.942	65.15
733.257	65.02
733.572	66.17
733.887	65.3
734.202	66.24
734.517	66.64
734.832	66.06
735.146	65.89
735.461	65.2
735.776	65.99
736.091	66.11
736.405	66.34
736.72	67.82
737.034	66.03
737.349	65.96
737.663	64.19
737.977	66.07
738.292	66.92
738.606	64.82
738.92	66.81
739.234	63.84
739.548	68.19
739.862	67.1
740.176	64.99
740.49	67.22
740.804	67.31
741.117	67.12
741.431	66.63
741.745	67.46
742.058	68.67
742.372	67.69
742.685	66.58
742.999	66.3
743.312	66.28
743.626	66.86
743.939	67.24
744.252	64.85
744.565	67.02
744.878	66.58
745.191	67.09
745.505	64.13
745.817	66.5
746.13	66.73
746.443	68.68
746.756	66.18
747.069	67.01
747.381	67.35
747.694	67.07
748.007	65.91
748.319	68.73
748.632	65.67
748.944	65.89
749.256	67.59
749.569	66.53
749.881	68.54
750.193	67.26
750.505	66.39
750.817	65.52
751.129	66.01
751.441	65.63
751.753	65.11
752.065	69.83
752.377	67.05
752.689	66.22
753	65.79
753.312	64.59
753.624	66.91
753.935	69.11
754.247	65.05
754.558	67.72
754.869	67.2
755.181	65.87
755.492	67.14
755.803	65.72
756.114	66.28
756.425	66.68
756.736	67.17
757.047	65.84
757.358	67.58
757.669	65.99
757.98	67.66
758.291	67.45
758.601	66.4
758.912	66.54
759.223	66.9
759.533	68.46
759.844	69.38
760.154	67.13
760.464	67.73
760.775	65.7
761.085	68.6
761.395	67.17
761.705	67.7
762.016	66.58
762.326	68.95
762.636	68.72
762.945	67.05
763.255	67.83
763.565	68.61
763.875	67.86
764.185	66.9
764.494	67.94
764.804	68.7
765.113	67.31
765.423	66.84
765.732	68.99
766.042	68.19
766.351	67.25
766.66	68.21
766.97	67.57
767.279	66.88
767.588	67.03
767.897	66.66
768.206	68.37
768.515	67.02
768.824	67.7
769.133	66.51
769.441	66.51
769.75	68.64
770.059	67.87
770.367	68.74
770.676	68.79
770.984	67.4
771.293	65.65
771.601	67.36
771.91	68.17
772.218	67.62
772.526	64.45
772.834	67.35
773.142	69.11
773.45	66.83
773.758	65.41
774.066	68.66
774.374	65.26
774.682	66.84
774.99	66.55
775.298	67.94
775.605	68.83
775.913	66.26
776.22	64.98
776.528	69.45
776.835	69.39
777.143	71.01
777.45	71.9
777.757	68.3
778.065	68.7
778.372	66.45
778.679	68.14
778.986	69.02
779.293	70.1
779.6	69.27
779.907	66.64
780.214	67.78
780.52	68.82
780.827	72.5
781.134	68.53
781.44	71.72
781.747	69.15
782.053	67.49
782.36	68.54
782.666	67.1
782.973	65.92
783.279	71.25
783.585	71.31
783.891	67.02
784.197	70.18
784.503	66.08
784.809	67.76
785.115	70.55
785.421	67.36
785.727	69
786.033	69.11
786.339	68.95
786.644	67
786.95	71.6
787.255	67.11
787.561	66.07
787.866	72.3
788.172	66.47
788.477	72.7
788.782	69.74
789.088	69.22
789.393	68.46
789.698	65.61
790.003	73.4
790.308	69.16
790.613	70.15
790.918	72.37
791.223	70.02
791.527	67.76
791.832	72
792.137	72.56
792.441	67.43
792.746	69.75
793.05	71.32
793.355	69.08
793.659	73.84
793.963	62.62
794.268	70.15
794.572	67.47
794.876	70.42
795.18	68.17
795.484	66.5
795.788	70.88
796.092	65.4
796.396	67.14
796.7	71.96
797.004	73.78
797.307	69.21
797.611	63.33
797.915	64.04
798.218	67.04
798.522	72.43
798.825	70.69
799.128	70.45
799.432	68.68
799.735	70.05
800.038	67.75
800.341	67.45
800.644	70.71
800.947	66.48
801.25	69.65
801.553	65.57
801.856	71.07
802.159	65.63
802.462	64.64
802.764	70.67
803.067	69.43
803.37	68.07
803.672	69.23
803.975	69.31
804.277	73.42
804.579	68.84
804.882	71.24
805.184	77.06
805.486	74.66
805.788	68.36
806.09	64.57
806.392	69.63
806.694	66.41
806.996	73.35
807.298	67.62
807.6	71.34
807.902	65.07
808.203	71.6
808.505	68.36
808.807	64.73
809.108	70.89
809.409	71.15
809.711	65.4
810.012	68.08
810.313	67.43
810.615	68.85
810.916	73.21
811.217	73.3
811.518	67.76
811.819	64.98
812.12	69.1
812.421	66.11
812.722	66.9
813.023	67.95
813.323	63.69
813.624	67.4
813.925	73.35
814.225	63.42
814.526	68.62
814.826	75.59
815.126	76.47
815.427	73.4
815.727	70.79
816.027	74.45
816.327	69.57
816.627	73.92
816.927	73.92
817.227	69.18
817.527	71.78
817.827	71.93
818.127	63.63
818.427	71.13
818.727	69.57
819.026	65.15
819.326	75.66
819.625	68.65
819.925	70.71
820.224	72.54
820.524	68.64
820.823	75.82
821.122	67.54
821.421	70.7
821.72	74.72
822.019	71.91
822.318	68.7
822.617	75.88
822.916	76.19
823.215	71.75
823.514	72.83
823.813	73.18
824.111	71.8
824.41	70.55
824.709	70.97
825.007	72.14
825.306	71.75
825.604	70.58
825.902	71.65
826.201	70.12
826.499	71.06
826.797	68.45
827.095	69.28
827.393	70.67
827.691	69.68
827.989	70.51
828.287	68.84
828.585	69
828.882	69.65
829.18	70.15
829.478	69.41
829.775	71.11
830.073	69.27
830.37	69.6
830.668	72.67
830.965	69.15
831.263	69.48
831.56	69.36
831.857	70.28
832.154	70.06
832.451	68.62
832.748	71.1
833.045	67.69
833.342	70.63
833.639	68.29
833.936	69.56
834.232	73.15
834.529	70.15
834.826	73.34
835.122	69.6
835.419	69.68
835.715	69.72
836.012	65.49
836.308	71.16
836.604	68.3
836.901	72.98
837.197	70.86
837.493	71.47
837.789	69.38
838.085	70.91
838.381	69.84
838.677	68.5
838.972	67.18
839.268	70.51
839.564	71.16
839.86	68.66
840.155	70.56
840.451	72.66
840.746	76.56
841.042	78.04
841.337	72.16
841.632	73.75
841.928	72.72
842.223	71.83
842.518	64.19
842.813	66.13
843.108	65.91
843.403	78.14
843.698	71.24
843.993	67.1
844.287	66.12
844.582	70.93
844.877	70.08
845.171	69.25
845.466	71.38
845.761	76.2
846.055	68.03
846.349	71.63
846.644	74.65
846.938	70.06
847.232	71.53
847.526	72.93
847.82	59.66
848.114	78.07
848.408	68.4
848.702	75.92
848.996	75.83
849.29	69.92
849.584	65.24
849.877	74.21
850.171	64.89
850.465	70.8
850.758	58.18
851.052	66.72
851.345	66.59
851.638	58.13
851.932	55.05
852.225	76.92
852.518	60.12
852.811	71.45
853.104	98.18
853.397	54.49
853.69	64.9
853.983	86.97
854.276	72.12
854.569	66.24
854.861	54.74
855.154	86.89
855.447	76.19
855.739	91.51
856.032	75.56
856.324	70
856.616	45.53
856.909	62.27
857.201	42.57
857.493	78.23
857.785	67.41
858.077	68.35
858.369	60.05
858.661	72.4
858.953	59.08
859.245	73.62
859.537	60.67
859.829	71.88
860.12	90.82
860.412	61.14
860.703	82.42
860.995	77.17
861.286	86.08
861.578	82.33
861.869	52.25
862.16	96.34
862.452	74.25
862.743	59.44
863.034	80.36
863.325	74.45
863.616	60.04
863.907	70.73
864.198	68.74
864.488	76.93
864.779	66.1
865.07	80.25
865.36	51.45
865.651	79.06
865.941	75.33
866.232	77.44
866.522	89.8
866.813	76.57
867.103	62.83
867.393	70.75
867.683	58.18
867.973	87.24
868.263	91.26
868.553	83.06
868.843	62.83
869.133	70.19
869.423	68.55
869.713	100.77
870.002	75.33
870.292	58.81
870.582	73.32
870.871	45.3
871.161	64.92
871.45	99.58
871.739	64.66
872.029	27.19
872.318	84.65
872.607	100.08
872.896	73.83
873.185	86.52
873.474	86.41
873.763	67.69
874.052	78.83
874.341	74.08
874.63	63.73
874.918	46.69
875.207	86.95
875.496	72.22
875.784	82.75
876.073	72.6
876.361	63.26
876.649	68.22
876.938	48.74
877.226	64.08
877.514	84.41
877.802	64.83
878.09	68.86
878.378	73.55
878.666	71.14
878.954	77.62
879.242	59.62
879.53	62.75
879.817	56.46
880.105	107.39
880.392	68.32
880.68	80.45
880.967	51.98
881.255	67.44
881.542	69.13
881.83	67.33
882.117	84.84
882.404	34.51
882.691	61.93
882.978	69.62
883.265	73.93
883.552	72.54
883.839	42.16
884.126	53.41
884.413	70.75
884.699	78.55
884.986	73.65
885.273	70.12
885.559	70.12
885.846	70.12
