Data from 0049_chest_Reflection__2__198.txt Node

Date: Fri Nov 04 16:28:59 CDT 2022
User: ToomeyLab
Spectrometer: FLMS14357
Trigger mode: 0
Integration Time (sec): 1.000000E-2
Scans to average: 100
Electric dark correction enabled: true
Nonlinearity correction enabled: false
Boxcar width: 0
XAxis mode: Wavelengths
Number of Pixels in Spectrum: 2048
>>>>>Begin Spectral Data<<<<<
189.047	-107.68
189.435	-107.68
189.823	-107.68
190.211	66.99
190.599	90.9
190.987	176.1
191.375	-17.96
191.763	15.24
192.151	-411.15
192.538	64.55
192.926	39.75
193.314	4.64
193.702	118.06
194.089	411.55
194.477	647.01
194.864	11.17
195.252	406.7
195.639	154.21
196.027	59.43
196.414	-169.71
196.801	125.88
197.189	1408.37
197.576	141
197.963	-269.22
198.351	11.43
198.738	15.06
199.125	26.84
199.512	-60.53
199.899	0.29
200.286	-51.62
200.673	12.75
201.06	8.82
201.447	3.16
201.833	2.55
202.22	-1.37
202.607	4.77
202.994	23.28
203.38	35.38
203.767	23.14
204.154	20.43
204.54	-25.88
204.927	8.41
205.313	29.9
205.699	62.58
206.086	4.97
206.472	-18.41
206.858	-17.88
207.245	26.69
207.631	15.97
208.017	18.58
208.403	-13.87
208.789	38.99
209.175	-6.54
209.561	13.83
209.947	-25.81
210.333	7.8
210.719	-13.34
211.105	-42.79
211.491	-0.94
211.876	-20.71
212.262	22.97
212.648	-28.39
213.034	10
213.419	-8.48
213.805	-31.67
214.19	-43.01
214.576	-1.44
214.961	20.98
215.346	-11.77
215.732	12.83
216.117	6.25
216.502	-1.59
216.888	-6.38
217.273	16.53
217.658	8.76
218.043	0.05
218.428	14.29
218.813	-7.57
219.198	-1.98
219.583	-30.72
219.968	20.61
220.353	-12.19
220.738	-26.91
221.122	-7.33
221.507	3.96
221.892	-17.36
222.276	-6.06
222.661	0.9
223.046	-4.37
223.43	-3.31
223.815	-0.66
224.199	10.83
224.583	3.22
224.968	-0.04
225.352	-1.23
225.736	-0.81
226.121	-7.36
226.505	10.15
226.889	-4.33
227.273	2.26
227.657	-4.49
228.041	7.03
228.425	2
228.809	3.63
229.193	3.39
229.577	1.39
229.961	4.41
230.344	4
230.728	3.25
231.112	2.98
231.495	3.25
231.879	4.12
232.263	1.12
232.646	1.84
233.03	2.13
233.413	2.1
233.797	2.65
234.18	2.05
234.563	3.02
234.946	2.2
235.33	3.34
235.713	2.3
236.096	3.93
236.479	1.42
236.862	2.64
237.245	0.91
237.628	3
238.011	0.54
238.394	4.71
238.777	2.27
239.16	2.92
239.543	3.6
239.925	3.25
240.308	4.21
240.691	3.53
241.073	2.76
241.456	1.92
241.838	2.61
242.221	2.4
242.603	3.63
242.986	1.92
243.368	2.98
243.75	3.22
244.133	3.28
244.515	2.97
244.897	2.92
245.279	2.68
245.661	3.06
246.043	2.75
246.425	2.86
246.807	4.23
247.189	3.16
247.571	4.08
247.953	3.48
248.335	2.79
248.717	3.1
249.098	2.96
249.48	2.86
249.862	3.18
250.243	2.91
250.625	2.61
251.006	2.62
251.388	2.47
251.769	3.59
252.151	4.11
252.532	3.19
252.913	3.14
253.295	3.33
253.676	2.61
254.057	2.52
254.438	2.96
254.819	2.87
255.2	2.53
255.581	3.36
255.962	3.86
256.343	2.76
256.724	2.47
257.105	2.7
257.486	3.32
257.867	5.04
258.247	2.34
258.628	2.45
259.009	2.6
259.389	3.31
259.77	3.33
260.15	2.94
260.531	3.29
260.911	2.23
261.292	2.87
261.672	2.88
262.052	2.82
262.432	2.84
262.813	2.35
263.193	2.59
263.573	3.57
263.953	3.35
264.333	3.36
264.713	2.94
265.093	3.01
265.473	3.27
265.853	1.94
266.233	2.79
266.612	3.18
266.992	2.99
267.372	1.91
267.752	2.72
268.131	3.07
268.511	2.78
268.89	3.52
269.27	2.62
269.649	2.82
270.029	2.42
270.408	3.13
270.787	3
271.167	2.62
271.546	3.51
271.925	2.55
272.304	2.51
272.683	2.6
273.062	2.74
273.441	2.94
273.82	2.6
274.199	2.81
274.578	2.32
274.957	2.76
275.336	2.31
275.715	2.57
276.093	2.74
276.472	2.59
276.851	2.3
277.229	2.47
277.608	2.75
277.986	2.94
278.365	2.98
278.743	3.02
279.122	2.55
279.5	2.52
279.878	2.81
280.257	2.2
280.635	2.15
281.013	2.27
281.391	3.02
281.769	2.51
282.147	2.43
282.525	2.8
282.903	2.48
283.281	3.06
283.659	2.71
284.037	2.4
284.415	2.28
284.792	2.95
285.17	2.15
285.548	2.78
285.925	2.94
286.303	2.91
286.68	2.89
287.058	2.75
287.435	2.41
287.813	2.44
288.19	2.48
288.567	2.48
288.945	2.57
289.322	2.7
289.699	2.44
290.076	2.6
290.453	2.2
290.83	2.79
291.207	2.69
291.584	2.76
291.961	2.67
292.338	2.7
292.715	2.82
293.092	2.9
293.469	2.7
293.845	2.8
294.222	2.62
294.599	2.53
294.975	2.78
295.352	2.58
295.728	3.16
296.105	2.9
296.481	2.55
296.858	2.88
297.234	2.99
297.61	2.98
297.986	2.91
298.363	2.4
298.739	2.79
299.115	2.82
299.491	2.77
299.867	2.92
300.243	2.85
300.619	3.04
300.995	2.9
301.371	3.49
301.746	3.22
302.122	2.87
302.498	2.96
302.874	3.02
303.249	2.6
303.625	2.56
304	3.01
304.376	2.68
304.751	3.05
305.127	2
305.502	2.63
305.878	3.23
306.253	2.97
306.628	2.4
307.003	2.65
307.378	3.05
307.754	2.89
308.129	2.66
308.504	3.2
308.879	3.16
309.254	2.85
309.629	3.08
310.003	3.44
310.378	3.17
310.753	3.27
311.128	2.57
311.502	2.75
311.877	2.97
312.252	2.63
312.626	3.11
313.001	3.14
313.375	2.88
313.75	2.93
314.124	2.84
314.498	2.8
314.873	3.14
315.247	3.12
315.621	2.78
315.995	3.13
316.369	2.66
316.743	3.09
317.117	3.4
317.491	3.25
317.865	2.79
318.239	2.91
318.613	3.73
318.987	2.89
319.361	2.98
319.734	3.42
320.108	2.74
320.482	1.97
320.855	2.66
321.229	3.24
321.602	2.81
321.976	2.55
322.349	3.52
322.723	3.06
323.096	3.17
323.469	2.89
323.843	2.94
324.216	2.59
324.589	3.26
324.962	2.94
325.335	2.98
325.708	2.94
326.081	2.9
326.454	2.94
326.827	3.08
327.2	3.04
327.573	2.98
327.945	3.34
328.318	2.57
328.691	2.9
329.063	2.73
329.436	2.87
329.809	3.17
330.181	3.06
330.553	2.82
330.926	2.9
331.298	3.26
331.671	2.92
332.043	2.95
332.415	2.84
332.787	2.68
333.159	2.78
333.532	2.44
333.904	3.61
334.276	3.29
334.648	3.37
335.02	2.51
335.391	3.14
335.763	2.92
336.135	3.11
336.507	3.07
336.879	3.15
337.25	3.51
337.622	3.07
337.993	3.34
338.365	2.89
338.736	3.42
339.108	3.14
339.479	3.16
339.851	2.74
340.222	3.11
340.593	2.7
340.964	3.12
341.336	3.06
341.707	2.79
342.078	3.33
342.449	3.16
342.82	3.09
343.191	2.98
343.562	3.09
343.933	3.52
344.303	3.34
344.674	3.24
345.045	3.07
345.416	2.93
345.786	3.11
346.157	3.17
346.527	3.2
346.898	3.29
347.268	3.18
347.639	3.34
348.009	3.47
348.38	3.22
348.75	2.99
349.12	2.83
349.49	2.94
349.861	2.82
350.231	3.44
350.601	3.08
350.971	2.55
351.341	3.32
351.711	3.3
352.081	3.12
352.45	3.3
352.82	2.87
353.19	3.04
353.56	2.82
353.929	2.99
354.299	3.45
354.669	3.31
355.038	3.32
355.408	2.8
355.777	3.37
356.147	3.09
356.516	2.82
356.885	3.2
357.254	3.37
357.624	3.35
357.993	3.1
358.362	3.01
358.731	2.93
359.1	3.16
359.469	3.22
359.838	3.29
360.207	3.09
360.576	3.24
360.945	3.29
361.314	3.3
361.682	3.26
362.051	3.19
362.42	3.17
362.788	3.06
363.157	3.03
363.525	3.38
363.894	3.14
364.262	3.12
364.631	3.24
364.999	3.05
365.367	3
365.735	3.41
366.104	3.01
366.472	3.4
366.84	2.85
367.208	3.27
367.576	2.83
367.944	3.35
368.312	3.26
368.68	3.15
369.048	2.93
369.416	3.33
369.783	3.27
370.151	3.03
370.519	3.86
370.886	3.2
371.254	3.27
371.621	3.29
371.989	3.37
372.356	3.06
372.724	3.47
373.091	3.36
373.458	3.4
373.826	3.29
374.193	2.99
374.56	2.98
374.927	3.45
375.294	3.12
375.661	3.27
376.028	3.12
376.395	3.25
376.762	3.25
377.129	3.4
377.496	3.36
377.863	3.22
378.229	2.88
378.596	3.18
378.963	3.01
379.329	2.96
379.696	3.09
380.062	3.3
380.429	3.23
380.795	3.18
381.161	2.88
381.528	3.32
381.894	2.89
382.26	3.28
382.626	3.11
382.993	3.23
383.359	3.22
383.725	3
384.091	3.46
384.457	3.03
384.823	3.24
385.188	3.14
385.554	3.3
385.92	3.31
386.286	3.19
386.651	3.33
387.017	3.02
387.383	3.45
387.748	3.18
388.114	3.16
388.479	3.84
388.845	3.49
389.21	3.4
389.575	3.65
389.94	3.29
390.306	3.35
390.671	3.39
391.036	3.34
391.401	3.57
391.766	3.01
392.131	3.27
392.496	3.45
392.861	3.46
393.226	3.26
393.591	3.41
393.956	3.58
394.32	3.23
394.685	3.61
395.05	3.47
395.414	3.46
395.779	3.27
396.143	3.35
396.508	3.38
396.872	3.33
397.236	3.33
397.601	3.21
397.965	3.49
398.329	3.46
398.694	3.7
399.058	3.54
399.422	3.47
399.786	3.29
400.15	3.56
400.514	3.46
400.878	3.55
401.242	3.37
401.605	3.31
401.969	3.4
402.333	3.41
402.697	3.32
403.06	3.55
403.424	3.44
403.787	3.14
404.151	3.44
404.514	3.51
404.878	3.55
405.241	3.49
405.604	3.45
405.968	3.29
406.331	3.34
406.694	3.23
407.057	3.38
407.42	3.3
407.783	3.34
408.146	3.5
408.509	3.67
408.872	3.41
409.235	3.49
409.598	3.57
409.961	3.61
410.323	3.3
410.686	3.3
411.049	3.33
411.411	3.48
411.774	3.63
412.136	3.68
412.499	3.52
412.861	3.61
413.223	3.34
413.586	3.37
413.948	3.52
414.31	3.36
414.672	3.54
415.035	3.61
415.397	3.52
415.759	3.59
416.121	3.4
416.483	3.53
416.845	3.35
417.206	3.48
417.568	3.67
417.93	3.44
418.292	3.53
418.653	3.47
419.015	3.4
419.377	3.35
419.738	3.52
420.1	3.47
420.461	3.52
420.822	3.4
421.184	3.38
421.545	3.28
421.906	3.38
422.267	3.28
422.629	3.44
422.99	3.44
423.351	3.33
423.712	3.34
424.073	3.48
424.434	3.4
424.795	3.42
425.155	3.58
425.516	3.42
425.877	3.35
426.238	3.43
426.598	3.41
426.959	3.36
427.32	3.43
427.68	3.45
428.041	3.44
428.401	3.48
428.761	3.55
429.122	3.51
429.482	3.48
429.842	3.42
430.202	3.67
430.563	3.48
430.923	3.75
431.283	3.49
431.643	3.6
432.003	3.67
432.363	3.44
432.722	3.4
433.082	3.62
433.442	3.5
433.802	3.46
434.161	3.63
434.521	3.58
434.881	3.44
435.24	3.42
435.6	3.72
435.959	3.52
436.319	3.57
436.678	3.53
437.037	3.55
437.396	3.76
437.756	3.65
438.115	3.47
438.474	3.57
438.833	3.75
439.192	3.5
439.551	3.63
439.91	3.66
440.269	3.54
440.628	3.6
440.987	3.55
441.345	3.57
441.704	3.64
442.063	3.49
442.421	3.67
442.78	3.59
443.138	3.64
443.497	3.54
443.855	3.47
444.214	3.68
444.572	3.55
444.93	3.47
445.288	3.72
445.647	3.56
446.005	3.56
446.363	3.55
446.721	3.65
447.079	3.52
447.437	3.53
447.795	3.58
448.153	3.48
448.51	3.53
448.868	3.57
449.226	3.51
449.584	3.68
449.941	3.55
450.299	3.67
450.656	3.49
451.014	3.77
451.371	3.73
451.729	3.71
452.086	3.54
452.443	3.62
452.801	3.8
453.158	3.76
453.515	3.76
453.872	3.63
454.229	3.68
454.586	3.63
454.943	3.64
455.3	3.7
455.657	3.63
456.014	3.66
456.371	3.69
456.727	3.7
457.084	3.82
457.441	3.61
457.797	3.61
458.154	3.69
458.51	3.72
458.867	3.61
459.223	3.7
459.58	3.97
459.936	3.64
460.292	3.7
460.648	3.8
461.005	3.62
461.361	3.66
461.717	3.73
462.073	3.74
462.429	3.75
462.785	3.61
463.141	3.81
463.496	3.65
463.852	3.8
464.208	3.7
464.564	3.74
464.919	3.89
465.275	3.71
465.631	3.95
465.986	3.96
466.342	3.68
466.697	3.81
467.052	3.74
467.408	3.83
467.763	3.79
468.118	3.87
468.473	3.88
468.829	3.69
469.184	3.72
469.539	3.8
469.894	3.79
470.249	3.8
470.603	3.82
470.958	3.86
471.313	3.74
471.668	3.68
472.023	3.71
472.377	3.89
472.732	3.89
473.086	3.84
473.441	3.71
473.795	3.82
474.15	3.72
474.504	3.86
474.859	3.83
475.213	3.88
475.567	3.76
475.921	3.85
476.275	3.85
476.63	3.91
476.984	3.82
477.338	3.83
477.692	3.9
478.045	3.86
478.399	3.85
478.753	3.89
479.107	4
479.461	3.98
479.814	4
480.168	3.98
480.521	3.74
480.875	3.98
481.228	3.93
481.582	4
481.935	3.89
482.289	3.92
482.642	3.93
482.995	3.93
483.348	3.82
483.701	3.94
484.055	3.72
484.408	3.87
484.761	3.87
485.114	3.75
485.466	3.72
485.819	3.65
486.172	3.69
486.525	3.71
486.878	3.76
487.23	3.81
487.583	3.85
487.936	3.86
488.288	3.82
488.641	3.83
488.993	3.84
489.345	3.77
489.698	3.78
490.05	3.82
490.402	3.78
490.754	3.83
491.107	3.89
491.459	3.92
491.811	3.87
492.163	4.01
492.515	3.95
492.866	3.88
493.218	3.85
493.57	3.81
493.922	3.87
494.274	3.89
494.625	3.98
494.977	3.99
495.328	4.08
495.68	3.98
496.031	4.06
496.383	4.09
496.734	4.01
497.086	4.23
497.437	4.14
497.788	4.18
498.139	4.01
498.49	4.02
498.842	4.08
499.193	4.1
499.544	4.15
499.894	3.98
500.245	4.14
500.596	4.2
500.947	4.15
501.298	4.17
501.648	4.22
501.999	4.28
502.35	4.04
502.7	4.09
503.051	4.21
503.401	4.23
503.752	4.17
504.102	4.1
504.452	4.26
504.803	4.22
505.153	4.16
505.503	4.22
505.853	4.3
506.203	4.22
506.553	4.3
506.903	4.19
507.253	4.23
507.603	4.18
507.953	4.21
508.303	4.34
508.652	4.17
509.002	4.39
509.352	4.34
509.701	4.25
510.051	4.21
510.4	4.31
510.75	4.31
511.099	4.31
511.449	4.29
511.798	4.34
512.147	4.39
512.496	4.29
512.846	4.13
513.195	4.38
513.544	4.26
513.893	4.28
514.242	4.26
514.591	4.18
514.939	4.45
515.288	4.42
515.637	4.41
515.986	4.41
516.334	4.41
516.683	4.34
517.032	4.41
517.38	4.48
517.729	4.48
518.077	4.5
518.426	4.35
518.774	4.51
519.122	4.39
519.47	4.4
519.819	4.34
520.167	4.41
520.515	4.37
520.863	4.39
521.211	4.43
521.559	4.46
521.907	4.46
522.255	4.57
522.602	4.45
522.95	4.51
523.298	4.62
523.645	4.63
523.993	4.65
524.341	4.65
524.688	4.73
525.036	4.59
525.383	4.68
525.73	4.64
526.078	4.69
526.425	4.63
526.772	4.56
527.119	4.67
527.466	4.62
527.814	4.58
528.161	4.57
528.508	4.58
528.854	4.59
529.201	4.57
529.548	4.56
529.895	4.56
530.242	4.44
530.588	4.5
530.935	4.5
531.282	4.54
531.628	4.54
531.975	4.59
532.321	4.7
532.667	4.69
533.014	4.74
533.36	4.85
533.706	4.89
534.052	4.8
534.399	4.72
534.745	4.76
535.091	4.7
535.437	4.75
535.783	4.71
536.129	4.85
536.474	4.92
536.82	4.84
537.166	4.89
537.512	5.02
537.857	5.02
538.203	4.91
538.549	4.84
538.894	4.94
539.239	4.97
539.585	4.87
539.93	5
540.276	4.96
540.621	5.05
540.966	5.09
541.311	4.95
541.656	5.02
542.001	5.1
542.346	5.02
542.691	5.08
543.036	4.94
543.381	4.96
543.726	5.01
544.071	5.05
544.415	5.08
544.76	5.14
545.105	5.09
545.449	5.16
545.794	5.21
546.138	5.19
546.483	5.3
546.827	5.33
547.171	5.28
547.516	5.29
547.86	5.3
548.204	5.36
548.548	5.3
548.892	5.32
549.236	5.45
549.58	5.38
549.924	5.43
550.268	5.55
550.612	5.47
550.956	5.6
551.3	5.55
551.643	5.7
551.987	5.57
552.33	5.62
552.674	5.51
553.017	5.8
553.361	5.85
553.704	5.57
554.048	5.69
554.391	5.66
554.734	5.69
555.077	5.77
555.42	5.75
555.764	5.8
556.107	5.81
556.45	5.86
556.793	5.91
557.135	5.96
557.478	5.96
557.821	6.01
558.164	5.9
558.507	5.92
558.849	5.89
559.192	5.99
559.534	5.91
559.877	5.99
560.219	6.02
560.562	6.16
560.904	6.08
561.246	6.07
561.589	6.07
561.931	6.04
562.273	6.22
562.615	6.16
562.957	6.11
563.299	6
563.641	6.29
563.983	6.2
564.325	6.16
564.667	6.13
565.008	6.21
565.35	6.36
565.692	6.63
566.033	6.51
566.375	6.35
566.716	6.36
567.058	6.36
567.399	6.61
567.741	6.5
568.082	6.62
568.423	6.47
568.764	6.37
569.105	6.51
569.447	6.64
569.788	6.5
570.129	6.6
570.47	6.67
570.811	6.87
571.151	6.6
571.492	6.81
571.833	6.63
572.174	6.87
572.514	6.76
572.855	6.63
573.195	6.84
573.536	6.75
573.876	6.81
574.217	6.75
574.557	6.91
574.898	6.78
575.238	6.83
575.578	7.05
575.918	6.93
576.258	7.04
576.598	7.12
576.938	7.15
577.278	6.99
577.618	6.97
577.958	7.04
578.298	7.16
578.638	7.13
578.977	7.35
579.317	7.36
579.657	7.21
579.996	7.31
580.336	7.39
580.675	7.14
581.014	7.68
581.354	7.58
581.693	7.65
582.032	7.42
582.372	7.91
582.711	7.56
583.05	7.65
583.389	7.43
583.728	7.62
584.067	7.74
584.406	7.66
584.745	7.95
585.083	7.71
585.422	7.83
585.761	7.8
586.1	7.82
586.438	7.63
586.777	7.92
587.115	7.81
587.454	8.05
587.792	8.05
588.13	7.99
588.469	7.96
588.807	8.44
589.145	8.03
589.483	7.92
589.821	8.29
590.159	7.95
590.497	8.43
590.835	8.08
591.173	7.91
591.511	8.38
591.849	8.34
592.187	8.21
592.524	8.5
592.862	8.42
593.2	8.44
593.537	8.62
593.875	8.36
594.212	8.69
594.55	8.35
594.887	8.48
595.224	8.72
595.561	8.41
595.899	8.5
596.236	8.75
596.573	8.6
596.91	8.62
597.247	8.61
597.584	8.67
597.921	8.85
598.258	8.75
598.594	8.42
598.931	8.82
599.268	8.83
599.604	8.84
599.941	8.76
600.277	8.94
600.614	9.12
600.95	9.14
601.287	8.94
601.623	9
601.959	9.2
602.296	9.31
602.632	9.32
602.968	9.24
603.304	9.2
603.64	9.27
603.976	9.15
604.312	9.32
604.648	9.41
604.984	9.18
605.319	9.32
605.655	9.42
605.991	9.64
606.326	9.36
606.662	9.35
606.998	9.36
607.333	9.56
607.668	9.49
608.004	9.64
608.339	9.62
608.674	9.66
609.01	9.63
609.345	9.68
609.68	9.67
610.015	9.81
610.35	9.85
610.685	9.88
611.02	9.85
611.355	9.85
611.689	9.99
612.024	9.98
612.359	10.02
612.694	9.84
613.028	10.26
613.363	10.19
613.697	10.21
614.032	9.92
614.366	10.1
614.7	9.87
615.035	10.56
615.369	10.39
615.703	10.68
616.037	10.06
616.371	10.42
616.705	10.55
617.039	10.47
617.373	10.79
617.707	10.56
618.041	10.88
618.375	10.6
618.709	10.52
619.042	10.75
619.376	11.06
619.71	10.8
620.043	10.85
620.377	11.01
620.71	11.31
621.043	11.04
621.377	10.76
621.71	11.2
622.043	11.27
622.376	11.13
622.709	11.22
623.043	11.3
623.376	11.6
623.709	11.08
624.041	11.06
624.374	10.91
624.707	11.07
625.04	11.29
625.373	11.31
625.705	11.05
626.038	11.29
626.37	11.53
626.703	11.72
627.035	11.77
627.368	11.49
627.7	11.37
628.032	11.41
628.365	11.88
628.697	11.48
629.029	11.54
629.361	11.42
629.693	11.86
630.025	11.98
630.357	11.86
630.689	11.88
631.021	11.96
631.353	11.93
631.684	11.97
632.016	12.05
632.348	12
632.679	11.84
633.011	11.77
633.342	11.86
633.674	12.15
634.005	12.35
634.336	12.45
634.668	12.25
634.999	12.16
635.33	12.07
635.661	12.6
635.992	12.41
636.323	12.59
636.654	12.2
636.985	12.49
637.316	12.19
637.647	12.31
637.977	12.76
638.308	12.85
638.639	12.61
638.969	12.83
639.3	12.96
639.63	12.84
639.961	13.03
640.291	13.01
640.622	12.91
640.952	13
641.282	12.6
641.612	13.15
641.943	12.94
642.273	12.86
642.603	12.78
642.933	13.38
643.263	12.62
643.592	12.77
643.922	13.91
644.252	13.55
644.582	13.38
644.911	13.52
645.241	13.21
645.571	13.33
645.9	13.11
646.23	13.4
646.559	13.64
646.888	13.36
647.218	13.91
647.547	14.02
647.876	14.28
648.205	13.26
648.534	13.72
648.863	13.66
649.192	13.81
649.521	14.04
649.85	14.53
650.179	14.33
650.508	13.85
650.837	14.24
651.165	14.04
651.494	13.97
651.822	14.26
652.151	14.29
652.479	13.97
652.808	13.75
653.136	14.33
653.465	14.15
653.793	14.5
654.121	13.95
654.449	13.84
654.777	14.1
655.105	14.36
655.433	14.31
655.761	14.23
656.089	14.43
656.417	14.27
656.745	14.45
657.073	15.01
657.4	14.69
657.728	14.55
658.056	14.31
658.383	14.83
658.711	14.52
659.038	15.03
659.365	15.46
659.693	15.36
660.02	15.27
660.347	14.84
660.674	14.93
661.001	14.78
661.329	14.74
661.656	14.89
661.982	14.63
662.309	15.05
662.636	15.21
662.963	14.72
663.29	14.76
663.616	15.3
663.943	15.28
664.27	15.51
664.596	14.81
664.923	15.36
665.249	15.29
665.576	15.21
665.902	15.11
666.228	15.36
666.554	16.05
666.881	15.6
667.207	15.61
667.533	15.63
667.859	16.06
668.185	15.46
668.511	16.1
668.837	15.77
669.162	15.72
669.488	15.33
669.814	16.24
670.139	15.93
670.465	16.17
670.791	15.84
671.116	15.31
671.442	16.17
671.767	15.76
672.092	16.11
672.418	15.74
672.743	16.62
673.068	15.98
673.393	16.22
673.718	16.53
674.043	16.35
674.368	15.89
674.693	16.21
675.018	16.05
675.343	16.64
675.667	16.53
675.992	16.32
676.317	16.12
676.641	16.55
676.966	16.49
677.29	17.08
677.615	16.39
677.939	16.76
678.264	17.19
678.588	16.91
678.912	17.8
679.236	17.03
679.56	16.48
679.885	16.58
680.209	17.43
680.532	16.99
680.856	16.79
681.18	17.18
681.504	17.44
681.828	16.89
682.152	17.32
682.475	17
682.799	17.41
683.122	17.3
683.446	17.13
683.769	17.27
684.093	18.16
684.416	16.93
684.739	17.14
685.062	17.66
685.386	17.28
685.709	17.45
686.032	17.59
686.355	18.56
686.678	18.14
687.001	17.85
687.324	17.65
687.646	17.9
687.969	17.78
688.292	17.8
688.614	18.59
688.937	17.82
689.26	18.39
689.582	18.44
689.904	17.83
690.227	18.11
690.549	18.48
690.871	18.5
691.194	17.99
691.516	18.57
691.838	17.66
692.16	18.32
692.482	18.16
692.804	17.83
693.126	18.69
693.448	17.88
693.769	18.66
694.091	18.24
694.413	17.69
694.735	18.49
695.056	18.19
695.378	18.77
695.699	19.34
696.021	19.36
696.342	18.74
696.663	18.23
696.984	18.3
697.306	18.45
697.627	19.41
697.948	17.88
698.269	19.25
698.59	18.71
698.911	19.01
699.232	18.88
699.553	19.5
699.873	18.88
700.194	19.38
700.515	18.8
700.835	19.28
701.156	19.05
701.477	19.5
701.797	18.97
702.117	18.86
702.438	19.47
702.758	19.41
703.078	20.07
703.398	19.6
703.719	19.06
704.039	19.38
704.359	19.98
704.679	19.47
704.999	19.32
705.319	19.46
705.638	19.98
705.958	19.66
706.278	19.68
706.597	20.54
706.917	19.32
707.237	20.01
707.556	20.33
707.876	19.11
708.195	19.19
708.514	19.98
708.834	19.57
709.153	20.24
709.472	20.37
709.791	20.19
710.11	20
710.429	21.31
710.748	20.09
711.067	20.5
711.386	18.99
711.705	20.16
712.023	19.99
712.342	20.94
712.661	19.79
712.979	20.22
713.298	20.21
713.616	21.07
713.935	20.3
714.253	20.99
714.572	20.02
714.89	21
715.208	21
715.526	20.96
715.844	20.83
716.162	20.86
716.48	20.7
716.798	20.58
717.116	20.75
717.434	20.36
717.752	20.69
718.069	20.59
718.387	19.95
718.705	20.55
719.022	21.27
719.34	21.17
719.657	21.45
719.975	20.74
720.292	21.6
720.609	22.03
720.927	21
721.244	19.89
721.561	20.8
721.878	21.33
722.195	22.39
722.512	21.54
722.829	21.93
723.146	21.3
723.463	22.09
723.779	23.14
724.096	22.25
724.413	20.46
724.729	23.08
725.046	20.52
725.362	22.08
725.679	21.89
725.995	21.49
726.311	21.76
726.628	21.58
726.944	21.65
727.26	22.25
727.576	22.27
727.892	22.8
728.208	22.85
728.524	21.4
728.84	21.46
729.156	22.04
729.472	22.9
729.787	22.63
730.103	21.5
730.419	22.81
730.734	21.31
731.05	21.72
731.365	22.59
731.681	21.76
731.996	23.02
732.311	22.6
732.626	22.84
732.942	22.92
733.257	21.77
733.572	24.36
733.887	23.16
734.202	22.65
734.517	21.81
734.832	24.99
735.146	22.65
735.461	23.55
735.776	22.58
736.091	23.81
736.405	23.52
736.72	22.87
737.034	21.77
737.349	23.76
737.663	22.94
737.977	24.37
738.292	24.1
738.606	23.89
738.92	23.96
739.234	23.8
739.548	23.61
739.862	24.95
740.176	23.73
740.49	22.56
740.804	22.97
741.117	23.2
741.431	22.91
741.745	24.02
742.058	24.64
742.372	23.43
742.685	23.01
742.999	23.68
743.312	23.68
743.626	23.13
743.939	24.42
744.252	24.97
744.565	22.86
744.878	24.94
745.191	24.91
745.505	23.66
745.817	24.15
746.13	21.62
746.443	26.73
746.756	22.65
747.069	24.25
747.381	25.73
747.694	24.73
748.007	23.69
748.319	24.69
748.632	23.85
748.944	25.5
749.256	25.89
749.569	24.94
749.881	24.48
750.193	25.97
750.505	25.76
750.817	25.8
751.129	24.58
751.441	24.81
751.753	25.08
752.065	24.4
752.377	24.21
752.689	24.86
753	24.66
753.312	26.35
753.624	25.61
753.935	25.83
754.247	27.23
754.558	24.48
754.869	24.61
755.181	25.21
755.492	25.44
755.803	26.54
756.114	27.39
756.425	25.3
756.736	28.09
757.047	26.42
757.358	25.73
757.669	26.07
757.98	24
758.291	24.97
758.601	26.24
758.912	25.41
759.223	27.73
759.533	27.84
759.844	24.9
760.154	25.51
760.464	26.1
760.775	26.19
761.085	26.35
761.395	25.76
761.705	26.27
762.016	25.88
762.326	26.94
762.636	27.27
762.945	25.92
763.255	25.81
763.565	27.46
763.875	26.63
764.185	25.72
764.494	27.02
764.804	27.65
765.113	27.73
765.423	27.62
765.732	27.27
766.042	27.68
766.351	27.34
766.66	26.95
766.97	26.15
767.279	27.48
767.588	27.82
767.897	25.69
768.206	26.36
768.515	26.21
768.824	26.94
769.133	27.82
769.441	28.15
769.75	25.82
770.059	26.79
770.367	26.7
770.676	28.48
770.984	29.6
771.293	28.36
771.601	27.58
771.91	27.28
772.218	27.45
772.526	24.61
772.834	26.96
773.142	29.16
773.45	26.8
773.758	28.39
774.066	28.11
774.374	29.16
774.682	28.05
774.99	28.96
775.298	25.95
775.605	28.29
775.913	26.04
776.22	29.79
776.528	30.95
776.835	26.34
777.143	28.63
777.45	29.37
777.757	30.07
778.065	27.69
778.372	28.23
778.679	29.36
778.986	27.97
779.293	28.45
779.6	26.68
779.907	28.8
780.214	25.89
780.52	30.77
780.827	27.85
781.134	26.86
781.44	26.02
781.747	28.35
782.053	29.61
782.36	26.45
782.666	26.09
782.973	28.91
783.279	30.58
783.585	27.38
783.891	32.93
784.197	27.96
784.503	25.27
784.809	31.13
785.115	28.49
785.421	31.38
785.727	27.68
786.033	28.26
786.339	28.98
786.644	27.1
786.95	27.44
787.255	26.09
787.561	29.96
787.866	28.54
788.172	28.06
788.477	26.85
788.782	27.78
789.088	26.47
789.393	28.62
789.698	26.21
790.003	30.26
790.308	29.21
790.613	27.29
790.918	32.43
791.223	29.25
791.527	28.41
791.832	30.41
792.137	29.17
792.441	30.69
792.746	28.85
793.05	31.12
793.355	31.31
793.659	26.61
793.963	29.69
794.268	28.49
794.572	31.69
794.876	26.54
795.18	31.57
795.484	27.68
795.788	30.26
796.092	29.54
796.396	31.92
796.7	29.33
797.004	30.71
797.307	32.67
797.611	30.74
797.915	31.57
798.218	27.36
798.522	31.12
798.825	28.12
799.128	27.42
799.432	32.05
799.735	33
800.038	28.93
800.341	28.95
800.644	29.44
800.947	29.5
801.25	31.82
801.553	32.83
801.856	33.3
802.159	31.4
802.462	29.55
802.764	35.3
803.067	29
803.37	26.5
803.672	31.5
803.975	33.26
804.277	33.54
804.579	29.29
804.882	30.94
805.184	25.85
805.486	30.28
805.788	32.53
806.09	32.76
806.392	23.88
806.694	23.5
806.996	28.45
807.298	30.34
807.6	30.21
807.902	32.65
808.203	30.91
808.505	30.49
808.807	29.14
809.108	37.02
809.409	37.16
809.711	29.45
810.012	33.79
810.313	33.4
810.615	30.99
810.916	28.76
811.217	34.52
811.518	36.8
811.819	29.4
812.12	27.95
812.421	30.59
812.722	31.02
813.023	31.59
813.323	33.6
813.624	34.86
813.925	37.54
814.225	32.66
814.526	38.05
814.826	29.01
815.126	31.67
815.427	34.17
815.727	31.14
816.027	25.7
816.327	34.49
816.627	31.39
816.927	32.83
817.227	33.24
817.527	30.39
817.827	36.31
818.127	32.71
818.427	30.65
818.727	35.9
819.026	35.27
819.326	28.64
819.625	30.34
819.925	31.06
820.224	35.81
820.524	36.57
820.823	35.24
821.122	32.86
821.421	32.36
821.72	35.89
822.019	33.41
822.318	37.34
822.617	34.84
822.916	34.36
823.215	38.55
823.514	34.5
823.813	33.94
824.111	35.06
824.41	32.5
824.709	36.04
825.007	35.03
825.306	34.94
825.604	35.42
825.902	36.06
826.201	35.99
826.499	34.66
826.797	35.45
827.095	34.99
827.393	33.37
827.691	36.46
827.989	33.72
828.287	35.36
828.585	35.4
828.882	35.8
829.18	33.64
829.478	35.34
829.775	36.78
830.073	36.92
830.37	36.23
830.668	35.35
830.965	35.6
831.263	36.2
831.56	33.36
831.857	34.63
832.154	35.74
832.451	34.75
832.748	36.57
833.045	35.2
833.342	33.92
833.639	38.44
833.936	34.14
834.232	29.68
834.529	40.68
834.826	35.86
835.122	34.71
835.419	35.89
835.715	31.33
836.012	42.16
836.308	34.83
836.604	35.58
836.901	38.67
837.197	35.5
837.493	34.97
837.789	34.62
838.085	37.22
838.381	35.97
838.677	34.88
838.972	31.77
839.268	34.79
839.564	34.63
839.86	34.18
840.155	32.78
840.451	41.02
840.746	40.32
841.042	33.56
841.337	30.99
841.632	34.06
841.928	31.02
842.223	38.35
842.518	30.47
842.813	32.35
843.108	37.3
843.403	34.39
843.698	34.66
843.993	32.22
844.287	35.78
844.582	37.36
844.877	35.52
845.171	29.39
845.466	28.55
845.761	24.68
846.055	40.81
846.349	33.37
846.644	34.59
846.938	23.71
847.232	14.78
847.526	27.05
847.82	25.83
848.114	46.49
848.408	46.01
848.702	40.36
848.996	31.34
849.29	30.34
849.584	35.62
849.877	16.33
850.171	38.9
850.465	35.19
850.758	35.99
851.052	32.05
851.345	26.03
851.638	32.64
851.932	35.74
852.225	25.66
852.518	45.07
852.811	36.35
853.104	46.32
853.397	10.44
853.69	29.53
853.983	38.9
854.276	46.01
854.569	23.64
854.861	17.49
855.154	16.8
855.447	7.23
855.739	41.44
856.032	36.6
856.324	36.26
856.616	34.82
856.909	25.39
857.201	32.68
857.493	48.11
857.785	18.73
858.077	37.81
858.369	52.48
858.661	38.8
858.953	13.66
859.245	23.64
859.537	33.79
859.829	54.64
860.12	38.42
860.412	50.97
860.703	8.19
860.995	15.44
861.286	38.97
861.578	47.89
861.869	27.4
862.16	55.63
862.452	22.04
862.743	31.9
863.034	37.76
863.325	43.99
863.616	31.97
863.907	15.77
864.198	44
864.488	19.46
864.779	54.31
865.07	55.07
865.36	27.28
865.651	12.59
865.941	20.46
866.232	37.07
866.522	50.31
866.813	47.93
867.103	51.91
867.393	47.49
867.683	23.08
867.973	16.5
868.263	26.71
868.553	29.03
868.843	31.92
869.133	38.91
869.423	33.1
869.713	35.42
870.002	43.74
870.292	33
870.582	24.81
870.871	13.75
871.161	37.11
871.45	32.97
871.739	47.42
872.029	53.66
872.318	29.49
872.607	18.18
872.896	43.58
873.185	30.48
873.474	29.81
873.763	42.88
874.052	40.94
874.341	35.15
874.63	55.21
874.918	71.61
875.207	48.53
875.496	44.36
875.784	46.05
876.073	38.3
876.361	24.69
876.649	12.07
876.938	31.61
877.226	38.81
877.514	69.4
877.802	34.97
878.09	49.41
878.378	70.66
878.666	38.07
878.954	32.68
879.242	49.86
879.53	38.43
879.817	24.58
880.105	34.29
880.392	45.78
880.68	-2.3
880.967	28.56
881.255	47.64
881.542	27.56
881.83	42.59
882.117	45.27
882.404	41.52
882.691	19.65
882.978	36.19
883.265	17.91
883.552	41.1
883.839	40.43
884.126	37
884.413	28.95
884.699	38.68
884.986	44.22
885.273	37.18
885.559	37.18
885.846	37.18
