Data from 0416_chest_Reflection__0__46.txt Node

Date: Fri Dec 15 16:44:22 CST 2023
User: ToomeyLab
Spectrometer: FLMS14357
Trigger mode: 0
Integration Time (sec): 1.000000E-2
Scans to average: 100
Electric dark correction enabled: true
Nonlinearity correction enabled: false
Boxcar width: 0
XAxis mode: Wavelengths
Number of Pixels in Spectrum: 2048
>>>>>Begin Spectral Data<<<<<
189.047	72.17
189.435	72.17
189.823	72.17
190.211	-265.54
190.599	241.92
190.987	89.66
191.375	36.01
191.763	78.25
192.151	29.32
192.538	75.46
192.926	29.46
193.314	105.37
193.702	-42.44
194.089	-167.27
194.477	-203.26
194.864	696.23
195.252	84.57
195.639	117.88
196.027	64.76
196.414	153.31
196.801	213.6
197.189	418.79
197.576	115.64
197.963	29.86
198.351	-108.03
198.738	-25.73
199.125	59.93
199.512	-7.56
199.899	65.93
200.286	12.37
200.673	-12.69
201.06	-27.25
201.447	-10.32
201.833	6.12
202.22	40.2
202.607	36.86
202.994	13.75
203.38	25.5
203.767	-9.2
204.154	45.71
204.54	62.57
204.927	-16.32
205.313	-34.65
205.699	31.01
206.086	55.42
206.472	36.57
206.858	43.1
207.245	-21.72
207.631	56.96
208.017	15.65
208.403	-3.73
208.789	48.72
209.175	27.72
209.561	0.35
209.947	50.43
210.333	-9.06
210.719	59.72
211.105	35.98
211.491	11.79
211.876	27.51
212.262	53.87
212.648	18.24
213.034	38.19
213.419	-2.92
213.805	24.76
214.19	-14.29
214.576	26.82
214.961	-0.91
215.346	-7.27
215.732	25.86
216.117	-0.88
216.502	19.06
216.888	9.68
217.273	32.66
217.658	29.54
218.043	27.02
218.428	-1.39
218.813	13.14
219.198	5.66
219.583	-0.07
219.968	17.9
220.353	5.22
220.738	23.31
221.122	22.58
221.507	-9.16
221.892	-15.32
222.276	-4.28
222.661	19.37
223.046	24.2
223.43	11.57
223.815	-4.88
224.199	-3.29
224.583	8.41
224.968	12.56
225.352	17.81
225.736	8.8
226.121	0.74
226.505	5.59
226.889	7.3
227.273	5.41
227.657	10.52
228.041	6.13
228.425	7.26
228.809	10.79
229.193	10.01
229.577	6.4
229.961	5.02
230.344	4.24
230.728	5.72
231.112	6.05
231.495	5.64
231.879	4.57
232.263	6.69
232.646	6.48
233.03	7.72
233.413	5.61
233.797	6.62
234.18	6.54
234.563	4.95
234.946	5.47
235.33	7.5
235.713	6.89
236.096	5.17
236.479	5.89
236.862	2.41
237.245	6.64
237.628	5.29
238.011	7.04
238.394	3.7
238.777	7.81
239.16	5.18
239.543	5.66
239.925	7.1
240.308	6.61
240.691	7.48
241.073	7.08
241.456	4.37
241.838	5.54
242.221	4.17
242.603	6
242.986	4.53
243.368	5.38
243.75	5.47
244.133	5.45
244.515	5.49
244.897	5.72
245.279	4.94
245.661	4.81
246.043	4.18
246.425	4.1
246.807	5.28
247.189	5.35
247.571	6
247.953	5.21
248.335	5.02
248.717	5.14
249.098	4.53
249.48	5.01
249.862	4.66
250.243	5.16
250.625	4.89
251.006	4.9
251.388	3.95
251.769	4.83
252.151	6.17
252.532	5.69
252.913	4.82
253.295	4.08
253.676	5.6
254.057	4.96
254.438	5.07
254.819	4.73
255.2	5.8
255.581	5.06
255.962	5.63
256.343	5.2
256.724	4.5
257.105	4.13
257.486	4.37
257.867	5.93
258.247	5.46
258.628	4.14
259.009	4.2
259.389	4.65
259.77	5.37
260.15	4.33
260.531	4.73
260.911	5.07
261.292	4.69
261.672	4.8
262.052	4.54
262.432	4.66
262.813	4.88
263.193	3.93
263.573	4.32
263.953	4.41
264.333	5.18
264.713	4.91
265.093	3.76
265.473	4.68
265.853	4.03
266.233	5.08
266.612	2.99
266.992	2.97
267.372	5.08
267.752	5.06
268.131	4.7
268.511	5.04
268.89	5.19
269.27	4.53
269.649	4.27
270.029	4.54
270.408	5.16
270.787	4.21
271.167	5.47
271.546	3.99
271.925	4.23
272.304	4.62
272.683	4.76
273.062	4.42
273.441	4.64
273.82	3.8
274.199	5.11
274.578	4.71
274.957	4.31
275.336	4.39
275.715	4.33
276.093	4.27
276.472	4.34
276.851	4.62
277.229	4.48
277.608	3.79
277.986	4.28
278.365	4.54
278.743	3.49
279.122	4.59
279.5	4.3
279.878	4.13
280.257	4.46
280.635	3.64
281.013	4.23
281.391	4.97
281.769	4.43
282.147	4.56
282.525	4.78
282.903	4.36
283.281	5
283.659	4.64
284.037	5
284.415	4.65
284.792	4.66
285.17	3.59
285.548	3.87
285.925	4.63
286.303	4.46
286.68	3.92
287.058	4.08
287.435	4.22
287.813	4.24
288.19	3.99
288.567	3.84
288.945	4.68
289.322	4.29
289.699	4.06
290.076	4.63
290.453	4.24
290.83	3.92
291.207	4.24
291.584	4.43
291.961	4.55
292.338	4.12
292.715	4.83
293.092	4.25
293.469	4.54
293.845	4.42
294.222	3.52
294.599	4.26
294.975	3.72
295.352	4.5
295.728	3.86
296.105	4.21
296.481	4.59
296.858	4.46
297.234	4.21
297.61	4.5
297.986	4.11
298.363	4.41
298.739	4.05
299.115	4.13
299.491	3.96
299.867	4.33
300.243	4.94
300.619	4.13
300.995	4.86
301.371	4.99
301.746	4.19
302.122	4.71
302.498	4.35
302.874	4.25
303.249	4.63
303.625	4.47
304	4.19
304.376	4.43
304.751	4
305.127	4.75
305.502	4
305.878	3.7
306.253	4.23
306.628	4.49
307.003	3.89
307.378	4.25
307.754	4.19
308.129	3.8
308.504	4.44
308.879	3.81
309.254	5.38
309.629	4.84
310.003	4.44
310.378	4.99
310.753	4.81
311.128	4.48
311.502	3.96
311.877	4.36
312.252	3.86
312.626	4
313.001	4.18
313.375	4.37
313.75	3.93
314.124	4.7
314.498	3.8
314.873	4.5
315.247	4.65
315.621	4
315.995	3.57
316.369	4.71
316.743	4.18
317.117	4.48
317.491	4.32
317.865	4.25
318.239	3.98
318.613	5.4
318.987	4.12
319.361	3.77
319.734	4.33
320.108	4.39
320.482	4.22
320.855	4.64
321.229	4.41
321.602	4.21
321.976	4.73
322.349	4.42
322.723	3.91
323.096	4.48
323.469	4.29
323.843	4.63
324.216	4.57
324.589	3.81
324.962	4.02
325.335	4.43
325.708	4.08
326.081	4.65
326.454	3.98
326.827	3.78
327.2	4.53
327.573	4.99
327.945	4.16
328.318	4.14
328.691	3.35
329.063	4.12
329.436	4.56
329.809	4.71
330.181	3.9
330.553	3.94
330.926	4.19
331.298	4.75
331.671	4
332.043	4.61
332.415	4.85
332.787	4.65
333.159	4.7
333.532	4.49
333.904	4.69
334.276	4.21
334.648	4.65
335.02	4.17
335.391	4.19
335.763	4.02
336.135	4.36
336.507	4.85
336.879	4.17
337.25	3.99
337.622	4.33
337.993	3.86
338.365	4.52
338.736	4.31
339.108	4.54
339.479	3.44
339.851	4.08
340.222	4.41
340.593	4.37
340.964	4.07
341.336	5.05
341.707	4.1
342.078	4.8
342.449	4.12
342.82	4
343.191	4.15
343.562	4.25
343.933	4.3
344.303	4.44
344.674	4.55
345.045	4.03
345.416	4.54
345.786	3.83
346.157	4.42
346.527	3.75
346.898	3.97
347.268	4.44
347.639	4.4
348.009	4.18
348.38	3.94
348.75	4.36
349.12	4.22
349.49	4.99
349.861	4.21
350.231	4.35
350.601	4.6
350.971	4.02
351.341	4.51
351.711	3.95
352.081	4.21
352.45	4.15
352.82	4.49
353.19	4.02
353.56	4.32
353.929	4.48
354.299	4.11
354.669	4.19
355.038	4.77
355.408	4
355.777	4.06
356.147	4.15
356.516	4.41
356.885	4.37
357.254	4.08
357.624	4.41
357.993	4.31
358.362	3.76
358.731	4.03
359.1	3.98
359.469	4.16
359.838	4.51
360.207	3.87
360.576	3.78
360.945	4.01
361.314	4.52
361.682	4.13
362.051	4.14
362.42	4.37
362.788	4.22
363.157	4.31
363.525	4.52
363.894	4.17
364.262	4.16
364.631	4.19
364.999	4.43
365.367	4.15
365.735	4.52
366.104	4.26
366.472	4.27
366.84	3.85
367.208	4.07
367.576	4.8
367.944	4.44
368.312	4.23
368.68	3.86
369.048	4.58
369.416	4.44
369.783	4.23
370.151	4.12
370.519	4.55
370.886	4.54
371.254	3.98
371.621	4.33
371.989	4.6
372.356	3.86
372.724	4.39
373.091	4.15
373.458	4.34
373.826	4.14
374.193	4.22
374.56	4.36
374.927	4.42
375.294	4.2
375.661	4.13
376.028	4.01
376.395	4.34
376.762	4.41
377.129	4.18
377.496	3.83
377.863	4.12
378.229	3.64
378.596	4.62
378.963	4.07
379.329	3.93
379.696	4.47
380.062	4.22
380.429	4.05
380.795	3.87
381.161	4.42
381.528	4.27
381.894	4.39
382.26	4.32
382.626	4.3
382.993	3.97
383.359	4.57
383.725	4.23
384.091	4.34
384.457	4.43
384.823	4.16
385.188	4.17
385.554	4.22
385.92	4.44
386.286	4.46
386.651	4.52
387.017	4.64
387.383	4.17
387.748	4.31
388.114	4.51
388.479	4.08
388.845	4.47
389.21	4.56
389.575	4.54
389.94	4.3
390.306	4.43
390.671	4.49
391.036	4.07
391.401	3.9
391.766	4.24
392.131	4.17
392.496	4.56
392.861	4.28
393.226	4.45
393.591	4.19
393.956	4.28
394.32	4.51
394.685	4
395.05	4.32
395.414	4.34
395.779	4.26
396.143	4.54
396.508	4.49
396.872	4.43
397.236	4.57
397.601	4.29
397.965	4.59
398.329	4.64
398.694	4.45
399.058	4.39
399.422	3.99
399.786	4.32
400.15	4.41
400.514	4.45
400.878	4.28
401.242	4.54
401.605	4.51
401.969	4.37
402.333	4.31
402.697	4.61
403.06	4.27
403.424	4.58
403.787	4.39
404.151	4.41
404.514	4.33
404.878	4.29
405.241	4.49
405.604	4.32
405.968	4.6
406.331	4.32
406.694	4.41
407.057	4.38
407.42	4.61
407.783	4.45
408.146	4.37
408.509	4.33
408.872	4.16
409.235	4.48
409.598	4.61
409.961	4.46
410.323	4.69
410.686	4.3
411.049	4.07
411.411	4.32
411.774	4.2
412.136	4.36
412.499	4.55
412.861	4.26
413.223	4.44
413.586	4.49
413.948	4.52
414.31	4.58
414.672	4.12
415.035	4.58
415.397	4.74
415.759	4.43
416.121	4.66
416.483	4.12
416.845	4.37
417.206	4.32
417.568	4.49
417.93	4.22
418.292	4.42
418.653	4.53
419.015	4.42
419.377	4.34
419.738	4.54
420.1	4.38
420.461	4.53
420.822	4.46
421.184	4.37
421.545	4.3
421.906	4.29
422.267	4.42
422.629	4.39
422.99	4.42
423.351	4.31
423.712	4.34
424.073	4.33
424.434	4.31
424.795	4.29
425.155	4.43
425.516	4.33
425.877	4.32
426.238	4.24
426.598	4.46
426.959	4.29
427.32	4.33
427.68	4.34
428.041	4.46
428.401	4.46
428.761	4.41
429.122	4.48
429.482	4.46
429.842	4.38
430.202	4.6
430.563	4.47
430.923	4.47
431.283	4.58
431.643	4.54
432.003	4.54
432.363	4.56
432.722	4.52
433.082	4.53
433.442	4.37
433.802	4.53
434.161	4.55
434.521	4.82
434.881	4.52
435.24	4.35
435.6	4.59
435.959	4.49
436.319	4.44
436.678	4.49
437.037	4.47
437.396	4.49
437.756	4.65
438.115	4.57
438.474	4.67
438.833	4.44
439.192	4.57
439.551	4.63
439.91	4.6
440.269	4.6
440.628	4.58
440.987	4.61
441.345	4.25
441.704	4.45
442.063	4.45
442.421	4.47
442.78	4.47
443.138	4.48
443.497	4.46
443.855	4.45
444.214	4.6
444.572	4.56
444.93	4.55
445.288	4.64
445.647	4.72
446.005	4.57
446.363	4.66
446.721	4.71
447.079	4.5
447.437	4.54
447.795	4.62
448.153	4.45
448.51	4.61
448.868	4.51
449.226	4.46
449.584	4.46
449.941	4.67
450.299	4.6
450.656	4.59
451.014	4.7
451.371	4.46
451.729	4.42
452.086	4.79
452.443	4.61
452.801	4.82
453.158	4.65
453.515	4.54
453.872	4.71
454.229	4.61
454.586	4.64
454.943	4.56
455.3	4.81
455.657	4.53
456.014	4.57
456.371	4.57
456.727	4.64
457.084	4.87
457.441	4.62
457.797	4.75
458.154	4.8
458.51	4.82
458.867	4.75
459.223	4.82
459.58	4.83
459.936	4.84
460.292	4.69
460.648	4.56
461.005	4.55
461.361	4.74
461.717	4.51
462.073	4.51
462.429	4.64
462.785	4.55
463.141	4.56
463.496	4.82
463.852	4.82
464.208	4.75
464.564	4.73
464.919	4.78
465.275	4.57
465.631	4.78
465.986	4.65
466.342	4.74
466.697	4.87
467.052	4.94
467.408	4.81
467.763	4.71
468.118	4.78
468.473	4.67
468.829	4.65
469.184	4.58
469.539	4.73
469.894	4.51
470.249	4.88
470.603	4.88
470.958	4.94
471.313	4.71
471.668	4.76
472.023	4.86
472.377	4.61
472.732	4.64
473.086	4.8
473.441	4.56
473.795	4.85
474.15	4.65
474.504	4.91
474.859	4.96
475.213	4.58
475.567	4.82
475.921	4.76
476.275	4.86
476.63	4.98
476.984	5.02
477.338	4.76
477.692	4.65
478.045	4.88
478.399	4.68
478.753	4.97
479.107	4.88
479.461	4.73
479.814	4.89
480.168	4.9
480.521	4.7
480.875	4.75
481.228	4.97
481.582	4.77
481.935	4.84
482.289	4.81
482.642	4.78
482.995	4.83
483.348	4.58
483.701	4.82
484.055	4.82
484.408	4.78
484.761	4.68
485.114	4.67
485.466	4.55
485.819	4.55
486.172	4.5
486.525	4.5
486.878	4.54
487.23	4.57
487.583	4.63
487.936	4.74
488.288	4.72
488.641	4.74
488.993	4.63
489.345	4.62
489.698	4.58
490.05	4.58
490.402	4.66
490.754	4.65
491.107	4.71
491.459	4.77
491.811	4.81
492.163	4.83
492.515	4.8
492.866	4.78
493.218	4.8
493.57	4.67
493.922	4.63
494.274	4.77
494.625	4.82
494.977	4.78
495.328	4.87
495.68	4.9
496.031	5.07
496.383	4.97
496.734	5.18
497.086	5.02
497.437	5.01
497.788	4.88
498.139	4.88
498.49	5.02
498.842	4.92
499.193	4.94
499.544	4.98
499.894	4.88
500.245	4.9
500.596	4.93
500.947	5.06
501.298	4.84
501.648	5.07
501.999	5.16
502.35	5.05
502.7	5.11
503.051	4.85
503.401	4.98
503.752	5.04
504.102	5.06
504.452	5.06
504.803	5.02
505.153	5.06
505.503	5.11
505.853	5.1
506.203	4.98
506.553	4.98
506.903	5.15
507.253	5.06
507.603	4.99
507.953	5.2
508.303	5.27
508.652	5.01
509.002	5.23
509.352	5.17
509.701	5.01
510.051	5.16
510.4	5.08
510.75	4.98
511.099	5.12
511.449	5.05
511.798	5.19
512.147	5.01
512.496	5
512.846	5.23
513.195	5.16
513.544	5.03
513.893	5.19
514.242	5.18
514.591	5.27
514.939	5.12
515.288	5.14
515.637	5.33
515.986	5.24
516.334	5.28
516.683	5.17
517.032	5.08
517.38	5.33
517.729	5.36
518.077	5.25
518.426	5.3
518.774	5.37
519.122	5.16
519.47	5.31
519.819	5.15
520.167	5.19
520.515	5.27
520.863	5.27
521.211	5.28
521.559	5.33
521.907	5.16
522.255	5.17
522.602	5.29
522.95	5.3
523.298	5.33
523.645	5.41
523.993	5.3
524.341	5.51
524.688	5.47
525.036	5.42
525.383	5.39
525.73	5.58
526.078	5.36
526.425	5.32
526.772	5.42
527.119	5.4
527.466	5.27
527.814	5.35
528.161	5.34
528.508	5.33
528.854	5.35
529.201	5.29
529.548	5.33
529.895	5.3
530.242	5.18
530.588	5.16
530.935	5.2
531.282	5.19
531.628	5.21
531.975	5.26
532.321	5.32
532.667	5.35
533.014	5.5
533.36	5.39
533.706	5.41
534.052	5.46
534.399	5.51
534.745	5.45
535.091	5.4
535.437	5.45
535.783	5.44
536.129	5.5
536.474	5.51
536.82	5.48
537.166	5.66
537.512	5.63
537.857	5.55
538.203	5.58
538.549	5.59
538.894	5.53
539.239	5.7
539.585	5.54
539.93	5.59
540.276	5.69
540.621	5.7
540.966	5.73
541.311	5.58
541.656	5.83
542.001	5.7
542.346	5.74
542.691	5.59
543.036	5.59
543.381	5.58
543.726	5.59
544.071	5.67
544.415	5.63
544.76	5.61
545.105	5.68
545.449	5.76
545.794	5.76
546.138	5.82
546.483	5.76
546.827	5.92
547.171	5.81
547.516	5.97
547.86	5.94
548.204	5.8
548.548	5.75
548.892	5.96
549.236	6.1
549.58	5.88
549.924	6
550.268	6.05
550.612	6.03
550.956	6.22
551.3	5.96
551.643	6.32
551.987	6.21
552.33	5.97
552.674	6.28
553.017	6.21
553.361	6.07
553.704	6.5
554.048	6.25
554.391	6.03
554.734	6.33
555.077	6.35
555.42	6.18
555.764	6.17
556.107	6.2
556.45	6.21
556.793	6.44
557.135	6.36
557.478	6.32
557.821	6.47
558.164	6.38
558.507	6.54
558.849	6.51
559.192	6.46
559.534	6.53
559.877	6.58
560.219	6.41
560.562	6.71
560.904	6.59
561.246	6.63
561.589	6.5
561.931	6.68
562.273	6.34
562.615	6.53
562.957	6.6
563.299	6.39
563.641	6.61
563.983	6.74
564.325	6.61
564.667	6.62
565.008	6.6
565.35	6.72
565.692	6.52
566.033	6.78
566.375	6.92
566.716	6.88
567.058	6.78
567.399	6.87
567.741	6.76
568.082	6.75
568.423	6.71
568.764	6.91
569.105	6.85
569.447	7.03
569.788	6.86
570.129	7.09
570.47	6.9
570.811	6.94
571.151	7.05
571.492	6.93
571.833	6.95
572.174	6.9
572.514	7.15
572.855	7.11
573.195	7.08
573.536	7.07
573.876	6.83
574.217	6.98
574.557	6.99
574.898	7.16
575.238	7.19
575.578	7.01
575.918	7.37
576.258	7.22
576.598	7.28
576.938	7.03
577.278	7.15
577.618	7.29
577.958	7.33
578.298	7.33
578.638	7.27
578.977	7.44
579.317	7.3
579.657	7.48
579.996	7.56
580.336	7.56
580.675	7.38
581.014	7.61
581.354	7.55
581.693	7.86
582.032	7.59
582.372	7.7
582.711	7.92
583.05	7.56
583.389	7.74
583.728	7.46
584.067	7.7
584.406	7.88
584.745	7.95
585.083	7.97
585.422	8.02
585.761	7.98
586.1	8.1
586.438	8.06
586.777	8.15
587.115	8.16
587.454	7.79
587.792	7.69
588.13	8.1
588.469	7.99
588.807	8.04
589.145	8.11
589.483	8.06
589.821	8.09
590.159	7.91
590.497	8.17
590.835	8.39
591.173	8.19
591.511	8.24
591.849	8.13
592.187	8.13
592.524	8.3
592.862	8.1
593.2	8.34
593.537	8.24
593.875	8.33
594.212	8.3
594.55	8.45
594.887	8.66
595.224	8.55
595.561	8.52
595.899	8.59
596.236	8.52
596.573	8.72
596.91	8.15
597.247	8.49
597.584	8.59
597.921	8.6
598.258	8.58
598.594	8.58
598.931	8.48
599.268	8.65
599.604	8.59
599.941	8.62
600.277	8.72
600.614	8.71
600.95	8.54
601.287	8.91
601.623	8.52
601.959	9.17
602.296	8.81
602.632	8.93
602.968	9.41
603.304	9.26
603.64	9.15
603.976	8.91
604.312	8.98
604.648	9.03
604.984	9.14
605.319	9.15
605.655	9.23
605.991	9.01
606.326	9.17
606.662	9.26
606.998	9.09
607.333	9.08
607.668	9.22
608.004	9.3
608.339	9.55
608.674	9.41
609.01	9.4
609.345	9.18
609.68	9.6
610.015	9.3
610.35	9.53
610.685	9.65
611.02	9.49
611.355	9.68
611.689	9.44
612.024	9.51
612.359	9.67
612.694	9.49
613.028	9.48
613.363	9.7
613.697	10
614.032	9.97
614.366	9.88
614.7	9.91
615.035	9.54
615.369	9.8
615.703	10.11
616.037	10.02
616.371	9.42
616.705	9.87
617.039	10.08
617.373	10.1
617.707	9.83
618.041	9.82
618.375	9.86
618.709	10.32
619.042	10.16
619.376	10.38
619.71	10.44
620.043	9.97
620.377	10.4
620.71	10.46
621.043	10.19
621.377	10.16
621.71	10.42
622.043	10.44
622.376	10.11
622.709	10.17
623.043	10.71
623.376	10.66
623.709	10.53
624.041	10.99
624.374	10.7
624.707	10.38
625.04	10.87
625.373	10.63
625.705	10.58
626.038	10.59
626.37	10.22
626.703	11.03
627.035	11.12
627.368	11.39
627.7	10.85
628.032	10.69
628.365	11.31
628.697	11.14
629.029	10.72
629.361	11.05
629.693	11.11
630.025	10.99
630.357	11.26
630.689	11.5
631.021	11.03
631.353	11.42
631.684	11.41
632.016	11.17
632.348	11.15
632.679	11.33
633.011	11.69
633.342	11.56
633.674	11.35
634.005	11.91
634.336	11.6
634.668	11.98
634.999	11.35
635.33	11.93
635.661	11.8
635.992	11.3
636.323	11.71
636.654	11.99
636.985	12.02
637.316	11.58
637.647	11.19
637.977	11.99
638.308	11.79
638.639	11.5
638.969	11.87
639.3	11.83
639.63	11.5
639.961	11.96
640.291	11.93
640.622	12.41
640.952	11.41
641.282	12.19
641.612	12.44
641.943	12.08
642.273	12.41
642.603	12.19
642.933	12.45
643.263	12.27
643.592	12.12
643.922	12.31
644.252	11.93
644.582	12.2
644.911	12.01
645.241	12.26
645.571	12.33
645.9	12.16
646.23	12.7
646.559	12.31
646.888	12.27
647.218	12.28
647.547	12.55
647.876	12.82
648.205	12.65
648.534	12.83
648.863	12.22
649.192	13.05
649.521	12.89
649.85	13.03
650.179	12.9
650.508	12.8
650.837	12.68
651.165	12.21
651.494	13
651.822	12.8
652.151	12.43
652.479	13.11
652.808	12.54
653.136	13.16
653.465	12.9
653.793	12.91
654.121	13.01
654.449	13.18
654.777	13.15
655.105	13.44
655.433	12.85
655.761	13.46
656.089	13.44
656.417	13.66
656.745	13.21
657.073	13.28
657.4	13.72
657.728	13.88
658.056	13.43
658.383	14.08
658.711	13.6
659.038	14.09
659.365	13.73
659.693	14.07
660.02	13.86
660.347	13.61
660.674	13.68
661.001	13.93
661.329	13.38
661.656	14.04
661.982	13.75
662.309	13.7
662.636	13.71
662.963	14.11
663.29	14.1
663.616	14.07
663.943	13.8
664.27	13.87
664.596	14.51
664.923	13.65
665.249	13.86
665.576	14.38
665.902	14.63
666.228	14.76
666.554	14.57
666.881	14.24
667.207	14.15
667.533	13.9
667.859	14.56
668.185	15.03
668.511	14.02
668.837	13.07
669.162	14.09
669.488	13.97
669.814	14.34
670.139	14.96
670.465	14.29
670.791	15.12
671.116	15.69
671.442	14.38
671.767	14.97
672.092	15.52
672.418	15.27
672.743	15.34
673.068	14.57
673.393	14.6
673.718	14.82
674.043	14.83
674.368	14.49
674.693	16.64
675.018	15.12
675.343	15.42
675.667	14.94
675.992	15.28
676.317	15.61
676.641	15.65
676.966	16.11
677.29	15.23
677.615	15.74
677.939	15.47
678.264	16.1
678.588	15.25
678.912	15.47
679.236	15.84
679.56	15.1
679.885	16.2
680.209	15.84
680.532	15.49
680.856	15.83
681.18	15.4
681.504	15.68
681.828	16.13
682.152	15.65
682.475	16.16
682.799	16.02
683.122	16.15
683.446	16.07
683.769	16.57
684.093	15.65
684.416	16.7
684.739	16.31
685.062	15.48
685.386	16.67
685.709	15.92
686.032	16.06
686.355	17.21
686.678	15.95
687.001	16.66
687.324	17.05
687.646	16.53
687.969	16.17
688.292	16.86
688.614	16.27
688.937	16.82
689.26	16.56
689.582	16.73
689.904	16.29
690.227	16.64
690.549	17.04
690.871	16.95
691.194	16.59
691.516	16.63
691.838	16.89
692.16	16.31
692.482	16.13
692.804	17.49
693.126	16.72
693.448	16.74
693.769	17.94
694.091	17.03
694.413	17.36
694.735	16.86
695.056	17.61
695.378	17.72
695.699	16.72
696.021	16.02
696.342	17.05
696.663	16.84
696.984	18.04
697.306	16.78
697.627	18.16
697.948	17.2
698.269	17.17
698.59	17.77
698.911	16.7
699.232	17.63
699.553	17.82
699.873	18.13
700.194	17.86
700.515	17.5
700.835	17
701.156	17.88
701.477	17.2
701.797	17.97
702.117	18.26
702.438	17.91
702.758	17.95
703.078	17.81
703.398	17.25
703.719	17.31
704.039	17.71
704.359	18.47
704.679	18.42
704.999	17.93
705.319	18.18
705.638	18.35
705.958	18.49
706.278	18.4
706.597	17.89
706.917	17.74
707.237	19.45
707.556	18.82
707.876	18.76
708.195	19.2
708.514	17.75
708.834	18.86
709.153	18.84
709.472	18.89
709.791	19
710.11	17.62
710.429	18.92
710.748	18.84
711.067	19.74
711.386	17.97
711.705	18.14
712.023	19.23
712.342	18.14
712.661	17.56
712.979	18.54
713.298	19.34
713.616	20.25
713.935	19.48
714.253	18.45
714.572	19.18
714.89	18.72
715.208	20.13
715.526	19.74
715.844	19.79
716.162	19.02
716.48	20.54
716.798	19.65
717.116	19.26
717.434	18.85
717.752	18.62
718.069	19.3
718.387	19.02
718.705	18.23
719.022	18.09
719.34	19.98
719.657	19.28
719.975	20.3
720.292	18.82
720.609	19.83
720.927	20.3
721.244	20.46
721.561	19.29
721.878	19.18
722.195	19.3
722.512	20.23
722.829	19.69
723.146	19.15
723.463	20.34
723.779	19.12
724.096	21.56
724.413	19.92
724.729	19.6
725.046	19.97
725.362	21.78
725.679	20.39
725.995	18.83
726.311	19.01
726.628	20.29
726.944	20.81
727.26	21.4
727.576	21.77
727.892	21.55
728.208	21.02
728.524	20.35
728.84	21.06
729.156	20.7
729.472	20.9
729.787	19.82
730.103	21.19
730.419	21.15
730.734	19.03
731.05	20.51
731.365	19.16
731.681	21.69
731.996	21.58
732.311	19.68
732.626	19.82
732.942	20.27
733.257	20.94
733.572	21.24
733.887	19.88
734.202	21.07
734.517	22.35
734.832	20.36
735.146	21.61
735.461	21.5
735.776	21.49
736.091	20.46
736.405	21.88
736.72	21.39
737.034	21.8
737.349	22.28
737.663	22.91
737.977	22.71
738.292	21.44
738.606	23.51
738.92	22.35
739.234	22.41
739.548	22.17
739.862	22.03
740.176	21.49
740.49	22.19
740.804	23.16
741.117	22.33
741.431	23.93
741.745	21.96
742.058	22.02
742.372	21.89
742.685	23.37
742.999	23.54
743.312	21.29
743.626	23.1
743.939	22.2
744.252	21.62
744.565	20.74
744.878	22.76
745.191	21.69
745.505	22.47
745.817	21.74
746.13	23.13
746.443	22.98
746.756	23.7
747.069	21.18
747.381	23.92
747.694	22.63
748.007	22.63
748.319	23.72
748.632	22.67
748.944	23.22
749.256	24.05
749.569	23.11
749.881	24.58
750.193	23.66
750.505	23.02
750.817	24.02
751.129	22.17
751.441	21.5
751.753	25.13
752.065	24.47
752.377	22.18
752.689	23.27
753	23.6
753.312	22.1
753.624	21.98
753.935	25.63
754.247	25.08
754.558	22.49
754.869	22.77
755.181	22.14
755.492	24.88
755.803	23.59
756.114	24
756.425	23.93
756.736	23.6
757.047	24.89
757.358	25.63
757.669	24.3
757.98	25.12
758.291	23.8
758.601	26.48
758.912	23.65
759.223	24.89
759.533	23.34
759.844	23.9
760.154	23.65
760.464	24.63
760.775	25.26
761.085	24.92
761.395	25.79
761.705	22.08
762.016	24.78
762.326	25
762.636	23.7
762.945	23.03
763.255	25.23
763.565	22.81
763.875	24.26
764.185	26.14
764.494	24.53
764.804	24.54
765.113	26.21
765.423	24.52
765.732	24.61
766.042	24.57
766.351	23.64
766.66	24.18
766.97	25.18
767.279	24.91
767.588	24.73
767.897	24.91
768.206	25.39
768.515	25.76
768.824	26.21
769.133	25.51
769.441	23.53
769.75	25.67
770.059	26.46
770.367	27.67
770.676	26.1
770.984	25.6
771.293	25.61
771.601	25.86
771.91	23.91
772.218	26.95
772.526	25.49
772.834	25.03
773.142	23.82
773.45	26.36
773.758	25.12
774.066	24.37
774.374	22.04
774.682	25.61
774.99	27.69
775.298	20.74
775.605	25.06
775.913	24.93
776.22	28.35
776.528	25.66
776.835	27.84
777.143	26.08
777.45	25.24
777.757	28.39
778.065	26.97
778.372	24.74
778.679	25.62
778.986	25.71
779.293	26.67
779.6	28.03
779.907	25.79
780.214	30.5
780.52	27.72
780.827	28.28
781.134	29.59
781.44	26.49
781.747	25.74
782.053	23.81
782.36	24.09
782.666	25.37
782.973	27.04
783.279	28.18
783.585	27.05
783.891	27.67
784.197	29.34
784.503	25.89
784.809	29.21
785.115	28.42
785.421	28.58
785.727	26.46
786.033	30.31
786.339	29.2
786.644	25.87
786.95	25.65
787.255	28.05
787.561	23.68
787.866	28.44
788.172	26.68
788.477	25.4
788.782	29.24
789.088	29.52
789.393	26.7
789.698	24.09
790.003	28.52
790.308	26.51
790.613	25.53
790.918	25.21
791.223	30.93
791.527	23.66
791.832	29.78
792.137	24.09
792.441	27.79
792.746	27.64
793.05	25.2
793.355	26.08
793.659	28.11
793.963	29.18
794.268	29.61
794.572	29.72
794.876	27.3
795.18	28.07
795.484	29.55
795.788	29.63
796.092	27.16
796.396	26.65
796.7	30.81
797.004	30.76
797.307	22.21
797.611	26.83
797.915	26.86
798.218	26.97
798.522	28.24
798.825	30.88
799.128	27.21
799.432	27.22
799.735	32.4
800.038	31.02
800.341	27.68
800.644	27.23
800.947	33.26
801.25	24.18
801.553	22.1
801.856	25.35
802.159	29.5
802.462	28.56
802.764	25.26
803.067	27.93
803.37	29.61
803.672	25.02
803.975	31.81
804.277	31.26
804.579	21.85
804.882	33.05
805.184	25.92
805.486	26.72
805.788	31.22
806.09	29.61
806.392	25.88
806.694	29.7
806.996	30.91
807.298	28.69
807.6	34.38
807.902	32.16
808.203	29.27
808.505	30.03
808.807	26.72
809.108	24.56
809.409	26.9
809.711	27.26
810.012	32.39
810.313	30.14
810.615	26.12
810.916	31.78
811.217	29.88
811.518	32.77
811.819	29.77
812.12	35.75
812.421	27.15
812.722	32.93
813.023	35.02
813.323	26.9
813.624	27.6
813.925	34.08
814.225	30.57
814.526	29.78
814.826	36.9
815.126	29.97
815.427	22.07
815.727	33.82
816.027	28.62
816.327	31.5
816.627	25.19
816.927	32.51
817.227	27.61
817.527	32.37
817.827	33.47
818.127	27.92
818.427	26.69
818.727	22.68
819.026	34.72
819.326	29.31
819.625	28.65
819.925	24.49
820.224	33.68
820.524	29.9
820.823	29.7
821.122	25.35
821.421	32.11
821.72	29.9
822.019	31.95
822.318	29.71
822.617	24.96
822.916	28.58
823.215	34.05
823.514	30.97
823.813	30.17
824.111	27.61
824.41	32.67
824.709	29.9
825.007	30.67
825.306	29.47
825.604	30.34
825.902	31.16
826.201	29.73
826.499	29.7
826.797	30.03
827.095	30.27
827.393	29.79
827.691	32.26
827.989	29.52
828.287	31.74
828.585	28.64
828.882	29.03
829.18	30.95
829.478	31.65
829.775	33
830.073	33.09
830.37	33.25
830.668	29.69
830.965	32.09
831.263	28.58
831.56	27.43
831.857	30.78
832.154	33.59
832.451	32.31
832.748	37.45
833.045	37.28
833.342	34.12
833.639	29.31
833.936	28.35
834.232	31.62
834.529	31.32
834.826	29.29
835.122	34.42
835.419	32.09
835.715	32.98
836.012	37.13
836.308	27.37
836.604	26.42
836.901	30.81
837.197	31.19
837.493	29.6
837.789	28.73
838.085	30.57
838.381	29.7
838.677	33.11
838.972	28.74
839.268	29.64
839.564	31.61
839.86	38.86
840.155	26.85
840.451	26.54
840.746	35.58
841.042	36.46
841.337	31.91
841.632	33.81
841.928	32.42
842.223	18.08
842.518	37.27
842.813	39.6
843.108	30.72
843.403	32.43
843.698	31.59
843.993	36.29
844.287	27.8
844.582	30.22
844.877	32.55
845.171	33.38
845.466	28.12
845.761	38.74
846.055	37.73
846.349	39.03
846.644	46.56
846.938	25.25
847.232	42.51
847.526	42.69
847.82	41.2
848.114	39.7
848.408	32.2
848.702	33.42
848.996	20.3
849.29	44.23
849.584	24.39
849.877	31.54
850.171	49.56
850.465	26.53
850.758	42.9
851.052	29.77
851.345	38.32
851.638	41.35
851.932	24.99
852.225	27.94
852.518	20
852.811	26.58
853.104	21.21
853.397	43.45
853.69	65.7
853.983	34.84
854.276	19.68
854.569	47.23
854.861	31.64
855.154	35.65
855.447	35.54
855.739	29.72
856.032	30.64
856.324	21.5
856.616	47.26
856.909	28.35
857.201	54.6
857.493	18.83
857.785	9.3
858.077	41.92
858.369	55.37
858.661	31.69
858.953	28.37
859.245	17.73
859.537	37.15
859.829	33.16
860.12	51.11
860.412	49.46
860.703	34.46
860.995	31.85
861.286	51.17
861.578	19.95
861.869	56.41
862.16	50.6
862.452	34.55
862.743	37.61
863.034	50.01
863.325	10.89
863.616	39.59
863.907	28.3
864.198	19.71
864.488	36.34
864.779	28.05
865.07	22.45
865.36	21.22
865.651	24.52
865.941	54.57
866.232	40.67
866.522	30.33
866.813	23.72
867.103	40.08
867.393	20.6
867.683	38.07
867.973	33.21
868.263	49.76
868.553	48.13
868.843	41.95
869.133	16.33
869.423	49.13
869.713	42.95
870.002	45.31
870.292	35.55
870.582	46.86
870.871	1.2
871.161	62.72
871.45	23.49
871.739	29.51
872.029	24.57
872.318	40.78
872.607	60.78
872.896	41.5
873.185	2.88
873.474	24.33
873.763	37.71
874.052	46.18
874.341	52.55
874.63	59.13
874.918	35.12
875.207	33.4
875.496	18.36
875.784	5.65
876.073	0.36
876.361	24.22
876.649	57.69
876.938	29.79
877.226	55.13
877.514	49.78
877.802	6.44
878.09	19.4
878.378	71.55
878.666	18.09
878.954	43.71
879.242	50.48
879.53	31.11
879.817	53.29
880.105	33.4
880.392	50.88
880.68	49.6
880.967	10.7
881.255	67.28
881.542	43.23
881.83	2.14
882.117	26.32
882.404	1.51
882.691	63.15
882.978	39.43
883.265	31.3
883.552	27.65
883.839	29.43
884.126	31.32
884.413	47.52
884.699	47.4
884.986	38.03
885.273	33.48
885.559	33.48
885.846	33.48
