Data from 0058_crown_Reflection__4__132.txt Node

Date: Fri Dec 16 14:56:37 CST 2022
User: ToomeyLab
Spectrometer: FLMS14357
Trigger mode: 0
Integration Time (sec): 1.000000E-2
Scans to average: 100
Electric dark correction enabled: true
Nonlinearity correction enabled: false
Boxcar width: 0
XAxis mode: Wavelengths
Number of Pixels in Spectrum: 2048
>>>>>Begin Spectral Data<<<<<
189.047	171.89
189.435	171.89
189.823	171.89
190.211	4.27
190.599	63.07
190.987	381.92
191.375	170.23
191.763	56.16
192.151	135.44
192.538	-8.22
192.926	63.39
193.314	43.31
193.702	117.92
194.089	55.38
194.477	110.02
194.864	52.28
195.252	-173.68
195.639	662
196.027	3.71
196.414	425.81
196.801	82.1
197.189	183.19
197.576	-221.77
197.963	-257.36
198.351	-1.05
198.738	-31.5
199.125	44.96
199.512	-26.93
199.899	-28.97
200.286	-26.6
200.673	42.85
201.06	43.49
201.447	41.88
201.833	-8.08
202.22	10.81
202.607	4.58
202.994	13.94
203.38	-34.29
203.767	-38.78
204.154	-23.38
204.54	35.44
204.927	26.19
205.313	34.36
205.699	-11.34
206.086	-26.18
206.472	-20.1
206.858	12.51
207.245	21.94
207.631	-14.67
208.017	5.4
208.403	-19.74
208.789	1.39
209.175	52.06
209.561	17.03
209.947	16.31
210.333	-44.35
210.719	26.17
211.105	6.59
211.491	6.97
211.876	-7.78
212.262	24.42
212.648	2.54
213.034	-14.27
213.419	-8.78
213.805	-16.81
214.19	25.78
214.576	9.79
214.961	-30.6
215.346	11.92
215.732	-15.42
216.117	-13.08
216.502	-19.89
216.888	7.39
217.273	-0.62
217.658	-12.11
218.043	-5.44
218.428	9.23
218.813	-12.5
219.198	-9.05
219.583	13.29
219.968	18.11
220.353	4.04
220.738	-6.22
221.122	11.9
221.507	-10.04
221.892	-5.92
222.276	1.71
222.661	3.32
223.046	6.01
223.43	-2.61
223.815	5.95
224.199	5.85
224.583	-9.29
224.968	3.57
225.352	-5.33
225.736	2.19
226.121	2.23
226.505	11.82
226.889	8.87
227.273	4.85
227.657	0.81
228.041	7.76
228.425	4.95
228.809	5
229.193	2.23
229.577	4.58
229.961	5.52
230.344	4.93
230.728	5.24
231.112	5.54
231.495	4.42
231.879	6.12
232.263	2.57
232.646	4.8
233.03	3.67
233.413	3.29
233.797	5.27
234.18	1.38
234.563	3.03
234.946	4.98
235.33	4.69
235.713	5.99
236.096	6.86
236.479	5.02
236.862	4.96
237.245	6.43
237.628	5.11
238.011	4.98
238.394	5.5
238.777	6.33
239.16	3.41
239.543	3.79
239.925	5.4
240.308	4.49
240.691	4.45
241.073	4.82
241.456	4.02
241.838	4.83
242.221	4.95
242.603	4.76
242.986	5.59
243.368	4.88
243.75	4.68
244.133	4.72
244.515	4.38
244.897	5.06
245.279	4.31
245.661	4.66
246.043	4.83
246.425	4.56
246.807	4.71
247.189	4.74
247.571	4.98
247.953	4.7
248.335	4.63
248.717	4.66
249.098	4.91
249.48	4.57
249.862	4.98
250.243	4.58
250.625	4.72
251.006	4.48
251.388	4.88
251.769	4.78
252.151	4.5
252.532	4.72
252.913	5.03
253.295	4.45
253.676	5.11
254.057	4.42
254.438	4.53
254.819	4.55
255.2	5.32
255.581	3.86
255.962	4.85
256.343	4.45
256.724	4.05
257.105	4.88
257.486	3.79
257.867	2.65
258.247	4.96
258.628	4.85
259.009	4.48
259.389	4.63
259.77	4.26
260.15	5.05
260.531	4.68
260.911	4.36
261.292	4.46
261.672	4.3
262.052	4.57
262.432	4.35
262.813	4.55
263.193	4.21
263.573	4.85
263.953	4.85
264.333	4.66
264.713	4.32
265.093	3.82
265.473	4.62
265.853	3.55
266.233	4.19
266.612	4.54
266.992	4.11
267.372	4.56
267.752	3.85
268.131	4.51
268.511	4.87
268.89	4.77
269.27	4.48
269.649	5.09
270.029	4.57
270.408	3.66
270.787	4.29
271.167	4.28
271.546	3.9
271.925	4.52
272.304	4.69
272.683	4.55
273.062	4.49
273.441	4.48
273.82	4.6
274.199	4.36
274.578	4.25
274.957	4.46
275.336	4.33
275.715	4.55
276.093	3.97
276.472	4.57
276.851	4.5
277.229	4.8
277.608	3.57
277.986	4.16
278.365	4.14
278.743	4.18
279.122	3.8
279.5	3.75
279.878	3.85
280.257	3.82
280.635	3.9
281.013	4.34
281.391	4.15
281.769	4.36
282.147	4.39
282.525	4
282.903	3.95
283.281	4.33
283.659	4.41
284.037	4.32
284.415	3.88
284.792	4.34
285.17	3.56
285.548	4.14
285.925	4.08
286.303	3.84
286.68	4.13
287.058	4.06
287.435	3.94
287.813	4.12
288.19	4.48
288.567	3.62
288.945	3.96
289.322	3.99
289.699	3.85
290.076	4.32
290.453	3.87
290.83	3.84
291.207	4.19
291.584	3.77
291.961	4.09
292.338	3.84
292.715	4.19
293.092	3.7
293.469	3.74
293.845	3.83
294.222	3.72
294.599	4.39
294.975	4.1
295.352	3.48
295.728	4.28
296.105	3.92
296.481	4.4
296.858	4.16
297.234	3.97
297.61	3.8
297.986	3.7
298.363	3.64
298.739	4.18
299.115	3.5
299.491	3.54
299.867	3.71
300.243	3.69
300.619	3.73
300.995	3.38
301.371	4.06
301.746	3.82
302.122	3.92
302.498	3.46
302.874	3.83
303.249	3.94
303.625	3.9
304	3.2
304.376	3.62
304.751	3.78
305.127	3.65
305.502	3.81
305.878	3.64
306.253	3.86
306.628	3.79
307.003	3.86
307.378	3.42
307.754	3.59
308.129	3.63
308.504	3.5
308.879	3.43
309.254	4.2
309.629	3.85
310.003	3.96
310.378	4.17
310.753	3.99
311.128	3.7
311.502	3.58
311.877	3.75
312.252	3.66
312.626	3.48
313.001	3.53
313.375	3.45
313.75	3.03
314.124	4
314.498	3.7
314.873	3.11
315.247	3.41
315.621	3.93
315.995	3.31
316.369	4.01
316.743	3.46
317.117	3.65
317.491	3.34
317.865	2.64
318.239	4.23
318.613	3.56
318.987	3.62
319.361	3.83
319.734	3.4
320.108	3.67
320.482	3.5
320.855	3.51
321.229	3.65
321.602	3.84
321.976	4.02
322.349	3.25
322.723	2.7
323.096	3.27
323.469	3.07
323.843	4.08
324.216	3.35
324.589	4.36
324.962	3.35
325.335	3.47
325.708	3.96
326.081	3.93
326.454	3.33
326.827	3.35
327.2	3.83
327.573	3.39
327.945	3.51
328.318	3.84
328.691	3.48
329.063	2.94
329.436	3.45
329.809	2.92
330.181	3.67
330.553	3.94
330.926	3.9
331.298	3.43
331.671	3.95
332.043	3.81
332.415	3.67
332.787	3.97
333.159	3.69
333.532	3.67
333.904	4.09
334.276	3.72
334.648	3.98
335.02	4.04
335.391	3.51
335.763	3.4
336.135	3.54
336.507	3.88
336.879	3.42
337.25	3.25
337.622	3.57
337.993	3.99
338.365	3.82
338.736	3.85
339.108	3.29
339.479	3.69
339.851	3.93
340.222	3.76
340.593	3.27
340.964	3.76
341.336	3.61
341.707	3.85
342.078	3.46
342.449	4.07
342.82	3.58
343.191	3.36
343.562	3.67
343.933	3.84
344.303	3.68
344.674	3.86
345.045	3.56
345.416	3.85
345.786	3.18
346.157	3.59
346.527	3.46
346.898	3.55
347.268	3.44
347.639	3.52
348.009	3.71
348.38	3.9
348.75	3.59
349.12	3.68
349.49	3.49
349.861	3.97
350.231	3.82
350.601	3.6
350.971	3.61
351.341	3.71
351.711	3.45
352.081	3.66
352.45	3.73
352.82	4
353.19	4.1
353.56	3.67
353.929	4
354.299	3.67
354.669	3.64
355.038	3.52
355.408	4.07
355.777	3.54
356.147	3.79
356.516	4.11
356.885	3.42
357.254	3.75
357.624	3.78
357.993	3.73
358.362	3.86
358.731	3.76
359.1	3.84
359.469	3.66
359.838	3.59
360.207	3.72
360.576	3.86
360.945	3.75
361.314	3.93
361.682	3.2
362.051	3.45
362.42	4.1
362.788	3.49
363.157	3.46
363.525	3.63
363.894	3.47
364.262	3.57
364.631	4.42
364.999	3.49
365.367	3.82
365.735	3.63
366.104	3.5
366.472	3.58
366.84	3.66
367.208	3.42
367.576	3.68
367.944	3.99
368.312	3.44
368.68	3.86
369.048	3.79
369.416	3.83
369.783	3.56
370.151	3.81
370.519	3.65
370.886	3.95
371.254	3.73
371.621	3.84
371.989	3.96
372.356	3.85
372.724	3.85
373.091	4.11
373.458	3.96
373.826	3.91
374.193	4.55
374.56	3.77
374.927	3.57
375.294	3.93
375.661	4.04
376.028	3.89
376.395	3.85
376.762	4.13
377.129	4.17
377.496	4.21
377.863	3.86
378.229	3.69
378.596	3.85
378.963	3.86
379.329	3.92
379.696	3.9
380.062	3.88
380.429	3.75
380.795	3.52
381.161	3.69
381.528	3.57
381.894	3.93
382.26	3.91
382.626	3.94
382.993	3.7
383.359	3.83
383.725	4.02
384.091	3.99
384.457	4.2
384.823	3.71
385.188	3.81
385.554	3.85
385.92	4.16
386.286	4.3
386.651	3.87
387.017	4.05
387.383	4.16
387.748	3.83
388.114	4.16
388.479	4.11
388.845	4.1
389.21	3.97
389.575	4.21
389.94	3.89
390.306	3.86
390.671	3.93
391.036	3.95
391.401	4.27
391.766	4.01
392.131	3.77
392.496	3.97
392.861	3.9
393.226	3.93
393.591	4.11
393.956	4.1
394.32	3.93
394.685	4.03
395.05	3.93
395.414	4.02
395.779	4.2
396.143	4
396.508	4.27
396.872	4.17
397.236	3.76
397.601	4.35
397.965	3.64
398.329	4.26
398.694	3.92
399.058	3.79
399.422	3.99
399.786	4.1
400.15	4.12
400.514	4.1
400.878	4.11
401.242	4.26
401.605	4.11
401.969	4.21
402.333	3.98
402.697	4.27
403.06	4.14
403.424	4.25
403.787	4.31
404.151	4.03
404.514	4.04
404.878	4.15
405.241	4.23
405.604	4.07
405.968	4.06
406.331	4.1
406.694	4.01
407.057	4.36
407.42	4
407.783	4.19
408.146	4.15
408.509	4.04
408.872	4.06
409.235	4.26
409.598	4.33
409.961	4.11
410.323	4.33
410.686	4.05
411.049	4.1
411.411	4.21
411.774	4.12
412.136	4.09
412.499	4.11
412.861	3.93
413.223	4.27
413.586	4.26
413.948	4.28
414.31	4.26
414.672	3.99
415.035	4.33
415.397	4.31
415.759	4.19
416.121	4.48
416.483	4.52
416.845	4.22
417.206	4.27
417.568	4.16
417.93	4.23
418.292	4.16
418.653	4.3
419.015	4.23
419.377	4.16
419.738	4.18
420.1	4.25
420.461	4.11
420.822	4.28
421.184	4.26
421.545	4.13
421.906	4.22
422.267	4.05
422.629	4.13
422.99	4.16
423.351	4.09
423.712	4.19
424.073	4.28
424.434	4.23
424.795	4.09
425.155	4.23
425.516	4.2
425.877	4.22
426.238	4.08
426.598	4.18
426.959	4.09
427.32	4.26
427.68	4.3
428.041	4.32
428.401	4.13
428.761	4.43
429.122	4.28
429.482	4.18
429.842	4.34
430.202	4.36
430.563	4.3
430.923	4.23
431.283	4.31
431.643	4.28
432.003	4.32
432.363	4.4
432.722	4.45
433.082	4.38
433.442	4.16
433.802	4.4
434.161	4.31
434.521	4.34
434.881	4.45
435.24	4.29
435.6	4.3
435.959	4.2
436.319	4.13
436.678	4.25
437.037	4.4
437.396	4.26
437.756	4.36
438.115	4.31
438.474	4.35
438.833	4.56
439.192	4.54
439.551	4.33
439.91	4.42
440.269	4.47
440.628	4.21
440.987	4.28
441.345	4.37
441.704	4.37
442.063	4.31
442.421	4.41
442.78	4.23
443.138	4.31
443.497	4.25
443.855	4.41
444.214	4.41
444.572	4.3
444.93	4.41
445.288	4.48
445.647	4.38
446.005	4.32
446.363	4.24
446.721	4.27
447.079	4.37
447.437	4.34
447.795	4.3
448.153	4.27
448.51	4.26
448.868	4.37
449.226	4.4
449.584	4.31
449.941	4.46
450.299	4.39
450.656	4.41
451.014	4.35
451.371	4.32
451.729	4.52
452.086	4.3
452.443	4.35
452.801	4.56
453.158	4.43
453.515	4.33
453.872	4.57
454.229	4.4
454.586	4.46
454.943	4.53
455.3	4.46
455.657	4.49
456.014	4.49
456.371	4.54
456.727	4.32
457.084	4.53
457.441	4.41
457.797	4.56
458.154	4.43
458.51	4.46
458.867	4.46
459.223	4.47
459.58	4.38
459.936	4.46
460.292	4.47
460.648	4.43
461.005	4.4
461.361	4.35
461.717	4.41
462.073	4.41
462.429	4.36
462.785	4.46
463.141	4.64
463.496	4.49
463.852	4.68
464.208	4.55
464.564	4.49
464.919	4.44
465.275	4.51
465.631	4.52
465.986	4.44
466.342	4.64
466.697	4.42
467.052	4.53
467.408	4.43
467.763	4.36
468.118	4.56
468.473	4.54
468.829	4.52
469.184	4.73
469.539	4.49
469.894	4.54
470.249	4.56
470.603	4.54
470.958	4.65
471.313	4.52
471.668	4.62
472.023	4.7
472.377	4.57
472.732	4.58
473.086	4.4
473.441	4.52
473.795	4.7
474.15	4.59
474.504	4.52
474.859	4.62
475.213	4.6
475.567	4.56
475.921	4.64
476.275	4.57
476.63	4.6
476.984	4.67
477.338	4.74
477.692	4.57
478.045	4.57
478.399	4.51
478.753	4.5
479.107	4.34
479.461	4.6
479.814	4.54
480.168	4.6
480.521	4.6
480.875	4.81
481.228	4.66
481.582	4.42
481.935	4.54
482.289	4.55
482.642	4.59
482.995	4.5
483.348	4.39
483.701	4.45
484.055	4.45
484.408	4.4
484.761	4.26
485.114	4.18
485.466	4.25
485.819	4.28
486.172	4.34
486.525	4.44
486.878	4.45
487.23	4.54
487.583	4.52
487.936	4.45
488.288	4.41
488.641	4.35
488.993	4.34
489.345	4.3
489.698	4.42
490.05	4.42
490.402	4.48
490.754	4.5
491.107	4.48
491.459	4.57
491.811	4.55
492.163	4.5
492.515	4.48
492.866	4.33
493.218	4.35
493.57	4.44
493.922	4.45
494.274	4.5
494.625	4.5
494.977	4.61
495.328	4.63
495.68	4.75
496.031	4.61
496.383	4.67
496.734	4.7
497.086	4.49
497.437	4.62
497.788	4.51
498.139	4.49
498.49	4.63
498.842	4.64
499.193	4.6
499.544	4.71
499.894	4.65
500.245	4.7
500.596	4.65
500.947	4.61
501.298	4.65
501.648	4.63
501.999	4.72
502.35	4.71
502.7	4.74
503.051	4.67
503.401	4.65
503.752	4.62
504.102	4.69
504.452	4.6
504.803	4.53
505.153	4.63
505.503	4.69
505.853	4.63
506.203	4.72
506.553	4.54
506.903	4.65
507.253	4.67
507.603	4.47
507.953	4.72
508.303	4.62
508.652	4.63
509.002	4.63
509.352	4.65
509.701	4.67
510.051	4.63
510.4	4.67
510.75	4.62
511.099	4.56
511.449	4.6
511.798	4.66
512.147	4.52
512.496	4.56
512.846	4.61
513.195	4.64
513.544	4.66
513.893	4.48
514.242	4.7
514.591	4.74
514.939	4.65
515.288	4.72
515.637	4.66
515.986	4.62
516.334	4.66
516.683	4.86
517.032	4.65
517.38	4.76
517.729	4.72
518.077	4.69
518.426	4.57
518.774	4.74
519.122	4.6
519.47	4.56
519.819	4.58
520.167	4.55
520.515	4.53
520.863	4.62
521.211	4.62
521.559	4.66
521.907	4.65
522.255	4.7
522.602	4.66
522.95	4.71
523.298	4.53
523.645	4.51
523.993	4.76
524.341	4.66
524.688	4.72
525.036	4.74
525.383	4.69
525.73	4.67
526.078	4.62
526.425	4.59
526.772	4.47
527.119	4.56
527.466	4.6
527.814	4.47
528.161	4.58
528.508	4.6
528.854	4.46
529.201	4.53
529.548	4.41
529.895	4.36
530.242	4.35
530.588	4.41
530.935	4.43
531.282	4.47
531.628	4.49
531.975	4.5
532.321	4.55
532.667	4.46
533.014	4.59
533.36	4.54
533.706	4.54
534.052	4.47
534.399	4.38
534.745	4.4
535.091	4.46
535.437	4.48
535.783	4.56
536.129	4.53
536.474	4.64
536.82	4.54
537.166	4.58
537.512	4.57
537.857	4.51
538.203	4.52
538.549	4.64
538.894	4.57
539.239	4.66
539.585	4.61
539.93	4.66
540.276	4.64
540.621	4.55
540.966	4.67
541.311	4.59
541.656	4.56
542.001	4.53
542.346	4.48
542.691	4.42
543.036	4.39
543.381	4.47
543.726	4.52
544.071	4.48
544.415	4.47
544.76	4.41
545.105	4.58
545.449	4.6
545.794	4.52
546.138	4.61
546.483	4.6
546.827	4.5
547.171	4.61
547.516	4.66
547.86	4.57
548.204	4.51
548.548	4.62
548.892	4.61
549.236	4.6
549.58	4.69
549.924	4.65
550.268	4.63
550.612	4.55
550.956	4.67
551.3	4.63
551.643	4.63
551.987	4.63
552.33	4.59
552.674	4.69
553.017	4.65
553.361	4.63
553.704	4.6
554.048	4.78
554.391	4.6
554.734	4.64
555.077	4.64
555.42	4.72
555.764	4.72
556.107	4.58
556.45	4.56
556.793	4.9
557.135	4.81
557.478	4.72
557.821	4.52
558.164	4.72
558.507	4.66
558.849	4.57
559.192	4.69
559.534	4.52
559.877	4.74
560.219	4.76
560.562	4.7
560.904	4.67
561.246	4.85
561.589	4.55
561.931	4.8
562.273	4.55
562.615	4.75
562.957	4.69
563.299	4.69
563.641	4.88
563.983	4.56
564.325	4.32
564.667	4.59
565.008	4.66
565.35	4.73
565.692	4.75
566.033	4.84
566.375	4.46
566.716	4.57
567.058	4.54
567.399	4.59
567.741	4.62
568.082	4.63
568.423	4.57
568.764	4.62
569.105	4.67
569.447	4.62
569.788	4.69
570.129	4.55
570.47	4.55
570.811	4.66
571.151	4.6
571.492	4.72
571.833	4.59
572.174	4.58
572.514	4.49
572.855	4.68
573.195	4.57
573.536	4.54
573.876	4.62
574.217	4.63
574.557	4.63
574.898	4.68
575.238	4.46
575.578	4.65
575.918	4.53
576.258	4.5
576.598	4.58
576.938	4.62
577.278	4.67
577.618	4.58
577.958	4.53
578.298	4.57
578.638	4.46
578.977	4.57
579.317	4.71
579.657	4.68
579.996	4.74
580.336	4.43
580.675	4.61
581.014	4.52
581.354	4.66
581.693	4.65
582.032	4.48
582.372	4.76
582.711	4.73
583.05	4.77
583.389	4.76
583.728	4.52
584.067	4.6
584.406	4.7
584.745	4.46
585.083	4.9
585.422	4.62
585.761	4.76
586.1	4.79
586.438	4.47
586.777	4.57
587.115	5.05
587.454	4.5
587.792	4.33
588.13	4.77
588.469	4.64
588.807	4.79
589.145	4.76
589.483	4.52
589.821	4.84
590.159	4.58
590.497	4.32
590.835	4.47
591.173	4.74
591.511	4.68
591.849	4.63
592.187	4.61
592.524	4.58
592.862	4.66
593.2	4.56
593.537	4.62
593.875	4.48
594.212	4.6
594.55	4.54
594.887	4.75
595.224	4.79
595.561	4.45
595.899	4.66
596.236	4.65
596.573	4.44
596.91	4.53
597.247	4.53
597.584	4.63
597.921	4.54
598.258	4.56
598.594	4.4
598.931	4.62
599.268	4.58
599.604	4.85
599.941	4.59
600.277	4.57
600.614	4.66
600.95	4.63
601.287	4.44
601.623	4.74
601.959	4.58
602.296	4.59
602.632	4.97
602.968	4.31
603.304	4.35
603.64	4.65
603.976	4.62
604.312	4.67
604.648	4.77
604.984	4.51
605.319	4.56
605.655	4.66
605.991	4.56
606.326	4.49
606.662	4.49
606.998	4.5
607.333	4.57
607.668	4.61
608.004	4.65
608.339	4.63
608.674	4.38
609.01	4.46
609.345	4.86
609.68	4.52
610.015	4.6
610.35	4.64
610.685	4.6
611.02	4.77
611.355	4.59
611.689	4.37
612.024	4.74
612.359	4.67
612.694	4.85
613.028	4.89
613.363	4.55
613.697	4.67
614.032	4.58
614.366	4.69
614.7	4.94
615.035	4.52
615.369	4.72
615.703	4.77
616.037	4.5
616.371	4.42
616.705	4.68
617.039	4.65
617.373	4.83
617.707	4.51
618.041	4.53
618.375	4.48
618.709	4.62
619.042	4.65
619.376	4.27
619.71	4.73
620.043	4.42
620.377	4.21
620.71	4.55
621.043	4.53
621.377	4.54
621.71	4.94
622.043	4.87
622.376	4.62
622.709	4.85
623.043	4.7
623.376	4.82
623.709	4.67
624.041	4.96
624.374	4.41
624.707	4.6
625.04	4.94
625.373	4.33
625.705	4.61
626.038	4.77
626.37	4.43
626.703	4.94
627.035	4.8
627.368	4.51
627.7	4.79
628.032	4.68
628.365	4.29
628.697	4.45
629.029	4.68
629.361	4.49
629.693	4.66
630.025	4.82
630.357	4.2
630.689	4.84
631.021	4.56
631.353	4.9
631.684	4.67
632.016	4.64
632.348	4.51
632.679	4.52
633.011	4.81
633.342	4.74
633.674	4.64
634.005	4.7
634.336	4.6
634.668	4.65
634.999	4.7
635.33	4.57
635.661	4.6
635.992	4.56
636.323	4.78
636.654	4.63
636.985	4.46
637.316	5.1
637.647	4.88
637.977	4.78
638.308	4.46
638.639	4.66
638.969	4.71
639.3	4.56
639.63	4.53
639.961	4.44
640.291	5.01
640.622	4.75
640.952	4.69
641.282	4.05
641.612	4.52
641.943	4.91
642.273	4.5
642.603	4.59
642.933	4.37
643.263	4.67
643.592	4.8
643.922	4.91
644.252	4.98
644.582	4.4
644.911	4.65
645.241	4.47
645.571	4.37
645.9	4.78
646.23	4.51
646.559	4.44
646.888	4.68
647.218	4.86
647.547	4.96
647.876	4.5
648.205	4.55
648.534	4.96
648.863	5.25
649.192	4.33
649.521	4.43
649.85	4.87
650.179	4.47
650.508	4.75
650.837	4.73
651.165	4.59
651.494	4.71
651.822	4.66
652.151	5.22
652.479	4.86
652.808	4.26
653.136	4.32
653.465	4.62
653.793	4.92
654.121	4.77
654.449	4.21
654.777	4.6
655.105	5.06
655.433	4.67
655.761	4.2
656.089	4.94
656.417	4.38
656.745	5
657.073	5.15
657.4	4.69
657.728	4.79
658.056	4.5
658.383	4.96
658.711	4.35
659.038	4.63
659.365	4.69
659.693	4.65
660.02	4.59
660.347	4.62
660.674	4.45
661.001	4.39
661.329	4.57
661.656	4.25
661.982	4.62
662.309	4.69
662.636	4.78
662.963	4.57
663.29	4.45
663.616	4.6
663.943	4.98
664.27	4.86
664.596	4.45
664.923	4.99
665.249	4.45
665.576	4.56
665.902	4.6
666.228	4.49
666.554	4.28
666.881	4.47
667.207	4.6
667.533	4.64
667.859	4.54
668.185	4.98
668.511	4.06
668.837	4.39
669.162	4.75
669.488	4.51
669.814	4.67
670.139	5.05
670.465	4.66
670.791	4.6
671.116	4.79
671.442	4.9
671.767	4.78
672.092	4.85
672.418	5.04
672.743	4.69
673.068	4.55
673.393	4.74
673.718	4.79
674.043	4.8
674.368	5.53
674.693	5.02
675.018	4.5
675.343	5.08
675.667	4.8
675.992	4.03
676.317	4.64
676.641	4.99
676.966	4.88
677.29	4.79
677.615	4.92
677.939	4.98
678.264	4.28
678.588	5.38
678.912	4.54
679.236	5.58
679.56	4.36
679.885	5.34
680.209	4.26
680.532	4.7
680.856	5.26
681.18	4.57
681.504	4.64
681.828	4.15
682.152	4.38
682.475	4.89
682.799	4.83
683.122	4.48
683.446	4.41
683.769	4.97
684.093	4.69
684.416	4.62
684.739	4.57
685.062	4.68
685.386	4.56
685.709	4.7
686.032	5.07
686.355	5.19
686.678	4.47
687.001	3.72
687.324	4.09
687.646	4.24
687.969	4.44
688.292	5.48
688.614	5.63
688.937	4.84
689.26	4.75
689.582	4.59
689.904	5.12
690.227	4.29
690.549	5.22
690.871	4.93
691.194	5.23
691.516	4.63
691.838	4.83
692.16	4.73
692.482	4.85
692.804	4.19
693.126	4.73
693.448	4.7
693.769	5.1
694.091	5.03
694.413	5.49
694.735	5.12
695.056	4.69
695.378	4.99
695.699	6.13
696.021	4.68
696.342	3.9
696.663	4.7
696.984	5.17
697.306	4.11
697.627	4.93
697.948	4.84
698.269	4.78
698.59	5.39
698.911	4.6
699.232	5.05
699.553	4.86
699.873	4.94
700.194	5.47
700.515	4.48
700.835	5
701.156	4.86
701.477	4.75
701.797	5.45
702.117	4.91
702.438	5.31
702.758	4.91
703.078	4.19
703.398	5.13
703.719	4.18
704.039	5.53
704.359	4.61
704.679	4.22
704.999	4.35
705.319	5.25
705.638	4.54
705.958	5.64
706.278	4.56
706.597	5.58
706.917	5.11
707.237	4.36
707.556	5.26
707.876	4.34
708.195	3.96
708.514	4.66
708.834	4.58
709.153	5.25
709.472	5.48
709.791	4.57
710.11	4.87
710.429	3.91
710.748	5.11
711.067	5.02
711.386	4.9
711.705	4.34
712.023	4.66
712.342	4.35
712.661	5.23
712.979	5.41
713.298	5.81
713.616	5.03
713.935	4.57
714.253	4.65
714.572	4.26
714.89	4.46
715.208	5.41
715.526	4.86
715.844	4.68
716.162	4.92
716.48	4.74
716.798	4.98
717.116	5.71
717.434	5.68
717.752	5.34
718.069	4.63
718.387	4.78
718.705	5.52
719.022	5.51
719.34	5.04
719.657	5.47
719.975	4.9
720.292	5.17
720.609	5.1
720.927	5.5
721.244	5.58
721.561	4.94
721.878	5.44
722.195	5
722.512	5.23
722.829	4.95
723.146	5.4
723.463	5.22
723.779	4.8
724.096	3.38
724.413	5.2
724.729	5.37
725.046	4.92
725.362	3.61
725.679	7.11
725.995	5.98
726.311	5.81
726.628	4.43
726.944	5.58
727.26	3.19
727.576	6.96
727.892	3.55
728.208	4.96
728.524	5.17
728.84	5.35
729.156	5.53
729.472	6.16
729.787	6.27
730.103	5.92
730.419	5.59
730.734	4.36
731.05	5.86
731.365	4.72
731.681	4.65
731.996	5.37
732.311	5.43
732.626	6.02
732.942	6.2
733.257	5.51
733.572	5.37
733.887	5.68
734.202	5.72
734.517	4.85
734.832	5.07
735.146	4.17
735.461	4.72
735.776	4.58
736.091	5.25
736.405	5.01
736.72	4.94
737.034	4.93
737.349	5.27
737.663	4.19
737.977	5.78
738.292	5.08
738.606	6.13
738.92	5.66
739.234	4.03
739.548	5.61
739.862	5.84
740.176	4.11
740.49	4.33
740.804	5.63
741.117	5.73
741.431	3.84
741.745	4.43
742.058	5.6
742.372	6
742.685	5.2
742.999	5.96
743.312	4.16
743.626	5
743.939	4.77
744.252	6.49
744.565	6.65
744.878	5.05
745.191	3.23
745.505	3.79
745.817	5.14
746.13	5.51
746.443	4.76
746.756	5.81
747.069	5.06
747.381	5.71
747.694	2.23
748.007	6.53
748.319	5.82
748.632	6.47
748.944	5.17
749.256	7.16
749.569	4.65
749.881	4.2
750.193	4.77
750.505	5.6
750.817	4.33
751.129	6.12
751.441	3.51
751.753	7.7
752.065	6.69
752.377	4.12
752.689	4.81
753	2.49
753.312	3.98
753.624	6.94
753.935	4.22
754.247	6.05
754.558	7.08
754.869	6.68
755.181	6.59
755.492	7.78
755.803	4.39
756.114	6.13
756.425	5.61
756.736	3.89
757.047	7.33
757.358	5.07
757.669	7.1
757.98	4.81
758.291	6.12
758.601	5.31
758.912	4.32
759.223	6.35
759.533	8.08
759.844	4.97
760.154	6.74
760.464	5.5
760.775	7.89
761.085	4.76
761.395	6.03
761.705	7.7
762.016	6.23
762.326	7
762.636	5.35
762.945	4.79
763.255	5.07
763.565	5.31
763.875	4.59
764.185	5.88
764.494	4.94
764.804	5.01
765.113	5.81
765.423	5.38
765.732	5.48
766.042	6.1
766.351	4.84
766.66	6.24
766.97	5.73
767.279	6.26
767.588	6.69
767.897	7.42
768.206	5.41
768.515	3.74
768.824	6.59
769.133	6.01
769.441	7.3
769.75	5.77
770.059	6.21
770.367	4.85
770.676	4.85
770.984	8.61
771.293	7.49
771.601	3.29
771.91	5.56
772.218	4.34
772.526	7.67
772.834	6.9
773.142	4.17
773.45	2.83
773.758	7.33
774.066	2.92
774.374	5.86
774.682	3.86
774.99	4.87
775.298	5.15
775.605	2.94
775.913	6.94
776.22	5.38
776.528	3.31
776.835	7.95
777.143	8.92
777.45	6.94
777.757	4.48
778.065	5.82
778.372	6
778.679	7.12
778.986	2.89
779.293	7.73
779.6	3.72
779.907	4.08
780.214	7.64
780.52	9.34
780.827	7.71
781.134	7.18
781.44	3.37
781.747	5.86
782.053	6.81
782.36	3.76
782.666	5.19
782.973	5.64
783.279	4.22
783.585	4.56
783.891	6.11
784.197	7.2
784.503	7.95
784.809	9.4
785.115	-1.76
785.421	8.73
785.727	4.68
786.033	3.1
786.339	5.83
786.644	4.83
786.95	8.79
787.255	5.19
787.561	5.99
787.866	3.22
788.172	8.31
788.477	2.41
788.782	2.77
789.088	7.29
789.393	6.63
789.698	1.08
790.003	9.18
790.308	3.1
790.613	9.73
790.918	7.45
791.223	4.84
791.527	6.32
791.832	6.74
792.137	4.13
792.441	7.2
792.746	5.89
793.05	5.39
793.355	9.58
793.659	6.08
793.963	6.33
794.268	4.92
794.572	7.14
794.876	5.55
795.18	4.01
795.484	3.69
795.788	7.13
796.092	5.03
796.396	5.9
796.7	6.92
797.004	3.4
797.307	7.97
797.611	6.92
797.915	5.82
798.218	6.3
798.522	1.69
798.825	5.97
799.128	5.63
799.432	7.99
799.735	5.72
800.038	2.7
800.341	2.6
800.644	4.87
800.947	7.51
801.25	9.52
801.553	8.44
801.856	7.19
802.159	-0.14
802.462	3.68
802.764	3.86
803.067	0.75
803.37	6.91
803.672	6.57
803.975	6.71
804.277	7.51
804.579	6.98
804.882	5.54
805.184	-0.09
805.486	1.65
805.788	6.85
806.09	3.32
806.392	6.73
806.694	3.26
806.996	9.33
807.298	-0.74
807.6	5.59
807.902	10.19
808.203	5.19
808.505	0.86
808.807	16.84
809.108	6.92
809.409	7.01
809.711	5.58
810.012	7.85
810.313	10.33
810.615	2.7
810.916	2.47
811.217	8.04
811.518	14.69
811.819	4.89
812.12	5.37
812.421	6.54
812.722	0.21
813.023	8.84
813.323	16.02
813.624	8.12
813.925	5.09
814.225	8.85
814.526	9.32
814.826	2.82
815.126	3.02
815.427	5.15
815.727	8.09
816.027	6.33
816.327	0.96
816.627	2.89
816.927	0.61
817.227	-0.15
817.527	2.71
817.827	2.58
818.127	10.16
818.427	2.38
818.727	7.33
819.026	3.03
819.326	9.99
819.625	11.18
819.925	7.93
820.224	4.6
820.524	1.03
820.823	-0.53
821.122	4.3
821.421	6.95
821.72	6.88
822.019	8.43
822.318	4.77
822.617	4.44
822.916	8.37
823.215	8.1
823.514	5.41
823.813	7.63
824.111	5.96
824.41	5.6
824.709	7.86
825.007	7.8
825.306	7.3
825.604	7.95
825.902	7.04
826.201	7.64
826.499	6.47
826.797	7.17
827.095	5.2
827.393	7.32
827.691	6.74
827.989	8.69
828.287	8.05
828.585	4.93
828.882	7.73
829.18	5.83
829.478	5.31
829.775	6.93
830.073	8.21
830.37	8.11
830.668	5.31
830.965	6
831.263	6.63
831.56	10
831.857	11.3
832.154	9.71
832.451	10.18
832.748	7.41
833.045	12.57
833.342	9.58
833.639	10.23
833.936	7.31
834.232	9.18
834.529	4.47
834.826	9.31
835.122	5.35
835.419	5.8
835.715	2.56
836.012	7.74
836.308	9.7
836.604	5.02
836.901	12.01
837.197	10.52
837.493	6.31
837.789	6.44
838.085	7.58
838.381	6.35
838.677	7.16
838.972	3.84
839.268	7.2
839.564	6.48
839.86	5.19
840.155	1.13
840.451	2.38
840.746	9.14
841.042	-2.29
841.337	5.48
841.632	17.63
841.928	13.12
842.223	-3.58
842.518	9.57
842.813	2.35
843.108	6.15
843.403	11.78
843.698	8.24
843.993	4.62
844.287	8.28
844.582	15.45
844.877	10.45
845.171	4.44
845.466	-3.69
845.761	13.68
846.055	13.07
846.349	-14.41
846.644	0.62
846.938	8.39
847.232	1.72
847.526	8.81
847.82	4.72
848.114	10.86
848.408	5.48
848.702	5.89
848.996	13.72
849.29	11.81
849.584	5.38
849.877	19.71
850.171	14.66
850.465	-0.95
850.758	-5.58
851.052	-0.35
851.345	4.04
851.638	13.93
851.932	3.11
852.225	5.69
852.518	14.7
852.811	0.15
853.104	-5.44
853.397	4.95
853.69	10.08
853.983	1.96
854.276	-1.75
854.569	13.68
854.861	5.36
855.154	0.9
855.447	1.58
855.739	15.74
856.032	-7.88
856.324	6.41
856.616	20.48
856.909	18.37
857.201	14.34
857.493	6.21
857.785	-16.81
858.077	3.31
858.369	15.36
858.661	9.69
858.953	-1.86
859.245	3.14
859.537	28.47
859.829	1.98
860.12	15.87
860.412	0.04
860.703	6.53
860.995	-4.74
861.286	19.05
861.578	-28.43
861.869	-7.4
862.16	-5.11
862.452	30.08
862.743	18.87
863.034	18.5
863.325	-8
863.616	15.62
863.907	9.13
864.198	22.02
864.488	-11.7
864.779	-3.41
865.07	22.62
865.36	14.53
865.651	9.39
865.941	27.59
866.232	-7.49
866.522	14.66
866.813	18.45
867.103	-2.83
867.393	-10.45
867.683	27.9
867.973	-17.04
868.263	-0.31
868.553	13.44
868.843	-6.41
869.133	6.62
869.423	25.54
869.713	23.38
870.002	-9.24
870.292	-7.81
870.582	29.1
870.871	2.19
871.161	-1.31
871.45	13.27
871.739	-49.78
872.029	-16.44
872.318	15.69
872.607	23.68
872.896	2.36
873.185	14.93
873.474	4.82
873.763	-3.3
874.052	7.63
874.341	-55.27
874.63	-19.38
874.918	14.33
875.207	-3.59
875.496	26.03
875.784	19.31
876.073	-2.78
876.361	11.1
876.649	26.86
876.938	-16.99
877.226	12.62
877.514	7.27
877.802	21.16
878.09	7.53
878.378	4.18
878.666	-8.46
878.954	1.42
879.242	22.67
879.53	-26.63
879.817	7.95
880.105	-1.66
880.392	-1.18
880.68	14.77
880.967	23.58
881.255	-26.33
881.542	17.63
881.83	-8.4
882.117	11.39
882.404	10.6
882.691	10.04
882.978	-15.53
883.265	9.74
883.552	13.9
883.839	0.61
884.126	8.35
884.413	7.95
884.699	8.02
884.986	9.37
885.273	4.47
885.559	4.47
885.846	4.47
