Data from 0058_forehead_Reflection__4__137.txt Node

Date: Fri Dec 16 14:57:52 CST 2022
User: ToomeyLab
Spectrometer: FLMS14357
Trigger mode: 0
Integration Time (sec): 1.000000E-2
Scans to average: 100
Electric dark correction enabled: true
Nonlinearity correction enabled: false
Boxcar width: 0
XAxis mode: Wavelengths
Number of Pixels in Spectrum: 2048
>>>>>Begin Spectral Data<<<<<
189.047	229.38
189.435	229.38
189.823	229.38
190.211	63.91
190.599	544.21
190.987	-50.94
191.375	202.62
191.763	83.69
192.151	22.75
192.538	154.52
192.926	44.88
193.314	212.99
193.702	-3.12
194.089	-44.21
194.477	39.07
194.864	196.23
195.252	10.08
195.639	259.22
196.027	23.51
196.414	-180.9
196.801	10.64
197.189	108.1
197.576	-147.47
197.963	-42.8
198.351	49.84
198.738	23.76
199.125	75.44
199.512	49.91
199.899	-120.1
200.286	15.09
200.673	39.05
201.06	9.27
201.447	22.86
201.833	13.84
202.22	8.09
202.607	17.51
202.994	35.09
203.38	-67.12
203.767	40.44
204.154	-56.11
204.54	11.87
204.927	24.36
205.313	33.2
205.699	3.98
206.086	-1.13
206.472	-4.15
206.858	19.99
207.245	23.87
207.631	31.24
208.017	42.99
208.403	25.29
208.789	12.91
209.175	56.28
209.561	51.64
209.947	8.62
210.333	6.98
210.719	27.2
211.105	2.87
211.491	25.74
211.876	-1.35
212.262	13.27
212.648	-32.68
213.034	8.13
213.419	15.27
213.805	-16.54
214.19	-1.39
214.576	7.33
214.961	13.82
215.346	-6.18
215.732	-13.51
216.117	9.97
216.502	-3.74
216.888	2.35
217.273	0.08
217.658	-1.78
218.043	24.94
218.428	-12.12
218.813	-17.69
219.198	-23.71
219.583	8.08
219.968	-0.79
220.353	1.09
220.738	-0.57
221.122	-7.33
221.507	-3.05
221.892	-6.71
222.276	-4.17
222.661	-2.17
223.046	12.38
223.43	-1.29
223.815	8.92
224.199	8.07
224.583	1.73
224.968	3.66
225.352	3.64
225.736	11
226.121	3.83
226.505	4.23
226.889	2.33
227.273	9.18
227.657	4.26
228.041	5.24
228.425	7.01
228.809	3.82
229.193	1.08
229.577	4.17
229.961	4.08
230.344	3.79
230.728	3.16
231.112	3.74
231.495	3.27
231.879	4.83
232.263	3.2
232.646	2.27
233.03	1.09
233.413	1.96
233.797	5.63
234.18	1.46
234.563	5.43
234.946	3
235.33	3.75
235.713	2.26
236.096	4.04
236.479	5.48
236.862	3.87
237.245	4.88
237.628	4.72
238.011	4.01
238.394	5.54
238.777	4.88
239.16	2.25
239.543	2
239.925	3.22
240.308	5.15
240.691	3.76
241.073	3.63
241.456	2.28
241.838	4.39
242.221	4
242.603	3.54
242.986	4.53
243.368	3.7
243.75	3.63
244.133	3.72
244.515	3.47
244.897	3.36
245.279	4.37
245.661	3.56
246.043	3.38
246.425	3.65
246.807	3.43
247.189	3.39
247.571	3.51
247.953	3.32
248.335	3.56
248.717	3.64
249.098	3.87
249.48	3.57
249.862	4.15
250.243	3.79
250.625	3.81
251.006	3.85
251.388	3.93
251.769	3.08
252.151	4.5
252.532	4.55
252.913	3.83
253.295	3.81
253.676	4.11
254.057	3.51
254.438	4.01
254.819	4.59
255.2	4.15
255.581	3.14
255.962	4.25
256.343	4.36
256.724	2.8
257.105	4.13
257.486	3.13
257.867	2.44
258.247	3.59
258.628	4.39
259.009	3.45
259.389	4.6
259.77	3.91
260.15	3.97
260.531	3.94
260.911	3.82
261.292	3.7
261.672	3.83
262.052	3.56
262.432	3.57
262.813	3.44
263.193	2.68
263.573	3.87
263.953	3.82
264.333	4.15
264.713	3.38
265.093	3.49
265.473	4.05
265.853	4.09
266.233	3.82
266.612	3.64
266.992	3.15
267.372	3.92
267.752	3.95
268.131	3.73
268.511	4.02
268.89	3.76
269.27	3.91
269.649	4.35
270.029	3.56
270.408	3.63
270.787	3.42
271.167	3.72
271.546	3.32
271.925	3.43
272.304	3.81
272.683	3.32
273.062	3.89
273.441	3.82
273.82	3.85
274.199	3.94
274.578	3.64
274.957	3.91
275.336	3.72
275.715	4.08
276.093	4.16
276.472	3.58
276.851	3.44
277.229	4.47
277.608	3.12
277.986	4.09
278.365	3.29
278.743	3.8
279.122	2.97
279.5	3.91
279.878	3.32
280.257	3.78
280.635	3.29
281.013	3.88
281.391	3.76
281.769	3.41
282.147	3.7
282.525	3.43
282.903	3.98
283.281	3.53
283.659	3.9
284.037	3.55
284.415	3.79
284.792	3.85
285.17	3.25
285.548	3.57
285.925	3.6
286.303	3.45
286.68	4.08
287.058	3.72
287.435	3.56
287.813	3.69
288.19	4.37
288.567	3.84
288.945	3.6
289.322	3.54
289.699	3.64
290.076	3.92
290.453	4.09
290.83	4.05
291.207	3.98
291.584	3.84
291.961	3.99
292.338	4.24
292.715	4.58
293.092	4.22
293.469	4.14
293.845	4.25
294.222	4.46
294.599	4.26
294.975	4.67
295.352	4.08
295.728	4.83
296.105	4.49
296.481	4.8
296.858	4.73
297.234	4.4
297.61	4.4
297.986	4.54
298.363	4.31
298.739	4.62
299.115	4.17
299.491	4.58
299.867	4.68
300.243	4.22
300.619	4.65
300.995	4.93
301.371	5.09
301.746	4.45
302.122	5.1
302.498	4.9
302.874	4.91
303.249	4.86
303.625	5.29
304	4.62
304.376	5.31
304.751	4.94
305.127	5.33
305.502	5.36
305.878	5.1
306.253	4.98
306.628	5.88
307.003	5.38
307.378	5
307.754	5.44
308.129	5.05
308.504	5.16
308.879	5.27
309.254	6.06
309.629	5.84
310.003	5.82
310.378	6.1
310.753	5.66
311.128	5.91
311.502	5.51
311.877	5.58
312.252	6.08
312.626	5.64
313.001	6.18
313.375	6.03
313.75	5.6
314.124	6.55
314.498	6.32
314.873	5.92
315.247	5.82
315.621	6.39
315.995	6.06
316.369	6.64
316.743	6.84
317.117	6.61
317.491	6.52
317.865	5.76
318.239	6.6
318.613	6.56
318.987	6.92
319.361	6.5
319.734	6.8
320.108	6.87
320.482	6.57
320.855	6.86
321.229	7.33
321.602	6.81
321.976	6.93
322.349	6.31
322.723	6.89
323.096	6.77
323.469	7.06
323.843	6.79
324.216	7.08
324.589	7.41
324.962	7.3
325.335	7.22
325.708	7.25
326.081	7.28
326.454	7.08
326.827	7.7
327.2	7.57
327.573	7.35
327.945	7.32
328.318	7.99
328.691	7.34
329.063	7.57
329.436	7.28
329.809	7.66
330.181	7.8
330.553	7.78
330.926	8.24
331.298	7.43
331.671	7.97
332.043	7.75
332.415	7.97
332.787	8.27
333.159	7.52
333.532	8.47
333.904	8.35
334.276	8.54
334.648	8.37
335.02	8.24
335.391	8.4
335.763	8.4
336.135	8.55
336.507	8.49
336.879	8.02
337.25	8.53
337.622	8.46
337.993	8.84
338.365	8.83
338.736	8.87
339.108	7.94
339.479	8.77
339.851	9.06
340.222	8.86
340.593	8.47
340.964	8.9
341.336	8.28
341.707	8.61
342.078	8.34
342.449	8.91
342.82	8.57
343.191	8.58
343.562	8.55
343.933	8.77
344.303	8.87
344.674	9.16
345.045	9.9
345.416	9.12
345.786	8.77
346.157	9.07
346.527	8.89
346.898	9.09
347.268	9.26
347.639	9.36
348.009	9.42
348.38	9.63
348.75	9.66
349.12	9.31
349.49	9.29
349.861	9.74
350.231	9.85
350.601	9.88
350.971	9.74
351.341	9.93
351.711	9.91
352.081	10.04
352.45	9.96
352.82	10.14
353.19	10.13
353.56	9.77
353.929	10.05
354.299	10.13
354.669	10.08
355.038	10.12
355.408	10.45
355.777	10.17
356.147	10.59
356.516	10.55
356.885	10.07
357.254	10.57
357.624	10.46
357.993	10.48
358.362	10.64
358.731	10.61
359.1	10.61
359.469	10.64
359.838	10.35
360.207	10.69
360.576	10.64
360.945	10.42
361.314	10.81
361.682	10.46
362.051	10.44
362.42	10.84
362.788	10.79
363.157	10.67
363.525	10.71
363.894	10.4
364.262	11.03
364.631	11.49
364.999	10.63
365.367	11.4
365.735	10.84
366.104	11.08
366.472	11.29
366.84	11.12
367.208	11.25
367.576	11.46
367.944	11.72
368.312	11.24
368.68	11.53
369.048	11.76
369.416	11.62
369.783	11.62
370.151	11.62
370.519	11.54
370.886	11.95
371.254	11.83
371.621	11.93
371.989	11.9
372.356	11.63
372.724	11.8
373.091	11.62
373.458	11.76
373.826	11.8
374.193	12.37
374.56	12.16
374.927	12
375.294	12.34
375.661	12.25
376.028	12.03
376.395	12.28
376.762	12.47
377.129	12.59
377.496	12.28
377.863	12.24
378.229	12.34
378.596	12.31
378.963	12.28
379.329	12.46
379.696	12.57
380.062	12.97
380.429	12.75
380.795	12.39
381.161	12.81
381.528	12.51
381.894	13.22
382.26	12.38
382.626	12.73
382.993	12.7
383.359	12.91
383.725	13.09
384.091	12.98
384.457	13.26
384.823	13
385.188	13.16
385.554	13.28
385.92	13.34
386.286	13.48
386.651	13.2
387.017	13.53
387.383	13.29
387.748	13.21
388.114	13.69
388.479	13.48
388.845	13.5
389.21	13.58
389.575	13.7
389.94	13.51
390.306	13.31
390.671	13.71
391.036	13.81
391.401	13.97
391.766	13.88
392.131	13.79
392.496	13.82
392.861	13.72
393.226	13.91
393.591	13.99
393.956	14.2
394.32	14.03
394.685	14.14
395.05	14.14
395.414	14.28
395.779	14.11
396.143	14.28
396.508	14.27
396.872	14.27
397.236	13.95
397.601	14.57
397.965	14.23
398.329	14.47
398.694	14.39
399.058	14.49
399.422	14.86
399.786	14.61
400.15	14.85
400.514	14.87
400.878	14.63
401.242	15.03
401.605	14.74
401.969	15.08
402.333	14.87
402.697	15.11
403.06	15.31
403.424	14.87
403.787	15.18
404.151	15.25
404.514	15.01
404.878	15.15
405.241	15.1
405.604	15.1
405.968	15.21
406.331	15.05
406.694	15.21
407.057	15.65
407.42	15.43
407.783	15.34
408.146	15.26
408.509	15.48
408.872	15.39
409.235	15.7
409.598	15.61
409.961	15.74
410.323	15.75
410.686	15.68
411.049	15.74
411.411	15.93
411.774	15.7
412.136	15.83
412.499	15.79
412.861	15.6
413.223	16.02
413.586	16.14
413.948	16.13
414.31	15.88
414.672	16.04
415.035	16.32
415.397	16.4
415.759	16.21
416.121	16.3
416.483	16.34
416.845	16.34
417.206	16.31
417.568	16.25
417.93	16.23
418.292	16.44
418.653	16.31
419.015	16.47
419.377	16.4
419.738	16.29
420.1	16.31
420.461	16.41
420.822	16.43
421.184	16.5
421.545	16.55
421.906	16.53
422.267	16.33
422.629	16.42
422.99	16.54
423.351	16.58
423.712	16.68
424.073	16.8
424.434	16.78
424.795	16.71
425.155	16.77
425.516	16.6
425.877	16.7
426.238	16.72
426.598	16.98
426.959	16.93
427.32	17.18
427.68	17.16
428.041	17.24
428.401	17.4
428.761	17.37
429.122	17.47
429.482	17.37
429.842	17.56
430.202	17.63
430.563	17.47
430.923	17.59
431.283	17.62
431.643	17.74
432.003	17.83
432.363	17.66
432.722	17.8
433.082	17.69
433.442	17.69
433.802	17.94
434.161	17.79
434.521	17.85
434.881	17.99
435.24	17.77
435.6	17.93
435.959	17.88
436.319	17.99
436.678	18.13
437.037	18.23
437.396	18.26
437.756	18.16
438.115	18.31
438.474	18.26
438.833	18.16
439.192	18.58
439.551	18.3
439.91	18.45
440.269	18.44
440.628	18.43
440.987	18.29
441.345	18.43
441.704	18.5
442.063	18.37
442.421	18.41
442.78	18.53
443.138	18.41
443.497	18.54
443.855	18.73
444.214	18.88
444.572	19
444.93	18.96
445.288	18.76
445.647	18.91
446.005	18.73
446.363	18.97
446.721	18.72
447.079	18.81
447.437	18.74
447.795	18.66
448.153	18.67
448.51	18.86
448.868	18.96
449.226	18.95
449.584	19.2
449.941	19.34
450.299	19.4
450.656	19.41
451.014	19.57
451.371	19.87
451.729	19.61
452.086	19.54
452.443	19.56
452.801	19.76
453.158	19.5
453.515	19.47
453.872	19.73
454.229	19.75
454.586	19.83
454.943	19.76
455.3	20
455.657	19.85
456.014	20.1
456.371	20.01
456.727	19.83
457.084	20.24
457.441	20.16
457.797	20.27
458.154	20.23
458.51	20.44
458.867	20.23
459.223	20.21
459.58	20.25
459.936	20.38
460.292	20.17
460.648	20.11
461.005	20.04
461.361	20.02
461.717	20.16
462.073	20.18
462.429	20.4
462.785	20.51
463.141	20.6
463.496	20.61
463.852	20.85
464.208	21.02
464.564	20.85
464.919	20.81
465.275	21.06
465.631	21.1
465.986	20.97
466.342	20.98
466.697	21.02
467.052	21.06
467.408	21.16
467.763	20.82
468.118	21.2
468.473	21.33
468.829	21.11
469.184	21.2
469.539	21.1
469.894	21.39
470.249	21.31
470.603	21.19
470.958	21.51
471.313	21.68
471.668	21.36
472.023	21.69
472.377	21.62
472.732	21.67
473.086	21.67
473.441	21.79
473.795	21.95
474.15	21.64
474.504	21.84
474.859	21.89
475.213	21.73
475.567	21.83
475.921	22.02
476.275	22.08
476.63	22.07
476.984	22.03
477.338	22.24
477.692	22.13
478.045	22.05
478.399	22.23
478.753	22.05
479.107	22.29
479.461	22.26
479.814	22.18
480.168	22.31
480.521	22.43
480.875	22.41
481.228	22.16
481.582	22.36
481.935	22.24
482.289	22.27
482.642	22.33
482.995	22.33
483.348	22.24
483.701	22.15
484.055	22.11
484.408	21.84
484.761	21.52
485.114	21.4
485.466	21.48
485.819	21.63
486.172	21.84
486.525	22.06
486.878	22.13
487.23	22.19
487.583	22.38
487.936	22.25
488.288	22.09
488.641	22.02
488.993	22.04
489.345	22.09
489.698	22.3
490.05	22.24
490.402	22.5
490.754	22.77
491.107	22.9
491.459	22.95
491.811	23.11
492.163	22.89
492.515	22.69
492.866	22.32
493.218	22.43
493.57	22.71
493.922	22.81
494.274	22.93
494.625	23.18
494.977	23.4
495.328	23.48
495.68	23.74
496.031	23.73
496.383	23.6
496.734	23.86
497.086	23.65
497.437	23.78
497.788	23.49
498.139	23.67
498.49	23.67
498.842	23.79
499.193	23.93
499.544	23.97
499.894	23.92
500.245	24
500.596	24
500.947	24.12
501.298	24.18
501.648	24.32
501.999	24.25
502.35	24.19
502.7	24.53
503.051	24.7
503.401	24.57
503.752	24.36
504.102	24.56
504.452	24.32
504.803	24.45
505.153	24.47
505.503	24.52
505.853	24.5
506.203	24.7
506.553	24.78
506.903	24.69
507.253	24.93
507.603	24.8
507.953	24.85
508.303	24.98
508.652	24.86
509.002	24.93
509.352	25.05
509.701	24.9
510.051	24.92
510.4	24.87
510.75	24.79
511.099	25.08
511.449	25.08
511.798	25.14
512.147	24.97
512.496	25.07
512.846	25.26
513.195	25.2
513.544	25.23
513.893	25.12
514.242	25.37
514.591	25.35
514.939	25.33
515.288	25.71
515.637	25.55
515.986	25.63
516.334	25.72
516.683	25.78
517.032	25.67
517.38	25.71
517.729	25.64
518.077	25.83
518.426	25.6
518.774	25.67
519.122	25.6
519.47	25.49
519.819	25.48
520.167	25.54
520.515	25.54
520.863	25.52
521.211	25.67
521.559	25.86
521.907	25.96
522.255	26.1
522.602	26.23
522.95	26.41
523.298	26.33
523.645	26.31
523.993	26.41
524.341	26.34
524.688	26.34
525.036	26.55
525.383	26.45
525.73	26.61
526.078	26.55
526.425	26.21
526.772	26
527.119	26.06
527.466	26.11
527.814	26.13
528.161	26.41
528.508	26.39
528.854	26.22
529.201	26.11
529.548	25.84
529.895	25.67
530.242	25.77
530.588	25.93
530.935	26.04
531.282	26.11
531.628	26.31
531.975	26.46
532.321	26.51
532.667	26.72
533.014	26.74
533.36	26.75
533.706	26.7
534.052	26.7
534.399	26.39
534.745	26.27
535.091	26.49
535.437	26.73
535.783	26.92
536.129	26.86
536.474	27.18
536.82	27.22
537.166	27.22
537.512	27.2
537.857	27.15
538.203	27.07
538.549	27.24
538.894	27.32
539.239	27.5
539.585	27.61
539.93	27.78
540.276	27.68
540.621	27.83
540.966	27.74
541.311	27.8
541.656	27.57
542.001	27.42
542.346	27.29
542.691	26.97
543.036	27.07
543.381	27.3
543.726	27.38
544.071	27.55
544.415	27.69
544.76	27.56
545.105	27.81
545.449	27.87
545.794	28.04
546.138	28.07
546.483	28.28
546.827	28.24
547.171	28.33
547.516	28.44
547.86	28.15
548.204	28.21
548.548	28.42
548.892	28.45
549.236	28.45
549.58	28.67
549.924	28.92
550.268	28.73
550.612	28.96
550.956	28.82
551.3	28.95
551.643	28.85
551.987	29.06
552.33	29.18
552.674	29.16
553.017	29.25
553.361	29.03
553.704	28.95
554.048	29.17
554.391	29.19
554.734	29.22
555.077	29.18
555.42	29.45
555.764	29.37
556.107	29.51
556.45	29.24
556.793	29.48
557.135	29.54
557.478	29.64
557.821	29.73
558.164	29.65
558.507	29.41
558.849	29.72
559.192	29.76
559.534	29.78
559.877	29.73
560.219	29.93
560.562	29.92
560.904	29.82
561.246	30.04
561.589	29.96
561.931	29.97
562.273	29.76
562.615	29.97
562.957	30.12
563.299	30.03
563.641	30.15
563.983	30.46
564.325	30.31
564.667	30.34
565.008	30.33
565.35	30.61
565.692	30.38
566.033	30.7
566.375	30.45
566.716	30.59
567.058	30.53
567.399	30.47
567.741	30.4
568.082	30.19
568.423	30.37
568.764	30.56
569.105	30.72
569.447	30.66
569.788	30.92
570.129	30.61
570.47	30.9
570.811	30.87
571.151	30.72
571.492	30.81
571.833	31
572.174	30.95
572.514	30.67
572.855	30.84
573.195	30.82
573.536	30.88
573.876	30.81
574.217	30.77
574.557	30.88
574.898	31.04
575.238	30.97
575.578	31.29
575.918	31.08
576.258	31.09
576.598	31.25
576.938	31.29
577.278	31.11
577.618	31.28
577.958	31.48
578.298	31.34
578.638	31.55
578.977	31.48
579.317	31.55
579.657	31.69
579.996	31.71
580.336	31.99
580.675	31.86
581.014	31.95
581.354	31.98
581.693	31.84
582.032	31.88
582.372	32
582.711	32.17
583.05	32.24
583.389	32.44
583.728	32.47
584.067	32.29
584.406	32.54
584.745	32.41
585.083	32.52
585.422	32.38
585.761	32.49
586.1	32.16
586.438	32.52
586.777	32.66
587.115	32.58
587.454	32.53
587.792	32.65
588.13	32.64
588.469	32.66
588.807	32.65
589.145	32.89
589.483	33.03
589.821	32.7
590.159	32.86
590.497	32.37
590.835	32.61
591.173	32.7
591.511	32.61
591.849	32.71
592.187	32.8
592.524	33.08
592.862	32.92
593.2	32.66
593.537	33.02
593.875	32.7
594.212	32.83
594.55	32.79
594.887	33.07
595.224	33.1
595.561	33.18
595.899	33
596.236	33.1
596.573	33.06
596.91	33.2
597.247	33.13
597.584	33.12
597.921	33.3
598.258	33
598.594	32.87
598.931	33.31
599.268	33.09
599.604	33.23
599.941	33.45
600.277	33.58
600.614	33.65
600.95	33.5
601.287	33.51
601.623	33.78
601.959	33.66
602.296	33.66
602.632	34.09
602.968	33.95
603.304	33.7
603.64	33.58
603.976	33.82
604.312	33.88
604.648	33.76
604.984	33.8
605.319	33.46
605.655	33.56
605.991	33.55
606.326	33.6
606.662	33.72
606.998	33.58
607.333	33.9
607.668	33.92
608.004	34.23
608.339	34.28
608.674	34.17
609.01	34.23
609.345	34.07
609.68	34.12
610.015	34.23
610.35	34.21
610.685	34.45
611.02	34.29
611.355	34.17
611.689	34.1
612.024	34.5
612.359	34.55
612.694	34.4
613.028	34.47
613.363	34.52
613.697	35.15
614.032	34.44
614.366	34.91
614.7	34.68
615.035	34.62
615.369	34.96
615.703	34.87
616.037	34.57
616.371	34.81
616.705	35.12
617.039	34.98
617.373	35.02
617.707	35.02
618.041	35.25
618.375	35.19
618.709	35.14
619.042	35.15
619.376	35.02
619.71	35.28
620.043	35.37
620.377	35.34
620.71	35.21
621.043	34.68
621.377	35.11
621.71	35.57
622.043	35.71
622.376	35.4
622.709	35.73
623.043	35.26
623.376	35.45
623.709	35.77
624.041	35.49
624.374	35.83
624.707	35.54
625.04	35.33
625.373	35.54
625.705	35.58
626.038	35.81
626.37	35.43
626.703	36
627.035	35.71
627.368	35.8
627.7	35.99
628.032	35.7
628.365	35.78
628.697	35.86
629.029	36.18
629.361	35.74
629.693	36.1
630.025	35.88
630.357	35.71
630.689	36.27
631.021	36.22
631.353	36.16
631.684	35.9
632.016	36.14
632.348	36.31
632.679	35.85
633.011	36.2
633.342	36.37
633.674	36.09
634.005	36.38
634.336	36.39
634.668	36.33
634.999	36.13
635.33	36.3
635.661	36.75
635.992	36.29
636.323	36.35
636.654	36.82
636.985	36.48
637.316	36.49
637.647	36.52
637.977	36.33
638.308	36.92
638.639	36.64
638.969	37.17
639.3	36.7
639.63	36.67
639.961	36.49
640.291	36.77
640.622	36.95
640.952	37.13
641.282	36.41
641.612	36.75
641.943	37.13
642.273	37.17
642.603	37.18
642.933	37.16
643.263	37.22
643.592	37.02
643.922	37.26
644.252	37.28
644.582	37.13
644.911	37.03
645.241	37.04
645.571	37.22
645.9	37.18
646.23	37.35
646.559	37.43
646.888	37
647.218	37.4
647.547	37.76
647.876	38.05
648.205	37.15
648.534	37.92
648.863	37.41
649.192	37.37
649.521	37.04
649.85	37.69
650.179	37.37
650.508	37.29
650.837	38.17
651.165	37.55
651.494	37.2
651.822	37.91
652.151	38.01
652.479	38.43
652.808	37.75
653.136	37.37
653.465	38.05
653.793	38.12
654.121	37.8
654.449	37.83
654.777	37.66
655.105	38.36
655.433	37.71
655.761	37.71
656.089	37.94
656.417	38.42
656.745	38.11
657.073	38.74
657.4	38.41
657.728	38.27
658.056	38.53
658.383	38.32
658.711	37.86
659.038	38.28
659.365	37.87
659.693	37.94
660.02	37.9
660.347	38.07
660.674	37.91
661.001	38.02
661.329	38.06
661.656	37.85
661.982	37.94
662.309	38.7
662.636	38.59
662.963	38.94
663.29	38.74
663.616	38.67
663.943	38.95
664.27	38.87
664.596	38.45
664.923	38.75
665.249	38.39
665.576	38.28
665.902	38.71
666.228	38.51
666.554	38.49
666.881	38.93
667.207	38.9
667.533	38.5
667.859	38.73
668.185	39.47
668.511	38.74
668.837	39.08
669.162	38.77
669.488	38.58
669.814	39.28
670.139	39.35
670.465	39.64
670.791	39.11
671.116	39.01
671.442	39.41
671.767	39.21
672.092	39.35
672.418	38.66
672.743	38.85
673.068	39.27
673.393	39.37
673.718	39.66
674.043	39.38
674.368	39.58
674.693	39.68
675.018	39.78
675.343	39.87
675.667	39.58
675.992	38.41
676.317	39.22
676.641	39.44
676.966	39.55
677.29	39.55
677.615	39.4
677.939	39.78
678.264	40.22
678.588	40.34
678.912	40.49
679.236	40.23
679.56	39.46
679.885	39.78
680.209	39.8
680.532	39.52
680.856	40.34
681.18	40.39
681.504	38.94
681.828	39.83
682.152	39.89
682.475	39.4
682.799	39.79
683.122	39.6
683.446	40.29
683.769	39.82
684.093	40.33
684.416	39.58
684.739	39.9
685.062	40.13
685.386	40.17
685.709	39.93
686.032	39.9
686.355	39.88
686.678	40.19
687.001	39.7
687.324	39.87
687.646	39.81
687.969	39.59
688.292	40.41
688.614	40.5
688.937	40.05
689.26	39.98
689.582	40.53
689.904	39.73
690.227	40.55
690.549	40.6
690.871	40.33
691.194	40.19
691.516	40.1
691.838	40.62
692.16	40.15
692.482	40.31
692.804	40.19
693.126	40.79
693.448	40.2
693.769	39.7
694.091	40.59
694.413	40.17
694.735	41.03
695.056	40.98
695.378	41.85
695.699	41.84
696.021	40.43
696.342	40.37
696.663	41.44
696.984	41.17
697.306	40.59
697.627	40.87
697.948	41.17
698.269	40.36
698.59	41.64
698.911	41.01
699.232	41.83
699.553	41
699.873	41.21
700.194	41.27
700.515	41.17
700.835	40.97
701.156	41.5
701.477	40.76
701.797	41.34
702.117	41.62
702.438	41.39
702.758	41.69
703.078	41.68
703.398	41.15
703.719	40.78
704.039	42.44
704.359	41.71
704.679	41.18
704.999	41.42
705.319	41.12
705.638	41.61
705.958	41.75
706.278	41.15
706.597	41.93
706.917	42.36
707.237	42.28
707.556	41.56
707.876	40.24
708.195	40.83
708.514	41.55
708.834	42.64
709.153	42.17
709.472	42.3
709.791	41.99
710.11	40.83
710.429	41.57
710.748	42.84
711.067	42.04
711.386	42.46
711.705	41.24
712.023	41.36
712.342	41.38
712.661	42.33
712.979	42.11
713.298	42.53
713.616	42.12
713.935	41.51
714.253	41.97
714.572	41.74
714.89	42.48
715.208	42.65
715.526	42.39
715.844	41.79
716.162	41.9
716.48	42.08
716.798	42.98
717.116	42.74
717.434	41.74
717.752	42.15
718.069	42.11
718.387	42.26
718.705	42.14
719.022	41.96
719.34	42.15
719.657	42.6
719.975	42.92
720.292	42.84
720.609	42.26
720.927	43.13
721.244	42.37
721.561	41.76
721.878	41.66
722.195	44.65
722.512	43.26
722.829	43.77
723.146	42.12
723.463	44.23
723.779	41.93
724.096	42.1
724.413	42.94
724.729	43
725.046	43.04
725.362	42.21
725.679	43.42
725.995	43.51
726.311	42.58
726.628	42.02
726.944	43.56
727.26	41.92
727.576	42
727.892	43.19
728.208	44.07
728.524	43.3
728.84	43.06
729.156	43.21
729.472	44.66
729.787	43.21
730.103	42.96
730.419	42.49
730.734	42.89
731.05	43.93
731.365	43.05
731.681	42.86
731.996	43.26
732.311	42.97
732.626	43.41
732.942	43.58
733.257	42.92
733.572	43.91
733.887	44.25
734.202	43.04
734.517	42.32
734.832	43.77
735.146	43.54
735.461	43.34
735.776	43.32
736.091	42.88
736.405	44.79
736.72	43.08
737.034	43.96
737.349	42.88
737.663	44.2
737.977	45.19
738.292	44.05
738.606	43.45
738.92	42.24
739.234	43.69
739.548	43.31
739.862	44.27
740.176	42.06
740.49	43.77
740.804	43.69
741.117	44.9
741.431	44.55
741.745	44.15
742.058	42.67
742.372	41.91
742.685	42.88
742.999	42.66
743.312	42.34
743.626	43.81
743.939	44.07
744.252	44.29
744.565	44.48
744.878	43.68
745.191	45.17
745.505	43.27
745.817	44.28
746.13	43.51
746.443	43.16
746.756	43.73
747.069	43.33
747.381	43.93
747.694	44.06
748.007	42.49
748.319	44.16
748.632	43.54
748.944	43.18
749.256	44.76
749.569	43.8
749.881	43.78
750.193	42.26
750.505	44.6
750.817	45.96
751.129	44.31
751.441	43.61
751.753	45.31
752.065	43.48
752.377	44.86
752.689	45.2
753	44.3
753.312	43.87
753.624	42.74
753.935	43.05
754.247	47.97
754.558	45.05
754.869	44.59
755.181	43.8
755.492	43.29
755.803	45.97
756.114	44.29
756.425	45.12
756.736	43.33
757.047	46.29
757.358	42.74
757.669	45.07
757.98	44.7
758.291	43.65
758.601	43.99
758.912	43.48
759.223	45.06
759.533	45.42
759.844	43.26
760.154	44.43
760.464	47.12
760.775	45.98
761.085	44.38
761.395	45.91
761.705	45.33
762.016	45.06
762.326	45.74
762.636	46.69
762.945	44.78
763.255	43.46
763.565	44.39
763.875	44.43
764.185	44.71
764.494	44.46
764.804	45.02
765.113	45.35
765.423	44.41
765.732	44.74
766.042	45.9
766.351	45.28
766.66	46.36
766.97	46.99
767.279	45.91
767.588	45.24
767.897	44.83
768.206	46.22
768.515	45.69
768.824	44.88
769.133	44.67
769.441	45.42
769.75	43.16
770.059	45.93
770.367	43.81
770.676	45.57
770.984	44.53
771.293	45.56
771.601	44.61
771.91	47.68
772.218	44.14
772.526	46.77
772.834	46.61
773.142	43.01
773.45	44.58
773.758	46.83
774.066	43.47
774.374	45.3
774.682	45.78
774.99	45.41
775.298	46.7
775.605	42.1
775.913	46.36
776.22	46
776.528	40.83
776.835	46.87
777.143	42.39
777.45	47.12
777.757	41.84
778.065	45.88
778.372	45.33
778.679	43.91
778.986	46.48
779.293	44.72
779.6	44.37
779.907	44.3
780.214	44.25
780.52	46.84
780.827	48.81
781.134	45.01
781.44	43.82
781.747	45.67
782.053	44.55
782.36	45.21
782.666	44.62
782.973	44.53
783.279	49.87
783.585	44.63
783.891	45.89
784.197	48.22
784.503	49.16
784.809	46.36
785.115	43.36
785.421	45.24
785.727	43.82
786.033	44.15
786.339	43.68
786.644	47.12
786.95	48.67
787.255	45.37
787.561	46.28
787.866	47.33
788.172	50.02
788.477	48.63
788.782	45.77
789.088	50.84
789.393	43.69
789.698	42.41
790.003	45.24
790.308	46.73
790.613	47.54
790.918	47.87
791.223	47.61
791.527	48.97
791.832	47.06
792.137	46.75
792.441	46.51
792.746	42.5
793.05	48.92
793.355	49.59
793.659	47.25
793.963	45.67
794.268	49.69
794.572	50.93
794.876	46.07
795.18	45.39
795.484	45.41
795.788	48.16
796.092	47.78
796.396	49.08
796.7	46.91
797.004	48.24
797.307	45.96
797.611	43.95
797.915	49.39
798.218	48.79
798.522	43.86
798.825	48.54
799.128	46.76
799.432	47.04
799.735	42.38
800.038	43.71
800.341	44.66
800.644	47.94
800.947	49.63
801.25	45.07
801.553	46.64
801.856	47.87
802.159	43.94
802.462	45.68
802.764	49.68
803.067	45.7
803.37	49.16
803.672	44.66
803.975	54.7
804.277	49.88
804.579	47.24
804.882	46.5
805.184	47.95
805.486	48.8
805.788	47.7
806.09	45.07
806.392	48.17
806.694	46.55
806.996	47.11
807.298	45.69
807.6	47
807.902	50.32
808.203	47.64
808.505	47.57
808.807	52.43
809.108	46.4
809.409	45.23
809.711	41.19
810.012	47.09
810.313	45.56
810.615	52.4
810.916	52.93
811.217	48.39
811.518	48.93
811.819	46.85
812.12	48.09
812.421	44.26
812.722	45.26
813.023	47.94
813.323	49.28
813.624	54.36
813.925	47.71
814.225	42.29
814.526	53.19
814.826	45.42
815.126	49.44
815.427	48.59
815.727	48.17
816.027	46.51
816.327	39.99
816.627	43.38
816.927	47.95
817.227	46.86
817.527	47.12
817.827	52.52
818.127	50.66
818.427	49.9
818.727	46.21
819.026	49.45
819.326	50.07
819.625	54.64
819.925	43.6
820.224	48.87
820.524	49.16
820.823	46.38
821.122	49.83
821.421	44.46
821.72	43.64
822.019	46.33
822.318	47.39
822.617	49.8
822.916	49.16
823.215	48.82
823.514	49.1
823.813	48.22
824.111	49.24
824.41	49.05
824.709	49.17
825.007	49.42
825.306	48.28
825.604	49.44
825.902	48.46
826.201	48.53
826.499	47.67
826.797	50.47
827.095	48.01
827.393	48.1
827.691	46.76
827.989	49.67
828.287	50.64
828.585	49.03
828.882	48.72
829.18	51.18
829.478	49.23
829.775	49.88
830.073	49.84
830.37	50.39
830.668	49.52
830.965	47.51
831.263	45.98
831.56	49.08
831.857	51.39
832.154	47.31
832.451	50.92
832.748	45.1
833.045	55.2
833.342	43.2
833.639	48.49
833.936	51.42
834.232	49.83
834.529	50.39
834.826	47.37
835.122	47.14
835.419	51.9
835.715	44.57
836.012	50.42
836.308	52.64
836.604	49.99
836.901	52.58
837.197	50.08
837.493	49.8
837.789	49.74
838.085	47.33
838.381	51.48
838.677	48.63
838.972	47.57
839.268	49.8
839.564	53.19
839.86	45.74
840.155	55.41
840.451	44.26
840.746	51.29
841.042	44.15
841.337	41.2
841.632	49.37
841.928	43.02
842.223	41.23
842.518	52.98
842.813	59.67
843.108	43.43
843.403	54.6
843.698	44.57
843.993	44.86
844.287	52.59
844.582	56.18
844.877	52.4
845.171	47.98
845.466	39.41
845.761	49.09
846.055	51.21
846.349	31.28
846.644	46.58
846.938	35.08
847.232	30.72
847.526	48.43
847.82	42.22
848.114	51.1
848.408	53.87
848.702	55.47
848.996	32.99
849.29	43.61
849.584	42.02
849.877	50.3
850.171	49.27
850.465	38.38
850.758	53.03
851.052	41.78
851.345	45.25
851.638	38.03
851.932	39.35
852.225	50.08
852.518	52.58
852.811	63.16
853.104	46.24
853.397	51.01
853.69	32.4
853.983	47.08
854.276	45.23
854.569	46.23
854.861	71.12
855.154	33.01
855.447	35.38
855.739	46.49
856.032	30.03
856.324	28.07
856.616	56.16
856.909	48.72
857.201	51.92
857.493	48.28
857.785	58.74
858.077	29.34
858.369	53.77
858.661	43.27
858.953	39.87
859.245	34.44
859.537	54.29
859.829	45.97
860.12	40.94
860.412	33.09
860.703	34.32
860.995	38.43
861.286	70.35
861.578	59.1
861.869	29.09
862.16	24.61
862.452	45.6
862.743	54.68
863.034	46.11
863.325	44.58
863.616	59.89
863.907	52.22
864.198	61.14
864.488	32.26
864.779	55.36
865.07	66.52
865.36	57.31
865.651	36.64
865.941	42.45
866.232	41.71
866.522	53.26
866.813	51.73
867.103	43.86
867.393	10.35
867.683	37.3
867.973	29.37
868.263	39.36
868.553	69.31
868.843	40.61
869.133	48.73
869.423	58.23
869.713	71.8
870.002	64.01
870.292	33.66
870.582	39.2
870.871	37.15
871.161	34.88
871.45	52.5
871.739	-6.73
872.029	59.11
872.318	43.01
872.607	71.81
872.896	37.94
873.185	63.23
873.474	42.02
873.763	48.09
874.052	47.56
874.341	39.29
874.63	26.36
874.918	50.5
875.207	42.33
875.496	30.61
875.784	68.18
876.073	31.25
876.361	41.34
876.649	67.22
876.938	44.01
877.226	63.8
877.514	34.71
877.802	43.07
878.09	49.71
878.378	45.75
878.666	48.16
878.954	44.39
879.242	53.36
879.53	26.38
879.817	37.81
880.105	32.37
880.392	53.22
880.68	98.52
880.967	56.73
881.255	21.03
881.542	34.2
881.83	57.56
882.117	53.54
882.404	32.38
882.691	50.69
882.978	39.33
883.265	48.4
883.552	48.25
883.839	48.66
884.126	46.3
884.413	45.75
884.699	55.55
884.986	50.22
885.273	52.76
885.559	52.76
885.846	52.76
