Data from 0058_forehead_Reflection__3__136.txt Node

Date: Fri Dec 16 14:57:41 CST 2022
User: ToomeyLab
Spectrometer: FLMS14357
Trigger mode: 0
Integration Time (sec): 1.000000E-2
Scans to average: 100
Electric dark correction enabled: true
Nonlinearity correction enabled: false
Boxcar width: 0
XAxis mode: Wavelengths
Number of Pixels in Spectrum: 2048
>>>>>Begin Spectral Data<<<<<
189.047	714.46
189.435	714.46
189.823	714.46
190.211	-0.28
190.599	94.01
190.987	131.26
191.375	28.3
191.763	115.46
192.151	-15.1
192.538	70.49
192.926	22.18
193.314	119.52
193.702	101.26
194.089	135.41
194.477	-58.47
194.864	97.66
195.252	-72.28
195.639	512.4
196.027	-92.05
196.414	71.82
196.801	6.84
197.189	-42.79
197.576	103.54
197.963	-51.45
198.351	78.52
198.738	28.21
199.125	60.27
199.512	50.6
199.899	-11.67
200.286	1.05
200.673	36.39
201.06	44.35
201.447	72.3
201.833	27.95
202.22	38.51
202.607	38.21
202.994	61.25
203.38	3.46
203.767	123.28
204.154	-11.08
204.54	77.67
204.927	69.31
205.313	62.18
205.699	34.55
206.086	15.83
206.472	38.24
206.858	78.7
207.245	22.55
207.631	17.61
208.017	37.35
208.403	36.04
208.789	45.83
209.175	49.6
209.561	35.27
209.947	-12.87
210.333	23.8
210.719	16.6
211.105	31.12
211.491	34.22
211.876	17.5
212.262	49.49
212.648	3.4
213.034	28.76
213.419	61.99
213.805	64.65
214.19	57.8
214.576	-13.04
214.961	40.52
215.346	-2.19
215.732	5.05
216.117	23.94
216.502	26.69
216.888	2.46
217.273	23.27
217.658	26.05
218.043	13
218.428	11.16
218.813	27.32
219.198	32.06
219.583	2.17
219.968	12.67
220.353	40.6
220.738	-8.04
221.122	-13.92
221.507	1.95
221.892	10.38
222.276	29.68
222.661	6.59
223.046	12.14
223.43	4.37
223.815	13.72
224.199	9.91
224.583	12.77
224.968	19.92
225.352	-1.74
225.736	6.45
226.121	6.78
226.505	8.07
226.889	13.73
227.273	2.62
227.657	4.29
228.041	6.76
228.425	7.81
228.809	3.56
229.193	4.36
229.577	5.46
229.961	4.63
230.344	4.13
230.728	4.43
231.112	4.46
231.495	2.41
231.879	5.62
232.263	3.22
232.646	3.65
233.03	2.47
233.413	5.36
233.797	6.76
234.18	4.71
234.563	5.27
234.946	4.51
235.33	5.04
235.713	4.46
236.096	3.67
236.479	5.35
236.862	4.81
237.245	5.09
237.628	3.96
238.011	5.94
238.394	6.93
238.777	6.09
239.16	2.68
239.543	4.25
239.925	5.22
240.308	3.73
240.691	3.58
241.073	5.65
241.456	3.6
241.838	5.27
242.221	4.76
242.603	4.32
242.986	4.81
243.368	3.96
243.75	3.8
244.133	4.57
244.515	4.1
244.897	4.69
245.279	4.89
245.661	4.32
246.043	5.67
246.425	4.68
246.807	4.31
247.189	4.22
247.571	4.42
247.953	4.48
248.335	4.37
248.717	4.22
249.098	4.41
249.48	4.03
249.862	4.71
250.243	4.31
250.625	4.7
251.006	4.51
251.388	4.99
251.769	4.54
252.151	5.42
252.532	4.81
252.913	4.62
253.295	4.37
253.676	4.67
254.057	4.91
254.438	4.15
254.819	4.33
255.2	5.25
255.581	5.77
255.962	5.47
256.343	5.49
256.724	5.28
257.105	4.97
257.486	4.65
257.867	2.71
258.247	5.12
258.628	4.96
259.009	4.85
259.389	5.3
259.77	4.76
260.15	5.33
260.531	4.21
260.911	4.52
261.292	4.27
261.672	4.17
262.052	4.37
262.432	4.48
262.813	4.48
263.193	4.36
263.573	4.08
263.953	4.53
264.333	4.21
264.713	4.05
265.093	4.07
265.473	5.04
265.853	5
266.233	4.55
266.612	5.08
266.992	4.2
267.372	4.48
267.752	4.06
268.131	4.64
268.511	4.52
268.89	4.5
269.27	5.04
269.649	4.69
270.029	4.15
270.408	4.56
270.787	4.47
271.167	4.73
271.546	4.32
271.925	4.37
272.304	4.88
272.683	4.2
273.062	4.22
273.441	4.68
273.82	4.35
274.199	4.44
274.578	4.3
274.957	4.22
275.336	3.99
275.715	4.63
276.093	5.06
276.472	4.94
276.851	4.17
277.229	4.91
277.608	4.01
277.986	4.4
278.365	4.57
278.743	4.69
279.122	3.92
279.5	4.03
279.878	4.31
280.257	4.38
280.635	4.46
281.013	4.89
281.391	4.02
281.769	4.09
282.147	4.63
282.525	4.44
282.903	4.5
283.281	4.13
283.659	4.61
284.037	4.66
284.415	4.71
284.792	4.31
285.17	4.75
285.548	4.28
285.925	4.41
286.303	4.12
286.68	4.4
287.058	4.53
287.435	4.13
287.813	4.34
288.19	4.8
288.567	4.73
288.945	4.68
289.322	4.84
289.699	4.58
290.076	4.84
290.453	4.54
290.83	4.59
291.207	5.04
291.584	4.55
291.961	5.05
292.338	5.05
292.715	5.14
293.092	5.41
293.469	5.44
293.845	5.22
294.222	5.2
294.599	5.53
294.975	5.59
295.352	5.13
295.728	5.21
296.105	4.99
296.481	5.95
296.858	5.46
297.234	5.85
297.61	5.31
297.986	5.21
298.363	5.01
298.739	5.63
299.115	5.47
299.491	5.39
299.867	5.69
300.243	5.72
300.619	5.33
300.995	5.89
301.371	5.87
301.746	5.34
302.122	6.41
302.498	5.99
302.874	5.84
303.249	6.39
303.625	5.53
304	5.7
304.376	5.99
304.751	5.91
305.127	5.71
305.502	6.5
305.878	6.21
306.253	6.05
306.628	6.86
307.003	6.39
307.378	5.72
307.754	6.28
308.129	6.14
308.504	6.06
308.879	6.32
309.254	6.71
309.629	6.61
310.003	6.98
310.378	6.83
310.753	6.71
311.128	6.85
311.502	6.85
311.877	6.42
312.252	6.73
312.626	6.83
313.001	6.92
313.375	6.61
313.75	6.69
314.124	7.4
314.498	7.09
314.873	7.25
315.247	7
315.621	7.37
315.995	7.74
316.369	7.73
316.743	7.71
317.117	7.37
317.491	7.55
317.865	7.08
318.239	7.44
318.613	7.96
318.987	8.03
319.361	7.77
319.734	7.76
320.108	8.17
320.482	8.03
320.855	8.1
321.229	8.15
321.602	7.51
321.976	8.36
322.349	7.61
322.723	7.61
323.096	8.03
323.469	8.07
323.843	8.08
324.216	7.99
324.589	9.11
324.962	8.29
325.335	8.54
325.708	8.6
326.081	8.79
326.454	8.63
326.827	8.49
327.2	8.75
327.573	9
327.945	8.7
328.318	8.69
328.691	8.95
329.063	8.33
329.436	8.75
329.809	8.79
330.181	9.71
330.553	8.71
330.926	9.82
331.298	9.21
331.671	9.18
332.043	9.19
332.415	9.3
332.787	9.72
333.159	8.92
333.532	8.92
333.904	9.31
334.276	9.69
334.648	9.3
335.02	9.16
335.391	9.26
335.763	9.05
336.135	9.79
336.507	9.7
336.879	9.15
337.25	9.34
337.622	10
337.993	10.12
338.365	9.94
338.736	9.95
339.108	9.43
339.479	9.76
339.851	10.13
340.222	10.19
340.593	9.35
340.964	10.28
341.336	9.67
341.707	9.83
342.078	9.92
342.449	10.1
342.82	9.73
343.191	10.23
343.562	10.26
343.933	10.42
344.303	10.22
344.674	10.72
345.045	10.52
345.416	10.42
345.786	10.11
346.157	10.42
346.527	10.55
346.898	10.52
347.268	10.69
347.639	10.51
348.009	10.81
348.38	10.66
348.75	10.62
349.12	10.9
349.49	10.75
349.861	11.27
350.231	11.15
350.601	10.86
350.971	11.08
351.341	11.13
351.711	10.76
352.081	11.49
352.45	11.34
352.82	11.57
353.19	11.29
353.56	11.32
353.929	11.22
354.299	11.47
354.669	11.26
355.038	11.19
355.408	11.6
355.777	11.02
356.147	11.56
356.516	11.76
356.885	11.43
357.254	11.45
357.624	11.86
357.993	11.55
358.362	11.57
358.731	11.46
359.1	11.86
359.469	11.8
359.838	11.73
360.207	11.74
360.576	12.09
360.945	11.51
361.314	12.18
361.682	11.65
362.051	11.84
362.42	12.04
362.788	11.96
363.157	11.9
363.525	12.02
363.894	11.8
364.262	11.77
364.631	13.07
364.999	12.07
365.367	12.44
365.735	11.82
366.104	12.02
366.472	12.42
366.84	12.34
367.208	12.23
367.576	12.39
367.944	12.87
368.312	12.26
368.68	12.82
369.048	12.85
369.416	12.82
369.783	12.79
370.151	12.98
370.519	12.55
370.886	12.86
371.254	12.97
371.621	13.01
371.989	12.99
372.356	12.75
372.724	12.91
373.091	13.16
373.458	13.11
373.826	12.48
374.193	13.52
374.56	13.04
374.927	13.03
375.294	13.48
375.661	12.9
376.028	13.54
376.395	13.21
376.762	13.59
377.129	13.55
377.496	13.59
377.863	13.67
378.229	13.67
378.596	13.42
378.963	13.44
379.329	13.78
379.696	13.53
380.062	14.13
380.429	13.81
380.795	13.77
381.161	13.8
381.528	13.63
381.894	13.74
382.26	13.84
382.626	14.05
382.993	13.69
383.359	14.09
383.725	14.25
384.091	14.52
384.457	14.35
384.823	14.19
385.188	14.42
385.554	14.27
385.92	14.51
386.286	14.31
386.651	14.15
387.017	14.27
387.383	14.58
387.748	14.26
388.114	14.83
388.479	14.61
388.845	14.58
389.21	14.8
389.575	14.54
389.94	14.67
390.306	14.58
390.671	14.51
391.036	14.86
391.401	15.14
391.766	14.96
392.131	15.08
392.496	14.77
392.861	14.9
393.226	14.96
393.591	15.11
393.956	15.23
394.32	14.85
394.685	15.19
395.05	15.23
395.414	15.2
395.779	15.24
396.143	15.19
396.508	15.34
396.872	15.36
397.236	15.14
397.601	15.31
397.965	15.37
398.329	15.42
398.694	15.48
399.058	15.66
399.422	15.59
399.786	15.61
400.15	15.88
400.514	15.94
400.878	15.65
401.242	15.75
401.605	15.6
401.969	15.88
402.333	16.11
402.697	15.8
403.06	16.05
403.424	16.02
403.787	16
404.151	16.02
404.514	16.2
404.878	16.32
405.241	16.1
405.604	15.99
405.968	16.06
406.331	16.46
406.694	16.2
407.057	16.53
407.42	16.21
407.783	16.18
408.146	16.14
408.509	16.21
408.872	16.24
409.235	16.67
409.598	16.6
409.961	16.7
410.323	16.6
410.686	16.48
411.049	16.65
411.411	16.81
411.774	16.69
412.136	16.75
412.499	16.97
412.861	16.65
413.223	16.8
413.586	16.87
413.948	16.98
414.31	17.12
414.672	16.8
415.035	17.13
415.397	17.19
415.759	17.2
416.121	17.17
416.483	17.36
416.845	17.12
417.206	17.25
417.568	17.17
417.93	17.04
418.292	17.16
418.653	17.3
419.015	17.14
419.377	17.24
419.738	17.06
420.1	17.3
420.461	17.19
420.822	17.27
421.184	17.2
421.545	17.26
421.906	17.32
422.267	17.19
422.629	17.17
422.99	17.13
423.351	17.37
423.712	17.24
424.073	17.6
424.434	17.45
424.795	17.45
425.155	17.57
425.516	17.33
425.877	17.46
426.238	17.42
426.598	17.6
426.959	17.72
427.32	17.9
427.68	17.97
428.041	17.96
428.401	18.04
428.761	18.08
429.122	18.24
429.482	18.1
429.842	18.29
430.202	18.2
430.563	18.27
430.923	18.39
431.283	18.08
431.643	18.28
432.003	18.7
432.363	18.57
432.722	18.45
433.082	18.45
433.442	18.56
433.802	18.59
434.161	18.46
434.521	18.5
434.881	18.55
435.24	18.52
435.6	18.65
435.959	18.59
436.319	18.56
436.678	18.7
437.037	18.89
437.396	18.99
437.756	18.78
438.115	19
438.474	18.93
438.833	19.04
439.192	19.06
439.551	19.04
439.91	19.09
440.269	18.96
440.628	19.02
440.987	18.89
441.345	18.84
441.704	19.1
442.063	18.97
442.421	18.97
442.78	19.01
443.138	19.14
443.497	19.11
443.855	19.38
444.214	19.5
444.572	19.16
444.93	19.42
445.288	19.48
445.647	19.45
446.005	19.3
446.363	19.42
446.721	19.2
447.079	19.28
447.437	19.29
447.795	19.27
448.153	19.25
448.51	19.17
448.868	19.46
449.226	19.41
449.584	19.7
449.941	19.7
450.299	19.84
450.656	20.04
451.014	19.93
451.371	19.96
451.729	20.06
452.086	20
452.443	20.08
452.801	19.98
453.158	20.06
453.515	19.95
453.872	20.2
454.229	20.06
454.586	20.08
454.943	20.2
455.3	20.44
455.657	20.3
456.014	20.65
456.371	20.38
456.727	20.36
457.084	20.66
457.441	20.64
457.797	20.76
458.154	20.6
458.51	20.74
458.867	20.63
459.223	20.62
459.58	20.72
459.936	20.62
460.292	20.47
460.648	20.37
461.005	20.36
461.361	20.4
461.717	20.38
462.073	20.61
462.429	20.64
462.785	20.8
463.141	21.01
463.496	20.85
463.852	21.03
464.208	21.24
464.564	21.13
464.919	20.97
465.275	21.2
465.631	21.32
465.986	21.31
466.342	21.31
466.697	21.13
467.052	21.51
467.408	21.33
467.763	21.4
468.118	21.53
468.473	21.44
468.829	21.27
469.184	21.66
469.539	21.24
469.894	21.51
470.249	21.56
470.603	21.58
470.958	21.77
471.313	21.68
471.668	21.82
472.023	21.74
472.377	21.75
472.732	21.82
473.086	21.76
473.441	21.98
473.795	22.13
474.15	21.86
474.504	21.8
474.859	21.98
475.213	21.97
475.567	21.88
475.921	22.08
476.275	22.52
476.63	22.17
476.984	22.1
477.338	22.61
477.692	22.25
478.045	22.19
478.399	22.19
478.753	22.16
479.107	22.32
479.461	22.17
479.814	22.3
480.168	22.38
480.521	22.36
480.875	22.35
481.228	22.28
481.582	22.33
481.935	22.37
482.289	22.19
482.642	22.35
482.995	22.3
483.348	22.19
483.701	22.17
484.055	22.05
484.408	21.85
484.761	21.55
485.114	21.39
485.466	21.47
485.819	21.6
486.172	21.78
486.525	21.82
486.878	21.91
487.23	22.18
487.583	22.3
487.936	22.18
488.288	22.05
488.641	22.01
488.993	21.89
489.345	22.01
489.698	22.1
490.05	22.08
490.402	22.37
490.754	22.63
491.107	22.66
491.459	22.87
491.811	22.84
492.163	22.72
492.515	22.53
492.866	22.23
493.218	22.24
493.57	22.44
493.922	22.53
494.274	22.76
494.625	22.96
494.977	23.18
495.328	23.34
495.68	23.5
496.031	23.61
496.383	23.22
496.734	23.66
497.086	23.3
497.437	23.58
497.788	23.36
498.139	23.4
498.49	23.38
498.842	23.51
499.193	23.47
499.544	23.64
499.894	23.67
500.245	23.71
500.596	23.7
500.947	23.8
501.298	23.82
501.648	23.99
501.999	24.04
502.35	24.08
502.7	24.11
503.051	24.41
503.401	24.02
503.752	24.1
504.102	24.1
504.452	24.09
504.803	23.96
505.153	24.28
505.503	24.08
505.853	24.03
506.203	24.18
506.553	24.27
506.903	24.08
507.253	24.41
507.603	24.28
507.953	24.61
508.303	24.53
508.652	24.44
509.002	24.37
509.352	24.32
509.701	24.29
510.051	24.3
510.4	24.26
510.75	24.37
511.099	24.35
511.449	24.45
511.798	24.53
512.147	24.56
512.496	24.5
512.846	24.66
513.195	24.51
513.544	24.56
513.893	24.42
514.242	24.69
514.591	24.6
514.939	24.82
515.288	25.02
515.637	24.89
515.986	24.93
516.334	25.13
516.683	25.06
517.032	25.03
517.38	24.99
517.729	25.2
518.077	25
518.426	24.99
518.774	25.03
519.122	25.05
519.47	24.96
519.819	24.87
520.167	24.74
520.515	24.77
520.863	24.86
521.211	25.01
521.559	25.07
521.907	25.02
522.255	25.35
522.602	25.49
522.95	25.39
523.298	25.55
523.645	25.55
523.993	25.62
524.341	25.63
524.688	25.45
525.036	25.72
525.383	25.66
525.73	25.63
526.078	25.51
526.425	25.36
526.772	25.17
527.119	25.26
527.466	25.26
527.814	25.29
528.161	25.51
528.508	25.42
528.854	25.38
529.201	25.22
529.548	24.92
529.895	24.75
530.242	24.84
530.588	24.96
530.935	25.04
531.282	25.27
531.628	25.33
531.975	25.48
532.321	25.64
532.667	25.77
533.014	25.76
533.36	25.8
533.706	25.94
534.052	25.72
534.399	25.44
534.745	25.32
535.091	25.42
535.437	25.63
535.783	25.8
536.129	25.93
536.474	26.27
536.82	26.24
537.166	26.06
537.512	26.14
537.857	26.08
538.203	26.05
538.549	26.16
538.894	26.32
539.239	26.45
539.585	26.56
539.93	26.6
540.276	26.52
540.621	26.58
540.966	26.68
541.311	26.7
541.656	26.46
542.001	26.27
542.346	26.08
542.691	25.68
543.036	25.85
543.381	26.09
543.726	26.08
544.071	26.3
544.415	26.39
544.76	26.38
545.105	26.53
545.449	26.71
545.794	26.7
546.138	26.82
546.483	27.08
546.827	26.94
547.171	26.98
547.516	27.08
547.86	26.97
548.204	26.98
548.548	26.89
548.892	27.25
549.236	27.28
549.58	27.45
549.924	27.53
550.268	27.56
550.612	27.84
550.956	27.49
551.3	27.63
551.643	27.73
551.987	27.65
552.33	27.76
552.674	27.87
553.017	27.79
553.361	27.71
553.704	27.75
554.048	27.73
554.391	27.75
554.734	27.71
555.077	27.76
555.42	28.07
555.764	27.99
556.107	27.95
556.45	27.85
556.793	28.11
557.135	28.12
557.478	28.27
557.821	28.18
558.164	28.26
558.507	28.29
558.849	28.08
559.192	28.37
559.534	28.29
559.877	28.35
560.219	28.52
560.562	28.37
560.904	28.39
561.246	28.46
561.589	28.68
561.931	28.67
562.273	28.28
562.615	28.54
562.957	28.69
563.299	28.66
563.641	28.6
563.983	28.5
564.325	28.67
564.667	28.63
565.008	28.74
565.35	28.88
565.692	28.94
566.033	29
566.375	28.72
566.716	28.7
567.058	28.84
567.399	28.85
567.741	28.72
568.082	28.79
568.423	28.87
568.764	28.67
569.105	28.91
569.447	28.96
569.788	29.02
570.129	28.85
570.47	28.92
570.811	29.04
571.151	29.23
571.492	29.2
571.833	29.14
572.174	28.95
572.514	29.07
572.855	29.16
573.195	28.94
573.536	29.04
573.876	29.01
574.217	29.06
574.557	29.13
574.898	29.2
575.238	29.1
575.578	29.37
575.918	29.2
576.258	29.26
576.598	29.32
576.938	29.4
577.278	29.18
577.618	29.34
577.958	29.64
578.298	29.48
578.638	29.39
578.977	29.71
579.317	29.7
579.657	29.93
579.996	29.74
580.336	29.73
580.675	29.77
581.014	30.1
581.354	30.34
581.693	30.16
582.032	29.89
582.372	30
582.711	29.95
583.05	30.19
583.389	30.37
583.728	30.07
584.067	30.03
584.406	30.27
584.745	30.21
585.083	30.32
585.422	30.27
585.761	30.27
586.1	30.04
586.438	30.59
586.777	30.27
587.115	30.63
587.454	30.21
587.792	30.36
588.13	30.6
588.469	30.48
588.807	30.2
589.145	30.74
589.483	30.52
589.821	30.42
590.159	30.43
590.497	30.2
590.835	30.36
591.173	30.56
591.511	30.61
591.849	30.62
592.187	30.47
592.524	30.74
592.862	30.78
593.2	30.48
593.537	30.93
593.875	30.31
594.212	30.82
594.55	30.83
594.887	30.85
595.224	30.71
595.561	30.91
595.899	30.96
596.236	30.93
596.573	30.85
596.91	30.79
597.247	30.86
597.584	30.82
597.921	30.83
598.258	30.63
598.594	30.51
598.931	30.87
599.268	30.81
599.604	30.94
599.941	30.83
600.277	31.12
600.614	30.98
600.95	31.12
601.287	31.38
601.623	31.16
601.959	31.13
602.296	31.44
602.632	31.32
602.968	31.52
603.304	31.45
603.64	31.21
603.976	31.18
604.312	31.5
604.648	31.21
604.984	31.12
605.319	31.04
605.655	31.03
605.991	31.04
606.326	31.28
606.662	30.98
606.998	31.29
607.333	31.24
607.668	31.47
608.004	31.59
608.339	31.67
608.674	31.42
609.01	31.63
609.345	31.8
609.68	31.67
610.015	31.55
610.35	31.63
610.685	31.68
611.02	31.76
611.355	31.65
611.689	31.35
612.024	31.6
612.359	31.94
612.694	31.96
613.028	31.87
613.363	31.9
613.697	32.09
614.032	31.9
614.366	31.87
614.7	32.12
615.035	31.9
615.369	32.26
615.703	32.13
616.037	32.22
616.371	32.12
616.705	32.19
617.039	32.06
617.373	32.33
617.707	32.39
618.041	32.11
618.375	31.96
618.709	32.37
619.042	32.32
619.376	32.37
619.71	32.62
620.043	32.55
620.377	32.66
620.71	32.47
621.043	32.36
621.377	32.45
621.71	32.55
622.043	32.59
622.376	32.7
622.709	32.16
623.043	32.48
623.376	33.05
623.709	32.6
624.041	32.51
624.374	32.56
624.707	32.38
625.04	32.76
625.373	32.58
625.705	32.92
626.038	32.92
626.37	32.48
626.703	32.82
627.035	32.94
627.368	32.69
627.7	32.81
628.032	33.02
628.365	32.51
628.697	32.54
629.029	33.35
629.361	32.93
629.693	33.03
630.025	33.59
630.357	33.04
630.689	33.12
631.021	33.11
631.353	33.2
631.684	32.85
632.016	33.29
632.348	33.23
632.679	33.19
633.011	33.3
633.342	33.44
633.674	32.99
634.005	33.66
634.336	32.87
634.668	33.11
634.999	33.1
635.33	33.43
635.661	33.2
635.992	33.05
636.323	33.48
636.654	33.84
636.985	33.41
637.316	33.67
637.647	33.17
637.977	33.44
638.308	33.43
638.639	33.17
638.969	33.7
639.3	33.45
639.63	33.47
639.961	33.17
640.291	33.75
640.622	33.71
640.952	33.5
641.282	33.34
641.612	33.52
641.943	33.78
642.273	33.53
642.603	33.56
642.933	33.85
643.263	34.18
643.592	33.94
643.922	34.13
644.252	34.14
644.582	34.27
644.911	33.91
645.241	33.9
645.571	34.13
645.9	33.96
646.23	34.05
646.559	34.11
646.888	33.87
647.218	34.12
647.547	34.31
647.876	34.31
648.205	34.27
648.534	34.52
648.863	34.24
649.192	34.01
649.521	33.96
649.85	34.8
650.179	33.84
650.508	34.28
650.837	34.39
651.165	34.19
651.494	34.42
651.822	34.19
652.151	34.82
652.479	34.85
652.808	34.32
653.136	33.77
653.465	34.74
653.793	34.79
654.121	34.87
654.449	34.56
654.777	34.08
655.105	34.98
655.433	34.84
655.761	35.09
656.089	35.06
656.417	34.09
656.745	35.14
657.073	35.09
657.4	34.84
657.728	34.94
658.056	34.46
658.383	34.95
658.711	34.55
659.038	34.84
659.365	35.06
659.693	35.07
660.02	34.54
660.347	34.81
660.674	34.75
661.001	34.22
661.329	34.45
661.656	34.85
661.982	35.01
662.309	35.1
662.636	34.93
662.963	34.86
663.29	35.08
663.616	35.05
663.943	35.23
664.27	35.81
664.596	35.03
664.923	35.88
665.249	35.02
665.576	34.73
665.902	35.52
666.228	34.54
666.554	34.79
666.881	34.9
667.207	34.58
667.533	35.35
667.859	35.21
668.185	35.56
668.511	34.51
668.837	35.27
669.162	35.08
669.488	35.2
669.814	35.34
670.139	35.52
670.465	35.31
670.791	35.26
671.116	35.44
671.442	35.54
671.767	35.77
672.092	35.82
672.418	36.06
672.743	35.01
673.068	35.52
673.393	36.31
673.718	35.76
674.043	35.77
674.368	36.21
674.693	35.78
675.018	35.6
675.343	36
675.667	35.97
675.992	35.74
676.317	36.11
676.641	35.95
676.966	36.12
677.29	35.92
677.615	35.94
677.939	35.95
678.264	35.9
678.588	36.17
678.912	36.15
679.236	36.63
679.56	35.85
679.885	36.21
680.209	35.77
680.532	36.03
680.856	36.43
681.18	36.26
681.504	35.53
681.828	35.38
682.152	35.8
682.475	35.72
682.799	36.12
683.122	36.32
683.446	35.79
683.769	36.42
684.093	36.58
684.416	35.93
684.739	36.42
685.062	36.63
685.386	36.68
685.709	36.35
686.032	36.17
686.355	36.55
686.678	36.13
687.001	35.86
687.324	35.73
687.646	35.8
687.969	36.33
688.292	36.58
688.614	37.43
688.937	36.48
689.26	35.78
689.582	36.38
689.904	36.19
690.227	36.42
690.549	36.64
690.871	36.07
691.194	36.6
691.516	35.93
691.838	36.51
692.16	36.36
692.482	36.46
692.804	36.46
693.126	35.72
693.448	37.09
693.769	36.31
694.091	37.47
694.413	36.88
694.735	36.71
695.056	36.9
695.378	36.69
695.699	38.12
696.021	37.18
696.342	37.06
696.663	36.9
696.984	37.59
697.306	36.32
697.627	37.15
697.948	37.72
698.269	36.03
698.59	37.17
698.911	36.98
699.232	37.48
699.553	37.1
699.873	37.25
700.194	37.2
700.515	37.15
700.835	36.78
701.156	37.58
701.477	36.76
701.797	37.23
702.117	37
702.438	37.78
702.758	37.89
703.078	36.49
703.398	37.91
703.719	37.11
704.039	38
704.359	37.11
704.679	37.46
704.999	37.09
705.319	37.93
705.638	38.11
705.958	37.93
706.278	38.26
706.597	38.24
706.917	38.57
707.237	37.59
707.556	37.24
707.876	37.71
708.195	37.65
708.514	36.96
708.834	37.94
709.153	38.73
709.472	38.23
709.791	37.61
710.11	38.08
710.429	37.57
710.748	37.98
711.067	38.08
711.386	37.93
711.705	37.74
712.023	37.95
712.342	37.89
712.661	38.56
712.979	37.76
713.298	37.6
713.616	38.9
713.935	37.71
714.253	38.29
714.572	38.45
714.89	37.67
715.208	38.87
715.526	38.68
715.844	37.5
716.162	37.63
716.48	37.73
716.798	38.41
717.116	37.9
717.434	38.42
717.752	38.33
718.069	36.93
718.387	38.04
718.705	37.16
719.022	38.51
719.34	38.39
719.657	38.69
719.975	38.14
720.292	37.56
720.609	38.11
720.927	39.38
721.244	37.95
721.561	38.72
721.878	37.96
722.195	38.71
722.512	39.66
722.829	40.31
723.146	38.69
723.463	37.75
723.779	37.21
724.096	38.26
724.413	38.24
724.729	38.57
725.046	38.72
725.362	38.02
725.679	39.74
725.995	38.26
726.311	38.33
726.628	39.06
726.944	39.06
727.26	38.29
727.576	38.48
727.892	39.34
728.208	39.3
728.524	39.14
728.84	39.32
729.156	39.4
729.472	38.8
729.787	39.85
730.103	38.69
730.419	38.46
730.734	38.83
731.05	39.15
731.365	38.68
731.681	37.81
731.996	37.74
732.311	38.13
732.626	38.28
732.942	39.26
733.257	39.85
733.572	39.76
733.887	40.04
734.202	39.34
734.517	40.24
734.832	38.84
735.146	39.19
735.461	39.55
735.776	38.92
736.091	39.98
736.405	38.86
736.72	39.42
737.034	39.52
737.349	39.34
737.663	39.01
737.977	39.02
738.292	40.7
738.606	39.19
738.92	39.22
739.234	40.96
739.548	40.72
739.862	40.08
740.176	38.71
740.49	40.47
740.804	39.5
741.117	41.53
741.431	39.43
741.745	38.79
742.058	39
742.372	38.55
742.685	39.03
742.999	40.28
743.312	39.27
743.626	41.2
743.939	40.2
744.252	41.44
744.565	39.82
744.878	40.55
745.191	39.41
745.505	38.96
745.817	39.65
746.13	39.16
746.443	38.84
746.756	38.85
747.069	39.47
747.381	41.02
747.694	39.68
748.007	40.87
748.319	42.09
748.632	40.21
748.944	40.26
749.256	41.45
749.569	40.65
749.881	39.91
750.193	40.2
750.505	41.14
750.817	40.67
751.129	39.96
751.441	39.34
751.753	40.25
752.065	39.75
752.377	40.63
752.689	40.39
753	41.32
753.312	39.73
753.624	41.22
753.935	40.13
754.247	42.48
754.558	42.34
754.869	40.24
755.181	40.23
755.492	41.02
755.803	41.44
756.114	40.63
756.425	40.37
756.736	39.75
757.047	40.15
757.358	41.27
757.669	42.75
757.98	40.69
758.291	42.17
758.601	40.68
758.912	42.65
759.223	40.78
759.533	41.69
759.844	41.61
760.154	41.44
760.464	41.32
760.775	41.79
761.085	40.18
761.395	41.66
761.705	40.97
762.016	40.69
762.326	40.53
762.636	39.69
762.945	38.94
763.255	39.8
763.565	41.2
763.875	41.36
764.185	42.21
764.494	39.33
764.804	40.86
765.113	39.73
765.423	40.44
765.732	41.2
766.042	42.12
766.351	41.37
766.66	42.05
766.97	39.79
767.279	40.91
767.588	40.15
767.897	42.57
768.206	42.11
768.515	41.93
768.824	40.27
769.133	41.15
769.441	43.21
769.75	41.69
770.059	41.7
770.367	39.57
770.676	41.98
770.984	42.56
771.293	42.2
771.601	40.81
771.91	41.11
772.218	42.29
772.526	42.4
772.834	42.68
773.142	43.43
773.45	38.78
773.758	43.42
774.066	39.46
774.374	39.07
774.682	43.48
774.99	40.35
775.298	42.16
775.605	39.57
775.913	38.19
776.22	43.4
776.528	43.79
776.835	40.63
777.143	42.79
777.45	42.16
777.757	41.09
778.065	45.66
778.372	42.59
778.679	42.71
778.986	38.92
779.293	40.47
779.6	38.3
779.907	41.75
780.214	43.32
780.52	43.92
780.827	45.69
781.134	43.64
781.44	40.16
781.747	42.7
782.053	42.88
782.36	44.78
782.666	45.24
782.973	40.37
783.279	44.27
783.585	44.92
783.891	40.87
784.197	40.45
784.503	46.74
784.809	44.79
785.115	37.02
785.421	43.18
785.727	44.35
786.033	43.89
786.339	42.52
786.644	41.22
786.95	45.41
787.255	43.64
787.561	41.9
787.866	41.79
788.172	42.08
788.477	43.62
788.782	43.16
789.088	44.63
789.393	40.48
789.698	40.08
790.003	44.3
790.308	42.35
790.613	45.22
790.918	42.52
791.223	43.56
791.527	44.77
791.832	43.89
792.137	42.42
792.441	43.64
792.746	41.05
793.05	44.26
793.355	46.4
793.659	42.44
793.963	42.22
794.268	44.37
794.572	46.04
794.876	43.56
795.18	39.93
795.484	41.56
795.788	44.23
796.092	44.6
796.396	45.25
796.7	41.98
797.004	42.78
797.307	41.94
797.611	44.77
797.915	41.49
798.218	43.48
798.522	40.77
798.825	44.99
799.128	41.82
799.432	40.89
799.735	44.61
800.038	40.57
800.341	44.67
800.644	43.23
800.947	42.1
801.25	43.94
801.553	42.85
801.856	44.08
802.159	46.07
802.462	41.37
802.764	44.25
803.067	40.46
803.37	49.14
803.672	40.32
803.975	42.9
804.277	44.35
804.579	43.37
804.882	42
805.184	43.9
805.486	43.13
805.788	43.17
806.09	46.59
806.392	45.77
806.694	45.45
806.996	49.63
807.298	43.12
807.6	44.57
807.902	40.43
808.203	50.6
808.505	44.97
808.807	46.12
809.108	43.01
809.409	44.51
809.711	43.52
810.012	47.12
810.313	46.21
810.615	44.94
810.916	42.5
811.217	48.98
811.518	49.21
811.819	39.13
812.12	45.73
812.421	43.67
812.722	44.67
813.023	46.34
813.323	50.84
813.624	48
813.925	46.06
814.225	41.22
814.526	50.44
814.826	45.23
815.126	46.57
815.427	45.2
815.727	43.61
816.027	43.75
816.327	39.37
816.627	43.01
816.927	48.05
817.227	39.53
817.527	43.19
817.827	48.94
818.127	42.93
818.427	47.04
818.727	46.87
819.026	46.88
819.326	51.87
819.625	45.13
819.925	40.97
820.224	46.27
820.524	50.09
820.823	42.45
821.122	42.53
821.421	46.44
821.72	45.42
822.019	44.4
822.318	45.75
822.617	46.67
822.916	48.06
823.215	44.96
823.514	44.01
823.813	45.32
824.111	42.35
824.41	44.34
824.709	43.54
825.007	45.08
825.306	44.06
825.604	44.87
825.902	44.94
826.201	45.46
826.499	45.19
826.797	46.03
827.095	44.27
827.393	43.64
827.691	46.82
827.989	45.8
828.287	46.22
828.585	42.46
828.882	44.52
829.18	44.89
829.478	46.97
829.775	45.73
830.073	44.42
830.37	46.21
830.668	44.82
830.965	44.02
831.263	45.05
831.56	45.04
831.857	46.47
832.154	45.79
832.451	45.4
832.748	43.9
833.045	53.15
833.342	49.79
833.639	44.32
833.936	48.07
834.232	47.56
834.529	44.07
834.826	49.86
835.122	51.46
835.419	45.04
835.715	44.49
836.012	46.68
836.308	48.16
836.604	45.28
836.901	45.25
837.197	49.2
837.493	47.06
837.789	45.72
838.085	48.44
838.381	47.27
838.677	52.06
838.972	43.56
839.268	41.82
839.564	47.59
839.86	43.76
840.155	47.01
840.451	44.85
840.746	50.36
841.042	50.12
841.337	43.69
841.632	53.35
841.928	53.88
842.223	43.8
842.518	54.63
842.813	46.92
843.108	44.08
843.403	44.78
843.698	39.7
843.993	49.69
844.287	58.06
844.582	52.02
844.877	52.43
845.171	45.37
845.466	41.4
845.761	44.35
846.055	50.04
846.349	46.26
846.644	70.39
846.938	55.55
847.232	37.03
847.526	42.73
847.82	38.27
848.114	53.24
848.408	44.34
848.702	42.8
848.996	48.33
849.29	45.77
849.584	34.44
849.877	46.78
850.171	54.51
850.465	35.81
850.758	35.94
851.052	48.13
851.345	44.35
851.638	41.31
851.932	52.59
852.225	40.1
852.518	34.98
852.811	36.95
853.104	38.15
853.397	39.26
853.69	45.43
853.983	39.19
854.276	52.6
854.569	38.92
854.861	39.45
855.154	42.68
855.447	42.48
855.739	52.05
856.032	37.5
856.324	44.7
856.616	38.82
856.909	43.31
857.201	38.22
857.493	58.24
857.785	50.55
858.077	37.36
858.369	52.72
858.661	50.57
858.953	47.19
859.245	45.94
859.537	58.39
859.829	41.83
860.12	52.28
860.412	44.51
860.703	67.18
860.995	43.03
861.286	45.47
861.578	46.17
861.869	37.64
862.16	45.85
862.452	61.8
862.743	56.72
863.034	30.57
863.325	40.85
863.616	32.94
863.907	66.9
864.198	48.98
864.488	56.33
864.779	40.87
865.07	49.02
865.36	44.83
865.651	71.28
865.941	68.91
866.232	31.91
866.522	52.28
866.813	56.08
867.103	51.61
867.393	30.79
867.683	48.14
867.973	46.83
868.263	55.56
868.553	75.87
868.843	57.92
869.133	37.35
869.423	34.51
869.713	58.01
870.002	60.7
870.292	76.02
870.582	55.62
870.871	56.23
871.161	19.99
871.45	49.7
871.739	30.13
872.029	61.32
872.318	61.79
872.607	72.15
872.896	41.2
873.185	70.39
873.474	55.04
873.763	68.3
874.052	41.45
874.341	24.62
874.63	35.89
874.918	76.91
875.207	53.36
875.496	51.92
875.784	65.23
876.073	45.53
876.361	48
876.649	53.66
876.938	55.99
877.226	31.94
877.514	46.62
877.802	65.42
878.09	56.61
878.378	57
878.666	29.52
878.954	39.47
879.242	38.05
879.53	44.67
879.817	31.8
880.105	46.13
880.392	50.95
880.68	73.92
880.967	57.71
881.255	76.88
881.542	79.72
881.83	38.4
882.117	37.19
882.404	54.79
882.691	31.33
882.978	57.94
883.265	64.31
883.552	37.96
883.839	45.5
884.126	42.93
884.413	50.04
884.699	52.17
884.986	46.76
885.273	49.03
885.559	49.03
885.846	49.03
