Data from 0175_crown_Reflection__3__074.txt Node

Date: Mon Aug 28 19:15:51 CDT 2023
User: ToomeyLab
Spectrometer: FLMS14357
Trigger mode: 0
Integration Time (sec): 1.000000E-2
Scans to average: 100
Electric dark correction enabled: true
Nonlinearity correction enabled: false
Boxcar width: 0
XAxis mode: Wavelengths
Number of Pixels in Spectrum: 2048
>>>>>Begin Spectral Data<<<<<
189.047	17.53
189.435	17.53
189.823	17.53
190.211	-890.7
190.599	104.31
190.987	302.07
191.375	-6.94
191.763	91.1
192.151	138.49
192.538	13.93
192.926	91.3
193.314	-686
193.702	7.22
194.089	82.53
194.477	-2297.65
194.864	9.43
195.252	-23.82
195.639	-1163.25
196.027	86.53
196.414	-105.08
196.801	126.66
197.189	50.11
197.576	224.01
197.963	-69.71
198.351	25.79
198.738	63.6
199.125	-5.77
199.512	39.91
199.899	-5.42
200.286	-86.05
200.673	14.37
201.06	19.85
201.447	-72.69
201.833	-56.45
202.22	23.1
202.607	1.43
202.994	22.83
203.38	11.3
203.767	30.7
204.154	3.68
204.54	-2.32
204.927	5
205.313	23.82
205.699	-19.56
206.086	4.16
206.472	15.78
206.858	-37.33
207.245	8.23
207.631	34.3
208.017	-17.5
208.403	10.83
208.789	-12.79
209.175	-31.67
209.561	17.55
209.947	-7.59
210.333	-3.75
210.719	-13.2
211.105	14.62
211.491	-5.31
211.876	48.82
212.262	96.49
212.648	26.58
213.034	-26.14
213.419	1.82
213.805	10.56
214.19	24.6
214.576	30.03
214.961	0.14
215.346	23.67
215.732	12.65
216.117	-17.61
216.502	-4.59
216.888	-47.61
217.273	6.54
217.658	24.75
218.043	2.54
218.428	7.62
218.813	-12.07
219.198	15.59
219.583	4.45
219.968	21.48
220.353	-9.32
220.738	30.42
221.122	4.11
221.507	-22.71
221.892	-1.4
222.276	13.35
222.661	1.83
223.046	-0.12
223.43	16.73
223.815	12.89
224.199	11.46
224.583	4.73
224.968	10.67
225.352	4.52
225.736	8.09
226.121	1.35
226.505	9.74
226.889	8.21
227.273	12.56
227.657	7.32
228.041	9.33
228.425	7.96
228.809	6.44
229.193	4.96
229.577	9.97
229.961	4.56
230.344	7.78
230.728	5.74
231.112	5.69
231.495	5.96
231.879	4.28
232.263	6.15
232.646	5.38
233.03	6.32
233.413	7.47
233.797	5.78
234.18	6.07
234.563	5.79
234.946	7.65
235.33	2.75
235.713	4.22
236.096	7.71
236.479	6.81
236.862	6.6
237.245	7.77
237.628	7.84
238.011	8.07
238.394	6.15
238.777	6.26
239.16	5.18
239.543	1.88
239.925	8.18
240.308	3.13
240.691	3.83
241.073	4.04
241.456	5.83
241.838	6.11
242.221	7.16
242.603	6.66
242.986	6.47
243.368	5.19
243.75	5.71
244.133	5
244.515	5.23
244.897	5.81
245.279	5.86
245.661	4.64
246.043	5.33
246.425	5.34
246.807	7.45
247.189	4.27
247.571	5.66
247.953	5.41
248.335	5.37
248.717	5.27
249.098	5.04
249.48	5.3
249.862	5.12
250.243	5.25
250.625	5.47
251.006	5.22
251.388	5.49
251.769	5.74
252.151	4.77
252.532	4.57
252.913	5.34
253.295	4.94
253.676	4.65
254.057	4.58
254.438	5.04
254.819	5.17
255.2	4.58
255.581	5.22
255.962	5.57
256.343	6.54
256.724	4.72
257.105	4.58
257.486	5.46
257.867	4
258.247	5.66
258.628	5.96
259.009	4.39
259.389	4.86
259.77	4.73
260.15	4.35
260.531	3.74
260.911	4.59
261.292	4.75
261.672	4.65
262.052	4.58
262.432	4.7
262.813	4.67
263.193	4.78
263.573	4.38
263.953	4.43
264.333	4.68
264.713	4.78
265.093	5.13
265.473	4.4
265.853	3.53
266.233	4.55
266.612	4.75
266.992	4.17
267.372	3.67
267.752	4.78
268.131	5.19
268.511	4.26
268.89	4.99
269.27	4.17
269.649	4.44
270.029	4.71
270.408	4.44
270.787	5.48
271.167	4.36
271.546	5.09
271.925	5.2
272.304	4.14
272.683	4.44
273.062	4.5
273.441	4.56
273.82	4.53
274.199	4.05
274.578	4.37
274.957	4.69
275.336	4.68
275.715	4.58
276.093	3.94
276.472	3.66
276.851	4.19
277.229	4.43
277.608	4.74
277.986	4.32
278.365	4.41
278.743	4.33
279.122	3.99
279.5	3.94
279.878	3.97
280.257	3.96
280.635	4.35
281.013	4.53
281.391	4.46
281.769	4.8
282.147	4.44
282.525	4.35
282.903	4.39
283.281	4.12
283.659	4.59
284.037	4.47
284.415	4.1
284.792	4.33
285.17	3.93
285.548	4.24
285.925	4.58
286.303	4.25
286.68	4.5
287.058	4.01
287.435	3.89
287.813	4.13
288.19	4.51
288.567	4
288.945	4.35
289.322	3.92
289.699	4.23
290.076	4.46
290.453	4.15
290.83	3.93
291.207	3.59
291.584	4.19
291.961	4.77
292.338	3.79
292.715	3.93
293.092	4.31
293.469	4.26
293.845	3.62
294.222	3.87
294.599	4.04
294.975	4.13
295.352	3.76
295.728	4.24
296.105	3.89
296.481	4.36
296.858	4.03
297.234	4.09
297.61	4.44
297.986	4.13
298.363	4.53
298.739	4.37
299.115	3.9
299.491	4.34
299.867	4.1
300.243	4.23
300.619	4.12
300.995	4.54
301.371	3.87
301.746	4.43
302.122	3.67
302.498	3.52
302.874	3.87
303.249	4.54
303.625	4.14
304	4.1
304.376	4.22
304.751	4.05
305.127	4.2
305.502	4.15
305.878	3.98
306.253	3.55
306.628	4.03
307.003	4.18
307.378	4.49
307.754	4.26
308.129	3.93
308.504	4.45
308.879	3.56
309.254	3.84
309.629	4.25
310.003	4.14
310.378	4.1
310.753	4.64
311.128	4.26
311.502	4.62
311.877	4.49
312.252	4.33
312.626	4
313.001	3.89
313.375	4.11
313.75	4.03
314.124	3.9
314.498	4.12
314.873	4.42
315.247	4.4
315.621	3.87
315.995	4.32
316.369	3.97
316.743	4.17
317.117	3.83
317.491	3.39
317.865	3.43
318.239	3.76
318.613	4.35
318.987	4.34
319.361	4.01
319.734	4.33
320.108	4.14
320.482	4.24
320.855	3.71
321.229	3.76
321.602	4.2
321.976	3.04
322.349	4.38
322.723	3.95
323.096	4.76
323.469	3.81
323.843	3.64
324.216	3.83
324.589	4.58
324.962	4.18
325.335	4.11
325.708	3.8
326.081	4.16
326.454	3.7
326.827	3.94
327.2	3.99
327.573	3.71
327.945	4.54
328.318	4.15
328.691	3.31
329.063	3.51
329.436	3.54
329.809	4.6
330.181	3.88
330.553	3.77
330.926	4.16
331.298	3.55
331.671	3.61
332.043	4.2
332.415	4.51
332.787	4.02
333.159	3.85
333.532	4.33
333.904	4.23
334.276	3.7
334.648	4.02
335.02	3.9
335.391	4.09
335.763	3.8
336.135	4.1
336.507	4.11
336.879	3.64
337.25	4.62
337.622	3.59
337.993	4.11
338.365	4.13
338.736	3.94
339.108	3.59
339.479	3.64
339.851	4.56
340.222	4.03
340.593	3.8
340.964	4.45
341.336	3.8
341.707	4.04
342.078	3.74
342.449	4.26
342.82	4.38
343.191	3.89
343.562	4.24
343.933	3.93
344.303	3.55
344.674	4.6
345.045	4.16
345.416	4.13
345.786	4.66
346.157	3.97
346.527	3.42
346.898	3.94
347.268	3.95
347.639	3.54
348.009	3.94
348.38	4.4
348.75	4
349.12	4.39
349.49	3.78
349.861	3.43
350.231	3.47
350.601	3.92
350.971	4.35
351.341	4.05
351.711	3.8
352.081	3.93
352.45	4.13
352.82	3.65
353.19	4.28
353.56	3.92
353.929	4.09
354.299	3.59
354.669	4.1
355.038	4.15
355.408	4.5
355.777	3.82
356.147	4.04
356.516	4.47
356.885	4.29
357.254	4.22
357.624	3.83
357.993	4.61
358.362	3.81
358.731	4.28
359.1	4.3
359.469	4.07
359.838	3.73
360.207	4.12
360.576	4.41
360.945	4.26
361.314	3.77
361.682	3.9
362.051	4.33
362.42	4.07
362.788	4.1
363.157	4.07
363.525	3.94
363.894	4.16
364.262	4.15
364.631	3.93
364.999	4.08
365.367	4.17
365.735	4.19
366.104	4
366.472	4.01
366.84	3.99
367.208	4.28
367.576	4.05
367.944	4.35
368.312	4.43
368.68	4.17
369.048	4.02
369.416	4.08
369.783	4.39
370.151	4.2
370.519	4.31
370.886	3.74
371.254	4.25
371.621	4.17
371.989	4.28
372.356	4.06
372.724	4.4
373.091	4.17
373.458	3.96
373.826	4.27
374.193	4.37
374.56	4.13
374.927	3.87
375.294	4.45
375.661	4.46
376.028	3.96
376.395	3.92
376.762	4.8
377.129	4.18
377.496	3.99
377.863	4.39
378.229	3.81
378.596	4.41
378.963	4.43
379.329	4.32
379.696	4.29
380.062	4.06
380.429	3.87
380.795	4.13
381.161	4.42
381.528	4.26
381.894	4
382.26	4.12
382.626	4.27
382.993	4.31
383.359	4.53
383.725	4.47
384.091	4.43
384.457	4.14
384.823	4.32
385.188	3.99
385.554	3.77
385.92	4.03
386.286	4.23
386.651	4
387.017	4.49
387.383	4.34
387.748	4.13
388.114	4.02
388.479	4.01
388.845	4.16
389.21	4.23
389.575	4.64
389.94	4.16
390.306	4.31
390.671	4.12
391.036	4.12
391.401	4.64
391.766	4.56
392.131	4.22
392.496	4.09
392.861	4.37
393.226	4.38
393.591	4.05
393.956	4.26
394.32	4.32
394.685	4.23
395.05	4.41
395.414	4.41
395.779	4.42
396.143	4.16
396.508	4.1
396.872	4.31
397.236	4.13
397.601	4.25
397.965	4.45
398.329	4.13
398.694	4.38
399.058	4.04
399.422	4.41
399.786	4.39
400.15	4.39
400.514	4.2
400.878	4.2
401.242	4.26
401.605	4.28
401.969	4.33
402.333	4.51
402.697	4.09
403.06	4.51
403.424	4.49
403.787	4.41
404.151	3.92
404.514	4.42
404.878	4.37
405.241	4.51
405.604	4.39
405.968	4.12
406.331	4.74
406.694	4.39
407.057	4.48
407.42	4.32
407.783	4.26
408.146	4.27
408.509	4.54
408.872	4.32
409.235	4.31
409.598	4.55
409.961	4.15
410.323	4.17
410.686	4.32
411.049	4.55
411.411	4.34
411.774	4.52
412.136	4.32
412.499	4.38
412.861	4.18
413.223	4.48
413.586	4.26
413.948	4.47
414.31	4.61
414.672	4.26
415.035	4.35
415.397	4.44
415.759	4.62
416.121	4.5
416.483	4.4
416.845	4.39
417.206	4.57
417.568	4.46
417.93	4.17
418.292	4.5
418.653	4.43
419.015	4.4
419.377	4.18
419.738	4.49
420.1	4.41
420.461	4.38
420.822	4.32
421.184	4.45
421.545	4.38
421.906	4.45
422.267	4.33
422.629	4.33
422.99	4.33
423.351	4.32
423.712	4.21
424.073	4.35
424.434	4.39
424.795	4.24
425.155	4.36
425.516	4.38
425.877	4.34
426.238	4.21
426.598	4.23
426.959	4.33
427.32	4.31
427.68	4.51
428.041	4.51
428.401	4.41
428.761	4.35
429.122	4.36
429.482	4.45
429.842	4.57
430.202	4.6
430.563	4.46
430.923	4.7
431.283	4.48
431.643	4.14
432.003	4.56
432.363	4.49
432.722	4.53
433.082	4.32
433.442	4.63
433.802	4.5
434.161	4.67
434.521	4.36
434.881	4.38
435.24	4.38
435.6	4.39
435.959	4.49
436.319	4.45
436.678	4.39
437.037	4.43
437.396	4.53
437.756	4.42
438.115	4.62
438.474	4.52
438.833	4.41
439.192	4.61
439.551	4.37
439.91	4.49
440.269	4.56
440.628	4.46
440.987	4.48
441.345	4.37
441.704	4.38
442.063	4.27
442.421	4.4
442.78	4.41
443.138	4.47
443.497	4.45
443.855	4.52
444.214	4.69
444.572	4.54
444.93	4.48
445.288	4.43
445.647	4.54
446.005	4.62
446.363	4.62
446.721	4.47
447.079	4.43
447.437	4.41
447.795	4.33
448.153	4.39
448.51	4.37
448.868	4.37
449.226	4.45
449.584	4.47
449.941	4.43
450.299	4.45
450.656	4.39
451.014	4.34
451.371	4.55
451.729	4.4
452.086	4.4
452.443	4.55
452.801	4.54
453.158	4.64
453.515	4.45
453.872	4.5
454.229	4.59
454.586	4.44
454.943	4.38
455.3	4.52
455.657	4.53
456.014	4.54
456.371	4.63
456.727	4.55
457.084	4.51
457.441	4.5
457.797	4.55
458.154	4.62
458.51	4.65
458.867	4.51
459.223	4.57
459.58	4.5
459.936	4.59
460.292	4.6
460.648	4.51
461.005	4.34
461.361	4.39
461.717	4.44
462.073	4.4
462.429	4.39
462.785	4.46
463.141	4.4
463.496	4.55
463.852	4.46
464.208	4.52
464.564	4.54
464.919	4.61
465.275	4.8
465.631	4.64
465.986	4.72
466.342	4.75
466.697	4.53
467.052	4.51
467.408	4.48
467.763	4.39
468.118	4.45
468.473	4.52
468.829	4.57
469.184	4.45
469.539	4.59
469.894	4.44
470.249	4.53
470.603	4.7
470.958	4.57
471.313	4.56
471.668	4.56
472.023	4.71
472.377	4.45
472.732	4.54
473.086	4.4
473.441	4.44
473.795	4.57
474.15	4.62
474.504	4.58
474.859	4.56
475.213	4.62
475.567	4.41
475.921	4.66
476.275	4.56
476.63	4.87
476.984	4.6
477.338	4.55
477.692	4.57
478.045	4.69
478.399	4.55
478.753	4.52
479.107	4.69
479.461	4.49
479.814	4.72
480.168	4.67
480.521	4.49
480.875	4.47
481.228	4.6
481.582	4.62
481.935	4.58
482.289	4.5
482.642	4.67
482.995	4.61
483.348	4.53
483.701	4.56
484.055	4.44
484.408	4.43
484.761	4.52
485.114	4.39
485.466	4.3
485.819	4.22
486.172	4.13
486.525	4.18
486.878	4.22
487.23	4.34
487.583	4.44
487.936	4.46
488.288	4.48
488.641	4.43
488.993	4.45
489.345	4.33
489.698	4.36
490.05	4.27
490.402	4.23
490.754	4.35
491.107	4.36
491.459	4.37
491.811	4.51
492.163	4.6
492.515	4.56
492.866	4.56
493.218	4.38
493.57	4.38
493.922	4.25
494.274	4.34
494.625	4.33
494.977	4.48
495.328	4.53
495.68	4.53
496.031	4.65
496.383	4.52
496.734	4.61
497.086	4.58
497.437	4.62
497.788	4.45
498.139	4.57
498.49	4.51
498.842	4.62
499.193	4.49
499.544	4.49
499.894	4.47
500.245	4.51
500.596	4.63
500.947	4.5
501.298	4.57
501.648	4.59
501.999	4.7
502.35	4.57
502.7	4.67
503.051	4.79
503.401	4.57
503.752	4.67
504.102	4.55
504.452	4.54
504.803	4.62
505.153	4.51
505.503	4.49
505.853	4.55
506.203	4.53
506.553	4.54
506.903	4.58
507.253	4.61
507.603	4.53
507.953	4.67
508.303	4.71
508.652	4.71
509.002	4.7
509.352	4.59
509.701	4.56
510.051	4.52
510.4	4.52
510.75	4.56
511.099	4.65
511.449	4.56
511.798	4.57
512.147	4.57
512.496	4.61
512.846	4.59
513.195	4.6
513.544	4.62
513.893	4.58
514.242	4.57
514.591	4.63
514.939	4.49
515.288	4.5
515.637	4.64
515.986	4.61
516.334	4.62
516.683	4.69
517.032	4.57
517.38	4.62
517.729	4.7
518.077	4.55
518.426	4.69
518.774	4.64
519.122	4.64
519.47	4.52
519.819	4.53
520.167	4.5
520.515	4.54
520.863	4.43
521.211	4.46
521.559	4.46
521.907	4.52
522.255	4.48
522.602	4.58
522.95	4.6
523.298	4.62
523.645	4.67
523.993	4.55
524.341	4.7
524.688	4.65
525.036	4.64
525.383	4.69
525.73	4.62
526.078	4.74
526.425	4.69
526.772	4.65
527.119	4.57
527.466	4.39
527.814	4.47
528.161	4.4
528.508	4.5
528.854	4.56
529.201	4.55
529.548	4.52
529.895	4.53
530.242	4.42
530.588	4.31
530.935	4.24
531.282	4.31
531.628	4.32
531.975	4.39
532.321	4.44
532.667	4.51
533.014	4.51
533.36	4.55
533.706	4.57
534.052	4.5
534.399	4.58
534.745	4.57
535.091	4.46
535.437	4.39
535.783	4.42
536.129	4.45
536.474	4.47
536.82	4.47
537.166	4.57
537.512	4.58
537.857	4.7
538.203	4.56
538.549	4.49
538.894	4.45
539.239	4.34
539.585	4.51
539.93	4.54
540.276	4.51
540.621	4.6
540.966	4.53
541.311	4.72
541.656	4.62
542.001	4.55
542.346	4.59
542.691	4.59
543.036	4.47
543.381	4.36
543.726	4.29
544.071	4.48
544.415	4.4
544.76	4.46
545.105	4.5
545.449	4.51
545.794	4.5
546.138	4.55
546.483	4.54
546.827	4.63
547.171	4.6
547.516	4.57
547.86	4.69
548.204	4.59
548.548	4.48
548.892	4.45
549.236	4.45
549.58	4.49
549.924	4.51
550.268	4.71
550.612	4.71
550.956	4.69
551.3	4.7
551.643	4.77
551.987	4.47
552.33	4.73
552.674	4.47
553.017	4.62
553.361	4.72
553.704	4.58
554.048	4.77
554.391	4.65
554.734	4.6
555.077	4.56
555.42	4.49
555.764	4.7
556.107	4.46
556.45	4.62
556.793	4.52
557.135	4.63
557.478	4.57
557.821	4.77
558.164	4.99
558.507	4.68
558.849	4.85
559.192	4.53
559.534	4.46
559.877	4.75
560.219	4.8
560.562	4.7
560.904	4.84
561.246	4.54
561.589	4.6
561.931	4.6
562.273	4.65
562.615	4.46
562.957	4.72
563.299	4.6
563.641	4.61
563.983	4.43
564.325	4.73
564.667	4.52
565.008	4.51
565.35	4.95
565.692	4.83
566.033	4.54
566.375	4.62
566.716	4.47
567.058	4.55
567.399	4.47
567.741	4.67
568.082	4.53
568.423	4.66
568.764	4.38
569.105	4.77
569.447	4.56
569.788	4.65
570.129	4.61
570.47	4.64
570.811	4.71
571.151	4.5
571.492	4.57
571.833	4.59
572.174	4.71
572.514	4.72
572.855	4.5
573.195	4.8
573.536	4.71
573.876	4.41
574.217	4.62
574.557	4.66
574.898	4.68
575.238	4.57
575.578	4.76
575.918	4.62
576.258	4.74
576.598	4.62
576.938	4.51
577.278	4.57
577.618	4.48
577.958	4.56
578.298	4.79
578.638	4.58
578.977	4.6
579.317	4.53
579.657	4.53
579.996	4.81
580.336	4.71
580.675	4.63
581.014	4.71
581.354	4.84
581.693	4.58
582.032	4.71
582.372	4.67
582.711	4.88
583.05	4.67
583.389	4.76
583.728	4.64
584.067	4.67
584.406	4.57
584.745	4.73
585.083	4.53
585.422	4.63
585.761	4.68
586.1	4.82
586.438	4.6
586.777	4.78
587.115	4.86
587.454	4.81
587.792	4.66
588.13	4.64
588.469	4.59
588.807	4.63
589.145	4.73
589.483	4.67
589.821	4.65
590.159	4.67
590.497	4.71
590.835	4.72
591.173	4.57
591.511	4.51
591.849	4.68
592.187	4.63
592.524	4.78
592.862	4.78
593.2	4.62
593.537	4.41
593.875	4.72
594.212	4.92
594.55	4.95
594.887	4.71
595.224	4.78
595.561	4.65
595.899	4.49
596.236	4.94
596.573	4.73
596.91	4.52
597.247	4.84
597.584	4.8
597.921	4.68
598.258	4.59
598.594	4.53
598.931	4.52
599.268	4.51
599.604	4.49
599.941	4.62
600.277	4.65
600.614	4.63
600.95	4.74
601.287	4.78
601.623	5.02
601.959	4.81
602.296	4.55
602.632	4.75
602.968	4.82
603.304	4.74
603.64	4.61
603.976	5.04
604.312	4.83
604.648	4.44
604.984	4.8
605.319	4.65
605.655	4.78
605.991	4.75
606.326	4.71
606.662	4.78
606.998	4.6
607.333	4.73
607.668	4.74
608.004	4.58
608.339	4.8
608.674	4.64
609.01	4.81
609.345	4.94
609.68	4.72
610.015	4.89
610.35	5.06
610.685	4.87
611.02	4.73
611.355	4.77
611.689	4.65
612.024	4.85
612.359	4.74
612.694	4.9
613.028	4.54
613.363	4.51
613.697	4.58
614.032	4.76
614.366	4.52
614.7	4.69
615.035	4.7
615.369	4.87
615.703	4.69
616.037	4.69
616.371	4.57
616.705	5.09
617.039	4.86
617.373	4.67
617.707	4.55
618.041	4.74
618.375	4.87
618.709	5.11
619.042	4.79
619.376	4.37
619.71	4.69
620.043	4.82
620.377	4.67
620.71	4.85
621.043	4.87
621.377	4.93
621.71	4.77
622.043	4.44
622.376	4.87
622.709	4.53
623.043	4.88
623.376	4.92
623.709	4.74
624.041	4.87
624.374	4.65
624.707	4.42
625.04	4.73
625.373	5
625.705	4.89
626.038	4.82
626.37	4.8
626.703	5
627.035	4.95
627.368	5.13
627.7	4.87
628.032	4.8
628.365	4.7
628.697	4.88
629.029	4.83
629.361	4.78
629.693	4.69
630.025	4.68
630.357	4.75
630.689	4.6
631.021	4.84
631.353	4.87
631.684	5.22
632.016	4.72
632.348	4.81
632.679	4.93
633.011	4.85
633.342	4.54
633.674	5
634.005	4.67
634.336	4.74
634.668	4.91
634.999	5.12
635.33	5.23
635.661	4.75
635.992	4.88
636.323	5
636.654	4.85
636.985	4.72
637.316	4.75
637.647	4.98
637.977	4.91
638.308	4.91
638.639	5.16
638.969	5.09
639.3	5.03
639.63	4.96
639.961	4.83
640.291	4.91
640.622	5.06
640.952	4.84
641.282	4.74
641.612	4.51
641.943	4.93
642.273	5.25
642.603	4.74
642.933	4.28
643.263	5.15
643.592	4.86
643.922	5.05
644.252	4.72
644.582	5.05
644.911	4.72
645.241	4.38
645.571	4.91
645.9	4.73
646.23	5.08
646.559	5
646.888	5.07
647.218	4.84
647.547	4.83
647.876	4.88
648.205	4.97
648.534	5.43
648.863	4.7
649.192	4.94
649.521	4.95
649.85	5.07
650.179	4.84
650.508	5.02
650.837	5.05
651.165	4.97
651.494	4.89
651.822	4.65
652.151	4.94
652.479	5.66
652.808	5.18
653.136	4.67
653.465	4.91
653.793	5.47
654.121	5.46
654.449	5.17
654.777	4.86
655.105	4.76
655.433	4.68
655.761	4.75
656.089	4.95
656.417	5.17
656.745	5.25
657.073	4.85
657.4	4.67
657.728	5.38
658.056	5.29
658.383	4.91
658.711	4.8
659.038	4.85
659.365	5.39
659.693	4.69
660.02	4.89
660.347	5.4
660.674	5.39
661.001	5.62
661.329	4.72
661.656	5.08
661.982	5
662.309	4.82
662.636	4.98
662.963	5.03
663.29	4.94
663.616	4.99
663.943	5.33
664.27	5.07
664.596	4.7
664.923	5.1
665.249	5.26
665.576	4.87
665.902	4.78
666.228	4.88
666.554	4.77
666.881	5.24
667.207	4.91
667.533	5.43
667.859	4.53
668.185	4.73
668.511	4.95
668.837	4.75
669.162	5.03
669.488	4.61
669.814	5.18
670.139	5.6
670.465	5.73
670.791	5.34
671.116	5.39
671.442	4.98
671.767	4.6
672.092	5.36
672.418	5.22
672.743	5.34
673.068	5.17
673.393	5.23
673.718	4.54
674.043	5.05
674.368	4.8
674.693	5.22
675.018	5.46
675.343	5.65
675.667	5.85
675.992	5.32
676.317	4.21
676.641	5.33
676.966	5.12
677.29	4.91
677.615	5.39
677.939	4.78
678.264	4.76
678.588	5.4
678.912	5.52
679.236	4.97
679.56	4.9
679.885	4.7
680.209	5.02
680.532	5.93
680.856	4.83
681.18	4.69
681.504	4.98
681.828	5.04
682.152	5.09
682.475	5.46
682.799	5.07
683.122	5.15
683.446	4.54
683.769	5.27
684.093	5.32
684.416	5.43
684.739	5.04
685.062	5.44
685.386	4.46
685.709	5.32
686.032	4.76
686.355	4.89
686.678	5.67
687.001	4.84
687.324	4.68
687.646	5.06
687.969	5.47
688.292	5.61
688.614	5.61
688.937	5.5
689.26	5.51
689.582	5.23
689.904	5.7
690.227	5.32
690.549	4.89
690.871	6.11
691.194	5.32
691.516	5.28
691.838	5.33
692.16	5.74
692.482	5.6
692.804	5.05
693.126	5
693.448	5
693.769	5.19
694.091	4.95
694.413	4.97
694.735	6.37
695.056	5.1
695.378	5.64
695.699	5.67
696.021	6.05
696.342	5.12
696.663	4.74
696.984	4.93
697.306	5
697.627	5.04
697.948	4.92
698.269	4.31
698.59	5.08
698.911	4.85
699.232	5.38
699.553	4.87
699.873	5.05
700.194	5.69
700.515	5.56
700.835	5.55
701.156	6
701.477	5.27
701.797	5.58
702.117	4.67
702.438	5.88
702.758	5.66
703.078	5.7
703.398	5.27
703.719	6.57
704.039	6.35
704.359	5.08
704.679	5.12
704.999	5.04
705.319	4.29
705.638	4.85
705.958	5.39
706.278	6.94
706.597	4.19
706.917	5.43
707.237	4.93
707.556	6.23
707.876	6.08
708.195	5.53
708.514	5.02
708.834	5.56
709.153	5.27
709.472	5.58
709.791	5.33
710.11	5.69
710.429	4.97
710.748	5.15
711.067	4.94
711.386	5.93
711.705	5.72
712.023	5.55
712.342	5.98
712.661	5.74
712.979	5.96
713.298	5.4
713.616	5.68
713.935	4.21
714.253	6.29
714.572	5.53
714.89	5.75
715.208	6.58
715.526	5.67
715.844	6.47
716.162	5.78
716.48	4.42
716.798	5.51
717.116	5.74
717.434	5.82
717.752	5.71
718.069	6.24
718.387	5.29
718.705	5.88
719.022	5.37
719.34	4.93
719.657	5.57
719.975	5.4
720.292	5.47
720.609	5.76
720.927	5.46
721.244	5.87
721.561	5.36
721.878	6.19
722.195	5.79
722.512	3.58
722.829	6.56
723.146	6.09
723.463	4.87
723.779	6.06
724.096	5.77
724.413	5.34
724.729	6.62
725.046	4.62
725.362	5.25
725.679	5.9
725.995	5.75
726.311	6.05
726.628	7.98
726.944	4.91
727.26	4.64
727.576	4.71
727.892	5.06
728.208	6.01
728.524	5.73
728.84	5.93
729.156	5.69
729.472	6.04
729.787	7.24
730.103	6.23
730.419	5.61
730.734	5.36
731.05	5.23
731.365	5.54
731.681	5.14
731.996	6.63
732.311	5.51
732.626	6.13
732.942	5.74
733.257	5.81
733.572	5.66
733.887	5.68
734.202	6.41
734.517	6.77
734.832	5.96
735.146	6.83
735.461	4.54
735.776	5.17
736.091	4.53
736.405	6.19
736.72	6.19
737.034	7.25
737.349	6.58
737.663	4.88
737.977	6.12
738.292	6.06
738.606	6.81
738.92	5.51
739.234	5.83
739.548	5.72
739.862	7.12
740.176	6.02
740.49	4.99
740.804	5.33
741.117	6.03
741.431	7.61
741.745	5.41
742.058	6.41
742.372	7.92
742.685	7.37
742.999	4.52
743.312	5.86
743.626	7.19
743.939	6.19
744.252	5.61
744.565	4.94
744.878	6.66
745.191	5.78
745.505	6.95
745.817	7.89
746.13	5.06
746.443	6.36
746.756	6.74
747.069	7.93
747.381	6.17
747.694	4.89
748.007	5.9
748.319	4.82
748.632	4.73
748.944	5.42
749.256	8.35
749.569	3.88
749.881	6.83
750.193	5.89
750.505	5.76
750.817	7.13
751.129	6.46
751.441	6.51
751.753	7.23
752.065	4.53
752.377	6.52
752.689	5.62
753	6.85
753.312	7.7
753.624	5.52
753.935	5.46
754.247	6.62
754.558	7.51
754.869	6.46
755.181	7.36
755.492	4.52
755.803	6.09
756.114	6.3
756.425	5.47
756.736	5.85
757.047	5.56
757.358	6.33
757.669	7.09
757.98	6.73
758.291	5.97
758.601	7.35
758.912	5.5
759.223	5.34
759.533	7.39
759.844	5.78
760.154	5.44
760.464	6.72
760.775	5.78
761.085	6.35
761.395	7.32
761.705	5.76
762.016	6.06
762.326	8.22
762.636	5.4
762.945	5.65
763.255	6.03
763.565	6.09
763.875	6.88
764.185	5.78
764.494	5.75
764.804	4.89
765.113	5.41
765.423	5.5
765.732	6.02
766.042	6.3
766.351	5.81
766.66	6.6
766.97	5.6
767.279	7.19
767.588	6.26
767.897	6.3
768.206	7.05
768.515	5.89
768.824	6.63
769.133	7.32
769.441	6.16
769.75	6.93
770.059	6.41
770.367	7.59
770.676	4.15
770.984	7.38
771.293	7.52
771.601	5.93
771.91	6.36
772.218	5.83
772.526	10.44
772.834	6.25
773.142	6.87
773.45	7.56
773.758	7.67
774.066	7.67
774.374	5.49
774.682	10.19
774.99	7.89
775.298	7.66
775.605	7.42
775.913	3.68
776.22	6.03
776.528	5.06
776.835	5.11
777.143	5.12
777.45	7.9
777.757	7.7
778.065	6.99
778.372	8.48
778.679	7.44
778.986	3.86
779.293	8.59
779.6	9.26
779.907	7.75
780.214	5.73
780.52	9.19
780.827	10.5
781.134	12.25
781.44	8.13
781.747	8.15
782.053	7.72
782.36	5.59
782.666	5.93
782.973	7.06
783.279	6.81
783.585	3.84
783.891	6.04
784.197	4.02
784.503	5.97
784.809	7.03
785.115	8.45
785.421	10.35
785.727	10.13
786.033	7.58
786.339	11.72
786.644	7.54
786.95	8.7
787.255	6.65
787.561	8.61
787.866	7.79
788.172	7.41
788.477	5.55
788.782	6.42
789.088	6.76
789.393	9.91
789.698	9.85
790.003	11.31
790.308	8.77
790.613	9.57
790.918	7.3
791.223	10.43
791.527	6.41
791.832	5.51
792.137	9.68
792.441	8.79
792.746	6.47
793.05	7.02
793.355	7.01
793.659	6.58
793.963	5.75
794.268	7.43
794.572	4.33
794.876	3.62
795.18	7.45
795.484	7.66
795.788	6.9
796.092	5.55
796.396	8.1
796.7	13.49
797.004	8.39
797.307	9.32
797.611	7.47
797.915	11.98
798.218	3.93
798.522	7.06
798.825	8.6
799.128	7.67
799.432	7.46
799.735	8.46
800.038	8.89
800.341	5.44
800.644	7.37
800.947	6.52
801.25	9.43
801.553	8.13
801.856	5.57
802.159	6.09
802.462	8.82
802.764	7.9
803.067	4.65
803.37	4.65
803.672	7.2
803.975	1.7
804.277	4.81
804.579	8.78
804.882	8.25
805.184	2.18
805.486	6.12
805.788	8.73
806.09	10.6
806.392	9.02
806.694	4.74
806.996	10.9
807.298	9.04
807.6	7.95
807.902	7.87
808.203	9.01
808.505	10.59
808.807	9.49
809.108	3.24
809.409	7.14
809.711	2.91
810.012	5.73
810.313	9.76
810.615	5.6
810.916	11.48
811.217	9
811.518	5.65
811.819	7.7
812.12	8.22
812.421	9.82
812.722	7.06
813.023	4.1
813.323	4.31
813.624	2.38
813.925	10.79
814.225	8.13
814.526	13.93
814.826	9.55
815.126	5.43
815.427	7.57
815.727	10.27
816.027	1.95
816.327	9.74
816.627	10.28
816.927	8.25
817.227	7.57
817.527	8.52
817.827	9.98
818.127	8.15
818.427	4.45
818.727	11.33
819.026	8.04
819.326	7.97
819.625	11.09
819.925	6.84
820.224	6.19
820.524	9.2
820.823	1.23
821.122	9.16
821.421	7.62
821.72	5.41
822.019	9.29
822.318	3.53
822.617	5.99
822.916	10.91
823.215	7.9
823.514	3.48
823.813	8.87
824.111	9.55
824.41	5.48
824.709	6.37
825.007	7.88
825.306	7.24
825.604	8.52
825.902	9.37
826.201	8.78
826.499	8.37
826.797	7.21
827.095	8.27
827.393	8.8
827.691	7.32
827.989	8.56
828.287	7.87
828.585	6.68
828.882	7.36
829.18	7.68
829.478	8.79
829.775	8.13
830.073	7.83
830.37	8.65
830.668	8.15
830.965	8.1
831.263	8.48
831.56	6.71
831.857	7.78
832.154	6.53
832.451	7.87
832.748	10.87
833.045	3.17
833.342	10.23
833.639	7.54
833.936	11.74
834.232	7.13
834.529	11.22
834.826	10.55
835.122	6.41
835.419	9.38
835.715	10.11
836.012	6.62
836.308	7.39
836.604	10.41
836.901	7.88
837.197	8.94
837.493	9.09
837.789	8.34
838.085	13.06
838.381	10.72
838.677	7.39
838.972	7.97
839.268	6.19
839.564	6.84
839.86	7.65
840.155	9
840.451	6.82
840.746	7.15
841.042	9.06
841.337	3.64
841.632	2.42
841.928	4.78
842.223	2.47
842.518	11.11
842.813	0.32
843.108	3.22
843.403	13.62
843.698	9.18
843.993	-0.76
844.287	14.83
844.582	15.07
844.877	4.94
845.171	10.9
845.466	8.38
845.761	4.36
846.055	5.45
846.349	0.74
846.644	13.1
846.938	8.64
847.232	0.93
847.526	2.24
847.82	6.16
848.114	9.76
848.408	8.81
848.702	17.26
848.996	18.26
849.29	15.6
849.584	-0.57
849.877	13.99
850.171	12.31
850.465	19.31
850.758	21.54
851.052	20.7
851.345	2.45
851.638	-3.62
851.932	-14.01
852.225	-6.13
852.518	11.83
852.811	-4.93
853.104	-2.07
853.397	-5.6
853.69	9.81
853.983	0.81
854.276	6.23
854.569	-24.06
854.861	5.9
855.154	-6.89
855.447	19.66
855.739	5.46
856.032	14.33
856.324	18.63
856.616	3.88
856.909	6.42
857.201	1.02
857.493	8.58
857.785	11.19
858.077	8.61
858.369	7.59
858.661	3.76
858.953	13.82
859.245	1.1
859.537	9.44
859.829	4.5
860.12	-16.5
860.412	-1.08
860.703	16.75
860.995	-11.68
861.286	3.87
861.578	7.3
861.869	-2.7
862.16	14.65
862.452	24.79
862.743	27.79
863.034	12.29
863.325	22.02
863.616	20.4
863.907	4.72
864.198	6.93
864.488	-24.57
864.779	15.13
865.07	14.25
865.36	20.01
865.651	8.62
865.941	9.97
866.232	10.33
866.522	-4.83
866.813	11.09
867.103	12.57
867.393	-14.59
867.683	-2.79
867.973	26.29
868.263	15.66
868.553	7.11
868.843	34.31
869.133	19.76
869.423	11.09
869.713	31.24
870.002	-15.03
870.292	10.41
870.582	13.86
870.871	23.61
871.161	21.82
871.45	19.61
871.739	15.2
872.029	-24
872.318	-0.69
872.607	19.2
872.896	-5.48
873.185	9.24
873.474	0.54
873.763	-8.07
874.052	-4.81
874.341	-2.22
874.63	-2.22
874.918	10.8
875.207	22.79
875.496	9.28
875.784	22.03
876.073	-7.3
876.361	17.27
876.649	12.11
876.938	6.67
877.226	26.2
877.514	7.03
877.802	10.76
878.09	4.47
878.378	30.35
878.666	7.78
878.954	11.59
879.242	18.28
879.53	1.03
879.817	23.58
880.105	-1.39
880.392	2.15
880.68	13.78
880.967	3.54
881.255	26.55
881.542	29.3
881.83	12.06
882.117	25.68
882.404	31.11
882.691	13.36
882.978	-2.69
883.265	17.4
883.552	18.24
883.839	7.2
884.126	8.84
884.413	15.41
884.699	13.68
884.986	15.69
885.273	10.88
885.559	10.88
885.846	10.88
