Data from 0175_crown_Reflection__2__073.txt Node

Date: Mon Aug 28 19:15:37 CDT 2023
User: ToomeyLab
Spectrometer: FLMS14357
Trigger mode: 0
Integration Time (sec): 1.000000E-2
Scans to average: 100
Electric dark correction enabled: true
Nonlinearity correction enabled: false
Boxcar width: 0
XAxis mode: Wavelengths
Number of Pixels in Spectrum: 2048
>>>>>Begin Spectral Data<<<<<
189.047	10.91
189.435	10.91
189.823	10.91
190.211	-8176.74
190.599	152.59
190.987	38.81
191.375	48
191.763	26.53
192.151	-64.78
192.538	-30.1
192.926	27.12
193.314	-93
193.702	-31.61
194.089	-21.13
194.477	-3882.35
194.864	-653.32
195.252	53.01
195.639	-1699.15
196.027	102.25
196.414	98.28
196.801	156.86
197.189	-86.51
197.576	-293.2
197.963	-112.4
198.351	-22.4
198.738	33.53
199.125	3.77
199.512	-48.49
199.899	60.29
200.286	-52.86
200.673	-2.77
201.06	-7.82
201.447	-118.91
201.833	-54.33
202.22	20.4
202.607	19.36
202.994	15.63
203.38	56.97
203.767	-10.04
204.154	-8.95
204.54	-14.07
204.927	-21.61
205.313	17.9
205.699	23.89
206.086	43.58
206.472	-0.6
206.858	15.14
207.245	11.63
207.631	13.44
208.017	43.8
208.403	13.69
208.789	-43.02
209.175	-9.71
209.561	-18.88
209.947	-2.89
210.333	-6.07
210.719	25.72
211.105	26.45
211.491	25.22
211.876	41.76
212.262	30.76
212.648	40.48
213.034	-12.64
213.419	-0.02
213.805	4.78
214.19	-13.04
214.576	21.5
214.961	-3.28
215.346	-19.61
215.732	7.92
216.117	-31.38
216.502	-22.48
216.888	-38.79
217.273	19.89
217.658	-6.83
218.043	-19.14
218.428	30.38
218.813	-19.86
219.198	-11.67
219.583	-0.33
219.968	9.95
220.353	5.6
220.738	19.89
221.122	8.42
221.507	-0.58
221.892	2.18
222.276	-1.73
222.661	-4.78
223.046	-16.18
223.43	-9.61
223.815	-4.67
224.199	14.22
224.583	-7.43
224.968	0.15
225.352	11.9
225.736	9.06
226.121	-0.94
226.505	-2.08
226.889	6.92
227.273	10.9
227.657	4.71
228.041	7.29
228.425	8.82
228.809	4.5
229.193	5.34
229.577	6.32
229.961	4.88
230.344	5.5
230.728	4.93
231.112	4.19
231.495	5.25
231.879	3.57
232.263	5.31
232.646	3.11
233.03	7.22
233.413	6.62
233.797	5.62
234.18	3.24
234.563	5.47
234.946	7.85
235.33	4.34
235.713	2.57
236.096	6.53
236.479	3.84
236.862	4.56
237.245	3.2
237.628	6.65
238.011	6.83
238.394	5.11
238.777	5.58
239.16	4.63
239.543	3.95
239.925	6.28
240.308	5.34
240.691	2.36
241.073	3.63
241.456	3.59
241.838	4.03
242.221	5.22
242.603	4.73
242.986	5.28
243.368	4.71
243.75	3.3
244.133	4.16
244.515	4.36
244.897	4.59
245.279	4.88
245.661	4.45
246.043	4.83
246.425	4.52
246.807	5.46
247.189	4.61
247.571	4.41
247.953	4.7
248.335	4.1
248.717	4.28
249.098	4.27
249.48	4.27
249.862	4.21
250.243	4.27
250.625	4.56
251.006	4.71
251.388	4.81
251.769	5.17
252.151	4.06
252.532	4.04
252.913	4.62
253.295	2.68
253.676	3.78
254.057	3.78
254.438	3.98
254.819	3.92
255.2	4.82
255.581	3.65
255.962	4.23
256.343	4.7
256.724	3.26
257.105	4.6
257.486	3.53
257.867	3.4
258.247	4.18
258.628	4.41
259.009	3.38
259.389	2.97
259.77	3.88
260.15	3.51
260.531	3.92
260.911	3.42
261.292	3.69
261.672	3.91
262.052	3.41
262.432	3.64
262.813	4.09
263.193	4
263.573	3.69
263.953	3.54
264.333	3.78
264.713	3.83
265.093	4.09
265.473	4.06
265.853	3.42
266.233	3.51
266.612	3.95
266.992	4.18
267.372	4.33
267.752	4.38
268.131	3.48
268.511	3.78
268.89	3.8
269.27	3.78
269.649	3.78
270.029	3.85
270.408	3.97
270.787	3.87
271.167	3.89
271.546	2.69
271.925	3.17
272.304	3.38
272.683	4.05
273.062	2.88
273.441	3.81
273.82	3.88
274.199	3.25
274.578	3.53
274.957	3.37
275.336	3.98
275.715	3.83
276.093	3.25
276.472	3
276.851	3.69
277.229	3.18
277.608	3.81
277.986	3.25
278.365	3.57
278.743	3.82
279.122	3.23
279.5	3.25
279.878	3.29
280.257	3.3
280.635	3.88
281.013	3.49
281.391	3.43
281.769	3.23
282.147	3.5
282.525	3.16
282.903	3.49
283.281	3.36
283.659	4.28
284.037	3.67
284.415	3.33
284.792	3.26
285.17	3.37
285.548	3.33
285.925	3.98
286.303	2.97
286.68	3.91
287.058	3.53
287.435	3.11
287.813	3
288.19	3.55
288.567	3.61
288.945	3.56
289.322	3.28
289.699	3.87
290.076	3.99
290.453	3.94
290.83	2.6
291.207	3.29
291.584	3.36
291.961	3.49
292.338	2.74
292.715	2.85
293.092	3.53
293.469	3.39
293.845	2.85
294.222	3.57
294.599	2.89
294.975	3.17
295.352	3.14
295.728	2.95
296.105	3.37
296.481	3.09
296.858	3.13
297.234	3.43
297.61	3.14
297.986	3.25
298.363	3.29
298.739	3.1
299.115	2.94
299.491	3.46
299.867	3.19
300.243	3.5
300.619	3.25
300.995	3.76
301.371	2.94
301.746	3.13
302.122	3.52
302.498	2.99
302.874	3.14
303.249	3.56
303.625	3.11
304	3.21
304.376	3.28
304.751	3.14
305.127	3.61
305.502	3.41
305.878	3.31
306.253	3.08
306.628	3.08
307.003	3.57
307.378	3.48
307.754	3.36
308.129	2.71
308.504	4.11
308.879	3.48
309.254	3.1
309.629	2.77
310.003	3.3
310.378	2.91
310.753	3.5
311.128	3.5
311.502	3.55
311.877	2.96
312.252	3.46
312.626	3.56
313.001	3.32
313.375	3.18
313.75	3.18
314.124	2.96
314.498	3.37
314.873	3.43
315.247	3.49
315.621	3.02
315.995	3.37
316.369	3.39
316.743	3
317.117	2.83
317.491	3.03
317.865	2.88
318.239	3.23
318.613	3.75
318.987	3.5
319.361	3.8
319.734	3.12
320.108	3.24
320.482	3.37
320.855	3.15
321.229	2.79
321.602	3.27
321.976	3.62
322.349	3.14
322.723	2.96
323.096	3.36
323.469	3.24
323.843	2.86
324.216	2.89
324.589	3.87
324.962	3.64
325.335	3.25
325.708	2.99
326.081	3.36
326.454	3.48
326.827	3.66
327.2	2.69
327.573	3.09
327.945	3.72
328.318	3.48
328.691	2.85
329.063	2.7
329.436	2.72
329.809	3.37
330.181	3.11
330.553	2.72
330.926	3.24
331.298	3.64
331.671	3.05
332.043	3.35
332.415	4.09
332.787	3.35
333.159	3.27
333.532	4.41
333.904	3.43
334.276	3.23
334.648	3.52
335.02	3.19
335.391	3.44
335.763	3.1
336.135	3.76
336.507	3.17
336.879	2.32
337.25	3.41
337.622	3.23
337.993	3.74
338.365	3.17
338.736	3.68
339.108	2.93
339.479	2.67
339.851	3.79
340.222	3.91
340.593	3.16
340.964	3.59
341.336	3.35
341.707	3.12
342.078	2.95
342.449	3.38
342.82	3.28
343.191	3.21
343.562	2.79
343.933	2.77
344.303	3.09
344.674	3.15
345.045	3.43
345.416	3.63
345.786	3.13
346.157	3.15
346.527	3.14
346.898	3.25
347.268	3.02
347.639	3.12
348.009	2.9
348.38	3.63
348.75	3.64
349.12	3.67
349.49	3.48
349.861	2.81
350.231	3.03
350.601	3.14
350.971	3.59
351.341	3.67
351.711	3.23
352.081	3.11
352.45	3.49
352.82	3.58
353.19	3.6
353.56	3.64
353.929	3.54
354.299	2.92
354.669	3.81
355.038	3.71
355.408	3.4
355.777	3.54
356.147	3.24
356.516	3.53
356.885	3.45
357.254	3.14
357.624	3.4
357.993	3.84
358.362	3.13
358.731	3.37
359.1	3.53
359.469	3.58
359.838	2.92
360.207	3.5
360.576	3.65
360.945	3.29
361.314	3.49
361.682	3.33
362.051	3.73
362.42	3.22
362.788	3.26
363.157	3.36
363.525	3.38
363.894	3.46
364.262	3.44
364.631	3.46
364.999	3.44
365.367	3.63
365.735	3.39
366.104	3.37
366.472	3.43
366.84	3.39
367.208	3.59
367.576	3.3
367.944	3.59
368.312	3.81
368.68	3.5
369.048	3.54
369.416	3.55
369.783	3.55
370.151	3.65
370.519	3.58
370.886	3.35
371.254	3.2
371.621	3.43
371.989	3.24
372.356	3.18
372.724	4.07
373.091	3.49
373.458	3.1
373.826	3.65
374.193	3.42
374.56	3.27
374.927	3.26
375.294	3.78
375.661	3.66
376.028	3.66
376.395	3.59
376.762	3.87
377.129	3.38
377.496	3.26
377.863	3.64
378.229	3.36
378.596	3.5
378.963	3.6
379.329	3.36
379.696	3.34
380.062	3.54
380.429	3.57
380.795	3.84
381.161	3.8
381.528	3.71
381.894	3.61
382.26	3.28
382.626	3.67
382.993	3.67
383.359	3.47
383.725	3.52
384.091	3.57
384.457	3.25
384.823	3.59
385.188	3.51
385.554	3.58
385.92	3.49
386.286	3.7
386.651	3.61
387.017	3.69
387.383	3.58
387.748	3.81
388.114	3.62
388.479	3.43
388.845	3.48
389.21	3.56
389.575	3.55
389.94	3.55
390.306	3.68
390.671	3.5
391.036	3.4
391.401	3.76
391.766	3.7
392.131	3.52
392.496	3.27
392.861	3.73
393.226	3.75
393.591	3.47
393.956	3.7
394.32	3.72
394.685	3.9
395.05	3.75
395.414	3.57
395.779	3.69
396.143	3.68
396.508	3.48
396.872	3.79
397.236	3.66
397.601	3.46
397.965	3.52
398.329	3.77
398.694	3.6
399.058	3.53
399.422	3.63
399.786	3.78
400.15	3.61
400.514	3.46
400.878	3.68
401.242	3.54
401.605	3.69
401.969	3.64
402.333	3.52
402.697	3.49
403.06	3.76
403.424	4.18
403.787	3.48
404.151	3.42
404.514	3.56
404.878	3.61
405.241	3.89
405.604	3.69
405.968	3.5
406.331	3.84
406.694	3.84
407.057	3.84
407.42	3.64
407.783	3.7
408.146	3.7
408.509	3.99
408.872	3.65
409.235	3.84
409.598	3.81
409.961	3.48
410.323	3.66
410.686	3.76
411.049	4.01
411.411	3.78
411.774	3.71
412.136	3.7
412.499	3.67
412.861	3.83
413.223	3.81
413.586	3.86
413.948	3.74
414.31	3.87
414.672	3.54
415.035	3.77
415.397	3.45
415.759	3.77
416.121	3.77
416.483	3.46
416.845	3.85
417.206	3.93
417.568	3.87
417.93	3.75
418.292	3.73
418.653	3.61
419.015	3.77
419.377	3.55
419.738	3.81
420.1	3.7
420.461	3.73
420.822	3.77
421.184	3.74
421.545	3.74
421.906	3.8
422.267	3.74
422.629	3.61
422.99	3.56
423.351	3.61
423.712	3.55
424.073	3.82
424.434	3.83
424.795	3.68
425.155	3.74
425.516	3.72
425.877	3.58
426.238	3.6
426.598	3.54
426.959	3.71
427.32	3.67
427.68	3.75
428.041	3.72
428.401	3.85
428.761	3.75
429.122	3.7
429.482	3.79
429.842	3.99
430.202	3.86
430.563	4.08
430.923	3.88
431.283	3.86
431.643	3.74
432.003	3.63
432.363	3.92
432.722	3.84
433.082	3.69
433.442	4.05
433.802	3.86
434.161	3.85
434.521	3.87
434.881	3.67
435.24	3.77
435.6	3.81
435.959	3.77
436.319	3.78
436.678	3.84
437.037	3.89
437.396	3.77
437.756	3.78
438.115	3.8
438.474	3.95
438.833	4.01
439.192	3.96
439.551	3.77
439.91	3.75
440.269	3.8
440.628	3.73
440.987	3.85
441.345	3.78
441.704	3.76
442.063	3.69
442.421	3.81
442.78	3.85
443.138	3.75
443.497	3.73
443.855	3.8
444.214	3.91
444.572	3.8
444.93	3.87
445.288	3.78
445.647	3.85
446.005	3.98
446.363	3.85
446.721	3.84
447.079	3.76
447.437	3.67
447.795	3.67
448.153	3.83
448.51	3.65
448.868	3.8
449.226	3.75
449.584	3.75
449.941	3.76
450.299	3.94
450.656	3.9
451.014	3.84
451.371	3.7
451.729	3.79
452.086	3.78
452.443	4.1
452.801	3.92
453.158	4
453.515	3.82
453.872	3.72
454.229	3.84
454.586	3.93
454.943	3.86
455.3	3.99
455.657	3.83
456.014	4
456.371	3.88
456.727	3.85
457.084	3.9
457.441	3.9
457.797	3.94
458.154	3.86
458.51	3.91
458.867	3.8
459.223	3.79
459.58	3.89
459.936	3.84
460.292	3.78
460.648	3.89
461.005	3.77
461.361	3.77
461.717	3.68
462.073	3.72
462.429	3.79
462.785	3.91
463.141	3.84
463.496	4.04
463.852	3.96
464.208	4
464.564	3.88
464.919	4
465.275	3.97
465.631	3.97
465.986	3.96
466.342	3.95
466.697	3.75
467.052	3.95
467.408	3.76
467.763	3.85
468.118	3.79
468.473	3.78
468.829	3.87
469.184	3.76
469.539	3.93
469.894	3.81
470.249	3.93
470.603	4.03
470.958	3.83
471.313	3.92
471.668	3.89
472.023	3.89
472.377	3.98
472.732	4.04
473.086	3.91
473.441	3.91
473.795	3.93
474.15	4.11
474.504	4.05
474.859	3.97
475.213	3.87
475.567	3.74
475.921	4.09
476.275	3.97
476.63	3.96
476.984	3.94
477.338	4.04
477.692	4.09
478.045	3.92
478.399	3.85
478.753	3.83
479.107	3.81
479.461	3.93
479.814	4.15
480.168	4.03
480.521	3.92
480.875	3.93
481.228	3.88
481.582	3.94
481.935	3.92
482.289	3.93
482.642	3.99
482.995	4.1
483.348	3.9
483.701	3.86
484.055	3.82
484.408	3.75
484.761	3.85
485.114	3.68
485.466	3.62
485.819	3.52
486.172	3.43
486.525	3.54
486.878	3.71
487.23	3.9
487.583	4.04
487.936	4.03
488.288	3.94
488.641	3.87
488.993	3.76
489.345	3.66
489.698	3.68
490.05	3.65
490.402	3.66
490.754	3.83
491.107	3.87
491.459	3.89
491.811	3.95
492.163	4.02
492.515	3.96
492.866	3.98
493.218	3.72
493.57	3.67
493.922	3.53
494.274	3.69
494.625	3.84
494.977	4.03
495.328	4.09
495.68	4.15
496.031	4.04
496.383	3.97
496.734	3.96
497.086	4.09
497.437	4.1
497.788	4.08
498.139	3.92
498.49	3.94
498.842	4.05
499.193	3.82
499.544	3.81
499.894	3.86
500.245	3.91
500.596	3.99
500.947	3.93
501.298	4.02
501.648	4.01
501.999	4.08
502.35	3.98
502.7	3.96
503.051	4.02
503.401	4.03
503.752	3.99
504.102	4.06
504.452	4
504.803	4.09
505.153	3.92
505.503	3.82
505.853	3.91
506.203	3.9
506.553	3.88
506.903	4.02
507.253	4.11
507.603	3.93
507.953	3.95
508.303	4.06
508.652	4.09
509.002	4.09
509.352	3.87
509.701	3.88
510.051	3.96
510.4	3.94
510.75	3.83
511.099	3.97
511.449	3.93
511.798	4.05
512.147	3.97
512.496	3.92
512.846	3.96
513.195	4
513.544	4.04
513.893	3.86
514.242	3.96
514.591	4.02
514.939	3.9
515.288	3.89
515.637	4.09
515.986	4.06
516.334	4.07
516.683	3.97
517.032	3.95
517.38	4.07
517.729	4.1
518.077	3.95
518.426	3.99
518.774	3.98
519.122	4.04
519.47	3.87
519.819	3.81
520.167	3.89
520.515	3.93
520.863	3.76
521.211	3.89
521.559	3.85
521.907	4.07
522.255	3.91
522.602	3.96
522.95	4.07
523.298	3.99
523.645	4.14
523.993	4.09
524.341	4.08
524.688	4.09
525.036	3.99
525.383	4.03
525.73	4.02
526.078	4.25
526.425	4.08
526.772	3.96
527.119	3.98
527.466	3.83
527.814	3.81
528.161	3.74
528.508	3.9
528.854	3.93
529.201	4.01
529.548	3.9
529.895	3.91
530.242	3.77
530.588	3.57
530.935	3.53
531.282	3.65
531.628	3.78
531.975	3.94
532.321	4
532.667	4.01
533.014	4.08
533.36	3.96
533.706	4
534.052	3.83
534.399	3.88
534.745	3.98
535.091	3.84
535.437	3.72
535.783	3.74
536.129	3.82
536.474	3.91
536.82	4.09
537.166	4.13
537.512	3.99
537.857	4.11
538.203	3.94
538.549	3.83
538.894	3.79
539.239	3.78
539.585	3.92
539.93	3.98
540.276	4
540.621	4.09
540.966	4.08
541.311	4.11
541.656	4.14
542.001	4.07
542.346	3.95
542.691	3.84
543.036	3.79
543.381	3.67
543.726	3.68
544.071	3.75
544.415	3.9
544.76	3.99
545.105	4
545.449	3.94
545.794	3.95
546.138	4.02
546.483	3.99
546.827	4.1
547.171	4.1
547.516	4.01
547.86	4.03
548.204	4.08
548.548	3.92
548.892	3.89
549.236	3.79
549.58	3.9
549.924	4.07
550.268	4.2
550.612	4.16
550.956	4.07
551.3	4.06
551.643	4.2
551.987	4
552.33	4.24
552.674	4.21
553.017	4.03
553.361	4.21
553.704	3.97
554.048	4.01
554.391	3.92
554.734	3.98
555.077	3.94
555.42	3.96
555.764	4.02
556.107	4.1
556.45	4.03
556.793	4.08
557.135	4.27
557.478	4.16
557.821	4.14
558.164	4.12
558.507	4.11
558.849	4.05
559.192	4
559.534	4
559.877	4.1
560.219	4.25
560.562	4.14
560.904	4.22
561.246	3.88
561.589	4.07
561.931	4.21
562.273	4.04
562.615	4.03
562.957	4.07
563.299	4.16
563.641	3.88
563.983	4.04
564.325	4.05
564.667	3.79
565.008	4.03
565.35	4.27
565.692	4.01
566.033	3.95
566.375	4.03
566.716	4.08
567.058	4.12
567.399	3.92
567.741	4.02
568.082	3.78
568.423	3.94
568.764	3.88
569.105	4.09
569.447	4.13
569.788	4.05
570.129	3.98
570.47	4.05
570.811	4.05
571.151	4.05
571.492	4.11
571.833	3.93
572.174	4.02
572.514	4
572.855	3.8
573.195	4.06
573.536	4.02
573.876	3.82
574.217	4.01
574.557	3.89
574.898	3.86
575.238	4
575.578	3.92
575.918	4.11
576.258	4.19
576.598	4
576.938	3.93
577.278	3.97
577.618	3.95
577.958	3.84
578.298	4.22
578.638	4.06
578.977	3.99
579.317	3.97
579.657	3.95
579.996	4.03
580.336	4.04
580.675	3.93
581.014	4.14
581.354	4.29
581.693	3.99
582.032	4.25
582.372	4.22
582.711	4.32
583.05	3.9
583.389	4.23
583.728	4.29
584.067	4.12
584.406	3.98
584.745	3.95
585.083	3.98
585.422	4
585.761	4.18
586.1	4.31
586.438	3.91
586.777	4.01
587.115	4.21
587.454	4.16
587.792	4.24
588.13	4.2
588.469	4.16
588.807	4.06
589.145	4.07
589.483	4.05
589.821	4.14
590.159	4.23
590.497	3.99
590.835	3.91
591.173	3.96
591.511	4.05
591.849	3.98
592.187	4
592.524	4.12
592.862	4.06
593.2	3.95
593.537	4.13
593.875	4.21
594.212	4.3
594.55	4.19
594.887	3.8
595.224	3.96
595.561	3.97
595.899	3.93
596.236	4.03
596.573	4.15
596.91	3.92
597.247	4.16
597.584	4.02
597.921	3.88
598.258	3.93
598.594	4.05
598.931	3.78
599.268	3.95
599.604	3.93
599.941	3.96
600.277	3.98
600.614	4.22
600.95	4.12
601.287	4.12
601.623	4.11
601.959	4.09
602.296	3.88
602.632	4.45
602.968	4.15
603.304	4.29
603.64	3.89
603.976	4.24
604.312	3.91
604.648	3.86
604.984	4.23
605.319	3.85
605.655	4.02
605.991	3.89
606.326	3.9
606.662	3.89
606.998	3.89
607.333	3.79
607.668	3.89
608.004	3.84
608.339	4.23
608.674	3.87
609.01	3.87
609.345	4.26
609.68	4.18
610.015	4.26
610.35	4.23
610.685	4.07
611.02	3.98
611.355	4.13
611.689	3.74
612.024	3.98
612.359	3.99
612.694	3.97
613.028	4.01
613.363	3.99
613.697	3.94
614.032	4.12
614.366	4.31
614.7	4.08
615.035	4.22
615.369	4.09
615.703	3.91
616.037	4.08
616.371	3.81
616.705	3.83
617.039	4.16
617.373	4.04
617.707	4.16
618.041	4.1
618.375	4.13
618.709	4.15
619.042	3.96
619.376	4.02
619.71	4.05
620.043	4.23
620.377	4.17
620.71	4.09
621.043	4.14
621.377	4.55
621.71	4.33
622.043	3.74
622.376	3.92
622.709	3.91
623.043	4.17
623.376	4.26
623.709	4.17
624.041	4.25
624.374	4.16
624.707	3.58
625.04	3.87
625.373	3.91
625.705	4.23
626.038	4.15
626.37	4.13
626.703	4.01
627.035	3.98
627.368	4.37
627.7	4.19
628.032	3.97
628.365	3.78
628.697	3.81
629.029	4.03
629.361	4.18
629.693	3.99
630.025	3.94
630.357	3.83
630.689	4.16
631.021	4.29
631.353	4.06
631.684	4.27
632.016	3.96
632.348	3.82
632.679	4.26
633.011	4.09
633.342	3.85
633.674	4.4
634.005	4.13
634.336	3.94
634.668	3.88
634.999	4.31
635.33	4.46
635.661	4.03
635.992	3.94
636.323	4.28
636.654	4.33
636.985	3.9
637.316	4.13
637.647	4.37
637.977	4.18
638.308	4.23
638.639	4.09
638.969	4.29
639.3	4.03
639.63	3.87
639.961	4.31
640.291	4.02
640.622	3.98
640.952	3.82
641.282	4.16
641.612	4.2
641.943	4.09
642.273	4.18
642.603	3.95
642.933	4.07
643.263	4.55
643.592	4.16
643.922	4.24
644.252	3.96
644.582	4.11
644.911	4.51
645.241	4.38
645.571	4.31
645.9	4.16
646.23	4.05
646.559	3.82
646.888	4.35
647.218	3.84
647.547	4.09
647.876	4.33
648.205	4.46
648.534	4.71
648.863	3.63
649.192	4.23
649.521	4.27
649.85	4.34
650.179	4.17
650.508	4.35
650.837	4.52
651.165	4.21
651.494	4.27
651.822	4.09
652.151	3.88
652.479	4.64
652.808	3.98
653.136	4.02
653.465	4.35
653.793	4.6
654.121	3.91
654.449	4.38
654.777	4.03
655.105	4.19
655.433	4.17
655.761	3.81
656.089	4.31
656.417	3.91
656.745	4.2
657.073	3.77
657.4	4.43
657.728	4.55
658.056	4.24
658.383	4.18
658.711	4.27
659.038	4.5
659.365	4.45
659.693	3.96
660.02	4.31
660.347	4.61
660.674	4.02
661.001	4.64
661.329	4.25
661.656	4.31
661.982	4.18
662.309	4.32
662.636	4.05
662.963	4.66
663.29	4.49
663.616	4.09
663.943	4.39
664.27	4.37
664.596	3.97
664.923	4.39
665.249	4.4
665.576	4.31
665.902	4.19
666.228	3.99
666.554	4.48
666.881	4.24
667.207	3.93
667.533	4.49
667.859	3.86
668.185	4.15
668.511	4.4
668.837	4.44
669.162	4.61
669.488	3.96
669.814	4.21
670.139	4.65
670.465	4.76
670.791	4.62
671.116	4.26
671.442	4.23
671.767	3.39
672.092	4.45
672.418	4.32
672.743	4.55
673.068	4.45
673.393	4.63
673.718	3.63
674.043	4.75
674.368	3.88
674.693	4.66
675.018	4.6
675.343	4.36
675.667	4.34
675.992	4.29
676.317	3.92
676.641	4.69
676.966	4.23
677.29	4.31
677.615	4.81
677.939	4.42
678.264	4.29
678.588	4.27
678.912	4.87
679.236	3.76
679.56	3.46
679.885	4.38
680.209	3.82
680.532	4.3
680.856	4.14
681.18	4.29
681.504	3.94
681.828	4.56
682.152	4.73
682.475	4.18
682.799	4.62
683.122	4.15
683.446	4.1
683.769	5.03
684.093	4.82
684.416	4.57
684.739	4.14
685.062	4.76
685.386	3.8
685.709	4.13
686.032	3.69
686.355	4.64
686.678	4.13
687.001	3.75
687.324	4.37
687.646	4.02
687.969	4.4
688.292	4.3
688.614	4.27
688.937	4.67
689.26	4.62
689.582	3.65
689.904	4.24
690.227	4.51
690.549	4.01
690.871	4.7
691.194	4.73
691.516	4.09
691.838	4.71
692.16	4.45
692.482	4.52
692.804	4.5
693.126	4.23
693.448	4.39
693.769	4.42
694.091	3.98
694.413	3.82
694.735	4.17
695.056	4.19
695.378	4.71
695.699	4.83
696.021	5.13
696.342	4.95
696.663	5.04
696.984	4.23
697.306	4.3
697.627	3.98
697.948	3.86
698.269	4.27
698.59	4.77
698.911	4.15
699.232	4.69
699.553	4.7
699.873	4.4
700.194	3.82
700.515	4.94
700.835	4.65
701.156	4.56
701.477	4.53
701.797	4.48
702.117	3.82
702.438	5.03
702.758	3.64
703.078	5.03
703.398	4.65
703.719	5.46
704.039	4.71
704.359	3.64
704.679	4.12
704.999	5.27
705.319	4.75
705.638	4.41
705.958	4.89
706.278	4.52
706.597	3.25
706.917	4.61
707.237	3.44
707.556	4.98
707.876	5.21
708.195	4.53
708.514	3.7
708.834	3.59
709.153	4.92
709.472	4.47
709.791	4.29
710.11	4.73
710.429	4.77
710.748	5.36
711.067	4.07
711.386	4.23
711.705	5.76
712.023	4.51
712.342	5.78
712.661	4.24
712.979	5.19
713.298	4.1
713.616	4.9
713.935	4.05
714.253	4.7
714.572	4.86
714.89	4.47
715.208	5.25
715.526	3.97
715.844	4.63
716.162	4.19
716.48	3.75
716.798	4.64
717.116	3.83
717.434	4.53
717.752	4.32
718.069	4.73
718.387	4.48
718.705	5.31
719.022	4.56
719.34	4.96
719.657	4.68
719.975	3.85
720.292	5.62
720.609	4.71
720.927	4.57
721.244	4.13
721.561	4.15
721.878	4.54
722.195	4.26
722.512	3.95
722.829	4.84
723.146	4.46
723.463	4.33
723.779	4.24
724.096	4.76
724.413	4.16
724.729	5.96
725.046	4.72
725.362	5.38
725.679	6.51
725.995	5.82
726.311	7.29
726.628	6.01
726.944	4.65
727.26	3.23
727.576	4.17
727.892	4.72
728.208	4.85
728.524	4.77
728.84	5.61
729.156	5.25
729.472	5.38
729.787	5.52
730.103	5.35
730.419	5.61
730.734	5.51
731.05	4.54
731.365	5.03
731.681	3.89
731.996	5.04
732.311	6.2
732.626	5.96
732.942	5.83
733.257	4.11
733.572	3.87
733.887	4.61
734.202	3.67
734.517	4.44
734.832	5.63
735.146	6.16
735.461	4.91
735.776	5.19
736.091	4.65
736.405	5.39
736.72	6.15
737.034	4.13
737.349	5.75
737.663	4.25
737.977	5.75
738.292	4.75
738.606	5.43
738.92	4.27
739.234	3.87
739.548	4.76
739.862	7.32
740.176	5.8
740.49	4.54
740.804	2.79
741.117	4.48
741.431	5.58
741.745	4.13
742.058	6.24
742.372	6.25
742.685	6.21
742.999	4.69
743.312	5.14
743.626	5.23
743.939	5
744.252	5.86
744.565	4.45
744.878	5.44
745.191	3.86
745.505	6.76
745.817	7.12
746.13	4.94
746.443	6.19
746.756	6.92
747.069	5.67
747.381	6.13
747.694	7.13
748.007	6.33
748.319	5.47
748.632	3.99
748.944	3.43
749.256	5.42
749.569	4.36
749.881	5.73
750.193	4.4
750.505	5.97
750.817	6.12
751.129	3.62
751.441	5.08
751.753	5.54
752.065	3.28
752.377	4.16
752.689	4.91
753	4.83
753.312	5.72
753.624	5.63
753.935	5.69
754.247	4.96
754.558	5.02
754.869	5.72
755.181	4.57
755.492	5.11
755.803	5.27
756.114	5.02
756.425	4.35
756.736	5.67
757.047	4.16
757.358	4.39
757.669	4.75
757.98	7.22
758.291	3.23
758.601	5.44
758.912	4.66
759.223	4.79
759.533	5.36
759.844	4.27
760.154	4.65
760.464	5.64
760.775	3.84
761.085	6.14
761.395	4.17
761.705	4.22
762.016	4.95
762.326	7
762.636	4.73
762.945	5.64
763.255	5.45
763.565	4.02
763.875	5.3
764.185	5.37
764.494	6.48
764.804	3.8
765.113	3.66
765.423	5.32
765.732	4.99
766.042	5.32
766.351	5.42
766.66	5.25
766.97	4.97
767.279	6.31
767.588	5.23
767.897	4.96
768.206	4.95
768.515	5.92
768.824	5.76
769.133	5.89
769.441	4.85
769.75	4.55
770.059	5
770.367	5.69
770.676	3.04
770.984	5.03
771.293	4.27
771.601	6.04
771.91	6.53
772.218	5.21
772.526	7.26
772.834	6.37
773.142	4.8
773.45	4.35
773.758	6.9
774.066	4.26
774.374	5.91
774.682	9.18
774.99	5.48
775.298	6.26
775.605	5.97
775.913	6.09
776.22	3.7
776.528	8.72
776.835	5.81
777.143	5.22
777.45	6.39
777.757	6.28
778.065	6.03
778.372	7.36
778.679	6.71
778.986	3.74
779.293	7.96
779.6	5.01
779.907	8.6
780.214	6.39
780.52	6.51
780.827	7.25
781.134	10.23
781.44	6.15
781.747	7.84
782.053	9.04
782.36	2.93
782.666	4.3
782.973	6.15
783.279	5.38
783.585	2.71
783.891	4.64
784.197	5.2
784.503	6.71
784.809	4.99
785.115	2.77
785.421	5.49
785.727	9.41
786.033	4.87
786.339	6.64
786.644	4.93
786.95	6.73
787.255	5.3
787.561	5.38
787.866	6.13
788.172	5.93
788.477	2.09
788.782	7.46
789.088	5.94
789.393	8.06
789.698	8.59
790.003	9.51
790.308	5.98
790.613	5.2
790.918	2.99
791.223	8.88
791.527	3.5
791.832	4.52
792.137	5.51
792.441	8.11
792.746	4.44
793.05	6.94
793.355	6.92
793.659	5.05
793.963	6.53
794.268	8.14
794.572	5.66
794.876	3.06
795.18	5.3
795.484	7.46
795.788	4.2
796.092	3.41
796.396	4.34
796.7	8.82
797.004	5.87
797.307	11.65
797.611	4.16
797.915	6.55
798.218	-0.38
798.522	7.97
798.825	7.78
799.128	2.8
799.432	9.88
799.735	5.7
800.038	10.1
800.341	6.2
800.644	7.77
800.947	7.69
801.25	6.16
801.553	9.49
801.856	7.52
802.159	4.21
802.462	8.42
802.764	5.7
803.067	2.95
803.37	2.79
803.672	3.98
803.975	4.19
804.277	4.49
804.579	10.49
804.882	8.11
805.184	3.9
805.486	6.13
805.788	6.58
806.09	6.08
806.392	7.2
806.694	7.09
806.996	4.81
807.298	9.57
807.6	9.51
807.902	8.1
808.203	10.84
808.505	8.77
808.807	3.07
809.108	7.42
809.409	7.68
809.711	6.36
810.012	11.77
810.313	7.54
810.615	5.87
810.916	11.57
811.217	7.19
811.518	8.5
811.819	7.63
812.12	7.19
812.421	7.04
812.722	5.87
813.023	3.34
813.323	1.99
813.624	6.16
813.925	6.98
814.225	10.3
814.526	9.18
814.826	4.23
815.126	6.24
815.427	6.42
815.727	3.73
816.027	4.61
816.327	7.28
816.627	8.59
816.927	13.05
817.227	9.51
817.527	6.04
817.827	9.32
818.127	6.79
818.427	2.95
818.727	7.77
819.026	5.3
819.326	3.72
819.625	6.86
819.925	6.78
820.224	7.33
820.524	1.47
820.823	6.35
821.122	8.71
821.421	9.18
821.72	9.14
822.019	9.77
822.318	4.87
822.617	5.72
822.916	9.13
823.215	6.14
823.514	4.8
823.813	8.58
824.111	8.8
824.41	7.09
824.709	6.01
825.007	6.3
825.306	6.29
825.604	7.5
825.902	8.71
826.201	6.84
826.499	6.7
826.797	5.96
827.095	7.05
827.393	7.78
827.691	6.13
827.989	7.37
828.287	6.63
828.585	7.13
828.882	7.21
829.18	7.1
829.478	6.81
829.775	7.58
830.073	7.66
830.37	8.21
830.668	6.82
830.965	6.88
831.263	7.01
831.56	7.3
831.857	7.54
832.154	7.77
832.451	4.43
832.748	8.7
833.045	4.31
833.342	8.16
833.639	5.47
833.936	5.91
834.232	6.13
834.529	3.64
834.826	7.93
835.122	5.97
835.419	5.42
835.715	13.81
836.012	4.22
836.308	6.11
836.604	6.36
836.901	6.83
837.197	7.67
837.493	7.82
837.789	7.27
838.085	6.68
838.381	9.12
838.677	7.03
838.972	7.04
839.268	7.86
839.564	6.05
839.86	7.72
840.155	10.73
840.451	5.76
840.746	11.16
841.042	1.59
841.337	5.24
841.632	3.98
841.928	7.36
842.223	6.56
842.518	8.25
842.813	9.62
843.108	-0.61
843.403	7.65
843.698	4.97
843.993	6.48
844.287	11.08
844.582	14.06
844.877	9.56
845.171	12.95
845.466	9.18
845.761	5.91
846.055	4.71
846.349	-4.99
846.644	6.05
846.938	-12.38
847.232	6.9
847.526	4.44
847.82	2.44
848.114	-1.84
848.408	5.92
848.702	7.23
848.996	4.51
849.29	15.13
849.584	1.74
849.877	16.87
850.171	-5.13
850.465	25.67
850.758	16.82
851.052	10.14
851.345	7.16
851.638	9.78
851.932	-17.07
852.225	8.06
852.518	18.25
852.811	-3.88
853.104	5.34
853.397	-9.21
853.69	4.89
853.983	7.14
854.276	21.48
854.569	-13.59
854.861	15.66
855.154	12.93
855.447	24.95
855.739	6.22
856.032	14.03
856.324	13.8
856.616	5.61
856.909	-1.15
857.201	7.99
857.493	7.49
857.785	17.4
858.077	11.49
858.369	14.54
858.661	6.33
858.953	5.7
859.245	-8.57
859.537	36.36
859.829	16.55
860.12	-2.25
860.412	3.32
860.703	17.78
860.995	2.48
861.286	-8.84
861.578	-2.13
861.869	5.31
862.16	3.71
862.452	25.36
862.743	16.86
863.034	22.51
863.325	13.25
863.616	0.76
863.907	-13.47
864.198	-5.51
864.488	-7.38
864.779	-6.11
865.07	25.14
865.36	0.85
865.651	11.35
865.941	13.07
866.232	7.69
866.522	12.66
866.813	-12.96
867.103	20.86
867.393	0.61
867.683	-3.14
867.973	11.64
868.263	-21.43
868.553	12.04
868.843	20.26
869.133	21.44
869.423	22.79
869.713	15.76
870.002	12.52
870.292	-0.02
870.582	11.37
870.871	19.17
871.161	-6.01
871.45	19.84
871.739	-0.27
872.029	-9.83
872.318	4.15
872.607	16.42
872.896	16.87
873.185	-0.98
873.474	11.8
873.763	-17.08
874.052	-10.62
874.341	6.64
874.63	10.5
874.918	-8.91
875.207	8.36
875.496	22.18
875.784	10.25
876.073	-0.02
876.361	9.56
876.649	14.05
876.938	6.6
877.226	17.07
877.514	-12.98
877.802	25.99
878.09	5.59
878.378	8.69
878.666	10.62
878.954	-29.88
879.242	5.48
879.53	7.64
879.817	4.31
880.105	-0.38
880.392	17.88
880.68	17.73
880.967	26.14
881.255	20.38
881.542	9.06
881.83	28.64
882.117	11.79
882.404	16.72
882.691	2.82
882.978	-1.96
883.265	22.92
883.552	15.19
883.839	18.83
884.126	7.01
884.413	-2.86
884.699	12.59
884.986	13.25
885.273	12.11
885.559	12.11
885.846	12.11
