Data from 20-1_crown_Reflection__4__69.txt Node

Date: Fri Nov 11 20:42:45 CST 2022
User: ToomeyLab
Spectrometer: FLMS14357
Trigger mode: 0
Integration Time (sec): 1.000000E-2
Scans to average: 100
Electric dark correction enabled: true
Nonlinearity correction enabled: false
Boxcar width: 0
XAxis mode: Wavelengths
Number of Pixels in Spectrum: 2048
>>>>>Begin Spectral Data<<<<<
189.047	234.84
189.435	234.84
189.823	234.84
190.211	349.25
190.599	-160.51
190.987	63.39
191.375	-4.79
191.763	-68.97
192.151	194.47
192.538	396.61
192.926	29.62
193.314	253.73
193.702	12.97
194.089	-164.61
194.477	47.66
194.864	133.35
195.252	47.41
195.639	-123.14
196.027	-71.47
196.414	31.91
196.801	-29145.45
197.189	179.94
197.576	25.03
197.963	2.81
198.351	-28.33
198.738	-5.36
199.125	-9.81
199.512	12.8
199.899	-88.63
200.286	34.23
200.673	50.3
201.06	12.91
201.447	44.46
201.833	8.83
202.22	-65.73
202.607	37.73
202.994	23.02
203.38	25.83
203.767	-3.54
204.154	37.73
204.54	-19.46
204.927	17.15
205.313	7.46
205.699	-33.58
206.086	-4.4
206.472	12.94
206.858	2.15
207.245	20.27
207.631	-12.3
208.017	6.56
208.403	5.68
208.789	11.27
209.175	45.73
209.561	29.99
209.947	-14.06
210.333	-28.95
210.719	-4.34
211.105	41.46
211.491	5.85
211.876	2.7
212.262	1.14
212.648	-34.58
213.034	-20.62
213.419	-32.68
213.805	-18.85
214.19	2.63
214.576	-13.99
214.961	-28.73
215.346	-3
215.732	-12.78
216.117	3.5
216.502	-24.73
216.888	1.33
217.273	14.31
217.658	-15.77
218.043	-15.75
218.428	-11.68
218.813	19.04
219.198	-6.6
219.583	21.07
219.968	-5.02
220.353	5.91
220.738	-21.22
221.122	12.7
221.507	-18.08
221.892	2.14
222.276	16.2
222.661	19.31
223.046	-18.01
223.43	-13.77
223.815	-1.69
224.199	11.46
224.583	-4.51
224.968	-8
225.352	7.75
225.736	4.54
226.121	-0.56
226.505	2.11
226.889	-9.02
227.273	-0.31
227.657	-6.53
228.041	0.29
228.425	-1.11
228.809	1.15
229.193	5.17
229.577	4.52
229.961	1.42
230.344	1.84
230.728	1.45
231.112	0.74
231.495	1.16
231.879	1.19
232.263	2.68
232.646	1.16
233.03	1.65
233.413	2.56
233.797	2.24
234.18	-1.36
234.563	2.33
234.946	2.82
235.33	1.57
235.713	1.54
236.096	0.75
236.479	0.93
236.862	3.84
237.245	0.76
237.628	2.46
238.011	2.45
238.394	1.13
238.777	1.67
239.16	3.23
239.543	1.62
239.925	2.69
240.308	1.74
240.691	1.61
241.073	1.8
241.456	1.26
241.838	2.28
242.221	1.84
242.603	2.67
242.986	2.17
243.368	1.6
243.75	1.36
244.133	1.86
244.515	1.77
244.897	1.9
245.279	1.57
245.661	1.66
246.043	1.46
246.425	2.53
246.807	0.99
247.189	1.41
247.571	1.94
247.953	1.76
248.335	1.94
248.717	2.06
249.098	2.04
249.48	1.71
249.862	1.84
250.243	1.7
250.625	1.79
251.006	2.58
251.388	1.44
251.769	2.63
252.151	2.63
252.532	1.58
252.913	2.07
253.295	2.34
253.676	1.4
254.057	1.76
254.438	2.06
254.819	1.56
255.2	2.43
255.581	1.44
255.962	1.4
256.343	1.92
256.724	0.96
257.105	2.6
257.486	2.35
257.867	2.63
258.247	1.17
258.628	1.08
259.009	1.33
259.389	1.69
259.77	2
260.15	2.19
260.531	1.57
260.911	1.82
261.292	2.14
261.672	1.54
262.052	1.73
262.432	2.06
262.813	2.25
263.193	1.68
263.573	2.03
263.953	2.46
264.333	1.78
264.713	2.16
265.093	1.75
265.473	1.36
265.853	1.58
266.233	1.68
266.612	1.79
266.992	1.57
267.372	2.38
267.752	1.73
268.131	1.48
268.511	1.85
268.89	1.75
269.27	1.87
269.649	1.37
270.029	2
270.408	2.02
270.787	1.54
271.167	0.71
271.546	1.88
271.925	2.05
272.304	1.83
272.683	1.45
273.062	1.29
273.441	1.86
273.82	1.69
274.199	2.07
274.578	1.69
274.957	1.82
275.336	2.09
275.715	1.84
276.093	1.24
276.472	1.9
276.851	1.75
277.229	1.68
277.608	1.77
277.986	1.69
278.365	1.28
278.743	1.59
279.122	1.91
279.5	1.75
279.878	2.24
280.257	1.23
280.635	1.84
281.013	1.66
281.391	1.31
281.769	1.01
282.147	1.68
282.525	1.42
282.903	1.69
283.281	1.79
283.659	1.75
284.037	1.88
284.415	1.82
284.792	1.63
285.17	1.56
285.548	2.06
285.925	1.42
286.303	1.87
286.68	1.88
287.058	1.75
287.435	1.5
287.813	1.98
288.19	1.72
288.567	1.93
288.945	2.17
289.322	2.16
289.699	1.29
290.076	2.05
290.453	1.61
290.83	1.8
291.207	1.51
291.584	1.86
291.961	1.64
292.338	1.99
292.715	1.7
293.092	2.1
293.469	1.42
293.845	1.87
294.222	1.49
294.599	1.98
294.975	1.67
295.352	1.91
295.728	1.69
296.105	1.54
296.481	1.36
296.858	1.52
297.234	1.7
297.61	1.72
297.986	1.94
298.363	2.17
298.739	2.05
299.115	2.05
299.491	1.95
299.867	1.71
300.243	1.45
300.619	1.71
300.995	2
301.371	2.23
301.746	1.97
302.122	1.88
302.498	2.09
302.874	1.7
303.249	1.87
303.625	1.82
304	1.39
304.376	1.83
304.751	1.62
305.127	1.84
305.502	2.26
305.878	2.49
306.253	2.1
306.628	1.57
307.003	2.05
307.378	1.86
307.754	2.27
308.129	2.1
308.504	2.31
308.879	2
309.254	2.22
309.629	1.84
310.003	1.93
310.378	2.18
310.753	2.24
311.128	2.27
311.502	2.35
311.877	2.01
312.252	1.78
312.626	1.91
313.001	1.64
313.375	1.89
313.75	1.52
314.124	1.87
314.498	1.62
314.873	2.12
315.247	2.36
315.621	2.58
315.995	1.92
316.369	2.16
316.743	1.87
317.117	2.17
317.491	2.15
317.865	1.6
318.239	2.33
318.613	2.09
318.987	1.5
319.361	1.55
319.734	2.15
320.108	1.72
320.482	2.39
320.855	1.94
321.229	1.9
321.602	2.29
321.976	1.86
322.349	2.35
322.723	2.39
323.096	2.14
323.469	1.77
323.843	2.24
324.216	1.59
324.589	2.3
324.962	2.51
325.335	2.12
325.708	2.49
326.081	1.93
326.454	1.78
326.827	2.09
327.2	2.39
327.573	2.6
327.945	1.76
328.318	1.99
328.691	2.39
329.063	2.31
329.436	2.07
329.809	2.2
330.181	2.04
330.553	1.6
330.926	2.05
331.298	2.12
331.671	2.12
332.043	1.83
332.415	2.03
332.787	2.24
333.159	2.15
333.532	2.45
333.904	2.67
334.276	2.1
334.648	1.82
335.02	2.03
335.391	2.56
335.763	1.88
336.135	1.6
336.507	2.12
336.879	2.53
337.25	1.74
337.622	2.59
337.993	2.23
338.365	2.37
338.736	2.37
339.108	2.42
339.479	1.54
339.851	2.37
340.222	1.93
340.593	2.4
340.964	2.15
341.336	2.16
341.707	2.25
342.078	2.08
342.449	2.39
342.82	2.26
343.191	2.44
343.562	2.24
343.933	2.2
344.303	2.27
344.674	2.19
345.045	2.01
345.416	2.36
345.786	2.1
346.157	1.92
346.527	2.35
346.898	1.59
347.268	1.61
347.639	2.15
348.009	2.1
348.38	2.31
348.75	2.36
349.12	2.89
349.49	2.57
349.861	2.13
350.231	2.55
350.601	2.32
350.971	2.49
351.341	2.19
351.711	2.24
352.081	2.05
352.45	2.25
352.82	1.9
353.19	2.2
353.56	2.02
353.929	2.32
354.299	2.11
354.669	2.54
355.038	2.14
355.408	2.28
355.777	2.27
356.147	2.46
356.516	2.44
356.885	2.48
357.254	2.26
357.624	1.98
357.993	2.41
358.362	2.5
358.731	1.82
359.1	2.24
359.469	1.82
359.838	2.1
360.207	2.46
360.576	2.37
360.945	2.19
361.314	2.14
361.682	2.29
362.051	2.09
362.42	2.22
362.788	2.15
363.157	2
363.525	2.02
363.894	2.18
364.262	2.27
364.631	2.32
364.999	2.44
365.367	2.01
365.735	1.99
366.104	1.94
366.472	2.19
366.84	1.87
367.208	1.85
367.576	2.58
367.944	2.5
368.312	2.15
368.68	2.15
369.048	2.34
369.416	2.22
369.783	2.27
370.151	2.24
370.519	2.31
370.886	2.32
371.254	2.28
371.621	2.19
371.989	2.21
372.356	2.45
372.724	2.68
373.091	2.56
373.458	2.32
373.826	2.12
374.193	2.2
374.56	2.24
374.927	2.21
375.294	2.13
375.661	2.13
376.028	1.72
376.395	2.11
376.762	2.35
377.129	2.12
377.496	2.27
377.863	2.26
378.229	2.38
378.596	2.14
378.963	2.01
379.329	2.33
379.696	2.24
380.062	2.23
380.429	2.28
380.795	2.58
381.161	2.27
381.528	2.32
381.894	2.43
382.26	2.59
382.626	2.45
382.993	2.16
383.359	2.59
383.725	2.31
384.091	2.23
384.457	2.52
384.823	2.1
385.188	2.37
385.554	2.22
385.92	2.22
386.286	2.44
386.651	2.35
387.017	2.37
387.383	2.07
387.748	2.16
388.114	2.31
388.479	2.17
388.845	2.24
389.21	1.96
389.575	2.15
389.94	2.3
390.306	2.17
390.671	2.48
391.036	2.46
391.401	2.28
391.766	2.13
392.131	2.2
392.496	2.17
392.861	2.29
393.226	2.32
393.591	2.18
393.956	2.31
394.32	2.17
394.685	2.26
395.05	2.54
395.414	2.22
395.779	2.28
396.143	2.16
396.508	2.45
396.872	2.41
397.236	2.15
397.601	2.19
397.965	2.44
398.329	2.27
398.694	2.58
399.058	2.42
399.422	2.37
399.786	2.36
400.15	2.19
400.514	2.4
400.878	2.39
401.242	2.45
401.605	2.48
401.969	2.42
402.333	2.12
402.697	2.29
403.06	2.45
403.424	2.08
403.787	2.35
404.151	2.41
404.514	2.21
404.878	2.31
405.241	2.37
405.604	2.23
405.968	2.38
406.331	2.14
406.694	2.32
407.057	2.34
407.42	2.27
407.783	2.33
408.146	2.4
408.509	2.28
408.872	2.25
409.235	2.26
409.598	2.27
409.961	2.54
410.323	2.21
410.686	2.25
411.049	2.42
411.411	2.35
411.774	2.39
412.136	2.36
412.499	2.2
412.861	2.42
413.223	2.11
413.586	2.39
413.948	2.55
414.31	2.28
414.672	2.35
415.035	2.32
415.397	2.15
415.759	2.22
416.121	2.49
416.483	2.37
416.845	2.25
417.206	2.34
417.568	2.24
417.93	2.08
418.292	2.3
418.653	2.5
419.015	2.39
419.377	2.31
419.738	2.32
420.1	2.35
420.461	2.38
420.822	2.24
421.184	2.31
421.545	2.31
421.906	2.28
422.267	2.18
422.629	2.2
422.99	2.28
423.351	2.21
423.712	2.19
424.073	2.3
424.434	2.31
424.795	2.35
425.155	2.35
425.516	2.32
425.877	2.32
426.238	2.26
426.598	2.24
426.959	2.22
427.32	2.28
427.68	2.31
428.041	2.44
428.401	2.14
428.761	2.47
429.122	2.34
429.482	2.29
429.842	2.24
430.202	2.26
430.563	2.55
430.923	2.39
431.283	2.31
431.643	2.24
432.003	2.53
432.363	2.27
432.722	2.47
433.082	2.36
433.442	2.34
433.802	2.42
434.161	2.24
434.521	2.3
434.881	2.35
435.24	2.42
435.6	2.23
435.959	2.36
436.319	2.28
436.678	2.37
437.037	2.41
437.396	2.35
437.756	2.35
438.115	2.29
438.474	2.27
438.833	2.36
439.192	2.49
439.551	2.36
439.91	2.39
440.269	2.39
440.628	2.46
440.987	2.39
441.345	2.35
441.704	2.31
442.063	2.36
442.421	2.24
442.78	2.26
443.138	2.35
443.497	2.21
443.855	2.36
444.214	2.3
444.572	2.4
444.93	2.3
445.288	2.39
445.647	2.44
446.005	2.46
446.363	2.46
446.721	2.33
447.079	2.33
447.437	2.27
447.795	2.4
448.153	2.33
448.51	2.31
448.868	2.37
449.226	2.32
449.584	2.29
449.941	2.42
450.299	2.24
450.656	2.36
451.014	2.31
451.371	2.49
451.729	2.4
452.086	2.33
452.443	2.4
452.801	2.38
453.158	2.31
453.515	2.39
453.872	2.32
454.229	2.44
454.586	2.36
454.943	2.48
455.3	2.3
455.657	2.46
456.014	2.47
456.371	2.39
456.727	2.63
457.084	2.15
457.441	2.61
457.797	2.38
458.154	2.37
458.51	2.53
458.867	2.26
459.223	2.45
459.58	2.38
459.936	2.38
460.292	2.44
460.648	2.36
461.005	2.3
461.361	2.39
461.717	2.37
462.073	2.37
462.429	2.4
462.785	2.33
463.141	2.34
463.496	2.34
463.852	2.47
464.208	2.49
464.564	2.42
464.919	2.35
465.275	2.38
465.631	2.41
465.986	2.53
466.342	2.45
466.697	2.21
467.052	2.43
467.408	2.46
467.763	2.31
468.118	2.54
468.473	2.49
468.829	2.51
469.184	2.4
469.539	2.5
469.894	2.49
470.249	2.45
470.603	2.52
470.958	2.55
471.313	2.5
471.668	2.4
472.023	2.25
472.377	2.43
472.732	2.35
473.086	2.4
473.441	2.34
473.795	2.39
474.15	2.44
474.504	2.46
474.859	2.57
475.213	2.52
475.567	2.37
475.921	2.62
476.275	2.3
476.63	2.45
476.984	2.5
477.338	2.57
477.692	2.3
478.045	2.37
478.399	2.61
478.753	2.32
479.107	2.44
479.461	2.32
479.814	2.37
480.168	2.33
480.521	2.45
480.875	2.56
481.228	2.4
481.582	2.45
481.935	2.36
482.289	2.35
482.642	2.45
482.995	2.37
483.348	2.51
483.701	2.46
484.055	2.4
484.408	2.38
484.761	2.29
485.114	2.27
485.466	2.25
485.819	2.26
486.172	2.29
486.525	2.32
486.878	2.39
487.23	2.33
487.583	2.37
487.936	2.36
488.288	2.33
488.641	2.3
488.993	2.37
489.345	2.29
489.698	2.29
490.05	2.33
490.402	2.32
490.754	2.37
491.107	2.32
491.459	2.35
491.811	2.42
492.163	2.42
492.515	2.43
492.866	2.33
493.218	2.35
493.57	2.33
493.922	2.35
494.274	2.42
494.625	2.38
494.977	2.48
495.328	2.44
495.68	2.45
496.031	2.42
496.383	2.44
496.734	2.5
497.086	2.52
497.437	2.51
497.788	2.39
498.139	2.44
498.49	2.38
498.842	2.35
499.193	2.49
499.544	2.53
499.894	2.43
500.245	2.53
500.596	2.46
500.947	2.5
501.298	2.53
501.648	2.42
501.999	2.49
502.35	2.56
502.7	2.37
503.051	2.48
503.401	2.49
503.752	2.4
504.102	2.44
504.452	2.46
504.803	2.4
505.153	2.4
505.503	2.54
505.853	2.58
506.203	2.48
506.553	2.33
506.903	2.48
507.253	2.5
507.603	2.53
507.953	2.47
508.303	2.4
508.652	2.53
509.002	2.52
509.352	2.54
509.701	2.52
510.051	2.49
510.4	2.57
510.75	2.5
511.099	2.41
511.449	2.54
511.798	2.49
512.147	2.35
512.496	2.36
512.846	2.64
513.195	2.49
513.544	2.45
513.893	2.47
514.242	2.47
514.591	2.48
514.939	2.48
515.288	2.5
515.637	2.51
515.986	2.48
516.334	2.59
516.683	2.44
517.032	2.49
517.38	2.58
517.729	2.45
518.077	2.52
518.426	2.51
518.774	2.58
519.122	2.6
519.47	2.58
519.819	2.48
520.167	2.45
520.515	2.47
520.863	2.49
521.211	2.49
521.559	2.46
521.907	2.6
522.255	2.35
522.602	2.51
522.95	2.49
523.298	2.5
523.645	2.56
523.993	2.59
524.341	2.59
524.688	2.62
525.036	2.53
525.383	2.59
525.73	2.5
526.078	2.45
526.425	2.59
526.772	2.51
527.119	2.37
527.466	2.52
527.814	2.49
528.161	2.52
528.508	2.55
528.854	2.41
529.201	2.47
529.548	2.42
529.895	2.4
530.242	2.34
530.588	2.37
530.935	2.41
531.282	2.42
531.628	2.47
531.975	2.45
532.321	2.44
532.667	2.56
533.014	2.47
533.36	2.43
533.706	2.5
534.052	2.5
534.399	2.38
534.745	2.39
535.091	2.43
535.437	2.45
535.783	2.47
536.129	2.46
536.474	2.54
536.82	2.51
537.166	2.47
537.512	2.49
537.857	2.5
538.203	2.48
538.549	2.59
538.894	2.47
539.239	2.47
539.585	2.65
539.93	2.61
540.276	2.62
540.621	2.58
540.966	2.63
541.311	2.49
541.656	2.54
542.001	2.58
542.346	2.57
542.691	2.45
543.036	2.37
543.381	2.43
543.726	2.41
544.071	2.45
544.415	2.53
544.76	2.57
545.105	2.49
545.449	2.44
545.794	2.58
546.138	2.48
546.483	2.63
546.827	2.64
547.171	2.5
547.516	2.44
547.86	2.53
548.204	2.61
548.548	2.54
548.892	2.48
549.236	2.45
549.58	2.64
549.924	2.58
550.268	2.67
550.612	2.64
550.956	2.81
551.3	2.65
551.643	2.73
551.987	2.64
552.33	2.65
552.674	2.52
553.017	2.7
553.361	2.65
553.704	2.75
554.048	2.65
554.391	2.71
554.734	2.52
555.077	2.76
555.42	2.51
555.764	2.71
556.107	2.77
556.45	2.82
556.793	2.63
557.135	2.58
557.478	2.62
557.821	2.64
558.164	2.59
558.507	2.62
558.849	2.71
559.192	2.57
559.534	2.65
559.877	2.64
560.219	2.63
560.562	2.66
560.904	2.76
561.246	2.41
561.589	2.7
561.931	2.53
562.273	2.61
562.615	2.7
562.957	2.84
563.299	2.49
563.641	2.51
563.983	2.56
564.325	2.6
564.667	2.77
565.008	2.64
565.35	2.85
565.692	2.49
566.033	2.54
566.375	2.72
566.716	2.71
567.058	2.57
567.399	2.91
567.741	2.66
568.082	2.75
568.423	2.62
568.764	2.78
569.105	2.52
569.447	2.81
569.788	2.77
570.129	2.61
570.47	2.7
570.811	2.72
571.151	2.79
571.492	2.7
571.833	2.66
572.174	2.83
572.514	2.64
572.855	2.64
573.195	2.56
573.536	2.71
573.876	2.77
574.217	2.72
574.557	2.69
574.898	2.65
575.238	2.74
575.578	2.65
575.918	2.75
576.258	2.81
576.598	2.69
576.938	2.86
577.278	2.59
577.618	2.7
577.958	2.54
578.298	2.72
578.638	2.73
578.977	2.82
579.317	2.86
579.657	2.8
579.996	2.73
580.336	2.7
580.675	2.88
581.014	2.84
581.354	2.53
581.693	2.71
582.032	2.62
582.372	2.78
582.711	2.67
583.05	2.51
583.389	2.74
583.728	2.78
584.067	2.77
584.406	2.63
584.745	2.89
585.083	2.77
585.422	2.75
585.761	2.89
586.1	2.61
586.438	2.67
586.777	2.63
587.115	2.53
587.454	2.49
587.792	2.65
588.13	2.75
588.469	2.67
588.807	2.75
589.145	2.84
589.483	2.91
589.821	2.75
590.159	2.77
590.497	2.82
590.835	2.76
591.173	2.97
591.511	2.68
591.849	2.72
592.187	2.85
592.524	2.59
592.862	2.67
593.2	2.92
593.537	2.82
593.875	2.84
594.212	2.69
594.55	2.94
594.887	2.75
595.224	2.73
595.561	2.75
595.899	2.57
596.236	2.79
596.573	2.68
596.91	2.8
597.247	2.73
597.584	2.59
597.921	2.8
598.258	2.72
598.594	2.61
598.931	2.54
599.268	2.67
599.604	2.86
599.941	2.73
600.277	2.69
600.614	2.94
600.95	2.6
601.287	2.8
601.623	3.38
601.959	2.92
602.296	2.61
602.632	2.89
602.968	2.69
603.304	2.66
603.64	3.05
603.976	3.03
604.312	2.85
604.648	2.72
604.984	2.75
605.319	2.89
605.655	2.72
605.991	2.74
606.326	2.98
606.662	2.97
606.998	2.6
607.333	2.88
607.668	2.75
608.004	2.88
608.339	2.82
608.674	2.73
609.01	3.09
609.345	2.57
609.68	2.75
610.015	2.9
610.35	2.75
610.685	2.88
611.02	2.63
611.355	2.86
611.689	2.68
612.024	2.57
612.359	2.82
612.694	2.61
613.028	2.75
613.363	3.03
613.697	2.98
614.032	2.67
614.366	2.82
614.7	2.73
615.035	2.67
615.369	2.59
615.703	2.88
616.037	3.09
616.371	2.81
616.705	2.97
617.039	3.04
617.373	2.79
617.707	3
618.041	3.04
618.375	2.84
618.709	3.28
619.042	3.04
619.376	2.67
619.71	3.25
620.043	3
620.377	2.91
620.71	3.03
621.043	2.68
621.377	2.85
621.71	2.91
622.043	2.96
622.376	2.91
622.709	2.39
623.043	2.98
623.376	2.85
623.709	2.93
624.041	3.11
624.374	2.74
624.707	3.1
625.04	2.73
625.373	2.65
625.705	2.95
626.038	3.05
626.37	2.86
626.703	2.88
627.035	2.73
627.368	2.6
627.7	2.59
628.032	2.73
628.365	3.13
628.697	2.88
629.029	2.76
629.361	2.89
629.693	2.88
630.025	2.88
630.357	2.79
630.689	2.55
631.021	2.9
631.353	3.12
631.684	2.85
632.016	2.85
632.348	3.24
632.679	2.77
633.011	3.2
633.342	3.23
633.674	2.74
634.005	2.68
634.336	2.99
634.668	2.95
634.999	3.21
635.33	2.89
635.661	3.16
635.992	2.94
636.323	2.71
636.654	3.24
636.985	2.99
637.316	2.91
637.647	3.28
637.977	3.06
638.308	3.19
638.639	3.18
638.969	2.77
639.3	3.35
639.63	3.11
639.961	2.84
640.291	3.13
640.622	3.52
640.952	2.89
641.282	2.65
641.612	2.85
641.943	3.43
642.273	2.91
642.603	2.94
642.933	3.17
643.263	2.87
643.592	2.84
643.922	3.28
644.252	3.06
644.582	2.58
644.911	2.7
645.241	3.15
645.571	3.06
645.9	2.98
646.23	3.01
646.559	3.01
646.888	3
647.218	3.2
647.547	2.95
647.876	2.9
648.205	3.01
648.534	2.68
648.863	2.76
649.192	2.71
649.521	2.81
649.85	2.75
650.179	2.54
650.508	2.95
650.837	3.5
651.165	2.8
651.494	3.17
651.822	2.86
652.151	2.47
652.479	2.73
652.808	2.68
653.136	2.81
653.465	3.38
653.793	3.41
654.121	2.75
654.449	2.52
654.777	3.84
655.105	2.88
655.433	2.95
655.761	3.22
656.089	3.11
656.417	2.85
656.745	2.85
657.073	2.75
657.4	2.91
657.728	2.9
658.056	3.26
658.383	2.67
658.711	2.55
659.038	3.12
659.365	3.06
659.693	3.14
660.02	3.55
660.347	3.04
660.674	3.06
661.001	3.2
661.329	2.93
661.656	3.17
661.982	3.37
662.309	2.85
662.636	3.48
662.963	3.13
663.29	3.09
663.616	3.08
663.943	3.06
664.27	3.26
664.596	3.11
664.923	2.96
665.249	3.6
665.576	3.5
665.902	3.43
666.228	3
666.554	3.19
666.881	2.89
667.207	3.16
667.533	3.33
667.859	3.37
668.185	3.68
668.511	2.7
668.837	3.11
669.162	3.33
669.488	3.21
669.814	2.97
670.139	3.28
670.465	3.26
670.791	3.02
671.116	2.79
671.442	2.83
671.767	3.57
672.092	3.25
672.418	3.1
672.743	2.99
673.068	3.28
673.393	3.77
673.718	3.05
674.043	3.06
674.368	3.58
674.693	2.92
675.018	3.37
675.343	3.59
675.667	3.06
675.992	4.16
676.317	3.01
676.641	2.91
676.966	3.47
677.29	3
677.615	3.24
677.939	3.11
678.264	2.86
678.588	3.05
678.912	3.23
679.236	3.4
679.56	2.88
679.885	3.17
680.209	3.23
680.532	3.88
680.856	3.75
681.18	3.03
681.504	3.14
681.828	3.69
682.152	3.02
682.475	3.02
682.799	3.08
683.122	3.09
683.446	3.7
683.769	3.67
684.093	3.25
684.416	3.23
684.739	3.79
685.062	3.23
685.386	3.32
685.709	3.44
686.032	3.34
686.355	2.98
686.678	3.9
687.001	3
687.324	2.43
687.646	2.99
687.969	3.41
688.292	4.39
688.614	3.01
688.937	3.11
689.26	2.37
689.582	3.28
689.904	2.97
690.227	3.3
690.549	3.66
690.871	2.61
691.194	2.94
691.516	2.41
691.838	3.57
692.16	3.4
692.482	3.1
692.804	2.74
693.126	3.02
693.448	2.61
693.769	2.85
694.091	3.6
694.413	3.75
694.735	2.89
695.056	3.19
695.378	4.31
695.699	3.12
696.021	3.27
696.342	2.69
696.663	3.3
696.984	4.19
697.306	3.13
697.627	3.3
697.948	3.44
698.269	3.74
698.59	3.06
698.911	3.01
699.232	3.18
699.553	4.07
699.873	3.56
700.194	3.24
700.515	3.22
700.835	3.34
701.156	3.47
701.477	3.04
701.797	3.18
702.117	3.99
702.438	3.47
702.758	3.53
703.078	3.64
703.398	4.25
703.719	3.45
704.039	3.66
704.359	3.2
704.679	4.37
704.999	3.14
705.319	2.94
705.638	3.46
705.958	3.31
706.278	2.96
706.597	4.08
706.917	4.01
707.237	3.6
707.556	3.14
707.876	2.88
708.195	3.18
708.514	3.35
708.834	3.9
709.153	3.83
709.472	3.29
709.791	4.14
710.11	2.66
710.429	4.46
710.748	3.59
711.067	3.76
711.386	2.94
711.705	3.92
712.023	4.66
712.342	2.95
712.661	2.82
712.979	3.18
713.298	3.76
713.616	2.98
713.935	3.58
714.253	4.4
714.572	2.6
714.89	3.6
715.208	3.46
715.526	3.15
715.844	2.87
716.162	4.2
716.48	3.56
716.798	3.52
717.116	3.81
717.434	4.02
717.752	2.63
718.069	4.65
718.387	4.27
718.705	4.23
719.022	3.91
719.34	3.24
719.657	3.4
719.975	3.35
720.292	3.81
720.609	2.91
720.927	3.54
721.244	3.56
721.561	4.94
721.878	4.17
722.195	2.66
722.512	3.76
722.829	4.1
723.146	3.58
723.463	2.93
723.779	3.48
724.096	4.54
724.413	3.76
724.729	2.54
725.046	3.67
725.362	4.72
725.679	5.66
725.995	3.08
726.311	3.57
726.628	1.73
726.944	4.3
727.26	3.16
727.576	3.42
727.892	3.87
728.208	4.33
728.524	3.79
728.84	5.24
729.156	3.81
729.472	3.99
729.787	3.31
730.103	3.08
730.419	4.47
730.734	3.19
731.05	4.53
731.365	4.23
731.681	4.27
731.996	3.75
732.311	2.32
732.626	2.81
732.942	4.09
733.257	3.61
733.572	4.12
733.887	3.01
734.202	3.96
734.517	4.39
734.832	5.02
735.146	2.85
735.461	2.55
735.776	5.21
736.091	3.88
736.405	3.78
736.72	4.45
737.034	2.59
737.349	3.81
737.663	3.9
737.977	4.11
738.292	4.16
738.606	3.13
738.92	5.77
739.234	2.72
739.548	3.25
739.862	4.44
740.176	3.78
740.49	2.18
740.804	4.06
741.117	4.02
741.431	2.48
741.745	3.68
742.058	4.34
742.372	2.7
742.685	4.06
742.999	2.47
743.312	3.85
743.626	3.86
743.939	5.61
744.252	0.92
744.565	3.3
744.878	3.65
745.191	5.77
745.505	3.53
745.817	4.18
746.13	4.46
746.443	5.31
746.756	2.62
747.069	2.54
747.381	4.19
747.694	4.39
748.007	3.93
748.319	4.48
748.632	3.55
748.944	3.23
749.256	6.51
749.569	3.6
749.881	3.42
750.193	4.22
750.505	4.81
750.817	4.89
751.129	5.81
751.441	4.16
751.753	2.93
752.065	4.77
752.377	3.26
752.689	4.72
753	4.33
753.312	1.4
753.624	2.81
753.935	4.91
754.247	3
754.558	3.19
754.869	4.95
755.181	1.96
755.492	3.82
755.803	1.35
756.114	3.4
756.425	4.79
756.736	4.13
757.047	3.48
757.358	2.74
757.669	4.99
757.98	4.09
758.291	2.25
758.601	5.42
758.912	4.56
759.223	5.02
759.533	3.6
759.844	2.49
760.154	4.52
760.464	4.84
760.775	3.17
761.085	3.18
761.395	2.19
761.705	4.07
762.016	3.88
762.326	3.65
762.636	1.81
762.945	3.67
763.255	5.02
763.565	1.65
763.875	4.68
764.185	5.54
764.494	2.94
764.804	3.23
765.113	4.16
765.423	3.71
765.732	4.39
766.042	5.15
766.351	4.6
766.66	3.3
766.97	3.08
767.279	2.85
767.588	2.98
767.897	3.77
768.206	4.37
768.515	3.67
768.824	3.63
769.133	4.28
769.441	3.85
769.75	6.48
770.059	4.1
770.367	2.6
770.676	4.51
770.984	4.59
771.293	2.85
771.601	4.82
771.91	6.16
772.218	2.82
772.526	2.73
772.834	1.36
773.142	3.36
773.45	2.75
773.758	5.23
774.066	7.19
774.374	3.38
774.682	1.84
774.99	4.58
775.298	4.77
775.605	4.74
775.913	4.65
776.22	5.51
776.528	7.58
776.835	4.9
777.143	4.65
777.45	1.97
777.757	5.78
778.065	-2.33
778.372	1.26
778.679	8.49
778.986	2.87
779.293	5.02
779.6	6.51
779.907	5.76
780.214	2.18
780.52	3.96
780.827	5.92
781.134	4.07
781.44	4.04
781.747	3.68
782.053	6.23
782.36	8.01
782.666	5.15
782.973	2.51
783.279	3.78
783.585	6.93
783.891	5.24
784.197	3.74
784.503	4.37
784.809	1.9
785.115	2.85
785.421	2.33
785.727	6.63
786.033	2.98
786.339	3.09
786.644	4.09
786.95	1.03
787.255	3.58
787.561	4.62
787.866	2.74
788.172	5.45
788.477	7.02
788.782	9.63
789.088	6.95
789.393	3.85
789.698	5.45
790.003	7.83
790.308	3.28
790.613	5.25
790.918	4.45
791.223	4.69
791.527	0.47
791.832	0.65
792.137	4
792.441	0.39
792.746	-1.18
793.05	2.76
793.355	4.35
793.659	7.08
793.963	1.13
794.268	4.26
794.572	2.36
794.876	0.89
795.18	5.38
795.484	5
795.788	-2.27
796.092	2.56
796.396	5.32
796.7	0.68
797.004	5.64
797.307	7.31
797.611	6.11
797.915	6.61
798.218	2.59
798.522	5.23
798.825	4.23
799.128	3.52
799.432	-0.43
799.735	1.42
800.038	10.06
800.341	3.39
800.644	3.47
800.947	1.84
801.25	4.92
801.553	8.07
801.856	9.26
802.159	2.02
802.462	2.94
802.764	1.75
803.067	4.04
803.37	5.57
803.672	4.18
803.975	2.9
804.277	1.33
804.579	8.73
804.882	3.16
805.184	2.77
805.486	6.39
805.788	5.69
806.09	1.33
806.392	3.01
806.694	5.49
806.996	4.48
807.298	1.46
807.6	1.98
807.902	5.45
808.203	1.81
808.505	3
808.807	3.44
809.108	6.52
809.409	9.71
809.711	8.11
810.012	7.76
810.313	12.03
810.615	2.21
810.916	4.48
811.217	9.66
811.518	3.21
811.819	12.87
812.12	5.29
812.421	6.64
812.722	3.49
813.023	1.83
813.323	-0.68
813.624	1.56
813.925	7.04
814.225	1.23
814.526	1.09
814.826	-3.71
815.126	-2.31
815.427	9.81
815.727	5.71
816.027	7.86
816.327	2.88
816.627	15.34
816.927	4.98
817.227	5.83
817.527	1.65
817.827	7.75
818.127	5.2
818.427	6.08
818.727	3.6
819.026	10.14
819.326	3.07
819.625	2.42
819.925	7.03
820.224	-1.89
820.524	5.3
820.823	9.72
821.122	3.19
821.421	3.68
821.72	7.22
822.019	0.49
822.318	5.12
822.617	2.35
822.916	4.41
823.215	3.44
823.514	4.68
823.813	5.34
824.111	3.38
824.41	5.42
824.709	5.57
825.007	4.73
825.306	4.23
825.604	5.35
825.902	4.45
826.201	3.8
826.499	3
826.797	4.24
827.095	6.28
827.393	4.44
827.691	4.36
827.989	4.65
828.287	4.95
828.585	6.84
828.882	1.29
829.18	3.53
829.478	5.49
829.775	4.58
830.073	5.52
830.37	6.96
830.668	2.03
830.965	5.94
831.263	5.43
831.56	6.57
831.857	7.74
832.154	2.7
832.451	1.1
832.748	2.19
833.045	4.48
833.342	6.48
833.639	5.82
833.936	-2.86
834.232	4.33
834.529	1.96
834.826	1.28
835.122	-0.13
835.419	7.67
835.715	3.3
836.012	7.58
836.308	2.17
836.604	5.33
836.901	6.26
837.197	6.07
837.493	2.77
837.789	3.42
838.085	2.78
838.381	8.42
838.677	2.68
838.972	0.61
839.268	5.44
839.564	8.24
839.86	1.27
840.155	2.75
840.451	-4.51
840.746	7.2
841.042	0.47
841.337	10.93
841.632	2.39
841.928	-1.58
842.223	7.52
842.518	-0.2
842.813	2.01
843.108	5.32
843.403	0.06
843.698	4.38
843.993	2.08
844.287	3.44
844.582	0.25
844.877	2.77
845.171	9.23
845.466	8.32
845.761	-2.97
846.055	-3
846.349	-7.03
846.644	8.96
846.938	16.58
847.232	0.32
847.526	4.7
847.82	-2.29
848.114	-2.42
848.408	-2.24
848.702	3.71
848.996	-3.33
849.29	-0.26
849.584	8.07
849.877	-2.78
850.171	0.29
850.465	15.79
850.758	-16.9
851.052	10.52
851.345	7.23
851.638	17.54
851.932	2.97
852.225	2.81
852.518	-9.56
852.811	9.66
853.104	12.37
853.397	-16.06
853.69	11.2
853.983	-1.04
854.276	-4.35
854.569	12.28
854.861	5.66
855.154	7.77
855.447	13.53
855.739	1.57
856.032	-1.31
856.324	7.45
856.616	3.77
856.909	-15.5
857.201	10.68
857.493	24.16
857.785	3.09
858.077	14.05
858.369	23.46
858.661	1.82
858.953	14.39
859.245	9.8
859.537	-1.47
859.829	15.7
860.12	2.11
860.412	1.55
860.703	2.01
860.995	7.54
861.286	-8.21
861.578	9.88
861.869	-0.84
862.16	-4.18
862.452	-0.69
862.743	10.71
863.034	-23.79
863.325	12.66
863.616	-0.49
863.907	2.99
864.198	-37.58
864.488	1.78
864.779	26.12
865.07	-19.86
865.36	5.64
865.651	-2.78
865.941	20.16
866.232	8.75
866.522	4.67
866.813	0.85
867.103	7.18
867.393	11.74
867.683	-2.32
867.973	8.25
868.263	9.03
868.553	-7.76
868.843	11.57
869.133	3.57
869.423	-6.51
869.713	5.07
870.002	-37.63
870.292	-24.68
870.582	15.21
870.871	-3.12
871.161	14.04
871.45	20.32
871.739	-4.81
872.029	12.19
872.318	-46.58
872.607	-3.47
872.896	10.85
873.185	19.47
873.474	7.89
873.763	-5.7
874.052	-1.27
874.341	5.49
874.63	-9.06
874.918	18.3
875.207	-21.14
875.496	-8.3
875.784	-18.35
876.073	-28.76
876.361	19.24
876.649	22.77
876.938	-5.04
877.226	-3
877.514	-0.03
877.802	0.21
878.09	22.6
878.378	12.81
878.666	2.54
878.954	-22.71
879.242	14.53
879.53	-21.87
879.817	5.79
880.105	-0.97
880.392	7.25
880.68	-18.19
880.967	4.49
881.255	13.04
881.542	-41.56
881.83	-2.34
882.117	-6.59
882.404	12.87
882.691	30.02
882.978	5.45
883.265	-9.93
883.552	14.68
883.839	-6.08
884.126	-5.58
884.413	2.45
884.699	4.66
884.986	5.98
885.273	7.38
885.559	7.38
885.846	7.38
