Data from 20-1_forehead_Reflection__3__73.txt Node

Date: Fri Nov 11 20:43:52 CST 2022
User: ToomeyLab
Spectrometer: FLMS14357
Trigger mode: 0
Integration Time (sec): 1.000000E-2
Scans to average: 100
Electric dark correction enabled: true
Nonlinearity correction enabled: false
Boxcar width: 0
XAxis mode: Wavelengths
Number of Pixels in Spectrum: 2048
>>>>>Begin Spectral Data<<<<<
189.047	-111.57
189.435	-111.57
189.823	-111.57
190.211	1074.46
190.599	-200.73
190.987	429.23
191.375	69.45
191.763	-21.36
192.151	-155.09
192.538	5.54
192.926	-65.78
193.314	142.66
193.702	-18.17
194.089	-214.9
194.477	66.83
194.864	202.65
195.252	76.85
195.639	1984.72
196.027	-316.25
196.414	92.23
196.801	-24300
197.189	136.93
197.576	-8.06
197.963	-26.11
198.351	2.57
198.738	-11.63
199.125	33.01
199.512	34.81
199.899	22.42
200.286	54.57
200.673	42.82
201.06	36.39
201.447	37.06
201.833	48.97
202.22	6.38
202.607	18.24
202.994	33.47
203.38	39.57
203.767	58.02
204.154	38.27
204.54	32.32
204.927	10.1
205.313	16.37
205.699	-25.76
206.086	37.05
206.472	47.9
206.858	27.16
207.245	46.31
207.631	30.26
208.017	20.53
208.403	41.48
208.789	9.77
209.175	39.76
209.561	52.66
209.947	17.15
210.333	5.27
210.719	2.7
211.105	63.94
211.491	3.6
211.876	-2.91
212.262	34.2
212.648	18.61
213.034	45.4
213.419	-7.38
213.805	6.56
214.19	-8.13
214.576	37.05
214.961	20.52
215.346	1.73
215.732	-12.37
216.117	8.88
216.502	18
216.888	-3.67
217.273	17.47
217.658	-4.64
218.043	9.69
218.428	16.24
218.813	22.28
219.198	9.5
219.583	19.97
219.968	15.13
220.353	-7.71
220.738	-8.74
221.122	10.41
221.507	-22.25
221.892	7.65
222.276	17.75
222.661	20.36
223.046	2.14
223.43	1.94
223.815	8.95
224.199	11.53
224.583	7.29
224.968	-8.2
225.352	9.15
225.736	4.92
226.121	2.19
226.505	8.39
226.889	3.14
227.273	11.05
227.657	5.71
228.041	1.75
228.425	1.38
228.809	3.24
229.193	6.68
229.577	5.72
229.961	4.52
230.344	3.96
230.728	3.24
231.112	2.49
231.495	3.89
231.879	3.63
232.263	3.13
232.646	1.44
233.03	4.55
233.413	3.22
233.797	3.91
234.18	4.22
234.563	4.01
234.946	4.33
235.33	4.27
235.713	3.3
236.096	3.05
236.479	3.89
236.862	5.32
237.245	3.99
237.628	4.05
238.011	3.94
238.394	4.99
238.777	5.93
239.16	4.55
239.543	4.57
239.925	5.23
240.308	3.83
240.691	4.08
241.073	2.87
241.456	3.25
241.838	5.44
242.221	3.73
242.603	4.85
242.986	4.02
243.368	3.84
243.75	4.2
244.133	4.36
244.515	4.09
244.897	4.62
245.279	4
245.661	4.74
246.043	4.72
246.425	5.31
246.807	4.12
247.189	4.2
247.571	4.87
247.953	4.38
248.335	4.67
248.717	4.4
249.098	4.54
249.48	4.36
249.862	4.76
250.243	4.54
250.625	4.95
251.006	5.69
251.388	5.24
251.769	5.11
252.151	5.84
252.532	4.76
252.913	5.24
253.295	4.61
253.676	4.26
254.057	4.47
254.438	4.99
254.819	4.65
255.2	5.61
255.581	5.16
255.962	5.9
256.343	5.52
256.724	4.56
257.105	4.79
257.486	5.75
257.867	5.24
258.247	4.25
258.628	4.71
259.009	5.12
259.389	4.71
259.77	5.81
260.15	4.83
260.531	4.57
260.911	4.72
261.292	4.69
261.672	4.4
262.052	4.66
262.432	4.71
262.813	4.79
263.193	4.52
263.573	4.29
263.953	4.76
264.333	4.69
264.713	4.85
265.093	4.95
265.473	4.73
265.853	4.24
266.233	4.65
266.612	4.05
266.992	5.16
267.372	5.29
267.752	5
268.131	4.39
268.511	4.55
268.89	4.79
269.27	4.25
269.649	4.4
270.029	5.14
270.408	4.65
270.787	4.67
271.167	4.21
271.546	3.86
271.925	4.47
272.304	4.61
272.683	4.63
273.062	3.96
273.441	4.41
273.82	4.16
274.199	4.03
274.578	4.49
274.957	4.47
275.336	4.35
275.715	4.78
276.093	4.01
276.472	4.37
276.851	4.43
277.229	4.34
277.608	4.33
277.986	4.62
278.365	4.19
278.743	4.45
279.122	4.75
279.5	4.24
279.878	4.71
280.257	4.75
280.635	4.75
281.013	4.54
281.391	4.22
281.769	3.91
282.147	4.08
282.525	4.08
282.903	4.21
283.281	4.54
283.659	4.56
284.037	4.77
284.415	4.14
284.792	4.07
285.17	4.74
285.548	3.95
285.925	3.85
286.303	3.91
286.68	4.84
287.058	4.48
287.435	4.33
287.813	4.58
288.19	4.27
288.567	4.56
288.945	4.49
289.322	5.39
289.699	4.3
290.076	4.89
290.453	4.88
290.83	4.73
291.207	5.08
291.584	4.78
291.961	4.97
292.338	5.03
292.715	5.12
293.092	5.07
293.469	5.06
293.845	5.37
294.222	5.07
294.599	5.75
294.975	5.29
295.352	5.58
295.728	5.18
296.105	5.52
296.481	4.98
296.858	5.6
297.234	5.93
297.61	5.01
297.986	5.82
298.363	5.56
298.739	5.68
299.115	5.95
299.491	6.03
299.867	5.89
300.243	5.41
300.619	5.91
300.995	5.93
301.371	6.38
301.746	6.44
302.122	6.49
302.498	6.56
302.874	6.13
303.249	6.23
303.625	6.22
304	6.5
304.376	6.41
304.751	6.47
305.127	6.99
305.502	6.9
305.878	6.91
306.253	6.76
306.628	7.17
307.003	7.23
307.378	7.49
307.754	7.63
308.129	6.88
308.504	7.49
308.879	7.48
309.254	8.05
309.629	7.58
310.003	7.33
310.378	7.72
310.753	7.96
311.128	7.86
311.502	8.32
311.877	7.93
312.252	7.76
312.626	7.98
313.001	8.13
313.375	8.28
313.75	8.16
314.124	7.8
314.498	8.13
314.873	8.59
315.247	8.94
315.621	8.68
315.995	9.03
316.369	8.83
316.743	8.84
317.117	9.21
317.491	9.12
317.865	8.73
318.239	9.92
318.613	9.62
318.987	9.38
319.361	9.47
319.734	9.71
320.108	9.77
320.482	9.93
320.855	9.54
321.229	10.17
321.602	9.83
321.976	9.88
322.349	10.88
322.723	10.59
323.096	10.09
323.469	10.28
323.843	10.34
324.216	10.36
324.589	10.78
324.962	10.48
325.335	10.34
325.708	11.16
326.081	11.18
326.454	10.41
326.827	10.2
327.2	11.21
327.573	11.85
327.945	11.38
328.318	10.92
328.691	11.04
329.063	11.58
329.436	11.05
329.809	11.27
330.181	10.9
330.553	11.03
330.926	11.43
331.298	11.83
331.671	11.69
332.043	11.04
332.415	11.72
332.787	11.98
333.159	11.7
333.532	11.98
333.904	12.41
334.276	11.83
334.648	11.79
335.02	12.17
335.391	12.56
335.763	12.94
336.135	12.16
336.507	12.38
336.879	12.67
337.25	12.5
337.622	12.43
337.993	12.37
338.365	12.71
338.736	12.46
339.108	12.54
339.479	12.35
339.851	12.77
340.222	12.2
340.593	13.35
340.964	12.32
341.336	13.07
341.707	12.3
342.078	12.29
342.449	12.96
342.82	13.1
343.191	13.05
343.562	12.96
343.933	12.69
344.303	12.74
344.674	13.52
345.045	13.41
345.416	13.17
345.786	12.82
346.157	12.98
346.527	13.67
346.898	12.98
347.268	13.25
347.639	13.42
348.009	13.07
348.38	13.68
348.75	13.53
349.12	13.94
349.49	13.66
349.861	13.6
350.231	13.78
350.601	13.84
350.971	13.56
351.341	13.86
351.711	13.63
352.081	14.12
352.45	14.2
352.82	13.98
353.19	14.28
353.56	14.35
353.929	14.24
354.299	13.96
354.669	14.52
355.038	14.04
355.408	14.58
355.777	14.52
356.147	14.45
356.516	14.58
356.885	14.76
357.254	14.42
357.624	14.2
357.993	14.58
358.362	14.7
358.731	14.29
359.1	14.77
359.469	14.19
359.838	14.61
360.207	14.77
360.576	14.84
360.945	15.05
361.314	14.54
361.682	14.54
362.051	15
362.42	14.87
362.788	14.94
363.157	14.96
363.525	14.71
363.894	14.81
364.262	15.4
364.631	15.03
364.999	15.39
365.367	15.13
365.735	15.15
366.104	15.04
366.472	15.35
366.84	14.9
367.208	15.36
367.576	15.4
367.944	15.81
368.312	15.61
368.68	15.71
369.048	15.75
369.416	15.59
369.783	15.9
370.151	15.67
370.519	15.63
370.886	15.97
371.254	15.8
371.621	15.68
371.989	15.78
372.356	16.06
372.724	16.42
373.091	16.03
373.458	15.89
373.826	15.84
374.193	15.49
374.56	16.03
374.927	16.01
375.294	16.37
375.661	16.5
376.028	16.05
376.395	16.51
376.762	16.65
377.129	16.23
377.496	16.4
377.863	16.48
378.229	16.38
378.596	16.19
378.963	16.46
379.329	16.67
379.696	16.51
380.062	16.41
380.429	16.72
380.795	16.93
381.161	16.84
381.528	16.72
381.894	17
382.26	17.19
382.626	17.11
382.993	16.93
383.359	17.08
383.725	16.87
384.091	17.18
384.457	17.31
384.823	16.94
385.188	17.24
385.554	17.13
385.92	17.03
386.286	17.27
386.651	17.38
387.017	17.02
387.383	17.28
387.748	17.26
388.114	17.25
388.479	17.12
388.845	17.32
389.21	17.24
389.575	17.51
389.94	17.56
390.306	17.29
390.671	17.75
391.036	17.71
391.401	17.62
391.766	17.98
392.131	17.57
392.496	17.91
392.861	17.76
393.226	17.79
393.591	17.71
393.956	17.91
394.32	17.99
394.685	17.83
395.05	17.9
395.414	18.21
395.779	17.86
396.143	17.94
396.508	18.33
396.872	18.11
397.236	18.05
397.601	18.36
397.965	18.14
398.329	18.27
398.694	18.62
399.058	18.51
399.422	18.43
399.786	18.36
400.15	18.7
400.514	18.67
400.878	18.42
401.242	18.11
401.605	18.47
401.969	18.73
402.333	18.75
402.697	18.86
403.06	18.73
403.424	18.64
403.787	18.84
404.151	18.76
404.514	18.61
404.878	18.55
405.241	18.58
405.604	18.74
405.968	18.75
406.331	18.41
406.694	18.79
407.057	18.88
407.42	18.75
407.783	18.97
408.146	18.91
408.509	19.12
408.872	19.27
409.235	19.22
409.598	19.22
409.961	19.35
410.323	19.08
410.686	19.25
411.049	18.87
411.411	19.25
411.774	19.24
412.136	19.06
412.499	19.22
412.861	19.15
413.223	19.26
413.586	19.29
413.948	19.73
414.31	19.51
414.672	19.25
415.035	19.65
415.397	19.47
415.759	19.34
416.121	19.44
416.483	19.45
416.845	19.46
417.206	19.34
417.568	19.49
417.93	19.5
418.292	19.21
418.653	19.57
419.015	19.67
419.377	19.58
419.738	19.59
420.1	19.65
420.461	19.63
420.822	19.55
421.184	19.41
421.545	19.56
421.906	19.65
422.267	19.41
422.629	19.47
422.99	19.55
423.351	19.51
423.712	19.7
424.073	19.83
424.434	19.91
424.795	20
425.155	19.8
425.516	19.81
425.877	19.83
426.238	20
426.598	19.92
426.959	19.98
427.32	20.16
427.68	20.18
428.041	20.46
428.401	20.27
428.761	20.54
429.122	20.38
429.482	20.6
429.842	20.55
430.202	20.44
430.563	20.7
430.923	20.76
431.283	20.53
431.643	20.84
432.003	20.81
432.363	20.8
432.722	20.99
433.082	20.86
433.442	20.99
433.802	20.98
434.161	20.82
434.521	21.17
434.881	20.99
435.24	20.89
435.6	21.05
435.959	21.16
436.319	21
436.678	21.05
437.037	21.37
437.396	21.22
437.756	21.27
438.115	21.16
438.474	21.37
438.833	21.44
439.192	21.68
439.551	21.56
439.91	21.47
440.269	21.36
440.628	21.46
440.987	21.47
441.345	21.38
441.704	21.52
442.063	21.66
442.421	21.47
442.78	21.39
443.138	21.55
443.497	21.51
443.855	21.64
444.214	21.74
444.572	21.74
444.93	21.81
445.288	21.85
445.647	21.92
446.005	21.82
446.363	21.91
446.721	21.94
447.079	21.95
447.437	21.78
447.795	21.67
448.153	21.68
448.51	21.75
448.868	21.78
449.226	21.81
449.584	21.9
449.941	21.99
450.299	22.14
450.656	22.38
451.014	22.3
451.371	22.31
451.729	22.25
452.086	22.47
452.443	22.39
452.801	22.54
453.158	22.39
453.515	22.51
453.872	22.53
454.229	22.67
454.586	22.63
454.943	22.72
455.3	22.81
455.657	22.88
456.014	23.05
456.371	23.11
456.727	22.93
457.084	22.84
457.441	23.21
457.797	23.04
458.154	22.88
458.51	23.1
458.867	22.96
459.223	23.21
459.58	23.17
459.936	23.19
460.292	23.16
460.648	23.12
461.005	23
461.361	22.99
461.717	22.76
462.073	22.99
462.429	22.95
462.785	23.26
463.141	23.27
463.496	23.3
463.852	23.32
464.208	23.48
464.564	23.38
464.919	23.51
465.275	23.69
465.631	23.7
465.986	23.79
466.342	23.71
466.697	23.63
467.052	23.82
467.408	23.78
467.763	23.82
468.118	23.88
468.473	23.95
468.829	23.65
469.184	23.67
469.539	23.99
469.894	24
470.249	24.02
470.603	23.72
470.958	23.92
471.313	24.23
471.668	24.09
472.023	24.03
472.377	24.16
472.732	24.35
473.086	24.09
473.441	24.11
473.795	24.45
474.15	24.2
474.504	24.46
474.859	24.49
475.213	24.38
475.567	24.32
475.921	24.54
476.275	24.6
476.63	24.49
476.984	24.6
477.338	24.57
477.692	24.61
478.045	24.48
478.399	24.63
478.753	24.73
479.107	24.63
479.461	24.55
479.814	24.62
480.168	24.68
480.521	24.68
480.875	24.64
481.228	24.76
481.582	24.75
481.935	24.75
482.289	24.55
482.642	24.78
482.995	24.73
483.348	24.68
483.701	24.57
484.055	24.53
484.408	24.46
484.761	24.12
485.114	23.84
485.466	23.83
485.819	23.97
486.172	24.08
486.525	24.25
486.878	24.36
487.23	24.42
487.583	24.48
487.936	24.58
488.288	24.47
488.641	24.26
488.993	24.32
489.345	24.33
489.698	24.43
490.05	24.6
490.402	24.59
490.754	24.72
491.107	24.76
491.459	25.01
491.811	25.17
492.163	25.25
492.515	25.13
492.866	24.86
493.218	24.65
493.57	24.72
493.922	24.88
494.274	24.92
494.625	25.24
494.977	25.39
495.328	25.49
495.68	25.74
496.031	25.68
496.383	25.93
496.734	25.9
497.086	25.99
497.437	25.84
497.788	25.73
498.139	25.93
498.49	25.71
498.842	25.73
499.193	25.84
499.544	26.12
499.894	26.06
500.245	25.94
500.596	26.01
500.947	26.08
501.298	26.28
501.648	26.25
501.999	26.44
502.35	26.38
502.7	26.4
503.051	26.33
503.401	26.33
503.752	26.43
504.102	26.37
504.452	26.56
504.803	26.54
505.153	26.5
505.503	26.52
505.853	26.45
506.203	26.54
506.553	26.56
506.903	26.61
507.253	26.78
507.603	26.72
507.953	26.7
508.303	26.72
508.652	26.74
509.002	26.58
509.352	26.77
509.701	26.81
510.051	26.65
510.4	26.59
510.75	26.72
511.099	26.57
511.449	26.88
511.798	26.76
512.147	26.63
512.496	26.68
512.846	27.12
513.195	27.01
513.544	26.97
513.893	26.86
514.242	27
514.591	27.12
514.939	27.1
515.288	27.23
515.637	27.25
515.986	27.25
516.334	27.29
516.683	27.3
517.032	27.4
517.38	27.46
517.729	27.35
518.077	27.53
518.426	27.43
518.774	27.52
519.122	27.35
519.47	27.27
519.819	27.15
520.167	27.08
520.515	27.06
520.863	27.29
521.211	27.35
521.559	27.3
521.907	27.5
522.255	27.54
522.602	27.72
522.95	27.64
523.298	27.64
523.645	27.78
523.993	27.83
524.341	27.96
524.688	27.68
525.036	28.06
525.383	27.8
525.73	27.89
526.078	27.95
526.425	27.93
526.772	27.63
527.119	27.46
527.466	27.54
527.814	27.57
528.161	27.63
528.508	27.67
528.854	27.68
529.201	27.66
529.548	27.47
529.895	27.1
530.242	27.19
530.588	27.27
530.935	27.46
531.282	27.44
531.628	27.49
531.975	27.79
532.321	27.65
532.667	27.88
533.014	28.05
533.36	28.01
533.706	28.25
534.052	28.03
534.399	27.94
534.745	27.65
535.091	27.69
535.437	27.86
535.783	28
536.129	28.02
536.474	28.25
536.82	28.28
537.166	28.42
537.512	28.46
537.857	28.5
538.203	28.21
538.549	28.38
538.894	28.31
539.239	28.45
539.585	28.67
539.93	28.74
540.276	28.87
540.621	28.93
540.966	28.97
541.311	28.81
541.656	28.94
542.001	28.73
542.346	28.69
542.691	28.19
543.036	28.15
543.381	28.36
543.726	28.33
544.071	28.45
544.415	28.58
544.76	28.67
545.105	28.62
545.449	28.74
545.794	28.94
546.138	28.95
546.483	29.14
546.827	29.1
547.171	29.15
547.516	29.06
547.86	29.15
548.204	29.28
548.548	29.08
548.892	29.09
549.236	29.22
549.58	29.41
549.924	29.51
550.268	29.74
550.612	29.72
550.956	29.74
551.3	29.68
551.643	29.76
551.987	29.93
552.33	29.98
552.674	29.92
553.017	30.23
553.361	30.01
553.704	30.15
554.048	30.01
554.391	29.94
554.734	29.94
555.077	29.98
555.42	30.04
555.764	30.07
556.107	30.2
556.45	30.3
556.793	30.32
557.135	30.13
557.478	30.26
557.821	30.37
558.164	30.39
558.507	30.49
558.849	30.68
559.192	30.39
559.534	30.61
559.877	30.81
560.219	30.59
560.562	30.52
560.904	30.59
561.246	30.6
561.589	30.62
561.931	30.83
562.273	30.57
562.615	30.72
562.957	30.74
563.299	30.63
563.641	30.52
563.983	30.86
564.325	30.67
564.667	30.8
565.008	31
565.35	30.89
565.692	30.76
566.033	31.01
566.375	31.02
566.716	31.01
567.058	30.78
567.399	30.94
567.741	30.75
568.082	30.91
568.423	30.83
568.764	31.17
569.105	30.7
569.447	31.15
569.788	31.1
570.129	31.07
570.47	30.99
570.811	31.09
571.151	31.32
571.492	31.09
571.833	31.1
572.174	31.31
572.514	31.35
572.855	31.49
573.195	31.05
573.536	31.22
573.876	31.25
574.217	31.27
574.557	31.37
574.898	31.26
575.238	31.52
575.578	31.58
575.918	31.6
576.258	31.34
576.598	31.4
576.938	31.53
577.278	31.58
577.618	31.39
577.958	31.67
578.298	31.8
578.638	31.6
578.977	31.63
579.317	31.82
579.657	31.98
579.996	31.96
580.336	31.8
580.675	31.84
581.014	31.91
581.354	31.97
581.693	32.14
582.032	31.92
582.372	32.29
582.711	32.49
583.05	32.16
583.389	32.33
583.728	32.43
584.067	32.36
584.406	32.28
584.745	32.54
585.083	32.19
585.422	32.41
585.761	32.41
586.1	32.21
586.438	32.55
586.777	32.55
587.115	32.49
587.454	32.35
587.792	32.44
588.13	32.66
588.469	32.54
588.807	32.49
589.145	32.48
589.483	32.85
589.821	32.58
590.159	32.8
590.497	32.77
590.835	32.79
591.173	32.97
591.511	32.76
591.849	32.65
592.187	32.74
592.524	32.79
592.862	32.68
593.2	32.85
593.537	32.88
593.875	32.98
594.212	33.01
594.55	32.7
594.887	32.83
595.224	32.61
595.561	33.06
595.899	32.9
596.236	33.16
596.573	32.7
596.91	32.94
597.247	32.91
597.584	32.84
597.921	32.86
598.258	32.88
598.594	32.67
598.931	32.79
599.268	33
599.604	33.02
599.941	32.91
600.277	33.11
600.614	33.41
600.95	33.06
601.287	33.41
601.623	33.71
601.959	33.46
602.296	33.38
602.632	33.46
602.968	33.44
603.304	33.49
603.64	33.43
603.976	33.71
604.312	33.39
604.648	33.19
604.984	33.45
605.319	33.42
605.655	33.46
605.991	33.03
606.326	33.33
606.662	33.43
606.998	33.31
607.333	33.3
607.668	33.35
608.004	33.53
608.339	33.27
608.674	33.53
609.01	33.74
609.345	33.55
609.68	33.71
610.015	33.72
610.35	33.97
610.685	33.73
611.02	33.67
611.355	33.78
611.689	33.8
612.024	33.73
612.359	33.78
612.694	33.77
613.028	33.8
613.363	34.15
613.697	34.03
614.032	34.15
614.366	34.01
614.7	33.92
615.035	34.06
615.369	33.79
615.703	34.21
616.037	34.2
616.371	33.58
616.705	34.3
617.039	34.3
617.373	34.06
617.707	34.11
618.041	34.71
618.375	34.1
618.709	34.26
619.042	34.55
619.376	34.27
619.71	34.46
620.043	34.61
620.377	34.26
620.71	34.23
621.043	34.26
621.377	34.5
621.71	34.48
622.043	34.57
622.376	34.56
622.709	34.42
623.043	34.51
623.376	34.66
623.709	34.47
624.041	34.67
624.374	34.69
624.707	34.82
625.04	34.72
625.373	34.51
625.705	34.29
626.038	34.53
626.37	34.9
626.703	34.86
627.035	35.22
627.368	34.74
627.7	34.77
628.032	34.36
628.365	34.73
628.697	34.74
629.029	34.86
629.361	34.69
629.693	34.8
630.025	35.34
630.357	34.97
630.689	34.92
631.021	34.95
631.353	34.95
631.684	35.25
632.016	35.13
632.348	34.95
632.679	35.36
633.011	35.05
633.342	35.07
633.674	35.23
634.005	35.15
634.336	35.32
634.668	35.29
634.999	35.47
635.33	35.09
635.661	35.23
635.992	35.19
636.323	35.09
636.654	35.31
636.985	35.5
637.316	35.18
637.647	35.48
637.977	35.7
638.308	35.5
638.639	35.59
638.969	35.33
639.3	35.88
639.63	35.74
639.961	35.28
640.291	35.33
640.622	36.15
640.952	35.56
641.282	35.24
641.612	35.51
641.943	35.56
642.273	34.87
642.603	35.7
642.933	36.03
643.263	35.64
643.592	35.35
643.922	35.42
644.252	35.56
644.582	36.48
644.911	35.52
645.241	35.55
645.571	35.75
645.9	35.91
646.23	36.4
646.559	36.07
646.888	35.85
647.218	35.66
647.547	35.58
647.876	35.81
648.205	35.73
648.534	35.58
648.863	36.01
649.192	36.26
649.521	36.49
649.85	36.12
650.179	35.46
650.508	36.54
650.837	36.55
651.165	35.95
651.494	36.38
651.822	35.61
652.151	36.05
652.479	35.63
652.808	36.13
653.136	36.84
653.465	36.32
653.793	36.32
654.121	36.09
654.449	35.95
654.777	36.68
655.105	36.24
655.433	36.45
655.761	36.36
656.089	36.73
656.417	35.84
656.745	36.44
657.073	36.01
657.4	36.14
657.728	36.41
658.056	36.5
658.383	35.93
658.711	36.31
659.038	36.65
659.365	36.52
659.693	36.4
660.02	36.57
660.347	36.7
660.674	36.22
661.001	36.7
661.329	36.1
661.656	36.39
661.982	36.69
662.309	36.47
662.636	36.97
662.963	36.5
663.29	36.6
663.616	36.49
663.943	36.44
664.27	36.29
664.596	36.87
664.923	36.1
665.249	36.5
665.576	36.67
665.902	37.2
666.228	36.68
666.554	36.03
666.881	36.91
667.207	37.21
667.533	37.41
667.859	36.78
668.185	37.17
668.511	36.18
668.837	36.65
669.162	36.95
669.488	36.82
669.814	36.42
670.139	36.52
670.465	36.79
670.791	36.47
671.116	37.74
671.442	37.12
671.767	37.46
672.092	36.86
672.418	37.55
672.743	37.29
673.068	36.74
673.393	37.77
673.718	37.3
674.043	37.25
674.368	37.14
674.693	36.85
675.018	37.51
675.343	37.34
675.667	37.38
675.992	38.02
676.317	37.66
676.641	37.34
676.966	37.24
677.29	37.23
677.615	37.81
677.939	36.99
678.264	37.88
678.588	37.5
678.912	37.86
679.236	37.44
679.56	37.77
679.885	37.22
680.209	37.21
680.532	37.47
680.856	37.73
681.18	37.46
681.504	37.15
681.828	37.36
682.152	37.86
682.475	37.42
682.799	37.6
683.122	37.47
683.446	37.89
683.769	38.02
684.093	37.13
684.416	38.18
684.739	38.21
685.062	37.54
685.386	37.49
685.709	37.32
686.032	37.28
686.355	37.46
686.678	36.91
687.001	37.23
687.324	37.14
687.646	37.77
687.969	37.63
688.292	38.16
688.614	37.45
688.937	37.94
689.26	36.65
689.582	38.09
689.904	37.26
690.227	37.03
690.549	38.35
690.871	37.85
691.194	37.61
691.516	37.62
691.838	38.26
692.16	38.4
692.482	38.18
692.804	38.21
693.126	37.81
693.448	37.44
693.769	38.19
694.091	37.83
694.413	39.02
694.735	38.04
695.056	38.26
695.378	37.88
695.699	37.47
696.021	37.97
696.342	38.42
696.663	38.25
696.984	38.6
697.306	37.68
697.627	38.59
697.948	38.3
698.269	38.44
698.59	38.08
698.911	38.26
699.232	39.11
699.553	38.51
699.873	38.21
700.194	38.23
700.515	38.03
700.835	38.18
701.156	38.36
701.477	38.53
701.797	38.22
702.117	38.61
702.438	37.93
702.758	38.48
703.078	39.1
703.398	39.12
703.719	38.59
704.039	38.24
704.359	38.29
704.679	38.61
704.999	38.72
705.319	37.78
705.638	39.65
705.958	38.51
706.278	38.14
706.597	38.68
706.917	39.02
707.237	38.93
707.556	37.68
707.876	37.96
708.195	37.19
708.514	39.36
708.834	40.01
709.153	38.94
709.472	38.53
709.791	38.46
710.11	39.3
710.429	39.78
710.748	38.25
711.067	38.43
711.386	38.34
711.705	38.37
712.023	38.97
712.342	38.62
712.661	38.69
712.979	39.04
713.298	38.72
713.616	38.43
713.935	38.33
714.253	39.17
714.572	38.44
714.89	39.49
715.208	39.33
715.526	39.55
715.844	39.09
716.162	39.05
716.48	39.94
716.798	40.22
717.116	39.71
717.434	40.42
717.752	38.25
718.069	39.32
718.387	40.3
718.705	38.75
719.022	40.1
719.34	38.43
719.657	39.65
719.975	38.98
720.292	39.15
720.609	39.71
720.927	37.28
721.244	39.14
721.561	39.71
721.878	40.48
722.195	37.98
722.512	39.82
722.829	39.91
723.146	39.31
723.463	39.45
723.779	39.53
724.096	40.49
724.413	38.92
724.729	38.51
725.046	39.85
725.362	38.18
725.679	40.28
725.995	39.71
726.311	39.22
726.628	40.18
726.944	40.71
727.26	39.38
727.576	39.86
727.892	40.52
728.208	38.88
728.524	39.52
728.84	39.85
729.156	39.38
729.472	39.92
729.787	39.18
730.103	40.98
730.419	39.5
730.734	40.8
731.05	40.67
731.365	39.48
731.681	40.51
731.996	40.98
732.311	39.37
732.626	38.68
732.942	41.02
733.257	38.98
733.572	40.95
733.887	40.41
734.202	39.18
734.517	40.84
734.832	40.53
735.146	39.51
735.461	38.5
735.776	40.19
736.091	39.65
736.405	40.63
736.72	39.42
737.034	37.99
737.349	39.58
737.663	39.85
737.977	40.9
738.292	39.28
738.606	38.72
738.92	40.45
739.234	38.49
739.548	39.41
739.862	39.98
740.176	40.81
740.49	39.55
740.804	39.65
741.117	41.46
741.431	39.28
741.745	39.95
742.058	39.03
742.372	39.82
742.685	38.35
742.999	40.06
743.312	39.82
743.626	40.61
743.939	40.51
744.252	39.04
744.565	40.12
744.878	39.74
745.191	41.36
745.505	38.98
745.817	39.84
746.13	41.09
746.443	38.79
746.756	40.05
747.069	39.13
747.381	41.22
747.694	38.99
748.007	40.55
748.319	39.83
748.632	38.79
748.944	40.24
749.256	40.85
749.569	40.58
749.881	39.13
750.193	41.29
750.505	40.39
750.817	41.12
751.129	39.58
751.441	40.06
751.753	40.96
752.065	41.02
752.377	39.28
752.689	40.66
753	38.92
753.312	40.51
753.624	40.81
753.935	39.51
754.247	39.85
754.558	40.58
754.869	41.6
755.181	40.09
755.492	40.05
755.803	41.03
756.114	41.49
756.425	40.25
756.736	41.06
757.047	39.47
757.358	40.74
757.669	40.85
757.98	40.72
758.291	39.87
758.601	40.09
758.912	42.17
759.223	40.98
759.533	41.83
759.844	39.45
760.154	42.3
760.464	40.48
760.775	39.13
761.085	41.33
761.395	40.76
761.705	40.72
762.016	40.57
762.326	40.69
762.636	40.04
762.945	40.25
763.255	41.61
763.565	40.95
763.875	42.04
764.185	41.8
764.494	40.88
764.804	40.88
765.113	41.14
765.423	39.67
765.732	41.56
766.042	41.44
766.351	42.49
766.66	40.09
766.97	41.69
767.279	41.61
767.588	40.75
767.897	40.68
768.206	40.65
768.515	40.46
768.824	40.02
769.133	41.21
769.441	41.59
769.75	43.53
770.059	40.9
770.367	41.18
770.676	41.69
770.984	42.36
771.293	39.22
771.601	41.28
771.91	39.52
772.218	41.65
772.526	40.24
772.834	41.02
773.142	41.06
773.45	40.17
773.758	42.46
774.066	43.37
774.374	41.36
774.682	41.34
774.99	41.08
775.298	43.82
775.605	41.83
775.913	40.89
776.22	42.37
776.528	44.72
776.835	39.6
777.143	44.63
777.45	38.03
777.757	43.27
778.065	43.42
778.372	41
778.679	40.2
778.986	42.67
779.293	40.19
779.6	42.05
779.907	39.38
780.214	38.98
780.52	42.47
780.827	40.33
781.134	43.42
781.44	43.9
781.747	40.3
782.053	44.92
782.36	44.39
782.666	41.47
782.973	38.52
783.279	41.52
783.585	40.41
783.891	42.34
784.197	43.96
784.503	42.67
784.809	43.02
785.115	44.06
785.421	42.08
785.727	43.02
786.033	43.63
786.339	40.46
786.644	38.92
786.95	38.83
787.255	42.42
787.561	39.06
787.866	40.62
788.172	39.74
788.477	46.28
788.782	40.74
789.088	39.41
789.393	40.6
789.698	40.75
790.003	42.68
790.308	39.53
790.613	40.32
790.918	41.97
791.223	42.76
791.527	42.35
791.832	39.31
792.137	38.61
792.441	40.53
792.746	42.17
793.05	40.47
793.355	44.22
793.659	44
793.963	44.27
794.268	40.54
794.572	41.64
794.876	37.91
795.18	43.9
795.484	38.1
795.788	36.56
796.092	42.64
796.396	43.68
796.7	42.79
797.004	41.15
797.307	43.33
797.611	42.86
797.915	43.11
798.218	40.81
798.522	47.46
798.825	44.39
799.128	39.19
799.432	40.33
799.735	39.8
800.038	42.93
800.341	41.14
800.644	42.19
800.947	40.24
801.25	42.67
801.553	43.98
801.856	41.95
802.159	38.74
802.462	38.97
802.764	40.58
803.067	43.16
803.37	41.49
803.672	43.07
803.975	37.63
804.277	44.26
804.579	43.22
804.882	41.13
805.184	40.55
805.486	41.99
805.788	45.66
806.09	38.15
806.392	43.42
806.694	41.54
806.996	42.46
807.298	40.39
807.6	43.67
807.902	42.07
808.203	43.6
808.505	36.29
808.807	42.05
809.108	41.23
809.409	39.59
809.711	41.87
810.012	43.22
810.313	42.62
810.615	43.64
810.916	38.75
811.217	47.03
811.518	38.45
811.819	46.27
812.12	42.1
812.421	46.34
812.722	39.53
813.023	40.3
813.323	41.82
813.624	49.05
813.925	41.5
814.225	37.8
814.526	36.28
814.826	39.19
815.126	39.55
815.427	40.91
815.727	41.3
816.027	39.32
816.327	43.14
816.627	49.47
816.927	40.69
817.227	39.13
817.527	37.08
817.827	40.5
818.127	47.34
818.427	48.59
818.727	40.8
819.026	39.05
819.326	40.59
819.625	39.52
819.925	43.14
820.224	37.9
820.524	45.39
820.823	43.19
821.122	39.55
821.421	41.44
821.72	43.97
822.019	42.48
822.318	41.83
822.617	39.5
822.916	39.94
823.215	45.06
823.514	42.66
823.813	42.54
824.111	44.36
824.41	42.25
824.709	43.77
825.007	43.24
825.306	43.47
825.604	43.6
825.902	43.53
826.201	44.61
826.499	44.33
826.797	44.23
827.095	43.95
827.393	44.22
827.691	42.64
827.989	45.16
828.287	46.15
828.585	42.64
828.882	42.04
829.18	41.23
829.478	45.38
829.775	42.94
830.073	43.05
830.37	43.92
830.668	43.56
830.965	45.45
831.263	42.78
831.56	45.9
831.857	46.06
832.154	41.72
832.451	41.96
832.748	41.33
833.045	44.92
833.342	45.71
833.639	42.75
833.936	38.3
834.232	46.67
834.529	43.46
834.826	44.59
835.122	42.33
835.419	40.02
835.715	42.71
836.012	41.94
836.308	43.07
836.604	42.71
836.901	42.43
837.197	43.58
837.493	42.41
837.789	42.8
838.085	41.58
838.381	46.19
838.677	39.65
838.972	41.88
839.268	43.59
839.564	44.61
839.86	47.01
840.155	42.27
840.451	39.55
840.746	35.54
841.042	46.21
841.337	49.58
841.632	46.78
841.928	46.53
842.223	34.28
842.518	33.88
842.813	37.46
843.108	49.37
843.403	35.63
843.698	39.7
843.993	43
844.287	43.77
844.582	44.59
844.877	41.82
845.171	47.76
845.466	37.31
845.761	41.28
846.055	44.37
846.349	30.95
846.644	42.82
846.938	43.66
847.232	35.42
847.526	41.17
847.82	30.02
848.114	53.22
848.408	36.12
848.702	52.71
848.996	35.15
849.29	46.81
849.584	39.76
849.877	31.79
850.171	44.26
850.465	44.17
850.758	30.81
851.052	60.4
851.345	39.39
851.638	65.55
851.932	45.23
852.225	40.17
852.518	42.32
852.811	30.96
853.104	46.33
853.397	28.39
853.69	47.86
853.983	38.39
854.276	25.33
854.569	50.85
854.861	53.44
855.154	35.1
855.447	36.71
855.739	20.03
856.032	45.28
856.324	62.43
856.616	44.94
856.909	43.98
857.201	29.47
857.493	30.93
857.785	43.35
858.077	57.45
858.369	55.24
858.661	50.48
858.953	48.78
859.245	40.66
859.537	39.3
859.829	45.5
860.12	32.65
860.412	43.66
860.703	48.71
860.995	39.01
861.286	40.89
861.578	39.95
861.869	61.31
862.16	28.5
862.452	48.83
862.743	49.05
863.034	40.03
863.325	45.45
863.616	56.31
863.907	33.24
864.198	18.45
864.488	53.02
864.779	33.65
865.07	40.13
865.36	55.49
865.651	36.49
865.941	48.64
866.232	31.75
866.522	52.19
866.813	30.87
867.103	35.63
867.393	47.31
867.683	32.59
867.973	29.95
868.263	22.26
868.553	59.22
868.843	31.3
869.133	41.74
869.423	26.13
869.713	31.07
870.002	11.91
870.292	2.64
870.582	32.31
870.871	45.63
871.161	44.06
871.45	56.15
871.739	7.77
872.029	48.16
872.318	48.21
872.607	35.42
872.896	50.22
873.185	46.44
873.474	33.09
873.763	42.87
874.052	41.16
874.341	43.78
874.63	60.41
874.918	41.75
875.207	56.95
875.496	31.03
875.784	26.74
876.073	49.79
876.361	37.91
876.649	37.87
876.938	33.02
877.226	59.8
877.514	26.71
877.802	26.18
878.09	46.15
878.378	39.3
878.666	24.25
878.954	56.78
879.242	68.85
879.53	50.29
879.817	31.92
880.105	49.46
880.392	60.11
880.68	23.18
880.967	48.48
881.255	33.88
881.542	21.74
881.83	29.53
882.117	43.97
882.404	47.65
882.691	59.84
882.978	48.75
883.265	52.9
883.552	37.66
883.839	34.73
884.126	24.92
884.413	41.16
884.699	41.28
884.986	40.19
885.273	46.38
885.559	46.38
885.846	46.38
