Data from 20-3_chest_Reflection__0__90.txt Node

Date: Fri Nov 11 20:52:12 CST 2022
User: ToomeyLab
Spectrometer: FLMS14357
Trigger mode: 0
Integration Time (sec): 1.000000E-2
Scans to average: 100
Electric dark correction enabled: true
Nonlinearity correction enabled: false
Boxcar width: 0
XAxis mode: Wavelengths
Number of Pixels in Spectrum: 2048
>>>>>Begin Spectral Data<<<<<
189.047	-36.56
189.435	-36.56
189.823	-36.56
190.211	-214.64
190.599	-33.34
190.987	219.5
191.375	-92.88
191.763	-115.02
192.151	4.28
192.538	60.51
192.926	227.74
193.314	473.86
193.702	-1798.15
194.089	3513.64
194.477	40.96
194.864	42.67
195.252	187.38
195.639	-120.81
196.027	-262.68
196.414	1607.14
196.801	161.97
197.189	181.63
197.576	350.52
197.963	14.9
198.351	-75.92
198.738	6.5
199.125	8.13
199.512	7.13
199.899	-58.34
200.286	-24.57
200.673	3.36
201.06	-27.45
201.447	-5.27
201.833	27.91
202.22	28.04
202.607	-8.74
202.994	5.58
203.38	35.07
203.767	38.46
204.154	17.1
204.54	10.62
204.927	22.1
205.313	20.85
205.699	-104.33
206.086	36.07
206.472	47.61
206.858	21.69
207.245	42.77
207.631	32.83
208.017	9.98
208.403	0.74
208.789	-14.31
209.175	11.31
209.561	25.69
209.947	0.34
210.333	-4.74
210.719	37.37
211.105	14.2
211.491	-19.55
211.876	-6.53
212.262	43.69
212.648	-28.54
213.034	18.96
213.419	-42.7
213.805	5.11
214.19	-9.97
214.576	11.85
214.961	-32.2
215.346	-18.37
215.732	8.05
216.117	44.96
216.502	-9.95
216.888	-31.85
217.273	2.46
217.658	13.83
218.043	29.71
218.428	-49.55
218.813	8.08
219.198	3.13
219.583	9.74
219.968	2.06
220.353	-5.01
220.738	-23.25
221.122	2.03
221.507	-27.24
221.892	-17.62
222.276	2.91
222.661	13.2
223.046	-6.6
223.43	-10.06
223.815	-10.66
224.199	-1.9
224.583	-3.77
224.968	1.86
225.352	4.11
225.736	-5.13
226.121	9.07
226.505	-5.44
226.889	-5.21
227.273	-1.39
227.657	-4.03
228.041	2.67
228.425	-3.88
228.809	0.49
229.193	1.06
229.577	2.94
229.961	3.23
230.344	2.76
230.728	1.94
231.112	1.84
231.495	2.43
231.879	1.74
232.263	2.55
232.646	1.2
233.03	1.15
233.413	2.43
233.797	3.89
234.18	3.06
234.563	1.6
234.946	1.26
235.33	0.94
235.713	1.27
236.096	2.09
236.479	3.15
236.862	4.36
237.245	1.24
237.628	4.6
238.011	1.77
238.394	4.99
238.777	3.62
239.16	3.51
239.543	2.88
239.925	3.15
240.308	2.59
240.691	4.25
241.073	3.03
241.456	2.35
241.838	4.5
242.221	3.31
242.603	3.63
242.986	2.61
243.368	2.81
243.75	2.85
244.133	3
244.515	2.64
244.897	3.4
245.279	2.04
245.661	3.31
246.043	3.15
246.425	4.64
246.807	3.35
247.189	2.72
247.571	3.02
247.953	2.96
248.335	2.79
248.717	2.91
249.098	3.06
249.48	2.76
249.862	3.13
250.243	2.93
250.625	2.69
251.006	4.03
251.388	3.36
251.769	2.81
252.151	2.75
252.532	3.07
252.913	2.74
253.295	3.17
253.676	2.53
254.057	2.82
254.438	3.08
254.819	2.66
255.2	3.46
255.581	1.66
255.962	3.44
256.343	3.02
256.724	3.25
257.105	2.73
257.486	2.82
257.867	3.62
258.247	2.54
258.628	1.87
259.009	2.12
259.389	2.35
259.77	3.1
260.15	3.11
260.531	2.91
260.911	2.85
261.292	2.98
261.672	2.73
262.052	2.86
262.432	2.89
262.813	3.03
263.193	2.58
263.573	2.98
263.953	3.38
264.333	2.82
264.713	2.87
265.093	3.15
265.473	2.04
265.853	3.2
266.233	3.5
266.612	2.1
266.992	2.47
267.372	3.77
267.752	2.97
268.131	2.69
268.511	2.9
268.89	2.25
269.27	2.61
269.649	2.67
270.029	3.14
270.408	2.96
270.787	2.52
271.167	2.01
271.546	2.59
271.925	3.26
272.304	2.98
272.683	2.87
273.062	2.47
273.441	2.7
273.82	2.55
274.199	2.92
274.578	2.38
274.957	2.88
275.336	2.75
275.715	3.14
276.093	2.46
276.472	2.21
276.851	2.21
277.229	2.57
277.608	2.8
277.986	2.43
278.365	2.19
278.743	2.54
279.122	3.44
279.5	2.91
279.878	2.4
280.257	2.42
280.635	2.05
281.013	2.72
281.391	2.65
281.769	2.64
282.147	2.67
282.525	2.1
282.903	2.44
283.281	2.6
283.659	2.79
284.037	3.29
284.415	2.6
284.792	2.6
285.17	3.16
285.548	2.9
285.925	2.68
286.303	2.43
286.68	2.82
287.058	2.83
287.435	2.69
287.813	2.7
288.19	2.52
288.567	2.65
288.945	3.02
289.322	2.78
289.699	2
290.076	3.17
290.453	2.78
290.83	2.25
291.207	2.35
291.584	2.93
291.961	3.23
292.338	2.72
292.715	2.92
293.092	3.17
293.469	2.92
293.845	3.21
294.222	2.94
294.599	3.19
294.975	3.26
295.352	3.48
295.728	2.96
296.105	3.19
296.481	2.94
296.858	3.16
297.234	3.46
297.61	2.95
297.986	3.51
298.363	3.39
298.739	3.28
299.115	3.57
299.491	3.53
299.867	3.33
300.243	3.29
300.619	3.54
300.995	3.62
301.371	3.8
301.746	4.28
302.122	3.72
302.498	3.53
302.874	3.28
303.249	3.95
303.625	3.63
304	3.14
304.376	3.61
304.751	3.05
305.127	3.51
305.502	3.72
305.878	4.35
306.253	3.72
306.628	3.69
307.003	3.99
307.378	3.58
307.754	3.96
308.129	3.63
308.504	4.23
308.879	3.87
309.254	4.05
309.629	3.65
310.003	4.06
310.378	4.12
310.753	4.05
311.128	4.36
311.502	4.04
311.877	4.18
312.252	4.33
312.626	4.28
313.001	4.04
313.375	3.81
313.75	4.07
314.124	3.8
314.498	4.05
314.873	3.94
315.247	4.18
315.621	3.91
315.995	4.57
316.369	4.27
316.743	4.09
317.117	4.18
317.491	3.98
317.865	3.97
318.239	4.21
318.613	4.31
318.987	4.12
319.361	4.2
319.734	4.54
320.108	4.77
320.482	4.47
320.855	3.98
321.229	4.55
321.602	4.51
321.976	4.47
322.349	4.61
322.723	5.21
323.096	4.53
323.469	4.73
323.843	4.55
324.216	4.49
324.589	5.04
324.962	5.11
325.335	4.7
325.708	4.76
326.081	4.79
326.454	4.84
326.827	4.5
327.2	5.43
327.573	5.02
327.945	5
328.318	4.29
328.691	4.89
329.063	4.7
329.436	4.61
329.809	4.58
330.181	4.53
330.553	4.04
330.926	5
331.298	5.22
331.671	5.08
332.043	4.83
332.415	5.04
332.787	4.84
333.159	5.23
333.532	5.06
333.904	5.26
334.276	4.58
334.648	4.97
335.02	4.8
335.391	5.32
335.763	5.09
336.135	4.83
336.507	4.69
336.879	4.61
337.25	4.54
337.622	4.86
337.993	5.03
338.365	5.04
338.736	4.93
339.108	5.04
339.479	4.58
339.851	5.39
340.222	5.07
340.593	5.43
340.964	5.14
341.336	5.24
341.707	4.86
342.078	4.92
342.449	5.08
342.82	5.27
343.191	5.17
343.562	5.15
343.933	4.98
344.303	4.86
344.674	4.78
345.045	4.91
345.416	5.06
345.786	4.73
346.157	5.05
346.527	4.93
346.898	4.69
347.268	5.28
347.639	5.2
348.009	4.97
348.38	5.23
348.75	5.14
349.12	5.83
349.49	5.43
349.861	4.84
350.231	5.32
350.601	5.33
350.971	5.18
351.341	5.33
351.711	5.46
352.081	5.24
352.45	5.33
352.82	5.06
353.19	5.39
353.56	5.25
353.929	5.17
354.299	4.86
354.669	5.46
355.038	5.22
355.408	5.35
355.777	5.52
356.147	5.66
356.516	5.5
356.885	5.49
357.254	5.19
357.624	5.04
357.993	5.28
358.362	5.54
358.731	4.97
359.1	5.21
359.469	4.87
359.838	5.04
360.207	5.42
360.576	5.54
360.945	5.25
361.314	5.16
361.682	5.58
362.051	5.2
362.42	5.35
362.788	5.78
363.157	5.3
363.525	5.38
363.894	5.07
364.262	5.31
364.631	5.61
364.999	5.34
365.367	5.61
365.735	5.36
366.104	5.38
366.472	5.27
366.84	5.07
367.208	5.24
367.576	5.54
367.944	5.82
368.312	5.25
368.68	5.33
369.048	5.39
369.416	5.49
369.783	5.81
370.151	5.6
370.519	5.44
370.886	5.79
371.254	5.69
371.621	5.24
371.989	5.3
372.356	5.82
372.724	5.82
373.091	5.89
373.458	5.48
373.826	5.55
374.193	5.42
374.56	5.43
374.927	5.25
375.294	5.87
375.661	5.93
376.028	5.15
376.395	6.02
376.762	5.56
377.129	5.62
377.496	5.31
377.863	5.56
378.229	5.46
378.596	5.41
378.963	5.49
379.329	5.84
379.696	5.52
380.062	5.57
380.429	5.95
380.795	5.96
381.161	5.4
381.528	5.47
381.894	5.68
382.26	5.96
382.626	5.88
382.993	5.83
383.359	5.55
383.725	5.76
384.091	5.91
384.457	5.47
384.823	5.76
385.188	5.88
385.554	5.64
385.92	5.62
386.286	5.69
386.651	5.86
387.017	5.61
387.383	5.75
387.748	5.55
388.114	5.57
388.479	5.58
388.845	5.56
389.21	5.64
389.575	5.73
389.94	5.82
390.306	5.71
390.671	5.76
391.036	5.82
391.401	5.72
391.766	5.67
392.131	5.59
392.496	6.05
392.861	5.52
393.226	5.64
393.591	5.71
393.956	5.7
394.32	5.71
394.685	5.84
395.05	5.91
395.414	5.77
395.779	5.7
396.143	5.95
396.508	6.14
396.872	5.8
397.236	5.85
397.601	5.85
397.965	5.92
398.329	5.92
398.694	6.08
399.058	5.93
399.422	5.81
399.786	5.74
400.15	5.78
400.514	6.02
400.878	5.9
401.242	5.85
401.605	5.96
401.969	5.86
402.333	5.56
402.697	5.9
403.06	6.05
403.424	5.8
403.787	6.04
404.151	5.92
404.514	5.8
404.878	5.85
405.241	5.95
405.604	5.87
405.968	5.87
406.331	5.73
406.694	5.8
407.057	5.86
407.42	6.12
407.783	5.92
408.146	5.97
408.509	5.93
408.872	6.19
409.235	5.92
409.598	5.87
409.961	6.02
410.323	5.74
410.686	5.97
411.049	6.02
411.411	5.95
411.774	6.01
412.136	5.71
412.499	6.18
412.861	5.83
413.223	5.72
413.586	5.96
413.948	6.23
414.31	5.92
414.672	5.88
415.035	6.03
415.397	5.92
415.759	5.94
416.121	6.02
416.483	5.96
416.845	5.91
417.206	5.88
417.568	5.9
417.93	5.8
418.292	5.76
418.653	5.93
419.015	5.99
419.377	5.9
419.738	5.94
420.1	5.94
420.461	5.93
420.822	5.91
421.184	5.93
421.545	5.94
421.906	5.88
422.267	5.87
422.629	5.76
422.99	5.86
423.351	5.89
423.712	5.86
424.073	5.91
424.434	5.99
424.795	6.07
425.155	5.96
425.516	5.94
425.877	5.94
426.238	5.95
426.598	5.95
426.959	5.92
427.32	5.96
427.68	6.22
428.041	6.26
428.401	5.91
428.761	6.15
429.122	6.05
429.482	6.32
429.842	6.27
430.202	6.33
430.563	6.37
430.923	6.33
431.283	6.17
431.643	6.09
432.003	6.55
432.363	6.14
432.722	6.39
433.082	6.29
433.442	6.37
433.802	6.32
434.161	6.32
434.521	6.15
434.881	6.45
435.24	6.33
435.6	6.2
435.959	6.27
436.319	6.25
436.678	6.35
437.037	6.41
437.396	6.36
437.756	6.39
438.115	6.33
438.474	6.23
438.833	6.53
439.192	6.55
439.551	6.46
439.91	6.53
440.269	6.49
440.628	6.44
440.987	6.31
441.345	6.46
441.704	6.4
442.063	6.37
442.421	6.33
442.78	6.27
443.138	6.45
443.497	6.36
443.855	6.38
444.214	6.4
444.572	6.49
444.93	6.55
445.288	6.52
445.647	6.61
446.005	6.54
446.363	6.45
446.721	6.62
447.079	6.59
447.437	6.3
447.795	6.44
448.153	6.37
448.51	6.38
448.868	6.47
449.226	6.42
449.584	6.45
449.941	6.5
450.299	6.48
450.656	6.65
451.014	6.67
451.371	6.69
451.729	6.56
452.086	6.74
452.443	6.62
452.801	6.74
453.158	6.7
453.515	6.69
453.872	6.63
454.229	6.63
454.586	6.68
454.943	6.88
455.3	6.7
455.657	6.71
456.014	6.88
456.371	6.82
456.727	6.97
457.084	6.39
457.441	6.95
457.797	6.82
458.154	6.76
458.51	6.7
458.867	6.87
459.223	7.06
459.58	6.71
459.936	6.7
460.292	6.79
460.648	6.75
461.005	6.82
461.361	6.75
461.717	6.65
462.073	6.74
462.429	6.58
462.785	6.74
463.141	6.75
463.496	6.75
463.852	6.87
464.208	6.91
464.564	6.99
464.919	6.96
465.275	6.86
465.631	6.98
465.986	7.08
466.342	6.92
466.697	6.91
467.052	6.99
467.408	6.91
467.763	6.85
468.118	7.02
468.473	6.95
468.829	7.08
469.184	7.01
469.539	7.07
469.894	7.13
470.249	7.03
470.603	6.99
470.958	7.1
471.313	7.12
471.668	7.01
472.023	6.89
472.377	7.21
472.732	7.08
473.086	6.95
473.441	7.05
473.795	7.08
474.15	7.23
474.504	7.17
474.859	7.15
475.213	7.17
475.567	7.07
475.921	7.23
476.275	7.06
476.63	7.23
476.984	7.19
477.338	7.19
477.692	7.08
478.045	7.18
478.399	7.31
478.753	7.05
479.107	7.08
479.461	7.22
479.814	7.13
480.168	7.11
480.521	7.18
480.875	7.29
481.228	7.13
481.582	7.1
481.935	7.05
482.289	7.05
482.642	7.08
482.995	7.12
483.348	7.09
483.701	7.18
484.055	7.1
484.408	7.02
484.761	6.99
485.114	6.82
485.466	6.76
485.819	6.73
486.172	6.73
486.525	6.83
486.878	6.85
487.23	6.94
487.583	7.06
487.936	7.02
488.288	7.06
488.641	6.99
488.993	6.95
489.345	6.91
489.698	6.92
490.05	6.93
490.402	7.02
490.754	7.06
491.107	7.09
491.459	7.09
491.811	7.22
492.163	7.31
492.515	7.27
492.866	7.17
493.218	7.03
493.57	7.05
493.922	7.03
494.274	7.15
494.625	7.27
494.977	7.32
495.328	7.37
495.68	7.36
496.031	7.52
496.383	7.51
496.734	7.5
497.086	7.56
497.437	7.51
497.788	7.42
498.139	7.5
498.49	7.47
498.842	7.36
499.193	7.46
499.544	7.54
499.894	7.41
500.245	7.51
500.596	7.56
500.947	7.48
501.298	7.65
501.648	7.51
501.999	7.63
502.35	7.81
502.7	7.67
503.051	7.74
503.401	7.69
503.752	7.65
504.102	7.6
504.452	7.71
504.803	7.57
505.153	7.88
505.503	7.73
505.853	7.77
506.203	7.79
506.553	7.65
506.903	7.65
507.253	7.69
507.603	7.7
507.953	7.77
508.303	7.67
508.652	7.85
509.002	7.83
509.352	7.81
509.701	7.91
510.051	7.62
510.4	7.82
510.75	7.68
511.099	7.69
511.449	7.82
511.798	7.84
512.147	7.84
512.496	7.82
512.846	7.98
513.195	7.93
513.544	7.85
513.893	7.7
514.242	7.85
514.591	7.72
514.939	7.88
515.288	7.89
515.637	7.84
515.986	7.93
516.334	8.05
516.683	8.05
517.032	7.97
517.38	8.13
517.729	8.11
518.077	8.01
518.426	7.99
518.774	8.01
519.122	8.07
519.47	8
519.819	7.89
520.167	7.91
520.515	7.84
520.863	7.95
521.211	7.95
521.559	8.04
521.907	8
522.255	7.96
522.602	8.16
522.95	8.14
523.298	8.22
523.645	8.21
523.993	8.28
524.341	8.4
524.688	8.2
525.036	8.21
525.383	8.24
525.73	8.32
526.078	8.18
526.425	8.18
526.772	8.19
527.119	8.09
527.466	8.09
527.814	8.08
528.161	8.14
528.508	8.08
528.854	8.12
529.201	8.14
529.548	8.05
529.895	7.95
530.242	7.92
530.588	7.96
530.935	7.94
531.282	7.99
531.628	8.01
531.975	8.12
532.321	8.17
532.667	8.34
533.014	8.3
533.36	8.35
533.706	8.38
534.052	8.38
534.399	8.3
534.745	8.29
535.091	8.24
535.437	8.24
535.783	8.28
536.129	8.3
536.474	8.45
536.82	8.44
537.166	8.52
537.512	8.56
537.857	8.52
538.203	8.48
538.549	8.5
538.894	8.52
539.239	8.5
539.585	8.55
539.93	8.72
540.276	8.74
540.621	8.8
540.966	8.84
541.311	8.78
541.656	8.72
542.001	8.73
542.346	8.74
542.691	8.59
543.036	8.42
543.381	8.53
543.726	8.48
544.071	8.61
544.415	8.62
544.76	8.68
545.105	8.7
545.449	8.67
545.794	8.91
546.138	8.86
546.483	8.9
546.827	9.01
547.171	9.07
547.516	8.78
547.86	8.85
548.204	9.08
548.548	8.89
548.892	8.99
549.236	9.03
549.58	9.11
549.924	9.1
550.268	9.26
550.612	9.35
550.956	9.37
551.3	9.21
551.643	9.37
551.987	9.44
552.33	9.38
552.674	9.23
553.017	9.56
553.361	9.47
553.704	9.38
554.048	9.51
554.391	9.58
554.734	9.4
555.077	9.55
555.42	9.54
555.764	9.52
556.107	9.61
556.45	9.61
556.793	9.61
557.135	9.72
557.478	9.77
557.821	9.76
558.164	9.83
558.507	9.9
558.849	9.93
559.192	9.93
559.534	9.84
559.877	9.98
560.219	9.86
560.562	9.92
560.904	9.79
561.246	9.74
561.589	10.01
561.931	9.83
562.273	9.95
562.615	9.89
562.957	9.9
563.299	10.03
563.641	9.85
563.983	9.98
564.325	9.98
564.667	10.24
565.008	10.08
565.35	10.12
565.692	10.13
566.033	10.02
566.375	10.31
566.716	10.34
567.058	10.13
567.399	10.37
567.741	10.41
568.082	10.31
568.423	10.11
568.764	10.45
569.105	10.27
569.447	10.26
569.788	10.35
570.129	10.28
570.47	10.5
570.811	10.5
571.151	10.47
571.492	10.45
571.833	10.5
572.174	10.56
572.514	10.81
572.855	10.57
573.195	10.48
573.536	10.52
573.876	10.5
574.217	10.6
574.557	10.51
574.898	10.63
575.238	10.73
575.578	10.65
575.918	10.83
576.258	10.69
576.598	10.63
576.938	10.76
577.278	10.62
577.618	10.75
577.958	10.83
578.298	11.04
578.638	10.87
578.977	11.06
579.317	11.05
579.657	11.26
579.996	11.16
580.336	11.23
580.675	11.4
581.014	11.18
581.354	11.09
581.693	11.24
582.032	11.25
582.372	11.36
582.711	11.33
583.05	11.25
583.389	11.33
583.728	11.51
584.067	11.41
584.406	11.45
584.745	11.46
585.083	11.62
585.422	11.36
585.761	11.51
586.1	11.6
586.438	11.4
586.777	11.64
587.115	11.7
587.454	11.61
587.792	11.73
588.13	11.6
588.469	11.57
588.807	11.76
589.145	11.81
589.483	11.98
589.821	11.78
590.159	12.05
590.497	12.09
590.835	11.83
591.173	12.06
591.511	11.95
591.849	11.67
592.187	12.09
592.524	11.89
592.862	11.8
593.2	12.08
593.537	12.17
593.875	12.16
594.212	12.07
594.55	12.29
594.887	12.23
595.224	12.15
595.561	12.36
595.899	12.29
596.236	12.23
596.573	12.39
596.91	12.56
597.247	12.41
597.584	12.34
597.921	12.47
598.258	12.12
598.594	12.49
598.931	12.21
599.268	12.33
599.604	12.4
599.941	12.51
600.277	12.55
600.614	12.66
600.95	12.55
601.287	12.77
601.623	13.06
601.959	12.78
602.296	12.82
602.632	12.65
602.968	12.81
603.304	12.91
603.64	12.92
603.976	12.88
604.312	12.98
604.648	13.13
604.984	13.02
605.319	12.93
605.655	13.01
605.991	13.05
606.326	13.16
606.662	12.93
606.998	12.94
607.333	13.17
607.668	12.91
608.004	13.02
608.339	13.23
608.674	13.13
609.01	13.23
609.345	13.22
609.68	13.1
610.015	13.32
610.35	13.34
610.685	13.51
611.02	13.33
611.355	13.35
611.689	13.38
612.024	13.22
612.359	13.3
612.694	13.59
613.028	13.48
613.363	13.58
613.697	13.83
614.032	13.8
614.366	13.6
614.7	13.77
615.035	13.46
615.369	13.55
615.703	14.23
616.037	14.09
616.371	13.75
616.705	14.02
617.039	14.16
617.373	13.92
617.707	14.13
618.041	14.33
618.375	13.94
618.709	14.48
619.042	14.5
619.376	14.36
619.71	14.51
620.043	14.33
620.377	14.36
620.71	14.13
621.043	14.22
621.377	14.63
621.71	14.35
622.043	14.58
622.376	14.91
622.709	14.25
623.043	14.68
623.376	14.72
623.709	14.83
624.041	15.1
624.374	14.44
624.707	14.92
625.04	14.5
625.373	14.71
625.705	14.56
626.038	14.98
626.37	14.9
626.703	14.78
627.035	14.84
627.368	14.69
627.7	14.81
628.032	14.8
628.365	15.06
628.697	15.19
629.029	14.96
629.361	14.81
629.693	14.88
630.025	14.98
630.357	15.04
630.689	15.06
631.021	15.03
631.353	15.4
631.684	15
632.016	15.23
632.348	14.96
632.679	15.08
633.011	15.22
633.342	15.55
633.674	15.66
634.005	15.53
634.336	15.9
634.668	15.88
634.999	15.61
635.33	15.42
635.661	15.61
635.992	15.79
636.323	15.59
636.654	15.92
636.985	15.88
637.316	15.55
637.647	15.87
637.977	15.95
638.308	15.88
638.639	15.64
638.969	15.75
639.3	16.66
639.63	16.08
639.961	16.17
640.291	16.11
640.622	16.36
640.952	15.88
641.282	15.79
641.612	15.5
641.943	16.29
642.273	15.87
642.603	16.53
642.933	16.44
643.263	16.18
643.592	16.32
643.922	16.43
644.252	16.51
644.582	16.47
644.911	16.54
645.241	16.38
645.571	16.43
645.9	16.55
646.23	16.7
646.559	17.14
646.888	17.11
647.218	16.91
647.547	16.83
647.876	16.31
648.205	16.97
648.534	16.51
648.863	17
649.192	16.63
649.521	16.82
649.85	17.27
650.179	17.08
650.508	17.17
650.837	16.95
651.165	16.82
651.494	17.72
651.822	17.19
652.151	17
652.479	16.89
652.808	16.99
653.136	17.04
653.465	17.52
653.793	17.33
654.121	17.33
654.449	17.01
654.777	17.55
655.105	17.2
655.433	17.37
655.761	17.31
656.089	17.5
656.417	17.27
656.745	17.84
657.073	17.25
657.4	17.6
657.728	17.7
658.056	17.77
658.383	17.38
658.711	17.3
659.038	18.11
659.365	18.02
659.693	17.68
660.02	17.95
660.347	18
660.674	17.86
661.001	17.53
661.329	17.79
661.656	17.89
661.982	18.08
662.309	18.13
662.636	18.38
662.963	18.35
663.29	18.59
663.616	17.63
663.943	18.42
664.27	18.56
664.596	18.77
664.923	18.56
665.249	18.61
665.576	18.56
665.902	18.64
666.228	18.65
666.554	18.5
666.881	18
667.207	19.13
667.533	18.85
667.859	19.08
668.185	18.72
668.511	18.71
668.837	18.93
669.162	18.89
669.488	19.27
669.814	19.12
670.139	19.02
670.465	18.7
670.791	18.85
671.116	18.76
671.442	18.67
671.767	19.7
672.092	19
672.418	19.34
672.743	18.99
673.068	19.25
673.393	19.78
673.718	19.28
674.043	19.15
674.368	19.19
674.693	18.48
675.018	19.36
675.343	19.74
675.667	19.78
675.992	20.5
676.317	19.49
676.641	19.27
676.966	19.81
677.29	19.83
677.615	19.65
677.939	19.73
678.264	19.92
678.588	19.48
678.912	19.57
679.236	19.84
679.56	19.98
679.885	19.44
680.209	20.15
680.532	20.07
680.856	20.44
681.18	20.37
681.504	19.66
681.828	19.85
682.152	20.35
682.475	20.12
682.799	20.23
683.122	19.91
683.446	20.63
683.769	20.12
684.093	20.73
684.416	20.44
684.739	20.95
685.062	20.91
685.386	20.66
685.709	21.45
686.032	20.32
686.355	20.72
686.678	20.8
687.001	20.91
687.324	20.58
687.646	20.11
687.969	20.98
688.292	21.13
688.614	20.86
688.937	20.92
689.26	20.22
689.582	21.33
689.904	20.56
690.227	21.42
690.549	20.76
690.871	21
691.194	20.89
691.516	20.95
691.838	21.61
692.16	21.23
692.482	21.13
692.804	20.76
693.126	21.72
693.448	20.61
693.769	21.43
694.091	21.43
694.413	20.69
694.735	20.84
695.056	21.27
695.378	22.4
695.699	22.02
696.021	21.35
696.342	20.92
696.663	21.91
696.984	21.6
697.306	21.57
697.627	21.87
697.948	22.45
698.269	21.66
698.59	20.54
698.911	21.69
699.232	21.92
699.553	22.24
699.873	21.7
700.194	22.03
700.515	21.61
700.835	22.52
701.156	22.1
701.477	21.63
701.797	22.18
702.117	21.88
702.438	22.3
702.758	21.93
703.078	22.41
703.398	22.47
703.719	22.17
704.039	22.29
704.359	22.18
704.679	22.7
704.999	22.21
705.319	22.33
705.638	23.15
705.958	22.5
706.278	22.41
706.597	23.22
706.917	22.25
707.237	23.21
707.556	23.46
707.876	23.61
708.195	21.93
708.514	22.91
708.834	23.15
709.153	22.55
709.472	22.72
709.791	23.16
710.11	23.03
710.429	23.61
710.748	22.76
711.067	22.55
711.386	23.43
711.705	23.18
712.023	23.63
712.342	23.21
712.661	23.72
712.979	23.19
713.298	22.78
713.616	23.24
713.935	23.06
714.253	24.39
714.572	23.27
714.89	24.65
715.208	22.46
715.526	23.67
715.844	22.53
716.162	24.03
716.48	24.55
716.798	23.51
717.116	23.79
717.434	23.9
717.752	23.46
718.069	23.65
718.387	24.45
718.705	24.06
719.022	24.59
719.34	23.68
719.657	23.49
719.975	24.27
720.292	24.49
720.609	24.66
720.927	23.88
721.244	23.99
721.561	23.69
721.878	24.52
722.195	24.35
722.512	24.7
722.829	25.55
723.146	23.37
723.463	23.22
723.779	24.8
724.096	25.27
724.413	25.38
724.729	25.15
725.046	25.29
725.362	25.02
725.679	25.96
725.995	24.58
726.311	24.77
726.628	25.32
726.944	24.97
727.26	25.16
727.576	24.85
727.892	24.58
728.208	25.3
728.524	25.45
728.84	25.91
729.156	25.2
729.472	25.58
729.787	24.05
730.103	25.63
730.419	25.12
730.734	23.81
731.05	25
731.365	24.83
731.681	25.24
731.996	25.79
732.311	24.85
732.626	26.3
732.942	26.19
733.257	24.59
733.572	25.52
733.887	24.5
734.202	25.57
734.517	25.37
734.832	25.34
735.146	24.42
735.461	23.89
735.776	26.52
736.091	26.37
736.405	25.36
736.72	24.89
737.034	25.59
737.349	25.73
737.663	26.03
737.977	26.36
738.292	25.9
738.606	25.51
738.92	25.65
739.234	25.35
739.548	26.67
739.862	26.23
740.176	26.54
740.49	26
740.804	26.39
741.117	26.21
741.431	26.18
741.745	25.79
742.058	25.93
742.372	26.08
742.685	25.85
742.999	26.46
743.312	27.14
743.626	27.05
743.939	26.83
744.252	26.57
744.565	27.03
744.878	26.25
745.191	27.25
745.505	26.53
745.817	27.75
746.13	26.67
746.443	26.29
746.756	26.78
747.069	26.01
747.381	29.22
747.694	25.56
748.007	28.55
748.319	25.61
748.632	27.07
748.944	26.66
749.256	27.63
749.569	25.98
749.881	26.63
750.193	27.74
750.505	28.24
750.817	28
751.129	27.52
751.441	26.92
751.753	27.91
752.065	28.27
752.377	28.16
752.689	28.48
753	26.65
753.312	27.39
753.624	28.08
753.935	27.81
754.247	26.26
754.558	26.82
754.869	28.25
755.181	27.79
755.492	29.07
755.803	26.61
756.114	28.33
756.425	28.17
756.736	28.34
757.047	26.11
757.358	27.59
757.669	27.74
757.98	28.43
758.291	28.5
758.601	27.08
758.912	29.19
759.223	29.04
759.533	28.24
759.844	26.91
760.154	27.05
760.464	28.89
760.775	26.56
761.085	29.75
761.395	27.71
761.705	29.77
762.016	27.56
762.326	28.29
762.636	29.16
762.945	28.75
763.255	29.29
763.565	27.82
763.875	28.3
764.185	30.3
764.494	28.59
764.804	29.73
765.113	29.55
765.423	28.9
765.732	28.14
766.042	29.69
766.351	29.33
766.66	28.36
766.97	28.98
767.279	28.13
767.588	29.06
767.897	28.96
768.206	29.26
768.515	29.46
768.824	28.98
769.133	29.27
769.441	26.91
769.75	30.53
770.059	29.28
770.367	29.51
770.676	29.99
770.984	28.39
771.293	29.69
771.601	29.71
771.91	31.86
772.218	29.25
772.526	28.29
772.834	29.95
773.142	28.45
773.45	30.43
773.758	30.28
774.066	29.81
774.374	32.07
774.682	29.25
774.99	27.4
775.298	29.22
775.605	30.49
775.913	32.18
776.22	31.37
776.528	34.49
776.835	30.67
777.143	32.18
777.45	27.37
777.757	31.22
778.065	27.64
778.372	29.22
778.679	32.34
778.986	30.45
779.293	31.02
779.6	30.85
779.907	29.32
780.214	30.93
780.52	26.46
780.827	32.51
781.134	31.62
781.44	28.88
781.747	32.09
782.053	30.46
782.36	31.12
782.666	32.24
782.973	26.1
783.279	30.18
783.585	28.07
783.891	30.02
784.197	34.28
784.503	29.62
784.809	30.55
785.115	31.26
785.421	33.63
785.727	32.12
786.033	32.36
786.339	31.05
786.644	33.58
786.95	27.29
787.255	32.72
787.561	28.4
787.866	28.43
788.172	30.26
788.477	26.14
788.782	33.37
789.088	32.06
789.393	32.37
789.698	33.49
790.003	31.06
790.308	28.88
790.613	32.36
790.918	31.15
791.223	30.12
791.527	26.78
791.832	28.05
792.137	27.51
792.441	26.64
792.746	29.56
793.05	31.08
793.355	31.75
793.659	32.17
793.963	28.93
794.268	34.25
794.572	29.72
794.876	26.55
795.18	29.14
795.484	29.83
795.788	28.91
796.092	30.56
796.396	32.86
796.7	31.33
797.004	32.78
797.307	30.24
797.611	33.64
797.915	27.89
798.218	31.76
798.522	32.98
798.825	31.66
799.128	32.29
799.432	25.76
799.735	33.39
800.038	32.47
800.341	31.55
800.644	32.15
800.947	31.06
801.25	32.07
801.553	36.41
801.856	33.8
802.159	30.04
802.462	32.24
802.764	30.31
803.067	30.56
803.37	31.2
803.672	31.14
803.975	32.23
804.277	30.73
804.579	33.25
804.882	28.7
805.184	34.75
805.486	32.9
805.788	37.04
806.09	33.93
806.392	32.87
806.694	33.42
806.996	31.25
807.298	29.9
807.6	31.77
807.902	34.18
808.203	33.71
808.505	31.57
808.807	33.2
809.108	31.56
809.409	37.43
809.711	37.77
810.012	36.96
810.313	37.29
810.615	33.45
810.916	36.39
811.217	38.45
811.518	34.61
811.819	26.98
812.12	36.89
812.421	38.07
812.722	32.3
813.023	28.22
813.323	33.96
813.624	33.88
813.925	34.32
814.225	33.51
814.526	32.77
814.826	30.84
815.126	28.33
815.427	36.88
815.727	32.77
816.027	31.67
816.327	31.01
816.627	37.8
816.927	35.14
817.227	36.34
817.527	42.22
817.827	33.75
818.127	33.19
818.427	33.98
818.727	33.69
819.026	36.64
819.326	35.45
819.625	28.67
819.925	33.52
820.224	35.01
820.524	31.23
820.823	32.02
821.122	31.08
821.421	39.05
821.72	34.74
822.019	34.15
822.318	37.02
822.617	35.03
822.916	33.48
823.215	35.31
823.514	36.25
823.813	35.53
824.111	33.43
824.41	36.26
824.709	35.44
825.007	35.08
825.306	35.99
825.604	36.05
825.902	35.46
826.201	34.86
826.499	36.1
826.797	35.04
827.095	36.12
827.393	36.81
827.691	35.22
827.989	35.38
828.287	33.98
828.585	35.34
828.882	36.15
829.18	34.66
829.478	37.03
829.775	37.13
830.073	37.3
830.37	36.35
830.668	35.9
830.965	36.74
831.263	35.32
831.56	36.19
831.857	36.71
832.154	34.1
832.451	33.73
832.748	34.5
833.045	31.21
833.342	35.06
833.639	33.7
833.936	33.41
834.232	32.88
834.529	30.51
834.826	39.59
835.122	33.89
835.419	35.33
835.715	38.46
836.012	37.79
836.308	33.61
836.604	34.49
836.901	37.51
837.197	37.34
837.493	36.62
837.789	36.19
838.085	36.15
838.381	36.47
838.677	38.82
838.972	32.62
839.268	37.96
839.564	38.98
839.86	36.78
840.155	34.16
840.451	28.09
840.746	29.75
841.042	31.11
841.337	32.24
841.632	32.6
841.928	29.63
842.223	34.16
842.518	31.61
842.813	28.59
843.108	31.38
843.403	33.31
843.698	34.85
843.993	32.45
844.287	39.17
844.582	30.34
844.877	35.05
845.171	38.45
845.466	47.03
845.761	33.29
846.055	49.97
846.349	28.08
846.644	37.3
846.938	32.75
847.232	37.1
847.526	35.26
847.82	32.46
848.114	29.22
848.408	28.79
848.702	40.11
848.996	42.7
849.29	30.89
849.584	29.34
849.877	13.22
850.171	20.71
850.465	18.85
850.758	37.05
851.052	42.83
851.345	31.13
851.638	37.59
851.932	27.49
852.225	39.02
852.518	32.86
852.811	38.74
853.104	44.18
853.397	19.94
853.69	45.79
853.983	36.2
854.276	36.38
854.569	28.56
854.861	41.71
855.154	42.2
855.447	40.21
855.739	40.91
856.032	39.4
856.324	40.64
856.616	20.61
856.909	20.47
857.201	30.2
857.493	40.19
857.785	20.85
858.077	22.61
858.369	50.03
858.661	26.71
858.953	33.09
859.245	35.13
859.537	36.45
859.829	33.52
860.12	42.48
860.412	28.34
860.703	33.08
860.995	16.96
861.286	17.1
861.578	17
861.869	27.69
862.16	30.17
862.452	18.61
862.743	45.42
863.034	13.56
863.325	44.24
863.616	61.58
863.907	28.55
864.198	23.19
864.488	36.4
864.779	41.3
865.07	19.57
865.36	27.42
865.651	26.61
865.941	17.17
866.232	44.2
866.522	44.53
866.813	45.48
867.103	29.45
867.393	42.16
867.683	30.87
867.973	36.16
868.263	39.84
868.553	32.68
868.843	41.76
869.133	34.66
869.423	27.1
869.713	23.04
870.002	7.82
870.292	7.45
870.582	42.91
870.871	20.9
871.161	22.72
871.45	24.39
871.739	20.01
872.029	9.08
872.318	10.31
872.607	48.51
872.896	30.94
873.185	42.63
873.474	31.14
873.763	12.19
874.052	34.12
874.341	38.14
874.63	28.74
874.918	61.9
875.207	27.79
875.496	3.38
875.784	29.66
876.073	36.51
876.361	40.19
876.649	16.65
876.938	36.09
877.226	40.76
877.514	37.78
877.802	46.15
878.09	18.84
878.378	33.12
878.666	38.28
878.954	22.69
879.242	44.13
879.53	3.92
879.817	37.82
880.105	44.5
880.392	30.98
880.68	48.83
880.967	49.8
881.255	33.85
881.542	23.22
881.83	26.72
882.117	34.34
882.404	40.63
882.691	38.86
882.978	34.36
883.265	32.17
883.552	36.9
883.839	36.31
884.126	33.31
884.413	38.74
884.699	32.53
884.986	42.79
885.273	43.22
885.559	43.22
885.846	43.22
