Data from 20-3_chest_Reflection__3__93.txt Node

Date: Fri Nov 11 20:52:46 CST 2022
User: ToomeyLab
Spectrometer: FLMS14357
Trigger mode: 0
Integration Time (sec): 1.000000E-2
Scans to average: 100
Electric dark correction enabled: true
Nonlinearity correction enabled: false
Boxcar width: 0
XAxis mode: Wavelengths
Number of Pixels in Spectrum: 2048
>>>>>Begin Spectral Data<<<<<
189.047	137.17
189.435	137.17
189.823	137.17
190.211	34.77
190.599	61.85
190.987	431.09
191.375	378.34
191.763	-146.23
192.151	60.77
192.538	-36.88
192.926	220.92
193.314	473.69
193.702	593.21
194.089	3540.91
194.477	112.77
194.864	99.5
195.252	119.57
195.639	-6.33
196.027	-57.32
196.414	-875.71
196.801	59.16
197.189	29.91
197.576	154.03
197.963	-36.06
198.351	-61.04
198.738	-8.56
199.125	6.49
199.512	27.79
199.899	-97.42
200.286	6.13
200.673	-2.52
201.06	44.44
201.447	15.48
201.833	3.9
202.22	-64.65
202.607	8.83
202.994	28.38
203.38	27.12
203.767	36.32
204.154	11.68
204.54	3.5
204.927	59.31
205.313	22.83
205.699	-123.73
206.086	44.24
206.472	-19.42
206.858	36.71
207.245	12.22
207.631	-8.8
208.017	3.25
208.403	13.22
208.789	9.4
209.175	29.63
209.561	51.52
209.947	-16.68
210.333	1.18
210.719	29.46
211.105	39.6
211.491	13.18
211.876	16.33
212.262	12.55
212.648	-12.01
213.034	10.13
213.419	13.93
213.805	-22.87
214.19	3.32
214.576	15.26
214.961	-30.53
215.346	-20.61
215.732	-14.52
216.117	29.26
216.502	-1.08
216.888	1.34
217.273	21.59
217.658	-25.99
218.043	-23.96
218.428	-11.41
218.813	-0.4
219.198	-11.5
219.583	-5.23
219.968	6.57
220.353	-13.77
220.738	-0.34
221.122	-13.71
221.507	-5.26
221.892	-19.11
222.276	11.35
222.661	19.7
223.046	-20.12
223.43	-1.86
223.815	8.49
224.199	-7.88
224.583	6.63
224.968	-11.46
225.352	9.6
225.736	-0.99
226.121	0.6
226.505	3.52
226.889	-5.05
227.273	6.56
227.657	-2.01
228.041	-1.38
228.425	0.86
228.809	3.7
229.193	4.1
229.577	5.7
229.961	2.35
230.344	3.29
230.728	2.3
231.112	2.2
231.495	2.67
231.879	1.41
232.263	3.41
232.646	1.61
233.03	3.73
233.413	3.39
233.797	1.89
234.18	1.19
234.563	5.41
234.946	0.65
235.33	2.44
235.713	2.25
236.096	2.72
236.479	2.91
236.862	4.72
237.245	3.07
237.628	3.47
238.011	3.16
238.394	2.37
238.777	3.45
239.16	3.65
239.543	-0.12
239.925	2.53
240.308	1.42
240.691	3.59
241.073	3
241.456	2.32
241.838	3.06
242.221	2.89
242.603	3.55
242.986	2.85
243.368	2.56
243.75	2.69
244.133	2.99
244.515	2.8
244.897	3.08
245.279	3.05
245.661	1.81
246.043	2.9
246.425	3.46
246.807	2.45
247.189	2.77
247.571	2.49
247.953	3.22
248.335	3.08
248.717	2.98
249.098	3.2
249.48	3.01
249.862	3.05
250.243	3.05
250.625	2.99
251.006	4.17
251.388	3.25
251.769	3.24
252.151	4.2
252.532	2.35
252.913	3.51
253.295	3.24
253.676	2.49
254.057	2.44
254.438	3.06
254.819	2.45
255.2	3.83
255.581	2.64
255.962	2.85
256.343	3.37
256.724	2.22
257.105	3.45
257.486	2.37
257.867	4.25
258.247	1.37
258.628	2.46
259.009	2.51
259.389	2.58
259.77	3.25
260.15	2.9
260.531	3
260.911	3.03
261.292	2.88
261.672	2.6
262.052	2.74
262.432	2.86
262.813	2.96
263.193	2.47
263.573	2.71
263.953	2.92
264.333	2.3
264.713	2.69
265.093	2.86
265.473	1.76
265.853	1.97
266.233	2.42
266.612	2.12
266.992	2.82
267.372	2.86
267.752	2.88
268.131	2.53
268.511	2.95
268.89	2.43
269.27	2.35
269.649	1.97
270.029	3.34
270.408	2.56
270.787	2.79
271.167	2.61
271.546	2.89
271.925	2.73
272.304	2.98
272.683	2.46
273.062	2.64
273.441	3.06
273.82	2.46
274.199	2.38
274.578	2.69
274.957	3.05
275.336	2.99
275.715	2.73
276.093	2.18
276.472	2.19
276.851	2.4
277.229	2.17
277.608	2.72
277.986	2.59
278.365	2.52
278.743	2.9
279.122	3.47
279.5	2.83
279.878	2.97
280.257	3.12
280.635	2.53
281.013	3.06
281.391	2.26
281.769	2.99
282.147	2.29
282.525	1.97
282.903	2.45
283.281	2.99
283.659	2.75
284.037	2.66
284.415	2.56
284.792	2.65
285.17	2.51
285.548	2.47
285.925	2.3
286.303	2.73
286.68	2.64
287.058	2.81
287.435	2.67
287.813	2.8
288.19	2.42
288.567	2.44
288.945	2.78
289.322	3.2
289.699	2.53
290.076	3.21
290.453	2.64
290.83	2.74
291.207	2.58
291.584	2.79
291.961	2.87
292.338	2.62
292.715	2.93
293.092	3.2
293.469	2.68
293.845	2.84
294.222	2.62
294.599	3.18
294.975	2.41
295.352	2.89
295.728	2.63
296.105	2.63
296.481	2.71
296.858	2.82
297.234	2.74
297.61	2.51
297.986	3.12
298.363	3.22
298.739	2.85
299.115	3.13
299.491	3.06
299.867	2.95
300.243	3.1
300.619	3.34
300.995	3.1
301.371	3.62
301.746	3.34
302.122	3.33
302.498	3
302.874	3.18
303.249	3.17
303.625	2.88
304	2.76
304.376	3
304.751	2.78
305.127	2.87
305.502	3.33
305.878	3.45
306.253	3.21
306.628	2.88
307.003	3.19
307.378	3
307.754	3.77
308.129	3.21
308.504	3.31
308.879	3.29
309.254	3.34
309.629	3.22
310.003	3.01
310.378	3.31
310.753	3.89
311.128	3.32
311.502	3.61
311.877	3.17
312.252	3.16
312.626	3.46
313.001	3.39
313.375	3.27
313.75	3.29
314.124	3
314.498	3.32
314.873	3.39
315.247	3.51
315.621	3.37
315.995	3.48
316.369	3.61
316.743	3.03
317.117	3.65
317.491	3.64
317.865	3.26
318.239	3.41
318.613	3.84
318.987	3.09
319.361	3.15
319.734	3.56
320.108	3.12
320.482	3.88
320.855	3.18
321.229	3.15
321.602	3.76
321.976	3.19
322.349	3.84
322.723	4.08
323.096	3.93
323.469	3.29
323.843	4.08
324.216	3.88
324.589	3.92
324.962	3.85
325.335	3.56
325.708	3.45
326.081	3.37
326.454	3.23
326.827	3.33
327.2	3.93
327.573	4.46
327.945	3.65
328.318	3.41
328.691	3.61
329.063	3.98
329.436	3.69
329.809	3.27
330.181	3.44
330.553	3.41
330.926	4.1
331.298	3.69
331.671	3.91
332.043	3.08
332.415	3.91
332.787	3.76
333.159	3.58
333.532	3.93
333.904	4.01
334.276	3.64
334.648	3.61
335.02	3.46
335.391	4.15
335.763	3.8
336.135	3.3
336.507	3.7
336.879	3.99
337.25	3.88
337.622	3.93
337.993	3.83
338.365	4.18
338.736	3.88
339.108	3.81
339.479	3.22
339.851	3.92
340.222	4.15
340.593	4.06
340.964	4.14
341.336	3.82
341.707	3.49
342.078	3.54
342.449	3.87
342.82	3.57
343.191	3.86
343.562	3.76
343.933	3.71
344.303	3.82
344.674	3.42
345.045	3.91
345.416	4.18
345.786	3.31
346.157	3.43
346.527	4.15
346.898	3.26
347.268	3.59
347.639	3.76
348.009	3.67
348.38	4.02
348.75	3.85
349.12	4.34
349.49	4.1
349.861	4.03
350.231	3.89
350.601	3.86
350.971	4.04
351.341	3.92
351.711	4.07
352.081	3.92
352.45	3.72
352.82	3.71
353.19	4.01
353.56	3.84
353.929	4.01
354.299	4.22
354.669	4.05
355.038	3.92
355.408	3.67
355.777	3.91
356.147	4.23
356.516	3.9
356.885	4.33
357.254	3.88
357.624	4
357.993	3.87
358.362	3.91
358.731	3.66
359.1	4.07
359.469	3.48
359.838	3.66
360.207	4.08
360.576	4.06
360.945	4.17
361.314	3.81
361.682	3.88
362.051	3.81
362.42	4
362.788	4.24
363.157	3.77
363.525	3.56
363.894	3.9
364.262	3.92
364.631	4.09
364.999	4.07
365.367	3.85
365.735	4.02
366.104	3.79
366.472	3.89
366.84	3.68
367.208	3.87
367.576	4.2
367.944	4.1
368.312	3.7
368.68	3.94
369.048	3.94
369.416	3.97
369.783	3.91
370.151	4.21
370.519	4.25
370.886	4.14
371.254	4.32
371.621	3.64
371.989	4.16
372.356	4.09
372.724	4.14
373.091	4.14
373.458	3.75
373.826	3.75
374.193	3.93
374.56	3.81
374.927	3.97
375.294	4.18
375.661	4.25
376.028	3.81
376.395	4.29
376.762	4.26
377.129	3.81
377.496	4.02
377.863	4.05
378.229	4.16
378.596	3.66
378.963	4.02
379.329	4.31
379.696	4.12
380.062	4.08
380.429	4.3
380.795	4.42
381.161	4.32
381.528	3.88
381.894	4.24
382.26	4.37
382.626	4.12
382.993	4.01
383.359	4.49
383.725	3.96
384.091	3.93
384.457	4.1
384.823	3.95
385.188	4.29
385.554	4.17
385.92	3.91
386.286	4.04
386.651	3.98
387.017	3.93
387.383	4.33
387.748	4.2
388.114	4.03
388.479	3.77
388.845	4.23
389.21	4.14
389.575	4.18
389.94	4.08
390.306	4.07
390.671	4.09
391.036	4.19
391.401	4.2
391.766	4.19
392.131	4.05
392.496	4.11
392.861	4.1
393.226	4.09
393.591	4.2
393.956	4.15
394.32	4.19
394.685	4.11
395.05	4.25
395.414	3.98
395.779	4.03
396.143	4.12
396.508	4.11
396.872	4.36
397.236	4.04
397.601	4.26
397.965	4.39
398.329	4.24
398.694	4.26
399.058	4.37
399.422	4.14
399.786	4.06
400.15	4.21
400.514	4.07
400.878	4.22
401.242	4.05
401.605	4.26
401.969	4.15
402.333	4.24
402.697	4.25
403.06	4.47
403.424	4.12
403.787	4.03
404.151	4.21
404.514	4.22
404.878	4.24
405.241	4.2
405.604	4.14
405.968	4.24
406.331	3.95
406.694	4.08
407.057	4.06
407.42	4.34
407.783	4.29
408.146	4.15
408.509	4.27
408.872	4.43
409.235	4.33
409.598	4.21
409.961	4.41
410.323	4.08
410.686	4.22
411.049	4.17
411.411	4.13
411.774	4.25
412.136	4.12
412.499	4.08
412.861	4.27
413.223	3.97
413.586	4.15
413.948	4.57
414.31	4.16
414.672	4.34
415.035	4.14
415.397	3.98
415.759	4.26
416.121	4.13
416.483	4.13
416.845	4.19
417.206	4.07
417.568	4.02
417.93	4.19
418.292	3.91
418.653	4.2
419.015	4.27
419.377	4.28
419.738	4.39
420.1	4.2
420.461	4.27
420.822	4.2
421.184	4.26
421.545	4.32
421.906	4.19
422.267	4.11
422.629	4
422.99	4.1
423.351	4.12
423.712	4.15
424.073	4.24
424.434	4.23
424.795	4.24
425.155	4.19
425.516	4.16
425.877	4.15
426.238	4.18
426.598	4.14
426.959	4.21
427.32	4.28
427.68	4.33
428.041	4.31
428.401	4.08
428.761	4.38
429.122	4.3
429.482	4.29
429.842	4.27
430.202	4.43
430.563	4.32
430.923	4.33
431.283	4.2
431.643	4.16
432.003	4.56
432.363	4.4
432.722	4.48
433.082	4.46
433.442	4.4
433.802	4.39
434.161	4.35
434.521	4.41
434.881	4.5
435.24	4.35
435.6	4.27
435.959	4.33
436.319	4.34
436.678	4.29
437.037	4.36
437.396	4.45
437.756	4.33
438.115	4.5
438.474	4.39
438.833	4.42
439.192	4.4
439.551	4.5
439.91	4.4
440.269	4.28
440.628	4.37
440.987	4.37
441.345	4.31
441.704	4.33
442.063	4.37
442.421	4.35
442.78	4.26
443.138	4.39
443.497	4.33
443.855	4.39
444.214	4.41
444.572	4.35
444.93	4.41
445.288	4.33
445.647	4.49
446.005	4.5
446.363	4.47
446.721	4.47
447.079	4.39
447.437	4.34
447.795	4.36
448.153	4.29
448.51	4.33
448.868	4.35
449.226	4.38
449.584	4.5
449.941	4.55
450.299	4.35
450.656	4.51
451.014	4.51
451.371	4.5
451.729	4.39
452.086	4.55
452.443	4.6
452.801	4.55
453.158	4.38
453.515	4.42
453.872	4.38
454.229	4.51
454.586	4.55
454.943	4.44
455.3	4.47
455.657	4.62
456.014	4.63
456.371	4.58
456.727	4.69
457.084	4.35
457.441	4.64
457.797	4.56
458.154	4.57
458.51	4.52
458.867	4.52
459.223	4.54
459.58	4.44
459.936	4.48
460.292	4.54
460.648	4.55
461.005	4.41
461.361	4.48
461.717	4.47
462.073	4.53
462.429	4.49
462.785	4.48
463.141	4.54
463.496	4.62
463.852	4.69
464.208	4.56
464.564	4.63
464.919	4.61
465.275	4.56
465.631	4.49
465.986	4.67
466.342	4.67
466.697	4.5
467.052	4.72
467.408	4.65
467.763	4.63
468.118	4.58
468.473	4.76
468.829	4.67
469.184	4.58
469.539	4.7
469.894	4.64
470.249	4.67
470.603	4.61
470.958	4.56
471.313	4.76
471.668	4.58
472.023	4.6
472.377	4.74
472.732	4.62
473.086	4.64
473.441	4.73
473.795	4.62
474.15	4.66
474.504	4.76
474.859	4.71
475.213	4.77
475.567	4.85
475.921	4.79
476.275	4.76
476.63	4.74
476.984	4.83
477.338	4.74
477.692	4.65
478.045	4.6
478.399	4.87
478.753	4.7
479.107	4.69
479.461	4.55
479.814	4.65
480.168	4.82
480.521	4.75
480.875	4.85
481.228	4.72
481.582	4.84
481.935	4.69
482.289	4.65
482.642	4.76
482.995	4.69
483.348	4.76
483.701	4.78
484.055	4.71
484.408	4.66
484.761	4.58
485.114	4.42
485.466	4.41
485.819	4.4
486.172	4.43
486.525	4.54
486.878	4.57
487.23	4.64
487.583	4.69
487.936	4.7
488.288	4.66
488.641	4.57
488.993	4.64
489.345	4.54
489.698	4.55
490.05	4.57
490.402	4.61
490.754	4.74
491.107	4.72
491.459	4.74
491.811	4.79
492.163	4.85
492.515	4.71
492.866	4.71
493.218	4.63
493.57	4.55
493.922	4.63
494.274	4.65
494.625	4.87
494.977	4.83
495.328	4.94
495.68	4.9
496.031	4.82
496.383	4.93
496.734	4.94
497.086	4.97
497.437	4.95
497.788	4.96
498.139	4.87
498.49	4.83
498.842	4.79
499.193	5
499.544	5.03
499.894	4.92
500.245	4.93
500.596	4.91
500.947	5.02
501.298	4.9
501.648	5.01
501.999	4.99
502.35	5.08
502.7	4.98
503.051	4.98
503.401	5
503.752	4.95
504.102	5.08
504.452	5.04
504.803	4.93
505.153	5.03
505.503	5.03
505.853	5.04
506.203	5.08
506.553	5.05
506.903	5
507.253	5
507.603	5.02
507.953	5.11
508.303	5.03
508.652	5.11
509.002	5.03
509.352	4.91
509.701	5.14
510.051	5.04
510.4	5.16
510.75	5.08
511.099	4.98
511.449	5.1
511.798	5.08
512.147	5.02
512.496	5.03
512.846	5.27
513.195	5.2
513.544	5.15
513.893	5.05
514.242	5.09
514.591	5.1
514.939	5.19
515.288	5.13
515.637	5.2
515.986	5.18
516.334	5.17
516.683	5.21
517.032	5.28
517.38	5.24
517.729	5.38
518.077	5.32
518.426	5.28
518.774	5.21
519.122	5.28
519.47	5.24
519.819	5.19
520.167	5.18
520.515	5.12
520.863	5.18
521.211	5.19
521.559	5.16
521.907	5.35
522.255	5.18
522.602	5.33
522.95	5.37
523.298	5.34
523.645	5.32
523.993	5.39
524.341	5.46
524.688	5.43
525.036	5.4
525.383	5.34
525.73	5.38
526.078	5.35
526.425	5.32
526.772	5.32
527.119	5.2
527.466	5.28
527.814	5.32
528.161	5.34
528.508	5.45
528.854	5.35
529.201	5.29
529.548	5.28
529.895	5.15
530.242	5.1
530.588	5.17
530.935	5.19
531.282	5.31
531.628	5.29
531.975	5.38
532.321	5.41
532.667	5.5
533.014	5.44
533.36	5.46
533.706	5.53
534.052	5.42
534.399	5.42
534.745	5.42
535.091	5.37
535.437	5.38
535.783	5.42
536.129	5.53
536.474	5.64
536.82	5.47
537.166	5.65
537.512	5.67
537.857	5.6
538.203	5.45
538.549	5.63
538.894	5.58
539.239	5.6
539.585	5.66
539.93	5.77
540.276	5.89
540.621	5.89
540.966	5.73
541.311	5.71
541.656	5.7
542.001	5.81
542.346	5.72
542.691	5.59
543.036	5.5
543.381	5.59
543.726	5.56
544.071	5.68
544.415	5.77
544.76	5.73
545.105	5.74
545.449	5.74
545.794	5.91
546.138	5.89
546.483	5.98
546.827	5.89
547.171	6.01
547.516	5.82
547.86	5.86
548.204	5.93
548.548	5.9
548.892	5.91
549.236	5.92
549.58	6.04
549.924	6.18
550.268	6.12
550.612	6.21
550.956	6.32
551.3	6.19
551.643	6.3
551.987	6.26
552.33	6.14
552.674	6.11
553.017	6.39
553.361	6.24
553.704	6.19
554.048	6.21
554.391	6.34
554.734	6.26
555.077	6.51
555.42	6.25
555.764	6.38
556.107	6.39
556.45	6.33
556.793	6.37
557.135	6.51
557.478	6.29
557.821	6.48
558.164	6.39
558.507	6.53
558.849	6.53
559.192	6.48
559.534	6.52
559.877	6.68
560.219	6.67
560.562	6.41
560.904	6.63
561.246	6.35
561.589	6.66
561.931	6.52
562.273	6.6
562.615	6.59
562.957	6.71
563.299	6.7
563.641	6.63
563.983	6.57
564.325	6.61
564.667	6.85
565.008	6.94
565.35	6.87
565.692	6.52
566.033	6.82
566.375	7.01
566.716	6.89
567.058	6.83
567.399	6.95
567.741	6.98
568.082	6.94
568.423	6.75
568.764	7.05
569.105	6.89
569.447	7.07
569.788	7.14
570.129	7.03
570.47	7.03
570.811	7.08
571.151	7.21
571.492	7.17
571.833	7.06
572.174	7.17
572.514	7.08
572.855	7.19
573.195	6.93
573.536	7.07
573.876	7.14
574.217	7.3
574.557	7.12
574.898	7.23
575.238	7.29
575.578	7.3
575.918	7.49
576.258	7.37
576.598	7.35
576.938	7.43
577.278	7.34
577.618	7.35
577.958	7.47
578.298	7.32
578.638	7.44
578.977	7.58
579.317	7.49
579.657	7.76
579.996	7.65
580.336	7.59
580.675	7.61
581.014	7.8
581.354	7.55
581.693	7.66
582.032	7.65
582.372	7.59
582.711	7.88
583.05	7.93
583.389	7.88
583.728	7.97
584.067	8
584.406	7.69
584.745	8.04
585.083	7.91
585.422	7.86
585.761	7.92
586.1	8.03
586.438	7.8
586.777	7.87
587.115	8.1
587.454	8.06
587.792	7.97
588.13	8.13
588.469	8.16
588.807	8.38
589.145	8.26
589.483	8.46
589.821	8.25
590.159	8.27
590.497	8.55
590.835	8.24
591.173	8.33
591.511	8.17
591.849	8.43
592.187	8.35
592.524	8.31
592.862	8.48
593.2	8.37
593.537	8.39
593.875	8.88
594.212	8.39
594.55	8.56
594.887	8.55
595.224	8.51
595.561	8.34
595.899	8.44
596.236	8.73
596.573	8.54
596.91	8.74
597.247	8.77
597.584	8.55
597.921	8.74
598.258	8.64
598.594	8.71
598.931	8.64
599.268	8.87
599.604	8.88
599.941	8.96
600.277	8.89
600.614	9.11
600.95	8.94
601.287	9.04
601.623	9.41
601.959	9.1
602.296	8.93
602.632	9
602.968	9.29
603.304	9.46
603.64	9.43
603.976	9.4
604.312	9.43
604.648	9.24
604.984	9.24
605.319	9.26
605.655	9.2
605.991	9.25
606.326	9.45
606.662	9.21
606.998	9.31
607.333	9.41
607.668	9.28
608.004	9.45
608.339	9.45
608.674	9.59
609.01	9.9
609.345	9.51
609.68	9.31
610.015	9.78
610.35	9.58
610.685	9.87
611.02	9.74
611.355	9.69
611.689	9.67
612.024	9.62
612.359	9.83
612.694	9.81
613.028	9.59
613.363	9.98
613.697	10.07
614.032	9.96
614.366	9.63
614.7	9.97
615.035	10.15
615.369	9.91
615.703	10.07
616.037	10.42
616.371	10.08
616.705	10.2
617.039	10.32
617.373	10.15
617.707	10.38
618.041	10.03
618.375	10.11
618.709	10.31
619.042	10.53
619.376	10.21
619.71	10.43
620.043	10.51
620.377	10.01
620.71	10.62
621.043	10.31
621.377	10.65
621.71	10.76
622.043	10.66
622.376	11.05
622.709	10.78
623.043	10.83
623.376	10.68
623.709	10.79
624.041	10.89
624.374	10.39
624.707	11.17
625.04	10.66
625.373	10.96
625.705	10.71
626.038	10.65
626.37	10.85
626.703	10.74
627.035	11.09
627.368	10.93
627.7	10.75
628.032	11.29
628.365	11.32
628.697	10.91
629.029	11.16
629.361	11.27
629.693	11.43
630.025	11.49
630.357	11.36
630.689	11.07
631.021	11.2
631.353	11.44
631.684	11.58
632.016	11.39
632.348	11.27
632.679	11.39
633.011	11.68
633.342	11.71
633.674	11.42
634.005	11.54
634.336	11.57
634.668	11.43
634.999	11.64
635.33	11.77
635.661	12.18
635.992	11.66
636.323	11.34
636.654	12.02
636.985	11.93
637.316	11.88
637.647	12.01
637.977	12.05
638.308	12.25
638.639	12.04
638.969	11.82
639.3	12.14
639.63	12.56
639.961	11.99
640.291	12.48
640.622	12.53
640.952	12.01
641.282	12.63
641.612	12.52
641.943	12.5
642.273	12.36
642.603	12.64
642.933	12.33
643.263	12.31
643.592	12.74
643.922	12.13
644.252	12.79
644.582	12.6
644.911	12.55
645.241	12.98
645.571	12.62
645.9	12.86
646.23	12.99
646.559	13.1
646.888	13.08
647.218	13
647.547	12.96
647.876	12.9
648.205	12.86
648.534	12.85
648.863	13.7
649.192	13.1
649.521	13.01
649.85	13.1
650.179	13.25
650.508	13.26
650.837	13.42
651.165	13.09
651.494	13.58
651.822	13.16
652.151	13.25
652.479	13.22
652.808	13.08
653.136	13.31
653.465	13.9
653.793	13.56
654.121	13.53
654.449	12.93
654.777	14.1
655.105	13.38
655.433	13.73
655.761	13.46
656.089	13.89
656.417	13.29
656.745	13.99
657.073	13.4
657.4	13.36
657.728	13.87
658.056	14.15
658.383	13.75
658.711	13.64
659.038	13.97
659.365	14.06
659.693	13.68
660.02	14.52
660.347	14.3
660.674	14.15
661.001	14.02
661.329	13.79
661.656	14.24
661.982	14.48
662.309	14.39
662.636	14.35
662.963	14.67
663.29	14.39
663.616	14.32
663.943	14.7
664.27	14.56
664.596	14.99
664.923	14.7
665.249	15.03
665.576	15.1
665.902	14.67
666.228	14.63
666.554	14.65
666.881	14.9
667.207	15.07
667.533	15.47
667.859	15.27
668.185	14.91
668.511	14.38
668.837	15.58
669.162	14.86
669.488	15.15
669.814	15.14
670.139	14.89
670.465	15.09
670.791	15.03
671.116	14.99
671.442	14.92
671.767	15.72
672.092	15.07
672.418	14.98
672.743	15.29
673.068	15.79
673.393	15.49
673.718	15.32
674.043	15.67
674.368	15.51
674.693	14.69
675.018	15.95
675.343	15.43
675.667	15.41
675.992	16.35
676.317	15.78
676.641	15.23
676.966	16.04
677.29	15.41
677.615	15.7
677.939	15.62
678.264	16.35
678.588	15.78
678.912	15.8
679.236	15.98
679.56	17.09
679.885	15.85
680.209	15.85
680.532	16.38
680.856	16.62
681.18	16.5
681.504	15.68
681.828	16.17
682.152	16.25
682.475	16.31
682.799	16.03
683.122	16.7
683.446	16.55
683.769	16.68
684.093	16.76
684.416	16.69
684.739	16.84
685.062	16.15
685.386	16.9
685.709	16.53
686.032	16.76
686.355	17.28
686.678	16.92
687.001	16.68
687.324	16.61
687.646	16.67
687.969	17.4
688.292	17.76
688.614	16.49
688.937	16.56
689.26	16.61
689.582	16.94
689.904	16.86
690.227	16.9
690.549	16.79
690.871	17.56
691.194	16.88
691.516	17.79
691.838	17.86
692.16	17.36
692.482	16.93
692.804	17.83
693.126	17.59
693.448	17.12
693.769	17.45
694.091	17.46
694.413	17.71
694.735	17.94
695.056	17.65
695.378	18.33
695.699	17.73
696.021	17.09
696.342	17.4
696.663	17.86
696.984	17.92
697.306	17.28
697.627	18.75
697.948	17.95
698.269	18.71
698.59	17.49
698.911	17.86
699.232	18.27
699.553	18.57
699.873	18.42
700.194	17.73
700.515	18.13
700.835	18.06
701.156	18.43
701.477	18.24
701.797	18.63
702.117	18.83
702.438	19.26
702.758	17.77
703.078	18.49
703.398	19.4
703.719	19.3
704.039	19.22
704.359	19.26
704.679	19.39
704.999	18.83
705.319	18.73
705.638	18.92
705.958	17.91
706.278	18.36
706.597	18.83
706.917	19.44
707.237	19.32
707.556	19.33
707.876	19.62
708.195	19.19
708.514	19.36
708.834	19.23
709.153	20.01
709.472	19.29
709.791	19.94
710.11	19.59
710.429	19.81
710.748	19.4
711.067	19.81
711.386	18.47
711.705	19.22
712.023	20.17
712.342	20.05
712.661	20.18
712.979	19.38
713.298	20.68
713.616	20.3
713.935	19.29
714.253	18.94
714.572	20.02
714.89	20.65
715.208	20.55
715.526	20.39
715.844	20.96
716.162	20.11
716.48	19.7
716.798	20.78
717.116	20.82
717.434	21.21
717.752	19.26
718.069	20.24
718.387	20.95
718.705	21.04
719.022	20.85
719.34	19.77
719.657	19.86
719.975	20.49
720.292	20.74
720.609	20.67
720.927	20.62
721.244	20.49
721.561	21.37
721.878	21.96
722.195	20.64
722.512	20.45
722.829	20.74
723.146	20.38
723.463	19.29
723.779	20.54
724.096	21.34
724.413	21.96
724.729	20.78
725.046	21.5
725.362	21.12
725.679	21.05
725.995	20.93
726.311	21.64
726.628	20.32
726.944	21.53
727.26	21.16
727.576	20.29
727.892	20.53
728.208	22.3
728.524	22.11
728.84	22.67
729.156	20.93
729.472	21.8
729.787	20.86
730.103	21.77
730.419	22
730.734	20.32
731.05	21.46
731.365	22.62
731.681	21.63
731.996	22.74
732.311	20.59
732.626	21.79
732.942	21.96
733.257	21.55
733.572	22.24
733.887	22.01
734.202	21.42
734.517	22.23
734.832	23.61
735.146	22.58
735.461	21.35
735.776	22.91
736.091	22.53
736.405	22.08
736.72	22.78
737.034	21.17
737.349	22.45
737.663	21.53
737.977	23.18
738.292	22.95
738.606	22.11
738.92	23.34
739.234	22.79
739.548	23.07
739.862	24.38
740.176	22.47
740.49	22.02
740.804	21.53
741.117	23.92
741.431	22.15
741.745	23.66
742.058	23.61
742.372	22.16
742.685	22.5
742.999	23.75
743.312	23.14
743.626	23.19
743.939	22.63
744.252	22.56
744.565	23.29
744.878	21.97
745.191	24.05
745.505	23.57
745.817	22.89
746.13	24.75
746.443	23.7
746.756	22.84
747.069	24.06
747.381	25.17
747.694	24.61
748.007	24.11
748.319	21.36
748.632	23.67
748.944	24.2
749.256	24.25
749.569	24.46
749.881	23.6
750.193	25.27
750.505	25.16
750.817	24.74
751.129	22.63
751.441	22.94
751.753	23.8
752.065	24.8
752.377	24.62
752.689	26.11
753	24.28
753.312	23.6
753.624	25.26
753.935	23.33
754.247	23.29
754.558	24.11
754.869	25.6
755.181	23.82
755.492	24.93
755.803	22.65
756.114	25.18
756.425	25.63
756.736	23.04
757.047	23.8
757.358	24.68
757.669	25.14
757.98	25.54
758.291	24.09
758.601	25.52
758.912	25.68
759.223	26.06
759.533	24.26
759.844	24.9
760.154	26.2
760.464	26.03
760.775	24.55
761.085	27.64
761.395	26.16
761.705	26
762.016	25.11
762.326	25.03
762.636	23.7
762.945	25.74
763.255	25.55
763.565	26.28
763.875	26.47
764.185	27.51
764.494	24.91
764.804	26.92
765.113	25.93
765.423	26.29
765.732	25.14
766.042	26.9
766.351	26.76
766.66	25.23
766.97	25.11
767.279	24.64
767.588	26.15
767.897	26.54
768.206	27.12
768.515	25.66
768.824	24.87
769.133	25.33
769.441	26.22
769.75	29.28
770.059	26.57
770.367	24.95
770.676	23.24
770.984	25.02
771.293	24.86
771.601	26.66
771.91	27.47
772.218	25.41
772.526	27.1
772.834	25.45
773.142	27.16
773.45	26.93
773.758	29.73
774.066	27.95
774.374	28.48
774.682	25.66
774.99	26.85
775.298	28.1
775.605	26.84
775.913	29.69
776.22	29.4
776.528	32.76
776.835	27.53
777.143	26.45
777.45	28.75
777.757	29.53
778.065	24.92
778.372	27.82
778.679	28.9
778.986	27.05
779.293	26.19
779.6	24.88
779.907	27.59
780.214	26.83
780.52	26.03
780.827	28.43
781.134	25.46
781.44	27.5
781.747	29.27
782.053	27.24
782.36	32.01
782.666	30.22
782.973	22.68
783.279	29.35
783.585	30.33
783.891	26.55
784.197	27.41
784.503	26.09
784.809	27.85
785.115	26.53
785.421	24.26
785.727	33.07
786.033	30.57
786.339	27.03
786.644	29.03
786.95	22.65
787.255	29.48
787.561	28.43
787.866	27.99
788.172	29.89
788.477	28.09
788.782	29.16
789.088	25.41
789.393	27.94
789.698	28.79
790.003	28.29
790.308	23.87
790.613	27.39
790.918	25.93
791.223	27
791.527	28.16
791.832	24.95
792.137	25.76
792.441	28.2
792.746	26.25
793.05	26.12
793.355	27.86
793.659	26.04
793.963	25.08
794.268	26.76
794.572	26.03
794.876	24.28
795.18	23.58
795.484	30.34
795.788	27.98
796.092	29.07
796.396	35.72
796.7	29.34
797.004	29.97
797.307	31.53
797.611	30.57
797.915	30.15
798.218	26.52
798.522	31.43
798.825	29.85
799.128	27.4
799.432	28.44
799.735	29.3
800.038	26.96
800.341	27.16
800.644	31.19
800.947	23.91
801.25	26.83
801.553	34.19
801.856	30.84
802.159	23.09
802.462	29.38
802.764	30.1
803.067	27.91
803.37	33.6
803.672	26.22
803.975	23.75
804.277	25.84
804.579	30.52
804.882	31.26
805.184	28.27
805.486	31.57
805.788	34.59
806.09	28.59
806.392	32.75
806.694	27.04
806.996	31.05
807.298	27.93
807.6	28.55
807.902	27.13
808.203	28.97
808.505	30.69
808.807	32.3
809.108	31.95
809.409	33.3
809.711	31.52
810.012	35.52
810.313	31.17
810.615	27.58
810.916	32.93
811.217	35.31
811.518	27.25
811.819	31.45
812.12	27.83
812.421	35.4
812.722	27.17
813.023	30.52
813.323	25.15
813.624	35.43
813.925	32.19
814.225	29
814.526	27.95
814.826	27.18
815.126	30.24
815.427	33.6
815.727	32.4
816.027	25.82
816.327	31.78
816.627	35.28
816.927	28.6
817.227	34.81
817.527	26.97
817.827	35.04
818.127	33.43
818.427	33.73
818.727	27.17
819.026	35.35
819.326	32.97
819.625	30.88
819.925	33.18
820.224	26.65
820.524	34.44
820.823	37.01
821.122	29.3
821.421	30.4
821.72	33.28
822.019	27.57
822.318	33.42
822.617	33.16
822.916	32.57
823.215	32.7
823.514	29.25
823.813	32.78
824.111	33.01
824.41	33.31
824.709	32.7
825.007	32.98
825.306	32.86
825.604	34.36
825.902	33.28
826.201	34.15
826.499	33.42
826.797	33.2
827.095	33.15
827.393	33.54
827.691	31.98
827.989	32.79
828.287	31.95
828.585	33.94
828.882	34.09
829.18	33.47
829.478	33.26
829.775	33.47
830.073	34.91
830.37	33.23
830.668	33.51
830.965	32.03
831.263	32.53
831.56	34.09
831.857	34.55
832.154	29.08
832.451	29.85
832.748	32.4
833.045	30.32
833.342	37.52
833.639	27.96
833.936	31.33
834.232	32.77
834.529	36.53
834.826	35.74
835.122	30.49
835.419	33.38
835.715	34.37
836.012	33.77
836.308	32.15
836.604	32.06
836.901	35.45
837.197	34.48
837.493	32.53
837.789	33.26
838.085	34.78
838.381	33.45
838.677	33.05
838.972	31.38
839.268	37.87
839.564	32.74
839.86	32.87
840.155	36.63
840.451	25.72
840.746	23.73
841.042	25.57
841.337	38.03
841.632	37.63
841.928	32.18
842.223	29.2
842.518	28.2
842.813	22.67
843.108	34.03
843.403	32.9
843.698	24.01
843.993	36.76
844.287	35.81
844.582	21.64
844.877	26.28
845.171	36.97
845.466	41.26
845.761	29.05
846.055	28
846.349	12.76
846.644	27.34
846.938	41.66
847.232	41.71
847.526	29.38
847.82	34.76
848.114	28.73
848.408	17.74
848.702	22.56
848.996	32.59
849.29	46.68
849.584	30.36
849.877	17.15
850.171	24.7
850.465	24.27
850.758	38.02
851.052	43.05
851.345	22.99
851.638	48.96
851.932	23.23
852.225	31.98
852.518	32.18
852.811	29.32
853.104	44.06
853.397	35.19
853.69	40.65
853.983	20.62
854.276	13.13
854.569	24.59
854.861	30.71
855.154	34.23
855.447	36.55
855.739	11.87
856.032	33.66
856.324	38.44
856.616	39.03
856.909	25.74
857.201	37.6
857.493	37.73
857.785	41.98
858.077	22.04
858.369	30.74
858.661	33.09
858.953	52.78
859.245	35.63
859.537	35.44
859.829	20.99
860.12	45.31
860.412	12.48
860.703	38.77
860.995	28.66
861.286	37.61
861.578	13.42
861.869	34.41
862.16	20.39
862.452	26.35
862.743	62.53
863.034	30.05
863.325	53.24
863.616	37.05
863.907	39.23
864.198	18.78
864.488	35.11
864.779	26.79
865.07	19.35
865.36	24.27
865.651	26.05
865.941	40.5
866.232	43.42
866.522	48.4
866.813	51.15
867.103	27.99
867.393	40.18
867.683	7.01
867.973	28.42
868.263	36.77
868.553	51.33
868.843	35.8
869.133	44.07
869.423	31.9
869.713	29.32
870.002	6.75
870.292	41.45
870.582	47.68
870.871	30.24
871.161	29.53
871.45	38.37
871.739	21.49
872.029	37.48
872.318	57.94
872.607	30.16
872.896	20.04
873.185	26.45
873.474	17.38
873.763	26.92
874.052	36.71
874.341	25.6
874.63	35.96
874.918	40.45
875.207	44.99
875.496	35.78
875.784	32.71
876.073	20.17
876.361	29.78
876.649	22.16
876.938	25.87
877.226	38.88
877.514	36.32
877.802	34.08
878.09	38.17
878.378	37.36
878.666	51.49
878.954	10.51
879.242	6.58
879.53	20.12
879.817	47.14
880.105	41.08
880.392	43.97
880.68	70.07
880.967	40.24
881.255	31.78
881.542	-1.47
881.83	24.14
882.117	40.22
882.404	37.23
882.691	45.76
882.978	26.81
883.265	33.52
883.552	57.99
883.839	15.55
884.126	20.25
884.413	40.81
884.699	36.85
884.986	36.93
885.273	39.25
885.559	39.25
885.846	39.25
