Data from 20-3_forehead_Reflection__4__104.txt Node

Date: Fri Nov 11 20:55:53 CST 2022
User: ToomeyLab
Spectrometer: FLMS14357
Trigger mode: 0
Integration Time (sec): 1.000000E-2
Scans to average: 100
Electric dark correction enabled: true
Nonlinearity correction enabled: false
Boxcar width: 0
XAxis mode: Wavelengths
Number of Pixels in Spectrum: 2048
>>>>>Begin Spectral Data<<<<<
189.047	-22.95
189.435	-22.95
189.823	-22.95
190.211	199.68
190.599	-57.47
190.987	106.5
191.375	-9.77
191.763	-125.76
192.151	31.31
192.538	64.86
192.926	450.3
193.314	498.56
193.702	-408.02
194.089	2756.06
194.477	77.79
194.864	26.45
195.252	54.5
195.639	31.67
196.027	131.79
196.414	622.38
196.801	122.31
197.189	53.03
197.576	171.33
197.963	-15.59
198.351	-43.75
198.738	11.92
199.125	36.31
199.512	36.18
199.899	-107.1
200.286	36.94
200.673	-58.95
201.06	10.49
201.447	19.23
201.833	54.81
202.22	-39.41
202.607	12.56
202.994	18.33
203.38	37.11
203.767	7.56
204.154	18.39
204.54	-5.62
204.927	-7.52
205.313	-25.45
205.699	-100.29
206.086	8.37
206.472	39.57
206.858	18.85
207.245	42.41
207.631	17.28
208.017	9.2
208.403	42.46
208.789	23.86
209.175	12.46
209.561	47.33
209.947	-24.19
210.333	4.45
210.719	13.58
211.105	29.88
211.491	9.65
211.876	15.28
212.262	-3.35
212.648	-11.79
213.034	11.04
213.419	-9.07
213.805	-10.86
214.19	19.7
214.576	22.96
214.961	-53.51
215.346	-0.52
215.732	-27.82
216.117	25.06
216.502	-5.78
216.888	-12.92
217.273	18.63
217.658	21.84
218.043	12.57
218.428	-7.9
218.813	10.85
219.198	23.18
219.583	10.61
219.968	15.49
220.353	-2.98
220.738	-14.92
221.122	19.34
221.507	-4.57
221.892	-7.35
222.276	5.45
222.661	19.59
223.046	-11.15
223.43	-11.1
223.815	-0.85
224.199	16.19
224.583	0.34
224.968	-0.14
225.352	0.65
225.736	5.63
226.121	1.94
226.505	5.56
226.889	-4.66
227.273	5.74
227.657	0.2
228.041	2.1
228.425	1.22
228.809	3.4
229.193	4.64
229.577	5.1
229.961	4.01
230.344	2.59
230.728	1.04
231.112	1.73
231.495	2.41
231.879	1.25
232.263	2.52
232.646	0.94
233.03	3.28
233.413	3.19
233.797	3.96
234.18	3.69
234.563	4.34
234.946	1.02
235.33	3.47
235.713	2.13
236.096	0.75
236.479	1.9
236.862	3.94
237.245	2.59
237.628	2.6
238.011	3.32
238.394	3.55
238.777	4
239.16	3.64
239.543	1.31
239.925	3.05
240.308	2.06
240.691	3.86
241.073	2.75
241.456	2.82
241.838	3.45
242.221	2.18
242.603	2.99
242.986	1.98
243.368	3.13
243.75	3.15
244.133	2.89
244.515	2.53
244.897	3.44
245.279	1.7
245.661	2.92
246.043	2.48
246.425	3.34
246.807	3.23
247.189	2.71
247.571	2.73
247.953	2.77
248.335	2.83
248.717	2.93
249.098	3.23
249.48	2.81
249.862	2.97
250.243	2.77
250.625	2.93
251.006	3.28
251.388	2.87
251.769	3.13
252.151	3.76
252.532	2.93
252.913	3.72
253.295	2.85
253.676	2.69
254.057	2.71
254.438	2.89
254.819	2.46
255.2	3.29
255.581	3.62
255.962	2.42
256.343	2.83
256.724	2.75
257.105	2.22
257.486	2.44
257.867	2.94
258.247	2.48
258.628	2.72
259.009	2.57
259.389	2.75
259.77	2.82
260.15	2.51
260.531	3.03
260.911	2.82
261.292	3.02
261.672	2.78
262.052	2.67
262.432	3.17
262.813	3.04
263.193	2.98
263.573	3.15
263.953	3.13
264.333	2.92
264.713	2.89
265.093	3.27
265.473	2.11
265.853	2.67
266.233	2.71
266.612	2.79
266.992	3.06
267.372	3.11
267.752	2.81
268.131	2.62
268.511	2.56
268.89	2.39
269.27	2.71
269.649	2.57
270.029	2.97
270.408	3.19
270.787	2.69
271.167	2.46
271.546	2.39
271.925	3.11
272.304	3.13
272.683	2.44
273.062	2.34
273.441	3.03
273.82	2.85
274.199	2.49
274.578	2.47
274.957	2.92
275.336	3.12
275.715	3.08
276.093	2.55
276.472	2.68
276.851	2.68
277.229	2.38
277.608	2.44
277.986	2.95
278.365	2.63
278.743	2.35
279.122	3.1
279.5	2.29
279.878	2.64
280.257	2.27
280.635	2.81
281.013	2.92
281.391	2.36
281.769	2.08
282.147	2.55
282.525	2.29
282.903	2.44
283.281	2.76
283.659	3.21
284.037	2.82
284.415	2.96
284.792	3.01
285.17	3.1
285.548	2.88
285.925	2.41
286.303	2.69
286.68	3.25
287.058	2.78
287.435	2.67
287.813	2.97
288.19	2.64
288.567	2.6
288.945	2.87
289.322	3.26
289.699	2.31
290.076	3.33
290.453	2.91
290.83	2.78
291.207	2.97
291.584	3.18
291.961	3.19
292.338	3.11
292.715	3.04
293.092	3.11
293.469	2.6
293.845	3.2
294.222	2.67
294.599	3.37
294.975	2.95
295.352	3.07
295.728	3.19
296.105	3.18
296.481	3.21
296.858	3.1
297.234	3.68
297.61	3.02
297.986	3.57
298.363	3.55
298.739	3.59
299.115	3.58
299.491	3.57
299.867	3.36
300.243	3.33
300.619	3.79
300.995	3.89
301.371	4.09
301.746	3.94
302.122	3.57
302.498	3.79
302.874	3.78
303.249	3.75
303.625	3.4
304	3.54
304.376	4.1
304.751	3.78
305.127	4.6
305.502	3.93
305.878	4.27
306.253	3.74
306.628	4.07
307.003	3.71
307.378	3.69
307.754	4.29
308.129	4.06
308.504	4.23
308.879	4.11
309.254	4.4
309.629	4.53
310.003	4.42
310.378	4.31
310.753	4.63
311.128	4.63
311.502	4.41
311.877	4.36
312.252	4.22
312.626	4.67
313.001	4.63
313.375	4.42
313.75	4.36
314.124	4.52
314.498	4.49
314.873	4.67
315.247	5.05
315.621	5.08
315.995	5.09
316.369	4.93
316.743	4.64
317.117	5.23
317.491	4.79
317.865	4.38
318.239	5.45
318.613	5.37
318.987	5.66
319.361	5.21
319.734	5.56
320.108	5.03
320.482	5.63
320.855	4.8
321.229	5.19
321.602	5.07
321.976	5.59
322.349	5.63
322.723	5.87
323.096	5.48
323.469	5.49
323.843	5.76
324.216	5.12
324.589	5.67
324.962	6.01
325.335	5.36
325.708	5.43
326.081	5.64
326.454	5.22
326.827	5.38
327.2	6.14
327.573	6.41
327.945	5.78
328.318	5.74
328.691	6.35
329.063	6.14
329.436	5.84
329.809	5.54
330.181	5.65
330.553	5.7
330.926	6.17
331.298	5.76
331.671	6.07
332.043	5.37
332.415	5.68
332.787	6.18
333.159	6.03
333.532	6.41
333.904	6.32
334.276	5.83
334.648	5.97
335.02	5.97
335.391	6.54
335.763	6.05
336.135	5.89
336.507	6.11
336.879	6.46
337.25	6.13
337.622	6.38
337.993	6.55
338.365	6.56
338.736	6.08
339.108	6.73
339.479	6.06
339.851	6.73
340.222	6.19
340.593	6.99
340.964	6.06
341.336	6.59
341.707	6.38
342.078	6.28
342.449	6.56
342.82	6.62
343.191	6.82
343.562	6.57
343.933	6.3
344.303	6.58
344.674	6.31
345.045	6.17
345.416	6.57
345.786	6.54
346.157	6.45
346.527	6.45
346.898	6.56
347.268	6.43
347.639	6.88
348.009	6.61
348.38	6.86
348.75	6.85
349.12	7.65
349.49	7.09
349.861	6.98
350.231	6.9
350.601	6.46
350.971	7.08
351.341	7.13
351.711	6.89
352.081	6.99
352.45	7
352.82	6.91
353.19	7.23
353.56	6.88
353.929	7.25
354.299	6.98
354.669	7.02
355.038	6.76
355.408	7.01
355.777	7.09
356.147	7.23
356.516	7.34
356.885	7.32
357.254	6.95
357.624	6.49
357.993	7.04
358.362	7.2
358.731	6.81
359.1	6.96
359.469	6.68
359.838	7.04
360.207	7.27
360.576	7.14
360.945	7.55
361.314	6.94
361.682	6.94
362.051	7.2
362.42	7.32
362.788	7.19
363.157	7.08
363.525	7.09
363.894	7.14
364.262	7.48
364.631	7.45
364.999	7.44
365.367	7.42
365.735	7.36
366.104	7.14
366.472	7.13
366.84	6.89
367.208	7.36
367.576	7.93
367.944	7.7
368.312	7.33
368.68	7.32
369.048	7.5
369.416	7.63
369.783	8.01
370.151	7.76
370.519	7.73
370.886	7.77
371.254	7.74
371.621	7.6
371.989	7.33
372.356	7.8
372.724	8
373.091	7.71
373.458	7.67
373.826	7.69
374.193	7.4
374.56	7.76
374.927	8
375.294	7.86
375.661	8.09
376.028	7.41
376.395	8.02
376.762	8.04
377.129	7.59
377.496	8.03
377.863	7.98
378.229	7.88
378.596	7.7
378.963	7.95
379.329	8.12
379.696	7.97
380.062	7.9
380.429	8.18
380.795	8.54
381.161	8.22
381.528	8
381.894	8.16
382.26	8.22
382.626	8.36
382.993	7.88
383.359	8.18
383.725	7.9
384.091	8.57
384.457	8.09
384.823	8.13
385.188	8.4
385.554	8.43
385.92	8.04
386.286	8.34
386.651	8.24
387.017	8.18
387.383	8.27
387.748	8.3
388.114	8.45
388.479	8.17
388.845	8.29
389.21	8.39
389.575	8.36
389.94	8.53
390.306	8.49
390.671	8.41
391.036	8.4
391.401	8.49
391.766	8.57
392.131	8.58
392.496	8.46
392.861	8.31
393.226	8.53
393.591	8.4
393.956	8.48
394.32	8.57
394.685	8.58
395.05	8.66
395.414	8.46
395.779	8.65
396.143	8.6
396.508	8.92
396.872	8.85
397.236	8.58
397.601	8.73
397.965	8.82
398.329	8.69
398.694	8.95
399.058	8.92
399.422	8.83
399.786	8.73
400.15	8.86
400.514	8.93
400.878	9.02
401.242	8.6
401.605	9.04
401.969	9
402.333	8.76
402.697	8.94
403.06	9.07
403.424	8.7
403.787	8.85
404.151	8.98
404.514	9.06
404.878	8.96
405.241	9.02
405.604	8.99
405.968	9.1
406.331	8.8
406.694	9.01
407.057	9.09
407.42	9.18
407.783	9.11
408.146	9.11
408.509	9.29
408.872	9.13
409.235	9.26
409.598	9.16
409.961	9.26
410.323	9.23
410.686	9.16
411.049	9.11
411.411	9.22
411.774	9.27
412.136	9.24
412.499	9.32
412.861	9.29
413.223	9.08
413.586	9.46
413.948	9.52
414.31	9.56
414.672	9.58
415.035	9.42
415.397	9.45
415.759	9.39
416.121	9.42
416.483	9.36
416.845	9.66
417.206	9.44
417.568	9.46
417.93	9.41
418.292	9.44
418.653	9.55
419.015	9.52
419.377	9.5
419.738	9.49
420.1	9.47
420.461	9.48
420.822	9.36
421.184	9.38
421.545	9.45
421.906	9.51
422.267	9.42
422.629	9.25
422.99	9.3
423.351	9.45
423.712	9.43
424.073	9.61
424.434	9.63
424.795	9.75
425.155	9.5
425.516	9.62
425.877	9.63
426.238	9.56
426.598	9.62
426.959	9.71
427.32	9.78
427.68	9.9
428.041	9.95
428.401	9.79
428.761	9.96
429.122	10.02
429.482	10.09
429.842	10.02
430.202	10.13
430.563	10.24
430.923	10.39
431.283	10.02
431.643	10.04
432.003	10.38
432.363	10.25
432.722	10.51
433.082	10.22
433.442	10.34
433.802	10.41
434.161	10.28
434.521	10.26
434.881	10.36
435.24	10.25
435.6	10.29
435.959	10.49
436.319	10.27
436.678	10.47
437.037	10.5
437.396	10.54
437.756	10.53
438.115	10.41
438.474	10.58
438.833	10.63
439.192	10.65
439.551	10.47
439.91	10.74
440.269	10.61
440.628	10.66
440.987	10.48
441.345	10.6
441.704	10.57
442.063	10.58
442.421	10.59
442.78	10.29
443.138	10.66
443.497	10.65
443.855	10.86
444.214	10.73
444.572	10.93
444.93	10.82
445.288	10.75
445.647	10.89
446.005	10.89
446.363	10.82
446.721	10.87
447.079	10.77
447.437	10.72
447.795	10.79
448.153	10.74
448.51	10.8
448.868	10.82
449.226	10.83
449.584	10.95
449.941	11
450.299	10.82
450.656	11.08
451.014	11.15
451.371	11.19
451.729	11.17
452.086	11.21
452.443	11.32
452.801	11.44
453.158	11.41
453.515	11.37
453.872	11.16
454.229	11.2
454.586	11.4
454.943	11.38
455.3	11.44
455.657	11.49
456.014	11.45
456.371	11.42
456.727	11.6
457.084	11.41
457.441	11.66
457.797	11.61
458.154	11.55
458.51	11.49
458.867	11.59
459.223	11.64
459.58	11.67
459.936	11.65
460.292	11.69
460.648	11.71
461.005	11.46
461.361	11.56
461.717	11.47
462.073	11.58
462.429	11.48
462.785	11.68
463.141	11.64
463.496	11.86
463.852	12
464.208	12.01
464.564	12.11
464.919	12.08
465.275	12.01
465.631	12.11
465.986	12.11
466.342	12.08
466.697	12.2
467.052	12.01
467.408	12.17
467.763	12.07
468.118	12.15
468.473	12.26
468.829	12.14
469.184	12.02
469.539	12.25
469.894	12.39
470.249	12.4
470.603	12.41
470.958	12.24
471.313	12.35
471.668	12.33
472.023	12.35
472.377	12.77
472.732	12.38
473.086	12.4
473.441	12.56
473.795	12.58
474.15	12.59
474.504	12.51
474.859	12.5
475.213	12.77
475.567	12.68
475.921	12.54
476.275	12.69
476.63	12.72
476.984	12.83
477.338	12.64
477.692	12.54
478.045	12.6
478.399	12.8
478.753	12.77
479.107	12.75
479.461	12.82
479.814	12.64
480.168	12.81
480.521	12.84
480.875	12.94
481.228	12.89
481.582	13.02
481.935	12.9
482.289	12.84
482.642	12.89
482.995	12.71
483.348	12.8
483.701	12.91
484.055	12.75
484.408	12.6
484.761	12.44
485.114	12.16
485.466	12.15
485.819	12.14
486.172	12.24
486.525	12.47
486.878	12.6
487.23	12.65
487.583	12.76
487.936	12.75
488.288	12.73
488.641	12.59
488.993	12.63
489.345	12.51
489.698	12.58
490.05	12.64
490.402	12.76
490.754	12.95
491.107	12.97
491.459	13.21
491.811	13.18
492.163	13.19
492.515	13.11
492.866	12.95
493.218	12.82
493.57	12.82
493.922	12.95
494.274	13.14
494.625	13.3
494.977	13.49
495.328	13.42
495.68	13.71
496.031	13.7
496.383	13.82
496.734	13.72
497.086	13.79
497.437	13.85
497.788	13.62
498.139	13.73
498.49	13.51
498.842	13.43
499.193	13.66
499.544	13.77
499.894	13.86
500.245	13.82
500.596	13.97
500.947	13.87
501.298	14.01
501.648	13.9
501.999	14
502.35	14.13
502.7	14.15
503.051	14.16
503.401	14.27
503.752	14.14
504.102	14.11
504.452	14.46
504.803	14.39
505.153	14.21
505.503	14.29
505.853	14.26
506.203	14.26
506.553	14.26
506.903	14.43
507.253	14.29
507.603	14.42
507.953	14.36
508.303	14.44
508.652	14.46
509.002	14.39
509.352	14.52
509.701	14.54
510.051	14.33
510.4	14.42
510.75	14.45
511.099	14.39
511.449	14.39
511.798	14.52
512.147	14.49
512.496	14.47
512.846	14.71
513.195	14.68
513.544	14.63
513.893	14.57
514.242	14.59
514.591	14.67
514.939	14.65
515.288	14.74
515.637	14.95
515.986	14.93
516.334	14.85
516.683	14.88
517.032	14.99
517.38	15.02
517.729	15.1
518.077	15.06
518.426	15.12
518.774	15.06
519.122	14.97
519.47	14.88
519.819	14.82
520.167	14.82
520.515	14.77
520.863	14.85
521.211	14.93
521.559	14.94
521.907	15.07
522.255	15
522.602	15.25
522.95	15.3
523.298	15.38
523.645	15.25
523.993	15.47
524.341	15.51
524.688	15.5
525.036	15.47
525.383	15.51
525.73	15.46
526.078	15.33
526.425	15.37
526.772	15.25
527.119	15.05
527.466	15.23
527.814	15.29
528.161	15.28
528.508	15.28
528.854	15.32
529.201	15.26
529.548	15.02
529.895	14.92
530.242	14.83
530.588	14.92
530.935	15
531.282	15.14
531.628	15.19
531.975	15.37
532.321	15.39
532.667	15.52
533.014	15.68
533.36	15.72
533.706	15.8
534.052	15.65
534.399	15.48
534.745	15.32
535.091	15.3
535.437	15.49
535.783	15.61
536.129	15.87
536.474	15.97
536.82	15.8
537.166	16.03
537.512	15.97
537.857	16.03
538.203	15.75
538.549	15.82
538.894	15.9
539.239	15.98
539.585	16.14
539.93	16.28
540.276	16.49
540.621	16.32
540.966	16.47
541.311	16.51
541.656	16.39
542.001	16.33
542.346	16.07
542.691	16.01
543.036	15.77
543.381	15.83
543.726	15.91
544.071	16.07
544.415	16.31
544.76	16.32
545.105	16.38
545.449	16.25
545.794	16.55
546.138	16.51
546.483	16.75
546.827	16.8
547.171	16.72
547.516	16.73
547.86	16.8
548.204	16.86
548.548	16.69
548.892	16.71
549.236	16.74
549.58	16.97
549.924	17.2
550.268	17.15
550.612	17.23
550.956	17.26
551.3	17.31
551.643	17.31
551.987	17.46
552.33	17.3
552.674	17.4
553.017	17.55
553.361	17.44
553.704	17.52
554.048	17.4
554.391	17.52
554.734	17.33
555.077	17.47
555.42	17.57
555.764	17.56
556.107	17.64
556.45	17.88
556.793	17.89
557.135	17.8
557.478	17.79
557.821	17.89
558.164	17.95
558.507	17.95
558.849	17.91
559.192	17.78
559.534	17.99
559.877	18.18
560.219	18.04
560.562	17.98
560.904	18.06
561.246	17.93
561.589	18.03
561.931	17.85
562.273	18.03
562.615	17.97
562.957	18.21
563.299	18.15
563.641	17.99
563.983	18.18
564.325	18.25
564.667	18.51
565.008	18.44
565.35	18.33
565.692	18.18
566.033	18.36
566.375	18.38
566.716	18.55
567.058	18.34
567.399	18.48
567.741	18.35
568.082	18.42
568.423	18.22
568.764	18.41
569.105	18.15
569.447	18.45
569.788	18.4
570.129	18.43
570.47	18.58
570.811	18.6
571.151	18.81
571.492	18.77
571.833	18.6
572.174	18.84
572.514	18.97
572.855	18.65
573.195	18.39
573.536	18.62
573.876	18.78
574.217	18.75
574.557	18.78
574.898	18.92
575.238	18.75
575.578	18.89
575.918	19.01
576.258	18.92
576.598	18.99
576.938	19.04
577.278	18.74
577.618	19.09
577.958	19.14
578.298	19.13
578.638	19.22
578.977	19.19
579.317	19.5
579.657	19.3
579.996	19.29
580.336	19.28
580.675	19.51
581.014	19.58
581.354	19.43
581.693	19.55
582.032	19.5
582.372	19.52
582.711	19.78
583.05	19.61
583.389	19.69
583.728	19.53
584.067	19.73
584.406	19.61
584.745	19.88
585.083	19.73
585.422	19.74
585.761	20.04
586.1	19.58
586.438	19.54
586.777	19.96
587.115	19.97
587.454	19.87
587.792	19.99
588.13	19.89
588.469	19.69
588.807	20
589.145	19.83
589.483	20.01
589.821	20.36
590.159	20.14
590.497	20.38
590.835	19.95
591.173	20.09
591.511	19.84
591.849	20.18
592.187	20.15
592.524	19.97
592.862	20.36
593.2	20.54
593.537	20.29
593.875	20.81
594.212	20.33
594.55	20.57
594.887	20.31
595.224	20.47
595.561	20.21
595.899	20.19
596.236	20.27
596.573	20.44
596.91	20.54
597.247	20.72
597.584	20.52
597.921	20.58
598.258	20.23
598.594	20.37
598.931	20.2
599.268	20.35
599.604	20.56
599.941	20.8
600.277	21.01
600.614	20.85
600.95	20.75
601.287	20.72
601.623	21.21
601.959	21.08
602.296	20.96
602.632	21.03
602.968	21.08
603.304	21.04
603.64	21.18
603.976	21.04
604.312	21.07
604.648	20.98
604.984	20.93
605.319	21.11
605.655	20.88
605.991	20.86
606.326	21.08
606.662	20.74
606.998	20.87
607.333	21.1
607.668	21.1
608.004	21.22
608.339	21.1
608.674	21.18
609.01	21.2
609.345	21.22
609.68	21.18
610.015	21.16
610.35	21.31
610.685	21.35
611.02	21.23
611.355	21.19
611.689	21.28
612.024	21.45
612.359	21.36
612.694	21.47
613.028	21.55
613.363	21.64
613.697	21.89
614.032	21.63
614.366	21.78
614.7	21.6
615.035	21.65
615.369	21.86
615.703	22.01
616.037	22.06
616.371	22.14
616.705	21.98
617.039	22.1
617.373	21.65
617.707	22.07
618.041	22.13
618.375	21.85
618.709	22.17
619.042	22.36
619.376	22.2
619.71	22.16
620.043	22.31
620.377	21.96
620.71	21.98
621.043	22.13
621.377	22.14
621.71	21.87
622.043	22.3
622.376	22.41
622.709	22.43
623.043	22.25
623.376	22.31
623.709	22.46
624.041	22.51
624.374	22.56
624.707	22.49
625.04	22.56
625.373	22.4
625.705	22.11
626.038	22.49
626.37	22.39
626.703	22.6
627.035	22.68
627.368	22.75
627.7	22.6
628.032	22.37
628.365	22.81
628.697	22.54
629.029	22.38
629.361	22.38
629.693	22.75
630.025	22.47
630.357	22.94
630.689	22.89
631.021	22.78
631.353	23.03
631.684	22.72
632.016	22.67
632.348	22.66
632.679	22.87
633.011	23.26
633.342	23.16
633.674	22.91
634.005	23.33
634.336	23.21
634.668	23.13
634.999	23.19
635.33	23.03
635.661	22.93
635.992	22.92
636.323	22.74
636.654	23.24
636.985	23.03
637.316	23.25
637.647	23.44
637.977	23.3
638.308	23.32
638.639	23.17
638.969	22.89
639.3	23.59
639.63	23.5
639.961	23.26
640.291	23.56
640.622	24.18
640.952	23.29
641.282	23.53
641.612	23.51
641.943	23.8
642.273	24.01
642.603	23.86
642.933	23.67
643.263	23.73
643.592	23.5
643.922	23.57
644.252	23.73
644.582	23.84
644.911	23.7
645.241	23.79
645.571	23.92
645.9	24.18
646.23	24.01
646.559	24.03
646.888	23.77
647.218	23.78
647.547	24.08
647.876	23.56
648.205	24.04
648.534	24.05
648.863	24.22
649.192	24.11
649.521	24.14
649.85	24.43
650.179	24.19
650.508	23.97
650.837	24.74
651.165	23.95
651.494	24.81
651.822	24.06
652.151	23.78
652.479	24.23
652.808	24.15
653.136	24.49
653.465	24.57
653.793	24.65
654.121	24.45
654.449	24.2
654.777	24.62
655.105	24.5
655.433	24.35
655.761	24.61
656.089	24.57
656.417	24.48
656.745	24.4
657.073	24.82
657.4	24.39
657.728	24.91
658.056	24.8
658.383	24.26
658.711	24.53
659.038	24.58
659.365	24.28
659.693	24.57
660.02	25.3
660.347	24.88
660.674	24.6
661.001	24.66
661.329	24.43
661.656	24.86
661.982	25.26
662.309	24.77
662.636	25.09
662.963	25.33
663.29	25.33
663.616	24.52
663.943	25.79
664.27	24.73
664.596	25.01
664.923	25.17
665.249	25.12
665.576	25.57
665.902	25.22
666.228	25.27
666.554	24.99
666.881	25.07
667.207	25.74
667.533	25.29
667.859	26.01
668.185	25.88
668.511	25.38
668.837	25.63
669.162	25.32
669.488	25.52
669.814	25.37
670.139	25.42
670.465	25.22
670.791	25.22
671.116	25.34
671.442	25.44
671.767	25.88
672.092	25.87
672.418	25.78
672.743	25.36
673.068	25.51
673.393	26.36
673.718	25.83
674.043	25.81
674.368	26.29
674.693	25.2
675.018	26.27
675.343	25.74
675.667	25.55
675.992	26.31
676.317	26.29
676.641	26.35
676.966	26.51
677.29	27.13
677.615	25.57
677.939	25.68
678.264	26.14
678.588	26.18
678.912	26.17
679.236	25.92
679.56	26.41
679.885	25.55
680.209	26.31
680.532	26.49
680.856	26.58
681.18	26.41
681.504	26.25
681.828	26.27
682.152	26.25
682.475	26.18
682.799	26.33
683.122	26.34
683.446	26.68
683.769	26.25
684.093	26.89
684.416	26.88
684.739	27.47
685.062	26.81
685.386	26.63
685.709	26.79
686.032	26.48
686.355	26.46
686.678	26.71
687.001	26.83
687.324	26.57
687.646	26.22
687.969	27.46
688.292	27.35
688.614	26.81
688.937	26.84
689.26	26.52
689.582	27
689.904	26.98
690.227	27.22
690.549	26.55
690.871	26.82
691.194	26.81
691.516	26.8
691.838	27.06
692.16	26.54
692.482	26.46
692.804	26.49
693.126	26.68
693.448	26.85
693.769	26.77
694.091	27.05
694.413	27.58
694.735	27.43
695.056	26.55
695.378	27.55
695.699	27.51
696.021	26.26
696.342	27.42
696.663	26.98
696.984	27.29
697.306	26.94
697.627	26.94
697.948	27.31
698.269	27.94
698.59	26.16
698.911	27.25
699.232	27.73
699.553	26.98
699.873	27.24
700.194	26.84
700.515	27.03
700.835	27.04
701.156	27.17
701.477	27.09
701.797	27.48
702.117	27.84
702.438	27.45
702.758	27.46
703.078	27.72
703.398	28.99
703.719	27.56
704.039	28
704.359	28.2
704.679	28.66
704.999	27.98
705.319	27.84
705.638	28.39
705.958	27.9
706.278	27.96
706.597	27.4
706.917	28.77
707.237	27.73
707.556	28.75
707.876	28.72
708.195	27.67
708.514	27.71
708.834	29.08
709.153	26.96
709.472	28.08
709.791	28.72
710.11	28.6
710.429	28.56
710.748	27.86
711.067	28.6
711.386	27.94
711.705	27.99
712.023	28.73
712.342	28.88
712.661	27.62
712.979	28.2
713.298	29.9
713.616	28.68
713.935	27.82
714.253	29
714.572	28.86
714.89	28.59
715.208	28.51
715.526	28.36
715.844	27.74
716.162	28.27
716.48	28.37
716.798	28.93
717.116	28.62
717.434	28.73
717.752	26.64
718.069	28.39
718.387	28.52
718.705	28.58
719.022	29.41
719.34	28.56
719.657	28.35
719.975	28.77
720.292	29.36
720.609	28.34
720.927	28.59
721.244	28.78
721.561	28.19
721.878	29.46
722.195	28.68
722.512	28.79
722.829	28.79
723.146	28.45
723.463	29.37
723.779	30.18
724.096	29.79
724.413	29.48
724.729	28.02
725.046	30.08
725.362	28.75
725.679	29.7
725.995	30.03
726.311	29.63
726.628	29.91
726.944	29.31
727.26	28.61
727.576	28.31
727.892	28.96
728.208	29.61
728.524	28.85
728.84	30.12
729.156	28.74
729.472	30.12
729.787	28.23
730.103	29.4
730.419	28.95
730.734	28.96
731.05	30.45
731.365	29.89
731.681	30.23
731.996	28.9
732.311	28.97
732.626	29.59
732.942	29.66
733.257	28.03
733.572	29.21
733.887	29.36
734.202	28.68
734.517	29.31
734.832	30.3
735.146	28.09
735.461	28.22
735.776	30.28
736.091	30.28
736.405	29.29
736.72	29.56
737.034	28.5
737.349	30.11
737.663	29.48
737.977	29.49
738.292	30.14
738.606	28.98
738.92	28.97
739.234	29.45
739.548	30.09
739.862	31.22
740.176	30.32
740.49	30.2
740.804	30.05
741.117	30.72
741.431	30.37
741.745	30.39
742.058	29.78
742.372	28.95
742.685	29.19
742.999	29.61
743.312	29.44
743.626	29.32
743.939	29.68
744.252	29.42
744.565	30.68
744.878	30.42
745.191	32.2
745.505	29.1
745.817	30.75
746.13	30.81
746.443	30.18
746.756	30.93
747.069	29.91
747.381	31.35
747.694	29.7
748.007	30.83
748.319	31.22
748.632	29.1
748.944	30.35
749.256	31.89
749.569	30.93
749.881	30.66
750.193	28.98
750.505	30.54
750.817	30.76
751.129	30.49
751.441	30.63
751.753	31.01
752.065	30.18
752.377	31.02
752.689	31.44
753	29.9
753.312	29.74
753.624	30.82
753.935	30.77
754.247	29.75
754.558	30.49
754.869	30.72
755.181	29.7
755.492	28.82
755.803	29.41
756.114	31.72
756.425	31.35
756.736	31.52
757.047	30.35
757.358	30.63
757.669	31.24
757.98	30.42
758.291	29.58
758.601	30.4
758.912	30.25
759.223	32.74
759.533	29.61
759.844	29.81
760.154	31.32
760.464	31.12
760.775	32.04
761.085	31.16
761.395	30.95
761.705	31.35
762.016	30.24
762.326	29.89
762.636	29.87
762.945	30.6
763.255	31.22
763.565	30
763.875	31.3
764.185	31.53
764.494	30.62
764.804	33.47
765.113	32.34
765.423	30.98
765.732	30.71
766.042	32.22
766.351	31.82
766.66	30.76
766.97	31.8
767.279	30.94
767.588	32.19
767.897	31.85
768.206	31.8
768.515	31.04
768.824	30.82
769.133	32.24
769.441	29.99
769.75	31.84
770.059	30.53
770.367	32.12
770.676	31.41
770.984	30.49
771.293	30.17
771.601	31.75
771.91	31.88
772.218	30.69
772.526	31.77
772.834	30.26
773.142	30.17
773.45	32.2
773.758	30.51
774.066	34.1
774.374	32.55
774.682	30.28
774.99	31.77
775.298	32.63
775.605	32.2
775.913	32.7
776.22	30.88
776.528	34.73
776.835	30.65
777.143	33.83
777.45	32.76
777.757	33.2
778.065	30.65
778.372	29.11
778.679	33.37
778.986	34.48
779.293	31.24
779.6	31.59
779.907	30.84
780.214	28.79
780.52	32.68
780.827	31.76
781.134	30.09
781.44	34.19
781.747	32.1
782.053	32.49
782.36	30.4
782.666	30.42
782.973	28.05
783.279	32.48
783.585	32.68
783.891	27.55
784.197	32.91
784.503	31.47
784.809	33.73
785.115	31.36
785.421	34.33
785.727	35.23
786.033	39.21
786.339	31.4
786.644	30
786.95	25.54
787.255	33.34
787.561	31.28
787.866	29.44
788.172	30.48
788.477	32.71
788.782	33.88
789.088	36.17
789.393	29.82
789.698	34.85
790.003	33.47
790.308	34.83
790.613	35.37
790.918	33.19
791.223	29.36
791.527	29.47
791.832	32.17
792.137	33.19
792.441	32.12
792.746	34.36
793.05	33.22
793.355	31.02
793.659	32.24
793.963	27.57
794.268	30.44
794.572	31.25
794.876	29.17
795.18	31.29
795.484	30.61
795.788	29.55
796.092	34.27
796.396	32.73
796.7	28.27
797.004	35.55
797.307	32.16
797.611	34.54
797.915	34.88
798.218	30.31
798.522	33.71
798.825	33.49
799.128	31.8
799.432	31.31
799.735	32.89
800.038	33.73
800.341	31.79
800.644	34.09
800.947	30.31
801.25	32.22
801.553	31.42
801.856	36.28
802.159	29.37
802.462	31.12
802.764	35.53
803.067	33.24
803.37	38.51
803.672	30.21
803.975	31.02
804.277	28.42
804.579	33.04
804.882	28.59
805.184	33.91
805.486	34.97
805.788	33.64
806.09	29.85
806.392	34.32
806.694	33.68
806.996	37.8
807.298	31.84
807.6	34.67
807.902	34.18
808.203	27.77
808.505	34.66
808.807	35.42
809.108	33.5
809.409	32.48
809.711	41.4
810.012	37.16
810.313	35.27
810.615	31.33
810.916	32.19
811.217	35.64
811.518	34.65
811.819	30.71
812.12	30.54
812.421	38.31
812.722	38.11
813.023	35.74
813.323	31.57
813.624	37.51
813.925	39.17
814.225	31.52
814.526	31.43
814.826	29.38
815.126	30.25
815.427	37.55
815.727	33.19
816.027	31.62
816.327	35.89
816.627	37.58
816.927	30.46
817.227	34.92
817.527	29.57
817.827	33.62
818.127	33.97
818.427	34.34
818.727	31.97
819.026	33.71
819.326	36.51
819.625	32.76
819.925	36.93
820.224	29.57
820.524	30.16
820.823	35.82
821.122	30.4
821.421	33.34
821.72	34.6
822.019	33.28
822.318	36.09
822.617	33.74
822.916	35.69
823.215	34.82
823.514	36.02
823.813	35.59
824.111	34.08
824.41	34.25
824.709	34.7
825.007	34.61
825.306	34.64
825.604	34.78
825.902	35.83
826.201	35.04
826.499	34.53
826.797	35.02
827.095	35.99
827.393	36.2
827.691	36.42
827.989	35.94
828.287	35.18
828.585	34.75
828.882	34.8
829.18	36.12
829.478	35.89
829.775	34.18
830.073	36.05
830.37	35.12
830.668	36.1
830.965	35.57
831.263	36.51
831.56	36.37
831.857	36.23
832.154	32.05
832.451	34.33
832.748	31.77
833.045	34.22
833.342	35.96
833.639	32.61
833.936	33.25
834.232	37.91
834.529	36.88
834.826	29.34
835.122	39.96
835.419	35.86
835.715	33.63
836.012	37.24
836.308	31.24
836.604	34.41
836.901	35.84
837.197	34.21
837.493	34.43
837.789	32.72
838.085	36.64
838.381	34.53
838.677	34.21
838.972	34.57
839.268	40.2
839.564	31.67
839.86	35.81
840.155	32.83
840.451	23.27
840.746	39.33
841.042	32.29
841.337	44.84
841.632	38.84
841.928	36.12
842.223	30.9
842.518	25.52
842.813	32.39
843.108	31.6
843.403	30.46
843.698	32.21
843.993	37.09
844.287	36.12
844.582	29.32
844.877	30.22
845.171	33.28
845.466	37.32
845.761	28.58
846.055	38.35
846.349	14.96
846.644	40.69
846.938	35.77
847.232	33.77
847.526	31.4
847.82	31.92
848.114	40.98
848.408	32.25
848.702	32.78
848.996	31.45
849.29	28.29
849.584	16.98
849.877	27.09
850.171	31.05
850.465	32.15
850.758	18.39
851.052	43.8
851.345	41.88
851.638	45.61
851.932	42.77
852.225	52.46
852.518	22.09
852.811	46.49
853.104	40.46
853.397	43.67
853.69	33.19
853.983	39.14
854.276	48.01
854.569	27.56
854.861	34.84
855.154	22.68
855.447	29.04
855.739	25.3
856.032	38.15
856.324	38.9
856.616	46.42
856.909	11.48
857.201	54.83
857.493	38.58
857.785	29.98
858.077	40.7
858.369	19.46
858.661	39.44
858.953	38.78
859.245	36.05
859.537	38.47
859.829	36.58
860.12	21.73
860.412	10.59
860.703	44.23
860.995	39.26
861.286	10.95
861.578	11.2
861.869	33.66
862.16	27.73
862.452	47.14
862.743	48.61
863.034	32.48
863.325	38.26
863.616	39.96
863.907	34.34
864.198	1.8
864.488	52.86
864.779	32.81
865.07	6.87
865.36	25.9
865.651	67.86
865.941	60.22
866.232	37.81
866.522	41.01
866.813	35.23
867.103	39.78
867.393	52.78
867.683	38.71
867.973	55.56
868.263	21.44
868.553	29.67
868.843	30.26
869.133	32.23
869.423	37.45
869.713	33.12
870.002	24.72
870.292	30.91
870.582	33.8
870.871	25.12
871.161	34.09
871.45	40
871.739	20.83
872.029	31.39
872.318	50.71
872.607	35.62
872.896	37.81
873.185	13.74
873.474	30.72
873.763	42.77
874.052	18.59
874.341	23.56
874.63	28.84
874.918	31.72
875.207	48.39
875.496	53.95
875.784	13.88
876.073	46.4
876.361	46.29
876.649	26.25
876.938	30.75
877.226	21.06
877.514	23.46
877.802	40.99
878.09	52.7
878.378	34.08
878.666	27.65
878.954	10.7
879.242	30.36
879.53	-9.96
879.817	22.2
880.105	22.8
880.392	44.74
880.68	87.33
880.967	46.41
881.255	39.8
881.542	-4.72
881.83	28.29
882.117	51.3
882.404	40.25
882.691	58.04
882.978	33.12
883.265	23.66
883.552	54.37
883.839	7.99
884.126	29.72
884.413	36.43
884.699	37.18
884.986	34.22
885.273	38.56
885.559	38.56
885.846	38.56
