Data from 0063_forehead_Reflection__0__218.txt Node

Date: Fri Dec 16 15:40:30 CST 2022
User: ToomeyLab
Spectrometer: FLMS14357
Trigger mode: 0
Integration Time (sec): 1.000000E-2
Scans to average: 100
Electric dark correction enabled: true
Nonlinearity correction enabled: false
Boxcar width: 0
XAxis mode: Wavelengths
Number of Pixels in Spectrum: 2048
>>>>>Begin Spectral Data<<<<<
189.047	-624.88
189.435	-624.88
189.823	-624.88
190.211	57.95
190.599	34.58
190.987	792.73
191.375	82.33
191.763	185.88
192.151	192.35
192.538	145.74
192.926	-75.09
193.314	80.41
193.702	-87.18
194.089	237.2
194.477	52.64
194.864	165.36
195.252	50.27
195.639	38.11
196.027	125.05
196.414	-591.6
196.801	275.32
197.189	38.05
197.576	24.14
197.963	-471.47
198.351	16.33
198.738	-33.41
199.125	35.6
199.512	3.34
199.899	32.72
200.286	-37.29
200.673	70.94
201.06	40.82
201.447	50.22
201.833	10.95
202.22	30.18
202.607	-11.66
202.994	25.52
203.38	-11.78
203.767	32.58
204.154	6.32
204.54	27.36
204.927	74.47
205.313	41.87
205.699	34.64
206.086	64.36
206.472	-28.24
206.858	19.05
207.245	29.79
207.631	6.11
208.017	12.23
208.403	42.82
208.789	50.39
209.175	49.98
209.561	42.56
209.947	10.67
210.333	10.18
210.719	-17.66
211.105	-17
211.491	24.55
211.876	23.94
212.262	-50.19
212.648	7.05
213.034	-5.5
213.419	39.11
213.805	48.94
214.19	16.14
214.576	10.42
214.961	-25.22
215.346	-24.17
215.732	51.36
216.117	48.16
216.502	15.28
216.888	-1.95
217.273	12.23
217.658	-27.04
218.043	26.4
218.428	10.96
218.813	4.13
219.198	-25.59
219.583	16.76
219.968	0.63
220.353	11.99
220.738	15.33
221.122	-15.1
221.507	-3.79
221.892	22.1
222.276	-3.05
222.661	14.23
223.046	13.82
223.43	-2.32
223.815	24.48
224.199	14.36
224.583	-0.53
224.968	19.84
225.352	0.66
225.736	10.53
226.121	3.89
226.505	14.21
226.889	10.32
227.273	10.13
227.657	4.35
228.041	6.52
228.425	4.77
228.809	8.6
229.193	2.23
229.577	5.77
229.961	5.05
230.344	4.79
230.728	4.54
231.112	4.69
231.495	4.68
231.879	5.76
232.263	2.29
232.646	4.36
233.03	3.42
233.413	4.92
233.797	6.21
234.18	4.95
234.563	3.17
234.946	1.6
235.33	5.09
235.713	4.66
236.096	4.05
236.479	6.38
236.862	6.11
237.245	4.48
237.628	5.54
238.011	4.39
238.394	8.63
238.777	4.75
239.16	4.64
239.543	3.19
239.925	7.27
240.308	5.84
240.691	4.44
241.073	3.91
241.456	4.61
241.838	3.61
242.221	4.35
242.603	4.96
242.986	5.56
243.368	4.52
243.75	4.1
244.133	4.41
244.515	3.98
244.897	4.8
245.279	5.15
245.661	4.9
246.043	5.3
246.425	5.06
246.807	5.01
247.189	4.6
247.571	5
247.953	4.82
248.335	4.98
248.717	4.91
249.098	5.01
249.48	4.76
249.862	5.07
250.243	4.66
250.625	5.05
251.006	4.74
251.388	5.75
251.769	4.24
252.151	4.93
252.532	5.23
252.913	5.5
253.295	4.96
253.676	5.38
254.057	4.7
254.438	5.03
254.819	5.75
255.2	5.8
255.581	4.76
255.962	5.78
256.343	6.3
256.724	5.68
257.105	5.65
257.486	6.32
257.867	4.38
258.247	5.59
258.628	5.83
259.009	5.67
259.389	5.53
259.77	5.12
260.15	5.75
260.531	5.22
260.911	4.91
261.292	4.84
261.672	4.97
262.052	4.67
262.432	5.2
262.813	5.29
263.193	4.88
263.573	5.09
263.953	4.82
264.333	4.87
264.713	4.93
265.093	4.83
265.473	5.09
265.853	5.37
266.233	4.07
266.612	4.87
266.992	5.02
267.372	5.28
267.752	4.61
268.131	4.84
268.511	5.24
268.89	4.97
269.27	5.24
269.649	5.33
270.029	4.77
270.408	4.87
270.787	4.18
271.167	5.16
271.546	4.44
271.925	4.53
272.304	4.74
272.683	4.59
273.062	5.21
273.441	5.03
273.82	4.85
274.199	4.74
274.578	4.81
274.957	5.12
275.336	4.88
275.715	4.25
276.093	4.94
276.472	5.02
276.851	5.1
277.229	5.38
277.608	4.54
277.986	4.19
278.365	4.95
278.743	4.95
279.122	4.35
279.5	4.37
279.878	4.19
280.257	4.71
280.635	4.26
281.013	5.07
281.391	4.68
281.769	4.52
282.147	4.6
282.525	4.69
282.903	4.72
283.281	4.73
283.659	4.98
284.037	4.61
284.415	4.97
284.792	4.62
285.17	4.52
285.548	5.07
285.925	4.78
286.303	4.52
286.68	4.7
287.058	4.71
287.435	4.44
287.813	4.92
288.19	5.39
288.567	4.78
288.945	4.62
289.322	4.77
289.699	5.36
290.076	5.46
290.453	4.9
290.83	5.65
291.207	5.49
291.584	5.11
291.961	5.57
292.338	5.22
292.715	5.73
293.092	5.53
293.469	5.86
293.845	5.7
294.222	5.92
294.599	6.8
294.975	5.8
295.352	5.41
295.728	5.53
296.105	5.85
296.481	6.44
296.858	6.07
297.234	5.83
297.61	6.6
297.986	6.21
298.363	5.95
298.739	6.44
299.115	5.95
299.491	6.23
299.867	6.12
300.243	5.89
300.619	6.16
300.995	6.79
301.371	6.68
301.746	6.5
302.122	6.62
302.498	6.65
302.874	6.96
303.249	7.11
303.625	6.69
304	6.33
304.376	6.62
304.751	6.69
305.127	6.91
305.502	7.15
305.878	6.93
306.253	7.22
306.628	7.38
307.003	7.18
307.378	7.52
307.754	7.77
308.129	6.88
308.504	7.06
308.879	7.73
309.254	7.73
309.629	7.69
310.003	7.72
310.378	7.41
310.753	8.21
311.128	7.31
311.502	7.63
311.877	7.67
312.252	7.46
312.626	7.5
313.001	7.53
313.375	7.83
313.75	7.34
314.124	7.91
314.498	7.62
314.873	7.44
315.247	7.96
315.621	8.37
315.995	8.19
316.369	8.16
316.743	8.04
317.117	8.36
317.491	8.32
317.865	7.89
318.239	8.46
318.613	8.27
318.987	8.11
319.361	8.86
319.734	8.81
320.108	9.04
320.482	8.44
320.855	8.68
321.229	9.08
321.602	8.5
321.976	8.51
322.349	8.53
322.723	8.54
323.096	8.93
323.469	8.42
323.843	9.37
324.216	8.41
324.589	9.75
324.962	9.08
325.335	8.92
325.708	9.05
326.081	9.35
326.454	9.16
326.827	9.45
327.2	9.65
327.573	9.15
327.945	9.46
328.318	9.38
328.691	9.42
329.063	8.87
329.436	9.53
329.809	9.15
330.181	9.33
330.553	9.59
330.926	9.53
331.298	9.54
331.671	9.16
332.043	9.78
332.415	10.18
332.787	10.18
333.159	9.96
333.532	9.65
333.904	9.57
334.276	9.93
334.648	9.9
335.02	9.76
335.391	10.23
335.763	9.48
336.135	10.21
336.507	10.03
336.879	9.58
337.25	10.5
337.622	10.07
337.993	10.85
338.365	10.74
338.736	10.02
339.108	9.98
339.479	10.28
339.851	10.56
340.222	10.64
340.593	9.97
340.964	10.17
341.336	9.98
341.707	10.85
342.078	10.16
342.449	10.61
342.82	10.53
343.191	10.41
343.562	10.81
343.933	10.64
344.303	10.34
344.674	10.87
345.045	10.89
345.416	10.7
345.786	10.35
346.157	10.99
346.527	10.73
346.898	10.6
347.268	10.83
347.639	10.81
348.009	11.29
348.38	11.46
348.75	11.02
349.12	11.34
349.49	10.97
349.861	11.29
350.231	11.44
350.601	10.95
350.971	11.33
351.341	11.4
351.711	11.2
352.081	11.49
352.45	11.94
352.82	11.28
353.19	11.36
353.56	11.57
353.929	11.35
354.299	11.65
354.669	11.9
355.038	11.57
355.408	11.99
355.777	11.68
356.147	11.97
356.516	11.91
356.885	11.75
357.254	11.64
357.624	11.9
357.993	11.91
358.362	12
358.731	11.82
359.1	12.06
359.469	12
359.838	11.89
360.207	12.07
360.576	12.07
360.945	11.91
361.314	12.13
361.682	11.95
362.051	12.16
362.42	12.46
362.788	12.31
363.157	12.02
363.525	11.99
363.894	12.05
364.262	12.28
364.631	12.97
364.999	12.23
365.367	12.83
365.735	12.2
366.104	12.16
366.472	12.52
366.84	12.59
367.208	12.56
367.576	12.66
367.944	12.78
368.312	12.46
368.68	12.64
369.048	13.02
369.416	12.91
369.783	12.68
370.151	12.76
370.519	13.05
370.886	13.02
371.254	12.96
371.621	13.11
371.989	13.05
372.356	13.15
372.724	13.15
373.091	13.05
373.458	13.11
373.826	13.16
374.193	13.57
374.56	12.96
374.927	13.46
375.294	13.65
375.661	13.6
376.028	13.16
376.395	13.81
376.762	13.58
377.129	13.72
377.496	13.47
377.863	13.6
378.229	13.58
378.596	13.47
378.963	13.57
379.329	13.76
379.696	13.92
380.062	13.86
380.429	14.1
380.795	13.79
381.161	13.9
381.528	13.57
381.894	14.17
382.26	13.75
382.626	14.06
382.993	14.21
383.359	14.07
383.725	14.31
384.091	14.22
384.457	14.29
384.823	14.13
385.188	14.35
385.554	14.39
385.92	14.56
386.286	14.51
386.651	14.19
387.017	14.71
387.383	14.5
387.748	14.34
388.114	14.67
388.479	14.51
388.845	14.6
389.21	14.82
389.575	14.56
389.94	14.58
390.306	14.78
390.671	14.8
391.036	14.77
391.401	15.1
391.766	15.14
392.131	14.83
392.496	15.12
392.861	14.86
393.226	14.84
393.591	14.98
393.956	15.13
394.32	15.12
394.685	15.06
395.05	14.91
395.414	15.19
395.779	15.1
396.143	15.14
396.508	15.66
396.872	15.24
397.236	15.14
397.601	15.28
397.965	15.1
398.329	15.23
398.694	15.2
399.058	15.72
399.422	15.39
399.786	15.6
400.15	15.48
400.514	15.57
400.878	15.72
401.242	15.68
401.605	15.56
401.969	15.83
402.333	15.73
402.697	15.74
403.06	15.96
403.424	15.86
403.787	16.03
404.151	15.98
404.514	15.92
404.878	16
405.241	16.3
405.604	15.98
405.968	16.16
406.331	16.03
406.694	16.18
407.057	16.37
407.42	16.02
407.783	16.18
408.146	16.1
408.509	16.04
408.872	16.18
409.235	16.15
409.598	16.44
409.961	16.42
410.323	16.41
410.686	16.38
411.049	16.38
411.411	16.59
411.774	16.47
412.136	16.51
412.499	16.36
412.861	16.32
413.223	16.55
413.586	16.69
413.948	16.79
414.31	17.01
414.672	16.96
415.035	16.97
415.397	16.77
415.759	16.7
416.121	16.96
416.483	16.9
416.845	16.81
417.206	16.98
417.568	16.85
417.93	16.99
418.292	17.06
418.653	16.97
419.015	16.89
419.377	16.95
419.738	16.95
420.1	16.98
420.461	16.69
420.822	16.95
421.184	16.87
421.545	17.03
421.906	17
422.267	16.94
422.629	16.9
422.99	17
423.351	17.14
423.712	17.19
424.073	17.25
424.434	17.12
424.795	17.24
425.155	17.15
425.516	17.19
425.877	17.22
426.238	17.22
426.598	17.27
426.959	17.33
427.32	17.46
427.68	17.64
428.041	17.56
428.401	17.58
428.761	17.51
429.122	17.78
429.482	17.84
429.842	17.8
430.202	17.76
430.563	18
430.923	17.88
431.283	18.04
431.643	17.84
432.003	18.13
432.363	18.22
432.722	18.09
433.082	18.19
433.442	18.1
433.802	18.11
434.161	18.1
434.521	18.22
434.881	18.33
435.24	18.15
435.6	18.09
435.959	18.26
436.319	18.14
436.678	18.37
437.037	18.47
437.396	18.58
437.756	18.48
438.115	18.57
438.474	18.65
438.833	18.85
439.192	18.74
439.551	18.58
439.91	18.59
440.269	18.66
440.628	18.74
440.987	18.72
441.345	18.59
441.704	18.64
442.063	18.61
442.421	18.57
442.78	18.64
443.138	18.65
443.497	18.8
443.855	18.78
444.214	18.91
444.572	18.88
444.93	19.22
445.288	19.15
445.647	19.11
446.005	19.04
446.363	19.1
446.721	18.97
447.079	19.02
447.437	19
447.795	18.85
448.153	18.96
448.51	18.82
448.868	19.12
449.226	19.19
449.584	19.18
449.941	19.36
450.299	19.34
450.656	19.42
451.014	19.3
451.371	19.45
451.729	19.58
452.086	19.5
452.443	19.61
452.801	19.74
453.158	19.67
453.515	19.59
453.872	19.71
454.229	19.67
454.586	19.65
454.943	19.85
455.3	19.88
455.657	19.87
456.014	19.99
456.371	19.94
456.727	20.02
457.084	19.98
457.441	20.08
457.797	20.15
458.154	20.16
458.51	20.1
458.867	20.17
459.223	20.19
459.58	20.21
459.936	20.22
460.292	20.23
460.648	20.05
461.005	19.91
461.361	20.02
461.717	20.01
462.073	20.03
462.429	20.16
462.785	20.28
463.141	20.39
463.496	20.51
463.852	20.53
464.208	20.66
464.564	20.61
464.919	20.56
465.275	20.7
465.631	20.72
465.986	20.58
466.342	20.65
466.697	20.64
467.052	20.75
467.408	20.8
467.763	20.7
468.118	20.81
468.473	21.09
468.829	20.81
469.184	21.11
469.539	21.03
469.894	21.06
470.249	21
470.603	21.5
470.958	21.28
471.313	21.11
471.668	21.41
472.023	21.39
472.377	21.36
472.732	21.24
473.086	21.27
473.441	21.73
473.795	21.55
474.15	21.38
474.504	21.38
474.859	21.46
475.213	21.6
475.567	21.52
475.921	21.76
476.275	21.79
476.63	21.74
476.984	21.55
477.338	21.84
477.692	21.73
478.045	21.74
478.399	21.83
478.753	21.7
479.107	21.83
479.461	21.73
479.814	21.86
480.168	21.88
480.521	21.71
480.875	22.05
481.228	21.83
481.582	21.8
481.935	21.98
482.289	21.81
482.642	22.11
482.995	21.82
483.348	21.73
483.701	21.7
484.055	21.62
484.408	21.4
484.761	21.14
485.114	21.16
485.466	21.14
485.819	21.17
486.172	21.35
486.525	21.52
486.878	21.59
487.23	21.7
487.583	21.79
487.936	21.91
488.288	21.69
488.641	21.51
488.993	21.44
489.345	21.59
489.698	21.71
490.05	21.76
490.402	21.92
490.754	22.05
491.107	22.29
491.459	22.33
491.811	22.46
492.163	22.32
492.515	22.16
492.866	21.99
493.218	21.85
493.57	22.11
493.922	22.15
494.274	22.38
494.625	22.62
494.977	22.6
495.328	22.8
495.68	22.99
496.031	23
496.383	23.1
496.734	23.21
497.086	23.21
497.437	23.14
497.788	23
498.139	22.9
498.49	23.04
498.842	23.08
499.193	23.06
499.544	23.3
499.894	23.22
500.245	23.34
500.596	23.23
500.947	23.47
501.298	23.37
501.648	23.61
501.999	23.79
502.35	23.78
502.7	23.78
503.051	23.84
503.401	23.79
503.752	23.73
504.102	24
504.452	23.81
504.803	23.84
505.153	23.88
505.503	23.76
505.853	23.79
506.203	23.94
506.553	24.06
506.903	23.88
507.253	24.2
507.603	24.11
507.953	24.22
508.303	24.05
508.652	24.3
509.002	24.28
509.352	24.14
509.701	23.97
510.051	24.18
510.4	24.14
510.75	24.26
511.099	24.25
511.449	24.21
511.798	24.34
512.147	24.28
512.496	24.42
512.846	24.26
513.195	24.47
513.544	24.31
513.893	24.44
514.242	24.57
514.591	24.59
514.939	24.42
515.288	24.51
515.637	24.69
515.986	24.73
516.334	24.89
516.683	24.8
517.032	24.89
517.38	24.89
517.729	24.78
518.077	24.86
518.426	24.93
518.774	24.99
519.122	24.75
519.47	24.76
519.819	24.69
520.167	24.68
520.515	24.67
520.863	24.79
521.211	24.92
521.559	25.09
521.907	25.02
522.255	25.08
522.602	25.3
522.95	25.28
523.298	25.43
523.645	25.45
523.993	25.56
524.341	25.43
524.688	25.38
525.036	25.68
525.383	25.53
525.73	25.61
526.078	25.6
526.425	25.38
526.772	25.16
527.119	25.19
527.466	25.27
527.814	25.34
528.161	25.43
528.508	25.36
528.854	25.13
529.201	25.3
529.548	25.01
529.895	24.9
530.242	24.92
530.588	25.08
530.935	25.09
531.282	25.18
531.628	25.28
531.975	25.44
532.321	25.54
532.667	25.71
533.014	25.84
533.36	25.86
533.706	25.76
534.052	25.66
534.399	25.52
534.745	25.34
535.091	25.57
535.437	25.59
535.783	25.77
536.129	25.91
536.474	26.06
536.82	26.16
537.166	26.16
537.512	26.29
537.857	26.27
538.203	26.11
538.549	26.23
538.894	26.2
539.239	26.46
539.585	26.52
539.93	26.66
540.276	26.7
540.621	26.73
540.966	26.82
541.311	26.73
541.656	26.55
542.001	26.37
542.346	26.21
542.691	26.11
543.036	26.08
543.381	26.25
543.726	26.23
544.071	26.56
544.415	26.47
544.76	26.43
545.105	26.68
545.449	26.75
545.794	26.89
546.138	27.09
546.483	27.18
546.827	27.1
547.171	27.21
547.516	27.36
547.86	27.07
548.204	27.04
548.548	27.12
548.892	27.23
549.236	27.49
549.58	27.48
549.924	27.79
550.268	27.8
550.612	27.87
550.956	27.87
551.3	27.82
551.643	28
551.987	27.75
552.33	27.83
552.674	27.99
553.017	28.04
553.361	28.1
553.704	28.02
554.048	28.02
554.391	27.98
554.734	28.08
555.077	28.21
555.42	28.25
555.764	28.44
556.107	28.43
556.45	28.28
556.793	28.39
557.135	28.36
557.478	28.2
557.821	28.46
558.164	28.59
558.507	28.29
558.849	28.64
559.192	28.61
559.534	28.46
559.877	28.7
560.219	28.83
560.562	28.86
560.904	28.89
561.246	28.97
561.589	28.99
561.931	29.05
562.273	29
562.615	28.78
562.957	28.82
563.299	28.93
563.641	29.09
563.983	29.17
564.325	28.94
564.667	28.85
565.008	29.07
565.35	29.17
565.692	29.09
566.033	29.14
566.375	28.99
566.716	29.14
567.058	29.25
567.399	29.19
567.741	29.21
568.082	29.19
568.423	28.96
568.764	29.23
569.105	29.4
569.447	29.08
569.788	29.2
570.129	29.38
570.47	29.54
570.811	29.65
571.151	29.5
571.492	29.63
571.833	29.64
572.174	29.33
572.514	29.69
572.855	29.58
573.195	29.5
573.536	29.46
573.876	29.51
574.217	29.73
574.557	29.81
574.898	29.73
575.238	29.68
575.578	29.92
575.918	29.94
576.258	29.89
576.598	29.84
576.938	30.03
577.278	30.04
577.618	30.07
577.958	30
578.298	30.25
578.638	30.03
578.977	30.22
579.317	30.11
579.657	30.39
579.996	30.35
580.336	30.27
580.675	30.4
581.014	30.6
581.354	30.79
581.693	30.51
582.032	30.43
582.372	30.67
582.711	30.57
583.05	30.63
583.389	30.88
583.728	30.68
584.067	30.9
584.406	30.79
584.745	30.59
585.083	30.86
585.422	30.98
585.761	30.92
586.1	30.96
586.438	30.94
586.777	30.95
587.115	31.29
587.454	31
587.792	31.11
588.13	31.39
588.469	31.05
588.807	31.33
589.145	31.08
589.483	30.72
589.821	31.05
590.159	31.44
590.497	30.97
590.835	31.29
591.173	31.44
591.511	31.19
591.849	31.43
592.187	31.34
592.524	31.41
592.862	31.52
593.2	31.53
593.537	31.43
593.875	31.61
594.212	31.91
594.55	31.56
594.887	31.54
595.224	31.7
595.561	31.61
595.899	31.67
596.236	31.82
596.573	32.05
596.91	31.8
597.247	31.66
597.584	31.57
597.921	31.76
598.258	31.59
598.594	31.57
598.931	31.56
599.268	31.62
599.604	31.91
599.941	31.56
600.277	31.93
600.614	32.12
600.95	32.36
601.287	31.98
601.623	32.55
601.959	32.07
602.296	32.25
602.632	32.23
602.968	32.29
603.304	32.39
603.64	32.08
603.976	32.25
604.312	32.21
604.648	32.15
604.984	32.22
605.319	32.27
605.655	32.26
605.991	32.11
606.326	32.05
606.662	31.97
606.998	32.06
607.333	32.26
607.668	32.66
608.004	32.57
608.339	32.43
608.674	32.8
609.01	32.73
609.345	32.82
609.68	32.46
610.015	32.72
610.35	32.9
610.685	32.45
611.02	32.58
611.355	32.78
611.689	32.58
612.024	32.99
612.359	32.61
612.694	33.15
613.028	32.95
613.363	32.95
613.697	32.85
614.032	32.97
614.366	32.95
614.7	33.71
615.035	32.86
615.369	32.98
615.703	33.31
616.037	32.97
616.371	32.99
616.705	33.55
617.039	33.46
617.373	33.33
617.707	33.21
618.041	33.44
618.375	33.39
618.709	33.06
619.042	33.29
619.376	33.25
619.71	33.53
620.043	33.5
620.377	33.51
620.71	33.24
621.043	33.44
621.377	33.32
621.71	33.84
622.043	33.53
622.376	33.88
622.709	33.82
623.043	33.71
623.376	33.7
623.709	34.09
624.041	33.65
624.374	33.86
624.707	33.54
625.04	34.21
625.373	33.79
625.705	33.92
626.038	34.05
626.37	33.93
626.703	34.11
627.035	34.1
627.368	34.41
627.7	34.15
628.032	33.98
628.365	33.87
628.697	33.89
629.029	34.23
629.361	33.99
629.693	34.1
630.025	34.32
630.357	34.23
630.689	34.77
631.021	34.34
631.353	34.33
631.684	34.31
632.016	34.41
632.348	34.56
632.679	34.32
633.011	34.33
633.342	34.45
633.674	34.62
634.005	34.52
634.336	34.61
634.668	34.58
634.999	34.41
635.33	34.45
635.661	34.92
635.992	34.73
636.323	34.75
636.654	34.72
636.985	34.97
637.316	34.84
637.647	34.84
637.977	34.74
638.308	34.45
638.639	34.51
638.969	34.55
639.3	34.63
639.63	34.71
639.961	34.91
640.291	34.87
640.622	35.44
640.952	34.75
641.282	34.47
641.612	34.95
641.943	35.34
642.273	34.89
642.603	35.12
642.933	34.95
643.263	35.8
643.592	35.27
643.922	35.26
644.252	35.75
644.582	35.5
644.911	35.15
645.241	35.31
645.571	34.31
645.9	35.55
646.23	35.78
646.559	35.78
646.888	35.26
647.218	35.5
647.547	35.29
647.876	35.61
648.205	34.99
648.534	35.77
648.863	36.37
649.192	35.3
649.521	35.57
649.85	35.92
650.179	35.17
650.508	35.06
650.837	35.33
651.165	35.62
651.494	35.75
651.822	35.76
652.151	36.03
652.479	35.82
652.808	35.75
653.136	35.36
653.465	35.85
653.793	35.88
654.121	36.08
654.449	36.03
654.777	36.16
655.105	36
655.433	36.05
655.761	36.02
656.089	35.73
656.417	36.02
656.745	36.52
657.073	36.49
657.4	36.18
657.728	36.39
658.056	36.26
658.383	36.57
658.711	36.36
659.038	36.48
659.365	36.48
659.693	36.41
660.02	35.72
660.347	36.44
660.674	35.91
661.001	36.31
661.329	36.61
661.656	36.23
661.982	35.91
662.309	36.54
662.636	36.48
662.963	36.84
663.29	36.55
663.616	36.78
663.943	36.87
664.27	36.82
664.596	36.61
664.923	36.9
665.249	36.82
665.576	36.88
665.902	36.49
666.228	36.64
666.554	36.9
666.881	36.86
667.207	36.05
667.533	37.29
667.859	36.56
668.185	37.08
668.511	36.4
668.837	36.95
669.162	37.1
669.488	36.53
669.814	36.85
670.139	37.01
670.465	36.88
670.791	37.05
671.116	37.44
671.442	36.73
671.767	37.26
672.092	37.47
672.418	37.96
672.743	36.94
673.068	37.18
673.393	37.28
673.718	37.38
674.043	36.96
674.368	36.98
674.693	37.38
675.018	36.72
675.343	37.55
675.667	36.94
675.992	36.77
676.317	37.91
676.641	37.36
676.966	37.19
677.29	37.03
677.615	37.29
677.939	36.68
678.264	37.17
678.588	37.2
678.912	37.17
679.236	38.57
679.56	37.64
679.885	37.54
680.209	36.97
680.532	37.58
680.856	37.97
681.18	37.98
681.504	36.75
681.828	37.57
682.152	37.71
682.475	37.65
682.799	37.91
683.122	37.8
683.446	37.81
683.769	37.92
684.093	37.52
684.416	37.58
684.739	37.75
685.062	37.04
685.386	37.52
685.709	37.71
686.032	37.95
686.355	37.73
686.678	37.88
687.001	37.72
687.324	37.81
687.646	37.89
687.969	38.42
688.292	37.8
688.614	38.58
688.937	37.56
689.26	37.9
689.582	37.44
689.904	38.23
690.227	38.38
690.549	38.22
690.871	38
691.194	38.92
691.516	38.5
691.838	37.87
692.16	37.7
692.482	38.11
692.804	37.74
693.126	37.67
693.448	38.32
693.769	38.99
694.091	38.83
694.413	38.4
694.735	38.52
695.056	38.93
695.378	38.36
695.699	39.5
696.021	37.92
696.342	38.41
696.663	38.24
696.984	38.38
697.306	38.44
697.627	38.34
697.948	38.64
698.269	38.76
698.59	38.51
698.911	38.67
699.232	39.42
699.553	38.73
699.873	38.47
700.194	38.28
700.515	38.39
700.835	38.57
701.156	39.27
701.477	38.54
701.797	39.17
702.117	39.24
702.438	39.08
702.758	39.02
703.078	38.79
703.398	38.48
703.719	38.57
704.039	38.65
704.359	37.99
704.679	38.89
704.999	38.69
705.319	39.14
705.638	40.21
705.958	38.73
706.278	39.39
706.597	39.21
706.917	39.53
707.237	40.04
707.556	39.11
707.876	39.26
708.195	38.41
708.514	38.51
708.834	38.86
709.153	39.91
709.472	39.69
709.791	40.83
710.11	38.92
710.429	38.71
710.748	38.65
711.067	39.64
711.386	39.77
711.705	38.58
712.023	39.38
712.342	39.4
712.661	39.58
712.979	39.96
713.298	39.67
713.616	40.21
713.935	39.98
714.253	40.28
714.572	39.28
714.89	39.55
715.208	39.75
715.526	40.64
715.844	38.91
716.162	40
716.48	39.94
716.798	40.43
717.116	40.12
717.434	40.1
717.752	39.65
718.069	39.46
718.387	38.49
718.705	39.88
719.022	40.05
719.34	39.8
719.657	39.2
719.975	40.16
720.292	39.32
720.609	39.2
720.927	39.51
721.244	40.58
721.561	40.13
721.878	40.28
722.195	40.44
722.512	39.88
722.829	40.39
723.146	39.89
723.463	40.64
723.779	39.03
724.096	38.98
724.413	39.64
724.729	40.15
725.046	41.38
725.362	40.23
725.679	40.86
725.995	40.87
726.311	41.3
726.628	39.8
726.944	40.15
727.26	39.63
727.576	41.51
727.892	40.95
728.208	40.06
728.524	40.72
728.84	40.49
729.156	40.78
729.472	40.64
729.787	40.98
730.103	40.08
730.419	41.69
730.734	40.08
731.05	40.69
731.365	40.06
731.681	38.82
731.996	40.7
732.311	40.48
732.626	41.27
732.942	41.83
733.257	40.91
733.572	41.14
733.887	40.56
734.202	40.78
734.517	41.5
734.832	42.29
735.146	40.02
735.461	41.39
735.776	40.91
736.091	41.26
736.405	41.86
736.72	41.41
737.034	40.77
737.349	40.32
737.663	40.83
737.977	40.52
738.292	40.37
738.606	41.61
738.92	40.71
739.234	41.58
739.548	41.86
739.862	42.12
740.176	40.08
740.49	42.07
740.804	40.92
741.117	41.07
741.431	38.63
741.745	40.89
742.058	40.71
742.372	40.77
742.685	40.01
742.999	40.89
743.312	39.72
743.626	40.38
743.939	41.03
744.252	42.72
744.565	40.16
744.878	41.8
745.191	41.13
745.505	41.78
745.817	40.42
746.13	41
746.443	42.04
746.756	41.1
747.069	40.62
747.381	41.41
747.694	39.89
748.007	41.51
748.319	42.33
748.632	42.28
748.944	41.63
749.256	43.8
749.569	41.75
749.881	42.29
750.193	42.44
750.505	43.27
750.817	40.64
751.129	41.38
751.441	40.91
751.753	42.38
752.065	41.82
752.377	42.41
752.689	42.64
753	40.94
753.312	41.83
753.624	43.89
753.935	42.22
754.247	41.28
754.558	43.34
754.869	44.13
755.181	43
755.492	43.64
755.803	41.36
756.114	41.41
756.425	41.68
756.736	43.07
757.047	41.75
757.358	42.78
757.669	43
757.98	43.43
758.291	42.27
758.601	42.38
758.912	42.19
759.223	44.06
759.533	42.43
759.844	41.4
760.154	44.2
760.464	42.26
760.775	42.67
761.085	40.55
761.395	43.96
761.705	43.77
762.016	41.87
762.326	42.68
762.636	42.21
762.945	38.94
763.255	44.17
763.565	41.36
763.875	40.65
764.185	41.75
764.494	40.57
764.804	42.83
765.113	42.17
765.423	42.73
765.732	41.44
766.042	43.56
766.351	43.64
766.66	41.99
766.97	42
767.279	43.57
767.588	43.61
767.897	43.82
768.206	43.9
768.515	42.33
768.824	42.75
769.133	42.68
769.441	43.31
769.75	42.34
770.059	42.25
770.367	42.68
770.676	42.12
770.984	42.05
771.293	43.28
771.601	41.74
771.91	45.24
772.218	44.09
772.526	42.91
772.834	44.96
773.142	39.86
773.45	42.31
773.758	44.29
774.066	38.73
774.374	40.27
774.682	43.78
774.99	43.34
775.298	41
775.605	42.38
775.913	45.07
776.22	42.07
776.528	42.18
776.835	42.36
777.143	42.71
777.45	44.68
777.757	41.41
778.065	46.18
778.372	44.8
778.679	48.29
778.986	44.49
779.293	42.39
779.6	42.24
779.907	40.7
780.214	43.38
780.52	43.61
780.827	43.52
781.134	42.76
781.44	41.83
781.747	42.73
782.053	43.16
782.36	42.52
782.666	44.1
782.973	43.45
783.279	43.89
783.585	43.89
783.891	44.35
784.197	47.08
784.503	46.96
784.809	44.57
785.115	40.54
785.421	43.36
785.727	44.99
786.033	40.17
786.339	43.32
786.644	42.85
786.95	42.86
787.255	44.4
787.561	44.15
787.866	43.22
788.172	43.43
788.477	42.71
788.782	41.53
789.088	46.16
789.393	44.46
789.698	43.38
790.003	41.54
790.308	42.29
790.613	46.18
790.918	46.57
791.223	46.58
791.527	46.58
791.832	42.67
792.137	44.16
792.441	44.43
792.746	41.91
793.05	45.93
793.355	45.48
793.659	43.37
793.963	45.57
794.268	43.74
794.572	46.13
794.876	45.38
795.18	44.53
795.484	43.15
795.788	40.87
796.092	43.61
796.396	42.37
796.7	48.03
797.004	44.6
797.307	42.45
797.611	43.54
797.915	42.62
798.218	44.83
798.522	41.97
798.825	47.33
799.128	49.4
799.432	46.18
799.735	44.33
800.038	42.28
800.341	44.47
800.644	42.29
800.947	46.6
801.25	40.39
801.553	46.07
801.856	45.12
802.159	48.43
802.462	43.19
802.764	44.56
803.067	44.99
803.37	45.63
803.672	46.24
803.975	46.9
804.277	48.26
804.579	45.53
804.882	44.11
805.184	40.54
805.486	42.59
805.788	46.8
806.09	44.38
806.392	49.08
806.694	48.18
806.996	44.19
807.298	44.79
807.6	40.93
807.902	43.81
808.203	47.02
808.505	46.41
808.807	46.3
809.108	46.96
809.409	48.05
809.711	45.39
810.012	46.09
810.313	46.26
810.615	45.92
810.916	43.52
811.217	46.88
811.518	41.69
811.819	44.1
812.12	47.91
812.421	40.3
812.722	44.24
813.023	47.52
813.323	45.48
813.624	46.07
813.925	50.08
814.225	50.17
814.526	50.29
814.826	48.75
815.126	50.17
815.427	42.95
815.727	50.58
816.027	43.77
816.327	48.41
816.627	44.96
816.927	44.34
817.227	40.15
817.527	47.95
817.827	44.89
818.127	47.55
818.427	43.06
818.727	40.61
819.026	50.37
819.326	49.03
819.625	45.11
819.925	46.86
820.224	48.22
820.524	46.67
820.823	44.66
821.122	42.55
821.421	49.02
821.72	44.94
822.019	46.35
822.318	44.95
822.617	48.14
822.916	47.63
823.215	45.35
823.514	44.67
823.813	44.97
824.111	44.69
824.41	44.62
824.709	46.1
825.007	45.72
825.306	46.14
825.604	46.21
825.902	46.92
826.201	47.19
826.499	46.8
826.797	46.78
827.095	45.34
827.393	45.73
827.691	46.89
827.989	46.5
828.287	48.1
828.585	44.95
828.882	45.49
829.18	44.58
829.478	45.55
829.775	47.29
830.073	45.97
830.37	46.03
830.668	43.21
830.965	46.31
831.263	44.63
831.56	48.58
831.857	49.76
832.154	46.91
832.451	49.03
832.748	49.52
833.045	48.95
833.342	43.08
833.639	49.91
833.936	46.55
834.232	49.27
834.529	46.98
834.826	49.1
835.122	51.56
835.419	44.24
835.715	46.2
836.012	47.55
836.308	46.25
836.604	46.26
836.901	48.46
837.197	46.99
837.493	48.97
837.789	44.53
838.085	45.15
838.381	47.55
838.677	42.06
838.972	49.17
839.268	44.37
839.564	48.9
839.86	44.65
840.155	49.25
840.451	43.43
840.746	53.41
841.042	36.5
841.337	50.85
841.632	54.95
841.928	43.69
842.223	46.72
842.518	51.5
842.813	48.01
843.108	38.89
843.403	51.28
843.698	42.03
843.993	54.27
844.287	47.57
844.582	51.33
844.877	50.83
845.171	48.38
845.466	31.86
845.761	46.26
846.055	48.9
846.349	56.17
846.644	46.84
846.938	39.9
847.232	51.21
847.526	47.81
847.82	52.75
848.114	46.5
848.408	41.53
848.702	40.88
848.996	48.98
849.29	49.48
849.584	55.53
849.877	60.21
850.171	51.4
850.465	58.42
850.758	47.76
851.052	62.02
851.345	50.49
851.638	53.6
851.932	59.52
852.225	59.61
852.518	50.41
852.811	46.42
853.104	59.28
853.397	37.93
853.69	55.48
853.983	40.45
854.276	51.64
854.569	41.49
854.861	52.07
855.154	46.18
855.447	67.81
855.739	64.02
856.032	40.23
856.324	28.9
856.616	56.76
856.909	50.14
857.201	61.97
857.493	32.1
857.785	27.79
858.077	46.88
858.369	51.3
858.661	66.39
858.953	19.54
859.245	64.8
859.537	62.71
859.829	38.24
860.12	39.32
860.412	54.3
860.703	47.7
860.995	39.96
861.286	40.22
861.578	30.91
861.869	63.23
862.16	33.23
862.452	43.8
862.743	79.52
863.034	52.39
863.325	76.75
863.616	78.84
863.907	40.19
864.198	49.16
864.488	42.73
864.779	35.7
865.07	64.38
865.36	55.64
865.651	63.03
865.941	69.6
866.232	42.42
866.522	54.45
866.813	67.52
867.103	46.04
867.393	39.25
867.683	37.06
867.973	47.9
868.263	48.21
868.553	51.71
868.843	6.88
869.133	58.06
869.423	57.21
869.713	60.52
870.002	32.18
870.292	65.73
870.582	48.79
870.871	24.47
871.161	35.91
871.45	69.18
871.739	21.56
872.029	50.8
872.318	46.03
872.607	43.51
872.896	75.81
873.185	95.64
873.474	51.49
873.763	81.23
874.052	56.07
874.341	19.34
874.63	55.25
874.918	52.23
875.207	40.29
875.496	66.98
875.784	76.41
876.073	35.03
876.361	47.06
876.649	58.36
876.938	32.96
877.226	74.93
877.514	45.37
877.802	43.71
878.09	43.02
878.378	56.11
878.666	31.81
878.954	52.19
879.242	75.68
879.53	5.31
879.817	62.31
880.105	36.23
880.392	49.37
880.68	43.19
880.967	43.33
881.255	79.55
881.542	50.14
881.83	73.86
882.117	33.6
882.404	41.66
882.691	49.58
882.978	59.42
883.265	58.27
883.552	37.69
883.839	44.36
884.126	54.61
884.413	45.52
884.699	45.87
884.986	52.11
885.273	53.02
885.559	53.02
885.846	53.02
