Data from 0063_forehead_Reflection__1__219.txt Node

Date: Fri Dec 16 15:40:41 CST 2022
User: ToomeyLab
Spectrometer: FLMS14357
Trigger mode: 0
Integration Time (sec): 1.000000E-2
Scans to average: 100
Electric dark correction enabled: true
Nonlinearity correction enabled: false
Boxcar width: 0
XAxis mode: Wavelengths
Number of Pixels in Spectrum: 2048
>>>>>Begin Spectral Data<<<<<
189.047	-466.59
189.435	-466.59
189.823	-466.59
190.211	181.45
190.599	4.39
190.987	-396.71
191.375	-17.26
191.763	308.69
192.151	-49.81
192.538	24.87
192.926	157.33
193.314	138.07
193.702	-208.18
194.089	-119.16
194.477	-84.09
194.864	112.65
195.252	-162.16
195.639	78.18
196.027	187.37
196.414	-208.27
196.801	245.83
197.189	70.3
197.576	-102.87
197.963	-117.1
198.351	12.95
198.738	15
199.125	55.86
199.512	8.9
199.899	-23.99
200.286	25.19
200.673	64.93
201.06	72.76
201.447	28.92
201.833	41.6
202.22	10.76
202.607	18.33
202.994	36.57
203.38	33.58
203.767	-25.61
204.154	-0.79
204.54	8.15
204.927	34.56
205.313	44.71
205.699	-12.77
206.086	5.78
206.472	45.86
206.858	39.48
207.245	33.03
207.631	-23.68
208.017	35.7
208.403	10.97
208.789	55.47
209.175	50.11
209.561	-2.03
209.947	13.1
210.333	36.76
210.719	13.21
211.105	-25.21
211.491	19.88
211.876	2.9
212.262	1.38
212.648	-24.67
213.034	2.23
213.419	55.08
213.805	33.61
214.19	22.26
214.576	29.79
214.961	-5.75
215.346	-15.03
215.732	-12.21
216.117	-19.43
216.502	-8.63
216.888	-60.78
217.273	45.56
217.658	-1.1
218.043	1.8
218.428	26.45
218.813	3.97
219.198	-49.83
219.583	13.8
219.968	18.1
220.353	-4.98
220.738	-15.59
221.122	9.24
221.507	-4.32
221.892	12.78
222.276	11.79
222.661	-10.33
223.046	6.87
223.43	2.1
223.815	9.16
224.199	15.57
224.583	15.19
224.968	11.44
225.352	5.88
225.736	12.43
226.121	-0.26
226.505	13
226.889	10.42
227.273	7.52
227.657	2.04
228.041	7.36
228.425	4.63
228.809	5.25
229.193	-0.13
229.577	3.79
229.961	3.77
230.344	4.73
230.728	4.2
231.112	4.35
231.495	3.12
231.879	2.7
232.263	2.82
232.646	4.06
233.03	2.78
233.413	2.77
233.797	6.67
234.18	0.64
234.563	4.78
234.946	4.34
235.33	5.23
235.713	2.77
236.096	3.13
236.479	4.99
236.862	4.2
237.245	4.01
237.628	2.77
238.011	5.79
238.394	7.33
238.777	4.15
239.16	1.79
239.543	2.83
239.925	5.68
240.308	3.48
240.691	4.57
241.073	3.81
241.456	4.65
241.838	4.63
242.221	3.73
242.603	4.84
242.986	5.28
243.368	4.08
243.75	3.83
244.133	4
244.515	4.24
244.897	4
245.279	4.28
245.661	3.92
246.043	5.14
246.425	4.03
246.807	4.42
247.189	4.33
247.571	4.76
247.953	3.98
248.335	4.25
248.717	4.2
249.098	4.29
249.48	3.91
249.862	4.9
250.243	3.79
250.625	3.94
251.006	4.02
251.388	4.64
251.769	5.15
252.151	4.68
252.532	3.53
252.913	4.32
253.295	4.17
253.676	4.57
254.057	3.93
254.438	3.71
254.819	4
255.2	3.64
255.581	4.44
255.962	5.04
256.343	4.48
256.724	3.51
257.105	4.09
257.486	4.91
257.867	3.17
258.247	4.99
258.628	4.84
259.009	4.68
259.389	4.87
259.77	4.02
260.15	5.03
260.531	4.21
260.911	4.24
261.292	3.98
261.672	4.03
262.052	4.05
262.432	4.22
262.813	4.31
263.193	3.72
263.573	3.93
263.953	4.28
264.333	4.12
264.713	4.2
265.093	3.55
265.473	5.81
265.853	4.25
266.233	4.04
266.612	4.38
266.992	3.99
267.372	3.79
267.752	3.82
268.131	3.87
268.511	4.93
268.89	4.02
269.27	4.96
269.649	4.16
270.029	3.96
270.408	3.77
270.787	4.35
271.167	4.31
271.546	3.32
271.925	4.02
272.304	4.43
272.683	3.88
273.062	4.48
273.441	3.92
273.82	4.4
274.199	3.92
274.578	3.89
274.957	4.43
275.336	4.28
275.715	4.76
276.093	4.32
276.472	4.37
276.851	4.09
277.229	4.49
277.608	4.17
277.986	4.22
278.365	4.14
278.743	4.45
279.122	3.9
279.5	3.6
279.878	3.49
280.257	4.49
280.635	4
281.013	4.65
281.391	3.86
281.769	3.99
282.147	4.33
282.525	4.25
282.903	3.87
283.281	4.14
283.659	3.91
284.037	4.06
284.415	4.37
284.792	4.4
285.17	3.52
285.548	4.08
285.925	4.04
286.303	4.28
286.68	4.24
287.058	4.19
287.435	3.9
287.813	4.5
288.19	4.36
288.567	4.27
288.945	4.26
289.322	4.45
289.699	4.61
290.076	4.75
290.453	4.55
290.83	4.65
291.207	4.75
291.584	4.45
291.961	4.98
292.338	4.54
292.715	4.46
293.092	4.9
293.469	4.36
293.845	4.92
294.222	4.63
294.599	5.63
294.975	5.27
295.352	4.58
295.728	4.76
296.105	4.79
296.481	5.08
296.858	5.57
297.234	5.17
297.61	5.18
297.986	5.15
298.363	4.52
298.739	5.17
299.115	4.77
299.491	4.92
299.867	5.34
300.243	5.36
300.619	5.35
300.995	5.78
301.371	5.51
301.746	5.29
302.122	5.31
302.498	5.48
302.874	5.51
303.249	6.08
303.625	5.35
304	5.13
304.376	5.7
304.751	5.58
305.127	5.71
305.502	6.22
305.878	5.83
306.253	5.25
306.628	5.8
307.003	6.22
307.378	5.5
307.754	6.42
308.129	5.8
308.504	5.76
308.879	6.35
309.254	6.22
309.629	6.08
310.003	6.61
310.378	6.57
310.753	6.51
311.128	6.31
311.502	6.37
311.877	6.44
312.252	6.52
312.626	6.25
313.001	6.71
313.375	6.35
313.75	6.3
314.124	7.11
314.498	6.99
314.873	6.64
315.247	6.22
315.621	7
315.995	7.28
316.369	6.96
316.743	7.33
317.117	6.91
317.491	7.05
317.865	6.45
318.239	6.97
318.613	7.56
318.987	7.36
319.361	7.48
319.734	7.44
320.108	7.66
320.482	7.46
320.855	7.24
321.229	8
321.602	7.89
321.976	7.49
322.349	7.01
322.723	7.27
323.096	7.37
323.469	7.62
323.843	7.79
324.216	7.57
324.589	8.04
324.962	7.99
325.335	7.54
325.708	7.73
326.081	8.28
326.454	7.64
326.827	8.28
327.2	8.4
327.573	8.24
327.945	7.8
328.318	8.24
328.691	7.82
329.063	8.07
329.436	8.13
329.809	7.75
330.181	8.06
330.553	8.4
330.926	8.38
331.298	8.34
331.671	8.13
332.043	8.15
332.415	8.91
332.787	8.63
333.159	8.95
333.532	8.34
333.904	8.92
334.276	8.19
334.648	8.71
335.02	8.54
335.391	8.93
335.763	8.86
336.135	8.96
336.507	9.1
336.879	9.04
337.25	9.17
337.622	8.9
337.993	9.02
338.365	8.96
338.736	9.13
339.108	8.93
339.479	9.22
339.851	9.34
340.222	9.01
340.593	8.85
340.964	9.09
341.336	8.58
341.707	8.72
342.078	9.21
342.449	9.78
342.82	9.27
343.191	9.05
343.562	9.42
343.933	9.28
344.303	9.47
344.674	9.75
345.045	9.89
345.416	9.69
345.786	9.55
346.157	9.67
346.527	9.24
346.898	9.88
347.268	9.36
347.639	9.51
348.009	9.97
348.38	10.05
348.75	10.04
349.12	10.2
349.49	9.9
349.861	10.37
350.231	10.54
350.601	10.16
350.971	9.95
351.341	9.91
351.711	10.12
352.081	10.3
352.45	10.53
352.82	10.63
353.19	10.14
353.56	10.75
353.929	10.18
354.299	10.7
354.669	10.98
355.038	10.48
355.408	11
355.777	10.75
356.147	10.74
356.516	10.64
356.885	10.38
357.254	11.1
357.624	10.86
357.993	10.62
358.362	10.9
358.731	10.84
359.1	11.03
359.469	11.04
359.838	10.6
360.207	11.24
360.576	11.2
360.945	11.08
361.314	11.06
361.682	10.86
362.051	11.19
362.42	11.49
362.788	11.16
363.157	10.91
363.525	11.28
363.894	11.14
364.262	11.03
364.631	11.73
364.999	11.59
365.367	12.07
365.735	11.48
366.104	11.26
366.472	11.8
366.84	11.73
367.208	11.55
367.576	11.79
367.944	11.79
368.312	11.49
368.68	11.87
369.048	12.13
369.416	11.66
369.783	11.98
370.151	12.18
370.519	11.77
370.886	12.11
371.254	12.21
371.621	11.95
371.989	12.1
372.356	12.3
372.724	12.76
373.091	12.34
373.458	12.35
373.826	12.56
374.193	12.97
374.56	12.27
374.927	12.48
375.294	12.72
375.661	12.58
376.028	12.91
376.395	12.52
376.762	12.62
377.129	12.86
377.496	12.83
377.863	12.83
378.229	13.01
378.596	13.3
378.963	12.87
379.329	12.9
379.696	12.8
380.062	13.4
380.429	13.59
380.795	13.17
381.161	13.46
381.528	12.79
381.894	13.3
382.26	13.25
382.626	13.29
382.993	13.31
383.359	13.3
383.725	13.38
384.091	13.36
384.457	13.54
384.823	13.71
385.188	13.78
385.554	13.51
385.92	13.83
386.286	14.06
386.651	13.69
387.017	13.94
387.383	13.87
387.748	14.06
388.114	14.4
388.479	14.44
388.845	14.14
389.21	14.42
389.575	14.19
389.94	14.16
390.306	14.47
390.671	13.97
391.036	14.19
391.401	14.54
391.766	14.43
392.131	14.29
392.496	14.56
392.861	14.35
393.226	14.66
393.591	14.47
393.956	14.61
394.32	14.58
394.685	14.91
395.05	14.77
395.414	14.88
395.779	14.65
396.143	14.74
396.508	14.75
396.872	15.02
397.236	14.62
397.601	15.15
397.965	14.59
398.329	15.22
398.694	14.9
399.058	15.45
399.422	15.14
399.786	15.21
400.15	15.21
400.514	15.43
400.878	15.41
401.242	15.45
401.605	15.41
401.969	15.44
402.333	15.47
402.697	15.69
403.06	15.68
403.424	15.33
403.787	15.78
404.151	15.71
404.514	15.75
404.878	15.91
405.241	15.65
405.604	15.7
405.968	15.5
406.331	15.88
406.694	15.8
407.057	16.11
407.42	15.87
407.783	16.09
408.146	15.93
408.509	16.12
408.872	15.9
409.235	16.25
409.598	16.21
409.961	16.25
410.323	16.36
410.686	16.28
411.049	16.52
411.411	16.63
411.774	16.32
412.136	16.55
412.499	16.57
412.861	16.33
413.223	16.54
413.586	16.34
413.948	16.57
414.31	16.84
414.672	16.65
415.035	16.88
415.397	16.9
415.759	16.72
416.121	16.89
416.483	16.83
416.845	16.76
417.206	16.96
417.568	16.76
417.93	16.94
418.292	16.84
418.653	16.96
419.015	16.81
419.377	16.98
419.738	16.8
420.1	16.75
420.461	16.9
420.822	16.99
421.184	17.09
421.545	17.04
421.906	17.04
422.267	16.84
422.629	16.98
422.99	16.91
423.351	17.12
423.712	17.08
424.073	17.26
424.434	17.26
424.795	17.22
425.155	17.36
425.516	17.15
425.877	17.25
426.238	17.18
426.598	17.39
426.959	17.44
427.32	17.65
427.68	17.83
428.041	17.93
428.401	17.86
428.761	17.78
429.122	17.91
429.482	17.88
429.842	18.06
430.202	18.16
430.563	18.12
430.923	18.05
431.283	18.17
431.643	18.19
432.003	18.27
432.363	18.42
432.722	18.36
433.082	18.42
433.442	18.38
433.802	18.39
434.161	18.48
434.521	18.36
434.881	18.55
435.24	18.3
435.6	18.52
435.959	18.52
436.319	18.6
436.678	18.72
437.037	18.69
437.396	18.97
437.756	18.65
438.115	18.75
438.474	18.83
438.833	18.9
439.192	19
439.551	19.06
439.91	19.05
440.269	19.18
440.628	19.03
440.987	19.04
441.345	18.88
441.704	19.15
442.063	19.13
442.421	18.99
442.78	19.05
443.138	19.34
443.497	19.07
443.855	19.31
444.214	19.49
444.572	19.34
444.93	19.55
445.288	19.59
445.647	19.51
446.005	19.39
446.363	19.46
446.721	19.37
447.079	19.52
447.437	19.39
447.795	19.32
448.153	19.35
448.51	19.42
448.868	19.58
449.226	19.53
449.584	19.64
449.941	19.87
450.299	20.02
450.656	19.93
451.014	19.96
451.371	20.11
451.729	20.04
452.086	20.1
452.443	20.1
452.801	20.35
453.158	20.23
453.515	20.23
453.872	20.31
454.229	20.16
454.586	20.36
454.943	20.4
455.3	20.46
455.657	20.54
456.014	20.46
456.371	20.62
456.727	20.53
457.084	20.66
457.441	20.65
457.797	20.86
458.154	20.8
458.51	20.83
458.867	20.84
459.223	20.99
459.58	20.91
459.936	20.98
460.292	20.84
460.648	20.79
461.005	20.73
461.361	20.65
461.717	20.73
462.073	20.77
462.429	20.89
462.785	21.13
463.141	21.22
463.496	21.23
463.852	21.34
464.208	21.56
464.564	21.35
464.919	21.44
465.275	21.53
465.631	21.74
465.986	21.61
466.342	21.59
466.697	21.58
467.052	21.88
467.408	21.64
467.763	21.9
468.118	21.8
468.473	22.02
468.829	21.71
469.184	22.02
469.539	21.82
469.894	22.03
470.249	21.97
470.603	22.21
470.958	22.08
471.313	22.06
471.668	22.2
472.023	22.42
472.377	22.34
472.732	22.56
473.086	22.32
473.441	22.59
473.795	22.65
474.15	22.32
474.504	22.35
474.859	22.4
475.213	22.5
475.567	22.63
475.921	22.79
476.275	22.69
476.63	22.73
476.984	22.62
477.338	22.66
477.692	22.79
478.045	22.64
478.399	22.83
478.753	22.82
479.107	22.75
479.461	22.9
479.814	22.86
480.168	22.99
480.521	22.9
480.875	23.17
481.228	23.06
481.582	22.96
481.935	22.98
482.289	23.03
482.642	22.99
482.995	23
483.348	23.04
483.701	22.91
484.055	22.83
484.408	22.63
484.761	22.31
485.114	22.31
485.466	22.34
485.819	22.31
486.172	22.42
486.525	22.53
486.878	22.7
487.23	22.86
487.583	22.98
487.936	23.12
488.288	22.84
488.641	22.82
488.993	22.71
489.345	22.78
489.698	22.91
490.05	22.99
490.402	23.13
490.754	23.36
491.107	23.56
491.459	23.67
491.811	23.7
492.163	23.67
492.515	23.48
492.866	23.3
493.218	23.27
493.57	23.46
493.922	23.5
494.274	23.62
494.625	23.91
494.977	24.02
495.328	24.26
495.68	24.41
496.031	24.48
496.383	24.63
496.734	24.7
497.086	24.49
497.437	24.78
497.788	24.55
498.139	24.51
498.49	24.62
498.842	24.61
499.193	24.63
499.544	24.78
499.894	24.71
500.245	24.85
500.596	24.9
500.947	24.92
501.298	24.95
501.648	25.05
501.999	25.12
502.35	25.38
502.7	25.23
503.051	25.36
503.401	25.28
503.752	25.46
504.102	25.44
504.452	25.47
504.803	25.36
505.153	25.49
505.503	25.44
505.853	25.62
506.203	25.47
506.553	25.62
506.903	25.68
507.253	25.69
507.603	25.9
507.953	25.97
508.303	25.78
508.652	25.86
509.002	26.04
509.352	26.03
509.701	25.86
510.051	25.8
510.4	26.01
510.75	26.04
511.099	25.88
511.449	25.84
511.798	26.2
512.147	26.01
512.496	26.12
512.846	26.14
513.195	26.21
513.544	26.3
513.893	26.23
514.242	26.34
514.591	26.33
514.939	26.2
515.288	26.59
515.637	26.64
515.986	26.72
516.334	26.71
516.683	26.85
517.032	26.84
517.38	26.96
517.729	26.78
518.077	26.97
518.426	26.82
518.774	26.73
519.122	26.67
519.47	26.73
519.819	26.71
520.167	26.66
520.515	26.67
520.863	26.6
521.211	26.81
521.559	26.99
521.907	27.03
522.255	27.11
522.602	27.32
522.95	27.32
523.298	27.4
523.645	27.34
523.993	27.45
524.341	27.41
524.688	27.65
525.036	27.59
525.383	27.63
525.73	27.53
526.078	27.58
526.425	27.33
526.772	27.13
527.119	27.19
527.466	27.31
527.814	27.29
528.161	27.42
528.508	27.36
528.854	27.11
529.201	27.29
529.548	27.01
529.895	26.95
530.242	26.99
530.588	27.1
530.935	27.16
531.282	27.27
531.628	27.42
531.975	27.53
532.321	27.73
532.667	27.84
533.014	27.98
533.36	27.92
533.706	28.1
534.052	27.99
534.399	27.64
534.745	27.67
535.091	27.78
535.437	27.78
535.783	27.96
536.129	28.19
536.474	28.34
536.82	28.34
537.166	28.4
537.512	28.43
537.857	28.47
538.203	28.39
538.549	28.56
538.894	28.55
539.239	28.71
539.585	28.87
539.93	29.3
540.276	28.97
540.621	29.27
540.966	29.14
541.311	29.28
541.656	28.9
542.001	28.8
542.346	28.71
542.691	28.5
543.036	28.48
543.381	28.55
543.726	28.72
544.071	28.89
544.415	28.95
544.76	28.94
545.105	29.13
545.449	29.29
545.794	29.28
546.138	29.5
546.483	29.76
546.827	29.67
547.171	29.77
547.516	29.75
547.86	29.5
548.204	29.53
548.548	29.77
548.892	29.73
549.236	29.99
549.58	30.09
549.924	30.13
550.268	30.32
550.612	30.28
550.956	30.17
551.3	30.5
551.643	30.63
551.987	30.45
552.33	30.65
552.674	30.58
553.017	30.58
553.361	30.77
553.704	30.6
554.048	30.63
554.391	30.62
554.734	30.76
555.077	30.79
555.42	30.81
555.764	30.9
556.107	30.84
556.45	31.1
556.793	31.18
557.135	31.15
557.478	31.35
557.821	31.27
558.164	31.27
558.507	31.27
558.849	31.31
559.192	31.3
559.534	31.26
559.877	31.37
560.219	31.59
560.562	31.71
560.904	31.74
561.246	31.52
561.589	31.41
561.931	31.86
562.273	31.73
562.615	31.79
562.957	31.81
563.299	31.72
563.641	32.11
563.983	32.24
564.325	31.73
564.667	32.04
565.008	31.77
565.35	32.08
565.692	32.27
566.033	32.14
566.375	32.13
566.716	32.07
567.058	32.21
567.399	31.93
567.741	32.07
568.082	32.11
568.423	32.14
568.764	32.32
569.105	32.33
569.447	32.2
569.788	32.35
570.129	32.65
570.47	32.76
570.811	32.59
571.151	32.6
571.492	32.61
571.833	32.69
572.174	32.45
572.514	32.62
572.855	32.53
573.195	32.53
573.536	32.64
573.876	32.62
574.217	32.65
574.557	32.79
574.898	32.98
575.238	32.88
575.578	32.93
575.918	32.97
576.258	33.04
576.598	33.04
576.938	33
577.278	33.26
577.618	33.05
577.958	33.16
578.298	33.24
578.638	33.35
578.977	33.23
579.317	33.46
579.657	33.38
579.996	33.43
580.336	33.74
580.675	33.68
581.014	33.61
581.354	34.19
581.693	33.87
582.032	33.8
582.372	34.02
582.711	34.07
583.05	34.06
583.389	34.14
583.728	34.33
584.067	34.11
584.406	33.93
584.745	34.3
585.083	34.13
585.422	34.36
585.761	34.31
586.1	34.38
586.438	34.44
586.777	34.63
587.115	34.38
587.454	34.39
587.792	34.01
588.13	34.65
588.469	34.58
588.807	34.86
589.145	34.43
589.483	34.76
589.821	34.8
590.159	34.62
590.497	34.62
590.835	34.69
591.173	34.72
591.511	34.8
591.849	34.76
592.187	34.79
592.524	35.11
592.862	35.13
593.2	34.89
593.537	34.73
593.875	34.82
594.212	35.31
594.55	35.1
594.887	35.07
595.224	35.43
595.561	35.12
595.899	35.3
596.236	35.2
596.573	35.23
596.91	35.32
597.247	35.46
597.584	35.28
597.921	35.52
598.258	35.3
598.594	35.13
598.931	35.03
599.268	35.14
599.604	35.25
599.941	35.33
600.277	35.65
600.614	35.91
600.95	36.06
601.287	35.86
601.623	35.84
601.959	35.58
602.296	35.76
602.632	35.86
602.968	36.24
603.304	36.3
603.64	36.06
603.976	35.85
604.312	35.85
604.648	36.23
604.984	36.05
605.319	35.88
605.655	36.1
605.991	35.84
606.326	35.87
606.662	35.73
606.998	35.91
607.333	36.04
607.668	36.18
608.004	35.89
608.339	36.24
608.674	36.39
609.01	36.45
609.345	36.52
609.68	36.54
610.015	36.53
610.35	36.25
610.685	36.16
611.02	36.52
611.355	36.5
611.689	36.75
612.024	36.52
612.359	36.69
612.694	36.65
613.028	36.97
613.363	36.77
613.697	36.7
614.032	36.9
614.366	36.88
614.7	37.12
615.035	37.27
615.369	37.35
615.703	37.37
616.037	36.99
616.371	36.71
616.705	37.28
617.039	37.3
617.373	37.07
617.707	37.54
618.041	37.55
618.375	37.58
618.709	37.98
619.042	37.43
619.376	37.31
619.71	37.54
620.043	37.4
620.377	37.7
620.71	37.61
621.043	37.67
621.377	37.82
621.71	38.32
622.043	37.95
622.376	37.82
622.709	37.78
623.043	37.8
623.376	38.05
623.709	38.03
624.041	37.93
624.374	37.82
624.707	38.26
625.04	38.32
625.373	37.99
625.705	38.1
626.038	38.22
626.37	38.21
626.703	38.16
627.035	38.32
627.368	38.41
627.7	38.28
628.032	38.21
628.365	38.1
628.697	38.14
629.029	38.42
629.361	38.25
629.693	38.64
630.025	38.54
630.357	38.55
630.689	38.51
631.021	38.87
631.353	39.03
631.684	38.68
632.016	38.96
632.348	38.88
632.679	38.61
633.011	39.07
633.342	38.72
633.674	38.72
634.005	39.03
634.336	39.19
634.668	38.95
634.999	39.11
635.33	38.94
635.661	39.01
635.992	39.13
636.323	38.91
636.654	39
636.985	38.88
637.316	39.22
637.647	39.25
637.977	39.33
638.308	38.98
638.639	39.25
638.969	39.07
639.3	39.29
639.63	39.13
639.961	39.25
640.291	39.27
640.622	39.33
640.952	39.47
641.282	38.82
641.612	39.59
641.943	39.75
642.273	39.65
642.603	40.01
642.933	39.37
643.263	40.1
643.592	39.85
643.922	40.2
644.252	39.94
644.582	40.07
644.911	40.09
645.241	39.87
645.571	39.63
645.9	39.9
646.23	40.4
646.559	40.06
646.888	40.08
647.218	39.96
647.547	39.93
647.876	40.12
648.205	39.74
648.534	39.99
648.863	40.35
649.192	40.11
649.521	40.01
649.85	40.45
650.179	40.01
650.508	39.98
650.837	40.01
651.165	40.59
651.494	39.97
651.822	41.14
652.151	40.84
652.479	40.8
652.808	40.44
653.136	40.49
653.465	40.89
653.793	40.46
654.121	40.78
654.449	40.72
654.777	40.76
655.105	40.94
655.433	40.61
655.761	40.84
656.089	40.67
656.417	40.46
656.745	41.05
657.073	41.19
657.4	40.89
657.728	41.09
658.056	41.52
658.383	41.1
658.711	41.3
659.038	41.23
659.365	40.75
659.693	41.44
660.02	40.67
660.347	41.01
660.674	41.04
661.001	40.94
661.329	41.46
661.656	40.97
661.982	40.79
662.309	41.56
662.636	41.54
662.963	41.71
663.29	41.17
663.616	41.29
663.943	41.93
664.27	41
664.596	41.37
664.923	42.01
665.249	41.4
665.576	41.31
665.902	41.17
666.228	42.03
666.554	41.08
666.881	41.73
667.207	41.42
667.533	41.91
667.859	41.68
668.185	40.96
668.511	41.72
668.837	41.58
669.162	41.77
669.488	42.12
669.814	42.49
670.139	42.48
670.465	41.93
670.791	41.72
671.116	41.85
671.442	41.83
671.767	41.63
672.092	41.59
672.418	41.81
672.743	42.1
673.068	41.54
673.393	42.49
673.718	41.82
674.043	42
674.368	42.24
674.693	42.4
675.018	42.16
675.343	42.1
675.667	42.36
675.992	41.29
676.317	42.82
676.641	42.19
676.966	42.11
677.29	42.06
677.615	42.42
677.939	42.44
678.264	42.12
678.588	42.53
678.912	41.83
679.236	42.61
679.56	42.73
679.885	42.86
680.209	42.14
680.532	42.27
680.856	42.84
681.18	42.83
681.504	42.42
681.828	42.58
682.152	42.99
682.475	43.12
682.799	43.12
683.122	42.83
683.446	42.53
683.769	43.09
684.093	42.69
684.416	43.09
684.739	43.13
685.062	43.28
685.386	43.13
685.709	43.22
686.032	43.06
686.355	43.18
686.678	43.47
687.001	43.24
687.324	43.01
687.646	42.31
687.969	42.68
688.292	43.99
688.614	43.11
688.937	43.42
689.26	42.39
689.582	43.57
689.904	43.84
690.227	43.5
690.549	44.04
690.871	43.76
691.194	43.35
691.516	44
691.838	43.28
692.16	42.85
692.482	43.2
692.804	43.17
693.126	43.2
693.448	43.23
693.769	43.51
694.091	44.34
694.413	43.41
694.735	43.9
695.056	44.17
695.378	43.93
695.699	44.97
696.021	44.33
696.342	42.91
696.663	44.1
696.984	44.2
697.306	44.31
697.627	44.1
697.948	44.95
698.269	44.64
698.59	43.72
698.911	44.01
699.232	45.05
699.553	44.39
699.873	44.49
700.194	43.9
700.515	43.9
700.835	44.27
701.156	43.93
701.477	44.01
701.797	44.08
702.117	44.67
702.438	44.08
702.758	44.38
703.078	44.67
703.398	44.31
703.719	44.4
704.039	44.8
704.359	44.22
704.679	43.83
704.999	43.63
705.319	43.98
705.638	45.06
705.958	44.25
706.278	45.86
706.597	44.56
706.917	45.33
707.237	45.01
707.556	45.44
707.876	43.72
708.195	45.82
708.514	45.4
708.834	45.97
709.153	45.45
709.472	44.7
709.791	45.76
710.11	44.39
710.429	44.71
710.748	44.71
711.067	44.75
711.386	45.89
711.705	43.83
712.023	45.39
712.342	44.58
712.661	45.5
712.979	45.72
713.298	44.76
713.616	45.74
713.935	45.92
714.253	45.41
714.572	45.33
714.89	45
715.208	45.76
715.526	45.95
715.844	44.75
716.162	44.81
716.48	45.61
716.798	44.66
717.116	46.89
717.434	46.23
717.752	45.97
718.069	45.32
718.387	45.48
718.705	44.82
719.022	45.1
719.34	45.49
719.657	46.45
719.975	45.51
720.292	45.71
720.609	45.55
720.927	46.65
721.244	46.61
721.561	46.06
721.878	45.26
722.195	45.21
722.512	45.24
722.829	45.72
723.146	44.67
723.463	44.76
723.779	45.46
724.096	45.72
724.413	44.97
724.729	46.18
725.046	47.22
725.362	45.48
725.679	46.43
725.995	46.61
726.311	46.22
726.628	46.72
726.944	46.83
727.26	46.16
727.576	45.81
727.892	45.45
728.208	47.42
728.524	47.07
728.84	46.46
729.156	46.98
729.472	46.44
729.787	46.37
730.103	46.39
730.419	47.03
730.734	46.67
731.05	47.76
731.365	46.38
731.681	45.31
731.996	45.6
732.311	47.47
732.626	46.76
732.942	47.15
733.257	47.12
733.572	46.74
733.887	47.65
734.202	46.24
734.517	46.54
734.832	47.47
735.146	46.34
735.461	45.61
735.776	46.85
736.091	46.28
736.405	46.81
736.72	46.42
737.034	47.1
737.349	46.46
737.663	46.11
737.977	46.57
738.292	47.61
738.606	47.66
738.92	47.39
739.234	45.99
739.548	46.49
739.862	48.01
740.176	47.5
740.49	47.75
740.804	46.77
741.117	48.83
741.431	45.93
741.745	48
742.058	48.06
742.372	46.85
742.685	47.47
742.999	48.04
743.312	46.1
743.626	48.04
743.939	45.88
744.252	48.94
744.565	48.34
744.878	47.96
745.191	48.9
745.505	47.61
745.817	46.7
746.13	47.53
746.443	48.22
746.756	47.83
747.069	48.99
747.381	47.66
747.694	45.83
748.007	47.71
748.319	47.17
748.632	47.27
748.944	48.93
749.256	50.54
749.569	48.01
749.881	47.13
750.193	47.67
750.505	48.89
750.817	48.05
751.129	47.78
751.441	48.03
751.753	48.99
752.065	47.08
752.377	45.55
752.689	49.46
753	48.49
753.312	47.02
753.624	48.81
753.935	45.79
754.247	47.29
754.558	48.93
754.869	49.51
755.181	48.48
755.492	49.64
755.803	48.09
756.114	47.43
756.425	48
756.736	47.75
757.047	48.42
757.358	47.44
757.669	48.47
757.98	46.96
758.291	49.52
758.601	48.84
758.912	47.78
759.223	49.08
759.533	48.03
759.844	47
760.154	49.66
760.464	49.32
760.775	50.03
761.085	46.58
761.395	49.84
761.705	46.97
762.016	47.16
762.326	49.11
762.636	48.28
762.945	48.29
763.255	48.46
763.565	48.01
763.875	47.38
764.185	50.87
764.494	50.84
764.804	47.65
765.113	48.94
765.423	50.13
765.732	49.57
766.042	48.29
766.351	49.83
766.66	47.27
766.97	46.92
767.279	48.3
767.588	49.93
767.897	49.89
768.206	48.49
768.515	47.73
768.824	47.81
769.133	49.01
769.441	50.09
769.75	48.55
770.059	47.24
770.367	48.26
770.676	48.13
770.984	47.75
771.293	47.81
771.601	49.16
771.91	49.03
772.218	48.25
772.526	48.98
772.834	49.29
773.142	45.85
773.45	46.78
773.758	47.02
774.066	49.27
774.374	49.03
774.682	49.18
774.99	46.8
775.298	44.79
775.605	47.13
775.913	47.14
776.22	48.22
776.528	50.89
776.835	49.02
777.143	48.35
777.45	50.82
777.757	48.36
778.065	50.27
778.372	51.22
778.679	49.72
778.986	48.5
779.293	50.61
779.6	48.87
779.907	48.61
780.214	51.47
780.52	51.36
780.827	46.46
781.134	49.17
781.44	47.62
781.747	48.87
782.053	50.21
782.36	46.97
782.666	48.93
782.973	49.71
783.279	48.82
783.585	51.21
783.891	49.1
784.197	50.09
784.503	49.36
784.809	54.58
785.115	49.95
785.421	50.83
785.727	47.17
786.033	50.12
786.339	46.3
786.644	46.75
786.95	49.28
787.255	47.19
787.561	49.03
787.866	48.33
788.172	52.55
788.477	50.22
788.782	48.49
789.088	48.29
789.393	51.03
789.698	47.93
790.003	49.64
790.308	47.06
790.613	51.42
790.918	50.78
791.223	50.27
791.527	53
791.832	51.61
792.137	49.9
792.441	48.81
792.746	48.94
793.05	50.7
793.355	51.14
793.659	49.39
793.963	50.4
794.268	52.91
794.572	51.27
794.876	48.63
795.18	51.61
795.484	48.71
795.788	49.62
796.092	48.56
796.396	53.29
796.7	51.07
797.004	52.51
797.307	48.11
797.611	48.7
797.915	49.55
798.218	49.17
798.522	49.24
798.825	49.83
799.128	55.95
799.432	53.24
799.735	51.63
800.038	47.78
800.341	51.88
800.644	55.9
800.947	52.46
801.25	47.98
801.553	50.98
801.856	50.18
802.159	48.54
802.462	56.24
802.764	50.47
803.067	49.04
803.37	54.84
803.672	49.99
803.975	50.24
804.277	49.17
804.579	49.19
804.882	49.31
805.184	51.59
805.486	50.95
805.788	48.96
806.09	46.12
806.392	52.57
806.694	48.71
806.996	49.98
807.298	48.14
807.6	54.61
807.902	47.61
808.203	51.03
808.505	49.99
808.807	52.58
809.108	47
809.409	53.65
809.711	49.9
810.012	49.1
810.313	51.03
810.615	51.46
810.916	50.91
811.217	54.28
811.518	50.13
811.819	50.67
812.12	53.19
812.421	46.54
812.722	49.67
813.023	51.13
813.323	55.18
813.624	55.53
813.925	51.57
814.225	58.57
814.526	50.49
814.826	49.49
815.126	53.4
815.427	53.7
815.727	52.2
816.027	50.14
816.327	45.2
816.627	45.63
816.927	50.08
817.227	53.18
817.527	51.85
817.827	54.01
818.127	53.35
818.427	47.89
818.727	48.47
819.026	54.14
819.326	56.45
819.625	59.48
819.925	49.31
820.224	48.54
820.524	51.22
820.823	50.91
821.122	57.95
821.421	50.74
821.72	53.29
822.019	50.69
822.318	52.5
822.617	50.67
822.916	50.45
823.215	53.65
823.514	51.66
823.813	52.53
824.111	52.67
824.41	52.42
824.709	51.51
825.007	52.15
825.306	52
825.604	52.5
825.902	51.86
826.201	52.57
826.499	52.73
826.797	51.71
827.095	51.08
827.393	50.92
827.691	51.01
827.989	50.38
828.287	50.64
828.585	49.09
828.882	51.11
829.18	52.13
829.478	54.57
829.775	52.78
830.073	53.85
830.37	51.57
830.668	50.05
830.965	51.49
831.263	51.49
831.56	51.28
831.857	54.62
832.154	51.69
832.451	53.74
832.748	54.11
833.045	53.91
833.342	54.52
833.639	52.05
833.936	57.8
834.232	53.19
834.529	53.82
834.826	51.99
835.122	55.5
835.419	52.51
835.715	49.95
836.012	54.81
836.308	57.05
836.604	52.04
836.901	56.01
837.197	54.14
837.493	53.4
837.789	53.16
838.085	50.81
838.381	49.4
838.677	52.02
838.972	50.99
839.268	56
839.564	55.52
839.86	46.23
840.155	47.2
840.451	50.43
840.746	56.53
841.042	48.68
841.337	50.51
841.632	55.57
841.928	50.79
842.223	47.27
842.518	54.27
842.813	49.07
843.108	53.74
843.403	50.72
843.698	56.58
843.993	59.13
844.287	49.6
844.582	58.75
844.877	49.49
845.171	52.11
845.466	49.91
845.761	40.53
846.055	50.17
846.349	36.61
846.644	57.54
846.938	46.06
847.232	47.31
847.526	51.59
847.82	44.34
848.114	51.11
848.408	56.47
848.702	48.56
848.996	49.85
849.29	50.56
849.584	48.4
849.877	64.51
850.171	52.37
850.465	34.42
850.758	46.76
851.052	64.13
851.345	41.35
851.638	54.97
851.932	34.91
852.225	38.53
852.518	66.44
852.811	47.96
853.104	64.04
853.397	32.04
853.69	73.19
853.983	58.08
854.276	57.8
854.569	33.87
854.861	56.79
855.154	32.68
855.447	63.57
855.739	39.98
856.032	33.99
856.324	52.13
856.616	57.52
856.909	56.4
857.201	70.75
857.493	47.13
857.785	35.03
858.077	26.93
858.369	48.1
858.661	62.47
858.953	35.66
859.245	50.28
859.537	46.08
859.829	53.05
860.12	38.1
860.412	48.67
860.703	43.7
860.995	58.83
861.286	58.53
861.578	60.2
861.869	45.43
862.16	52.77
862.452	34.95
862.743	59.16
863.034	58.12
863.325	78.95
863.616	50.68
863.907	42.07
864.198	44.43
864.488	45.36
864.779	47.77
865.07	37.59
865.36	49.2
865.651	90.32
865.941	72.08
866.232	53.84
866.522	38.32
866.813	74.84
867.103	66.26
867.393	32.16
867.683	58.4
867.973	44.83
868.263	48.7
868.553	33.22
868.843	15.49
869.133	78.89
869.423	57.42
869.713	62.84
870.002	22.93
870.292	36.24
870.582	37.86
870.871	30.31
871.161	50.35
871.45	70.43
871.739	10.73
872.029	38.5
872.318	47.23
872.607	48.19
872.896	80.95
873.185	66.42
873.474	69.26
873.763	81.17
874.052	39.48
874.341	49.35
874.63	38.93
874.918	53.56
875.207	34.31
875.496	65.53
875.784	69.94
876.073	42
876.361	45.25
876.649	56.91
876.938	40.57
877.226	49.67
877.514	35.91
877.802	37.57
878.09	43.63
878.378	68.61
878.666	42.5
878.954	60.39
879.242	58.42
879.53	23.11
879.817	48.77
880.105	61.72
880.392	45.95
880.68	64.85
880.967	56.74
881.255	44.9
881.542	50.09
881.83	51.58
882.117	32.74
882.404	45.36
882.691	63.75
882.978	34.64
883.265	56.82
883.552	35.74
883.839	61.82
884.126	69.12
884.413	53.79
884.699	59.86
884.986	52.06
885.273	54.33
885.559	54.33
885.846	54.33
