Data from 0063_forehead_Reflection__2__220.txt Node

Date: Fri Dec 16 15:40:51 CST 2022
User: ToomeyLab
Spectrometer: FLMS14357
Trigger mode: 0
Integration Time (sec): 1.000000E-2
Scans to average: 100
Electric dark correction enabled: true
Nonlinearity correction enabled: false
Boxcar width: 0
XAxis mode: Wavelengths
Number of Pixels in Spectrum: 2048
>>>>>Begin Spectral Data<<<<<
189.047	-474.23
189.435	-474.23
189.823	-474.23
190.211	-3.33
190.599	105.61
190.987	654.84
191.375	57.07
191.763	297.85
192.151	83.3
192.538	132.46
192.926	136.45
193.314	145.05
193.702	-26.22
194.089	233.93
194.477	-343.36
194.864	-247.94
195.252	112.43
195.639	49.13
196.027	335.35
196.414	-385.62
196.801	235.84
197.189	128.43
197.576	767.9
197.963	-362.32
198.351	1.17
198.738	6.96
199.125	30.13
199.512	38.62
199.899	-6.02
200.286	-73.58
200.673	14
201.06	19.42
201.447	17.38
201.833	22.83
202.22	25.72
202.607	69.92
202.994	9.03
203.38	-14.42
203.767	-40.96
204.154	-8.5
204.54	42.31
204.927	47.15
205.313	25.55
205.699	7.1
206.086	31.42
206.472	24.17
206.858	31
207.245	48.65
207.631	0.14
208.017	15.74
208.403	-0.55
208.789	36.93
209.175	63.37
209.561	33.58
209.947	10.3
210.333	28.73
210.719	4.89
211.105	-9.26
211.491	-1.76
211.876	36.38
212.262	-17.85
212.648	19.1
213.034	-13.04
213.419	43.65
213.805	19.6
214.19	12.34
214.576	-26.38
214.961	-8.92
215.346	13.9
215.732	-3.1
216.117	2.17
216.502	0.33
216.888	-28.81
217.273	20.28
217.658	-30.02
218.043	19.36
218.428	0.59
218.813	-4.32
219.198	-30.18
219.583	9.09
219.968	-7.25
220.353	4.99
220.738	-16.85
221.122	-14.33
221.507	18.48
221.892	-0.47
222.276	12.76
222.661	-15.85
223.046	19.98
223.43	2.31
223.815	12.89
224.199	10.5
224.583	12.89
224.968	0.18
225.352	5.96
225.736	3.03
226.121	3.07
226.505	4.73
226.889	12.54
227.273	7.12
227.657	2.07
228.041	11.36
228.425	10.45
228.809	7.72
229.193	7.6
229.577	5.46
229.961	5.47
230.344	6.31
230.728	5.89
231.112	6.5
231.495	6.4
231.879	5.2
232.263	4.27
232.646	4.24
233.03	5.47
233.413	7.6
233.797	10.2
234.18	2.26
234.563	6.34
234.946	4.94
235.33	6.17
235.713	5.99
236.096	7.1
236.479	8.22
236.862	7.1
237.245	7.22
237.628	5.38
238.011	5.84
238.394	6.82
238.777	7.62
239.16	2.74
239.543	4.69
239.925	6.62
240.308	7.86
240.691	6.08
241.073	5.94
241.456	6.25
241.838	5.42
242.221	6.24
242.603	6.87
242.986	7.55
243.368	6.11
243.75	6.12
244.133	6.82
244.515	6.32
244.897	6.89
245.279	6.08
245.661	6.5
246.043	7.77
246.425	5.77
246.807	6.6
247.189	7.07
247.571	7.26
247.953	6.7
248.335	6.59
248.717	6.53
249.098	6.81
249.48	6.87
249.862	6.65
250.243	6.34
250.625	6.54
251.006	7.21
251.388	7.18
251.769	7.17
252.151	6.57
252.532	6.21
252.913	7.66
253.295	6.44
253.676	7.08
254.057	6.32
254.438	7.54
254.819	7.3
255.2	6.94
255.581	6.52
255.962	5.1
256.343	8.33
256.724	6.18
257.105	7.48
257.486	7.35
257.867	5.94
258.247	7.21
258.628	7.22
259.009	7.42
259.389	7.7
259.77	7.13
260.15	7.6
260.531	6.82
260.911	6.57
261.292	6.64
261.672	6.18
262.052	6.26
262.432	6.61
262.813	6.32
263.193	6.84
263.573	6.5
263.953	6.5
264.333	6.13
264.713	6.3
265.093	6.07
265.473	6.99
265.853	6.46
266.233	6.59
266.612	7.1
266.992	5.94
267.372	6.45
267.752	6.15
268.131	6.44
268.511	7.01
268.89	6.47
269.27	6.81
269.649	7.1
270.029	6.5
270.408	6.75
270.787	6.02
271.167	7.33
271.546	5.93
271.925	6.58
272.304	6.4
272.683	5.83
273.062	6.76
273.441	6.36
273.82	6.65
274.199	6.53
274.578	6.28
274.957	6.52
275.336	5.71
275.715	6.42
276.093	6.64
276.472	6.68
276.851	7.09
277.229	6.95
277.608	6.32
277.986	6.59
278.365	6.17
278.743	6.34
279.122	5.98
279.5	6.2
279.878	5.38
280.257	6.47
280.635	6.05
281.013	6.44
281.391	6.23
281.769	5.94
282.147	6.43
282.525	6.52
282.903	6.55
283.281	6.32
283.659	6.2
284.037	6.11
284.415	6.24
284.792	6.1
285.17	5.82
285.548	6.18
285.925	5.86
286.303	6.41
286.68	6.54
287.058	6.6
287.435	6.16
287.813	6.39
288.19	7.11
288.567	6.26
288.945	6.35
289.322	6.36
289.699	6.43
290.076	7.15
290.453	6.58
290.83	7.04
291.207	6.78
291.584	6.46
291.961	6.99
292.338	6.6
292.715	7.26
293.092	7.16
293.469	7.41
293.845	8.12
294.222	7.63
294.599	7.14
294.975	7.56
295.352	6.75
295.728	7.25
296.105	7.52
296.481	8.17
296.858	7.82
297.234	7.7
297.61	8.02
297.986	7.46
298.363	7.63
298.739	8.1
299.115	7.58
299.491	7.71
299.867	7.49
300.243	8.05
300.619	8.01
300.995	8.25
301.371	7.66
301.746	8.06
302.122	8.54
302.498	9.05
302.874	8.74
303.249	8.5
303.625	8.29
304	7.97
304.376	8.39
304.751	8.33
305.127	8.18
305.502	9.07
305.878	8.27
306.253	8.66
306.628	9.29
307.003	9.19
307.378	8.83
307.754	9.36
308.129	9.04
308.504	9.13
308.879	8.82
309.254	8.82
309.629	9.61
310.003	9.68
310.378	9.42
310.753	9.34
311.128	9.26
311.502	9.06
311.877	9.2
312.252	9.14
312.626	9.28
313.001	9.59
313.375	9.9
313.75	9.48
314.124	10.35
314.498	9.08
314.873	9.71
315.247	9.5
315.621	9.93
315.995	10.02
316.369	10.38
316.743	10.43
317.117	10.17
317.491	9.65
317.865	9.55
318.239	10.64
318.613	10.54
318.987	10.37
319.361	10.47
319.734	10.66
320.108	10.32
320.482	10.73
320.855	10.68
321.229	11.28
321.602	10.19
321.976	11.16
322.349	9.98
322.723	10.5
323.096	10.43
323.469	10.64
323.843	10.78
324.216	10.51
324.589	11.39
324.962	11.2
325.335	10.75
325.708	10.63
326.081	11.7
326.454	11.15
326.827	11.41
327.2	12.07
327.573	11.24
327.945	11.17
328.318	11.35
328.691	11.54
329.063	11.44
329.436	11.56
329.809	10.9
330.181	11.94
330.553	12.06
330.926	11.29
331.298	11.15
331.671	11.92
332.043	12.16
332.415	12.25
332.787	12.16
333.159	12.1
333.532	12.48
333.904	12.44
334.276	11.91
334.648	12.27
335.02	12.05
335.391	12.42
335.763	11.96
336.135	12.52
336.507	12.67
336.879	12.18
337.25	13.04
337.622	12.7
337.993	12.81
338.365	12.87
338.736	12.77
339.108	11.87
339.479	12.72
339.851	12.57
340.222	13.05
340.593	12.86
340.964	12.89
341.336	12.46
341.707	12.54
342.078	12.52
342.449	12.92
342.82	13.08
343.191	12.78
343.562	12.72
343.933	13.03
344.303	12.81
344.674	13.12
345.045	13.54
345.416	13.55
345.786	12.85
346.157	13.22
346.527	13.02
346.898	13.53
347.268	13.17
347.639	13.6
348.009	13.49
348.38	13.51
348.75	13.72
349.12	13.92
349.49	13.38
349.861	13.9
350.231	14.11
350.601	14.08
350.971	13.81
351.341	13.99
351.711	13.7
352.081	14
352.45	14.36
352.82	14.27
353.19	14.23
353.56	13.98
353.929	14.61
354.299	14.16
354.669	14.14
355.038	14.19
355.408	14.6
355.777	14.33
356.147	14.73
356.516	14.72
356.885	14.71
357.254	14.71
357.624	14.76
357.993	14.62
358.362	14.74
358.731	14.8
359.1	15.25
359.469	14.64
359.838	14.95
360.207	14.69
360.576	15.06
360.945	15.28
361.314	15.4
361.682	15.13
362.051	15.13
362.42	15.34
362.788	15.4
363.157	15.24
363.525	15.23
363.894	14.91
364.262	15.15
364.631	15.78
364.999	15.39
365.367	15.85
365.735	15.07
366.104	15.38
366.472	15.51
366.84	16.07
367.208	15.34
367.576	16.11
367.944	16.07
368.312	15.53
368.68	16.17
369.048	16.08
369.416	16.16
369.783	16.1
370.151	16.16
370.519	16.3
370.886	15.86
371.254	16.46
371.621	16.54
371.989	16.58
372.356	17.11
372.724	16.35
373.091	16.54
373.458	16.7
373.826	16.51
374.193	16.82
374.56	16.29
374.927	16.89
375.294	17
375.661	17
376.028	16.95
376.395	16.64
376.762	16.99
377.129	17.01
377.496	16.85
377.863	17.2
378.229	17.2
378.596	17.2
378.963	17.15
379.329	17.54
379.696	17.15
380.062	17.26
380.429	17.42
380.795	17.31
381.161	17.28
381.528	17.44
381.894	17.89
382.26	17.72
382.626	17.89
382.993	17.51
383.359	17.64
383.725	18.02
384.091	17.94
384.457	17.93
384.823	17.98
385.188	18.15
385.554	18.02
385.92	18.05
386.286	18.57
386.651	18.17
387.017	18.38
387.383	18.34
387.748	17.91
388.114	18.78
388.479	18.57
388.845	18.44
389.21	18.31
389.575	18.54
389.94	18.56
390.306	18.56
390.671	18.5
391.036	18.59
391.401	18.98
391.766	18.86
392.131	18.9
392.496	18.89
392.861	18.65
393.226	18.86
393.591	19.05
393.956	19.28
394.32	18.89
394.685	19.29
395.05	19.02
395.414	19.34
395.779	18.99
396.143	19.28
396.508	19.21
396.872	19.52
397.236	19.11
397.601	19.32
397.965	19.19
398.329	19.58
398.694	19.73
399.058	19.7
399.422	19.71
399.786	19.94
400.15	19.95
400.514	19.8
400.878	19.61
401.242	20.28
401.605	20.01
401.969	19.66
402.333	19.8
402.697	19.99
403.06	20.11
403.424	19.98
403.787	20.25
404.151	20.15
404.514	20.1
404.878	20.08
405.241	20.4
405.604	20.26
405.968	20.07
406.331	20.32
406.694	20.23
407.057	20.61
407.42	20.63
407.783	20.6
408.146	20.33
408.509	20.61
408.872	20.57
409.235	20.89
409.598	20.91
409.961	20.88
410.323	20.99
410.686	20.8
411.049	20.93
411.411	21.17
411.774	20.9
412.136	20.93
412.499	21.07
412.861	20.92
413.223	21.23
413.586	21.09
413.948	21.29
414.31	21.45
414.672	21.68
415.035	21.54
415.397	21.49
415.759	21.5
416.121	21.64
416.483	21.68
416.845	21.43
417.206	21.76
417.568	21.56
417.93	21.78
418.292	21.81
418.653	21.7
419.015	21.7
419.377	21.73
419.738	21.62
420.1	21.8
420.461	21.53
420.822	21.69
421.184	21.79
421.545	21.82
421.906	21.73
422.267	21.67
422.629	21.64
422.99	21.69
423.351	21.84
423.712	21.95
424.073	21.92
424.434	21.92
424.795	22.01
425.155	22.05
425.516	21.99
425.877	21.85
426.238	21.9
426.598	22.14
426.959	22.18
427.32	22.31
427.68	22.41
428.041	22.5
428.401	22.59
428.761	22.49
429.122	22.73
429.482	22.77
429.842	22.86
430.202	22.78
430.563	22.95
430.923	23.08
431.283	23.16
431.643	23.11
432.003	23.17
432.363	23.03
432.722	23.23
433.082	23.19
433.442	23.12
433.802	23.39
434.161	23.18
434.521	23.24
434.881	23.5
435.24	23.19
435.6	23.45
435.959	23.43
436.319	23.23
436.678	23.58
437.037	23.76
437.396	23.89
437.756	23.5
438.115	23.87
438.474	23.96
438.833	23.87
439.192	23.86
439.551	23.91
439.91	24.11
440.269	24.03
440.628	23.88
440.987	23.91
441.345	23.64
441.704	24.07
442.063	24.01
442.421	24.03
442.78	23.89
443.138	24.09
443.497	24.13
443.855	24.18
444.214	24.32
444.572	24.27
444.93	24.45
445.288	24.52
445.647	24.55
446.005	24.5
446.363	24.43
446.721	24.4
447.079	24.48
447.437	24.46
447.795	24.27
448.153	24.45
448.51	24.37
448.868	24.43
449.226	24.47
449.584	24.66
449.941	24.67
450.299	25.07
450.656	24.95
451.014	24.99
451.371	24.98
451.729	24.9
452.086	25.24
452.443	25.19
452.801	25.39
453.158	25.29
453.515	25.45
453.872	25.58
454.229	25.23
454.586	25.45
454.943	25.45
455.3	25.45
455.657	25.6
456.014	25.52
456.371	25.72
456.727	25.64
457.084	25.74
457.441	25.78
457.797	26.08
458.154	25.73
458.51	26.01
458.867	25.99
459.223	26.2
459.58	25.89
459.936	26.12
460.292	26.07
460.648	26.18
461.005	25.76
461.361	25.95
461.717	25.78
462.073	25.81
462.429	26.05
462.785	26.07
463.141	26.33
463.496	26.3
463.852	26.51
464.208	26.76
464.564	26.46
464.919	26.71
465.275	26.57
465.631	26.79
465.986	26.81
466.342	26.64
466.697	26.89
467.052	26.95
467.408	26.84
467.763	26.78
468.118	26.91
468.473	27.11
468.829	26.77
469.184	27
469.539	26.94
469.894	27.38
470.249	27.04
470.603	27.43
470.958	27.14
471.313	27.18
471.668	27.59
472.023	27.35
472.377	27.49
472.732	27.56
473.086	27.5
473.441	27.7
473.795	27.85
474.15	27.66
474.504	27.67
474.859	27.63
475.213	27.63
475.567	27.63
475.921	27.99
476.275	27.92
476.63	27.92
476.984	27.9
477.338	28.17
477.692	28.01
478.045	28.18
478.399	28.07
478.753	28.06
479.107	28.12
479.461	28.04
479.814	28.01
480.168	28
480.521	28.3
480.875	28.23
481.228	28.42
481.582	28.3
481.935	28.3
482.289	28.28
482.642	28.38
482.995	28.45
483.348	28.38
483.701	28.23
484.055	28.27
484.408	28.19
484.761	27.88
485.114	28
485.466	27.9
485.819	27.6
486.172	27.53
486.525	27.64
486.878	27.83
487.23	28.06
487.583	28.29
487.936	28.57
488.288	28.33
488.641	28.4
488.993	28.11
489.345	28.05
489.698	28.18
490.05	28.27
490.402	28.29
490.754	28.52
491.107	28.71
491.459	28.85
491.811	29.11
492.163	29.06
492.515	29.03
492.866	28.9
493.218	28.74
493.57	28.72
493.922	28.6
494.274	28.72
494.625	28.98
494.977	29.26
495.328	29.49
495.68	29.75
496.031	29.72
496.383	29.92
496.734	30.15
497.086	30.14
497.437	30.16
497.788	29.99
498.139	29.99
498.49	29.91
498.842	30.02
499.193	29.85
499.544	30.04
499.894	30.19
500.245	30.04
500.596	30.23
500.947	30.26
501.298	30.41
501.648	30.7
501.999	30.57
502.35	30.88
502.7	30.64
503.051	30.86
503.401	30.87
503.752	30.75
504.102	30.87
504.452	30.8
504.803	30.8
505.153	30.94
505.503	30.89
505.853	31.02
506.203	31.03
506.553	31.08
506.903	31.17
507.253	31.14
507.603	31.33
507.953	31.34
508.303	31.48
508.652	31.46
509.002	31.41
509.352	31.38
509.701	31.36
510.051	31.33
510.4	31.47
510.75	31.46
511.099	31.5
511.449	31.44
511.798	31.62
512.147	31.63
512.496	31.68
512.846	31.8
513.195	31.83
513.544	31.65
513.893	31.91
514.242	31.97
514.591	31.79
514.939	31.87
515.288	32.02
515.637	32.08
515.986	32.17
516.334	32.15
516.683	32.31
517.032	32.33
517.38	32.5
517.729	32.53
518.077	32.57
518.426	32.53
518.774	32.71
519.122	32.45
519.47	32.42
519.819	32.4
520.167	32.28
520.515	32.25
520.863	32.1
521.211	32.28
521.559	32.45
521.907	32.46
522.255	32.66
522.602	32.89
522.95	32.99
523.298	32.93
523.645	33.14
523.993	33.14
524.341	33.13
524.688	33.14
525.036	33.35
525.383	33.51
525.73	33.23
526.078	33.3
526.425	33.26
526.772	33.13
527.119	33.08
527.466	32.95
527.814	32.97
528.161	33
528.508	33.09
528.854	33.16
529.201	33.29
529.548	33.11
529.895	32.99
530.242	32.94
530.588	32.84
530.935	32.56
531.282	32.6
531.628	32.84
531.975	33.1
532.321	33.24
532.667	33.39
533.014	33.52
533.36	33.72
533.706	33.76
534.052	33.81
534.399	33.72
534.745	33.64
535.091	33.48
535.437	33.52
535.783	33.49
536.129	33.81
536.474	33.92
536.82	33.96
537.166	34.24
537.512	34.46
537.857	34.46
538.203	34.24
538.549	34.2
538.894	34.08
539.239	34.32
539.585	34.44
539.93	34.68
540.276	34.83
540.621	34.9
540.966	35.05
541.311	35.15
541.656	35
542.001	34.81
542.346	34.84
542.691	34.62
543.036	34.57
543.381	34.41
543.726	34.39
544.071	34.53
544.415	34.56
544.76	34.73
545.105	34.93
545.449	35
545.794	35.13
546.138	35.34
546.483	35.48
546.827	35.63
547.171	35.67
547.516	35.61
547.86	35.47
548.204	35.49
548.548	35.7
548.892	35.62
549.236	35.67
549.58	35.72
549.924	36.01
550.268	36.1
550.612	36.04
550.956	36.11
551.3	36.41
551.643	36.46
551.987	36.44
552.33	36.64
552.674	36.34
553.017	36.76
553.361	36.7
553.704	36.64
554.048	36.64
554.391	36.76
554.734	36.63
555.077	36.55
555.42	36.55
555.764	36.87
556.107	36.76
556.45	36.8
556.793	36.95
557.135	37.17
557.478	37.02
557.821	37.11
558.164	37.27
558.507	37.26
558.849	37.19
559.192	37.42
559.534	37.29
559.877	37.44
560.219	37.45
560.562	37.76
560.904	37.34
561.246	37.56
561.589	37.68
561.931	37.82
562.273	37.58
562.615	37.73
562.957	37.61
563.299	37.59
563.641	37.62
563.983	37.89
564.325	37.68
564.667	37.94
565.008	37.82
565.35	38.06
565.692	38.18
566.033	37.92
566.375	38.29
566.716	38.25
567.058	38.09
567.399	38.17
567.741	38.21
568.082	38.14
568.423	38.04
568.764	38.29
569.105	38.28
569.447	38.38
569.788	38.46
570.129	38.68
570.47	38.87
570.811	38.76
571.151	38.65
571.492	38.79
571.833	38.87
572.174	38.73
572.514	38.75
572.855	38.68
573.195	38.78
573.536	38.93
573.876	38.82
574.217	38.76
574.557	38.96
574.898	38.9
575.238	38.97
575.578	39.33
575.918	38.93
576.258	39.02
576.598	38.95
576.938	39.26
577.278	38.89
577.618	39.3
577.958	39.26
578.298	39.08
578.638	39.43
578.977	39.6
579.317	39.42
579.657	39.63
579.996	39.55
580.336	39.21
580.675	39.64
581.014	39.61
581.354	39.94
581.693	39.71
582.032	39.7
582.372	40.29
582.711	39.92
583.05	40.08
583.389	40.19
583.728	40.23
584.067	40.09
584.406	40.56
584.745	40.12
585.083	40.15
585.422	40.08
585.761	40.44
586.1	40.91
586.438	40.51
586.777	40.52
587.115	40.56
587.454	40.78
587.792	40.52
588.13	40.82
588.469	40.61
588.807	41.03
589.145	40.79
589.483	40.77
589.821	40.88
590.159	40.92
590.497	40.56
590.835	41.01
591.173	40.88
591.511	40.88
591.849	41.07
592.187	40.75
592.524	41.2
592.862	41.1
593.2	41.13
593.537	40.72
593.875	41.3
594.212	41.28
594.55	41.21
594.887	41.42
595.224	41.4
595.561	41.26
595.899	41.59
596.236	41.56
596.573	41.72
596.91	41.6
597.247	41.41
597.584	41.6
597.921	41.6
598.258	41.9
598.594	41.56
598.931	41.29
599.268	41.37
599.604	41.62
599.941	41.3
600.277	41.4
600.614	41.66
600.95	42.21
601.287	41.68
601.623	42.08
601.959	41.9
602.296	42.13
602.632	42.22
602.968	42.52
603.304	42.12
603.64	42.1
603.976	42.25
604.312	42.4
604.648	42.61
604.984	42.48
605.319	42.4
605.655	42.09
605.991	42.39
606.326	42.47
606.662	42.17
606.998	42.14
607.333	42.07
607.668	42.44
608.004	42.49
608.339	42.43
608.674	42.69
609.01	42.72
609.345	42.84
609.68	42.75
610.015	42.89
610.35	43.12
610.685	42.87
611.02	43.19
611.355	42.93
611.689	42.75
612.024	43.53
612.359	42.83
612.694	43.29
613.028	43.1
613.363	43.17
613.697	43.16
614.032	43.11
614.366	43.09
614.7	43.84
615.035	43.15
615.369	43.23
615.703	43.82
616.037	43.28
616.371	43.48
616.705	44.02
617.039	44
617.373	43.6
617.707	43.98
618.041	43.5
618.375	43.48
618.709	43.89
619.042	43.85
619.376	43.78
619.71	43.88
620.043	43.64
620.377	43.91
620.71	44.22
621.043	43.63
621.377	43.72
621.71	44.59
622.043	44.15
622.376	44.29
622.709	44.34
623.043	44.36
623.376	44.52
623.709	44.57
624.041	44.54
624.374	44.09
624.707	44.36
625.04	44.64
625.373	44.76
625.705	44.72
626.038	44.87
626.37	44.29
626.703	44.71
627.035	44.89
627.368	44.8
627.7	44.9
628.032	45.06
628.365	44.93
628.697	44.79
629.029	45.09
629.361	44.7
629.693	45.19
630.025	44.7
630.357	44.85
630.689	45.43
631.021	45.24
631.353	45.12
631.684	45.16
632.016	44.83
632.348	45.35
632.679	45.48
633.011	45.16
633.342	45.17
633.674	45.44
634.005	45.12
634.336	45.7
634.668	45.41
634.999	45.58
635.33	45.67
635.661	45.77
635.992	45.77
636.323	45.31
636.654	45.52
636.985	45.52
637.316	45.52
637.647	45.53
637.977	45.81
638.308	45.88
638.639	46.01
638.969	46.37
639.3	45.88
639.63	45.78
639.961	45.54
640.291	45.78
640.622	46
640.952	45.94
641.282	45.74
641.612	46.06
641.943	46.4
642.273	46.45
642.603	46.29
642.933	46.31
643.263	46.91
643.592	46.41
643.922	47.08
644.252	46.63
644.582	46.2
644.911	45.86
645.241	46.42
645.571	46.54
645.9	47.39
646.23	46.64
646.559	46.95
646.888	46.04
647.218	46.67
647.547	47.05
647.876	46.92
648.205	46.47
648.534	46.61
648.863	46.57
649.192	46.94
649.521	46.56
649.85	46.81
650.179	46.82
650.508	46.95
650.837	47.14
651.165	47.77
651.494	46.8
651.822	47.2
652.151	47.16
652.479	47.55
652.808	47.15
653.136	47.29
653.465	47.35
653.793	47.43
654.121	47.26
654.449	47.33
654.777	47.43
655.105	47.63
655.433	47.02
655.761	47.45
656.089	47.39
656.417	47.24
656.745	47.59
657.073	48.26
657.4	47.38
657.728	47.04
658.056	47.6
658.383	47.83
658.711	47.95
659.038	48.01
659.365	47.76
659.693	47.83
660.02	47.73
660.347	48.07
660.674	48.52
661.001	47.92
661.329	48.22
661.656	47.9
661.982	47.98
662.309	48.13
662.636	48.19
662.963	48.38
663.29	48.29
663.616	47.68
663.943	48.65
664.27	48.46
664.596	48.27
664.923	48.66
665.249	48.47
665.576	47.57
665.902	48.1
666.228	48.77
666.554	48.44
666.881	48.24
667.207	48.93
667.533	48.48
667.859	49.07
668.185	48.65
668.511	48.37
668.837	48.45
669.162	48.45
669.488	49.12
669.814	49.24
670.139	48.83
670.465	48.85
670.791	49.09
671.116	49
671.442	48.62
671.767	48.61
672.092	49.31
672.418	49.3
672.743	48.61
673.068	48.61
673.393	48.84
673.718	49.18
674.043	49.39
674.368	49.29
674.693	48.34
675.018	49.02
675.343	49.21
675.667	49.08
675.992	48.57
676.317	49.3
676.641	48.91
676.966	50.02
677.29	49.49
677.615	49.5
677.939	49.13
678.264	49.01
678.588	49.42
678.912	49.16
679.236	49.52
679.56	49.42
679.885	50.01
680.209	49.07
680.532	50.08
680.856	49.46
681.18	50.3
681.504	49.55
681.828	49.92
682.152	49.71
682.475	50.25
682.799	49.83
683.122	49.53
683.446	48.95
683.769	49.41
684.093	50.28
684.416	50
684.739	50.35
685.062	49.85
685.386	49.77
685.709	50.16
686.032	49.83
686.355	49.73
686.678	50.35
687.001	50.01
687.324	50.13
687.646	49.96
687.969	49.83
688.292	50.39
688.614	50.42
688.937	50.44
689.26	50.62
689.582	50.83
689.904	50.63
690.227	51.26
690.549	50.44
690.871	50.81
691.194	50.25
691.516	51
691.838	50.67
692.16	49.54
692.482	50.11
692.804	49.89
693.126	49.83
693.448	50.42
693.769	50.11
694.091	50.96
694.413	50.34
694.735	50.95
695.056	51.1
695.378	51.11
695.699	51.94
696.021	50.51
696.342	50.39
696.663	50.56
696.984	51.6
697.306	50.64
697.627	50.57
697.948	50.87
698.269	51.58
698.59	51.36
698.911	51.1
699.232	51.69
699.553	51.53
699.873	52.25
700.194	51.59
700.515	51.21
700.835	51.83
701.156	51.63
701.477	51.28
701.797	51.28
702.117	51.8
702.438	51.01
702.758	51.46
703.078	50.64
703.398	52.43
703.719	51.58
704.039	51.88
704.359	50.59
704.679	51.53
704.999	51.29
705.319	50.52
705.638	52.84
705.958	51.7
706.278	52.31
706.597	52.18
706.917	52.49
707.237	52.61
707.556	51.16
707.876	51.4
708.195	51.76
708.514	52.84
708.834	52.26
709.153	52.07
709.472	52.75
709.791	52.14
710.11	53.53
710.429	51.69
710.748	52.37
711.067	52.36
711.386	53.17
711.705	51.43
712.023	53
712.342	51.68
712.661	52.58
712.979	52.9
713.298	51.03
713.616	52.85
713.935	52.17
714.253	51.69
714.572	50.96
714.89	52.82
715.208	52.66
715.526	52.89
715.844	52.99
716.162	52.45
716.48	52.21
716.798	52.42
717.116	53.62
717.434	53.22
717.752	53.54
718.069	52.24
718.387	52.34
718.705	53.11
719.022	52.35
719.34	51.57
719.657	53.03
719.975	53.17
720.292	52.7
720.609	51.77
720.927	53.14
721.244	52.62
721.561	52.71
721.878	51.76
722.195	53.3
722.512	53.89
722.829	53.63
723.146	52.07
723.463	52.77
723.779	53
724.096	54.16
724.413	53.71
724.729	52.9
725.046	54.72
725.362	53.31
725.679	55.16
725.995	53.97
726.311	53.17
726.628	52.59
726.944	54.12
727.26	53.97
727.576	53.28
727.892	52.87
728.208	53.22
728.524	54.22
728.84	53.96
729.156	54.95
729.472	54.58
729.787	53.66
730.103	53.74
730.419	53.98
730.734	53.33
731.05	53.93
731.365	53.48
731.681	52.63
731.996	53.6
732.311	54.73
732.626	54.61
732.942	53.16
733.257	53.39
733.572	54.42
733.887	54.31
734.202	53.88
734.517	53.49
734.832	54.65
735.146	53.4
735.461	54.59
735.776	54.35
736.091	54.13
736.405	54.05
736.72	53.62
737.034	53.98
737.349	54.23
737.663	53.75
737.977	53.03
738.292	55.57
738.606	54.81
738.92	55.03
739.234	53.24
739.548	54.79
739.862	55.29
740.176	52.75
740.49	54.66
740.804	54.03
741.117	54.39
741.431	53.81
741.745	53.25
742.058	54.84
742.372	54.29
742.685	55.09
742.999	54.65
743.312	54.28
743.626	55.18
743.939	53.16
744.252	54.76
744.565	54.47
744.878	54.92
745.191	55.8
745.505	53.75
745.817	54.5
746.13	55
746.443	56.28
746.756	52.4
747.069	54.18
747.381	54.04
747.694	54.92
748.007	55.67
748.319	53.82
748.632	54.3
748.944	54.96
749.256	56.94
749.569	56.91
749.881	54.14
750.193	54.19
750.505	56.93
750.817	54.56
751.129	55.45
751.441	54.62
751.753	55.34
752.065	54.76
752.377	56.65
752.689	55.97
753	53.57
753.312	54.94
753.624	56.41
753.935	54.76
754.247	55.74
754.558	54.88
754.869	56.26
755.181	54.77
755.492	56.71
755.803	55.3
756.114	55.45
756.425	54.37
756.736	54.54
757.047	55.93
757.358	57.38
757.669	56.8
757.98	54.72
758.291	54.52
758.601	54.19
758.912	56.66
759.223	55.88
759.533	54.9
759.844	55.15
760.154	56.78
760.464	56.26
760.775	56.23
761.085	52.98
761.395	55.28
761.705	55.59
762.016	53.76
762.326	57.52
762.636	56.44
762.945	53.1
763.255	55.71
763.565	58.86
763.875	54.41
764.185	57.34
764.494	55.9
764.804	54.91
765.113	56.2
765.423	56.64
765.732	57.18
766.042	55.62
766.351	56.13
766.66	56.52
766.97	54.92
767.279	54.52
767.588	56.83
767.897	54.78
768.206	56.09
768.515	52.91
768.824	55.17
769.133	56.3
769.441	54.64
769.75	54.5
770.059	55.77
770.367	55.42
770.676	57.09
770.984	56.39
771.293	54.12
771.601	58.19
771.91	56.73
772.218	56.15
772.526	57.25
772.834	56.81
773.142	54.35
773.45	54.97
773.758	55.89
774.066	57.27
774.374	56.01
774.682	58.17
774.99	55.85
775.298	51.93
775.605	57.57
775.913	56.53
776.22	55.13
776.528	55.54
776.835	54.36
777.143	57.24
777.45	54.93
777.757	55.67
778.065	57.79
778.372	55.28
778.679	57.52
778.986	58.05
779.293	60.7
779.6	54.04
779.907	58.72
780.214	56.12
780.52	58.83
780.827	56.27
781.134	56.45
781.44	55.61
781.747	54.37
782.053	56.66
782.36	55.99
782.666	59.02
782.973	56.39
783.279	53.09
783.585	54.44
783.891	57.19
784.197	57.52
784.503	56.93
784.809	55.8
785.115	57.7
785.421	54.74
785.727	54.55
786.033	57.43
786.339	56.24
786.644	58.04
786.95	58.73
787.255	56.82
787.561	59.16
787.866	55.89
788.172	55.63
788.477	55.03
788.782	56.44
789.088	60.53
789.393	57.31
789.698	55.83
790.003	56.23
790.308	56.27
790.613	59.08
790.918	60.96
791.223	57.26
791.527	60.2
791.832	57.86
792.137	57.06
792.441	56.55
792.746	55.89
793.05	55.52
793.355	60.6
793.659	57.24
793.963	55.57
794.268	59.45
794.572	54.99
794.876	53.07
795.18	53.01
795.484	55.65
795.788	57.92
796.092	55.26
796.396	58.61
796.7	61.61
797.004	58.53
797.307	58.21
797.611	59.76
797.915	55.15
798.218	55.93
798.522	54.15
798.825	56.93
799.128	61.19
799.432	58.81
799.735	57.48
800.038	56.07
800.341	61.92
800.644	57.58
800.947	56.91
801.25	53.13
801.553	56.37
801.856	59.37
802.159	59.7
802.462	56.01
802.764	56.52
803.067	55.28
803.37	58.68
803.672	52.75
803.975	53.24
804.277	57.89
804.579	58.62
804.882	57.09
805.184	61.17
805.486	57.86
805.788	58.62
806.09	51.54
806.392	58.58
806.694	61.37
806.996	58.44
807.298	55.97
807.6	57.02
807.902	53.49
808.203	58.51
808.505	56.92
808.807	57.2
809.108	55.58
809.409	58.4
809.711	59.19
810.012	57.91
810.313	58.61
810.615	54.78
810.916	58.29
811.217	55.32
811.518	62.5
811.819	55.83
812.12	59.61
812.421	57.4
812.722	51.54
813.023	62.4
813.323	60.22
813.624	55.64
813.925	56.36
814.225	65.31
814.526	60.71
814.826	59.3
815.126	59.34
815.427	55.21
815.727	61.94
816.027	58.29
816.327	60.61
816.627	51.74
816.927	48.57
817.227	49.58
817.527	59.71
817.827	60.66
818.127	64.7
818.427	58.91
818.727	55.08
819.026	58.55
819.326	60.2
819.625	60.43
819.925	63.12
820.224	56.89
820.524	56.68
820.823	55.37
821.122	60.39
821.421	56.13
821.72	59.9
822.019	55.59
822.318	55.32
822.617	56.29
822.916	58.53
823.215	55.89
823.514	61.98
823.813	58.99
824.111	59.99
824.41	59.31
824.709	60.21
825.007	59.22
825.306	60.16
825.604	59.65
825.902	58.38
826.201	59.99
826.499	59.28
826.797	59.56
827.095	57.11
827.393	55.73
827.691	58.4
827.989	59.03
828.287	58.19
828.585	58.46
828.882	58.74
829.18	58.28
829.478	59.98
829.775	58.27
830.073	60.35
830.37	58.55
830.668	59.25
830.965	59.69
831.263	56.11
831.56	58.73
831.857	58.78
832.154	57.67
832.451	60.01
832.748	54.31
833.045	62.92
833.342	57.7
833.639	59.5
833.936	54.7
834.232	59.03
834.529	62.5
834.826	66.09
835.122	59.02
835.419	56.09
835.715	58.23
836.012	62.39
836.308	60.2
836.604	57.35
836.901	62.45
837.197	61.26
837.493	55.98
837.789	60.81
838.085	60.81
838.381	55.88
838.677	52.74
838.972	55.2
839.268	57.61
839.564	62.05
839.86	54.21
840.155	60
840.451	54.24
840.746	59.46
841.042	48.37
841.337	53.96
841.632	58.33
841.928	55.05
842.223	53.91
842.518	65.32
842.813	56.98
843.108	52.83
843.403	56.46
843.698	52.98
843.993	57.18
844.287	57.51
844.582	66.5
844.877	54.8
845.171	63.6
845.466	52.11
845.761	51.91
846.055	65.11
846.349	66.46
846.644	65.93
846.938	53.09
847.232	45.88
847.526	54.63
847.82	54.87
848.114	42.41
848.408	50
848.702	56.93
848.996	60.78
849.29	45.58
849.584	63.1
849.877	56.78
850.171	52.26
850.465	42.97
850.758	53.47
851.052	50.99
851.345	56.23
851.638	57.93
851.932	41.2
852.225	56.73
852.518	72.01
852.811	57.34
853.104	68.16
853.397	48.23
853.69	44.44
853.983	53.36
854.276	48.67
854.569	39.6
854.861	40.63
855.154	56.49
855.447	72.92
855.739	51.52
856.032	25.08
856.324	49.74
856.616	52.95
856.909	60.82
857.201	64.25
857.493	44.59
857.785	29.68
858.077	61.56
858.369	34.31
858.661	60.62
858.953	32.87
859.245	58.51
859.537	73.05
859.829	53.96
860.12	51.31
860.412	47.22
860.703	49.17
860.995	34.44
861.286	43.9
861.578	61.4
861.869	57.43
862.16	50.35
862.452	39.95
862.743	64.46
863.034	41.29
863.325	65.24
863.616	53.95
863.907	47.02
864.198	35.36
864.488	50.26
864.779	36.79
865.07	68.33
865.36	57.91
865.651	91.57
865.941	72.26
866.232	75.55
866.522	33.2
866.813	96.57
867.103	64.53
867.393	46.96
867.683	63.17
867.973	52.32
868.263	48.92
868.553	42.25
868.843	44.38
869.133	61.7
869.423	62.06
869.713	64.11
870.002	45.88
870.292	74.58
870.582	37.22
870.871	60.14
871.161	32.94
871.45	74.89
871.739	48.15
872.029	48.89
872.318	57.01
872.607	39.62
872.896	52.94
873.185	84.57
873.474	50.75
873.763	78.33
874.052	54.53
874.341	4.19
874.63	45.9
874.918	45.5
875.207	41.84
875.496	66.3
875.784	94.34
876.073	39.58
876.361	31.43
876.649	65.9
876.938	48.83
877.226	56.67
877.514	36.36
877.802	46.44
878.09	75.45
878.378	64.34
878.666	23.3
878.954	73.96
879.242	52.37
879.53	44.06
879.817	63.91
880.105	61.9
880.392	38.62
880.68	42.9
880.967	65.55
881.255	80.9
881.542	49.38
881.83	41.23
882.117	73.96
882.404	47.09
882.691	29.74
882.978	47.41
883.265	61.89
883.552	51.19
883.839	60.73
884.126	62.42
884.413	61.29
884.699	61.85
884.986	62.25
885.273	61.39
885.559	61.39
885.846	61.39
