Data from 1710-3_crown_Reflection__2__143.txt Node

Date: Fri Sep 30 19:14:33 CDT 2022
User: ToomeyLab
Spectrometer: FLMS14357
Trigger mode: 0
Integration Time (sec): 1.000000E-2
Scans to average: 100
Electric dark correction enabled: true
Nonlinearity correction enabled: false
Boxcar width: 0
XAxis mode: Wavelengths
Number of Pixels in Spectrum: 2048
>>>>>Begin Spectral Data<<<<<
189.047	-988.75
189.435	-988.75
189.823	-988.75
190.211	20.86
190.599	-448.66
190.987	1385.42
191.375	-629.96
191.763	128.7
192.151	1.63
192.538	-1.26
192.926	174
193.314	-27.09
193.702	-7981.25
194.089	35.36
194.477	21.36
194.864	42.69
195.252	45.11
195.639	28.23
196.027	-41.53
196.414	28118.75
196.801	-250.37
197.189	143.62
197.576	19.04
197.963	-79.81
198.351	-10.31
198.738	-12.27
199.125	-7.04
199.512	22.31
199.899	4.42
200.286	19.33
200.673	-8.09
201.06	-5.39
201.447	-60.5
201.833	45.71
202.22	-117.2
202.607	-18.93
202.994	-13.63
203.38	8.48
203.767	18.17
204.154	23.32
204.54	-27.46
204.927	-36.85
205.313	23.2
205.699	-7.8
206.086	42.91
206.472	11.76
206.858	29.85
207.245	-39.87
207.631	2.58
208.017	-6.4
208.403	4.73
208.789	30.26
209.175	21.19
209.561	24.15
209.947	24.01
210.333	-6.4
210.719	19.43
211.105	-5
211.491	21.5
211.876	7.05
212.262	3.05
212.648	-61.77
213.034	3.43
213.419	-2.7
213.805	18.85
214.19	-25.65
214.576	-11.5
214.961	10.93
215.346	26.28
215.732	-29.62
216.117	-17.65
216.502	37.35
216.888	-10.3
217.273	-4.64
217.658	-18.83
218.043	15.34
218.428	7.79
218.813	-25.07
219.198	26.34
219.583	24.29
219.968	0.08
220.353	16.31
220.738	8.29
221.122	-24.12
221.507	18.28
221.892	-10.66
222.276	-10.43
222.661	3.11
223.046	-12.31
223.43	7.98
223.815	7.81
224.199	7.83
224.583	13.78
224.968	-2.33
225.352	1.53
225.736	-0.01
226.121	4
226.505	10.63
226.889	7.05
227.273	4.84
227.657	4.77
228.041	2.43
228.425	1.8
228.809	4.07
229.193	2.38
229.577	3.72
229.961	3.21
230.344	4.75
230.728	4.04
231.112	4.84
231.495	4.03
231.879	3.9
232.263	6.04
232.646	4.97
233.03	4.43
233.413	3.66
233.797	0.8
234.18	0.8
234.563	3.54
234.946	3.54
235.33	3.96
235.713	1.18
236.096	5.29
236.479	5.41
236.862	4.73
237.245	3.15
237.628	3.22
238.011	3.73
238.394	2.18
238.777	2.57
239.16	3.71
239.543	5.91
239.925	2.64
240.308	2.08
240.691	3.28
241.073	2.51
241.456	2.57
241.838	3.21
242.221	4.5
242.603	3.89
242.986	3.64
243.368	3.94
243.75	3.37
244.133	3.47
244.515	3.42
244.897	3.26
245.279	3.75
245.661	4
246.043	2.67
246.425	4.67
246.807	3.47
247.189	3.12
247.571	3.67
247.953	3.46
248.335	3.72
248.717	3.43
249.098	3.76
249.48	3.81
249.862	3.43
250.243	3.62
250.625	3.49
251.006	4.02
251.388	3.72
251.769	3.41
252.151	3.07
252.532	4.14
252.913	2.54
253.295	3.54
253.676	3.92
254.057	3.43
254.438	3.61
254.819	3.88
255.2	3.35
255.581	3.07
255.962	3.73
256.343	1.72
256.724	4.49
257.105	2.28
257.486	4.08
257.867	3.63
258.247	4.12
258.628	3.56
259.009	2.78
259.389	3.36
259.77	3.06
260.15	3.33
260.531	3.92
260.911	3.4
261.292	3.43
261.672	3.32
262.052	3.38
262.432	3.9
262.813	3.48
263.193	3.37
263.573	3.66
263.953	3.68
264.333	3.6
264.713	3.46
265.093	3.55
265.473	3.09
265.853	3.57
266.233	3.39
266.612	3.01
266.992	2.78
267.372	3.97
267.752	2.81
268.131	3.29
268.511	3.25
268.89	3.01
269.27	3.75
269.649	3.52
270.029	3.42
270.408	3.44
270.787	3.24
271.167	2.93
271.546	3.09
271.925	2.8
272.304	3.53
272.683	3.21
273.062	3.29
273.441	2.94
273.82	3.05
274.199	3.25
274.578	3.33
274.957	3.24
275.336	3
275.715	2.72
276.093	2.95
276.472	2.9
276.851	3.97
277.229	3.8
277.608	3
277.986	2.79
278.365	2.9
278.743	3.86
279.122	2.41
279.5	3.5
279.878	2.89
280.257	3.02
280.635	2.95
281.013	3.42
281.391	3.8
281.769	3.09
282.147	3.08
282.525	3.21
282.903	3.05
283.281	3.57
283.659	3.51
284.037	3.18
284.415	2.49
284.792	3.19
285.17	3.33
285.548	3.28
285.925	2.84
286.303	2.91
286.68	2.87
287.058	3
287.435	3.12
287.813	2.92
288.19	2.88
288.567	2.97
288.945	2.78
289.322	3.24
289.699	2.7
290.076	2.84
290.453	3.21
290.83	2.77
291.207	3.39
291.584	2.87
291.961	2.91
292.338	2.85
292.715	3.24
293.092	2.83
293.469	2.94
293.845	3.63
294.222	3.11
294.599	3.23
294.975	2.96
295.352	2.94
295.728	2.99
296.105	3.42
296.481	3.21
296.858	2.65
297.234	2.55
297.61	3.19
297.986	3.09
298.363	3.18
298.739	3.1
299.115	3.14
299.491	3.13
299.867	3.01
300.243	3.44
300.619	2.64
300.995	3.38
301.371	3.52
301.746	3.62
302.122	3.06
302.498	2.77
302.874	2.51
303.249	2.81
303.625	2.65
304	3.14
304.376	3.35
304.751	3.12
305.127	3.2
305.502	2.9
305.878	3.25
306.253	3.59
306.628	3.12
307.003	3.76
307.378	3.23
307.754	2.95
308.129	3.29
308.504	3.37
308.879	3.54
309.254	2.94
309.629	2.98
310.003	3.05
310.378	3.35
310.753	2.85
311.128	2.97
311.502	3.27
311.877	3.02
312.252	2.74
312.626	2.8
313.001	2.92
313.375	2.89
313.75	3.2
314.124	2.77
314.498	2.84
314.873	3.16
315.247	3.29
315.621	3.38
315.995	2.98
316.369	2.97
316.743	2.97
317.117	3.1
317.491	3.09
317.865	3.37
318.239	3.05
318.613	3.18
318.987	2.69
319.361	2.82
319.734	3.1
320.108	3.2
320.482	3.44
320.855	3.03
321.229	2.86
321.602	3.32
321.976	3.54
322.349	3.01
322.723	2.78
323.096	2.76
323.469	3.6
323.843	2.94
324.216	2.21
324.589	3.06
324.962	3.17
325.335	3.13
325.708	3.32
326.081	3.46
326.454	3.48
326.827	2.91
327.2	3.16
327.573	2.99
327.945	2.96
328.318	3.2
328.691	2.74
329.063	3.21
329.436	3.02
329.809	2.94
330.181	3.03
330.553	3.39
330.926	3.42
331.298	2.88
331.671	3.26
332.043	2.52
332.415	3.3
332.787	3.17
333.159	3.45
333.532	3.65
333.904	3.43
334.276	3.39
334.648	3.1
335.02	2.72
335.391	3.27
335.763	3.17
336.135	2.8
336.507	3.5
336.879	3.17
337.25	3.19
337.622	3.16
337.993	2.49
338.365	3.34
338.736	2.85
339.108	3.63
339.479	2.97
339.851	3.04
340.222	3.43
340.593	3.37
340.964	3.76
341.336	3.16
341.707	2.8
342.078	3.2
342.449	3.16
342.82	3.15
343.191	3.06
343.562	3.34
343.933	3.03
344.303	3.26
344.674	3.24
345.045	2.85
345.416	2.89
345.786	2.99
346.157	2.72
346.527	3.27
346.898	3.31
347.268	3.14
347.639	2.93
348.009	2.92
348.38	2.83
348.75	3.3
349.12	3.11
349.49	2.98
349.861	3.47
350.231	3.36
350.601	3.04
350.971	3.07
351.341	3.34
351.711	3.36
352.081	2.96
352.45	3.16
352.82	3.42
353.19	3.26
353.56	2.89
353.929	2.95
354.299	3.33
354.669	3.33
355.038	3.6
355.408	2.99
355.777	3.13
356.147	3.13
356.516	3.31
356.885	3.21
357.254	3.29
357.624	3.1
357.993	3.11
358.362	3.18
358.731	3.03
359.1	2.78
359.469	3.23
359.838	3.47
360.207	3.33
360.576	3.32
360.945	3.06
361.314	3.11
361.682	3.14
362.051	3.16
362.42	2.84
362.788	3.09
363.157	3.25
363.525	3.24
363.894	3.31
364.262	3.08
364.631	3.43
364.999	3.61
365.367	3.1
365.735	3.41
366.104	3.09
366.472	3.34
366.84	3.31
367.208	3.02
367.576	3.06
367.944	3.1
368.312	2.88
368.68	3.04
369.048	3.48
369.416	3.12
369.783	3.32
370.151	3.21
370.519	3.17
370.886	3.28
371.254	3.43
371.621	3.87
371.989	3.07
372.356	3.38
372.724	3.07
373.091	3.21
373.458	2.88
373.826	3.23
374.193	3.47
374.56	3.31
374.927	3.53
375.294	3.12
375.661	3.47
376.028	3.56
376.395	3.04
376.762	3.19
377.129	3.39
377.496	3.42
377.863	3.39
378.229	3.61
378.596	3.3
378.963	2.97
379.329	3.47
379.696	3.28
380.062	3.5
380.429	3.37
380.795	2.96
381.161	3.24
381.528	3.11
381.894	3.45
382.26	3.64
382.626	3.57
382.993	3.43
383.359	3.3
383.725	3.45
384.091	3.1
384.457	3.56
384.823	3.4
385.188	3.42
385.554	3.4
385.92	3.45
386.286	3.33
386.651	3.57
387.017	3.31
387.383	3.45
387.748	3.64
388.114	3.29
388.479	3.39
388.845	3.38
389.21	3.35
389.575	3.59
389.94	3.36
390.306	3.4
390.671	3.33
391.036	3.26
391.401	3.22
391.766	3.33
392.131	3.4
392.496	3.29
392.861	3.64
393.226	3.4
393.591	3.44
393.956	3.55
394.32	3.47
394.685	3.36
395.05	3.57
395.414	3.5
395.779	3.47
396.143	3.29
396.508	3.45
396.872	3.46
397.236	3.43
397.601	3.7
397.965	3.68
398.329	3.09
398.694	3.47
399.058	3.55
399.422	3.77
399.786	3.53
400.15	3.69
400.514	3.83
400.878	3.33
401.242	3.32
401.605	3.66
401.969	3.41
402.333	3.43
402.697	3.65
403.06	3.48
403.424	3.39
403.787	3.43
404.151	3.36
404.514	3.45
404.878	3.39
405.241	3.53
405.604	3.4
405.968	3.55
406.331	3.49
406.694	3.43
407.057	3.4
407.42	3.57
407.783	3.51
408.146	3.45
408.509	3.37
408.872	3.49
409.235	3.57
409.598	3.32
409.961	3.42
410.323	3.37
410.686	3.37
411.049	3.21
411.411	3.42
411.774	3.65
412.136	3.47
412.499	3.6
412.861	3.5
413.223	3.76
413.586	3.48
413.948	3.6
414.31	3.44
414.672	3.97
415.035	3.43
415.397	3.45
415.759	3.83
416.121	3.71
416.483	3.53
416.845	3.52
417.206	3.7
417.568	3.59
417.93	3.34
418.292	3.6
418.653	3.55
419.015	3.53
419.377	3.38
419.738	3.42
420.1	3.5
420.461	3.48
420.822	3.5
421.184	3.3
421.545	3.44
421.906	3.5
422.267	3.47
422.629	3.34
422.99	3.42
423.351	3.5
423.712	3.5
424.073	3.49
424.434	3.54
424.795	3.41
425.155	3.47
425.516	3.49
425.877	3.41
426.238	3.47
426.598	3.34
426.959	3.53
427.32	3.54
427.68	3.56
428.041	3.55
428.401	3.71
428.761	3.6
429.122	3.63
429.482	3.7
429.842	3.6
430.202	3.64
430.563	3.51
430.923	3.59
431.283	3.56
431.643	3.58
432.003	3.73
432.363	3.69
432.722	3.47
433.082	3.68
433.442	3.54
433.802	3.6
434.161	3.49
434.521	3.44
434.881	3.46
435.24	3.51
435.6	3.45
435.959	3.84
436.319	3.53
436.678	3.58
437.037	3.73
437.396	3.66
437.756	3.59
438.115	3.76
438.474	3.64
438.833	3.68
439.192	3.63
439.551	3.7
439.91	3.45
440.269	3.54
440.628	3.5
440.987	3.58
441.345	3.54
441.704	3.55
442.063	3.62
442.421	3.49
442.78	3.62
443.138	3.54
443.497	3.6
443.855	3.74
444.214	3.64
444.572	3.55
444.93	3.56
445.288	3.69
445.647	3.64
446.005	3.66
446.363	3.67
446.721	3.56
447.079	3.52
447.437	3.48
447.795	3.54
448.153	3.62
448.51	3.53
448.868	3.59
449.226	3.64
449.584	3.61
449.941	3.63
450.299	3.66
450.656	3.6
451.014	3.67
451.371	3.81
451.729	3.53
452.086	3.64
452.443	3.82
452.801	3.68
453.158	3.6
453.515	3.56
453.872	3.64
454.229	3.67
454.586	3.42
454.943	3.58
455.3	3.76
455.657	3.75
456.014	3.8
456.371	3.94
456.727	3.64
457.084	3.72
457.441	3.72
457.797	3.69
458.154	3.75
458.51	3.68
458.867	3.76
459.223	3.57
459.58	3.58
459.936	3.72
460.292	3.8
460.648	3.66
461.005	3.44
461.361	3.5
461.717	3.53
462.073	3.62
462.429	3.75
462.785	3.78
463.141	3.71
463.496	3.76
463.852	3.78
464.208	3.82
464.564	3.76
464.919	3.72
465.275	3.8
465.631	3.81
465.986	3.75
466.342	3.62
466.697	3.67
467.052	3.62
467.408	3.58
467.763	3.84
468.118	3.94
468.473	3.83
468.829	3.63
469.184	3.67
469.539	3.63
469.894	3.73
470.249	3.8
470.603	3.87
470.958	3.78
471.313	3.68
471.668	3.75
472.023	3.53
472.377	3.67
472.732	3.83
473.086	3.73
473.441	3.68
473.795	3.9
474.15	3.86
474.504	3.51
474.859	3.79
475.213	3.88
475.567	3.65
475.921	3.87
476.275	3.73
476.63	3.69
476.984	3.75
477.338	3.81
477.692	3.75
478.045	3.79
478.399	3.8
478.753	3.74
479.107	3.74
479.461	3.6
479.814	3.8
480.168	3.7
480.521	3.73
480.875	3.8
481.228	3.83
481.582	3.85
481.935	3.65
482.289	3.65
482.642	3.74
482.995	3.62
483.348	3.7
483.701	3.69
484.055	3.75
484.408	3.66
484.761	3.5
485.114	3.33
485.466	3.33
485.819	3.42
486.172	3.54
486.525	3.69
486.878	3.77
487.23	3.8
487.583	3.8
487.936	3.62
488.288	3.68
488.641	3.56
488.993	3.51
489.345	3.56
489.698	3.55
490.05	3.61
490.402	3.66
490.754	3.73
491.107	3.84
491.459	3.78
491.811	3.8
492.163	3.71
492.515	3.67
492.866	3.56
493.218	3.5
493.57	3.59
493.922	3.57
494.274	3.78
494.625	3.81
494.977	3.96
495.328	3.78
495.68	3.8
496.031	3.86
496.383	3.89
496.734	3.81
497.086	3.76
497.437	3.73
497.788	3.78
498.139	3.77
498.49	3.68
498.842	3.82
499.193	3.75
499.544	3.71
499.894	3.87
500.245	3.88
500.596	3.74
500.947	3.9
501.298	4.04
501.648	3.91
501.999	3.8
502.35	3.74
502.7	3.94
503.051	3.95
503.401	3.98
503.752	3.73
504.102	3.79
504.452	3.69
504.803	3.81
505.153	3.83
505.503	3.76
505.853	3.8
506.203	3.84
506.553	3.85
506.903	3.89
507.253	3.9
507.603	4.03
507.953	3.72
508.303	3.86
508.652	3.85
509.002	3.88
509.352	3.79
509.701	3.87
510.051	3.88
510.4	3.91
510.75	3.74
511.099	3.85
511.449	3.83
511.798	3.85
512.147	3.92
512.496	3.92
512.846	3.81
513.195	3.88
513.544	3.89
513.893	3.79
514.242	3.78
514.591	3.87
514.939	3.97
515.288	3.97
515.637	3.85
515.986	3.8
516.334	3.95
516.683	3.99
517.032	4
517.38	3.93
517.729	3.96
518.077	3.98
518.426	3.98
518.774	3.95
519.122	3.88
519.47	3.91
519.819	3.78
520.167	3.72
520.515	3.76
520.863	3.81
521.211	3.98
521.559	3.86
521.907	3.95
522.255	3.94
522.602	4.03
522.95	3.9
523.298	3.95
523.645	3.86
523.993	3.98
524.341	3.88
524.688	3.9
525.036	3.85
525.383	3.92
525.73	3.81
526.078	3.89
526.425	3.96
526.772	3.76
527.119	3.75
527.466	3.77
527.814	3.84
528.161	3.85
528.508	3.93
528.854	3.93
529.201	3.77
529.548	3.72
529.895	3.59
530.242	3.55
530.588	3.6
530.935	3.76
531.282	3.84
531.628	3.93
531.975	3.94
532.321	3.92
532.667	4.04
533.014	4
533.36	3.96
533.706	3.89
534.052	3.93
534.399	3.8
534.745	3.77
535.091	3.68
535.437	3.76
535.783	3.97
536.129	3.97
536.474	4.03
536.82	4.03
537.166	3.91
537.512	3.93
537.857	3.86
538.203	3.77
538.549	3.79
538.894	3.91
539.239	3.96
539.585	3.97
539.93	4.09
540.276	4.19
540.621	3.98
540.966	4.09
541.311	3.88
541.656	3.9
542.001	3.84
542.346	3.79
542.691	3.72
543.036	3.69
543.381	3.74
543.726	3.89
544.071	3.89
544.415	4.1
544.76	3.93
545.105	3.98
545.449	3.98
545.794	3.93
546.138	4.08
546.483	4.03
546.827	4
547.171	3.96
547.516	3.99
547.86	3.86
548.204	3.83
548.548	3.87
548.892	4.05
549.236	3.87
549.58	4.07
549.924	4.09
550.268	4.14
550.612	4.1
550.956	4.19
551.3	4.04
551.643	3.95
551.987	3.97
552.33	4.26
552.674	4.07
553.017	4.01
553.361	4.23
553.704	4.07
554.048	3.97
554.391	4.13
554.734	4.11
555.077	3.83
555.42	4.11
555.764	4.16
556.107	4.09
556.45	4.2
556.793	4.29
557.135	4.04
557.478	4.13
557.821	4.12
558.164	4.29
558.507	4.18
558.849	4.03
559.192	4.14
559.534	4.28
559.877	4.29
560.219	4.11
560.562	4.09
560.904	4.27
561.246	4.16
561.589	4.16
561.931	4.07
562.273	4.01
562.615	4.07
562.957	4.07
563.299	4.15
563.641	4.27
563.983	4.1
564.325	4.03
564.667	4.15
565.008	4.25
565.35	4.06
565.692	3.96
566.033	4.03
566.375	4.13
566.716	4.17
567.058	4.18
567.399	3.96
567.741	3.93
568.082	4.03
568.423	4.09
568.764	4.08
569.105	4.01
569.447	3.98
569.788	4.17
570.129	4.12
570.47	4.07
570.811	3.86
571.151	4.1
571.492	4.21
571.833	4.15
572.174	4.05
572.514	4.06
572.855	4.08
573.195	4.21
573.536	4.19
573.876	3.99
574.217	4.08
574.557	4.21
574.898	4.06
575.238	4.06
575.578	4.1
575.918	4.2
576.258	3.97
576.598	3.98
576.938	4.18
577.278	4.06
577.618	4.05
577.958	4.13
578.298	4.17
578.638	4.26
578.977	4.21
579.317	4.08
579.657	4.09
579.996	4.34
580.336	4.1
580.675	4.24
581.014	4.01
581.354	3.87
581.693	4.32
582.032	4.29
582.372	4.12
582.711	4.15
583.05	4.53
583.389	4.1
583.728	4.31
584.067	4.41
584.406	4.27
584.745	4.37
585.083	4.29
585.422	4.17
585.761	4.39
586.1	4.3
586.438	4.1
586.777	4.19
587.115	4.23
587.454	4.11
587.792	4.35
588.13	4.28
588.469	4.18
588.807	4.29
589.145	4.46
589.483	4.07
589.821	4.12
590.159	4.18
590.497	4.26
590.835	4.25
591.173	4.19
591.511	3.99
591.849	4.13
592.187	4.29
592.524	4.19
592.862	4.08
593.2	4.3
593.537	4.32
593.875	4.18
594.212	4.22
594.55	4.05
594.887	4.2
595.224	4.38
595.561	4.24
595.899	4.23
596.236	4.33
596.573	4.43
596.91	4.21
597.247	4.18
597.584	4.36
597.921	4.41
598.258	4.27
598.594	4.08
598.931	4.18
599.268	4.2
599.604	4.4
599.941	4.19
600.277	4.25
600.614	4.41
600.95	4.32
601.287	4.47
601.623	4.24
601.959	4.21
602.296	4.27
602.632	4.12
602.968	4.14
603.304	4.44
603.64	4.09
603.976	4.18
604.312	4.16
604.648	4.49
604.984	4.16
605.319	4.26
605.655	4.11
605.991	4.18
606.326	4.16
606.662	4.16
606.998	4.21
607.333	4.32
607.668	4.36
608.004	4.37
608.339	4.15
608.674	4.23
609.01	4.3
609.345	4.12
609.68	4.16
610.015	3.91
610.35	4.05
610.685	4.24
611.02	4.2
611.355	4.07
611.689	4.35
612.024	4.32
612.359	4.16
612.694	4.23
613.028	4.44
613.363	4.46
613.697	4.4
614.032	4.25
614.366	4.17
614.7	4.35
615.035	4.45
615.369	4.37
615.703	4.36
616.037	4.02
616.371	4.33
616.705	4.42
617.039	4.35
617.373	3.98
617.707	3.95
618.041	4.33
618.375	4.11
618.709	4.37
619.042	4.58
619.376	4.48
619.71	4.37
620.043	4.24
620.377	4.15
620.71	4.46
621.043	4.64
621.377	4.69
621.71	4.1
622.043	3.88
622.376	4.42
622.709	4.53
623.043	4.23
623.376	4.36
623.709	4.42
624.041	4.32
624.374	4.48
624.707	4.23
625.04	4.51
625.373	4.21
625.705	4.59
626.038	4.49
626.37	4.17
626.703	4.1
627.035	4.22
627.368	4.41
627.7	4.51
628.032	4.03
628.365	4.38
628.697	4.14
629.029	4.35
629.361	4.33
629.693	4.24
630.025	4.55
630.357	4.36
630.689	4.1
631.021	4.47
631.353	4.43
631.684	4.31
632.016	4.2
632.348	4.04
632.679	4.45
633.011	4.4
633.342	4.06
633.674	4.2
634.005	4.45
634.336	4.63
634.668	4.17
634.999	4.27
635.33	4.65
635.661	4.63
635.992	4.56
636.323	4.6
636.654	4.22
636.985	4.38
637.316	4.32
637.647	4.6
637.977	4.02
638.308	4.49
638.639	4.27
638.969	4.37
639.3	4.09
639.63	4.26
639.961	4.61
640.291	4.28
640.622	4.29
640.952	4.21
641.282	4.46
641.612	4.6
641.943	4.32
642.273	4.09
642.603	4.5
642.933	4.47
643.263	4.5
643.592	4.79
643.922	4.39
644.252	4.52
644.582	4.71
644.911	4.51
645.241	4.58
645.571	4.88
645.9	4.65
646.23	4.62
646.559	4.3
646.888	4.47
647.218	4.79
647.547	4.55
647.876	4.83
648.205	4.55
648.534	3.98
648.863	4.3
649.192	4.42
649.521	4.21
649.85	4.92
650.179	4.33
650.508	4.82
650.837	4
651.165	4.3
651.494	4.38
651.822	4.56
652.151	4.55
652.479	4.55
652.808	4.22
653.136	4.72
653.465	3.98
653.793	4.23
654.121	4.66
654.449	4.5
654.777	4.35
655.105	4.47
655.433	4.78
655.761	4.5
656.089	4.57
656.417	4.27
656.745	4.79
657.073	4.08
657.4	4.53
657.728	4.67
658.056	4.71
658.383	5.36
658.711	4
659.038	4.89
659.365	4.64
659.693	4.96
660.02	4.76
660.347	4.73
660.674	4.36
661.001	4.6
661.329	4.88
661.656	4.48
661.982	4.24
662.309	4.66
662.636	4.83
662.963	4.26
663.29	4.78
663.616	4.3
663.943	4.7
664.27	4.75
664.596	4.81
664.923	4.64
665.249	4.6
665.576	4.28
665.902	5.13
666.228	3.86
666.554	4.73
666.881	4.7
667.207	4.37
667.533	4.44
667.859	4.36
668.185	5.21
668.511	5.14
668.837	5.1
669.162	4.72
669.488	4.91
669.814	4.88
670.139	3.93
670.465	4.08
670.791	4.35
671.116	4.31
671.442	4.49
671.767	4.71
672.092	4.33
672.418	5.08
672.743	4.42
673.068	4.32
673.393	4.22
673.718	4.21
674.043	4.65
674.368	4.64
674.693	3.93
675.018	4.99
675.343	4.72
675.667	4.38
675.992	5.04
676.317	4.77
676.641	4.72
676.966	4.73
677.29	4.75
677.615	4.5
677.939	5.11
678.264	4.98
678.588	4.8
678.912	4.32
679.236	4.7
679.56	4.64
679.885	5.13
680.209	4.71
680.532	4.62
680.856	4.22
681.18	4.25
681.504	4.45
681.828	5
682.152	4.69
682.475	4.66
682.799	4.68
683.122	4.83
683.446	4.47
683.769	3.87
684.093	4.93
684.416	4.84
684.739	5.14
685.062	5.07
685.386	4.72
685.709	4.96
686.032	5.04
686.355	4.05
686.678	4.19
687.001	4.23
687.324	5.25
687.646	4.74
687.969	4.31
688.292	4.99
688.614	4.28
688.937	4.26
689.26	4.82
689.582	4.53
689.904	5.05
690.227	4.49
690.549	5.02
690.871	4.5
691.194	5.32
691.516	4.42
691.838	3.96
692.16	5.35
692.482	5.37
692.804	4.25
693.126	4.79
693.448	4.37
693.769	4.81
694.091	5.28
694.413	5.25
694.735	4.87
695.056	5.28
695.378	4.7
695.699	4.14
696.021	4.99
696.342	4.44
696.663	4.66
696.984	5.25
697.306	4.04
697.627	3.88
697.948	4.72
698.269	4.78
698.59	5.24
698.911	5
699.232	4.46
699.553	4.32
699.873	4.88
700.194	5.7
700.515	4.53
700.835	4.73
701.156	5.19
701.477	4.77
701.797	4.95
702.117	4.72
702.438	5.43
702.758	5.23
703.078	4.97
703.398	5.05
703.719	4.54
704.039	4.04
704.359	4.81
704.679	4.94
704.999	5.16
705.319	5.95
705.638	5.41
705.958	4.94
706.278	5.47
706.597	4.11
706.917	4.39
707.237	5.17
707.556	3.46
707.876	5.01
708.195	5.37
708.514	5.36
708.834	6.25
709.153	4.53
709.472	5.15
709.791	4.38
710.11	5.62
710.429	5.1
710.748	4.73
711.067	5.34
711.386	4.83
711.705	5.95
712.023	4.75
712.342	4.53
712.661	4.72
712.979	5.25
713.298	5.12
713.616	4.64
713.935	4.59
714.253	3.88
714.572	4.9
714.89	4.81
715.208	4.08
715.526	5.03
715.844	5.32
716.162	4.97
716.48	4.19
716.798	4.46
717.116	5.1
717.434	4.86
717.752	4.41
718.069	4.83
718.387	5.41
718.705	5.14
719.022	5.75
719.34	5.1
719.657	5.65
719.975	5.54
720.292	5.94
720.609	5.28
720.927	5.25
721.244	4.84
721.561	5.3
721.878	5.02
722.195	4.91
722.512	4.7
722.829	4.9
723.146	5.48
723.463	4.31
723.779	4.34
724.096	4.61
724.413	4.63
724.729	5.06
725.046	6.99
725.362	5.38
725.679	3.88
725.995	4.93
726.311	5.63
726.628	5.22
726.944	5.09
727.26	6.45
727.576	4.96
727.892	5.87
728.208	6.34
728.524	5.62
728.84	4.67
729.156	5.71
729.472	5.11
729.787	5.16
730.103	5.42
730.419	5.18
730.734	5.44
731.05	5.89
731.365	4.13
731.681	3.96
731.996	4.73
732.311	6.1
732.626	5.08
732.942	5.58
733.257	5.69
733.572	5.54
733.887	4.76
734.202	5.03
734.517	4.65
734.832	4.46
735.146	5.54
735.461	4.49
735.776	5.53
736.091	4.18
736.405	4.03
736.72	4.39
737.034	4.64
737.349	3.86
737.663	6.08
737.977	3.53
738.292	6.59
738.606	5.63
738.92	4.33
739.234	5.8
739.548	7.69
739.862	5.51
740.176	5.3
740.49	7.55
740.804	6.77
741.117	4.9
741.431	3.16
741.745	5.03
742.058	5.03
742.372	6.78
742.685	4.77
742.999	4.05
743.312	6.16
743.626	5.82
743.939	6.02
744.252	4.83
744.565	6.09
744.878	5.7
745.191	4.5
745.505	4.47
745.817	3.58
746.13	5
746.443	5.75
746.756	7.1
747.069	5.76
747.381	5.09
747.694	5.63
748.007	6.78
748.319	4.24
748.632	6.41
748.944	7.5
749.256	5.87
749.569	7.36
749.881	5.18
750.193	6.02
750.505	7.69
750.817	5.47
751.129	4.29
751.441	5.14
751.753	6.6
752.065	5.37
752.377	6.51
752.689	6.54
753	4.92
753.312	5.94
753.624	4.09
753.935	5.21
754.247	4.98
754.558	7
754.869	5.5
755.181	4.62
755.492	7.12
755.803	6.54
756.114	6.19
756.425	5.28
756.736	6.66
757.047	4.87
757.358	4.93
757.669	5.53
757.98	6.16
758.291	7.07
758.601	5.9
758.912	4.88
759.223	5.28
759.533	5.38
759.844	6.17
760.154	6.81
760.464	5.21
760.775	6.79
761.085	5.68
761.395	3.5
761.705	6.57
762.016	4.43
762.326	5.39
762.636	6.04
762.945	3.37
763.255	5
763.565	6.79
763.875	6
764.185	6.65
764.494	6.46
764.804	4.92
765.113	6.16
765.423	6.8
765.732	6.75
766.042	6.36
766.351	5.5
766.66	5.51
766.97	6.32
767.279	5.27
767.588	6.48
767.897	5.68
768.206	7.33
768.515	7.11
768.824	6.3
769.133	7.44
769.441	6.86
769.75	7.93
770.059	4.41
770.367	6.69
770.676	5.74
770.984	7.28
771.293	5.25
771.601	6.51
771.91	7.66
772.218	7.34
772.526	5.67
772.834	6.13
773.142	8.08
773.45	5.4
773.758	5.76
774.066	5.9
774.374	6.76
774.682	6.81
774.99	7.44
775.298	5.26
775.605	5.64
775.913	8.65
776.22	6.61
776.528	5.5
776.835	6.66
777.143	5.9
777.45	6.94
777.757	3.98
778.065	3.93
778.372	5.4
778.679	8.44
778.986	7.59
779.293	6.14
779.6	6.26
779.907	3.94
780.214	7.3
780.52	7.12
780.827	6.72
781.134	3.24
781.44	3.27
781.747	4.16
782.053	2.94
782.36	5.33
782.666	8.93
782.973	5.55
783.279	6.83
783.585	7.03
783.891	7.88
784.197	8.91
784.503	5.41
784.809	8.76
785.115	5.25
785.421	6.3
785.727	4.08
786.033	3.13
786.339	2.89
786.644	3.14
786.95	4.63
787.255	4.74
787.561	4.63
787.866	5.81
788.172	7.13
788.477	7.82
788.782	4.75
789.088	4.7
789.393	5.56
789.698	9.51
790.003	4.83
790.308	3.63
790.613	5.18
790.918	6.68
791.223	6.96
791.527	8.66
791.832	3.37
792.137	3.62
792.441	3.29
792.746	11.77
793.05	2.7
793.355	2.33
793.659	1.5
793.963	7.44
794.268	5.29
794.572	8.17
794.876	6.76
795.18	2.12
795.484	4.19
795.788	6.58
796.092	4.65
796.396	10.06
796.7	8.28
797.004	2.65
797.307	6.14
797.611	7.54
797.915	3.65
798.218	6
798.522	2.68
798.825	6.3
799.128	3.1
799.432	8.66
799.735	7.37
800.038	7.19
800.341	5.6
800.644	6.16
800.947	8.7
801.25	1.76
801.553	10.18
801.856	3.61
802.159	0.86
802.462	5.79
802.764	7.46
803.067	8.34
803.37	7.19
803.672	13.76
803.975	2.51
804.277	8.79
804.579	3.8
804.882	1.75
805.184	6.27
805.486	8.02
805.788	7.65
806.09	6.59
806.392	2.7
806.694	9.92
806.996	4.92
807.298	3.35
807.6	6.42
807.902	5.68
808.203	6.03
808.505	4.49
808.807	3.73
809.108	8.52
809.409	8.76
809.711	6.11
810.012	7.83
810.313	5.75
810.615	2.1
810.916	9.51
811.217	2.69
811.518	2.75
811.819	3.59
812.12	-0.73
812.421	5.46
812.722	3.57
813.023	8.52
813.323	2.58
813.624	-1.23
813.925	5.03
814.225	2
814.526	3.33
814.826	9.81
815.126	11.1
815.427	13.32
815.727	5.68
816.027	7.79
816.327	-3.01
816.627	6.1
816.927	6.24
817.227	4.34
817.527	4.29
817.827	1.7
818.127	8.5
818.427	6.64
818.727	8.95
819.026	7.1
819.326	4.15
819.625	3.4
819.925	10.26
820.224	7.81
820.524	4.11
820.823	9.78
821.122	7.08
821.421	7.89
821.72	6.5
822.019	7.78
822.318	8.6
822.617	6.68
822.916	7
823.215	7.57
823.514	5.05
823.813	6.54
824.111	8.6
824.41	7.44
824.709	7.7
825.007	7.58
825.306	7.47
825.604	7.33
825.902	5.81
826.201	6.81
826.499	6.48
826.797	7.93
827.095	7.38
827.393	8.66
827.691	7.59
827.989	7.37
828.287	7.44
828.585	6.52
828.882	6.52
829.18	5.58
829.478	7.88
829.775	6.81
830.073	7.42
830.37	7.03
830.668	7.29
830.965	8.71
831.263	6.27
831.56	6.44
831.857	7.81
832.154	5.39
832.451	8.45
832.748	7.09
833.045	8.85
833.342	3.67
833.639	8.05
833.936	5.59
834.232	4
834.529	7.85
834.826	9.96
835.122	8.21
835.419	8.4
835.715	4.84
836.012	7.15
836.308	7.85
836.604	7.86
836.901	8.6
837.197	8.34
837.493	6.93
837.789	7.3
838.085	9.82
838.381	8.78
838.677	10.22
838.972	8.96
839.268	8.45
839.564	4.72
839.86	7.23
840.155	17.7
840.451	5.84
840.746	11.23
841.042	9.67
841.337	5.79
841.632	13.75
841.928	1.41
842.223	8.28
842.518	-2.14
842.813	8.82
843.108	6.77
843.403	5.89
843.698	6.85
843.993	5.66
844.287	11.52
844.582	11.01
844.877	13.53
845.171	4.66
845.466	19.71
845.761	-8.24
846.055	16.9
846.349	3.63
846.644	3.2
846.938	15.09
847.232	16.51
847.526	3
847.82	-2.3
848.114	9.11
848.408	8.1
848.702	8.08
848.996	14.08
849.29	8.58
849.584	11.14
849.877	9.6
850.171	6.39
850.465	10.96
850.758	5.28
851.052	-2.36
851.345	-0.01
851.638	27.99
851.932	15.65
852.225	-11.34
852.518	7.76
852.811	10.83
853.104	17.53
853.397	12.35
853.69	11.43
853.983	9.24
854.276	14.96
854.569	12.17
854.861	-11.54
855.154	-13.68
855.447	-9.1
855.739	-13.46
856.032	23.3
856.324	-21.67
856.616	15.68
856.909	2.76
857.201	-15.94
857.493	8
857.785	13.14
858.077	10.18
858.369	2.59
858.661	-9.35
858.953	-5.24
859.245	12.92
859.537	8.04
859.829	6.9
860.12	-5.55
860.412	24.21
860.703	9.58
860.995	15.91
861.286	-12.95
861.578	16.78
861.869	10.07
862.16	16.58
862.452	2.46
862.743	14.23
863.034	-1.96
863.325	-3.33
863.616	14.4
863.907	26.2
864.198	-6.51
864.488	13.58
864.779	8.55
865.07	9.62
865.36	27.64
865.651	19.16
865.941	7.4
866.232	-10.89
866.522	14
866.813	-2.1
867.103	17.37
867.393	7.44
867.683	16.33
867.973	-22.64
868.263	-8.85
868.553	-0.79
868.843	4.09
869.133	-1.81
869.423	1.06
869.713	0.23
870.002	12.51
870.292	26.99
870.582	-2.89
870.871	-7.34
871.161	29.71
871.45	30.03
871.739	-12.74
872.029	0.79
872.318	4.2
872.607	-18.98
872.896	7.27
873.185	-1.48
873.474	22.2
873.763	4.99
874.052	30.15
874.341	-3.94
874.63	-4.65
874.918	0.72
875.207	-0.43
875.496	0.88
875.784	-2.05
876.073	-37.35
876.361	25.24
876.649	7.79
876.938	22.29
877.226	16.69
877.514	13.97
877.802	-19.09
878.09	-26.67
878.378	-23.82
878.666	-4.72
878.954	26.41
879.242	19.79
879.53	17.98
879.817	28.24
880.105	-1.61
880.392	39.22
880.68	18.51
880.967	13.5
881.255	-17.45
881.542	-8.42
881.83	9.61
882.117	1.21
882.404	-10.29
882.691	-9.64
882.978	-1.64
883.265	-2.04
883.552	18.62
883.839	16.16
884.126	2.81
884.413	-1.01
884.699	14.02
884.986	0.82
885.273	10.88
885.559	10.88
885.846	10.88
