Data from 1710-3_crown_Reflection__1__142.txt Node

Date: Fri Sep 30 19:14:20 CDT 2022
User: ToomeyLab
Spectrometer: FLMS14357
Trigger mode: 0
Integration Time (sec): 1.000000E-2
Scans to average: 100
Electric dark correction enabled: true
Nonlinearity correction enabled: false
Boxcar width: 0
XAxis mode: Wavelengths
Number of Pixels in Spectrum: 2048
>>>>>Begin Spectral Data<<<<<
189.047	306.75
189.435	306.75
189.823	306.75
190.211	47.49
190.599	-233.48
190.987	791.25
191.375	-297.98
191.763	61.77
192.151	-117.68
192.538	82.65
192.926	87.11
193.314	27.29
193.702	-11668.75
194.089	28.07
194.477	34.16
194.864	-57.34
195.252	211.97
195.639	114.31
196.027	-200.87
196.414	7531.25
196.801	29.37
197.189	172.56
197.576	155.01
197.963	-2.51
198.351	-6.78
198.738	-6.09
199.125	-5.84
199.512	-8.61
199.899	-85.28
200.286	-31.3
200.673	-39.15
201.06	-22.7
201.447	-81.44
201.833	-9.84
202.22	-108.25
202.607	0.56
202.994	-42.96
203.38	-1.93
203.767	-26.28
204.154	5.38
204.54	-37.37
204.927	-78.13
205.313	24.19
205.699	9.07
206.086	16.95
206.472	14.84
206.858	44.25
207.245	-44.61
207.631	-11.84
208.017	-7.56
208.403	45.27
208.789	36.48
209.175	8.36
209.561	3.16
209.947	12.24
210.333	14.74
210.719	-9.49
211.105	-31.39
211.491	9.17
211.876	-4.54
212.262	-10.96
212.648	-20.38
213.034	10.11
213.419	-25.68
213.805	-11.09
214.19	-17.38
214.576	-34.32
214.961	22.36
215.346	2.45
215.732	-7.47
216.117	-37.03
216.502	-4.87
216.888	-12.73
217.273	29.05
217.658	8.96
218.043	3.85
218.428	13.03
218.813	-18.06
219.198	8.55
219.583	16.25
219.968	-18.86
220.353	-0.35
220.738	11.11
221.122	-0.76
221.507	4.51
221.892	-24.08
222.276	-13.86
222.661	4.4
223.046	-9.61
223.43	8.92
223.815	10.15
224.199	6.75
224.583	8.06
224.968	0.13
225.352	11.15
225.736	9.32
226.121	4.35
226.505	4.82
226.889	-3.76
227.273	6.13
227.657	-1.28
228.041	6.22
228.425	2.95
228.809	4.24
229.193	5.83
229.577	6.53
229.961	4.37
230.344	5.05
230.728	5.55
231.112	5.81
231.495	5.22
231.879	5.97
232.263	5.94
232.646	4.51
233.03	5.97
233.413	4.23
233.797	4.06
234.18	3.4
234.563	2.67
234.946	6.63
235.33	4.25
235.713	2.86
236.096	4.11
236.479	5.53
236.862	5.82
237.245	6.35
237.628	3.02
238.011	5.07
238.394	2.87
238.777	3.31
239.16	4.34
239.543	5.91
239.925	3.87
240.308	3.21
240.691	3.88
241.073	5.04
241.456	4.24
241.838	3.39
242.221	5.43
242.603	5.52
242.986	5.37
243.368	5
243.75	4.81
244.133	4.57
244.515	4.85
244.897	4.97
245.279	4.27
245.661	4.53
246.043	5.27
246.425	4.64
246.807	4.55
247.189	4.49
247.571	5.58
247.953	4.66
248.335	5.02
248.717	4.52
249.098	4.69
249.48	4.55
249.862	4.53
250.243	4.59
250.625	4.52
251.006	5.61
251.388	3.96
251.769	4.22
252.151	4.55
252.532	4.36
252.913	3.5
253.295	4.73
253.676	4.9
254.057	5.15
254.438	4.44
254.819	5
255.2	4.06
255.581	4.82
255.962	3.97
256.343	3.11
256.724	5.42
257.105	3.87
257.486	4.53
257.867	5.44
258.247	3.51
258.628	4.21
259.009	4.23
259.389	4.56
259.77	3.68
260.15	4.23
260.531	4.53
260.911	4.3
261.292	4.62
261.672	4.37
262.052	4.37
262.432	4.58
262.813	4.8
263.193	3.74
263.573	3.85
263.953	4.31
264.333	4.65
264.713	4.24
265.093	4.72
265.473	4.15
265.853	4.94
266.233	3.43
266.612	3.75
266.992	4.78
267.372	4.34
267.752	3.94
268.131	4.16
268.511	4.52
268.89	4
269.27	5
269.649	4.66
270.029	4.59
270.408	3.96
270.787	4.06
271.167	4.08
271.546	3.95
271.925	4.29
272.304	4.26
272.683	4.26
273.062	4.47
273.441	4.1
273.82	4.16
274.199	4.34
274.578	4.11
274.957	3.61
275.336	3.98
275.715	3.91
276.093	4.26
276.472	3.9
276.851	4.74
277.229	4.42
277.608	3.47
277.986	3.44
278.365	3.92
278.743	4.26
279.122	3.22
279.5	4.28
279.878	3.99
280.257	3.63
280.635	3.86
281.013	4.31
281.391	3.88
281.769	3.78
282.147	3.64
282.525	3.89
282.903	4.1
283.281	4.04
283.659	3.64
284.037	4.06
284.415	3.37
284.792	4.15
285.17	4.43
285.548	4.01
285.925	3.92
286.303	3.71
286.68	3.71
287.058	4.1
287.435	4.22
287.813	3.88
288.19	3.87
288.567	3.46
288.945	3.26
289.322	3.99
289.699	3.85
290.076	3.91
290.453	3.94
290.83	3.79
291.207	4.21
291.584	3.66
291.961	3.99
292.338	3.59
292.715	3.45
293.092	3.8
293.469	3.83
293.845	4.03
294.222	3.78
294.599	3.95
294.975	3.99
295.352	4.05
295.728	3.56
296.105	3.88
296.481	3.94
296.858	3.65
297.234	3.54
297.61	4.28
297.986	3.81
298.363	3.71
298.739	3.93
299.115	3.85
299.491	3.58
299.867	3.73
300.243	3.86
300.619	3.5
300.995	4.1
301.371	4.41
301.746	4.62
302.122	4.07
302.498	3.47
302.874	3.34
303.249	3.48
303.625	3.79
304	3.85
304.376	3.69
304.751	3.72
305.127	4.07
305.502	3.55
305.878	3.78
306.253	4.37
306.628	3.3
307.003	4.21
307.378	3.72
307.754	3.85
308.129	4
308.504	3.72
308.879	4.09
309.254	3.02
309.629	3.25
310.003	3.31
310.378	4.1
310.753	3.84
311.128	3.47
311.502	4.08
311.877	3.67
312.252	3.87
312.626	3.58
313.001	3.38
313.375	3.59
313.75	4.04
314.124	3.69
314.498	3.53
314.873	3.76
315.247	3.62
315.621	3.3
315.995	3.76
316.369	3.83
316.743	3.49
317.117	3.72
317.491	3.7
317.865	3.33
318.239	3.69
318.613	3.95
318.987	3.09
319.361	3.3
319.734	3.96
320.108	4.06
320.482	3.79
320.855	3.99
321.229	3.8
321.602	3.62
321.976	3.69
322.349	3.74
322.723	3.05
323.096	3.82
323.469	3.71
323.843	3.49
324.216	3.32
324.589	3.77
324.962	3.74
325.335	3.83
325.708	3.97
326.081	4.41
326.454	4.1
326.827	3.82
327.2	4.15
327.573	4.01
327.945	4.11
328.318	3.87
328.691	3.79
329.063	3.58
329.436	3.21
329.809	3.79
330.181	4.18
330.553	4.22
330.926	4.19
331.298	3.95
331.671	4.24
332.043	4.01
332.415	4.22
332.787	4.14
333.159	3.37
333.532	4.03
333.904	4.11
334.276	4.14
334.648	3.91
335.02	4
335.391	4.18
335.763	3.91
336.135	3.74
336.507	4.34
336.879	3.93
337.25	4.16
337.622	4.08
337.993	3.3
338.365	4.45
338.736	3.6
339.108	3.94
339.479	3.81
339.851	3.66
340.222	4.13
340.593	4.03
340.964	3.95
341.336	3.88
341.707	3.66
342.078	4.14
342.449	3.92
342.82	3.74
343.191	4.09
343.562	4.05
343.933	3.89
344.303	3.68
344.674	4.36
345.045	3.88
345.416	4.09
345.786	4.17
346.157	3.44
346.527	4.1
346.898	4.16
347.268	4.03
347.639	3.95
348.009	3.84
348.38	3.47
348.75	3.96
349.12	4.29
349.49	4.1
349.861	3.87
350.231	4.3
350.601	3.9
350.971	3.76
351.341	4.21
351.711	3.98
352.081	3.9
352.45	4.24
352.82	4.03
353.19	4.15
353.56	4
353.929	4.18
354.299	4.07
354.669	4.46
355.038	4.32
355.408	4.02
355.777	4.11
356.147	3.97
356.516	4.21
356.885	3.82
357.254	4.21
357.624	4.41
357.993	4.13
358.362	3.74
358.731	3.78
359.1	3.77
359.469	4.23
359.838	4.21
360.207	4.46
360.576	4.35
360.945	3.76
361.314	4.07
361.682	4.21
362.051	4.06
362.42	3.89
362.788	4.12
363.157	3.99
363.525	4.29
363.894	4.13
364.262	4.07
364.631	4.28
364.999	4.38
365.367	4.19
365.735	4.25
366.104	3.97
366.472	4.26
366.84	4.25
367.208	4.18
367.576	4.23
367.944	3.82
368.312	3.97
368.68	4.27
369.048	4.25
369.416	4.1
369.783	4.31
370.151	4.38
370.519	4.35
370.886	4.36
371.254	4.26
371.621	4.64
371.989	4.26
372.356	4.26
372.724	4.05
373.091	4.49
373.458	3.84
373.826	4.21
374.193	4.34
374.56	4.39
374.927	4.47
375.294	4.24
375.661	4.16
376.028	4.49
376.395	4.54
376.762	4.48
377.129	4.23
377.496	4.22
377.863	4.21
378.229	4.46
378.596	4.04
378.963	3.96
379.329	4.22
379.696	4.13
380.062	4.27
380.429	4.11
380.795	4.11
381.161	4.42
381.528	4.26
381.894	4.59
382.26	4.46
382.626	4.07
382.993	4.4
383.359	4.31
383.725	3.99
384.091	4
384.457	4.64
384.823	4.52
385.188	4.61
385.554	4.36
385.92	4.26
386.286	4.48
386.651	4.3
387.017	4.31
387.383	4.5
387.748	4.27
388.114	4.35
388.479	4.63
388.845	4.4
389.21	4.14
389.575	4.34
389.94	4.26
390.306	4.44
390.671	4.54
391.036	4.39
391.401	4.62
391.766	4.31
392.131	4.37
392.496	4.32
392.861	4.69
393.226	4.27
393.591	4.63
393.956	4.51
394.32	4.56
394.685	4.12
395.05	4.33
395.414	4.57
395.779	4.41
396.143	4.21
396.508	4.36
396.872	4.3
397.236	4.4
397.601	4.62
397.965	4.45
398.329	4.18
398.694	4.43
399.058	4.71
399.422	4.36
399.786	4.5
400.15	4.54
400.514	4.78
400.878	4.42
401.242	4.43
401.605	4.6
401.969	4.27
402.333	4.39
402.697	4.74
403.06	4.47
403.424	4.46
403.787	4.38
404.151	4.36
404.514	4.47
404.878	4.39
405.241	4.56
405.604	4.28
405.968	4.38
406.331	4.45
406.694	4.39
407.057	4.51
407.42	4.38
407.783	4.55
408.146	4.21
408.509	4.51
408.872	4.21
409.235	4.53
409.598	4.4
409.961	4.46
410.323	4.11
410.686	4.6
411.049	4.25
411.411	4.53
411.774	4.43
412.136	4.68
412.499	4.56
412.861	4.3
413.223	4.24
413.586	4.37
413.948	4.52
414.31	4.59
414.672	4.78
415.035	4.47
415.397	4.44
415.759	4.61
416.121	4.45
416.483	4.26
416.845	4.36
417.206	4.66
417.568	4.9
417.93	4.29
418.292	4.66
418.653	4.64
419.015	4.54
419.377	4.32
419.738	4.44
420.1	4.33
420.461	4.45
420.822	4.36
421.184	4.31
421.545	4.42
421.906	4.39
422.267	4.5
422.629	4.38
422.99	4.34
423.351	4.45
423.712	4.47
424.073	4.42
424.434	4.39
424.795	4.45
425.155	4.44
425.516	4.37
425.877	4.42
426.238	4.44
426.598	4.34
426.959	4.45
427.32	4.47
427.68	4.59
428.041	4.47
428.401	4.47
428.761	4.44
429.122	4.51
429.482	4.65
429.842	4.46
430.202	4.46
430.563	4.33
430.923	4.5
431.283	4.53
431.643	4.58
432.003	4.67
432.363	4.63
432.722	4.29
433.082	4.52
433.442	4.59
433.802	4.46
434.161	4.49
434.521	4.52
434.881	4.44
435.24	4.42
435.6	4.55
435.959	4.59
436.319	4.37
436.678	4.62
437.037	4.66
437.396	4.56
437.756	4.48
438.115	4.55
438.474	4.62
438.833	4.48
439.192	4.53
439.551	4.61
439.91	4.38
440.269	4.48
440.628	4.44
440.987	4.58
441.345	4.49
441.704	4.51
442.063	4.51
442.421	4.59
442.78	4.57
443.138	4.34
443.497	4.49
443.855	4.62
444.214	4.55
444.572	4.5
444.93	4.6
445.288	4.65
445.647	4.45
446.005	4.5
446.363	4.63
446.721	4.53
447.079	4.42
447.437	4.43
447.795	4.39
448.153	4.56
448.51	4.42
448.868	4.5
449.226	4.4
449.584	4.49
449.941	4.59
450.299	4.59
450.656	4.5
451.014	4.54
451.371	4.59
451.729	4.46
452.086	4.57
452.443	4.68
452.801	4.4
453.158	4.5
453.515	4.45
453.872	4.61
454.229	4.5
454.586	4.46
454.943	4.44
455.3	4.53
455.657	4.53
456.014	4.58
456.371	4.61
456.727	4.47
457.084	4.63
457.441	4.55
457.797	4.63
458.154	4.63
458.51	4.57
458.867	4.55
459.223	4.71
459.58	4.54
459.936	4.63
460.292	4.74
460.648	4.46
461.005	4.46
461.361	4.48
461.717	4.47
462.073	4.43
462.429	4.45
462.785	4.51
463.141	4.55
463.496	4.64
463.852	4.66
464.208	4.74
464.564	4.58
464.919	4.53
465.275	4.61
465.631	4.69
465.986	4.58
466.342	4.56
466.697	4.39
467.052	4.44
467.408	4.47
467.763	4.65
468.118	4.55
468.473	4.67
468.829	4.48
469.184	4.6
469.539	4.52
469.894	4.68
470.249	4.67
470.603	4.85
470.958	4.74
471.313	4.53
471.668	4.72
472.023	4.57
472.377	4.5
472.732	4.55
473.086	4.5
473.441	4.47
473.795	4.76
474.15	4.49
474.504	4.57
474.859	4.6
475.213	4.59
475.567	4.6
475.921	4.61
476.275	4.54
476.63	4.64
476.984	4.53
477.338	4.61
477.692	4.69
478.045	4.63
478.399	4.58
478.753	4.54
479.107	4.56
479.461	4.5
479.814	4.75
480.168	4.55
480.521	4.65
480.875	4.63
481.228	4.72
481.582	4.67
481.935	4.44
482.289	4.43
482.642	4.71
482.995	4.54
483.348	4.65
483.701	4.57
484.055	4.57
484.408	4.44
484.761	4.5
485.114	4.34
485.466	4.32
485.819	4.29
486.172	4.31
486.525	4.38
486.878	4.39
487.23	4.48
487.583	4.53
487.936	4.48
488.288	4.54
488.641	4.45
488.993	4.38
489.345	4.33
489.698	4.38
490.05	4.37
490.402	4.39
490.754	4.45
491.107	4.44
491.459	4.44
491.811	4.52
492.163	4.54
492.515	4.46
492.866	4.46
493.218	4.4
493.57	4.4
493.922	4.35
494.274	4.44
494.625	4.57
494.977	4.52
495.328	4.44
495.68	4.59
496.031	4.5
496.383	4.51
496.734	4.6
497.086	4.49
497.437	4.42
497.788	4.47
498.139	4.59
498.49	4.51
498.842	4.66
499.193	4.45
499.544	4.45
499.894	4.72
500.245	4.62
500.596	4.54
500.947	4.58
501.298	4.68
501.648	4.68
501.999	4.59
502.35	4.64
502.7	4.82
503.051	4.82
503.401	4.77
503.752	4.54
504.102	4.7
504.452	4.49
504.803	4.58
505.153	4.62
505.503	4.55
505.853	4.54
506.203	4.62
506.553	4.68
506.903	4.52
507.253	4.64
507.603	4.76
507.953	4.59
508.303	4.48
508.652	4.57
509.002	4.68
509.352	4.77
509.701	4.64
510.051	4.64
510.4	4.68
510.75	4.55
511.099	4.61
511.449	4.61
511.798	4.49
512.147	4.53
512.496	4.6
512.846	4.57
513.195	4.58
513.544	4.66
513.893	4.6
514.242	4.71
514.591	4.62
514.939	4.49
515.288	4.65
515.637	4.61
515.986	4.53
516.334	4.65
516.683	4.6
517.032	4.63
517.38	4.76
517.729	4.65
518.077	4.62
518.426	4.67
518.774	4.64
519.122	4.6
519.47	4.67
519.819	4.61
520.167	4.46
520.515	4.55
520.863	4.55
521.211	4.54
521.559	4.47
521.907	4.58
522.255	4.78
522.602	4.78
522.95	4.7
523.298	4.62
523.645	4.6
523.993	4.59
524.341	4.68
524.688	4.59
525.036	4.49
525.383	4.66
525.73	4.66
526.078	4.55
526.425	4.65
526.772	4.59
527.119	4.58
527.466	4.53
527.814	4.49
528.161	4.54
528.508	4.58
528.854	4.6
529.201	4.51
529.548	4.54
529.895	4.45
530.242	4.42
530.588	4.42
530.935	4.44
531.282	4.46
531.628	4.48
531.975	4.5
532.321	4.56
532.667	4.55
533.014	4.58
533.36	4.67
533.706	4.61
534.052	4.62
534.399	4.51
534.745	4.48
535.091	4.48
535.437	4.47
535.783	4.52
536.129	4.49
536.474	4.59
536.82	4.56
537.166	4.53
537.512	4.54
537.857	4.58
538.203	4.56
538.549	4.54
538.894	4.61
539.239	4.53
539.585	4.57
539.93	4.72
540.276	4.77
540.621	4.52
540.966	4.61
541.311	4.62
541.656	4.57
542.001	4.68
542.346	4.55
542.691	4.49
543.036	4.5
543.381	4.48
543.726	4.55
544.071	4.52
544.415	4.66
544.76	4.53
545.105	4.6
545.449	4.61
545.794	4.61
546.138	4.67
546.483	4.77
546.827	4.64
547.171	4.63
547.516	4.68
547.86	4.53
548.204	4.54
548.548	4.61
548.892	4.66
549.236	4.61
549.58	4.58
549.924	4.59
550.268	4.68
550.612	4.58
550.956	4.74
551.3	4.66
551.643	4.55
551.987	4.63
552.33	4.8
552.674	4.6
553.017	4.69
553.361	4.81
553.704	4.81
554.048	4.69
554.391	4.76
554.734	4.68
555.077	4.54
555.42	4.59
555.764	4.8
556.107	4.61
556.45	4.81
556.793	4.79
557.135	4.68
557.478	4.77
557.821	4.75
558.164	4.77
558.507	5.01
558.849	4.83
559.192	4.83
559.534	4.57
559.877	4.98
560.219	4.66
560.562	4.85
560.904	4.79
561.246	4.71
561.589	4.67
561.931	4.87
562.273	4.5
562.615	4.66
562.957	4.58
563.299	4.81
563.641	4.74
563.983	4.73
564.325	4.6
564.667	4.76
565.008	4.75
565.35	4.8
565.692	4.75
566.033	4.71
566.375	4.63
566.716	4.72
567.058	4.77
567.399	4.65
567.741	4.62
568.082	4.66
568.423	4.7
568.764	4.77
569.105	4.8
569.447	4.51
569.788	4.73
570.129	4.46
570.47	4.91
570.811	4.58
571.151	4.67
571.492	4.75
571.833	4.46
572.174	4.68
572.514	4.6
572.855	4.6
573.195	4.78
573.536	4.61
573.876	4.58
574.217	4.6
574.557	4.8
574.898	4.42
575.238	4.62
575.578	4.63
575.918	4.73
576.258	4.57
576.598	4.52
576.938	4.67
577.278	4.79
577.618	4.62
577.958	4.67
578.298	4.76
578.638	4.83
578.977	4.94
579.317	4.84
579.657	4.67
579.996	4.73
580.336	4.57
580.675	4.6
581.014	4.78
581.354	4.63
581.693	4.75
582.032	4.83
582.372	4.79
582.711	4.62
583.05	5.12
583.389	4.61
583.728	4.63
584.067	4.79
584.406	4.79
584.745	4.64
585.083	4.64
585.422	4.76
585.761	4.75
586.1	4.83
586.438	4.87
586.777	4.57
587.115	4.61
587.454	4.72
587.792	4.93
588.13	4.72
588.469	4.63
588.807	4.68
589.145	4.99
589.483	4.59
589.821	4.94
590.159	4.74
590.497	4.86
590.835	4.71
591.173	4.74
591.511	4.51
591.849	4.53
592.187	4.72
592.524	4.75
592.862	4.61
593.2	4.48
593.537	4.76
593.875	4.52
594.212	4.83
594.55	4.63
594.887	4.74
595.224	4.8
595.561	4.73
595.899	4.66
596.236	4.78
596.573	4.88
596.91	4.83
597.247	4.77
597.584	4.77
597.921	4.8
598.258	4.76
598.594	4.56
598.931	4.77
599.268	4.53
599.604	4.72
599.941	4.59
600.277	4.86
600.614	4.71
600.95	4.66
601.287	4.66
601.623	4.69
601.959	4.53
602.296	4.81
602.632	4.81
602.968	4.49
603.304	4.64
603.64	4.88
603.976	4.71
604.312	4.48
604.648	4.88
604.984	4.68
605.319	4.69
605.655	4.37
605.991	4.55
606.326	4.5
606.662	4.67
606.998	4.59
607.333	4.71
607.668	4.65
608.004	4.61
608.339	4.8
608.674	4.75
609.01	4.8
609.345	4.54
609.68	4.71
610.015	4.46
610.35	4.66
610.685	4.63
611.02	4.82
611.355	4.56
611.689	4.65
612.024	4.54
612.359	4.74
612.694	4.62
613.028	4.81
613.363	4.75
613.697	4.89
614.032	4.81
614.366	4.67
614.7	4.61
615.035	4.87
615.369	4.78
615.703	4.75
616.037	4.54
616.371	4.59
616.705	4.55
617.039	4.66
617.373	4.47
617.707	4.62
618.041	4.51
618.375	4.9
618.709	4.69
619.042	4.97
619.376	4.62
619.71	4.69
620.043	4.51
620.377	4.68
620.71	4.78
621.043	4.55
621.377	5.01
621.71	4.57
622.043	4.36
622.376	4.82
622.709	5.02
623.043	4.52
623.376	4.59
623.709	5.14
624.041	4.45
624.374	4.78
624.707	4.62
625.04	4.8
625.373	4.57
625.705	4.93
626.038	4.65
626.37	4.86
626.703	4.78
627.035	4.63
627.368	4.67
627.7	4.86
628.032	4.37
628.365	4.57
628.697	4.55
629.029	4.45
629.361	4.64
629.693	4.73
630.025	4.91
630.357	4.72
630.689	4.4
631.021	4.9
631.353	5.03
631.684	4.38
632.016	4.31
632.348	4.61
632.679	4.76
633.011	4.76
633.342	4.59
633.674	4.53
634.005	4.95
634.336	4.84
634.668	4.95
634.999	4.81
635.33	5.01
635.661	4.67
635.992	4.77
636.323	4.7
636.654	4.71
636.985	4.76
637.316	4.6
637.647	4.62
637.977	4.78
638.308	4.64
638.639	5.22
638.969	4.76
639.3	4.52
639.63	4.74
639.961	4.96
640.291	4.63
640.622	4.41
640.952	4.8
641.282	4.5
641.612	4.48
641.943	4.94
642.273	4.59
642.603	4.78
642.933	4.78
643.263	4.51
643.592	4.73
643.922	4.55
644.252	4.52
644.582	4.93
644.911	5.06
645.241	4.87
645.571	4.72
645.9	4.57
646.23	4.71
646.559	4.64
646.888	4.42
647.218	4.99
647.547	4.7
647.876	5.18
648.205	4.65
648.534	4.33
648.863	4.73
649.192	4.94
649.521	4.79
649.85	5.48
650.179	4.52
650.508	5.06
650.837	4.56
651.165	4.69
651.494	4.76
651.822	4.78
652.151	4.83
652.479	4.8
652.808	4.45
653.136	5.1
653.465	4.48
653.793	4.33
654.121	4.81
654.449	4.8
654.777	4.77
655.105	4.88
655.433	4.63
655.761	4.5
656.089	4.86
656.417	4.77
656.745	4.69
657.073	4.89
657.4	4.88
657.728	5.06
658.056	5.18
658.383	4.88
658.711	4.69
659.038	4.7
659.365	4.46
659.693	5.23
660.02	5.06
660.347	4.32
660.674	4.81
661.001	4.96
661.329	5.05
661.656	4.65
661.982	4.96
662.309	5.08
662.636	5.17
662.963	4.66
663.29	4.91
663.616	4.61
663.943	5.24
664.27	5.02
664.596	4.9
664.923	5.14
665.249	4.44
665.576	4.72
665.902	4.85
666.228	4.64
666.554	4.98
666.881	5
667.207	4.64
667.533	4.87
667.859	4.38
668.185	5.03
668.511	5.31
668.837	5.36
669.162	4.78
669.488	4.92
669.814	5.01
670.139	4.12
670.465	4.56
670.791	4.67
671.116	4.77
671.442	4.42
671.767	4.51
672.092	5.37
672.418	4.89
672.743	5.21
673.068	4.79
673.393	4.83
673.718	4.68
674.043	4.83
674.368	4.94
674.693	4.49
675.018	4.7
675.343	4.8
675.667	4.26
675.992	4.97
676.317	5.18
676.641	5.17
676.966	4.59
677.29	5.61
677.615	4.63
677.939	5.34
678.264	4.85
678.588	4.58
678.912	4.27
679.236	4.4
679.56	4.8
679.885	4.93
680.209	5.09
680.532	4.86
680.856	4.52
681.18	4.79
681.504	5.08
681.828	4.75
682.152	4.78
682.475	5.05
682.799	5.32
683.122	4.6
683.446	4.14
683.769	4.75
684.093	5.29
684.416	4.85
684.739	5.11
685.062	4.86
685.386	4.62
685.709	4.7
686.032	5.54
686.355	4.65
686.678	4.67
687.001	4.94
687.324	5.01
687.646	4.66
687.969	5.3
688.292	4.72
688.614	4.89
688.937	4.68
689.26	5.47
689.582	4.75
689.904	4.91
690.227	4.75
690.549	4.94
690.871	5.01
691.194	5.46
691.516	4.79
691.838	4.45
692.16	5.34
692.482	4.71
692.804	4.25
693.126	4.73
693.448	5.26
693.769	5.32
694.091	5.83
694.413	5.1
694.735	5.14
695.056	5.5
695.378	5.11
695.699	4.5
696.021	4.89
696.342	3.93
696.663	4.52
696.984	5.42
697.306	4.67
697.627	4.89
697.948	5.11
698.269	4.4
698.59	5.91
698.911	4.77
699.232	5.25
699.553	4.44
699.873	4.34
700.194	5.37
700.515	4.91
700.835	5.07
701.156	5.67
701.477	4.8
701.797	5.43
702.117	4.87
702.438	5.45
702.758	6.12
703.078	4.94
703.398	4.58
703.719	5.16
704.039	4.4
704.359	5.09
704.679	4.85
704.999	5.65
705.319	5.69
705.638	5.21
705.958	4.31
706.278	5.15
706.597	4.69
706.917	4.1
707.237	4.73
707.556	4.59
707.876	5.37
708.195	4.94
708.514	4.97
708.834	5.38
709.153	4.57
709.472	5.14
709.791	5.63
710.11	5.3
710.429	5.42
710.748	4.81
711.067	5.13
711.386	5.43
711.705	6.47
712.023	4.65
712.342	4.91
712.661	5.68
712.979	5.05
713.298	5.56
713.616	5.15
713.935	6.12
714.253	4.29
714.572	5.16
714.89	4.78
715.208	4.71
715.526	5.41
715.844	5.18
716.162	5.49
716.48	4.9
716.798	4.71
717.116	5.22
717.434	4.94
717.752	5.35
718.069	5.12
718.387	5.98
718.705	5.67
719.022	4.96
719.34	5.39
719.657	5.4
719.975	6.8
720.292	6.19
720.609	5.73
720.927	5.38
721.244	4.97
721.561	5.7
721.878	5.61
722.195	5.11
722.512	3.48
722.829	5.21
723.146	5.99
723.463	5.04
723.779	5.05
724.096	4.4
724.413	4.62
724.729	3.59
725.046	5.53
725.362	5.24
725.679	5.44
725.995	4.85
726.311	6.79
726.628	4.85
726.944	5.3
727.26	5.74
727.576	4.84
727.892	6.61
728.208	4.58
728.524	3.58
728.84	5.31
729.156	6.01
729.472	6.69
729.787	5.35
730.103	5.34
730.419	6.39
730.734	5.72
731.05	6.09
731.365	4.6
731.681	4.26
731.996	6.17
732.311	7.08
732.626	6.26
732.942	4.92
733.257	6.54
733.572	5.74
733.887	5.31
734.202	5.02
734.517	4.56
734.832	4.62
735.146	5.89
735.461	4.87
735.776	5.99
736.091	5.23
736.405	4.94
736.72	6.27
737.034	5.74
737.349	4.51
737.663	6.12
737.977	4.77
738.292	5.61
738.606	6.03
738.92	5.56
739.234	5.45
739.548	6.14
739.862	6.75
740.176	4.6
740.49	6.56
740.804	6.35
741.117	5.07
741.431	4.55
741.745	6.24
742.058	4.86
742.372	5.95
742.685	6.62
742.999	5.23
743.312	7.43
743.626	6.21
743.939	6.59
744.252	6.06
744.565	6.03
744.878	7.21
745.191	4.32
745.505	3.42
745.817	4.98
746.13	5.75
746.443	5.54
746.756	5.22
747.069	5.6
747.381	5.34
747.694	5.23
748.007	5.11
748.319	5.59
748.632	6.07
748.944	6.2
749.256	5.66
749.569	5.68
749.881	6.19
750.193	5.38
750.505	6.97
750.817	3.83
751.129	5.11
751.441	3.86
751.753	6.15
752.065	4.09
752.377	3.85
752.689	7.52
753	6.84
753.312	4.92
753.624	5.12
753.935	5.31
754.247	5.77
754.558	7.44
754.869	5.8
755.181	4.48
755.492	5.88
755.803	5.65
756.114	6.55
756.425	5.72
756.736	6.72
757.047	3.96
757.358	4.66
757.669	5.87
757.98	5.03
758.291	4.68
758.601	5.5
758.912	3.33
759.223	5.66
759.533	4.89
759.844	6.48
760.154	5.89
760.464	4.83
760.775	7.51
761.085	4.72
761.395	4.46
761.705	5.34
762.016	6.11
762.326	6.6
762.636	5.76
762.945	4.67
763.255	6.2
763.565	4.87
763.875	6.19
764.185	7.23
764.494	7.86
764.804	5.43
765.113	6.65
765.423	6.46
765.732	5.6
766.042	5.75
766.351	5.22
766.66	6.04
766.97	5.93
767.279	6.23
767.588	6.81
767.897	5.68
768.206	7.3
768.515	7.4
768.824	6.1
769.133	6.15
769.441	6.54
769.75	5.36
770.059	3.65
770.367	5.73
770.676	5.63
770.984	6.06
771.293	4.61
771.601	6.48
771.91	5.44
772.218	5.77
772.526	7.14
772.834	5.79
773.142	7.06
773.45	7.2
773.758	4.51
774.066	3.67
774.374	6.12
774.682	6.44
774.99	7.23
775.298	5.56
775.605	5.21
775.913	7.73
776.22	7.75
776.528	6.7
776.835	5.42
777.143	6.18
777.45	5.25
777.757	2.05
778.065	7.21
778.372	6.49
778.679	7.08
778.986	4.35
779.293	6.87
779.6	8.48
779.907	4.67
780.214	4
780.52	6.59
780.827	7.37
781.134	5.09
781.44	5.89
781.747	5.9
782.053	2.61
782.36	4.65
782.666	4.87
782.973	3.9
783.279	3.67
783.585	4.49
783.891	5.27
784.197	5.12
784.503	5.38
784.809	8.94
785.115	5.9
785.421	6.27
785.727	5.55
786.033	1.72
786.339	2.98
786.644	3.92
786.95	6.37
787.255	5.73
787.561	5.07
787.866	7.3
788.172	4.11
788.477	5.79
788.782	3.78
789.088	5.55
789.393	7.74
789.698	10.07
790.003	5.12
790.308	3.65
790.613	4.91
790.918	6.97
791.223	6.12
791.527	8.25
791.832	5.73
792.137	3.89
792.441	4.39
792.746	8.2
793.05	5.96
793.355	4.1
793.659	2.1
793.963	4.36
794.268	7.33
794.572	5.71
794.876	8.91
795.18	1.14
795.484	2.13
795.788	6.29
796.092	5.62
796.396	10.46
796.7	7.85
797.004	5.24
797.307	7.18
797.611	5.86
797.915	8.73
798.218	5.95
798.522	5.17
798.825	6.1
799.128	4.3
799.432	9.7
799.735	7.36
800.038	6.1
800.341	5.88
800.644	2.27
800.947	8.65
801.25	2.61
801.553	8.3
801.856	4.62
802.159	0.06
802.462	6.75
802.764	6.92
803.067	3.99
803.37	1.67
803.672	8.65
803.975	2.34
804.277	7.43
804.579	4.17
804.882	5.81
805.184	4.95
805.486	7.35
805.788	7.97
806.09	5.31
806.392	5.56
806.694	10.08
806.996	9.63
807.298	4.5
807.6	7.13
807.902	7.43
808.203	2.29
808.505	5.96
808.807	5.03
809.108	7.02
809.409	7.85
809.711	7.25
810.012	5.38
810.313	2.6
810.615	8.36
810.916	9.09
811.217	0.99
811.518	9.41
811.819	2.94
812.12	6.02
812.421	6.7
812.722	7.29
813.023	5.35
813.323	3.69
813.624	1.52
813.925	4.54
814.225	5.98
814.526	6.85
814.826	10.61
815.126	5.03
815.427	8.67
815.727	7.32
816.027	11.18
816.327	1.92
816.627	10.7
816.927	5.29
817.227	2.03
817.527	1.93
817.827	2.46
818.127	3.38
818.427	10.29
818.727	5.29
819.026	9.25
819.326	4.62
819.625	7.53
819.925	3.39
820.224	0.62
820.524	1.24
820.823	8.38
821.122	5.32
821.421	4.72
821.72	5.71
822.019	10.45
822.318	6.66
822.617	6.43
822.916	7.37
823.215	7
823.514	7.7
823.813	5.17
824.111	8.87
824.41	6.75
824.709	6.96
825.007	7
825.306	7.05
825.604	7.81
825.902	6.84
826.201	7.72
826.499	6.03
826.797	6.65
827.095	8.63
827.393	8.22
827.691	6.78
827.989	7.85
828.287	7.26
828.585	6.68
828.882	6.16
829.18	6.35
829.478	5.97
829.775	5.27
830.073	8.45
830.37	5.74
830.668	6.53
830.965	7.93
831.263	5.11
831.56	5.28
831.857	7.46
832.154	7.41
832.451	5.62
832.748	5.99
833.045	4.55
833.342	5.12
833.639	8.1
833.936	5.08
834.232	11.74
834.529	7.18
834.826	10.78
835.122	9.3
835.419	6.29
835.715	7.82
836.012	6.78
836.308	5.95
836.604	9.89
836.901	6.86
837.197	11.79
837.493	6.61
837.789	8.02
838.085	5.21
838.381	4.91
838.677	10.5
838.972	8.29
839.268	4.94
839.564	2.73
839.86	8.04
840.155	13.36
840.451	7.92
840.746	6.93
841.042	3.31
841.337	6.19
841.632	10.26
841.928	7.87
842.223	8.26
842.518	4.11
842.813	13.4
843.108	12.95
843.403	8.22
843.698	11.21
843.993	3.05
844.287	8.19
844.582	7.56
844.877	4.03
845.171	4.71
845.466	12.71
845.761	-12.97
846.055	6.2
846.349	-0.11
846.644	-1.65
846.938	20.63
847.232	-4.95
847.526	3.44
847.82	3.36
848.114	6.44
848.408	7.11
848.702	-1.08
848.996	12.05
849.29	9.12
849.584	3.09
849.877	4.04
850.171	18.62
850.465	-0.94
850.758	10.97
851.052	17.14
851.345	2.78
851.638	9.3
851.932	3.4
852.225	5.75
852.518	17.3
852.811	10.36
853.104	22.6
853.397	15.27
853.69	3.75
853.983	-8.23
854.276	17.77
854.569	-25.19
854.861	8.89
855.154	-5.16
855.447	3.26
855.739	-12.05
856.032	9.83
856.324	-5.24
856.616	8.05
856.909	-7.86
857.201	-3.83
857.493	0.95
857.785	11.35
858.077	-1.25
858.369	9.42
858.661	-7.48
858.953	6.06
859.245	-4.07
859.537	22.97
859.829	15.71
860.12	-0.49
860.412	12.36
860.703	7.66
860.995	4.28
861.286	-3.29
861.578	13.22
861.869	32.31
862.16	6.14
862.452	-8.77
862.743	0.56
863.034	0.39
863.325	-17.53
863.616	24.01
863.907	13.82
864.198	-18.36
864.488	12.31
864.779	0.9
865.07	0.48
865.36	15.3
865.651	-1.11
865.941	12.19
866.232	-15.21
866.522	22.48
866.813	26.99
867.103	20.32
867.393	3.24
867.683	23.55
867.973	-9.06
868.263	-9.8
868.553	-3.51
868.843	3.59
869.133	10.33
869.423	13.36
869.713	-21.37
870.002	20.88
870.292	15.11
870.582	-25.91
870.871	17.79
871.161	21.81
871.45	29.23
871.739	0.84
872.029	0.91
872.318	-8.3
872.607	-26.66
872.896	7.82
873.185	4.32
873.474	-2.01
873.763	1.02
874.052	19.99
874.341	8.21
874.63	3.14
874.918	-18.66
875.207	6.74
875.496	8.69
875.784	-28.26
876.073	-20.75
876.361	12.9
876.649	26.7
876.938	23.39
877.226	5.53
877.514	8.35
877.802	-0.1
878.09	-22.96
878.378	-30.98
878.666	-13.74
878.954	12.13
879.242	-1.49
879.53	22.09
879.817	12.99
880.105	-1.51
880.392	5.4
880.68	15.97
880.967	4.41
881.255	-15.74
881.542	-22.33
881.83	10.48
882.117	-10.62
882.404	-2.63
882.691	-13.43
882.978	-0.13
883.265	-8.24
883.552	31.89
883.839	7.12
884.126	7.27
884.413	6.23
884.699	3.58
884.986	3.22
885.273	9.57
885.559	9.57
885.846	9.57
