Data from 0018_forehead_Reflection__0__92.txt Node

Date: Mon Oct 17 15:10:53 CDT 2022
User: ToomeyLab
Spectrometer: FLMS14357
Trigger mode: 0
Integration Time (sec): 1.000000E-2
Scans to average: 100
Electric dark correction enabled: true
Nonlinearity correction enabled: false
Boxcar width: 0
XAxis mode: Wavelengths
Number of Pixels in Spectrum: 2048
>>>>>Begin Spectral Data<<<<<
189.047	-9.44
189.435	-9.44
189.823	-9.44
190.211	-75.68
190.599	334.64
190.987	-113.63
191.375	81.73
191.763	444.41
192.151	116.76
192.538	-98.02
192.926	77.01
193.314	520.29
193.702	-48.46
194.089	-33.53
194.477	328.94
194.864	-59.62
195.252	292.2
195.639	168.43
196.027	116.56
196.414	129.76
196.801	74.8
197.189	15.04
197.576	115
197.963	-540.39
198.351	7.62
198.738	73.62
199.125	33.39
199.512	-92.71
199.899	-9.05
200.286	47.89
200.673	32.92
201.06	3.38
201.447	44.72
201.833	45.59
202.22	49.03
202.607	-28.03
202.994	-0.37
203.38	34.54
203.767	29.08
204.154	58.3
204.54	-30.91
204.927	39.81
205.313	36.33
205.699	35.78
206.086	29.4
206.472	29.16
206.858	72.94
207.245	20.97
207.631	13.14
208.017	38.62
208.403	39.21
208.789	37.79
209.175	-2.43
209.561	-14.22
209.947	-6.25
210.333	27.85
210.719	43.63
211.105	15.89
211.491	11.39
211.876	-5.5
212.262	58.71
212.648	55.52
213.034	2.09
213.419	54.05
213.805	4.49
214.19	46.9
214.576	32.94
214.961	14.78
215.346	20.31
215.732	3.05
216.117	14.57
216.502	21.15
216.888	4.09
217.273	35.5
217.658	17.51
218.043	4.46
218.428	-31.27
218.813	58.13
219.198	32.58
219.583	22.75
219.968	14.36
220.353	18.04
220.738	9.26
221.122	1.46
221.507	10.08
221.892	23.82
222.276	10.82
222.661	12.16
223.046	-5.74
223.43	17.48
223.815	1.8
224.199	22.13
224.583	1.08
224.968	-2.05
225.352	-7.66
225.736	13.76
226.121	-5.4
226.505	12.65
226.889	5.61
227.273	7.25
227.657	9.57
228.041	12.84
228.425	4.44
228.809	5.49
229.193	5.2
229.577	6.18
229.961	7.32
230.344	5.25
230.728	5.45
231.112	5.23
231.495	5.34
231.879	4.6
232.263	6.12
232.646	6.1
233.03	4.93
233.413	3.16
233.797	6.53
234.18	6.76
234.563	3.86
234.946	6.9
235.33	6.73
235.713	6.1
236.096	5.16
236.479	4.96
236.862	3.55
237.245	5.04
237.628	5.11
238.011	7.2
238.394	5.07
238.777	6.93
239.16	6.86
239.543	5.8
239.925	5.67
240.308	6.05
240.691	5.13
241.073	5.05
241.456	5.42
241.838	5.75
242.221	4.7
242.603	5.58
242.986	4.87
243.368	5.74
243.75	5.35
244.133	5.2
244.515	5.89
244.897	5.66
245.279	5.9
245.661	6.35
246.043	6.13
246.425	4.6
246.807	5.01
247.189	5.46
247.571	5.68
247.953	5.68
248.335	5.75
248.717	5.92
249.098	5.6
249.48	5.58
249.862	5.83
250.243	5.54
250.625	5.66
251.006	5.28
251.388	6.38
251.769	6.68
252.151	5.07
252.532	6.46
252.913	6.26
253.295	5.49
253.676	5.78
254.057	5.9
254.438	6.23
254.819	6.69
255.2	6.35
255.581	6.74
255.962	5.62
256.343	4.82
256.724	5.9
257.105	6.18
257.486	5.69
257.867	5.38
258.247	5.94
258.628	6.8
259.009	6.02
259.389	5.6
259.77	5.99
260.15	5.7
260.531	5.13
260.911	5.65
261.292	5.75
261.672	5.5
262.052	5.69
262.432	5.52
262.813	5.68
263.193	5.85
263.573	6.49
263.953	5.52
264.333	5.67
264.713	5.05
265.093	5.68
265.473	6.07
265.853	6.82
266.233	7.01
266.612	5.88
266.992	6.64
267.372	5.87
267.752	6.28
268.131	6.28
268.511	5.77
268.89	5.83
269.27	5.64
269.649	5.25
270.029	6
270.408	6.55
270.787	5.29
271.167	5.14
271.546	6.15
271.925	5.37
272.304	5.63
272.683	5.99
273.062	5.49
273.441	5.29
273.82	6.09
274.199	6.37
274.578	5.69
274.957	5.54
275.336	5.97
275.715	5.94
276.093	5.9
276.472	5.36
276.851	6.02
277.229	5.96
277.608	5.45
277.986	5.35
278.365	6.01
278.743	5.95
279.122	5.71
279.5	6
279.878	5.96
280.257	5.75
280.635	5.41
281.013	5.47
281.391	5.24
281.769	5.57
282.147	6.39
282.525	5.54
282.903	5.42
283.281	5.83
283.659	5.55
284.037	5.79
284.415	5.92
284.792	5.83
285.17	5.5
285.548	5.79
285.925	6.45
286.303	5.85
286.68	6
287.058	6.28
287.435	5.92
287.813	5.87
288.19	5.81
288.567	5.83
288.945	5.53
289.322	6.6
289.699	5.72
290.076	6.29
290.453	6.17
290.83	5.97
291.207	6.57
291.584	6.32
291.961	6.34
292.338	6.56
292.715	6.69
293.092	6.6
293.469	6.39
293.845	6.52
294.222	7.14
294.599	6.77
294.975	6.24
295.352	6.63
295.728	6.82
296.105	6.47
296.481	7.2
296.858	7.45
297.234	6.69
297.61	6.93
297.986	7.12
298.363	7.08
298.739	7.4
299.115	7.07
299.491	7.26
299.867	7.33
300.243	7.24
300.619	7.01
300.995	7.44
301.371	7.38
301.746	7.31
302.122	7.37
302.498	7.79
302.874	8.22
303.249	7.88
303.625	8.28
304	8.19
304.376	8.54
304.751	8.47
305.127	8.64
305.502	8.58
305.878	8.81
306.253	8.27
306.628	8.68
307.003	8.39
307.378	9.03
307.754	8.81
308.129	8.75
308.504	8.92
308.879	9.39
309.254	8.99
309.629	9.1
310.003	9.34
310.378	9.2
310.753	9.1
311.128	9.31
311.502	9.5
311.877	9.37
312.252	9.39
312.626	9.64
313.001	9.88
313.375	9.43
313.75	9.88
314.124	10.06
314.498	9.99
314.873	10.42
315.247	10.33
315.621	11.19
315.995	10.67
316.369	10.33
316.743	10.75
317.117	11.23
317.491	10.81
317.865	11.6
318.239	11.09
318.613	11.5
318.987	11.25
319.361	11.31
319.734	11.18
320.108	11.67
320.482	11.4
320.855	11.44
321.229	11.21
321.602	12.39
321.976	11.32
322.349	12.26
322.723	11.56
323.096	11.55
323.469	12.09
323.843	12.38
324.216	12.37
324.589	12.37
324.962	12.44
325.335	12
325.708	12.4
326.081	12.33
326.454	12.9
326.827	12.38
327.2	12.54
327.573	12.41
327.945	12.64
328.318	12.63
328.691	12.76
329.063	12.72
329.436	12.6
329.809	12.95
330.181	13.58
330.553	13.16
330.926	13.6
331.298	13.21
331.671	13.82
332.043	13.54
332.415	13.75
332.787	13.83
333.159	14.01
333.532	13.47
333.904	13.82
334.276	13.99
334.648	14.07
335.02	14.14
335.391	14.34
335.763	14.03
336.135	14.04
336.507	14.95
336.879	15
337.25	14.93
337.622	14.56
337.993	14.65
338.365	14.51
338.736	14.75
339.108	14.73
339.479	14.79
339.851	14.96
340.222	14.73
340.593	14.92
340.964	15.18
341.336	14.87
341.707	15.61
342.078	15.9
342.449	15.25
342.82	15.55
343.191	15.43
343.562	15.47
343.933	15.72
344.303	15.64
344.674	15.9
345.045	15.95
345.416	15.99
345.786	16.07
346.157	16.06
346.527	16.21
346.898	15.86
347.268	16.44
347.639	16.21
348.009	16.47
348.38	16.51
348.75	16.47
349.12	16.67
349.49	16.95
349.861	17.23
350.231	16.49
350.601	17.1
350.971	17.01
351.341	16.63
351.711	16.83
352.081	17.02
352.45	17.24
352.82	17.23
353.19	16.91
353.56	17.17
353.929	17.55
354.299	17.21
354.669	17.73
355.038	17.79
355.408	17.47
355.777	17.37
356.147	17.48
356.516	17.66
356.885	18.08
357.254	17.9
357.624	18.27
357.993	17.85
358.362	17.85
358.731	17.79
359.1	17.92
359.469	18.06
359.838	18.36
360.207	18.23
360.576	18.24
360.945	18.12
361.314	18.47
361.682	18.73
362.051	18.36
362.42	18.76
362.788	18.72
363.157	18.66
363.525	18.85
363.894	18.97
364.262	18.96
364.631	19.11
364.999	19.06
365.367	18.86
365.735	19.18
366.104	19.24
366.472	18.92
366.84	18.93
367.208	19.28
367.576	19.49
367.944	19.35
368.312	19.42
368.68	19.63
369.048	19.83
369.416	19.54
369.783	19.61
370.151	20.18
370.519	20.01
370.886	19.99
371.254	20.01
371.621	20.31
371.989	20.41
372.356	20.4
372.724	20.49
373.091	20.24
373.458	20.61
373.826	20.47
374.193	20.62
374.56	20.48
374.927	20.79
375.294	20.52
375.661	20.82
376.028	20.83
376.395	20.89
376.762	20.91
377.129	21.05
377.496	20.67
377.863	20.73
378.229	21.13
378.596	21.05
378.963	21.41
379.329	21.55
379.696	21.36
380.062	21.5
380.429	21.5
380.795	21.57
381.161	21.49
381.528	21.8
381.894	21.62
382.26	21.83
382.626	21.88
382.993	22.11
383.359	22.18
383.725	22.2
384.091	22.17
384.457	22.2
384.823	21.93
385.188	22.19
385.554	22.5
385.92	22.57
386.286	22.41
386.651	22.36
387.017	22.4
387.383	22.49
387.748	22.83
388.114	22.77
388.479	22.52
388.845	23.01
389.21	22.62
389.575	22.94
389.94	23.01
390.306	23.14
390.671	23.34
391.036	23.19
391.401	23.02
391.766	23.2
392.131	23.45
392.496	23.75
392.861	23.32
393.226	23.21
393.591	23.09
393.956	23.58
394.32	23.57
394.685	23.62
395.05	23.78
395.414	23.65
395.779	23.75
396.143	23.95
396.508	23.86
396.872	23.88
397.236	23.84
397.601	23.99
397.965	23.91
398.329	24.26
398.694	24.29
399.058	24.24
399.422	24.34
399.786	24.42
400.15	24.55
400.514	24.38
400.878	24.49
401.242	24.61
401.605	24.94
401.969	24.7
402.333	24.81
402.697	24.77
403.06	24.77
403.424	24.97
403.787	25.06
404.151	25.05
404.514	24.9
404.878	25.32
405.241	25.2
405.604	25.29
405.968	25.51
406.331	25.29
406.694	25.3
407.057	25.43
407.42	25.51
407.783	25.49
408.146	25.77
408.509	25.74
408.872	25.57
409.235	25.63
409.598	25.7
409.961	25.82
410.323	26.16
410.686	25.91
411.049	26.02
411.411	26.21
411.774	26.24
412.136	26.26
412.499	26.14
412.861	26.13
413.223	26.28
413.586	26.35
413.948	26.24
414.31	26.1
414.672	26.42
415.035	26.28
415.397	26.73
415.759	26.74
416.121	26.57
416.483	26.86
416.845	26.75
417.206	26.71
417.568	26.94
417.93	27.08
418.292	27.13
418.653	26.81
419.015	26.79
419.377	27.11
419.738	26.84
420.1	27.3
420.461	27.06
420.822	26.95
421.184	26.79
421.545	27.02
421.906	27.04
422.267	26.95
422.629	27.07
422.99	27.02
423.351	27.19
423.712	27.05
424.073	27.16
424.434	27.23
424.795	27.52
425.155	27.35
425.516	27.24
425.877	27.41
426.238	27.47
426.598	27.53
426.959	27.52
427.32	27.77
427.68	27.74
428.041	27.84
428.401	27.89
428.761	27.98
429.122	28.11
429.482	28.12
429.842	28.22
430.202	28.47
430.563	28.37
430.923	28.44
431.283	28.89
431.643	28.45
432.003	28.52
432.363	28.93
432.722	28.78
433.082	28.62
433.442	28.82
433.802	28.76
434.161	28.71
434.521	29.03
434.881	29.01
435.24	28.93
435.6	29.04
435.959	28.63
436.319	29.06
436.678	28.98
437.037	29.09
437.396	29.16
437.756	29.52
438.115	29.16
438.474	29.49
438.833	29.31
439.192	29.54
439.551	29.41
439.91	29.76
440.269	29.63
440.628	29.61
440.987	29.31
441.345	29.58
441.704	29.56
442.063	29.43
442.421	29.62
442.78	29.47
443.138	29.51
443.497	29.59
443.855	29.81
444.214	30.03
444.572	29.87
444.93	30
445.288	29.84
445.647	30.16
446.005	30.16
446.363	30.27
446.721	30.17
447.079	30.17
447.437	30.3
447.795	30.09
448.153	30.19
448.51	30.21
448.868	30.27
449.226	30.31
449.584	30.38
449.941	30.48
450.299	30.7
450.656	30.71
451.014	30.7
451.371	30.86
451.729	30.87
452.086	30.94
452.443	31.13
452.801	31.12
453.158	31.26
453.515	31.22
453.872	31.38
454.229	31.29
454.586	31.19
454.943	31.27
455.3	31.32
455.657	31.41
456.014	31.64
456.371	31.56
456.727	31.71
457.084	31.47
457.441	31.79
457.797	31.6
458.154	31.81
458.51	31.88
458.867	31.99
459.223	32.13
459.58	31.9
459.936	31.96
460.292	32.13
460.648	31.99
461.005	31.98
461.361	31.87
461.717	31.76
462.073	31.65
462.429	31.77
462.785	31.91
463.141	31.99
463.496	32.14
463.852	32.44
464.208	32.63
464.564	32.41
464.919	32.45
465.275	32.72
465.631	32.81
465.986	32.82
466.342	32.68
466.697	32.82
467.052	32.76
467.408	32.71
467.763	32.62
468.118	33
468.473	33.13
468.829	33.05
469.184	33.15
469.539	32.94
469.894	33.11
470.249	33.02
470.603	33.42
470.958	33.2
471.313	33.32
471.668	33.3
472.023	33.42
472.377	33.56
472.732	33.51
473.086	33.58
473.441	33.69
473.795	33.59
474.15	33.68
474.504	33.76
474.859	33.79
475.213	33.77
475.567	33.92
475.921	33.72
476.275	33.83
476.63	34.03
476.984	34.07
477.338	34.01
477.692	33.98
478.045	34.34
478.399	34.18
478.753	34.24
479.107	33.91
479.461	34.15
479.814	34.37
480.168	34.21
480.521	34.28
480.875	34.21
481.228	34.3
481.582	34.25
481.935	34.42
482.289	34.43
482.642	34.52
482.995	34.34
483.348	34.5
483.701	34.36
484.055	34.11
484.408	34.27
484.761	34.13
485.114	33.84
485.466	34.07
485.819	34.06
486.172	33.96
486.525	33.63
486.878	33.46
487.23	33.62
487.583	34.06
487.936	34.23
488.288	34.35
488.641	34.34
488.993	34.25
489.345	34.23
489.698	34.28
490.05	34.15
490.402	34.24
490.754	34.32
491.107	34.39
491.459	34.56
491.811	34.87
492.163	35.22
492.515	34.91
492.866	34.97
493.218	34.82
493.57	34.99
493.922	34.83
494.274	34.86
494.625	34.89
494.977	35.03
495.328	35.44
495.68	35.81
496.031	35.82
496.383	35.8
496.734	35.89
497.086	36.06
497.437	36.11
497.788	36.12
498.139	36.05
498.49	36.04
498.842	36.15
499.193	35.96
499.544	36
499.894	36.09
500.245	36.18
500.596	36.26
500.947	36.65
501.298	36.52
501.648	36.58
501.999	36.41
502.35	36.54
502.7	36.89
503.051	36.75
503.401	36.86
503.752	36.92
504.102	36.99
504.452	37.05
504.803	37.01
505.153	37.04
505.503	37.14
505.853	36.89
506.203	37.02
506.553	37.03
506.903	37.03
507.253	37.11
507.603	37.18
507.953	37.32
508.303	37.25
508.652	37.22
509.002	37.5
509.352	37.51
509.701	37.45
510.051	37.69
510.4	37.41
510.75	37.36
511.099	37.62
511.449	37.49
511.798	37.58
512.147	37.63
512.496	37.56
512.846	37.68
513.195	37.69
513.544	37.81
513.893	37.8
514.242	37.89
514.591	37.73
514.939	37.82
515.288	37.94
515.637	37.85
515.986	38.28
516.334	38.26
516.683	38.32
517.032	38.2
517.38	38.27
517.729	38.44
518.077	38.39
518.426	38.35
518.774	38.46
519.122	38.53
519.47	38.47
519.819	38.56
520.167	38.35
520.515	38.25
520.863	38.3
521.211	38.2
521.559	38.18
521.907	38.3
522.255	38.48
522.602	38.7
522.95	38.78
523.298	38.93
523.645	38.94
523.993	39.11
524.341	38.88
524.688	39.37
525.036	39.39
525.383	39.11
525.73	39.13
526.078	39.17
526.425	39.09
526.772	39.11
527.119	38.94
527.466	39.02
527.814	39.05
528.161	38.94
528.508	38.95
528.854	38.94
529.201	38.97
529.548	38.98
529.895	38.78
530.242	39.02
530.588	39.13
530.935	38.88
531.282	38.52
531.628	38.54
531.975	38.56
532.321	38.77
532.667	39.07
533.014	39.32
533.36	39.43
533.706	39.5
534.052	39.54
534.399	39.59
534.745	39.45
535.091	39.4
535.437	39.41
535.783	39.37
536.129	39.45
536.474	39.46
536.82	39.74
537.166	39.81
537.512	40.04
537.857	40.14
538.203	40.21
538.549	40.09
538.894	40.14
539.239	40.15
539.585	40.09
539.93	40.39
540.276	40.26
540.621	40.66
540.966	40.65
541.311	40.67
541.656	40.71
542.001	40.82
542.346	40.65
542.691	40.66
543.036	40.31
543.381	40.35
543.726	40.29
544.071	40.09
544.415	40.19
544.76	40.15
545.105	40.53
545.449	40.73
545.794	40.92
546.138	40.72
546.483	40.94
546.827	40.83
547.171	41.21
547.516	41.23
547.86	41.42
548.204	41.17
548.548	41.11
548.892	41.4
549.236	41.36
549.58	41.34
549.924	41.59
550.268	41.68
550.612	41.68
550.956	41.86
551.3	41.81
551.643	41.9
551.987	41.89
552.33	42.02
552.674	42.43
553.017	42.13
553.361	42.32
553.704	42.33
554.048	42.34
554.391	42.25
554.734	42.32
555.077	42.19
555.42	42.29
555.764	42.48
556.107	42.35
556.45	42.65
556.793	42.81
557.135	42.69
557.478	42.68
557.821	42.84
558.164	42.66
558.507	42.78
558.849	42.93
559.192	42.95
559.534	43.03
559.877	43.04
560.219	43.15
560.562	42.9
560.904	42.95
561.246	43.05
561.589	43.11
561.931	43.32
562.273	43.34
562.615	43.39
562.957	43.51
563.299	43.7
563.641	43.39
563.983	43.25
564.325	43.33
564.667	43.56
565.008	43.53
565.35	43.57
565.692	43.69
566.033	43.73
566.375	43.81
566.716	43.84
567.058	43.74
567.399	43.56
567.741	43.72
568.082	43.89
568.423	43.49
568.764	43.23
569.105	43.79
569.447	43.6
569.788	43.8
570.129	43.72
570.47	43.86
570.811	43.89
571.151	44.04
571.492	44.43
571.833	44.22
572.174	44.23
572.514	44.38
572.855	44.26
573.195	44.41
573.536	44.23
573.876	44.2
574.217	44.23
574.557	44.17
574.898	44.31
575.238	44.28
575.578	44.53
575.918	44.27
576.258	44.41
576.598	44.73
576.938	44.7
577.278	44.75
577.618	44.68
577.958	44.59
578.298	44.99
578.638	44.73
578.977	44.85
579.317	44.76
579.657	45.05
579.996	44.94
580.336	45.09
580.675	45.32
581.014	45.14
581.354	45.28
581.693	45.45
582.032	45.67
582.372	45.31
582.711	45.35
583.05	45.43
583.389	45.18
583.728	45.57
584.067	45.6
584.406	45.94
584.745	46.24
585.083	45.77
585.422	45.76
585.761	45.33
586.1	45.74
586.438	46.27
586.777	46.06
587.115	45.93
587.454	46.16
587.792	46.1
588.13	45.81
588.469	46.44
588.807	46.19
589.145	46.31
589.483	45.95
589.821	46.19
590.159	45.93
590.497	46.32
590.835	46.42
591.173	46.16
591.511	46.34
591.849	46.12
592.187	46.31
592.524	46.41
592.862	46.16
593.2	46.39
593.537	46.23
593.875	46.57
594.212	46.23
594.55	46.83
594.887	46.31
595.224	46.77
595.561	46.95
595.899	47.08
596.236	46.89
596.573	46.56
596.91	46.96
597.247	47.02
597.584	46.86
597.921	47.05
598.258	46.74
598.594	46.74
598.931	46.76
599.268	46.85
599.604	46.59
599.941	46.66
600.277	46.72
600.614	46.78
600.95	47.21
601.287	47.08
601.623	46.53
601.959	47.12
602.296	47.5
602.632	47.45
602.968	47.38
603.304	47.62
603.64	47.61
603.976	47.69
604.312	47.66
604.648	47.76
604.984	47.77
605.319	47.7
605.655	47.67
605.991	47.54
606.326	47.5
606.662	47.54
606.998	47.43
607.333	47.62
607.668	47.08
608.004	47.47
608.339	47.91
608.674	47.67
609.01	48.09
609.345	48.09
609.68	47.97
610.015	48.1
610.35	48.06
610.685	47.82
611.02	48.32
611.355	47.72
611.689	48.05
612.024	48.19
612.359	48.17
612.694	48.19
613.028	47.89
613.363	48.06
613.697	48.39
614.032	48.47
614.366	48.55
614.7	48.39
615.035	48.69
615.369	49.1
615.703	48.36
616.037	48.79
616.371	49.03
616.705	48.82
617.039	48.68
617.373	49.26
617.707	48.85
618.041	49.05
618.375	48.46
618.709	49.19
619.042	49.37
619.376	49.08
619.71	49.07
620.043	49.32
620.377	49.17
620.71	49.13
621.043	49.02
621.377	49.39
621.71	49.43
622.043	49.49
622.376	49.56
622.709	49.19
623.043	49.38
623.376	49.49
623.709	50.03
624.041	49.51
624.374	49.59
624.707	49.62
625.04	49.48
625.373	50.02
625.705	49.54
626.038	49.74
626.37	49.94
626.703	50.12
627.035	50.04
627.368	49.92
627.7	49.84
628.032	50.11
628.365	49.68
628.697	50.06
629.029	49.85
629.361	49.65
629.693	49.84
630.025	49.73
630.357	49.51
630.689	49.97
631.021	50
631.353	49.78
631.684	50.49
632.016	50
632.348	50.42
632.679	50.19
633.011	50.24
633.342	50.43
633.674	50.66
634.005	50.31
634.336	50.1
634.668	50.79
634.999	49.8
635.33	50.68
635.661	50.93
635.992	50.48
636.323	50.72
636.654	50.38
636.985	50.18
637.316	50.53
637.647	50.61
637.977	51.27
638.308	50.82
638.639	50.83
638.969	50.85
639.3	50.51
639.63	51.08
639.961	50.81
640.291	50.9
640.622	51.47
640.952	51.4
641.282	50.95
641.612	51.06
641.943	51.46
642.273	51.18
642.603	51.2
642.933	51.35
643.263	51.68
643.592	51.67
643.922	51.04
644.252	51.07
644.582	51.48
644.911	51.19
645.241	51.13
645.571	50.9
645.9	51.05
646.23	51.21
646.559	51.22
646.888	51.33
647.218	51.23
647.547	52.11
647.876	51.5
648.205	51.74
648.534	52.14
648.863	51.85
649.192	51.39
649.521	52.05
649.85	51.79
650.179	52.66
650.508	51.63
650.837	51.64
651.165	51.67
651.494	51.42
651.822	52
652.151	51.62
652.479	51.76
652.808	52.25
653.136	51.94
653.465	52
653.793	52
654.121	52.64
654.449	52.31
654.777	52.2
655.105	52.38
655.433	52.42
655.761	51.89
656.089	52.06
656.417	52.5
656.745	52.49
657.073	52.32
657.4	52.98
657.728	52.7
658.056	52.11
658.383	51.68
658.711	52.73
659.038	52.32
659.365	51.98
659.693	52.54
660.02	51.86
660.347	52.51
660.674	52.94
661.001	52.78
661.329	52.72
661.656	52.75
661.982	52.29
662.309	52.41
662.636	52.74
662.963	52.44
663.29	52.38
663.616	52.83
663.943	52.52
664.27	52.86
664.596	53.37
664.923	52.73
665.249	53.16
665.576	52.66
665.902	53.14
666.228	53.05
666.554	53.16
666.881	52.62
667.207	52.99
667.533	52.71
667.859	53.49
668.185	53.36
668.511	52.87
668.837	53.21
669.162	53.67
669.488	52.83
669.814	53.53
670.139	53.49
670.465	53.99
670.791	53.4
671.116	53.52
671.442	53.47
671.767	53.43
672.092	53.67
672.418	53.5
672.743	53.65
673.068	52.66
673.393	53.39
673.718	53.43
674.043	54.23
674.368	53.2
674.693	53.82
675.018	53.68
675.343	53.36
675.667	53.8
675.992	53.91
676.317	54.67
676.641	54.17
676.966	54.03
677.29	54.72
677.615	54.18
677.939	54.57
678.264	54.47
678.588	53.75
678.912	54.23
679.236	54.95
679.56	53.98
679.885	54.48
680.209	53.74
680.532	54.73
680.856	54.29
681.18	54.51
681.504	54.02
681.828	54.31
682.152	54.52
682.475	53.93
682.799	54.72
683.122	54.49
683.446	54.17
683.769	54.33
684.093	54.21
684.416	54.26
684.739	54.52
685.062	54.27
685.386	54.4
685.709	54.22
686.032	54.95
686.355	54.14
686.678	54.67
687.001	54.48
687.324	54.3
687.646	53.68
687.969	54.63
688.292	54.7
688.614	55.27
688.937	54.98
689.26	54.58
689.582	54.6
689.904	55.24
690.227	54.88
690.549	55.36
690.871	54.53
691.194	54.58
691.516	54.62
691.838	55.31
692.16	54.79
692.482	55.33
692.804	55.57
693.126	54.94
693.448	55.77
693.769	55.35
694.091	55.01
694.413	55.27
694.735	55.06
695.056	55.67
695.378	54.23
695.699	54.98
696.021	55.13
696.342	55.37
696.663	55.61
696.984	54.76
697.306	55.92
697.627	55.17
697.948	54.95
698.269	54.52
698.59	57
698.911	56.08
699.232	55.93
699.553	56.58
699.873	55.6
700.194	55.33
700.515	56.98
700.835	55.96
701.156	56.11
701.477	56.14
701.797	55.59
702.117	55.98
702.438	55.44
702.758	55.28
703.078	56.39
703.398	55.86
703.719	56.06
704.039	56.27
704.359	55.97
704.679	56.18
704.999	56.65
705.319	56.65
705.638	56.27
705.958	55.87
706.278	56.57
706.597	55.74
706.917	56.04
707.237	57.14
707.556	56.32
707.876	55.55
708.195	57.36
708.514	56.75
708.834	56.44
709.153	55.6
709.472	57.79
709.791	55.51
710.11	57.12
710.429	56.45
710.748	56.31
711.067	56.46
711.386	56.42
711.705	56.99
712.023	57.11
712.342	56.4
712.661	57.53
712.979	56.39
713.298	56.11
713.616	56.41
713.935	57.18
714.253	57.09
714.572	57.33
714.89	56.21
715.208	57.7
715.526	57.36
715.844	56.75
716.162	57.24
716.48	56.04
716.798	56.72
717.116	56.99
717.434	56.86
717.752	56.44
718.069	55.89
718.387	56.34
718.705	56.47
719.022	57.68
719.34	58.03
719.657	57.66
719.975	56.68
720.292	56.93
720.609	56.22
720.927	58.11
721.244	56.57
721.561	58.35
721.878	56.9
722.195	56.62
722.512	57.48
722.829	58.51
723.146	59.41
723.463	57.9
723.779	56.73
724.096	58.8
724.413	57.67
724.729	57.36
725.046	57.5
725.362	58.03
725.679	56.32
725.995	56.4
726.311	57.49
726.628	59.01
726.944	58.42
727.26	58.38
727.576	56.4
727.892	58.87
728.208	58
728.524	58.07
728.84	57.89
729.156	58.74
729.472	57.44
729.787	58.21
730.103	57.84
730.419	57.14
730.734	59.93
731.05	58.59
731.365	58.53
731.681	59.22
731.996	57.42
732.311	58.43
732.626	57.21
732.942	58.67
733.257	57.79
733.572	59.89
733.887	57.76
734.202	58.74
734.517	58.5
734.832	58.76
735.146	59.03
735.461	59.04
735.776	59.09
736.091	59.12
736.405	58.09
736.72	59.03
737.034	58.1
737.349	58.27
737.663	58.79
737.977	58.32
738.292	59.88
738.606	58.71
738.92	60.97
739.234	57.23
739.548	59.03
739.862	59.43
740.176	57.4
740.49	59.03
740.804	58.7
741.117	58.44
741.431	57.77
741.745	58.85
742.058	59.26
742.372	59.28
742.685	58.56
742.999	57.85
743.312	59.38
743.626	57.99
743.939	58.32
744.252	58.94
744.565	55.98
744.878	58.63
745.191	59.63
745.505	58.7
745.817	58.93
746.13	60.33
746.443	58.72
746.756	59.27
747.069	59.52
747.381	57.14
747.694	58.43
748.007	60.17
748.319	59.45
748.632	58.37
748.944	58.56
749.256	58.99
749.569	58.2
749.881	60.8
750.193	61.43
750.505	58.1
750.817	58.18
751.129	59.46
751.441	60.15
751.753	60.48
752.065	59.33
752.377	58.45
752.689	58.04
753	58.96
753.312	60.33
753.624	60.98
753.935	58.44
754.247	60.43
754.558	62.51
754.869	60.72
755.181	60.24
755.492	58.45
755.803	60.45
756.114	60.77
756.425	60.18
756.736	60.74
757.047	61.38
757.358	59.82
757.669	60.71
757.98	58.26
758.291	61.85
758.601	58.07
758.912	58.79
759.223	58.71
759.533	58.09
759.844	59.47
760.154	61.7
760.464	60.95
760.775	60.32
761.085	59.64
761.395	60.48
761.705	61.01
762.016	60.47
762.326	61.82
762.636	59.68
762.945	60.26
763.255	60.59
763.565	61.65
763.875	60.43
764.185	60.62
764.494	59.75
764.804	61.56
765.113	60.3
765.423	60.29
765.732	60.67
766.042	60.29
766.351	59.21
766.66	60.21
766.97	60.25
767.279	60.34
767.588	60.44
767.897	61
768.206	61.04
768.515	62.49
768.824	60.88
769.133	62.78
769.441	61.78
769.75	59.28
770.059	61.34
770.367	60.12
770.676	61.45
770.984	59.73
771.293	60.08
771.601	60.1
771.91	58.6
772.218	62.19
772.526	61.77
772.834	63.01
773.142	59.84
773.45	61.88
773.758	59.48
774.066	62.26
774.374	59.33
774.682	60.78
774.99	61.71
775.298	61.7
775.605	60.46
775.913	59.3
776.22	62.95
776.528	57.85
776.835	59.17
777.143	58.68
777.45	60.38
777.757	57.26
778.065	61.42
778.372	58.64
778.679	63.95
778.986	58.82
779.293	58.49
779.6	60.07
779.907	59.48
780.214	58.4
780.52	57.56
780.827	61.48
781.134	60.41
781.44	57.91
781.747	61.66
782.053	59.54
782.36	61.48
782.666	61.34
782.973	59.49
783.279	58.3
783.585	60.19
783.891	61.78
784.197	61.56
784.503	62.72
784.809	60.45
785.115	62.38
785.421	59.37
785.727	61.74
786.033	61.34
786.339	63.34
786.644	60.8
786.95	59.72
787.255	59.45
787.561	61.32
787.866	61.26
788.172	61.02
788.477	63.3
788.782	58.29
789.088	62.76
789.393	62.03
789.698	61.29
790.003	57.1
790.308	59.85
790.613	61.51
790.918	63.77
791.223	61.06
791.527	60.26
791.832	61.05
792.137	62.08
792.441	61.14
792.746	61.77
793.05	63.62
793.355	61.16
793.659	58.35
793.963	60.49
794.268	63.97
794.572	61.21
794.876	59.25
795.18	63.28
795.484	63.04
795.788	58.76
796.092	61.54
796.396	60.93
796.7	59.16
797.004	62.68
797.307	57.88
797.611	59.91
797.915	65.52
798.218	58.63
798.522	62.98
798.825	60.24
799.128	63.16
799.432	59
799.735	62.03
800.038	61.25
800.341	60.97
800.644	63.94
800.947	60.01
801.25	62.75
801.553	65.52
801.856	57.59
802.159	62.32
802.462	61.08
802.764	59.15
803.067	56.85
803.37	60.78
803.672	59.57
803.975	66.77
804.277	64.66
804.579	67.69
804.882	60.45
805.184	61.94
805.486	61.53
805.788	61.58
806.09	61.97
806.392	64.09
806.694	67.19
806.996	61
807.298	56.96
807.6	66.8
807.902	63.11
808.203	56.98
808.505	61.56
808.807	65.79
809.108	61.24
809.409	66.05
809.711	67.86
810.012	65.29
810.313	58.56
810.615	61.53
810.916	64.58
811.217	64.48
811.518	62.09
811.819	66.08
812.12	59.5
812.421	60.1
812.722	69.54
813.023	64.39
813.323	65.92
813.624	63.12
813.925	61.89
814.225	61.93
814.526	64.37
814.826	64.29
815.126	56.45
815.427	57.49
815.727	62.19
816.027	65.92
816.327	61.11
816.627	56.58
816.927	61.64
817.227	68.51
817.527	59.96
817.827	56.33
818.127	66.37
818.427	62.61
818.727	60.28
819.026	61.59
819.326	65.9
819.625	63.83
819.925	65.06
820.224	65.56
820.524	66.9
820.823	63.58
821.122	63.65
821.421	65.83
821.72	66.78
822.019	64
822.318	63.54
822.617	63.19
822.916	61.85
823.215	63.63
823.514	64.05
823.813	63.26
824.111	62.18
824.41	64.77
824.709	65.48
825.007	63.94
825.306	64.05
825.604	64.01
825.902	62.37
826.201	64.43
826.499	63.19
826.797	63.65
827.095	63.39
827.393	64.3
827.691	60.92
827.989	62.01
828.287	62.84
828.585	65.7
828.882	62.64
829.18	62.17
829.478	65.91
829.775	64.03
830.073	64.6
830.37	63.87
830.668	64.74
830.965	63.69
831.263	64.38
831.56	61.27
831.857	65.2
832.154	63.26
832.451	64.07
832.748	63.5
833.045	66.32
833.342	63.33
833.639	65.74
833.936	65.72
834.232	62.23
834.529	64.89
834.826	60.63
835.122	59.54
835.419	64.38
835.715	59.43
836.012	65.89
836.308	64.8
836.604	65.75
836.901	65.57
837.197	63.96
837.493	63.33
837.789	64.3
838.085	61.52
838.381	63.3
838.677	65.57
838.972	64.26
839.268	62.99
839.564	59.5
839.86	62.18
840.155	66.38
840.451	66.42
840.746	65.3
841.042	68
841.337	62.05
841.632	67.76
841.928	59.34
842.223	62.11
842.518	58.4
842.813	64.44
843.108	61.17
843.403	65.7
843.698	59.52
843.993	59.82
844.287	73.65
844.582	66.77
844.877	60.5
845.171	54.92
845.466	64.85
845.761	62.67
846.055	66.93
846.349	67.92
846.644	62.47
846.938	61.95
847.232	67.53
847.526	58.78
847.82	66.19
848.114	49.16
848.408	75.19
848.702	47.44
848.996	61.36
849.29	61.78
849.584	51.66
849.877	68.47
850.171	64.18
850.465	72.26
850.758	67.81
851.052	77.48
851.345	70.65
851.638	73.71
851.932	43.24
852.225	68.18
852.518	49.15
852.811	67.62
853.104	59.24
853.397	77.16
853.69	49.98
853.983	55.45
854.276	82.44
854.569	79.59
854.861	89.33
855.154	70.46
855.447	66.6
855.739	60.33
856.032	79.56
856.324	75.06
856.616	49.87
856.909	55.73
857.201	67.17
857.493	62.32
857.785	69.9
858.077	35.1
858.369	55.66
858.661	51.06
858.953	56.61
859.245	69.09
859.537	76.94
859.829	73.46
860.12	75.97
860.412	71.15
860.703	60.51
860.995	62.85
861.286	80
861.578	37.6
861.869	75.92
862.16	77.38
862.452	72.16
862.743	68.78
863.034	61.48
863.325	74.83
863.616	74.68
863.907	66.74
864.198	47.99
864.488	81.08
864.779	49.28
865.07	69.55
865.36	64.07
865.651	73.14
865.941	47.42
866.232	58.85
866.522	42.34
866.813	75.76
867.103	46.97
867.393	47.21
867.683	83.82
867.973	63.2
868.263	57.71
868.553	64.51
868.843	50.04
869.133	66.37
869.423	79.71
869.713	63.77
870.002	83.73
870.292	76.32
870.582	59.57
870.871	53.8
871.161	65.26
871.45	66.16
871.739	58.21
872.029	83.88
872.318	68.95
872.607	65.33
872.896	39.25
873.185	20.46
873.474	47.42
873.763	58.86
874.052	42.89
874.341	65.18
874.63	57.85
874.918	49.79
875.207	83.69
875.496	55.12
875.784	66.45
876.073	54.34
876.361	61.49
876.649	54.01
876.938	48.58
877.226	60.59
877.514	51.1
877.802	74.75
878.09	97
878.378	87.34
878.666	74.92
878.954	60.59
879.242	37.38
879.53	33.7
879.817	27.58
880.105	56.52
880.392	68.08
880.68	43.87
880.967	82.89
881.255	40.35
881.542	67.32
881.83	73.46
882.117	59.97
882.404	70.29
882.691	73.01
882.978	68
883.265	61.91
883.552	73.3
883.839	67.05
884.126	54.93
884.413	65.32
884.699	64.13
884.986	64.51
885.273	69.44
885.559	69.44
885.846	69.44
