Data from 0018_crown_Reflection__2__88.txt Node

Date: Mon Oct 17 15:09:41 CDT 2022
User: ToomeyLab
Spectrometer: FLMS14357
Trigger mode: 0
Integration Time (sec): 1.000000E-2
Scans to average: 100
Electric dark correction enabled: true
Nonlinearity correction enabled: false
Boxcar width: 0
XAxis mode: Wavelengths
Number of Pixels in Spectrum: 2048
>>>>>Begin Spectral Data<<<<<
189.047	341.82
189.435	341.82
189.823	341.82
190.211	-260.03
190.599	206.77
190.987	-63.57
191.375	-92.91
191.763	-434.14
192.151	28.6
192.538	-143.1
192.926	71.49
193.314	686.55
193.702	-59.76
194.089	28.9
194.477	337.61
194.864	-159.15
195.252	303.82
195.639	286.11
196.027	109
196.414	67.57
196.801	-67.76
197.189	-6.63
197.576	116.69
197.963	-764.62
198.351	-1156.59
198.738	23.44
199.125	-58.89
199.512	-58.52
199.899	-35.96
200.286	-13.05
200.673	-34.93
201.06	-20.69
201.447	-5.32
201.833	36.54
202.22	-2.31
202.607	-2.59
202.994	-10.86
203.38	-14.84
203.767	-18.24
204.154	18.44
204.54	-47.69
204.927	-8.62
205.313	-20.71
205.699	-4.69
206.086	-46.39
206.472	-3.63
206.858	-1.91
207.245	-21.57
207.631	-11.59
208.017	-0.07
208.403	4.21
208.789	-6.87
209.175	-3.28
209.561	-76.14
209.947	-38.46
210.333	23.41
210.719	-8.05
211.105	22.56
211.491	-30.05
211.876	-64.46
212.262	1.3
212.648	-1.37
213.034	-34.59
213.419	-1.6
213.805	-26.97
214.19	0.27
214.576	-41.3
214.961	-42.85
215.346	-13.43
215.732	2.06
216.117	3.81
216.502	-6.46
216.888	7.92
217.273	13.81
217.658	31.12
218.043	-6.23
218.428	-18.28
218.813	-8.53
219.198	-8.96
219.583	3.22
219.968	4.1
220.353	-11.16
220.738	-15.75
221.122	2.01
221.507	-7.19
221.892	14.02
222.276	-2.69
222.661	-7.29
223.046	6.12
223.43	-4.44
223.815	-10.05
224.199	9.97
224.583	-21.49
224.968	-8.6
225.352	-6.71
225.736	-8.08
226.121	-10.9
226.505	-4.93
226.889	-5.96
227.273	0.24
227.657	3.03
228.041	6.26
228.425	0.61
228.809	1.69
229.193	3.39
229.577	3.46
229.961	5.99
230.344	3.19
230.728	4.14
231.112	4.05
231.495	3.26
231.879	4.05
232.263	3.37
232.646	3.91
233.03	2.8
233.413	1.95
233.797	3.28
234.18	3.15
234.563	1.46
234.946	2.88
235.33	3.82
235.713	2.08
236.096	2.7
236.479	2.24
236.862	0.96
237.245	3.2
237.628	1.72
238.011	2.3
238.394	3.15
238.777	2.33
239.16	2.99
239.543	2.24
239.925	3.15
240.308	3.7
240.691	1.83
241.073	5.1
241.456	2.73
241.838	3.92
242.221	2.93
242.603	3.34
242.986	2.96
243.368	3.67
243.75	3.35
244.133	3.41
244.515	3.95
244.897	3.55
245.279	4.42
245.661	3.77
246.043	3.79
246.425	1.42
246.807	3.28
247.189	3.3
247.571	3.34
247.953	2.99
248.335	3.55
248.717	3.57
249.098	3.71
249.48	3.6
249.862	3.57
250.243	3.1
250.625	4.2
251.006	3.39
251.388	3.74
251.769	2.63
252.151	3.81
252.532	3.51
252.913	4.08
253.295	2.63
253.676	3.37
254.057	3.76
254.438	3.41
254.819	4.96
255.2	3.68
255.581	3.58
255.962	1.9
256.343	2.85
256.724	3.1
257.105	3.42
257.486	1.88
257.867	3.44
258.247	2.83
258.628	4.16
259.009	3.72
259.389	2.69
259.77	3.04
260.15	3.07
260.531	3.06
260.911	3.16
261.292	3.04
261.672	3.17
262.052	3.42
262.432	3.59
262.813	3.09
263.193	3.77
263.573	3.32
263.953	2.98
264.333	2.8
264.713	2.3
265.093	3.08
265.473	2.95
265.853	3.35
266.233	3.95
266.612	3.2
266.992	3.15
267.372	3.18
267.752	3.63
268.131	3.2
268.511	3.44
268.89	3.29
269.27	3.17
269.649	3.56
270.029	3.43
270.408	3.55
270.787	2.57
271.167	2.67
271.546	2.79
271.925	3.1
272.304	2.95
272.683	3.22
273.062	2.99
273.441	2.81
273.82	3.09
274.199	3.42
274.578	3.5
274.957	3.1
275.336	3.69
275.715	2.56
276.093	3.47
276.472	2.68
276.851	3.4
277.229	2.62
277.608	2.85
277.986	2.73
278.365	2.99
278.743	2.86
279.122	2.95
279.5	3.21
279.878	3.44
280.257	3.03
280.635	2.33
281.013	3.36
281.391	2.28
281.769	3.08
282.147	3.02
282.525	3.16
282.903	2.3
283.281	2.73
283.659	2.78
284.037	2.93
284.415	3.3
284.792	3.1
285.17	2.46
285.548	2.8
285.925	2.83
286.303	3.31
286.68	3.32
287.058	3.27
287.435	2.95
287.813	3.01
288.19	2.97
288.567	3.05
288.945	2.74
289.322	3.6
289.699	2.71
290.076	3.31
290.453	3.06
290.83	3.01
291.207	3.34
291.584	3.13
291.961	3.14
292.338	2.98
292.715	3.22
293.092	2.82
293.469	3.01
293.845	3.3
294.222	3.56
294.599	2.81
294.975	2.67
295.352	2.55
295.728	2.89
296.105	2.91
296.481	2.83
296.858	3.55
297.234	2.97
297.61	2.63
297.986	3.28
298.363	2.94
298.739	3.35
299.115	2.96
299.491	3.04
299.867	3.11
300.243	3.11
300.619	2.72
300.995	3.3
301.371	3.05
301.746	2.93
302.122	2.64
302.498	2.9
302.874	3.05
303.249	3.26
303.625	3.73
304	3.09
304.376	3.38
304.751	3.15
305.127	3
305.502	3.12
305.878	2.94
306.253	3.02
306.628	3.16
307.003	2.75
307.378	3.03
307.754	2.86
308.129	2.72
308.504	3.55
308.879	3.05
309.254	2.89
309.629	3.01
310.003	3.11
310.378	3.43
310.753	3.13
311.128	3.11
311.502	3.56
311.877	3.4
312.252	3.03
312.626	2.63
313.001	3.23
313.375	2.98
313.75	3.11
314.124	3.23
314.498	3.26
314.873	2.88
315.247	2.91
315.621	3.41
315.995	3.27
316.369	3.12
316.743	3.25
317.117	3.26
317.491	3.44
317.865	3.36
318.239	3.43
318.613	3.04
318.987	2.87
319.361	2.68
319.734	3.22
320.108	3.39
320.482	3.12
320.855	2.88
321.229	2.72
321.602	3.54
321.976	3.06
322.349	3.18
322.723	3.05
323.096	2.95
323.469	3.35
323.843	3.16
324.216	3.25
324.589	3.33
324.962	3.35
325.335	2.94
325.708	3.7
326.081	3.14
326.454	3.36
326.827	3.37
327.2	3.32
327.573	3.06
327.945	2.99
328.318	3.12
328.691	3.34
329.063	3.37
329.436	3.32
329.809	3.31
330.181	3.63
330.553	2.92
330.926	3.51
331.298	3.56
331.671	3.67
332.043	3.89
332.415	3.1
332.787	3.57
333.159	3.19
333.532	3.07
333.904	3.12
334.276	3.45
334.648	3.12
335.02	3.47
335.391	3.47
335.763	3.59
336.135	3.17
336.507	3.71
336.879	3.64
337.25	3.98
337.622	3.15
337.993	3.51
338.365	3.69
338.736	3.48
339.108	3.58
339.479	3.27
339.851	3.7
340.222	3.4
340.593	3.38
340.964	3.38
341.336	3.41
341.707	3.86
342.078	4.01
342.449	3.84
342.82	3.52
343.191	3.45
343.562	3.52
343.933	3.54
344.303	3.58
344.674	3.76
345.045	3.62
345.416	4.03
345.786	3.57
346.157	3.53
346.527	3.75
346.898	3.8
347.268	3.88
347.639	3.06
348.009	3.65
348.38	3.54
348.75	3.74
349.12	3.73
349.49	3.76
349.861	3.7
350.231	3.73
350.601	3.52
350.971	3.56
351.341	3.29
351.711	3.16
352.081	3.49
352.45	3.82
352.82	4.16
353.19	3.52
353.56	3.83
353.929	3.78
354.299	3.54
354.669	3.71
355.038	3.98
355.408	3.69
355.777	3.5
356.147	3.77
356.516	3.83
356.885	3.76
357.254	4.02
357.624	3.85
357.993	3.83
358.362	3.66
358.731	3.68
359.1	3.62
359.469	3.7
359.838	3.72
360.207	3.98
360.576	3.72
360.945	3.88
361.314	3.83
361.682	3.86
362.051	3.77
362.42	3.78
362.788	3.92
363.157	3.91
363.525	3.58
363.894	3.98
364.262	4.16
364.631	4.18
364.999	4.01
365.367	3.62
365.735	3.83
366.104	3.66
366.472	3.69
366.84	3.86
367.208	3.95
367.576	3.84
367.944	3.51
368.312	3.79
368.68	3.81
369.048	4.11
369.416	3.95
369.783	4.08
370.151	3.84
370.519	4.09
370.886	3.89
371.254	3.66
371.621	4.1
371.989	4.12
372.356	4.23
372.724	3.96
373.091	4.01
373.458	3.8
373.826	4.33
374.193	4.38
374.56	3.98
374.927	4.21
375.294	4.14
375.661	4.06
376.028	4.21
376.395	3.98
376.762	3.87
377.129	4.13
377.496	3.86
377.863	3.81
378.229	4.19
378.596	3.84
378.963	3.94
379.329	3.92
379.696	3.98
380.062	4.47
380.429	3.63
380.795	4.37
381.161	4.24
381.528	4.09
381.894	3.82
382.26	4.18
382.626	4.26
382.993	4.32
383.359	4.16
383.725	4.27
384.091	4.01
384.457	4.02
384.823	3.93
385.188	3.99
385.554	4.18
385.92	4.32
386.286	4.11
386.651	4.36
387.017	4.08
387.383	4.21
387.748	3.81
388.114	4.16
388.479	4.23
388.845	4.27
389.21	4
389.575	4.25
389.94	4.24
390.306	4.21
390.671	4.6
391.036	4.28
391.401	4.43
391.766	4.47
392.131	4.15
392.496	4.33
392.861	4.1
393.226	4.13
393.591	3.89
393.956	4.27
394.32	4.44
394.685	4.46
395.05	4.49
395.414	4.46
395.779	4.4
396.143	4.49
396.508	4.3
396.872	4.23
397.236	4.51
397.601	4.32
397.965	4.41
398.329	4.53
398.694	4.5
399.058	4.34
399.422	4.55
399.786	4.51
400.15	4.5
400.514	4.31
400.878	4.27
401.242	4.53
401.605	4.69
401.969	4.57
402.333	4.26
402.697	4.45
403.06	4.44
403.424	4.28
403.787	4.49
404.151	4.51
404.514	4.58
404.878	4.72
405.241	4.49
405.604	4.59
405.968	4.77
406.331	4.28
406.694	4.53
407.057	4.46
407.42	4.5
407.783	4.57
408.146	4.89
408.509	4.63
408.872	4.4
409.235	4.59
409.598	4.37
409.961	4.21
410.323	4.52
410.686	4.45
411.049	4.46
411.411	4.65
411.774	4.64
412.136	4.59
412.499	4.75
412.861	4.55
413.223	4.44
413.586	4.71
413.948	4.46
414.31	4.58
414.672	4.66
415.035	4.82
415.397	4.77
415.759	4.58
416.121	4.54
416.483	4.56
416.845	4.64
417.206	4.6
417.568	4.84
417.93	4.62
418.292	4.75
418.653	4.57
419.015	4.6
419.377	4.56
419.738	4.6
420.1	4.61
420.461	4.58
420.822	4.62
421.184	4.55
421.545	4.53
421.906	4.64
422.267	4.58
422.629	4.55
422.99	4.56
423.351	4.67
423.712	4.66
424.073	4.76
424.434	4.73
424.795	4.66
425.155	4.74
425.516	4.47
425.877	4.53
426.238	4.63
426.598	4.62
426.959	4.68
427.32	4.82
427.68	4.8
428.041	4.73
428.401	4.82
428.761	4.72
429.122	4.91
429.482	4.78
429.842	4.73
430.202	4.99
430.563	4.66
430.923	4.72
431.283	4.86
431.643	4.85
432.003	4.81
432.363	5.08
432.722	4.74
433.082	4.81
433.442	4.94
433.802	4.61
434.161	4.79
434.521	4.82
434.881	4.75
435.24	4.78
435.6	4.84
435.959	4.9
436.319	4.97
436.678	4.72
437.037	4.81
437.396	4.89
437.756	4.87
438.115	4.69
438.474	4.74
438.833	4.76
439.192	4.8
439.551	4.74
439.91	4.72
440.269	4.76
440.628	4.74
440.987	4.76
441.345	4.8
441.704	4.9
442.063	4.63
442.421	4.8
442.78	4.79
443.138	4.93
443.497	4.95
443.855	5.05
444.214	5.04
444.572	4.84
444.93	4.84
445.288	4.87
445.647	4.83
446.005	4.98
446.363	5.02
446.721	4.82
447.079	4.75
447.437	4.9
447.795	4.91
448.153	4.85
448.51	4.8
448.868	4.97
449.226	4.91
449.584	5.08
449.941	4.99
450.299	5.09
450.656	4.88
451.014	5.04
451.371	5.22
451.729	5.2
452.086	5.03
452.443	5.26
452.801	5.1
453.158	5.19
453.515	4.84
453.872	4.93
454.229	4.85
454.586	4.97
454.943	5.04
455.3	5.17
455.657	5
456.014	5.21
456.371	4.96
456.727	5
457.084	5.06
457.441	5.22
457.797	5.1
458.154	5.22
458.51	5.24
458.867	5.1
459.223	5.11
459.58	5
459.936	4.98
460.292	5.02
460.648	5.03
461.005	4.84
461.361	4.95
461.717	4.84
462.073	4.99
462.429	5.08
462.785	5.36
463.141	5.38
463.496	5.31
463.852	5.34
464.208	5.37
464.564	5.14
464.919	5.38
465.275	5.14
465.631	5.23
465.986	5.12
466.342	5.2
466.697	5.18
467.052	5.13
467.408	5.19
467.763	5.23
468.118	5.22
468.473	5.31
468.829	5.16
469.184	5.22
469.539	5.14
469.894	5.25
470.249	5.28
470.603	5.36
470.958	5.41
471.313	5.25
471.668	5.32
472.023	5.22
472.377	5.38
472.732	5.22
473.086	5.4
473.441	5.38
473.795	5.22
474.15	5.24
474.504	5.24
474.859	5.31
475.213	5.29
475.567	5.36
475.921	5.32
476.275	5.25
476.63	5.37
476.984	5.36
477.338	5.18
477.692	5.39
478.045	5.37
478.399	5.4
478.753	5.32
479.107	5.19
479.461	5.25
479.814	5.29
480.168	5.38
480.521	5.29
480.875	5.23
481.228	5.29
481.582	5.4
481.935	5.26
482.289	5.28
482.642	5.37
482.995	5.23
483.348	5.27
483.701	5.22
484.055	5.15
484.408	5.14
484.761	5.01
485.114	4.87
485.466	4.7
485.819	4.73
486.172	4.95
486.525	5.28
486.878	5.49
487.23	5.58
487.583	5.58
487.936	5.39
488.288	5.2
488.641	5
488.993	4.92
489.345	5
489.698	5.05
490.05	5.1
490.402	5.32
490.754	5.44
491.107	5.49
491.459	5.47
491.811	5.58
492.163	5.42
492.515	5.25
492.866	5.11
493.218	4.99
493.57	5
493.922	5.22
494.274	5.44
494.625	5.55
494.977	5.72
495.328	5.72
495.68	5.66
496.031	5.69
496.383	5.66
496.734	5.55
497.086	5.35
497.437	5.47
497.788	5.54
498.139	5.27
498.49	5.3
498.842	5.36
499.193	5.42
499.544	5.58
499.894	5.45
500.245	5.46
500.596	5.48
500.947	5.63
501.298	5.67
501.648	5.57
501.999	5.58
502.35	5.66
502.7	5.75
503.051	5.63
503.401	5.78
503.752	5.68
504.102	5.62
504.452	5.45
504.803	5.57
505.153	5.67
505.503	5.64
505.853	5.63
506.203	5.67
506.553	5.52
506.903	5.68
507.253	5.64
507.603	5.65
507.953	5.61
508.303	5.67
508.652	5.68
509.002	5.74
509.352	5.68
509.701	5.67
510.051	5.69
510.4	5.46
510.75	5.54
511.099	5.67
511.449	5.65
511.798	5.63
512.147	5.67
512.496	5.74
512.846	5.55
513.195	5.66
513.544	5.68
513.893	5.66
514.242	5.64
514.591	5.61
514.939	5.73
515.288	5.75
515.637	5.73
515.986	5.63
516.334	5.81
516.683	5.81
517.032	5.71
517.38	5.68
517.729	5.81
518.077	5.73
518.426	5.58
518.774	5.57
519.122	5.54
519.47	5.62
519.819	5.61
520.167	5.53
520.515	5.43
520.863	5.61
521.211	5.69
521.559	5.78
521.907	5.87
522.255	5.78
522.602	5.9
522.95	5.81
523.298	5.71
523.645	5.78
523.993	5.87
524.341	5.92
524.688	5.81
525.036	5.76
525.383	5.86
525.73	5.74
526.078	5.67
526.425	5.68
526.772	5.7
527.119	5.56
527.466	5.43
527.814	5.62
528.161	5.71
528.508	5.78
528.854	5.78
529.201	5.7
529.548	5.55
529.895	5.37
530.242	5.22
530.588	5.26
530.935	5.47
531.282	5.68
531.628	5.96
531.975	6.04
532.321	5.95
532.667	6
533.014	5.99
533.36	5.98
533.706	5.86
534.052	5.72
534.399	5.66
534.745	5.49
535.091	5.45
535.437	5.56
535.783	5.72
536.129	5.97
536.474	6.13
536.82	6.08
537.166	6.03
537.512	5.95
537.857	5.88
538.203	5.67
538.549	5.61
538.894	5.72
539.239	5.97
539.585	5.96
539.93	6.12
540.276	6.01
540.621	6
540.966	6.01
541.311	5.81
541.656	5.88
542.001	5.73
542.346	5.75
542.691	5.6
543.036	5.46
543.381	5.52
543.726	5.75
544.071	5.93
544.415	6.04
544.76	6.07
545.105	5.94
545.449	6.05
545.794	6.03
546.138	6.18
546.483	6.14
546.827	6.17
547.171	5.94
547.516	6.09
547.86	6.11
548.204	5.91
548.548	5.95
548.892	6.01
549.236	6.02
549.58	6.11
549.924	6.25
550.268	6.35
550.612	6.27
550.956	6.47
551.3	6.09
551.643	6.19
551.987	6.25
552.33	6.19
552.674	6.18
553.017	6.33
553.361	6.16
553.704	6.19
554.048	5.89
554.391	6
554.734	6.02
555.077	6.1
555.42	6.22
555.764	6.2
556.107	6.35
556.45	6.36
556.793	6.35
557.135	6.38
557.478	6.23
557.821	6.33
558.164	6.15
558.507	6.22
558.849	6.29
559.192	6.13
559.534	6.27
559.877	6.22
560.219	6.09
560.562	6.14
560.904	6.2
561.246	6.23
561.589	6.39
561.931	6.11
562.273	6.29
562.615	6.1
562.957	6.26
563.299	6.31
563.641	6.17
563.983	6.37
564.325	6.57
564.667	6.37
565.008	6.33
565.35	6.42
565.692	6.58
566.033	6.28
566.375	6.23
566.716	6.36
567.058	6.13
567.399	6.11
567.741	6.23
568.082	6.33
568.423	6.21
568.764	6.24
569.105	6.33
569.447	6.35
569.788	6.51
570.129	6.4
570.47	6.63
570.811	6.54
571.151	6.4
571.492	6.39
571.833	6.34
572.174	6.34
572.514	6.35
572.855	6.14
573.195	6.29
573.536	6.16
573.876	6.29
574.217	6.14
574.557	6.22
574.898	6.4
575.238	6.55
575.578	6.47
575.918	6.4
576.258	6.32
576.598	6.29
576.938	6.35
577.278	6.38
577.618	6.47
577.958	6.35
578.298	6.47
578.638	6.48
578.977	6.62
579.317	6.29
579.657	6.59
579.996	6.6
580.336	6.5
580.675	6.34
581.014	6.46
581.354	6.51
581.693	6.5
582.032	6.47
582.372	6.43
582.711	6.4
583.05	6.41
583.389	6.4
583.728	6.62
584.067	6.6
584.406	6.47
584.745	6.49
585.083	6.64
585.422	6.44
585.761	6.68
586.1	6.85
586.438	6.63
586.777	6.76
587.115	6.51
587.454	6.61
587.792	6.5
588.13	6.67
588.469	6.58
588.807	6.59
589.145	6.61
589.483	6.68
589.821	6.59
590.159	6.43
590.497	6.81
590.835	6.75
591.173	6.65
591.511	6.53
591.849	6.57
592.187	6.69
592.524	6.88
592.862	6.64
593.2	6.69
593.537	6.43
593.875	6.47
594.212	6.96
594.55	6.76
594.887	6.64
595.224	6.7
595.561	6.67
595.899	6.97
596.236	6.74
596.573	6.59
596.91	6.67
597.247	6.85
597.584	6.46
597.921	6.6
598.258	6.52
598.594	6.31
598.931	6.42
599.268	6.57
599.604	6.61
599.941	6.82
600.277	7.04
600.614	7.04
600.95	6.78
601.287	6.9
601.623	6.61
601.959	6.61
602.296	6.73
602.632	6.73
602.968	6.67
603.304	6.7
603.64	6.73
603.976	6.67
604.312	6.93
604.648	6.83
604.984	6.5
605.319	6.44
605.655	6.81
605.991	6.79
606.326	6.62
606.662	6.62
606.998	6.67
607.333	6.92
607.668	6.84
608.004	6.97
608.339	7.03
608.674	7.03
609.01	6.83
609.345	6.85
609.68	7.01
610.015	7
610.35	6.67
610.685	6.5
611.02	6.79
611.355	6.72
611.689	6.62
612.024	6.99
612.359	6.76
612.694	6.97
613.028	6.76
613.363	7.13
613.697	6.94
614.032	7.06
614.366	6.94
614.7	6.92
615.035	6.46
615.369	7.27
615.703	7
616.037	7.32
616.371	6.94
616.705	6.92
617.039	7.16
617.373	7.38
617.707	7.11
618.041	7.02
618.375	6.7
618.709	7.34
619.042	7.16
619.376	7.06
619.71	7.09
620.043	6.95
620.377	7.37
620.71	7.24
621.043	7.24
621.377	7.36
621.71	7.06
622.043	7.09
622.376	7.13
622.709	7.16
623.043	7.04
623.376	6.8
623.709	7.1
624.041	6.96
624.374	7.38
624.707	6.91
625.04	6.95
625.373	7.28
625.705	6.86
626.038	6.57
626.37	7.16
626.703	7.35
627.035	7.16
627.368	6.83
627.7	7.19
628.032	7
628.365	6.83
628.697	7.07
629.029	7.16
629.361	7.31
629.693	7.34
630.025	7.06
630.357	7.27
630.689	7.08
631.021	7.28
631.353	6.99
631.684	7.32
632.016	7.13
632.348	7.4
632.679	7.23
633.011	6.9
633.342	7.35
633.674	7.51
634.005	6.81
634.336	7
634.668	7.18
634.999	6.97
635.33	7.25
635.661	7.13
635.992	7.42
636.323	7.46
636.654	7.31
636.985	7.31
637.316	7.39
637.647	7.38
637.977	7.23
638.308	7.48
638.639	7.19
638.969	7.4
639.3	7.12
639.63	7.47
639.961	7.54
640.291	7.07
640.622	7.73
640.952	7.48
641.282	7.55
641.612	7.31
641.943	7.18
642.273	7.33
642.603	7.42
642.933	7.28
643.263	7.28
643.592	7.12
643.922	7.16
644.252	7.28
644.582	7.84
644.911	8.1
645.241	7.33
645.571	6.94
645.9	7.48
646.23	6.85
646.559	7.39
646.888	7.49
647.218	6.91
647.547	7.52
647.876	7.53
648.205	6.86
648.534	7.53
648.863	7.55
649.192	7.25
649.521	7.2
649.85	6.95
650.179	7.76
650.508	7.39
650.837	7.26
651.165	7.91
651.494	7.97
651.822	7.68
652.151	7.17
652.479	7.61
652.808	7.38
653.136	7.79
653.465	7.22
653.793	7.34
654.121	7.44
654.449	7.5
654.777	7.17
655.105	7.23
655.433	7.65
655.761	7.62
656.089	7.38
656.417	7.23
656.745	6.78
657.073	7.61
657.4	7.43
657.728	7.72
658.056	7.02
658.383	7.72
658.711	7.65
659.038	7.43
659.365	7.41
659.693	7.44
660.02	7.35
660.347	7.89
660.674	7.36
661.001	7.55
661.329	7.46
661.656	7.63
661.982	7.47
662.309	7.84
662.636	8.11
662.963	7.53
663.29	7.59
663.616	7.76
663.943	7.73
664.27	7.8
664.596	7.58
664.923	7.33
665.249	7.78
665.576	7.28
665.902	7.12
666.228	7.84
666.554	7.99
666.881	7.73
667.207	7.97
667.533	8.38
667.859	7.72
668.185	7.36
668.511	7.63
668.837	7.27
669.162	7.85
669.488	7.36
669.814	8.01
670.139	7.68
670.465	7.87
670.791	8.23
671.116	8.05
671.442	7.87
671.767	8.01
672.092	7.51
672.418	7.8
672.743	7.39
673.068	8.04
673.393	8.03
673.718	7.59
674.043	7.56
674.368	7.35
674.693	7.79
675.018	7.84
675.343	8.28
675.667	7.41
675.992	7.68
676.317	7.47
676.641	7.84
676.966	7.67
677.29	7.2
677.615	7.73
677.939	8.01
678.264	7.4
678.588	8.07
678.912	7.65
679.236	8.81
679.56	7.64
679.885	8.34
680.209	8.17
680.532	7.92
680.856	7.9
681.18	7.5
681.504	7.99
681.828	8.22
682.152	8.04
682.475	8.11
682.799	8.33
683.122	7.48
683.446	7.86
683.769	7.85
684.093	7.53
684.416	8.37
684.739	7.63
685.062	8.24
685.386	8.01
685.709	7.8
686.032	8.65
686.355	7.69
686.678	7.82
687.001	7.5
687.324	8.32
687.646	6.9
687.969	7.47
688.292	8.73
688.614	8.35
688.937	8.31
689.26	8.32
689.582	7.49
689.904	8.75
690.227	8.78
690.549	8.75
690.871	8.58
691.194	7.66
691.516	8.61
691.838	8.26
692.16	7.89
692.482	8.49
692.804	8.54
693.126	8.76
693.448	8.25
693.769	8.44
694.091	8.12
694.413	7.31
694.735	8.07
695.056	8.3
695.378	7.95
695.699	8.25
696.021	8.03
696.342	7.8
696.663	8.47
696.984	8.2
697.306	7.77
697.627	7.9
697.948	8.48
698.269	8.18
698.59	7.96
698.911	8.39
699.232	8.11
699.553	7.99
699.873	8.21
700.194	8.56
700.515	8.63
700.835	8.68
701.156	8.13
701.477	8.26
701.797	8.23
702.117	8.75
702.438	8
702.758	8.25
703.078	8.74
703.398	9.29
703.719	7.79
704.039	8.27
704.359	8.95
704.679	8.36
704.999	8
705.319	8.82
705.638	8.14
705.958	8.44
706.278	7.83
706.597	7.57
706.917	7.99
707.237	7.76
707.556	9.28
707.876	7.35
708.195	8.44
708.514	8.25
708.834	7.8
709.153	7.8
709.472	8.53
709.791	9.18
710.11	8.34
710.429	7.33
710.748	8.46
711.067	8.42
711.386	8.35
711.705	9.78
712.023	8.55
712.342	9.45
712.661	8.92
712.979	8.28
713.298	8.2
713.616	8.14
713.935	8.24
714.253	8.54
714.572	8.4
714.89	8.31
715.208	8.76
715.526	9.31
715.844	8.23
716.162	8.71
716.48	8.52
716.798	8.87
717.116	8.74
717.434	7.75
717.752	8.3
718.069	9.43
718.387	9.06
718.705	7.8
719.022	8.92
719.34	9.05
719.657	9.33
719.975	8.58
720.292	8.34
720.609	9.21
720.927	9.07
721.244	7.4
721.561	8.06
721.878	7.78
722.195	9.03
722.512	8.32
722.829	9.15
723.146	9.71
723.463	9.73
723.779	7.65
724.096	8.89
724.413	9.71
724.729	8.88
725.046	8.8
725.362	9.94
725.679	8.1
725.995	7.95
726.311	8.2
726.628	9.53
726.944	9.03
727.26	8.66
727.576	8.43
727.892	9.71
728.208	7.83
728.524	7.56
728.84	9.24
729.156	7.61
729.472	8.32
729.787	9.22
730.103	7.96
730.419	9.32
730.734	10.26
731.05	7.95
731.365	9
731.681	10.28
731.996	7.48
732.311	7.84
732.626	7.36
732.942	8.78
733.257	8.73
733.572	9.62
733.887	9.45
734.202	8.71
734.517	10.46
734.832	8.4
735.146	8.3
735.461	8.92
735.776	8.88
736.091	9.31
736.405	9.4
736.72	9.05
737.034	8.1
737.349	8.98
737.663	9.32
737.977	8.84
738.292	9.06
738.606	9.55
738.92	9.58
739.234	7.59
739.548	7.8
739.862	9.26
740.176	7.81
740.49	9
740.804	9.61
741.117	9.74
741.431	8.19
741.745	10.1
742.058	9.08
742.372	10.39
742.685	8.3
742.999	7.89
743.312	10.56
743.626	10.56
743.939	7.81
744.252	8.53
744.565	5.84
744.878	8.31
745.191	9.08
745.505	8.71
745.817	9.58
746.13	10.77
746.443	8.61
746.756	9.5
747.069	9.39
747.381	8.42
747.694	7.3
748.007	10.57
748.319	8.52
748.632	9.49
748.944	8.52
749.256	9.33
749.569	7.5
749.881	7.17
750.193	8.77
750.505	9.58
750.817	7.66
751.129	7.61
751.441	10.51
751.753	10.24
752.065	10.86
752.377	11.11
752.689	8.64
753	9.25
753.312	10.21
753.624	8.59
753.935	8.7
754.247	9.51
754.558	9.73
754.869	9.42
755.181	9.76
755.492	10.11
755.803	10.22
756.114	9.05
756.425	8.73
756.736	8.63
757.047	8.42
757.358	8.5
757.669	8.69
757.98	9.07
758.291	8.32
758.601	10.98
758.912	9.58
759.223	8.33
759.533	10.5
759.844	11.09
760.154	9.69
760.464	9.6
760.775	9.37
761.085	10.12
761.395	9.48
761.705	8.8
762.016	10.32
762.326	10.38
762.636	8.9
762.945	9.12
763.255	9.42
763.565	11.07
763.875	9.88
764.185	9.97
764.494	11.33
764.804	10.85
765.113	9.59
765.423	9.49
765.732	9.68
766.042	10.06
766.351	9.54
766.66	9.55
766.97	9.58
767.279	10.62
767.588	10.02
767.897	11.26
768.206	9.1
768.515	9.76
768.824	9.21
769.133	8.56
769.441	10.5
769.75	8.64
770.059	11.67
770.367	8.24
770.676	8.89
770.984	7.99
771.293	9.59
771.601	10.14
771.91	9.26
772.218	11.47
772.526	10.34
772.834	10.81
773.142	10.23
773.45	11.18
773.758	9.69
774.066	8.92
774.374	10.16
774.682	11.8
774.99	8.26
775.298	11.6
775.605	5.74
775.913	8.9
776.22	11.11
776.528	10.56
776.835	7.59
777.143	8.5
777.45	10.24
777.757	8.56
778.065	10.12
778.372	10.84
778.679	9.81
778.986	7.95
779.293	10.38
779.6	7.34
779.907	10.59
780.214	9.19
780.52	6.72
780.827	8.94
781.134	7.86
781.44	5.03
781.747	7.51
782.053	10.35
782.36	8.24
782.666	12.55
782.973	8.03
783.279	7.12
783.585	6.58
783.891	9.12
784.197	6.4
784.503	8.05
784.809	8.84
785.115	8.39
785.421	9.01
785.727	8.05
786.033	8.96
786.339	14.14
786.644	11.1
786.95	8.38
787.255	11.78
787.561	8.45
787.866	8.81
788.172	6.56
788.477	10.15
788.782	13.49
789.088	10.23
789.393	12.08
789.698	9.78
790.003	10.34
790.308	6.74
790.613	7.81
790.918	10.83
791.223	10.79
791.527	7.44
791.832	11.33
792.137	9.11
792.441	11.59
792.746	11.86
793.05	11.72
793.355	8.84
793.659	7.85
793.963	8.87
794.268	10.54
794.572	9.65
794.876	4.85
795.18	14.33
795.484	11
795.788	4.97
796.092	8.8
796.396	8.68
796.7	5.9
797.004	11.44
797.307	5.54
797.611	4.87
797.915	8.62
798.218	7.81
798.522	11.81
798.825	9.14
799.128	12.71
799.432	11.1
799.735	11.94
800.038	2.7
800.341	8.53
800.644	13.24
800.947	7.29
801.25	9.55
801.553	10.06
801.856	5.67
802.159	15.75
802.462	4.71
802.764	11.57
803.067	9.19
803.37	8.95
803.672	8.74
803.975	11.54
804.277	10.66
804.579	10.08
804.882	8.06
805.184	9.63
805.486	6.41
805.788	8.15
806.09	12.05
806.392	7.05
806.694	12.23
806.996	10.76
807.298	10.85
807.6	13.7
807.902	8.97
808.203	4.6
808.505	5.28
808.807	6.61
809.108	13.3
809.409	9.7
809.711	8.47
810.012	14.72
810.313	10.03
810.615	11.05
810.916	9.3
811.217	7.77
811.518	3.1
811.819	11.9
812.12	10.29
812.421	4.91
812.722	7.16
813.023	12.48
813.323	10.23
813.624	4.91
813.925	10.8
814.225	2.14
814.526	9.58
814.826	13.11
815.126	2.6
815.427	7.47
815.727	9.72
816.027	17.22
816.327	5.5
816.627	9.15
816.927	6.56
817.227	9.34
817.527	10.1
817.827	9.7
818.127	10.18
818.427	15.8
818.727	8.42
819.026	9.9
819.326	12.53
819.625	14.28
819.925	11
820.224	12.77
820.524	7.9
820.823	12.04
821.122	10.68
821.421	9.15
821.72	14.68
822.019	13.82
822.318	7.28
822.617	7.5
822.916	9.91
823.215	10.38
823.514	9.15
823.813	12.09
824.111	9.78
824.41	11.75
824.709	11.91
825.007	12.79
825.306	12.25
825.604	11.86
825.902	12.22
826.201	11.86
826.499	13.74
826.797	13.19
827.095	13.51
827.393	14.08
827.691	11.29
827.989	12.09
828.287	11.21
828.585	14.34
828.882	12.57
829.18	12.11
829.478	13.48
829.775	13.86
830.073	12.79
830.37	11.84
830.668	13.42
830.965	10.66
831.263	13.66
831.56	14.28
831.857	13.51
832.154	9.85
832.451	10.46
832.748	10.68
833.045	9.33
833.342	12.85
833.639	9.76
833.936	8.52
834.232	14.22
834.529	8.34
834.826	9.01
835.122	12.28
835.419	10.76
835.715	11.42
836.012	13.87
836.308	8.15
836.604	13.98
836.901	13.74
837.197	11.91
837.493	13.25
837.789	11.45
838.085	11.79
838.381	13.27
838.677	13.33
838.972	16.37
839.268	11.92
839.564	15.37
839.86	16.3
840.155	11.6
840.451	7.4
840.746	6.64
841.042	12.87
841.337	2.33
841.632	12.46
841.928	4.75
842.223	1.76
842.518	4.28
842.813	5.45
843.108	8.09
843.403	5.06
843.698	13.43
843.993	3.06
844.287	11.35
844.582	14.87
844.877	15.09
845.171	3.89
845.466	-2.07
845.761	7.53
846.055	7.71
846.349	-10.29
846.644	-5.93
846.938	-5.2
847.232	13.61
847.526	12.57
847.82	0.24
848.114	-4.14
848.408	18.24
848.702	0.34
848.996	-11.62
849.29	-8.63
849.584	-5.91
849.877	-2.69
850.171	-12.54
850.465	-7.51
850.758	4.86
851.052	5.78
851.345	30.21
851.638	31.49
851.932	-7.84
852.225	3.75
852.518	2.74
852.811	28.65
853.104	-0.75
853.397	8.1
853.69	4.84
853.983	-21.03
854.276	7.97
854.569	18.49
854.861	-24.92
855.154	18.05
855.447	14.41
855.739	9.2
856.032	18.77
856.324	-24.1
856.616	12.71
856.909	5.92
857.201	-0.17
857.493	3.52
857.785	-0.69
858.077	-1.95
858.369	-10
858.661	-27.39
858.953	-10.18
859.245	13.3
859.537	2.28
859.829	-4.58
860.12	6.24
860.412	2.47
860.703	-12.21
860.995	13.96
861.286	1.29
861.578	-4.31
861.869	2.28
862.16	22.84
862.452	5.91
862.743	3.44
863.034	6.08
863.325	7.31
863.616	1.47
863.907	-14.01
864.198	-13.86
864.488	6.85
864.779	20.34
865.07	10.23
865.36	0.87
865.651	12.68
865.941	0.01
866.232	-10.25
866.522	-8.82
866.813	6.38
867.103	-1.67
867.393	-29.33
867.683	17.9
867.973	-14.36
868.263	1.87
868.553	1.71
868.843	-2.92
869.133	8.62
869.423	3.81
869.713	24
870.002	36.31
870.292	-35.23
870.582	22.37
870.871	15.05
871.161	-0.92
871.45	1.13
871.739	-1.76
872.029	-4.36
872.318	-0.15
872.607	13.84
872.896	-8.94
873.185	-38.77
873.474	6.82
873.763	-1.56
874.052	7.22
874.341	7.13
874.63	-2.19
874.918	24.21
875.207	12.44
875.496	-3.83
875.784	19.69
876.073	-3.98
876.361	16.62
876.649	12.36
876.938	16.69
877.226	3.19
877.514	3.26
877.802	-10.07
878.09	0.1
878.378	2.39
878.666	7.29
878.954	-29.49
879.242	-36.38
879.53	-9.49
879.817	-28.74
880.105	5.94
880.392	11.25
880.68	2.97
880.967	12.01
881.255	-13.75
881.542	4.07
881.83	-0.06
882.117	25.04
882.404	24.61
882.691	3.53
882.978	16.6
883.265	-6.56
883.552	4.99
883.839	18.09
884.126	7.14
884.413	15.65
884.699	10.44
884.986	13.69
885.273	16.39
885.559	16.39
885.846	16.39
