Data from 0018_chest_Reflection__3__84.txt Node

Date: Mon Oct 17 15:06:31 CDT 2022
User: ToomeyLab
Spectrometer: FLMS14357
Trigger mode: 0
Integration Time (sec): 1.000000E-2
Scans to average: 100
Electric dark correction enabled: true
Nonlinearity correction enabled: false
Boxcar width: 0
XAxis mode: Wavelengths
Number of Pixels in Spectrum: 2048
>>>>>Begin Spectral Data<<<<<
189.047	-203.23
189.435	-203.23
189.823	-203.23
190.211	119.36
190.599	-185.41
190.987	59.27
191.375	237.27
191.763	-119.34
192.151	442.08
192.538	-179.35
192.926	191.24
193.314	277.51
193.702	-21.85
194.089	-16.63
194.477	189.63
194.864	170.42
195.252	210.71
195.639	-27.85
196.027	180.31
196.414	199.33
196.801	-4.41
197.189	89.83
197.576	83.29
197.963	-384.33
198.351	-1270.5
198.738	23.06
199.125	-54.21
199.512	-55.36
199.899	37.81
200.286	-14.76
200.673	-13.71
201.06	-24.24
201.447	4.1
201.833	36.9
202.22	27.25
202.607	-15.2
202.994	-7.1
203.38	-10.32
203.767	42.82
204.154	19.57
204.54	2.38
204.927	2.45
205.313	-33.39
205.699	34.55
206.086	-60.61
206.472	12.69
206.858	-18.27
207.245	-0.38
207.631	26.2
208.017	20.56
208.403	27.25
208.789	9.43
209.175	24.14
209.561	-56.31
209.947	-18.85
210.333	11.24
210.719	18.8
211.105	16.44
211.491	0.03
211.876	-23.96
212.262	12.13
212.648	-17.93
213.034	-49.11
213.419	-5.32
213.805	-9.08
214.19	17.99
214.576	-18.96
214.961	-54.27
215.346	4.05
215.732	-25.05
216.117	9.12
216.502	-2.68
216.888	-0.73
217.273	9.98
217.658	28.72
218.043	-1.75
218.428	-8.04
218.813	13.67
219.198	10.99
219.583	1.96
219.968	19.05
220.353	-9.31
220.738	0.89
221.122	-3.38
221.507	-1.36
221.892	9.32
222.276	-12.27
222.661	-5.84
223.046	6.02
223.43	7.43
223.815	-11.41
224.199	4.23
224.583	-18.16
224.968	-0.16
225.352	-19.53
225.736	-4.17
226.121	-16.57
226.505	-3.07
226.889	0.25
227.273	3.17
227.657	0.3
228.041	2.82
228.425	2.1
228.809	0.57
229.193	0.56
229.577	1.9
229.961	2.79
230.344	1.64
230.728	1.54
231.112	2.24
231.495	2.82
231.879	1.44
232.263	2.24
232.646	3.25
233.03	2.13
233.413	-0.67
233.797	1.68
234.18	3.28
234.563	-2.02
234.946	3.86
235.33	3.67
235.713	0.86
236.096	2.98
236.479	1.41
236.862	1.74
237.245	1.01
237.628	0.82
238.011	2.2
238.394	1.81
238.777	1.79
239.16	2.29
239.543	1.34
239.925	2.88
240.308	1.54
240.691	-0.07
241.073	2.97
241.456	1.81
241.838	3.79
242.221	1.99
242.603	2.55
242.986	2.12
243.368	3.08
243.75	2.51
244.133	2.68
244.515	2.71
244.897	2.59
245.279	3.49
245.661	3.02
246.043	3.29
246.425	1.55
246.807	1.17
247.189	2.38
247.571	2.44
247.953	2.67
248.335	2.75
248.717	2.88
249.098	2.9
249.48	2.55
249.862	2.47
250.243	2.36
250.625	3.04
251.006	2.62
251.388	2.21
251.769	2.36
252.151	2.33
252.532	2.52
252.913	3
253.295	1.63
253.676	2.95
254.057	3
254.438	2.79
254.819	3.48
255.2	3.29
255.581	2.78
255.962	3.01
256.343	1.99
256.724	1.95
257.105	1.65
257.486	1.08
257.867	1.22
258.247	2.22
258.628	2.72
259.009	2.87
259.389	2.64
259.77	2.51
260.15	2.69
260.531	2.47
260.911	2.51
261.292	2.64
261.672	2.57
262.052	2.67
262.432	2.49
262.813	2.63
263.193	2.63
263.573	2.7
263.953	2.16
264.333	2.26
264.713	1.65
265.093	2.41
265.473	2.21
265.853	2.05
266.233	3.03
266.612	2.72
266.992	2.52
267.372	2.66
267.752	2.57
268.131	3.69
268.511	2.6
268.89	2.64
269.27	2.51
269.649	2.53
270.029	2.39
270.408	2.79
270.787	2.27
271.167	2.22
271.546	3.01
271.925	2.11
272.304	2.31
272.683	2.42
273.062	2.47
273.441	2.72
273.82	2.53
274.199	3.05
274.578	2.46
274.957	2.42
275.336	2.59
275.715	2.28
276.093	2.3
276.472	1.88
276.851	3.26
277.229	1.99
277.608	2.48
277.986	2.64
278.365	2.35
278.743	2.86
279.122	2.24
279.5	2.7
279.878	2.72
280.257	2.45
280.635	2.5
281.013	2.77
281.391	2.26
281.769	2.22
282.147	2.37
282.525	2.63
282.903	2.02
283.281	2.05
283.659	2.22
284.037	2.04
284.415	2.63
284.792	2.19
285.17	2.05
285.548	1.55
285.925	2.61
286.303	2.7
286.68	2.7
287.058	2.78
287.435	2.83
287.813	2.26
288.19	2.26
288.567	2.32
288.945	2.81
289.322	2.8
289.699	2.68
290.076	2.52
290.453	2.26
290.83	2.65
291.207	2.46
291.584	2.14
291.961	2.3
292.338	2.6
292.715	2.98
293.092	2.66
293.469	2.33
293.845	3.16
294.222	3.09
294.599	2.61
294.975	2.34
295.352	2
295.728	2.48
296.105	2.45
296.481	2.74
296.858	3.16
297.234	2.71
297.61	2.54
297.986	2.62
298.363	2.58
298.739	2.97
299.115	2.6
299.491	2.82
299.867	2.98
300.243	2.95
300.619	2.39
300.995	2.69
301.371	3.01
301.746	3.08
302.122	2.69
302.498	2.92
302.874	3.22
303.249	3.03
303.625	3.48
304	3.19
304.376	3.11
304.751	3.42
305.127	3.26
305.502	2.99
305.878	3.01
306.253	3.1
306.628	3.26
307.003	3.03
307.378	3.25
307.754	2.6
308.129	3.12
308.504	2.87
308.879	3.27
309.254	3.21
309.629	3.07
310.003	3.62
310.378	3.12
310.753	2.87
311.128	3.12
311.502	3.19
311.877	3.41
312.252	2.96
312.626	3.24
313.001	2.95
313.375	2.94
313.75	3.47
314.124	3.26
314.498	3.3
314.873	3.07
315.247	3.27
315.621	3.83
315.995	3.31
316.369	3.02
316.743	3.4
317.117	3.49
317.491	3.49
317.865	3.41
318.239	3.91
318.613	3.49
318.987	3.21
319.361	3.28
319.734	3.17
320.108	3.14
320.482	3.14
320.855	3.71
321.229	3.28
321.602	3.43
321.976	2.99
322.349	3.28
322.723	3.76
323.096	2.99
323.469	3.13
323.843	3.62
324.216	3.37
324.589	2.84
324.962	3.03
325.335	3.08
325.708	3.6
326.081	3.27
326.454	3.76
326.827	3.9
327.2	3.4
327.573	3.67
327.945	3.43
328.318	3.17
328.691	3.23
329.063	3.34
329.436	3.48
329.809	3.46
330.181	3.9
330.553	3.52
330.926	3.75
331.298	3.34
331.671	3.88
332.043	3.36
332.415	3.6
332.787	3.7
333.159	3.41
333.532	3.14
333.904	3.08
334.276	3.53
334.648	3.61
335.02	3.96
335.391	3.57
335.763	3.42
336.135	3.65
336.507	3.96
336.879	3.85
337.25	3.91
337.622	3.67
337.993	3.35
338.365	3.4
338.736	3.73
339.108	3.75
339.479	3.48
339.851	4.04
340.222	3.37
340.593	3.66
340.964	3.81
341.336	3.76
341.707	3.69
342.078	3.52
342.449	3.63
342.82	3.62
343.191	3.67
343.562	3.52
343.933	3.57
344.303	3.26
344.674	4.22
345.045	3.8
345.416	3.61
345.786	3.74
346.157	4.02
346.527	3.61
346.898	3.8
347.268	3.97
347.639	3.73
348.009	3.6
348.38	3.79
348.75	3.84
349.12	3.83
349.49	3.28
349.861	4.06
350.231	3.65
350.601	3.83
350.971	3.54
351.341	3.54
351.711	3.56
352.081	3.84
352.45	4.03
352.82	3.81
353.19	3.83
353.56	3.55
353.929	3.91
354.299	3.86
354.669	4.02
355.038	3.66
355.408	3.78
355.777	3.29
356.147	3.76
356.516	3.55
356.885	3.69
357.254	3.91
357.624	4.04
357.993	3.8
358.362	3.77
358.731	3.56
359.1	3.49
359.469	3.99
359.838	4.05
360.207	3.71
360.576	3.7
360.945	3.85
361.314	4
361.682	3.97
362.051	3.8
362.42	3.78
362.788	3.7
363.157	3.78
363.525	3.78
363.894	3.92
364.262	3.8
364.631	3.76
364.999	3.91
365.367	3.61
365.735	3.95
366.104	3.78
366.472	3.68
366.84	3.9
367.208	3.86
367.576	4.13
367.944	3.57
368.312	4.15
368.68	3.81
369.048	3.9
369.416	3.72
369.783	4.22
370.151	3.83
370.519	3.86
370.886	4.02
371.254	3.81
371.621	3.77
371.989	4.22
372.356	3.9
372.724	4.03
373.091	4.12
373.458	3.74
373.826	4.02
374.193	4.37
374.56	3.84
374.927	3.71
375.294	3.74
375.661	3.92
376.028	4.1
376.395	3.96
376.762	4.09
377.129	3.86
377.496	3.75
377.863	3.95
378.229	3.84
378.596	3.98
378.963	4.06
379.329	3.69
379.696	4.07
380.062	3.97
380.429	3.71
380.795	4.25
381.161	4.26
381.528	4
381.894	3.88
382.26	3.97
382.626	4.04
382.993	3.92
383.359	4.12
383.725	4.08
384.091	3.81
384.457	4.11
384.823	3.65
385.188	3.83
385.554	3.92
385.92	4.04
386.286	4.05
386.651	4.14
387.017	3.82
387.383	4.02
387.748	3.85
388.114	4
388.479	4.2
388.845	4.21
389.21	4.04
389.575	4
389.94	4.03
390.306	4.03
390.671	4.24
391.036	4.25
391.401	3.88
391.766	3.9
392.131	4.04
392.496	4.01
392.861	4.12
393.226	3.98
393.591	3.89
393.956	3.97
394.32	4.19
394.685	4.05
395.05	4.04
395.414	4.22
395.779	4.24
396.143	4.11
396.508	4.22
396.872	4.07
397.236	4.18
397.601	3.98
397.965	3.8
398.329	4.18
398.694	4.15
399.058	4.21
399.422	4.26
399.786	4.22
400.15	4.19
400.514	3.99
400.878	4.25
401.242	4.09
401.605	4.3
401.969	4.26
402.333	3.99
402.697	3.98
403.06	4.23
403.424	4.27
403.787	4.07
404.151	4.23
404.514	4.16
404.878	4.19
405.241	4.34
405.604	4.38
405.968	4.33
406.331	4.06
406.694	4.07
407.057	4.09
407.42	3.94
407.783	4.37
408.146	4.34
408.509	4.47
408.872	4.19
409.235	4.17
409.598	4.08
409.961	3.9
410.323	4.23
410.686	4.15
411.049	3.99
411.411	4.46
411.774	4.22
412.136	4.04
412.499	4.3
412.861	4.27
413.223	4.04
413.586	4.14
413.948	4.44
414.31	4.05
414.672	4.28
415.035	4.13
415.397	4.39
415.759	4.24
416.121	4.12
416.483	4.27
416.845	4.23
417.206	4.2
417.568	4.04
417.93	4.18
418.292	4.49
418.653	4.13
419.015	4.22
419.377	4.16
419.738	4.14
420.1	4.15
420.461	4.11
420.822	4.34
421.184	4.02
421.545	4.21
421.906	4.14
422.267	4.32
422.629	4.22
422.99	4.16
423.351	4.16
423.712	4.2
424.073	4.33
424.434	4.16
424.795	4.31
425.155	4.24
425.516	4.13
425.877	4.19
426.238	4.24
426.598	4.18
426.959	4.24
427.32	4.32
427.68	4.26
428.041	4.25
428.401	4.39
428.761	4.37
429.122	4.36
429.482	4.23
429.842	4.23
430.202	4.51
430.563	4.23
430.923	4.3
431.283	4.68
431.643	4.37
432.003	4.33
432.363	4.47
432.722	4.49
433.082	4.37
433.442	4.5
433.802	4.34
434.161	4.39
434.521	4.51
434.881	4.44
435.24	4.26
435.6	4.46
435.959	4.28
436.319	4.45
436.678	4.37
437.037	4.46
437.396	4.42
437.756	4.58
438.115	4.2
438.474	4.28
438.833	4.2
439.192	4.39
439.551	4.27
439.91	4.46
440.269	4.43
440.628	4.38
440.987	4.41
441.345	4.44
441.704	4.36
442.063	4.29
442.421	4.36
442.78	4.38
443.138	4.46
443.497	4.53
443.855	4.46
444.214	4.41
444.572	4.44
444.93	4.48
445.288	4.51
445.647	4.43
446.005	4.6
446.363	4.6
446.721	4.41
447.079	4.36
447.437	4.41
447.795	4.48
448.153	4.53
448.51	4.42
448.868	4.52
449.226	4.48
449.584	4.54
449.941	4.55
450.299	4.57
450.656	4.39
451.014	4.5
451.371	4.67
451.729	4.57
452.086	4.55
452.443	4.7
452.801	4.65
453.158	4.7
453.515	4.38
453.872	4.65
454.229	4.45
454.586	4.57
454.943	4.61
455.3	4.54
455.657	4.65
456.014	4.49
456.371	4.62
456.727	4.59
457.084	4.58
457.441	4.54
457.797	4.66
458.154	4.69
458.51	4.61
458.867	4.74
459.223	4.67
459.58	4.63
459.936	4.59
460.292	4.64
460.648	4.6
461.005	4.58
461.361	4.54
461.717	4.55
462.073	4.45
462.429	4.49
462.785	4.61
463.141	4.7
463.496	4.65
463.852	4.89
464.208	4.71
464.564	4.78
464.919	4.65
465.275	4.59
465.631	4.59
465.986	4.67
466.342	4.78
466.697	4.66
467.052	4.73
467.408	4.54
467.763	4.53
468.118	4.88
468.473	4.74
468.829	4.67
469.184	4.67
469.539	4.6
469.894	4.7
470.249	4.77
470.603	4.84
470.958	4.78
471.313	4.67
471.668	4.78
472.023	4.83
472.377	4.85
472.732	4.66
473.086	4.8
473.441	4.84
473.795	4.92
474.15	4.63
474.504	4.89
474.859	4.7
475.213	4.87
475.567	4.97
475.921	4.6
476.275	4.67
476.63	4.82
476.984	4.67
477.338	4.87
477.692	4.83
478.045	4.98
478.399	4.94
478.753	4.86
479.107	4.88
479.461	4.91
479.814	4.82
480.168	4.64
480.521	4.89
480.875	4.83
481.228	4.82
481.582	4.9
481.935	4.92
482.289	4.76
482.642	4.84
482.995	4.96
483.348	4.95
483.701	4.83
484.055	4.78
484.408	4.88
484.761	4.8
485.114	4.64
485.466	4.59
485.819	4.62
486.172	4.65
486.525	4.66
486.878	4.66
487.23	4.77
487.583	4.85
487.936	4.83
488.288	4.86
488.641	4.78
488.993	4.74
489.345	4.69
489.698	4.7
490.05	4.71
490.402	4.78
490.754	4.78
491.107	4.82
491.459	4.87
491.811	4.99
492.163	4.92
492.515	4.9
492.866	4.82
493.218	4.88
493.57	4.82
493.922	4.83
494.274	4.9
494.625	4.94
494.977	4.9
495.328	5.02
495.68	5.15
496.031	5.17
496.383	5.13
496.734	5.16
497.086	5.09
497.437	5.01
497.788	5.11
498.139	5.06
498.49	5.07
498.842	5.09
499.193	5.06
499.544	5.05
499.894	5.12
500.245	5.07
500.596	5.03
500.947	5.29
501.298	5.17
501.648	5.21
501.999	5.08
502.35	5.39
502.7	5.24
503.051	5.26
503.401	5.39
503.752	5.28
504.102	5.26
504.452	5.27
504.803	5.32
505.153	5.29
505.503	5.32
505.853	5.33
506.203	5.17
506.553	5.26
506.903	5.34
507.253	5.25
507.603	5.37
507.953	5.34
508.303	5.26
508.652	5.41
509.002	5.35
509.352	5.33
509.701	5.36
510.051	5.4
510.4	5.24
510.75	5.45
511.099	5.38
511.449	5.38
511.798	5.42
512.147	5.36
512.496	5.5
512.846	5.36
513.195	5.38
513.544	5.5
513.893	5.37
514.242	5.53
514.591	5.35
514.939	5.44
515.288	5.47
515.637	5.48
515.986	5.53
516.334	5.64
516.683	5.67
517.032	5.47
517.38	5.58
517.729	5.66
518.077	5.55
518.426	5.54
518.774	5.53
519.122	5.6
519.47	5.62
519.819	5.64
520.167	5.52
520.515	5.5
520.863	5.6
521.211	5.59
521.559	5.59
521.907	5.62
522.255	5.68
522.602	5.72
522.95	5.72
523.298	5.59
523.645	5.75
523.993	5.77
524.341	5.85
524.688	5.73
525.036	5.81
525.383	5.85
525.73	5.76
526.078	5.74
526.425	5.67
526.772	5.68
527.119	5.72
527.466	5.56
527.814	5.65
528.161	5.73
528.508	5.71
528.854	5.64
529.201	5.7
529.548	5.72
529.895	5.63
530.242	5.59
530.588	5.51
530.935	5.6
531.282	5.61
531.628	5.7
531.975	5.74
532.321	5.68
532.667	5.85
533.014	5.96
533.36	5.93
533.706	5.99
534.052	5.9
534.399	5.83
534.745	5.8
535.091	5.84
535.437	5.86
535.783	5.85
536.129	5.94
536.474	5.95
536.82	6.04
537.166	5.98
537.512	6.02
537.857	6.07
538.203	6.03
538.549	6.02
538.894	6.06
539.239	6.13
539.585	6.05
539.93	6.12
540.276	6.15
540.621	6.1
540.966	6.09
541.311	6.04
541.656	6.26
542.001	6.28
542.346	6.22
542.691	6.17
543.036	6.03
543.381	6.13
543.726	6.11
544.071	6.11
544.415	6.17
544.76	6.17
545.105	6.13
545.449	6.39
545.794	6.28
546.138	6.44
546.483	6.39
546.827	6.47
547.171	6.36
547.516	6.47
547.86	6.5
548.204	6.49
548.548	6.43
548.892	6.49
549.236	6.53
549.58	6.6
549.924	6.63
550.268	6.72
550.612	6.62
550.956	6.67
551.3	6.7
551.643	6.76
551.987	6.77
552.33	6.76
552.674	6.72
553.017	6.89
553.361	6.8
553.704	6.74
554.048	6.75
554.391	6.68
554.734	6.89
555.077	6.82
555.42	6.91
555.764	6.85
556.107	6.83
556.45	6.8
556.793	7.11
557.135	7.21
557.478	6.87
557.821	7.17
558.164	7.11
558.507	6.99
558.849	7.16
559.192	7.05
559.534	6.98
559.877	7.25
560.219	6.93
560.562	6.89
560.904	7.06
561.246	7.26
561.589	7.1
561.931	7.28
562.273	7.26
562.615	7.15
562.957	7.37
563.299	7.35
563.641	7.33
563.983	7.23
564.325	7.56
564.667	7.5
565.008	7.5
565.35	7.17
565.692	7.53
566.033	7.35
566.375	7.37
566.716	7.53
567.058	7.52
567.399	7.34
567.741	7.48
568.082	7.58
568.423	7.42
568.764	7.39
569.105	7.55
569.447	7.52
569.788	7.61
570.129	7.71
570.47	7.65
570.811	7.78
571.151	7.75
571.492	7.88
571.833	7.8
572.174	7.85
572.514	7.73
572.855	7.82
573.195	7.88
573.536	7.77
573.876	7.64
574.217	7.76
574.557	7.72
574.898	7.75
575.238	7.94
575.578	8
575.918	8.03
576.258	8.04
576.598	8.02
576.938	8.03
577.278	8.26
577.618	8.06
577.958	8.14
578.298	8.14
578.638	8.1
578.977	8.32
579.317	8.1
579.657	7.97
579.996	8.23
580.336	8.38
580.675	8.43
581.014	8.19
581.354	8.37
581.693	8.44
582.032	8.38
582.372	8.27
582.711	8.29
583.05	8.41
583.389	8.45
583.728	8.63
584.067	8.38
584.406	8.62
584.745	8.63
585.083	8.48
585.422	8.86
585.761	8.56
586.1	8.6
586.438	8.88
586.777	8.91
587.115	8.66
587.454	8.56
587.792	8.93
588.13	8.77
588.469	8.92
588.807	8.92
589.145	8.83
589.483	8.68
589.821	8.81
590.159	8.87
590.497	9.04
590.835	8.82
591.173	8.91
591.511	8.97
591.849	8.9
592.187	9.13
592.524	9.18
592.862	9.04
593.2	9.03
593.537	9.18
593.875	9.28
594.212	9.41
594.55	9.23
594.887	9.14
595.224	9.37
595.561	9.09
595.899	9.58
596.236	9.65
596.573	9.3
596.91	9.52
597.247	9.4
597.584	9.4
597.921	9.5
598.258	9.56
598.594	9.38
598.931	9.4
599.268	9.33
599.604	9.55
599.941	9.66
600.277	9.65
600.614	9.71
600.95	9.75
601.287	9.6
601.623	9.66
601.959	9.72
602.296	9.71
602.632	9.69
602.968	9.99
603.304	9.89
603.64	9.87
603.976	10.02
604.312	9.98
604.648	9.91
604.984	9.98
605.319	9.84
605.655	9.92
605.991	10.09
606.326	10.02
606.662	9.88
606.998	9.96
607.333	9.95
607.668	9.95
608.004	10
608.339	10.17
608.674	10.17
609.01	10.27
609.345	10.38
609.68	10.46
610.015	10.44
610.35	10.11
610.685	9.91
611.02	10.31
611.355	10.29
611.689	10.33
612.024	10.49
612.359	10.44
612.694	10.4
613.028	10.57
613.363	10.63
613.697	10.23
614.032	10.73
614.366	10.33
614.7	10.76
615.035	10.86
615.369	10.8
615.703	10.6
616.037	10.92
616.371	10.9
616.705	11
617.039	11.13
617.373	11.05
617.707	11.15
618.041	11.07
618.375	10.57
618.709	10.84
619.042	11.25
619.376	11.22
619.71	11.09
620.043	11.03
620.377	11.05
620.71	10.75
621.043	11.38
621.377	11.33
621.71	11.36
622.043	11.52
622.376	11.45
622.709	11.13
623.043	11.43
623.376	10.95
623.709	11.43
624.041	11.26
624.374	11.41
624.707	11.24
625.04	11.39
625.373	11.75
625.705	11.2
626.038	10.88
626.37	11.79
626.703	11.88
627.035	11.38
627.368	11.38
627.7	11.73
628.032	11.7
628.365	11.51
628.697	11.76
629.029	11.72
629.361	11.8
629.693	11.63
630.025	11.59
630.357	11.34
630.689	11.4
631.021	11.69
631.353	11.69
631.684	11.54
632.016	11.79
632.348	12.24
632.679	11.96
633.011	11.67
633.342	11.95
633.674	12.23
634.005	11.95
634.336	11.95
634.668	11.99
634.999	11.91
635.33	12.2
635.661	12.53
635.992	12.03
636.323	12.23
636.654	12.23
636.985	12.17
637.316	12.12
637.647	12.23
637.977	12.54
638.308	12.26
638.639	12.36
638.969	12.4
639.3	12.19
639.63	12.79
639.961	12.52
640.291	12.77
640.622	12.39
640.952	12.32
641.282	12.87
641.612	12.78
641.943	13.16
642.273	12.47
642.603	12.59
642.933	12.68
643.263	13.17
643.592	13.04
643.922	13
644.252	12.78
644.582	13.05
644.911	13.01
645.241	13.32
645.571	12.68
645.9	12.96
646.23	12.71
646.559	12.63
646.888	12.75
647.218	12.9
647.547	13.03
647.876	13.42
648.205	13.17
648.534	12.89
648.863	12.94
649.192	13.43
649.521	13.05
649.85	13.28
650.179	13.41
650.508	12.9
650.837	13.11
651.165	13.57
651.494	12.99
651.822	13.33
652.151	13.37
652.479	13.93
652.808	12.87
653.136	13.67
653.465	13.39
653.793	13.32
654.121	13.39
654.449	13.56
654.777	13.44
655.105	13.31
655.433	13.67
655.761	13.99
656.089	13.74
656.417	13.55
656.745	13.85
657.073	14.29
657.4	13.96
657.728	13.88
658.056	13.31
658.383	14.04
658.711	13.87
659.038	13.62
659.365	13.69
659.693	13.77
660.02	13.5
660.347	13.92
660.674	14.06
661.001	13.82
661.329	14.1
661.656	14.3
661.982	14.32
662.309	14.28
662.636	14.13
662.963	14.17
663.29	14.1
663.616	14.07
663.943	14.31
664.27	14.38
664.596	14.04
664.923	14.21
665.249	13.95
665.576	14.72
665.902	14.18
666.228	14.26
666.554	14.3
666.881	14.27
667.207	14.7
667.533	14.79
667.859	14.46
668.185	14.83
668.511	14.57
668.837	14.54
669.162	14.97
669.488	14.8
669.814	15.29
670.139	14.73
670.465	14.54
670.791	14.96
671.116	14.9
671.442	14.76
671.767	15.14
672.092	14.99
672.418	14.85
672.743	14.63
673.068	14.87
673.393	14.9
673.718	14.87
674.043	14.56
674.368	14.78
674.693	15.14
675.018	15.38
675.343	15.75
675.667	15.13
675.992	15.01
676.317	15.17
676.641	15.27
676.966	15.42
677.29	15.83
677.615	14.95
677.939	15.73
678.264	14.95
678.588	15.64
678.912	15.52
679.236	16
679.56	15.09
679.885	15.19
680.209	15.76
680.532	15.06
680.856	15.37
681.18	15.28
681.504	15.82
681.828	15.62
682.152	15.64
682.475	15.78
682.799	15.53
683.122	15.61
683.446	15.72
683.769	15.22
684.093	14.9
684.416	15.81
684.739	15.29
685.062	16.4
685.386	15.99
685.709	15.37
686.032	15.67
686.355	15.52
686.678	16.19
687.001	15.96
687.324	16.18
687.646	15.26
687.969	15.82
688.292	15.87
688.614	16
688.937	15.98
689.26	16.27
689.582	16.93
689.904	16.42
690.227	16.43
690.549	16.38
690.871	15.84
691.194	15.77
691.516	16.16
691.838	16.95
692.16	16.36
692.482	16.09
692.804	16.32
693.126	16.68
693.448	16.88
693.769	17.57
694.091	16.24
694.413	16.53
694.735	16.44
695.056	16.28
695.378	16.8
695.699	16.38
696.021	16.73
696.342	17.15
696.663	17.24
696.984	16.13
697.306	16.48
697.627	16.19
697.948	16.45
698.269	16.32
698.59	17.36
698.911	16.1
699.232	16.9
699.553	16.59
699.873	16.83
700.194	16.73
700.515	17.31
700.835	16.43
701.156	16.07
701.477	16.93
701.797	16.82
702.117	17.5
702.438	17.56
702.758	17.21
703.078	16.62
703.398	17.4
703.719	17.04
704.039	17.25
704.359	17.45
704.679	16.9
704.999	17.79
705.319	17.41
705.638	17.04
705.958	17.71
706.278	17.24
706.597	17.42
706.917	17.71
707.237	17.34
707.556	17.21
707.876	16.69
708.195	17.3
708.514	18.15
708.834	18.03
709.153	17.25
709.472	18.33
709.791	16.6
710.11	17.39
710.429	17.69
710.748	16.85
711.067	17.09
711.386	17.71
711.705	17.8
712.023	18.49
712.342	18.25
712.661	18.41
712.979	17.13
713.298	17.55
713.616	17.05
713.935	17.98
714.253	17.18
714.572	18.02
714.89	17.89
715.208	18.53
715.526	18.07
715.844	17.53
716.162	19.79
716.48	18.09
716.798	17.85
717.116	18.37
717.434	17.81
717.752	17.41
718.069	18.01
718.387	17.96
718.705	18.5
719.022	18.23
719.34	18.34
719.657	18.62
719.975	18.14
720.292	18.17
720.609	18.98
720.927	19.15
721.244	17.35
721.561	17.84
721.878	18.06
722.195	19.66
722.512	17.6
722.829	19.31
723.146	17.53
723.463	18.96
723.779	17.45
724.096	18.59
724.413	20.17
724.729	18.4
725.046	18.56
725.362	18.48
725.679	17.78
725.995	17
726.311	18.07
726.628	18.33
726.944	17.74
727.26	19.9
727.576	18.85
727.892	18.21
728.208	18.76
728.524	18.24
728.84	19.35
729.156	19.37
729.472	18.97
729.787	19.28
730.103	19.1
730.419	19.75
730.734	20.37
731.05	19.57
731.365	19.8
731.681	19.35
731.996	19.08
732.311	18.9
732.626	18.39
732.942	18.84
733.257	18.74
733.572	20.58
733.887	19
734.202	19.44
734.517	20.22
734.832	18.23
735.146	19.6
735.461	19.2
735.776	20.94
736.091	20.33
736.405	19.16
736.72	19.49
737.034	20.15
737.349	19.6
737.663	19.68
737.977	20.1
738.292	20.3
738.606	19.15
738.92	20.25
739.234	19
739.548	18.92
739.862	20.39
740.176	18.87
740.49	20.8
740.804	19.44
741.117	19.39
741.431	19.27
741.745	20.79
742.058	21.15
742.372	21.44
742.685	18.17
742.999	19.89
743.312	20.82
743.626	20.78
743.939	21.12
744.252	20.52
744.565	17.8
744.878	18.52
745.191	20.17
745.505	19.07
745.817	19.27
746.13	19.18
746.443	19.57
746.756	19.16
747.069	19.47
747.381	18.85
747.694	20.86
748.007	22.65
748.319	19.52
748.632	20.18
748.944	20.67
749.256	21.09
749.569	19.68
749.881	19.12
750.193	21.59
750.505	18.95
750.817	17.97
751.129	20.01
751.441	21.22
751.753	21.25
752.065	21.5
752.377	21.2
752.689	21.18
753	19.53
753.312	20.86
753.624	20.67
753.935	20.39
754.247	20.2
754.558	22.73
754.869	22
755.181	20.81
755.492	21.19
755.803	21.74
756.114	21.22
756.425	17.8
756.736	19.36
757.047	22.79
757.358	20.22
757.669	21.29
757.98	19.77
758.291	21.49
758.601	21.95
758.912	21.49
759.223	20
759.533	23.06
759.844	21.87
760.154	22.14
760.464	21.84
760.775	19.77
761.085	21.55
761.395	21.85
761.705	22.22
762.016	22.6
762.326	22.6
762.636	21.5
762.945	18.8
763.255	21.56
763.565	21.26
763.875	21.38
764.185	22.34
764.494	21.54
764.804	21.62
765.113	22.28
765.423	20.97
765.732	21.17
766.042	20.41
766.351	21.37
766.66	21.49
766.97	22.01
767.279	21.33
767.588	21.42
767.897	22.43
768.206	21.27
768.515	22.44
768.824	21.93
769.133	22.98
769.441	22.9
769.75	21.38
770.059	21.47
770.367	20.94
770.676	19.17
770.984	21.44
771.293	21.93
771.601	22.67
771.91	19.41
772.218	20.64
772.526	21.25
772.834	19.57
773.142	21.89
773.45	24.36
773.758	21.71
774.066	21.41
774.374	21.69
774.682	22.82
774.99	21.06
775.298	21.44
775.605	19.65
775.913	18.22
776.22	25.6
776.528	22.42
776.835	21.99
777.143	20.74
777.45	24.25
777.757	20.15
778.065	23.74
778.372	21.8
778.679	21.33
778.986	22.03
779.293	25.41
779.6	23.14
779.907	19.4
780.214	22.79
780.52	18.53
780.827	20.35
781.134	20.78
781.44	21.52
781.747	20.27
782.053	20.49
782.36	21.68
782.666	25.13
782.973	22.77
783.279	19.52
783.585	20.56
783.891	24.9
784.197	24.47
784.503	20.92
784.809	22.81
785.115	20.38
785.421	19.36
785.727	22.38
786.033	20.24
786.339	20.51
786.644	24.66
786.95	24.55
787.255	23.49
787.561	22.26
787.866	18.25
788.172	20.07
788.477	23.44
788.782	21.26
789.088	23.25
789.393	25.41
789.698	24.19
790.003	20.95
790.308	20.61
790.613	21.93
790.918	22.98
791.223	24.2
791.527	18.88
791.832	25.68
792.137	19.84
792.441	24.57
792.746	25.84
793.05	22.57
793.355	23.34
793.659	18.37
793.963	20.81
794.268	25.21
794.572	22.25
794.876	25.22
795.18	21.93
795.484	24.75
795.788	18.91
796.092	22.49
796.396	21.04
796.7	22.53
797.004	24.48
797.307	20.93
797.611	20.66
797.915	24.82
798.218	25.26
798.522	25.86
798.825	26.21
799.128	24.36
799.432	19.92
799.735	20.95
800.038	20.77
800.341	22.15
800.644	25.72
800.947	20.85
801.25	22.97
801.553	19.16
801.856	23.7
802.159	24.4
802.462	25.26
802.764	28.74
803.067	23.09
803.37	24.13
803.672	22.4
803.975	19.87
804.277	25.22
804.579	27.67
804.882	23.59
805.184	22
805.486	20.58
805.788	24.38
806.09	23.12
806.392	27.57
806.694	23.26
806.996	22.52
807.298	18.56
807.6	20.74
807.902	23.96
808.203	24.75
808.505	23.59
808.807	20.74
809.108	24.07
809.409	23.79
809.711	28.4
810.012	24.33
810.313	21.99
810.615	24.92
810.916	19.79
811.217	22.3
811.518	19.82
811.819	25.15
812.12	24.43
812.421	15.83
812.722	24.43
813.023	26.82
813.323	27.36
813.624	19.77
813.925	19.95
814.225	20.23
814.526	24.4
814.826	29.32
815.126	21.15
815.427	24.28
815.727	25.32
816.027	25.07
816.327	21.73
816.627	23.06
816.927	23.23
817.227	22.03
817.527	23.16
817.827	24.42
818.127	26.31
818.427	27.66
818.727	26.56
819.026	24.65
819.326	21.73
819.625	30.36
819.925	25.61
820.224	16.31
820.524	25.18
820.823	23.73
821.122	24.7
821.421	21.11
821.72	26.69
822.019	28.24
822.318	24.68
822.617	20.4
822.916	25.1
823.215	26.02
823.514	29.45
823.813	24.5
824.111	23.93
824.41	25
824.709	25.32
825.007	25.91
825.306	25.25
825.604	25.41
825.902	24.86
826.201	26.02
826.499	26
826.797	24.81
827.095	25.37
827.393	26.16
827.691	24.91
827.989	24.14
828.287	26.55
828.585	26.83
828.882	26.54
829.18	25.75
829.478	27.5
829.775	25.73
830.073	25.37
830.37	25.96
830.668	27.12
830.965	26.49
831.263	27.48
831.56	25.68
831.857	28.83
832.154	23.46
832.451	24.38
832.748	25.82
833.045	25.18
833.342	25.56
833.639	22.57
833.936	28.59
834.232	24.8
834.529	27.26
834.826	19.95
835.122	20.59
835.419	29.26
835.715	25.7
836.012	26.21
836.308	25.93
836.604	27.8
836.901	27.57
837.197	25.82
837.493	24.14
837.789	28.61
838.085	25.42
838.381	28.91
838.677	33.07
838.972	27.09
839.268	26.56
839.564	27.63
839.86	27.21
840.155	23.8
840.451	24.48
840.746	29.35
841.042	22.02
841.337	23.03
841.632	21.71
841.928	22.98
842.223	21.61
842.518	22.62
842.813	24.15
843.108	21.15
843.403	16.68
843.698	24.96
843.993	26.18
844.287	27.41
844.582	21.36
844.877	20.67
845.171	23.8
845.466	22.62
845.761	27.57
846.055	25.74
846.349	27.33
846.644	23.96
846.938	20.46
847.232	21.24
847.526	20.07
847.82	13.42
848.114	14.14
848.408	13.51
848.702	10.84
848.996	14.87
849.29	29.09
849.584	24.84
849.877	34.95
850.171	18.73
850.465	24.52
850.758	11.47
851.052	27.24
851.345	39.59
851.638	29.5
851.932	11.3
852.225	32.16
852.518	10.43
852.811	21.26
853.104	21.19
853.397	33.01
853.69	27.88
853.983	-1.6
854.276	29.62
854.569	34.15
854.861	30.05
855.154	32.53
855.447	11.89
855.739	25.68
856.032	21.15
856.324	25.11
856.616	38.44
856.909	22.07
857.201	25.36
857.493	18.58
857.785	17.52
858.077	-6.05
858.369	20.36
858.661	18.33
858.953	17.7
859.245	19.3
859.537	-0.94
859.829	26.67
860.12	33.91
860.412	27.83
860.703	30.14
860.995	31.16
861.286	38.05
861.578	19.65
861.869	16.93
862.16	26.76
862.452	26.25
862.743	4.44
863.034	20.56
863.325	25.81
863.616	8.86
863.907	16.28
864.198	6.92
864.488	25.86
864.779	38.98
865.07	24.92
865.36	34.06
865.651	35.49
865.941	23.25
866.232	4.05
866.522	19.11
866.813	12.05
867.103	19.08
867.393	-1.29
867.683	24.28
867.973	12.21
868.263	27.66
868.553	17.93
868.843	8.17
869.133	10.01
869.423	38.14
869.713	7.44
870.002	25.19
870.292	8.1
870.582	30.47
870.871	27.91
871.161	13.96
871.45	15.46
871.739	18.34
872.029	14.46
872.318	11.72
872.607	13.61
872.896	2.87
873.185	3.19
873.474	33.84
873.763	21.12
874.052	-1.48
874.341	-10.14
874.63	8.7
874.918	48.9
875.207	24.55
875.496	-12.51
875.784	15.98
876.073	11.18
876.361	29.2
876.649	19.35
876.938	16.43
877.226	15.93
877.514	29.87
877.802	41.67
878.09	39.85
878.378	21.3
878.666	16.61
878.954	8.81
879.242	5.66
879.53	6.86
879.817	-0.97
880.105	20.98
880.392	24.28
880.68	14.3
880.967	16.62
881.255	16.38
881.542	22.02
881.83	16.75
882.117	31.33
882.404	14.26
882.691	-1.86
882.978	35.21
883.265	21.35
883.552	38.45
883.839	51.18
884.126	25.59
884.413	30.3
884.699	20.89
884.986	29.09
885.273	33.37
885.559	33.37
885.846	33.37
