Data from 0018_crown_Reflection__4__90.txt Node

Date: Mon Oct 17 15:10:02 CDT 2022
User: ToomeyLab
Spectrometer: FLMS14357
Trigger mode: 0
Integration Time (sec): 1.000000E-2
Scans to average: 100
Electric dark correction enabled: true
Nonlinearity correction enabled: false
Boxcar width: 0
XAxis mode: Wavelengths
Number of Pixels in Spectrum: 2048
>>>>>Begin Spectral Data<<<<<
189.047	166.79
189.435	166.79
189.823	166.79
190.211	-64.76
190.599	404.97
190.987	125.07
191.375	23.38
191.763	-64.05
192.151	539.89
192.538	-348.78
192.926	-33.52
193.314	669.9
193.702	75.2
194.089	29.9
194.477	91.62
194.864	715.49
195.252	172.95
195.639	164.07
196.027	131.92
196.414	-148.78
196.801	11.95
197.189	48.46
197.576	110.41
197.963	-535.7
198.351	-681.5
198.738	-10.34
199.125	-8.93
199.512	5.05
199.899	-6.5
200.286	-31.39
200.673	6.57
201.06	-71.51
201.447	32.74
201.833	14.6
202.22	10.88
202.607	-62.76
202.994	-14.3
203.38	2.37
203.767	4.27
204.154	25.31
204.54	-1.67
204.927	13.71
205.313	2.53
205.699	12.57
206.086	-49.06
206.472	0.62
206.858	-50.51
207.245	-0.75
207.631	0.99
208.017	16.9
208.403	-13.06
208.789	2.27
209.175	-4.21
209.561	-56.87
209.947	-82.76
210.333	29.34
210.719	16.01
211.105	13.89
211.491	6.41
211.876	-21.8
212.262	7.75
212.648	17.71
213.034	-55.72
213.419	5.43
213.805	-18.85
214.19	-15.18
214.576	8.35
214.961	-23.15
215.346	-37.25
215.732	-10.63
216.117	-0.62
216.502	9.74
216.888	-14.49
217.273	-1.62
217.658	8.2
218.043	-2.7
218.428	-29.93
218.813	25.06
219.198	3.66
219.583	-23.7
219.968	2.75
220.353	-19.66
220.738	-32.03
221.122	3.58
221.507	-0.52
221.892	-9.14
222.276	-4.12
222.661	8.67
223.046	-18.23
223.43	3.78
223.815	-3.94
224.199	1.32
224.583	-11.68
224.968	2.85
225.352	-20.33
225.736	3.24
226.121	-2.96
226.505	3.36
226.889	1.69
227.273	3.2
227.657	5.41
228.041	6.29
228.425	0.93
228.809	6.25
229.193	4.61
229.577	5.77
229.961	5.98
230.344	3.52
230.728	5.11
231.112	4.42
231.495	4.57
231.879	4.55
232.263	5.31
232.646	6.38
233.03	3.86
233.413	2.1
233.797	4.28
234.18	5.41
234.563	3.1
234.946	4.77
235.33	4.42
235.713	2.78
236.096	5.48
236.479	4.06
236.862	3.81
237.245	2.71
237.628	5.76
238.011	4.12
238.394	4.7
238.777	3.2
239.16	4.41
239.543	4.05
239.925	5.71
240.308	4.51
240.691	4.32
241.073	4.87
241.456	5.33
241.838	4.85
242.221	3.4
242.603	3.83
242.986	4.21
243.368	4.94
243.75	4.43
244.133	4.51
244.515	4.97
244.897	4.8
245.279	4.17
245.661	5.39
246.043	4.67
246.425	2.75
246.807	3.41
247.189	4.76
247.571	4.36
247.953	4.25
248.335	4.48
248.717	4.41
249.098	4.67
249.48	4.56
249.862	4.26
250.243	4.17
250.625	4.67
251.006	3.87
251.388	3.92
251.769	4.09
252.151	4.14
252.532	4.18
252.913	4.12
253.295	3.35
253.676	4.56
254.057	4.61
254.438	4.32
254.819	4.97
255.2	4.68
255.581	4.4
255.962	2.96
256.343	3.18
256.724	4.05
257.105	4.46
257.486	3.36
257.867	3.56
258.247	3.64
258.628	4.56
259.009	4.53
259.389	3.46
259.77	4.13
260.15	3.74
260.531	3.58
260.911	4.36
261.292	4.29
261.672	4.04
262.052	4.11
262.432	4.03
262.813	3.9
263.193	4.1
263.573	4.71
263.953	4.03
264.333	3.97
264.713	3.68
265.093	2.93
265.473	3.78
265.853	3.53
266.233	5.53
266.612	3.78
266.992	4.25
267.372	3.8
267.752	4.06
268.131	3.94
268.511	3.95
268.89	4.41
269.27	4.13
269.649	4.04
270.029	3.65
270.408	4.32
270.787	3.68
271.167	3.42
271.546	3.93
271.925	4.01
272.304	4.01
272.683	4.31
273.062	3.9
273.441	3.71
273.82	3.89
274.199	4.17
274.578	4.06
274.957	3.8
275.336	3.99
275.715	3.61
276.093	3.66
276.472	3.01
276.851	3.8
277.229	2.87
277.608	3.16
277.986	4.04
278.365	4.01
278.743	4.4
279.122	3.77
279.5	3.63
279.878	4.26
280.257	3.81
280.635	3.06
281.013	3.65
281.391	4.01
281.769	3.81
282.147	3.61
282.525	3.34
282.903	3.28
283.281	3.32
283.659	3.32
284.037	3.02
284.415	3.68
284.792	3.24
285.17	3.41
285.548	3.16
285.925	3.78
286.303	3.48
286.68	3.86
287.058	3.96
287.435	3.62
287.813	3.64
288.19	3.72
288.567	3.79
288.945	3.32
289.322	4.15
289.699	3.72
290.076	3.57
290.453	3.14
290.83	3.25
291.207	3.47
291.584	3.33
291.961	3.38
292.338	3.49
292.715	3.32
293.092	3.62
293.469	3.32
293.845	3.79
294.222	3.58
294.599	3.54
294.975	2.99
295.352	3.37
295.728	3.64
296.105	3.09
296.481	3.79
296.858	3.51
297.234	3.56
297.61	3.29
297.986	3.26
298.363	3.33
298.739	3.84
299.115	3.17
299.491	3.45
299.867	3.48
300.243	3.24
300.619	2.66
300.995	3.06
301.371	3.38
301.746	3.4
302.122	3.21
302.498	3.27
302.874	3.6
303.249	3.14
303.625	3.94
304	3.21
304.376	3.53
304.751	3.75
305.127	3.44
305.502	3.22
305.878	3.8
306.253	3.49
306.628	3.53
307.003	3.04
307.378	3.35
307.754	2.81
308.129	3.34
308.504	3.02
308.879	2.85
309.254	3.07
309.629	2.94
310.003	3.43
310.378	3.13
310.753	3.39
311.128	3.28
311.502	3.32
311.877	3.58
312.252	3.07
312.626	3.07
313.001	3.09
313.375	3.3
313.75	3.49
314.124	3.12
314.498	3.23
314.873	3.36
315.247	3.22
315.621	3.93
315.995	3.24
316.369	3.36
316.743	3.23
317.117	3.41
317.491	3.31
317.865	3.59
318.239	3.97
318.613	3.23
318.987	3.01
319.361	2.93
319.734	3.64
320.108	2.99
320.482	3.19
320.855	2.78
321.229	2.84
321.602	3.2
321.976	3.23
322.349	3.13
322.723	2.87
323.096	3.73
323.469	2.76
323.843	3.23
324.216	3.58
324.589	2.96
324.962	3.25
325.335	3.29
325.708	3.71
326.081	3.12
326.454	3.38
326.827	3.32
327.2	3.07
327.573	2.89
327.945	3.23
328.318	3.2
328.691	3.17
329.063	3.42
329.436	3.21
329.809	3.09
330.181	3.42
330.553	2.65
330.926	3.33
331.298	3.5
331.671	3.6
332.043	3.18
332.415	3.33
332.787	3.19
333.159	3.35
333.532	3.3
333.904	3.43
334.276	3.27
334.648	2.8
335.02	3.43
335.391	3.37
335.763	3.25
336.135	2.98
336.507	3.48
336.879	3.4
337.25	3.7
337.622	3.17
337.993	3.53
338.365	3.28
338.736	3.21
339.108	3.14
339.479	3.14
339.851	3.68
340.222	3.03
340.593	3.41
340.964	3.71
341.336	3.14
341.707	3.46
342.078	3.33
342.449	3.41
342.82	3.15
343.191	2.99
343.562	3.41
343.933	3.4
344.303	3.3
344.674	3.31
345.045	3.56
345.416	3.39
345.786	3.37
346.157	3.32
346.527	3.32
346.898	3.32
347.268	3.3
347.639	2.96
348.009	3.46
348.38	3.19
348.75	3.53
349.12	3.27
349.49	3.28
349.861	4.12
350.231	3.34
350.601	3.89
350.971	3.55
351.341	3.25
351.711	3.26
352.081	3.5
352.45	3.65
352.82	3.6
353.19	3.37
353.56	3.06
353.929	3.58
354.299	3.75
354.669	3.82
355.038	3.88
355.408	3.86
355.777	3.31
356.147	3.44
356.516	3.49
356.885	3.44
357.254	3.89
357.624	3.9
357.993	3.55
358.362	3.31
358.731	3.48
359.1	3.4
359.469	3.53
359.838	3.68
360.207	3.64
360.576	3.67
360.945	3.56
361.314	3.61
361.682	3.62
362.051	3.63
362.42	3.14
362.788	3.62
363.157	3.93
363.525	3.52
363.894	3.63
364.262	3.77
364.631	3.63
364.999	3.64
365.367	3.47
365.735	3.48
366.104	3.76
366.472	3.49
366.84	3.54
367.208	3.67
367.576	3.63
367.944	3.63
368.312	3.67
368.68	4.06
369.048	3.82
369.416	3.58
369.783	3.75
370.151	3.52
370.519	3.79
370.886	3.66
371.254	3.41
371.621	3.49
371.989	3.98
372.356	3.77
372.724	3.6
373.091	3.57
373.458	3.48
373.826	3.68
374.193	3.74
374.56	3.71
374.927	3.88
375.294	3.98
375.661	3.67
376.028	3.91
376.395	3.71
376.762	3.97
377.129	3.93
377.496	3.49
377.863	3.49
378.229	3.78
378.596	3.67
378.963	3.68
379.329	3.71
379.696	3.55
380.062	3.88
380.429	3.43
380.795	3.97
381.161	3.74
381.528	3.65
381.894	3.75
382.26	3.66
382.626	3.71
382.993	3.93
383.359	3.96
383.725	3.9
384.091	3.81
384.457	3.82
384.823	3.32
385.188	3.55
385.554	3.88
385.92	3.81
386.286	3.97
386.651	3.86
387.017	3.75
387.383	4.01
387.748	3.69
388.114	3.66
388.479	4
388.845	4.05
389.21	3.61
389.575	3.92
389.94	4.11
390.306	4.12
390.671	4.08
391.036	4.14
391.401	3.95
391.766	4.01
392.131	4.07
392.496	4.12
392.861	3.8
393.226	3.81
393.591	3.77
393.956	4.04
394.32	4.06
394.685	3.79
395.05	3.89
395.414	4.04
395.779	4.03
396.143	4.12
396.508	3.84
396.872	3.97
397.236	3.81
397.601	3.79
397.965	4.07
398.329	4.24
398.694	4.29
399.058	3.93
399.422	4.1
399.786	4.13
400.15	3.94
400.514	3.86
400.878	3.94
401.242	3.91
401.605	4
401.969	4.02
402.333	3.91
402.697	4.07
403.06	4.02
403.424	3.93
403.787	3.8
404.151	4
404.514	4
404.878	3.98
405.241	4.09
405.604	4.02
405.968	4.15
406.331	3.74
406.694	3.8
407.057	3.87
407.42	3.93
407.783	4.09
408.146	4.13
408.509	4.22
408.872	3.95
409.235	4.04
409.598	4.12
409.961	3.91
410.323	3.98
410.686	4.2
411.049	3.9
411.411	4.12
411.774	4.02
412.136	4.26
412.499	4.18
412.861	4.16
413.223	4.08
413.586	4.1
413.948	3.85
414.31	3.93
414.672	4.02
415.035	4.11
415.397	4.18
415.759	4.22
416.121	3.9
416.483	4.17
416.845	4.04
417.206	3.88
417.568	4.11
417.93	4.01
418.292	4.15
418.653	4.01
419.015	4.07
419.377	3.98
419.738	3.93
420.1	4.14
420.461	3.96
420.822	4.05
421.184	3.99
421.545	3.87
421.906	3.9
422.267	4.01
422.629	3.93
422.99	4
423.351	4.06
423.712	3.91
424.073	4
424.434	4.01
424.795	4.12
425.155	4.05
425.516	3.98
425.877	3.94
426.238	3.93
426.598	3.96
426.959	3.97
427.32	4.11
427.68	4.02
428.041	3.91
428.401	4.03
428.761	4.06
429.122	4.19
429.482	4.08
429.842	3.88
430.202	4.32
430.563	4.05
430.923	4.1
431.283	4.18
431.643	4.09
432.003	4.09
432.363	4.2
432.722	4.08
433.082	4.05
433.442	4.19
433.802	4.1
434.161	3.96
434.521	4.11
434.881	4.2
435.24	4
435.6	4.17
435.959	4.03
436.319	4.04
436.678	3.98
437.037	4.25
437.396	3.96
437.756	4.24
438.115	4.14
438.474	4.13
438.833	3.92
439.192	4.04
439.551	4.04
439.91	4.11
440.269	4.15
440.628	4.08
440.987	3.98
441.345	4.08
441.704	4.16
442.063	3.99
442.421	4.09
442.78	3.95
443.138	4.09
443.497	4.12
443.855	4.11
444.214	4.24
444.572	4.14
444.93	4.16
445.288	4.08
445.647	4.11
446.005	4.17
446.363	4.17
446.721	4.07
447.079	4.01
447.437	4.05
447.795	4.04
448.153	4.09
448.51	4.04
448.868	4.05
449.226	4.03
449.584	4.17
449.941	4.03
450.299	4.13
450.656	4.02
451.014	4
451.371	4.22
451.729	4.1
452.086	4.18
452.443	4.11
452.801	4.22
453.158	4.31
453.515	3.88
453.872	4.18
454.229	4.12
454.586	4.07
454.943	4.16
455.3	4.17
455.657	4.11
456.014	4.2
456.371	4.08
456.727	4.05
457.084	4.26
457.441	4.3
457.797	4.17
458.154	4.12
458.51	4.17
458.867	4.01
459.223	4.32
459.58	4.2
459.936	4.14
460.292	4.23
460.648	4.06
461.005	4.19
461.361	4.09
461.717	4.07
462.073	4.04
462.429	3.96
462.785	4.24
463.141	4.26
463.496	4.16
463.852	4.23
464.208	4.23
464.564	4.14
464.919	4.17
465.275	4.14
465.631	4.21
465.986	4.2
466.342	4.03
466.697	4.16
467.052	4.17
467.408	4.25
467.763	4.03
468.118	4.22
468.473	4.29
468.829	4.14
469.184	4.22
469.539	4.13
469.894	4.17
470.249	4.18
470.603	4.11
470.958	4.21
471.313	4.04
471.668	4.14
472.023	4.01
472.377	4.17
472.732	4.09
473.086	4.38
473.441	4.15
473.795	4.12
474.15	4.14
474.504	4.35
474.859	4.1
475.213	4.22
475.567	4.36
475.921	4.25
476.275	4.28
476.63	4.23
476.984	4.17
477.338	4.23
477.692	4.16
478.045	4.3
478.399	4.24
478.753	4.21
479.107	4.09
479.461	4.09
479.814	4.21
480.168	4.09
480.521	4.19
480.875	4.16
481.228	4.13
481.582	4.23
481.935	4.08
482.289	4.11
482.642	4.27
482.995	4.1
483.348	4.19
483.701	4.15
484.055	4.05
484.408	4.15
484.761	4.02
485.114	3.9
485.466	3.83
485.819	3.85
486.172	3.92
486.525	4.01
486.878	4.07
487.23	4.08
487.583	4.13
487.936	4.08
488.288	4.09
488.641	3.93
488.993	3.88
489.345	3.93
489.698	3.95
490.05	3.95
490.402	3.99
490.754	4.02
491.107	4.09
491.459	4.08
491.811	4.13
492.163	4.12
492.515	4.03
492.866	3.99
493.218	3.95
493.57	3.99
493.922	4.05
494.274	4.17
494.625	4.15
494.977	4.26
495.328	4.16
495.68	4.25
496.031	4.26
496.383	4.25
496.734	4.12
497.086	4.12
497.437	4.16
497.788	4.15
498.139	4.08
498.49	4.11
498.842	4.2
499.193	4.06
499.544	4.2
499.894	4.11
500.245	4.14
500.596	4.08
500.947	4.35
501.298	4.23
501.648	4.19
501.999	4.15
502.35	4.24
502.7	4.33
503.051	4.27
503.401	4.28
503.752	4.28
504.102	4.14
504.452	4.17
504.803	4.14
505.153	4.25
505.503	4.21
505.853	4.13
506.203	4.25
506.553	4.24
506.903	4.25
507.253	4.15
507.603	4.28
507.953	4.34
508.303	4.07
508.652	4.2
509.002	4.27
509.352	4.13
509.701	4.18
510.051	4.25
510.4	4.09
510.75	4.15
511.099	4.22
511.449	4.21
511.798	4.26
512.147	4.09
512.496	4.27
512.846	4.16
513.195	4.17
513.544	4.12
513.893	4.19
514.242	4.24
514.591	4.22
514.939	4.15
515.288	4.15
515.637	4.28
515.986	4.16
516.334	4.23
516.683	4.33
517.032	4.13
517.38	4.06
517.729	4.16
518.077	4.24
518.426	4.02
518.774	4.06
519.122	4.18
519.47	4.2
519.819	4.24
520.167	4.08
520.515	4.12
520.863	4.18
521.211	4.16
521.559	4.17
521.907	4.27
522.255	4.24
522.602	4.17
522.95	4.29
523.298	4.12
523.645	4.23
523.993	4.2
524.341	4.33
524.688	4.23
525.036	4.32
525.383	4.35
525.73	4.11
526.078	4.18
526.425	4.18
526.772	4.13
527.119	4.08
527.466	3.97
527.814	4.08
528.161	4.06
528.508	4.18
528.854	4.08
529.201	4.1
529.548	4.08
529.895	3.98
530.242	3.89
530.588	3.97
530.935	3.96
531.282	3.99
531.628	4.1
531.975	4.16
532.321	4.13
532.667	4.23
533.014	4.19
533.36	4.18
533.706	4.2
534.052	4.15
534.399	4.14
534.745	4
535.091	4.05
535.437	4.08
535.783	4.1
536.129	4.1
536.474	4.24
536.82	4.21
537.166	4.2
537.512	4.18
537.857	4.12
538.203	4.09
538.549	4.05
538.894	4.14
539.239	4.24
539.585	4.24
539.93	4.31
540.276	4.17
540.621	4.16
540.966	4.23
541.311	4.1
541.656	4.02
542.001	4.19
542.346	4.06
542.691	4.06
543.036	3.98
543.381	4.02
543.726	4
544.071	4.08
544.415	4.14
544.76	4.1
545.105	4.06
545.449	4.14
545.794	4.17
546.138	4.21
546.483	4.24
546.827	4.09
547.171	4.15
547.516	4.14
547.86	4.18
548.204	4.23
548.548	4.03
548.892	4.12
549.236	4.2
549.58	4.2
549.924	4.21
550.268	4.23
550.612	4.22
550.956	4.28
551.3	4.25
551.643	4.39
551.987	4.2
552.33	4.16
552.674	4.15
553.017	4.29
553.361	4.2
553.704	4.21
554.048	4.08
554.391	4.32
554.734	4.18
555.077	4.15
555.42	4.15
555.764	4.11
556.107	4.21
556.45	4.19
556.793	4.24
557.135	4.23
557.478	4.28
557.821	4.36
558.164	4.12
558.507	4.08
558.849	4.29
559.192	4.31
559.534	4.35
559.877	3.99
560.219	3.98
560.562	3.89
560.904	4.09
561.246	4.19
561.589	4.31
561.931	4.25
562.273	4.2
562.615	4.24
562.957	4.24
563.299	4.05
563.641	4.27
563.983	4.15
564.325	4.36
564.667	4.4
565.008	4.39
565.35	4.22
565.692	4.35
566.033	4.27
566.375	4.21
566.716	4.08
567.058	4.18
567.399	4.22
567.741	4.2
568.082	4.26
568.423	4.13
568.764	4.21
569.105	4.25
569.447	4.08
569.788	4.27
570.129	4.16
570.47	4.24
570.811	4.35
571.151	4.23
571.492	4.17
571.833	4.08
572.174	4.22
572.514	4.24
572.855	4.13
573.195	4.15
573.536	4.16
573.876	4.12
574.217	4.17
574.557	4
574.898	4.13
575.238	4.27
575.578	4.36
575.918	4.34
576.258	4.13
576.598	4.04
576.938	4.28
577.278	4.25
577.618	4.15
577.958	4.11
578.298	4
578.638	4.2
578.977	4.3
579.317	4.19
579.657	4.2
579.996	4.19
580.336	4.2
580.675	4.38
581.014	4.04
581.354	4.17
581.693	4.17
582.032	4.2
582.372	4.07
582.711	4.01
583.05	4.05
583.389	4.1
583.728	4.29
584.067	4.11
584.406	4.26
584.745	4.29
585.083	4.4
585.422	4.17
585.761	4.22
586.1	4.38
586.438	4.37
586.777	4.33
587.115	4.17
587.454	4.32
587.792	4.14
588.13	4.1
588.469	4.34
588.807	4.36
589.145	4.14
589.483	4.07
589.821	4.05
590.159	3.92
590.497	4.42
590.835	4.22
591.173	4.44
591.511	4.17
591.849	4.27
592.187	4.21
592.524	4.12
592.862	4.13
593.2	4.14
593.537	4.31
593.875	4.25
594.212	4.2
594.55	4.25
594.887	4.15
595.224	4.25
595.561	3.94
595.899	4.32
596.236	4.3
596.573	4.14
596.91	4.29
597.247	4.15
597.584	3.91
597.921	4.21
598.258	4.23
598.594	4.22
598.931	4.07
599.268	3.96
599.604	4.17
599.941	4.09
600.277	4.16
600.614	4.3
600.95	4.2
601.287	4.06
601.623	4.11
601.959	4.13
602.296	4.04
602.632	4.09
602.968	3.96
603.304	4.06
603.64	4.07
603.976	3.99
604.312	4.19
604.648	4.2
604.984	4.09
605.319	4.07
605.655	4.33
605.991	4.25
606.326	4.03
606.662	4.15
606.998	3.97
607.333	4.21
607.668	4.17
608.004	4.16
608.339	4.18
608.674	4.25
609.01	4.11
609.345	4.26
609.68	4.2
610.015	4.32
610.35	4.19
610.685	3.92
611.02	4.07
611.355	4.13
611.689	3.99
612.024	4.28
612.359	4.21
612.694	4.26
613.028	4.11
613.363	4.24
613.697	4.01
614.032	4.45
614.366	4.11
614.7	4.39
615.035	4.15
615.369	4.41
615.703	4.32
616.037	4.26
616.371	4.28
616.705	4.08
617.039	4.52
617.373	4.4
617.707	4.23
618.041	4.21
618.375	4.02
618.709	4.3
619.042	4.37
619.376	4.14
619.71	4
620.043	4.26
620.377	4.26
620.71	4.38
621.043	4.66
621.377	4.36
621.71	4.25
622.043	4.3
622.376	4.18
622.709	4.17
623.043	4.06
623.376	4.04
623.709	4.06
624.041	4.19
624.374	4.16
624.707	4.16
625.04	4.35
625.373	4.62
625.705	4.11
626.038	3.86
626.37	4.42
626.703	4.69
627.035	4.28
627.368	4.14
627.7	4.51
628.032	4.33
628.365	3.95
628.697	3.97
629.029	4.29
629.361	4.17
629.693	4.24
630.025	4.27
630.357	4.23
630.689	3.86
631.021	3.83
631.353	4.02
631.684	3.93
632.016	4.02
632.348	4.42
632.679	4.13
633.011	4.13
633.342	4.33
633.674	4.52
634.005	4.49
634.336	4.04
634.668	4.48
634.999	4.14
635.33	4.09
635.661	4.52
635.992	4.23
636.323	4.23
636.654	4.21
636.985	4.22
637.316	4.21
637.647	4.12
637.977	4.04
638.308	4.1
638.639	3.82
638.969	4.28
639.3	3.81
639.63	4.39
639.961	4.22
640.291	4.07
640.622	4.22
640.952	4.01
641.282	4.3
641.612	4.22
641.943	4.28
642.273	3.75
642.603	4.48
642.933	4.2
643.263	4.48
643.592	4.2
643.922	4.06
644.252	4.18
644.582	4.51
644.911	4.66
645.241	4.43
645.571	4.01
645.9	4.2
646.23	3.9
646.559	4.22
646.888	4.53
647.218	4.08
647.547	4.04
647.876	4.43
648.205	4.47
648.534	4.42
648.863	4.21
649.192	4.66
649.521	4.16
649.85	4.12
650.179	4.66
650.508	4.11
650.837	4.52
651.165	4.01
651.494	4.12
651.822	4.17
652.151	4.54
652.479	4.3
652.808	3.87
653.136	4.25
653.465	4.43
653.793	4.23
654.121	4.21
654.449	4.45
654.777	4.36
655.105	4.08
655.433	4.46
655.761	4.11
656.089	4.27
656.417	4.34
656.745	3.93
657.073	4.5
657.4	4.34
657.728	4.38
658.056	3.84
658.383	4.37
658.711	4.64
659.038	4.67
659.365	3.7
659.693	4.05
660.02	4.38
660.347	4.58
660.674	4.51
661.001	4.3
661.329	4.35
661.656	4.19
661.982	4.38
662.309	4.63
662.636	4.63
662.963	4.02
663.29	4.18
663.616	4.3
663.943	3.81
664.27	4.42
664.596	4.28
664.923	3.88
665.249	4.66
665.576	4.24
665.902	4.11
666.228	3.99
666.554	3.94
666.881	4.65
667.207	4.41
667.533	4.57
667.859	4.05
668.185	4.42
668.511	4.29
668.837	3.86
669.162	4.67
669.488	4.63
669.814	4.41
670.139	4.24
670.465	4.06
670.791	4.76
671.116	4.77
671.442	4.8
671.767	4.4
672.092	3.72
672.418	4.54
672.743	3.92
673.068	4.14
673.393	4.08
673.718	4.2
674.043	5.15
674.368	4.55
674.693	4.47
675.018	4.45
675.343	5.09
675.667	4.62
675.992	4.41
676.317	4.29
676.641	4.17
676.966	4.84
677.29	4.07
677.615	3.83
677.939	4.75
678.264	4.12
678.588	3.93
678.912	4.12
679.236	5.58
679.56	3.96
679.885	5.07
680.209	4.82
680.532	4
680.856	4.35
681.18	4.65
681.504	5.09
681.828	4.93
682.152	4.48
682.475	4.3
682.799	4.38
683.122	4.11
683.446	4.17
683.769	4.65
684.093	3.71
684.416	4.68
684.739	3.75
685.062	4.93
685.386	4.65
685.709	4.28
686.032	4.82
686.355	4.15
686.678	3.71
687.001	4.22
687.324	4.71
687.646	4.09
687.969	4.75
688.292	4.87
688.614	4.43
688.937	5.07
689.26	4.44
689.582	4.34
689.904	5.13
690.227	4.68
690.549	5.58
690.871	4.61
691.194	4.13
691.516	4.39
691.838	4.43
692.16	4.52
692.482	4.76
692.804	4.24
693.126	4.41
693.448	4.57
693.769	4.33
694.091	4.34
694.413	3.74
694.735	3.7
695.056	3.9
695.378	4.46
695.699	4.15
696.021	4.7
696.342	4.7
696.663	4.98
696.984	4.15
697.306	4.75
697.627	4.08
697.948	4.34
698.269	4.99
698.59	5.03
698.911	5.32
699.232	5.17
699.553	4.81
699.873	4.84
700.194	4.21
700.515	5.06
700.835	4.65
701.156	4.5
701.477	4.58
701.797	4.41
702.117	4.71
702.438	4.78
702.758	4.88
703.078	4.22
703.398	4.64
703.719	4.41
704.039	3.87
704.359	5.42
704.679	3.97
704.999	5.03
705.319	5.36
705.638	4.45
705.958	5.43
706.278	4.61
706.597	3.79
706.917	4.89
707.237	4.55
707.556	4.39
707.876	2.94
708.195	4.82
708.514	4.46
708.834	3.57
709.153	3.25
709.472	3.59
709.791	5.28
710.11	4.78
710.429	4.84
710.748	4.68
711.067	4.91
711.386	4.37
711.705	5.65
712.023	4.49
712.342	4.44
712.661	5.65
712.979	4.25
713.298	4.68
713.616	3.97
713.935	4.29
714.253	3.93
714.572	5.18
714.89	4.3
715.208	4.97
715.526	5.07
715.844	4.97
716.162	5.05
716.48	4.49
716.798	5.18
717.116	5.58
717.434	4.63
717.752	4.84
718.069	5.08
718.387	4.75
718.705	4.07
719.022	5.15
719.34	4.67
719.657	5.26
719.975	3.25
720.292	4.78
720.609	5.4
720.927	5.88
721.244	3.62
721.561	4.34
721.878	4.36
722.195	4.67
722.512	3.97
722.829	4.73
723.146	4.59
723.463	5.03
723.779	5.34
724.096	4.14
724.413	5.64
724.729	4.49
725.046	3.67
725.362	5.75
725.679	4.1
725.995	3.58
726.311	4.31
726.628	6.28
726.944	3.39
727.26	5.62
727.576	5.57
727.892	6.65
728.208	3.4
728.524	3.27
728.84	2.4
729.156	5.21
729.472	4.56
729.787	5.27
730.103	3.99
730.419	6.03
730.734	5.86
731.05	4.94
731.365	5.61
731.681	6.01
731.996	4.11
732.311	4.43
732.626	4.61
732.942	4.93
733.257	5.86
733.572	6.9
733.887	4.53
734.202	5.22
734.517	5.28
734.832	5.44
735.146	5.11
735.461	3.65
735.776	5.42
736.091	5.41
736.405	4.59
736.72	4.27
737.034	4.71
737.349	3.99
737.663	4.69
737.977	4.21
738.292	7.65
738.606	4.33
738.92	6.75
739.234	3.75
739.548	5.12
739.862	4.62
740.176	2.91
740.49	5.56
740.804	3.83
741.117	6.49
741.431	3.19
741.745	6.98
742.058	5.72
742.372	5.38
742.685	2.66
742.999	4.34
743.312	5.6
743.626	5.32
743.939	4.76
744.252	5.25
744.565	2.94
744.878	4.36
745.191	5.19
745.505	4.79
745.817	5.91
746.13	5.15
746.443	5.1
746.756	4.54
747.069	5.33
747.381	4.77
747.694	3.88
748.007	6.34
748.319	4.52
748.632	2.47
748.944	4.55
749.256	5.21
749.569	4.54
749.881	3.42
750.193	4.38
750.505	5.64
750.817	4.75
751.129	3.76
751.441	5.63
751.753	6.76
752.065	5.65
752.377	5.62
752.689	5.02
753	4.76
753.312	6.37
753.624	4.2
753.935	4.87
754.247	5.59
754.558	6.79
754.869	6.27
755.181	6.23
755.492	4.53
755.803	4.44
756.114	3.92
756.425	4.24
756.736	5.46
757.047	4.44
757.358	3.64
757.669	3.36
757.98	4.46
758.291	4.79
758.601	5.72
758.912	5.13
759.223	4.32
759.533	4.4
759.844	5.87
760.154	5.92
760.464	5.27
760.775	4.2
761.085	6.6
761.395	4.43
761.705	5.21
762.016	4.98
762.326	4.77
762.636	5.19
762.945	4.63
763.255	6.02
763.565	6.15
763.875	5.21
764.185	7.03
764.494	6.07
764.804	6.26
765.113	3.97
765.423	4.71
765.732	5.43
766.042	4.68
766.351	6.09
766.66	4.61
766.97	5.45
767.279	5.71
767.588	5.87
767.897	6.48
768.206	5.02
768.515	6.4
768.824	6.82
769.133	5.42
769.441	7.17
769.75	4.12
770.059	3.96
770.367	3.92
770.676	5.94
770.984	5.42
771.293	4.78
771.601	5
771.91	4.31
772.218	5.87
772.526	4.69
772.834	5.36
773.142	5.46
773.45	6.79
773.758	4.17
774.066	5.71
774.374	4.57
774.682	4.55
774.99	4.89
775.298	6.76
775.605	2.36
775.913	3.87
776.22	8.61
776.528	0.76
776.835	3.14
777.143	5.37
777.45	8.01
777.757	4.77
778.065	7.25
778.372	2.06
778.679	6.5
778.986	8.39
779.293	6.48
779.6	5.18
779.907	5.13
780.214	4.43
780.52	3.27
780.827	4.22
781.134	3.93
781.44	1.99
781.747	6.35
782.053	2.87
782.36	4.04
782.666	8.97
782.973	4.1
783.279	0.59
783.585	2.81
783.891	3.56
784.197	7.35
784.503	6.87
784.809	3.3
785.115	5.85
785.421	4.22
785.727	8.21
786.033	2.41
786.339	7.53
786.644	5.71
786.95	7.76
787.255	3.72
787.561	5.91
787.866	2.96
788.172	2.99
788.477	5.69
788.782	7.56
789.088	4.75
789.393	8.56
789.698	6.7
790.003	1.04
790.308	2.05
790.613	4.42
790.918	4.71
791.223	4.91
791.527	4.08
791.832	9.8
792.137	2.64
792.441	6.39
792.746	3.95
793.05	4.25
793.355	3.15
793.659	3.54
793.963	6.44
794.268	4.68
794.572	4.78
794.876	3.22
795.18	8.08
795.484	8.04
795.788	2.21
796.092	6.42
796.396	4.23
796.7	2.83
797.004	0.95
797.307	-2.72
797.611	0.14
797.915	7.56
798.218	5.8
798.522	5.53
798.825	5.63
799.128	4.76
799.432	5.09
799.735	5.84
800.038	1.66
800.341	1.8
800.644	8.23
800.947	3.29
801.25	2.28
801.553	7.64
801.856	1.29
802.159	6.95
802.462	5.73
802.764	7.93
803.067	4.1
803.37	2.01
803.672	0.31
803.975	7.69
804.277	0.62
804.579	5.43
804.882	3.98
805.184	3.28
805.486	4.22
805.788	3.48
806.09	5.7
806.392	4.22
806.694	5.06
806.996	8.5
807.298	3.24
807.6	6.96
807.902	4.42
808.203	3.78
808.505	3.85
808.807	1.83
809.108	5.15
809.409	6.4
809.711	6.48
810.012	6.51
810.313	6.86
810.615	9.37
810.916	3.16
811.217	4.83
811.518	-0.3
811.819	10.49
812.12	5.31
812.421	0.7
812.722	9.34
813.023	7.48
813.323	4.06
813.624	2.12
813.925	-2.9
814.225	3.61
814.526	5.77
814.826	13.53
815.126	1.22
815.427	0.66
815.727	7.09
816.027	6.41
816.327	4.05
816.627	4.24
816.927	4.26
817.227	1.91
817.527	1.41
817.827	8.09
818.127	11.94
818.427	9.11
818.727	8.84
819.026	10.23
819.326	4.8
819.625	10.62
819.925	4.49
820.224	4.7
820.524	4.57
820.823	3.27
821.122	6.71
821.421	3.92
821.72	13.14
822.019	10.36
822.318	4.63
822.617	0.26
822.916	4.68
823.215	4.86
823.514	7.33
823.813	6.77
824.111	3.3
824.41	5.93
824.709	7.31
825.007	7.65
825.306	7.53
825.604	7.04
825.902	7.41
826.201	7.76
826.499	7.65
826.797	8.07
827.095	7.8
827.393	8.7
827.691	6.21
827.989	7.35
828.287	5.6
828.585	8.05
828.882	8.14
829.18	8.36
829.478	9.19
829.775	8.17
830.073	7.92
830.37	8.5
830.668	7.67
830.965	6.72
831.263	8.32
831.56	9.13
831.857	8.6
832.154	7.84
832.451	6.39
832.748	8.35
833.045	9.75
833.342	5.6
833.639	-1.84
833.936	7.51
834.232	-0.26
834.529	1.71
834.826	1.55
835.122	4.61
835.419	3.5
835.715	6.2
836.012	8.45
836.308	6.27
836.604	9.23
836.901	7.1
837.197	8.8
837.493	8.85
837.789	8
838.085	6.11
838.381	8.7
838.677	6.96
838.972	8.67
839.268	11.98
839.564	6.38
839.86	9.8
840.155	11.41
840.451	-2.44
840.746	6.86
841.042	6.96
841.337	4.2
841.632	8.78
841.928	10.12
842.223	8.13
842.518	2.89
842.813	9.06
843.108	1.75
843.403	1.49
843.698	2.22
843.993	7.61
844.287	14.65
844.582	-1.54
844.877	2.96
845.171	2.39
845.466	5
845.761	7.14
846.055	3.96
846.349	-3.63
846.644	-11.73
846.938	0.89
847.232	1.58
847.526	0.34
847.82	-0.38
848.114	-2.69
848.408	-3.97
848.702	-20.34
848.996	-7.19
849.29	-10.49
849.584	-0.05
849.877	-0.71
850.171	-25.92
850.465	-7.86
850.758	12.88
851.052	10.63
851.345	24.33
851.638	5.04
851.932	-15.57
852.225	18.03
852.518	-15.03
852.811	5.29
853.104	10.9
853.397	7.27
853.69	2.17
853.983	-36.55
854.276	10.84
854.569	24.67
854.861	-17.48
855.154	18.2
855.447	16.48
855.739	1.27
856.032	-16.94
856.324	-17.21
856.616	-5.96
856.909	6.27
857.201	3.53
857.493	-8.05
857.785	7.22
858.077	-14.04
858.369	15.74
858.661	-13.53
858.953	-31.59
859.245	5.06
859.537	-34.02
859.829	-19.7
860.12	25.66
860.412	5.8
860.703	-17.15
860.995	3.4
861.286	-5.05
861.578	14.5
861.869	-16.76
862.16	22.17
862.452	-7.7
862.743	-18.66
863.034	2.07
863.325	-1.16
863.616	10.01
863.907	5
864.198	-12.05
864.488	11.34
864.779	6.42
865.07	12.19
865.36	3.34
865.651	13.42
865.941	-6.65
866.232	-7.82
866.522	-31.2
866.813	20.93
867.103	-7.83
867.393	-21.13
867.683	-5.6
867.973	9.39
868.263	17.72
868.553	-5.77
868.843	-3.91
869.133	-23.5
869.423	10.46
869.713	4.14
870.002	1.84
870.292	-16.78
870.582	2.15
870.871	19.57
871.161	-14.98
871.45	8.64
871.739	16.23
872.029	-0.95
872.318	16.88
872.607	11.65
872.896	-28.82
873.185	-10.4
873.474	26.28
873.763	-12.53
874.052	-20.44
874.341	-1.18
874.63	3.68
874.918	3.89
875.207	4.52
875.496	-27.54
875.784	7.23
876.073	-12.46
876.361	10.38
876.649	9.24
876.938	-4.95
877.226	1.15
877.514	-5.31
877.802	7.03
878.09	10.26
878.378	9.92
878.666	-3.95
878.954	-14.86
879.242	4.16
879.53	3.87
879.817	-21.64
880.105	-2.02
880.392	9.56
880.68	-10.55
880.967	-3.63
881.255	-12.7
881.542	5.52
881.83	19.71
882.117	13.76
882.404	11.32
882.691	-13.44
882.978	-1.91
883.265	-21.48
883.552	17.13
883.839	10.26
884.126	0.35
884.413	-3.68
884.699	-1.63
884.986	5.17
885.273	5.74
885.559	5.74
885.846	5.74
