Data from 0244_forehead_Reflection__4__122.txt Node

Date: Fri Oct 20 21:33:25 CDT 2023
User: ToomeyLab
Spectrometer: FLMS14357
Trigger mode: 0
Integration Time (sec): 1.000000E-2
Scans to average: 100
Electric dark correction enabled: true
Nonlinearity correction enabled: false
Boxcar width: 0
XAxis mode: Wavelengths
Number of Pixels in Spectrum: 2048
>>>>>Begin Spectral Data<<<<<
189.047	92.92
189.435	92.92
189.823	92.92
190.211	3767.2
190.599	35.75
190.987	67.65
191.375	-57.25
191.763	103.48
192.151	35.85
192.538	-14763.16
192.926	-39.01
193.314	-262.93
193.702	152.31
194.089	187.77
194.477	17.19
194.864	-91.6
195.252	276.99
195.639	-34.65
196.027	141.9
196.414	194.39
196.801	-45.83
197.189	154.76
197.576	-167.88
197.963	-30.2
198.351	76.46
198.738	24.27
199.125	72.34
199.512	57.68
199.899	76.89
200.286	36.79
200.673	39.66
201.06	29.68
201.447	51.23
201.833	34.45
202.22	50.12
202.607	47.16
202.994	39.59
203.38	19.29
203.767	33.85
204.154	58.12
204.54	61.5
204.927	46.94
205.313	37.02
205.699	55.5
206.086	24.57
206.472	38.72
206.858	57.05
207.245	34.1
207.631	37.89
208.017	46.27
208.403	22.87
208.789	28.19
209.175	29.47
209.561	32.01
209.947	33.6
210.333	15.86
210.719	29.84
211.105	17.93
211.491	50.68
211.876	38.26
212.262	70.91
212.648	57.65
213.034	39.41
213.419	39.87
213.805	13.47
214.19	27.37
214.576	20.31
214.961	55.32
215.346	33.32
215.732	62.76
216.117	-11.8
216.502	22.92
216.888	16.25
217.273	25.87
217.658	1.86
218.043	13.72
218.428	8.13
218.813	16.88
219.198	14.41
219.583	6.27
219.968	-1.61
220.353	28.35
220.738	18.72
221.122	17.3
221.507	34.13
221.892	15.74
222.276	20.02
222.661	17.73
223.046	14.29
223.43	18.04
223.815	30.65
224.199	25.98
224.583	9.81
224.968	7.94
225.352	3.74
225.736	12.76
226.121	17.22
226.505	10.69
226.889	10.81
227.273	12.85
227.657	13.48
228.041	12.24
228.425	13.08
228.809	10.89
229.193	9.87
229.577	11.73
229.961	5.6
230.344	5.67
230.728	5.17
231.112	5.97
231.495	5.76
231.879	5.54
232.263	7.02
232.646	6.37
233.03	6.27
233.413	6.55
233.797	5.37
234.18	4.45
234.563	7.28
234.946	8.65
235.33	6.9
235.713	7.25
236.096	6.88
236.479	6.31
236.862	6.67
237.245	5.72
237.628	7.2
238.011	5.71
238.394	7.86
238.777	8.7
239.16	5.83
239.543	7.17
239.925	7.93
240.308	7.67
240.691	7.35
241.073	7.44
241.456	6.75
241.838	5.3
242.221	6.16
242.603	6.39
242.986	5.96
243.368	6.19
243.75	5.73
244.133	5.72
244.515	4.82
244.897	5.17
245.279	5.64
245.661	4.25
246.043	5.96
246.425	5.59
246.807	5.98
247.189	6.19
247.571	5.65
247.953	5.91
248.335	5.91
248.717	5.01
249.098	4.91
249.48	5
249.862	5.36
250.243	5.65
250.625	5.4
251.006	5.5
251.388	5.44
251.769	6.23
252.151	5.91
252.532	5.77
252.913	5.94
253.295	4.35
253.676	6.29
254.057	5.83
254.438	5.81
254.819	5.19
255.2	5.45
255.581	6.07
255.962	5.73
256.343	6.37
256.724	4.95
257.105	6.01
257.486	5.72
257.867	4.98
258.247	6.07
258.628	6.49
259.009	5.37
259.389	5.44
259.77	5.04
260.15	6.26
260.531	5.76
260.911	5.55
261.292	4.95
261.672	5.17
262.052	5.31
262.432	5.12
262.813	4.78
263.193	5.25
263.573	4.94
263.953	5.31
264.333	5.73
264.713	5.57
265.093	6.04
265.473	5.96
265.853	5.37
266.233	5.28
266.612	4.8
266.992	5.96
267.372	5.23
267.752	5.17
268.131	6.03
268.511	5.26
268.89	5.6
269.27	5.24
269.649	4.97
270.029	5.35
270.408	5.73
270.787	5.25
271.167	5
271.546	5.63
271.925	5.94
272.304	5.26
272.683	5.36
273.062	5.35
273.441	5.12
273.82	5.25
274.199	5.51
274.578	5.12
274.957	5.42
275.336	5.03
275.715	5.09
276.093	5.24
276.472	5.54
276.851	5.52
277.229	5.37
277.608	4.54
277.986	4.76
278.365	5.02
278.743	4.68
279.122	4.94
279.5	5.03
279.878	4.67
280.257	5.61
280.635	5.1
281.013	5.26
281.391	5.74
281.769	5.26
282.147	5.02
282.525	5.75
282.903	5.18
283.281	5.14
283.659	5.08
284.037	5.69
284.415	4.66
284.792	4.59
285.17	5.2
285.548	5.33
285.925	5.11
286.303	4.95
286.68	5.03
287.058	5.41
287.435	5.3
287.813	4.49
288.19	4.76
288.567	5.1
288.945	4.81
289.322	5.3
289.699	4.74
290.076	5.59
290.453	5.08
290.83	5.03
291.207	5.58
291.584	4.88
291.961	4.96
292.338	4.97
292.715	5.13
293.092	5.37
293.469	5.41
293.845	5.31
294.222	5.41
294.599	5.53
294.975	6.18
295.352	5.34
295.728	5.76
296.105	5.6
296.481	5.31
296.858	5.81
297.234	5.59
297.61	4.87
297.986	5.36
298.363	5.96
298.739	5.61
299.115	5.25
299.491	5.39
299.867	5.44
300.243	5.58
300.619	5.62
300.995	5.69
301.371	6.09
301.746	5.86
302.122	6.03
302.498	5.83
302.874	5.88
303.249	6.03
303.625	6.15
304	6.14
304.376	5.96
304.751	5.92
305.127	5.74
305.502	6.49
305.878	6.08
306.253	6.26
306.628	6.42
307.003	6.31
307.378	6.5
307.754	6.22
308.129	6.95
308.504	7.18
308.879	6.63
309.254	6.65
309.629	6.46
310.003	6.43
310.378	6.89
310.753	6.62
311.128	7.1
311.502	6.78
311.877	6.88
312.252	6.78
312.626	7.39
313.001	7.08
313.375	7.07
313.75	6.98
314.124	6.86
314.498	7.35
314.873	7.02
315.247	7.11
315.621	7.82
315.995	7.72
316.369	7.08
316.743	7.44
317.117	7.48
317.491	7.21
317.865	8.3
318.239	7.73
318.613	8.06
318.987	7.6
319.361	7.49
319.734	7.86
320.108	7.71
320.482	8.24
320.855	8.39
321.229	8.72
321.602	8.43
321.976	7.99
322.349	8.77
322.723	8.57
323.096	8.34
323.469	8.97
323.843	8.69
324.216	8.68
324.589	8.41
324.962	9.29
325.335	8.88
325.708	8.87
326.081	8.97
326.454	8.86
326.827	8.99
327.2	9.56
327.573	9.13
327.945	9.05
328.318	8.81
328.691	9.1
329.063	9.31
329.436	8.73
329.809	9.51
330.181	9.47
330.553	9.18
330.926	9.04
331.298	8.43
331.671	9.09
332.043	9.57
332.415	9.65
332.787	9.41
333.159	9.5
333.532	9.91
333.904	9.75
334.276	8.96
334.648	9.55
335.02	10.02
335.391	9.37
335.763	10.17
336.135	10.28
336.507	10.04
336.879	9.7
337.25	10.28
337.622	9.88
337.993	10.9
338.365	10.08
338.736	9.98
339.108	10.49
339.479	9.85
339.851	10.49
340.222	10.25
340.593	9.82
340.964	9.87
341.336	10.55
341.707	10.39
342.078	10.62
342.449	10.18
342.82	10.08
343.191	10.38
343.562	10.54
343.933	10.65
344.303	10.75
344.674	10.73
345.045	11.11
345.416	10.76
345.786	10.65
346.157	10.94
346.527	10.45
346.898	10.61
347.268	10.69
347.639	11.04
348.009	10.76
348.38	10.97
348.75	11.27
349.12	10.91
349.49	11.33
349.861	11.31
350.231	11.08
350.601	11.09
350.971	12.06
351.341	11.44
351.711	11.88
352.081	11.19
352.45	10.96
352.82	11.2
353.19	11.55
353.56	11.62
353.929	11.3
354.299	11.44
354.669	11.39
355.038	11.98
355.408	11.85
355.777	11.94
356.147	11.68
356.516	11.61
356.885	11.45
357.254	11.67
357.624	11.64
357.993	11.39
358.362	11.54
358.731	11.48
359.1	11.74
359.469	11.87
359.838	11.61
360.207	12.03
360.576	12.1
360.945	11.85
361.314	12.29
361.682	12.12
362.051	11.64
362.42	11.89
362.788	12.2
363.157	12.1
363.525	12.07
363.894	12.03
364.262	11.96
364.631	12.29
364.999	12.37
365.367	12.31
365.735	12.57
366.104	12.23
366.472	12.22
366.84	12.86
367.208	12.84
367.576	12.57
367.944	12.65
368.312	12.69
368.68	12.92
369.048	13.2
369.416	13.26
369.783	12.84
370.151	13.09
370.519	13.11
370.886	12.93
371.254	13.5
371.621	13.26
371.989	12.87
372.356	13.11
372.724	13.6
373.091	13.3
373.458	13.54
373.826	13.19
374.193	13.39
374.56	13.5
374.927	13.52
375.294	13.94
375.661	13.76
376.028	13.88
376.395	13.96
376.762	13.66
377.129	13.58
377.496	13.74
377.863	14.17
378.229	14.09
378.596	14.19
378.963	14.09
379.329	13.98
379.696	13.74
380.062	14.21
380.429	14.24
380.795	14.12
381.161	13.85
381.528	14.37
381.894	14.19
382.26	14.35
382.626	14.52
382.993	14.17
383.359	14.25
383.725	14.77
384.091	14.7
384.457	14.91
384.823	14.61
385.188	14.58
385.554	14.78
385.92	14.73
386.286	14.56
386.651	14.83
387.017	14.97
387.383	14.93
387.748	14.62
388.114	14.79
388.479	14.85
388.845	15.25
389.21	14.94
389.575	14.85
389.94	15.06
390.306	15.24
390.671	15.3
391.036	14.94
391.401	15.23
391.766	15.37
392.131	15.39
392.496	15.53
392.861	15.5
393.226	15.31
393.591	15.38
393.956	15.62
394.32	15.63
394.685	15.54
395.05	15.93
395.414	16.21
395.779	15.55
396.143	15.85
396.508	15.83
396.872	15.76
397.236	15.59
397.601	15.91
397.965	15.77
398.329	16.01
398.694	16.27
399.058	15.95
399.422	16.03
399.786	16.21
400.15	16.22
400.514	16.22
400.878	16.47
401.242	16.66
401.605	16.43
401.969	16.32
402.333	16.4
402.697	16.65
403.06	16.34
403.424	16.74
403.787	16.71
404.151	16.76
404.514	16.97
404.878	16.89
405.241	16.86
405.604	16.92
405.968	16.95
406.331	16.94
406.694	16.8
407.057	16.7
407.42	17.37
407.783	16.97
408.146	17.05
408.509	17.22
408.872	17.61
409.235	17.05
409.598	17.43
409.961	17.47
410.323	17.36
410.686	17.25
411.049	17.55
411.411	17.63
411.774	17.54
412.136	17.61
412.499	17.67
412.861	17.63
413.223	17.61
413.586	17.96
413.948	17.81
414.31	18.36
414.672	17.66
415.035	17.7
415.397	17.92
415.759	18.26
416.121	18.28
416.483	18.32
416.845	18.16
417.206	18.33
417.568	18.42
417.93	18.54
418.292	18.2
418.653	18.26
419.015	18.21
419.377	18.36
419.738	18.16
420.1	18.22
420.461	18.35
420.822	18.31
421.184	18.1
421.545	18.29
421.906	18.26
422.267	18.33
422.629	18.44
422.99	18.22
423.351	18.32
423.712	18.26
424.073	18.37
424.434	18.38
424.795	18.42
425.155	18.65
425.516	18.64
425.877	18.68
426.238	18.6
426.598	18.56
426.959	18.67
427.32	18.63
427.68	18.94
428.041	18.97
428.401	19.2
428.761	19.3
429.122	19.21
429.482	19.34
429.842	19.54
430.202	19.63
430.563	19.63
430.923	19.96
431.283	19.84
431.643	19.89
432.003	19.84
432.363	19.73
432.722	20.06
433.082	20.06
433.442	20.1
433.802	20.16
434.161	20.01
434.521	20.17
434.881	20.17
435.24	19.95
435.6	19.91
435.959	20.29
436.319	20.19
436.678	20.33
437.037	20.38
437.396	20.53
437.756	20.38
438.115	20.45
438.474	20.74
438.833	20.76
439.192	20.63
439.551	20.6
439.91	20.71
440.269	20.8
440.628	20.88
440.987	20.91
441.345	20.71
441.704	20.88
442.063	20.86
442.421	20.69
442.78	20.8
443.138	20.94
443.497	20.88
443.855	20.97
444.214	21.27
444.572	21.24
444.93	21.49
445.288	21.44
445.647	21.7
446.005	21.47
446.363	21.54
446.721	21.53
447.079	21.57
447.437	21.57
447.795	21.52
448.153	21.49
448.51	21.37
448.868	21.3
449.226	21.34
449.584	21.51
449.941	21.58
450.299	21.76
450.656	21.84
451.014	21.99
451.371	22.14
451.729	22.02
452.086	22.23
452.443	22.51
452.801	22.47
453.158	22.72
453.515	22.52
453.872	22.66
454.229	22.58
454.586	22.74
454.943	22.56
455.3	22.65
455.657	22.86
456.014	22.72
456.371	22.87
456.727	22.99
457.084	22.99
457.441	22.99
457.797	23.3
458.154	23.13
458.51	23.51
458.867	23.4
459.223	23.55
459.58	23.46
459.936	23.53
460.292	23.53
460.648	23.33
461.005	23.26
461.361	23.3
461.717	23.03
462.073	23.1
462.429	23.24
462.785	23.24
463.141	23.49
463.496	23.65
463.852	23.96
464.208	24
464.564	24.22
464.919	24.17
465.275	24.34
465.631	24.39
465.986	24.41
466.342	24.42
466.697	24.51
467.052	24.31
467.408	24.57
467.763	24.59
468.118	24.99
468.473	24.67
468.829	24.89
469.184	24.76
469.539	24.58
469.894	24.92
470.249	24.98
470.603	25.09
470.958	25.13
471.313	25.33
471.668	25.28
472.023	25.38
472.377	25.16
472.732	25.36
473.086	25.53
473.441	25.49
473.795	25.6
474.15	25.62
474.504	25.63
474.859	25.73
475.213	25.72
475.567	25.74
475.921	25.96
476.275	25.84
476.63	26.24
476.984	26.16
477.338	26
477.692	26.05
478.045	26.12
478.399	26.01
478.753	26.34
479.107	26.2
479.461	26.14
479.814	26.3
480.168	26.34
480.521	26.38
480.875	26.15
481.228	26.55
481.582	26.52
481.935	26.53
482.289	26.83
482.642	26.53
482.995	26.55
483.348	26.66
483.701	26.78
484.055	26.59
484.408	26.42
484.761	26.24
485.114	25.99
485.466	25.77
485.819	25.56
486.172	25.55
486.525	25.74
486.878	25.86
487.23	26.02
487.583	26.13
487.936	26.34
488.288	26.59
488.641	26.56
488.993	26.35
489.345	26.37
489.698	26.28
490.05	26.33
490.402	26.37
490.754	26.56
491.107	26.7
491.459	27.04
491.811	27.16
492.163	27.33
492.515	27.49
492.866	27.52
493.218	27.27
493.57	27.03
493.922	27.05
494.274	27.04
494.625	27.23
494.977	27.55
495.328	27.95
495.68	28.08
496.031	28.12
496.383	28.54
496.734	28.86
497.086	28.75
497.437	28.94
497.788	28.93
498.139	29.12
498.49	28.73
498.842	28.78
499.193	28.74
499.544	28.76
499.894	28.91
500.245	28.89
500.596	29.12
500.947	29.13
501.298	29.15
501.648	29.47
501.999	29.45
502.35	29.45
502.7	29.77
503.051	29.89
503.401	29.96
503.752	29.86
504.102	30.04
504.452	29.84
504.803	29.96
505.153	30.28
505.503	30.07
505.853	30.07
506.203	30.13
506.553	30.09
506.903	30.32
507.253	30.31
507.603	30.4
507.953	30.45
508.303	30.45
508.652	30.71
509.002	30.85
509.352	30.62
509.701	30.8
510.051	30.46
510.4	30.74
510.75	30.85
511.099	30.67
511.449	30.64
511.798	30.63
512.147	30.98
512.496	30.81
512.846	30.93
513.195	31.17
513.544	31.05
513.893	30.95
514.242	31.06
514.591	31.29
514.939	31.17
515.288	31.2
515.637	31.48
515.986	31.63
516.334	31.53
516.683	31.69
517.032	31.76
517.38	31.73
517.729	32.04
518.077	31.94
518.426	32.12
518.774	31.91
519.122	31.83
519.47	32.02
519.819	31.84
520.167	31.74
520.515	31.77
520.863	31.72
521.211	31.67
521.559	31.77
521.907	31.95
522.255	31.95
522.602	32.32
522.95	32.25
523.298	32.64
523.645	32.67
523.993	32.78
524.341	32.79
524.688	32.96
525.036	33.04
525.383	33.04
525.73	32.98
526.078	33.01
526.425	33.06
526.772	33.09
527.119	32.9
527.466	32.63
527.814	32.66
528.161	32.61
528.508	32.68
528.854	32.73
529.201	32.71
529.548	32.85
529.895	32.7
530.242	32.53
530.588	32.26
530.935	32.23
531.282	32.36
531.628	32.38
531.975	32.48
532.321	32.74
532.667	32.84
533.014	33.25
533.36	33.32
533.706	33.65
534.052	33.73
534.399	33.53
534.745	33.52
535.091	33.35
535.437	33.24
535.783	33.24
536.129	33.45
536.474	33.56
536.82	33.72
537.166	33.99
537.512	33.99
537.857	34.36
538.203	34.37
538.549	34.3
538.894	34.15
539.239	34.11
539.585	34.46
539.93	34.6
540.276	34.88
540.621	34.94
540.966	35.27
541.311	35.36
541.656	35.32
542.001	35.41
542.346	35.25
542.691	34.9
543.036	34.65
543.381	34.42
543.726	34.31
544.071	34.51
544.415	34.45
544.76	34.64
545.105	35.05
545.449	34.88
545.794	35.12
546.138	35.31
546.483	35.42
546.827	35.7
547.171	35.81
547.516	35.88
547.86	36.14
548.204	36
548.548	36.09
548.892	35.95
549.236	36.05
549.58	36.09
549.924	36.19
550.268	36.46
550.612	36.67
550.956	36.99
551.3	37.02
551.643	37.24
551.987	37.53
552.33	37.19
552.674	37.48
553.017	37.3
553.361	37.65
553.704	37.89
554.048	37.67
554.391	37.62
554.734	37.7
555.077	37.56
555.42	37.47
555.764	37.48
556.107	37.92
556.45	37.71
556.793	37.73
557.135	38.03
557.478	38.08
557.821	38.23
558.164	38.16
558.507	38.58
558.849	38.54
559.192	38.43
559.534	38.83
559.877	38.39
560.219	38.64
560.562	38.92
560.904	38.68
561.246	38.95
561.589	38.81
561.931	39.07
562.273	39.24
562.615	38.96
562.957	39
563.299	39.38
563.641	39.16
563.983	38.95
564.325	39.13
564.667	39.34
565.008	39.22
565.35	39.65
565.692	39.57
566.033	39.67
566.375	39.5
566.716	39.66
567.058	39.54
567.399	39.52
567.741	39.29
568.082	39.92
568.423	39.41
568.764	39.38
569.105	39.76
569.447	39.5
569.788	39.65
570.129	39.85
570.47	39.8
570.811	40.03
571.151	40.24
571.492	40.39
571.833	40.23
572.174	40.42
572.514	40.1
572.855	40.47
573.195	40.52
573.536	40.3
573.876	40.29
574.217	40.03
574.557	40.16
574.898	40.37
575.238	40.42
575.578	40.42
575.918	40.47
576.258	40.68
576.598	40.95
576.938	40.72
577.278	40.83
577.618	40.91
577.958	41
578.298	40.84
578.638	41.16
578.977	41.27
579.317	41.33
579.657	41.52
579.996	41.59
580.336	41.6
580.675	41.38
581.014	41.71
581.354	42.02
581.693	41.76
582.032	42
582.372	42.16
582.711	42.15
583.05	42.43
583.389	42.35
583.728	42.01
584.067	42.62
584.406	42.65
584.745	42.5
585.083	42.44
585.422	42.61
585.761	42.7
586.1	42.88
586.438	42.7
586.777	42.73
587.115	42.76
587.454	43.14
587.792	43.06
588.13	42.64
588.469	43.39
588.807	43.03
589.145	43.19
589.483	43.29
589.821	43.23
590.159	43.48
590.497	43.29
590.835	43.15
591.173	43.47
591.511	43.66
591.849	43.29
592.187	43.59
592.524	43.3
592.862	43.29
593.2	43.53
593.537	43.48
593.875	43.88
594.212	43.79
594.55	43.59
594.887	43.78
595.224	43.53
595.561	43.88
595.899	43.63
596.236	44
596.573	43.98
596.91	43.78
597.247	44.1
597.584	43.97
597.921	44.27
598.258	43.95
598.594	44.02
598.931	43.75
599.268	43.73
599.604	43.81
599.941	43.71
600.277	44.06
600.614	44.42
600.95	44.31
601.287	44.37
601.623	44.76
601.959	44.7
602.296	44.8
602.632	45.13
602.968	44.73
603.304	44.95
603.64	44.96
603.976	45.18
604.312	45.22
604.648	45.02
604.984	45.26
605.319	45.02
605.655	44.98
605.991	45.21
606.326	45.27
606.662	44.59
606.998	44.59
607.333	45.21
607.668	44.82
608.004	44.97
608.339	45.23
608.674	45.32
609.01	45.32
609.345	45.81
609.68	45.84
610.015	45.66
610.35	45.95
610.685	45.91
611.02	45.77
611.355	45.77
611.689	45.61
612.024	45.67
612.359	45.79
612.694	45.99
613.028	46.11
613.363	46.15
613.697	46.23
614.032	46.4
614.366	46.21
614.7	46.61
615.035	46.46
615.369	46.6
615.703	46.21
616.037	47.04
616.371	46.88
616.705	46.73
617.039	47.08
617.373	47.32
617.707	47.33
618.041	47.51
618.375	47.3
618.709	47.13
619.042	47.06
619.376	47.83
619.71	47.69
620.043	47.61
620.377	46.93
620.71	47.61
621.043	48
621.377	47.44
621.71	47.61
622.043	47.72
622.376	47.8
622.709	47.83
623.043	47.8
623.376	48.09
623.709	47.92
624.041	48.07
624.374	47.87
624.707	47.65
625.04	48.15
625.373	48.19
625.705	48.42
626.038	48.36
626.37	48.41
626.703	48.33
627.035	48.61
627.368	48.23
627.7	48.7
628.032	48.65
628.365	48.34
628.697	48.64
629.029	48.35
629.361	48.46
629.693	48.43
630.025	48.18
630.357	48.75
630.689	48.64
631.021	48.95
631.353	48.72
631.684	49.17
632.016	49.24
632.348	49.33
632.679	48.77
633.011	49.08
633.342	48.88
633.674	49.22
634.005	49.23
634.336	49.59
634.668	49.24
634.999	49.14
635.33	49.18
635.661	49.61
635.992	49.37
636.323	49.38
636.654	49.73
636.985	49.04
637.316	48.98
637.647	49.72
637.977	49.41
638.308	49.56
638.639	49.62
638.969	50.08
639.3	49.94
639.63	50.19
639.961	49.7
640.291	50.02
640.622	50.37
640.952	50.21
641.282	50.06
641.612	50.38
641.943	50.77
642.273	50.39
642.603	50.6
642.933	50.63
643.263	51.09
643.592	50.42
643.922	51.05
644.252	50.08
644.582	51.19
644.911	50.66
645.241	51.15
645.571	50.94
645.9	50.63
646.23	50.87
646.559	50.83
646.888	51.69
647.218	50.78
647.547	51.46
647.876	52.03
648.205	51.45
648.534	50.99
648.863	51.17
649.192	50.54
649.521	51.29
649.85	51.9
650.179	51.48
650.508	51.9
650.837	51.37
651.165	51
651.494	51.18
651.822	51.13
652.151	51.79
652.479	51.67
652.808	51.68
653.136	51.46
653.465	51.47
653.793	52.37
654.121	52.26
654.449	51.59
654.777	52.1
655.105	51.67
655.433	52.11
655.761	51.71
656.089	52.31
656.417	51.98
656.745	52.46
657.073	52.23
657.4	52.91
657.728	52.58
658.056	52.18
658.383	52.19
658.711	52.61
659.038	52.4
659.365	52.42
659.693	52.57
660.02	52.59
660.347	52.65
660.674	52.82
661.001	52.6
661.329	52.41
661.656	52.4
661.982	52.92
662.309	52.26
662.636	53.06
662.963	52.6
663.29	52.79
663.616	52.99
663.943	52.56
664.27	52.47
664.596	52.9
664.923	52.64
665.249	53.19
665.576	53.28
665.902	53.1
666.228	52.94
666.554	53.43
666.881	53.69
667.207	53.24
667.533	53.51
667.859	53.42
668.185	53.51
668.511	53.61
668.837	53.58
669.162	53.95
669.488	53.75
669.814	53.89
670.139	53.76
670.465	53.49
670.791	53.55
671.116	53.78
671.442	54.11
671.767	53.91
672.092	54.41
672.418	53.98
672.743	53.07
673.068	54.55
673.393	54.13
673.718	53.88
674.043	54.62
674.368	54.4
674.693	54.14
675.018	54.48
675.343	54.16
675.667	54.03
675.992	54.49
676.317	54.39
676.641	54.2
676.966	55.09
677.29	54
677.615	54.1
677.939	53.75
678.264	54.93
678.588	54.49
678.912	55.1
679.236	55.14
679.56	54.1
679.885	54.91
680.209	55.08
680.532	54.64
680.856	55.12
681.18	54.77
681.504	55.13
681.828	55.93
682.152	55.66
682.475	54.85
682.799	54.93
683.122	55.32
683.446	55.43
683.769	55.21
684.093	55.42
684.416	55.47
684.739	55.23
685.062	55.22
685.386	55.67
685.709	55.57
686.032	55.78
686.355	55.73
686.678	55.35
687.001	56.75
687.324	55.43
687.646	54.86
687.969	55.96
688.292	55.35
688.614	55.42
688.937	55.88
689.26	56.06
689.582	55.49
689.904	55.44
690.227	56
690.549	55.99
690.871	56.21
691.194	56.72
691.516	56.94
691.838	57.18
692.16	56.55
692.482	55.7
692.804	56.03
693.126	55.99
693.448	56.98
693.769	57.24
694.091	56.52
694.413	56.46
694.735	56.44
695.056	57.27
695.378	57.81
695.699	57.01
696.021	56.82
696.342	56.51
696.663	55.6
696.984	56.56
697.306	56.33
697.627	56.99
697.948	56.06
698.269	57.48
698.59	57.05
698.911	56.79
699.232	56.32
699.553	57.8
699.873	56.31
700.194	56.83
700.515	56.65
700.835	56.76
701.156	56.93
701.477	57.24
701.797	57.31
702.117	56.94
702.438	56.51
702.758	56.73
703.078	57.48
703.398	57.64
703.719	56.68
704.039	57.5
704.359	56.55
704.679	58.66
704.999	57.06
705.319	58.08
705.638	57.9
705.958	58.05
706.278	57.55
706.597	58.1
706.917	57.67
707.237	57.72
707.556	56.24
707.876	57.99
708.195	57.23
708.514	57.69
708.834	59.24
709.153	58.97
709.472	57.87
709.791	58.36
710.11	58.55
710.429	58.11
710.748	57.32
711.067	57.34
711.386	57.41
711.705	58.04
712.023	58.12
712.342	58.15
712.661	58.16
712.979	57.43
713.298	58.75
713.616	58.41
713.935	58.31
714.253	58.14
714.572	58.99
714.89	58.41
715.208	58.31
715.526	58.88
715.844	58.91
716.162	59.31
716.48	58.98
716.798	58.31
717.116	58.54
717.434	59.86
717.752	60.43
718.069	58.62
718.387	57.88
718.705	58.09
719.022	58.96
719.34	59.18
719.657	59.58
719.975	58.87
720.292	58.62
720.609	60.09
720.927	59.19
721.244	58.06
721.561	60.02
721.878	59.81
722.195	58.98
722.512	60.45
722.829	60.96
723.146	59.59
723.463	59.23
723.779	60.79
724.096	58.66
724.413	59.28
724.729	60.65
725.046	59.53
725.362	60.68
725.679	59.69
725.995	59.31
726.311	59.19
726.628	60.17
726.944	60.65
727.26	59.01
727.576	60.78
727.892	59.51
728.208	60.99
728.524	58.27
728.84	59.07
729.156	60.88
729.472	59.68
729.787	59.48
730.103	60.24
730.419	61.06
730.734	59.57
731.05	58.12
731.365	60.42
731.681	60.64
731.996	60.24
732.311	59.72
732.626	60.32
732.942	60.91
733.257	60.35
733.572	60.65
733.887	60.18
734.202	60.47
734.517	60.5
734.832	61.82
735.146	61.7
735.461	60.34
735.776	61.02
736.091	60.28
736.405	60.37
736.72	60.45
737.034	61.25
737.349	62.02
737.663	61.22
737.977	61.56
738.292	60.54
738.606	61.89
738.92	62.55
739.234	60.18
739.548	60.54
739.862	60.71
740.176	62.27
740.49	62.08
740.804	62.57
741.117	60.28
741.431	58.87
741.745	61
742.058	60.21
742.372	60.54
742.685	60.9
742.999	63.36
743.312	60.16
743.626	62.01
743.939	62.3
744.252	60.47
744.565	63.96
744.878	60.94
745.191	63.66
745.505	62.05
745.817	61.55
746.13	61.05
746.443	59.28
746.756	61.12
747.069	62.14
747.381	60.76
747.694	62.44
748.007	62.84
748.319	60.92
748.632	62.25
748.944	63.39
749.256	60.1
749.569	63.19
749.881	63.49
750.193	59.87
750.505	61.57
750.817	63.48
751.129	62.35
751.441	61.61
751.753	63.99
752.065	63.22
752.377	61.98
752.689	62.43
753	62.47
753.312	62.44
753.624	60.44
753.935	63.17
754.247	64.3
754.558	63.6
754.869	62.53
755.181	62.76
755.492	63.51
755.803	64.71
756.114	61.5
756.425	62.96
756.736	62.82
757.047	61.54
757.358	61.94
757.669	62.33
757.98	61.32
758.291	64.46
758.601	64.5
758.912	62.1
759.223	62.78
759.533	63.81
759.844	62.32
760.154	61.23
760.464	62.81
760.775	62.9
761.085	63.05
761.395	63.18
761.705	62.83
762.016	63.32
762.326	64.99
762.636	63.67
762.945	60.12
763.255	64.82
763.565	63.1
763.875	63.69
764.185	63.72
764.494	64.07
764.804	62.99
765.113	63.53
765.423	63.22
765.732	62.93
766.042	63.17
766.351	63.7
766.66	63.26
766.97	65.34
767.279	62.77
767.588	63.28
767.897	63.35
768.206	62.41
768.515	64.06
768.824	63.76
769.133	63.1
769.441	62.09
769.75	63.01
770.059	62.35
770.367	64.98
770.676	61.55
770.984	63.03
771.293	62.82
771.601	64.49
771.91	62.12
772.218	66.59
772.526	65
772.834	64.49
773.142	63.61
773.45	64.46
773.758	67.05
774.066	64.25
774.374	64.33
774.682	64.36
774.99	64.78
775.298	61.84
775.605	62.73
775.913	66.15
776.22	62.68
776.528	64.09
776.835	63.89
777.143	66.24
777.45	65.78
777.757	64.14
778.065	65.22
778.372	62.74
778.679	67.09
778.986	62.03
779.293	63.02
779.6	64.83
779.907	64.37
780.214	63.94
780.52	65.74
780.827	66.85
781.134	64.2
781.44	63.14
781.747	62.97
782.053	63.83
782.36	64.04
782.666	63.24
782.973	65.52
783.279	62.93
783.585	60.53
783.891	64.87
784.197	65.42
784.503	63.97
784.809	61.82
785.115	62.23
785.421	67.22
785.727	64.31
786.033	64.28
786.339	66.33
786.644	66.71
786.95	68.77
787.255	66.81
787.561	64.01
787.866	67.93
788.172	67.18
788.477	63.39
788.782	65.32
789.088	66.84
789.393	63.25
789.698	64.83
790.003	65.09
790.308	61.9
790.613	63.19
790.918	67.77
791.223	64.39
791.527	61.65
791.832	65.24
792.137	66.1
792.441	65.52
792.746	65.13
793.05	66.19
793.355	65.39
793.659	67.19
793.963	65.14
794.268	64.06
794.572	68.84
794.876	64.81
795.18	64.57
795.484	64.73
795.788	65.51
796.092	66.23
796.396	68.45
796.7	65.01
797.004	61.55
797.307	68.39
797.611	69.13
797.915	64.46
798.218	68.67
798.522	67.53
798.825	66.94
799.128	67.02
799.432	67
799.735	69.64
800.038	65.68
800.341	69.82
800.644	67.18
800.947	65.1
801.25	63.26
801.553	64.9
801.856	69.37
802.159	65.05
802.462	68.54
802.764	66.57
803.067	66.4
803.37	66.8
803.672	65.59
803.975	65.91
804.277	68.7
804.579	66.68
804.882	69.82
805.184	66.36
805.486	63.26
805.788	66.15
806.09	69.5
806.392	68.48
806.694	64.64
806.996	63.86
807.298	69.81
807.6	70.13
807.902	68.95
808.203	68.35
808.505	64.45
808.807	61.89
809.108	66.33
809.409	66.38
809.711	63.16
810.012	65.27
810.313	66.88
810.615	66.79
810.916	68.05
811.217	71.95
811.518	67.6
811.819	60.39
812.12	67.55
812.421	67.02
812.722	66.04
813.023	71.43
813.323	61.6
813.624	70.89
813.925	65.92
814.225	67.82
814.526	66.53
814.826	58.72
815.126	61.84
815.427	65.17
815.727	64.03
816.027	63.99
816.327	67.88
816.627	67.62
816.927	67.69
817.227	63.97
817.527	61.13
817.827	66.11
818.127	69.62
818.427	66.28
818.727	61.92
819.026	64.65
819.326	70.82
819.625	68.47
819.925	66.09
820.224	62.46
820.524	63.21
820.823	60.36
821.122	67.97
821.421	64.59
821.72	73.93
822.019	64.35
822.318	71.84
822.617	65.72
822.916	66.3
823.215	65.19
823.514	65.53
823.813	66.97
824.111	68.22
824.41	67.58
824.709	68.49
825.007	67.36
825.306	69.4
825.604	68.79
825.902	68.33
826.201	67.71
826.499	68.51
826.797	66.09
827.095	66.98
827.393	65.35
827.691	67.25
827.989	65.76
828.287	65.83
828.585	66.1
828.882	63.41
829.18	66.97
829.478	66.37
829.775	67.66
830.073	66.87
830.37	68.69
830.668	66.86
830.965	66.06
831.263	67.84
831.56	66.37
831.857	66.24
832.154	66.52
832.451	68.98
832.748	70.58
833.045	65.17
833.342	66.12
833.639	65.96
833.936	63.84
834.232	64.98
834.529	64.98
834.826	68.4
835.122	66.46
835.419	66.61
835.715	61.78
836.012	68.27
836.308	63.65
836.604	70.07
836.901	68.54
837.197	68.63
837.493	69.06
837.789	65.35
838.085	66.56
838.381	73.07
838.677	64.57
838.972	66.82
839.268	65.81
839.564	69.08
839.86	61.54
840.155	75.83
840.451	65.08
840.746	59.57
841.042	70.46
841.337	60.3
841.632	65.3
841.928	70.95
842.223	74.82
842.518	61.7
842.813	66.47
843.108	78.33
843.403	73.59
843.698	65.62
843.993	73.66
844.287	73.33
844.582	59.79
844.877	74.05
845.171	60.46
845.466	62.17
845.761	62.28
846.055	68.91
846.349	60.11
846.644	62.45
846.938	64.65
847.232	70.88
847.526	63.36
847.82	52.45
848.114	70.34
848.408	57.15
848.702	48.59
848.996	80.53
849.29	65.19
849.584	68.46
849.877	72.88
850.171	69.36
850.465	50.6
850.758	68.88
851.052	82.83
851.345	58.66
851.638	60.8
851.932	58.87
852.225	64.76
852.518	60.19
852.811	51.57
853.104	65.08
853.397	63.09
853.69	66.57
853.983	66.46
854.276	70.35
854.569	74.25
854.861	43.74
855.154	89.53
855.447	51.63
855.739	81.7
856.032	56.92
856.324	66.47
856.616	61.81
856.909	66.78
857.201	74.36
857.493	62.41
857.785	64.63
858.077	67
858.369	58.56
858.661	74.39
858.953	73.72
859.245	67.87
859.537	66.72
859.829	74.26
860.12	79.76
860.412	74.9
860.703	71.34
860.995	71.59
861.286	64.23
861.578	70.9
861.869	56.76
862.16	79.71
862.452	62.13
862.743	78.81
863.034	50.56
863.325	61.11
863.616	70.26
863.907	77.09
864.198	73.62
864.488	79.32
864.779	75.28
865.07	66.43
865.36	73.94
865.651	65.74
865.941	64.99
866.232	67.21
866.522	46.51
866.813	45.46
867.103	86.05
867.393	80.87
867.683	74.69
867.973	81.7
868.263	83.6
868.553	84.75
868.843	55.27
869.133	71.62
869.423	68.25
869.713	60.05
870.002	56.36
870.292	70
870.582	71.16
870.871	66.7
871.161	75.92
871.45	75.28
871.739	79.47
872.029	62.44
872.318	75.57
872.607	85.29
872.896	75.53
873.185	77.38
873.474	70.08
873.763	54.56
874.052	96.02
874.341	69.16
874.63	58.29
874.918	69.51
875.207	70.1
875.496	81.15
875.784	87.79
876.073	68.82
876.361	84.61
876.649	69.2
876.938	72.96
877.226	74.12
877.514	62.21
877.802	64.05
878.09	69.19
878.378	65.95
878.666	53.19
878.954	52.06
879.242	68.72
879.53	85.31
879.817	71.24
880.105	110.17
880.392	44.17
880.68	55.3
880.967	80.72
881.255	68.92
881.542	73.78
881.83	55.92
882.117	82.12
882.404	65.68
882.691	82.31
882.978	93.86
883.265	74.62
883.552	80.19
883.839	64.97
884.126	77.58
884.413	65.76
884.699	61.98
884.986	74.41
885.273	80.04
885.559	80.04
885.846	80.04
