Data from 0244_forehead_Reflection__0__118.txt Node

Date: Fri Oct 20 21:32:47 CDT 2023
User: ToomeyLab
Spectrometer: FLMS14357
Trigger mode: 0
Integration Time (sec): 1.000000E-2
Scans to average: 100
Electric dark correction enabled: true
Nonlinearity correction enabled: false
Boxcar width: 0
XAxis mode: Wavelengths
Number of Pixels in Spectrum: 2048
>>>>>Begin Spectral Data<<<<<
189.047	-178.69
189.435	-178.69
189.823	-178.69
190.211	2111.2
190.599	25.33
190.987	67.01
191.375	-185.5
191.763	62.6
192.151	126.73
192.538	11878.95
192.926	53.01
193.314	-90.07
193.702	-23.14
194.089	223.46
194.477	392.46
194.864	-187.34
195.252	-55.1
195.639	10.85
196.027	-31.84
196.414	2.24
196.801	-57
197.189	101.62
197.576	-276.72
197.963	-246.02
198.351	50.15
198.738	-2.03
199.125	59.8
199.512	43.03
199.899	19.42
200.286	4.77
200.673	24.87
201.06	21.54
201.447	22.03
201.833	23.33
202.22	51.09
202.607	36.49
202.994	39.06
203.38	13.31
203.767	15.36
204.154	47.85
204.54	40.23
204.927	8.75
205.313	-16.68
205.699	39.57
206.086	39.71
206.472	33.88
206.858	41.47
207.245	36.98
207.631	53.42
208.017	55.66
208.403	22.5
208.789	36.98
209.175	24.59
209.561	13.22
209.947	6.92
210.333	27.01
210.719	23.12
211.105	45.36
211.491	30.74
211.876	13.4
212.262	17.41
212.648	48.14
213.034	1.81
213.419	20.16
213.805	-3.14
214.19	5.31
214.576	15.5
214.961	8.29
215.346	25.11
215.732	12.63
216.117	-20.31
216.502	28.02
216.888	29.04
217.273	18.45
217.658	16.72
218.043	-9.24
218.428	7.37
218.813	15.86
219.198	0.22
219.583	1.81
219.968	-6.68
220.353	-6.01
220.738	14.8
221.122	-3.17
221.507	11.14
221.892	15.13
222.276	18.72
222.661	42.53
223.046	14.15
223.43	12.7
223.815	18.61
224.199	17.44
224.583	-4.64
224.968	-6.26
225.352	1.97
225.736	-1.46
226.121	10.11
226.505	0.85
226.889	4.26
227.273	6.87
227.657	9.76
228.041	7.89
228.425	2.02
228.809	6.98
229.193	4.77
229.577	5.02
229.961	1.63
230.344	2.79
230.728	0.93
231.112	2.32
231.495	1.27
231.879	2.98
232.263	3.16
232.646	1.17
233.03	1.83
233.413	1.29
233.797	2.03
234.18	2.17
234.563	2.37
234.946	4.47
235.33	3.76
235.713	2.52
236.096	3.28
236.479	2.8
236.862	2.54
237.245	2
237.628	0.39
238.011	3.01
238.394	2.37
238.777	3.57
239.16	3.53
239.543	4.84
239.925	2.98
240.308	2.28
240.691	5.36
241.073	3.09
241.456	3.51
241.838	1.81
242.221	3.83
242.603	3.33
242.986	2.42
243.368	3.67
243.75	1.88
244.133	1.43
244.515	1.67
244.897	1.95
245.279	2.26
245.661	2.41
246.043	1.8
246.425	2.39
246.807	3.6
247.189	2.47
247.571	1.43
247.953	2.4
248.335	2.5
248.717	2.19
249.098	1.76
249.48	1.81
249.862	2.01
250.243	2.09
250.625	2.28
251.006	2.52
251.388	2.34
251.769	2.4
252.151	2.72
252.532	2.9
252.913	2.27
253.295	1.62
253.676	2.45
254.057	1.89
254.438	1.87
254.819	2.01
255.2	2.39
255.581	2.2
255.962	2.21
256.343	3.05
256.724	1.41
257.105	2.03
257.486	4
257.867	2.38
258.247	1.96
258.628	2.29
259.009	2.34
259.389	1.9
259.77	2.15
260.15	2.21
260.531	2.22
260.911	2.12
261.292	1.88
261.672	2.19
262.052	2.11
262.432	2.05
262.813	2.12
263.193	2.03
263.573	2.03
263.953	2.85
264.333	2.4
264.713	2.6
265.093	2.31
265.473	2.35
265.853	2.01
266.233	2.04
266.612	1.69
266.992	2.3
267.372	2.24
267.752	1.94
268.131	2.46
268.511	2.15
268.89	2.26
269.27	2.04
269.649	1.49
270.029	1.87
270.408	1.93
270.787	2.75
271.167	2.32
271.546	2.01
271.925	2.81
272.304	2.13
272.683	2.04
273.062	2
273.441	2.11
273.82	1.97
274.199	2.37
274.578	2.47
274.957	2.18
275.336	2.13
275.715	2.54
276.093	2.23
276.472	2.56
276.851	2.81
277.229	2.09
277.608	1.68
277.986	2.13
278.365	2.5
278.743	1.71
279.122	1.76
279.5	1.59
279.878	1.49
280.257	1.74
280.635	2.03
281.013	2.63
281.391	2.23
281.769	1.94
282.147	1.69
282.525	2.34
282.903	1.73
283.281	2.43
283.659	1.84
284.037	2.03
284.415	1.64
284.792	2
285.17	2.23
285.548	1.89
285.925	1.71
286.303	1.61
286.68	2.1
287.058	2.38
287.435	2.09
287.813	1.67
288.19	1.74
288.567	1.92
288.945	2.3
289.322	2.44
289.699	1.81
290.076	2.34
290.453	2.13
290.83	2.04
291.207	2.34
291.584	2.16
291.961	2.27
292.338	1.99
292.715	2.26
293.092	2.25
293.469	2.4
293.845	1.73
294.222	2.44
294.599	2.48
294.975	2.41
295.352	2.38
295.728	2.51
296.105	2.41
296.481	2.28
296.858	2.29
297.234	2.4
297.61	2.36
297.986	2.22
298.363	2.52
298.739	2.54
299.115	2.19
299.491	2.59
299.867	2.4
300.243	2.5
300.619	2.51
300.995	2.25
301.371	3.14
301.746	2.52
302.122	2.68
302.498	2.8
302.874	2.64
303.249	2.79
303.625	3.16
304	3.07
304.376	2.61
304.751	2.44
305.127	3.32
305.502	3.82
305.878	2.98
306.253	3.27
306.628	3.57
307.003	3.57
307.378	3.05
307.754	3.27
308.129	3.93
308.504	3.38
308.879	3.43
309.254	3.54
309.629	3.05
310.003	3.24
310.378	4.05
310.753	3.51
311.128	3.35
311.502	3.72
311.877	3.53
312.252	3.15
312.626	3.64
313.001	3.55
313.375	3.67
313.75	3.79
314.124	3.43
314.498	3.81
314.873	3.8
315.247	3.82
315.621	4.04
315.995	4.43
316.369	3.5
316.743	4.09
317.117	3.8
317.491	3.74
317.865	4.79
318.239	4.73
318.613	4.08
318.987	4.03
319.361	3.67
319.734	4.15
320.108	3.92
320.482	4.7
320.855	4.47
321.229	4.82
321.602	4.6
321.976	4.35
322.349	5.2
322.723	4.59
323.096	5.03
323.469	4.64
323.843	4.84
324.216	4.92
324.589	4.86
324.962	5.51
325.335	4.9
325.708	4.98
326.081	5.03
326.454	5.04
326.827	5.13
327.2	5.15
327.573	5.13
327.945	5.21
328.318	4.93
328.691	5.2
329.063	5.39
329.436	5.02
329.809	5.3
330.181	5.47
330.553	5.28
330.926	4.93
331.298	5.28
331.671	5.04
332.043	4.91
332.415	5.26
332.787	5.78
333.159	5.44
333.532	5.66
333.904	5.56
334.276	5.22
334.648	5.84
335.02	5.71
335.391	5.52
335.763	5.87
336.135	5.49
336.507	5.72
336.879	5.88
337.25	5.77
337.622	5.72
337.993	6.2
338.365	5.77
338.736	6.16
339.108	6.25
339.479	5.5
339.851	5.81
340.222	6.2
340.593	5.64
340.964	5.59
341.336	6.58
341.707	6.34
342.078	5.91
342.449	5.77
342.82	5.62
343.191	5.95
343.562	6.05
343.933	6.39
344.303	6.17
344.674	6.44
345.045	6.52
345.416	6.62
345.786	5.94
346.157	5.98
346.527	6.06
346.898	6.43
347.268	6.23
347.639	6.7
348.009	6.28
348.38	6.1
348.75	6.15
349.12	6.34
349.49	6.37
349.861	7.28
350.231	6.42
350.601	6.68
350.971	6.89
351.341	6.49
351.711	7.16
352.081	6.73
352.45	6.63
352.82	6.76
353.19	6.83
353.56	6.76
353.929	6.48
354.299	7.05
354.669	6.88
355.038	7.07
355.408	7.17
355.777	6.9
356.147	6.88
356.516	6.78
356.885	6.8
357.254	7.01
357.624	6.99
357.993	6.86
358.362	6.92
358.731	6.44
359.1	6.67
359.469	6.85
359.838	7.08
360.207	7.06
360.576	6.97
360.945	6.99
361.314	7.17
361.682	7.03
362.051	7.28
362.42	7.1
362.788	7.12
363.157	7.28
363.525	7.28
363.894	7.39
364.262	7.15
364.631	7.32
364.999	7.31
365.367	7.42
365.735	7.41
366.104	7.49
366.472	7.48
366.84	7.42
367.208	7.54
367.576	7.61
367.944	7.56
368.312	7.46
368.68	7.73
369.048	7.7
369.416	7.94
369.783	8
370.151	8.09
370.519	7.46
370.886	7.51
371.254	8.2
371.621	8.11
371.989	7.57
372.356	7.98
372.724	8.22
373.091	7.71
373.458	8.05
373.826	7.94
374.193	7.98
374.56	8.18
374.927	7.84
375.294	8.23
375.661	8.12
376.028	8.6
376.395	8.43
376.762	8.18
377.129	8.26
377.496	8.15
377.863	8.26
378.229	8.65
378.596	8.54
378.963	8.53
379.329	8.63
379.696	8.72
380.062	8.48
380.429	8.29
380.795	8.25
381.161	8.63
381.528	8.76
381.894	8.74
382.26	8.39
382.626	9.07
382.993	8.86
383.359	8.61
383.725	8.69
384.091	8.69
384.457	8.6
384.823	8.83
385.188	8.8
385.554	8.97
385.92	9.15
386.286	9.28
386.651	8.75
387.017	9.44
387.383	9.16
387.748	8.94
388.114	8.98
388.479	9.2
388.845	9.23
389.21	8.98
389.575	8.8
389.94	9.35
390.306	9.27
390.671	9.15
391.036	9.2
391.401	9.41
391.766	9.41
392.131	9.48
392.496	9.37
392.861	9.19
393.226	9.42
393.591	9.25
393.956	9.41
394.32	9.73
394.685	9.23
395.05	9.88
395.414	9.73
395.779	9.67
396.143	9.55
396.508	9.57
396.872	9.52
397.236	9.91
397.601	9.79
397.965	9.73
398.329	9.68
398.694	10.05
399.058	9.82
399.422	10.06
399.786	9.64
400.15	9.7
400.514	10
400.878	10.15
401.242	10.24
401.605	10.26
401.969	9.89
402.333	10.12
402.697	10.18
403.06	10
403.424	10.17
403.787	10.33
404.151	10.19
404.514	10.18
404.878	10.54
405.241	10.32
405.604	10.45
405.968	10.38
406.331	10.39
406.694	10.32
407.057	10.35
407.42	10.71
407.783	10.49
408.146	10.44
408.509	10.59
408.872	10.8
409.235	10.42
409.598	10.65
409.961	10.59
410.323	10.82
410.686	10.62
411.049	10.84
411.411	10.71
411.774	10.99
412.136	10.77
412.499	10.91
412.861	10.69
413.223	10.86
413.586	10.81
413.948	11.18
414.31	11.26
414.672	11.01
415.035	10.87
415.397	10.96
415.759	11.2
416.121	11.17
416.483	11.1
416.845	11.13
417.206	11.44
417.568	11.5
417.93	11.38
418.292	11.08
418.653	11.25
419.015	11.07
419.377	11.18
419.738	11.02
420.1	11.23
420.461	11.12
420.822	11.13
421.184	11.17
421.545	11.28
421.906	11.26
422.267	11.21
422.629	11.38
422.99	11.13
423.351	11.22
423.712	11.31
424.073	11.32
424.434	11.34
424.795	11.29
425.155	11.39
425.516	11.46
425.877	11.5
426.238	11.41
426.598	11.6
426.959	11.51
427.32	11.48
427.68	11.62
428.041	11.63
428.401	11.7
428.761	11.8
429.122	11.81
429.482	11.87
429.842	12.24
430.202	12.02
430.563	12.13
430.923	12.14
431.283	12.15
431.643	12.25
432.003	12.39
432.363	12.15
432.722	12.33
433.082	12.49
433.442	12.18
433.802	12.54
434.161	12.25
434.521	12.43
434.881	12.38
435.24	12.35
435.6	12.43
435.959	12.29
436.319	12.4
436.678	12.41
437.037	12.58
437.396	12.7
437.756	12.7
438.115	12.47
438.474	12.86
438.833	12.8
439.192	12.71
439.551	12.65
439.91	12.87
440.269	12.99
440.628	12.84
440.987	12.85
441.345	12.67
441.704	12.74
442.063	12.67
442.421	12.82
442.78	12.79
443.138	12.91
443.497	12.94
443.855	13.02
444.214	12.88
444.572	13.08
444.93	13.19
445.288	13.28
445.647	13.19
446.005	13.03
446.363	13.1
446.721	13.19
447.079	13.34
447.437	13.19
447.795	13.14
448.153	13.19
448.51	13.15
448.868	13.08
449.226	13.19
449.584	13.26
449.941	13.16
450.299	13.51
450.656	13.36
451.014	13.43
451.371	13.58
451.729	13.59
452.086	13.61
452.443	13.61
452.801	13.61
453.158	13.83
453.515	13.72
453.872	13.88
454.229	14.02
454.586	13.91
454.943	13.83
455.3	13.81
455.657	14.03
456.014	13.96
456.371	13.88
456.727	14.03
457.084	14.17
457.441	14.16
457.797	14.07
458.154	14.11
458.51	14.02
458.867	14.32
459.223	14.09
459.58	14.32
459.936	14.42
460.292	14.18
460.648	14.21
461.005	14.15
461.361	14.23
461.717	14.08
462.073	14.14
462.429	14.17
462.785	14.24
463.141	14.41
463.496	14.25
463.852	14.6
464.208	14.6
464.564	14.81
464.919	14.55
465.275	14.9
465.631	14.84
465.986	14.84
466.342	14.85
466.697	14.86
467.052	14.97
467.408	14.88
467.763	14.82
468.118	14.92
468.473	14.85
468.829	14.99
469.184	14.97
469.539	14.95
469.894	15.09
470.249	15.19
470.603	15.19
470.958	15.16
471.313	15.26
471.668	15.33
472.023	15.24
472.377	15.3
472.732	15.17
473.086	15.49
473.441	15.33
473.795	15.56
474.15	15.39
474.504	15.27
474.859	15.41
475.213	15.76
475.567	15.5
475.921	15.51
476.275	15.41
476.63	15.79
476.984	15.77
477.338	15.85
477.692	15.78
478.045	15.79
478.399	15.58
478.753	15.84
479.107	15.69
479.461	15.89
479.814	15.99
480.168	16.01
480.521	15.99
480.875	15.73
481.228	15.96
481.582	15.89
481.935	15.96
482.289	15.93
482.642	15.98
482.995	15.87
483.348	16.04
483.701	15.96
484.055	15.9
484.408	15.73
484.761	15.74
485.114	15.63
485.466	15.49
485.819	15.36
486.172	15.3
486.525	15.32
486.878	15.29
487.23	15.42
487.583	15.54
487.936	15.77
488.288	15.81
488.641	15.92
488.993	15.79
489.345	15.83
489.698	15.75
490.05	15.78
490.402	15.73
490.754	15.76
491.107	15.9
491.459	16.05
491.811	16.21
492.163	16.28
492.515	16.49
492.866	16.48
493.218	16.32
493.57	16.17
493.922	16.17
494.274	16.09
494.625	16.22
494.977	16.21
495.328	16.43
495.68	16.63
496.031	16.69
496.383	17
496.734	17.03
497.086	17.06
497.437	17.26
497.788	17.14
498.139	17.16
498.49	17.08
498.842	17.17
499.193	17.07
499.544	17.08
499.894	17.21
500.245	17.15
500.596	17.18
500.947	17.33
501.298	17.35
501.648	17.57
501.999	17.47
502.35	17.57
502.7	17.74
503.051	17.56
503.401	17.69
503.752	17.71
504.102	17.7
504.452	17.73
504.803	17.65
505.153	17.89
505.503	17.78
505.853	17.87
506.203	17.87
506.553	17.6
506.903	17.83
507.253	18.01
507.603	17.9
507.953	18.01
508.303	17.88
508.652	17.98
509.002	18
509.352	18.03
509.701	18.04
510.051	18.03
510.4	18.09
510.75	18.12
511.099	18
511.449	18.07
511.798	18.09
512.147	18.09
512.496	18.19
512.846	18.2
513.195	18.27
513.544	18.28
513.893	18.24
514.242	18.36
514.591	18.3
514.939	18.34
515.288	18.45
515.637	18.47
515.986	18.55
516.334	18.45
516.683	18.64
517.032	18.45
517.38	18.73
517.729	18.69
518.077	18.79
518.426	18.69
518.774	18.61
519.122	18.86
519.47	18.77
519.819	18.68
520.167	18.61
520.515	18.53
520.863	18.59
521.211	18.52
521.559	18.57
521.907	18.62
522.255	18.77
522.602	18.77
522.95	18.9
523.298	19.05
523.645	19.08
523.993	19.01
524.341	19.14
524.688	19.23
525.036	19.13
525.383	19.08
525.73	19.38
526.078	19.25
526.425	19.2
526.772	19.35
527.119	19.12
527.466	19.08
527.814	18.96
528.161	19.03
528.508	19.11
528.854	19.03
529.201	19.03
529.548	19.18
529.895	19.03
530.242	18.87
530.588	18.71
530.935	18.76
531.282	18.84
531.628	18.73
531.975	18.73
532.321	18.88
532.667	19.09
533.014	19.29
533.36	19.41
533.706	19.48
534.052	19.52
534.399	19.37
534.745	19.39
535.091	19.4
535.437	19.41
535.783	19.38
536.129	19.37
536.474	19.43
536.82	19.56
537.166	19.67
537.512	19.8
537.857	20.06
538.203	20.06
538.549	19.93
538.894	19.88
539.239	19.83
539.585	19.94
539.93	19.97
540.276	20.04
540.621	20.19
540.966	20.35
541.311	20.31
541.656	20.38
542.001	20.27
542.346	20.4
542.691	20.27
543.036	20.07
543.381	19.92
543.726	19.9
544.071	19.95
544.415	19.88
544.76	19.87
545.105	20.21
545.449	20.22
545.794	20.37
546.138	20.36
546.483	20.4
546.827	20.6
547.171	20.77
547.516	20.59
547.86	20.79
548.204	20.86
548.548	20.84
548.892	20.77
549.236	20.87
549.58	20.83
549.924	20.79
550.268	20.97
550.612	21.18
550.956	21.25
551.3	21.32
551.643	21.35
551.987	21.55
552.33	21.55
552.674	21.52
553.017	21.45
553.361	21.69
553.704	21.93
554.048	21.67
554.391	21.81
554.734	21.77
555.077	21.59
555.42	21.43
555.764	21.74
556.107	21.72
556.45	21.72
556.793	21.81
557.135	21.73
557.478	21.88
557.821	21.91
558.164	22.04
558.507	21.99
558.849	22.14
559.192	22.2
559.534	22.23
559.877	21.95
560.219	22.52
560.562	22.24
560.904	22.14
561.246	22.35
561.589	22.23
561.931	22.21
562.273	22.52
562.615	22.23
562.957	22.47
563.299	22.62
563.641	22.41
563.983	22.39
564.325	22.37
564.667	22.5
565.008	22.48
565.35	22.41
565.692	22.93
566.033	22.87
566.375	22.79
566.716	22.59
567.058	22.8
567.399	22.59
567.741	22.6
568.082	22.76
568.423	22.7
568.764	22.64
569.105	22.77
569.447	22.64
569.788	22.78
570.129	22.81
570.47	22.81
570.811	22.96
571.151	22.82
571.492	23.11
571.833	23.16
572.174	23.09
572.514	23.18
572.855	22.95
573.195	23.23
573.536	22.93
573.876	23.13
574.217	22.93
574.557	22.92
574.898	23.21
575.238	23.13
575.578	23.24
575.918	23.12
576.258	23.28
576.598	23.3
576.938	23.38
577.278	23.47
577.618	23.46
577.958	23.3
578.298	23.23
578.638	23.67
578.977	23.53
579.317	23.57
579.657	23.5
579.996	23.57
580.336	23.76
580.675	23.76
581.014	23.86
581.354	23.94
581.693	23.85
582.032	23.99
582.372	24.13
582.711	24.08
583.05	24.33
583.389	24.02
583.728	24.21
584.067	24.45
584.406	24.5
584.745	24.25
585.083	24.3
585.422	24.2
585.761	24.23
586.1	24.17
586.438	24.35
586.777	24.42
587.115	24.38
587.454	24.54
587.792	24.55
588.13	24.74
588.469	24.78
588.807	24.45
589.145	24.76
589.483	24.83
589.821	24.64
590.159	24.7
590.497	24.65
590.835	24.62
591.173	24.56
591.511	24.8
591.849	24.65
592.187	24.28
592.524	24.53
592.862	24.68
593.2	24.79
593.537	24.76
593.875	24.88
594.212	24.98
594.55	24.79
594.887	25.1
595.224	24.98
595.561	24.98
595.899	25.09
596.236	25.18
596.573	25.3
596.91	25.04
597.247	24.98
597.584	24.97
597.921	24.99
598.258	25.01
598.594	25.13
598.931	24.99
599.268	25.02
599.604	25.12
599.941	25.07
600.277	25.15
600.614	25.06
600.95	25.21
601.287	25.16
601.623	25.48
601.959	25.46
602.296	25.44
602.632	25.75
602.968	25.34
603.304	25.65
603.64	25.66
603.976	25.65
604.312	25.82
604.648	25.53
604.984	25.72
605.319	25.67
605.655	25.53
605.991	25.7
606.326	25.74
606.662	25.44
606.998	25.55
607.333	25.73
607.668	25.29
608.004	25.73
608.339	25.82
608.674	25.8
609.01	25.87
609.345	26.15
609.68	26.24
610.015	26.16
610.35	25.95
610.685	26.12
611.02	26.23
611.355	26.03
611.689	26.12
612.024	26.13
612.359	26.36
612.694	26.13
613.028	26.19
613.363	26.17
613.697	26.22
614.032	26.28
614.366	26.26
614.7	26.72
615.035	26.41
615.369	26.46
615.703	25.98
616.037	26.83
616.371	26.52
616.705	26.36
617.039	26.57
617.373	26.61
617.707	26.99
618.041	26.76
618.375	26.84
618.709	26.48
619.042	27.08
619.376	26.55
619.71	27.14
620.043	27.44
620.377	26.77
620.71	26.68
621.043	26.97
621.377	26.69
621.71	26.91
622.043	26.84
622.376	26.99
622.709	26.99
623.043	27.54
623.376	26.85
623.709	27.21
624.041	27.03
624.374	26.99
624.707	27.04
625.04	27.2
625.373	27.48
625.705	26.9
626.038	27.35
626.37	26.8
626.703	27.1
627.035	27.7
627.368	27.2
627.7	27.36
628.032	27.28
628.365	27.61
628.697	27.62
629.029	27.36
629.361	27.38
629.693	27.63
630.025	27.45
630.357	27.72
630.689	27.49
631.021	27.94
631.353	27.53
631.684	27.37
632.016	27.71
632.348	27.87
632.679	27.39
633.011	27.57
633.342	27.24
633.674	28.05
634.005	27.34
634.336	27.97
634.668	27.63
634.999	27.75
635.33	27.54
635.661	28.1
635.992	28.1
636.323	27.95
636.654	27.68
636.985	27.77
637.316	27.86
637.647	27.74
637.977	27.72
638.308	28.03
638.639	27.95
638.969	28.03
639.3	27.99
639.63	28.49
639.961	28.31
640.291	28.18
640.622	28.38
640.952	28.19
641.282	28.4
641.612	28.45
641.943	28.82
642.273	28.49
642.603	28.58
642.933	28.5
643.263	28.43
643.592	28.44
643.922	28.92
644.252	28.51
644.582	28.74
644.911	28.61
645.241	28.84
645.571	28.92
645.9	28.57
646.23	28.74
646.559	28.87
646.888	28.93
647.218	28.66
647.547	28.79
647.876	28.78
648.205	28.43
648.534	29.2
648.863	29.08
649.192	29.04
649.521	28.88
649.85	29.15
650.179	28.98
650.508	29.01
650.837	28.95
651.165	28.76
651.494	28.84
651.822	28.32
652.151	29.2
652.479	29.08
652.808	29.25
653.136	28.8
653.465	29.02
653.793	29.25
654.121	29.16
654.449	29.09
654.777	29.35
655.105	29.45
655.433	29.23
655.761	29.12
656.089	29.4
656.417	28.9
656.745	29.48
657.073	28.97
657.4	29.84
657.728	29.42
658.056	29.48
658.383	29.94
658.711	29.03
659.038	29.67
659.365	29.93
659.693	29.33
660.02	29.71
660.347	29.41
660.674	29.88
661.001	29.6
661.329	29.84
661.656	29.35
661.982	29.46
662.309	29.45
662.636	29.69
662.963	29.47
663.29	29.38
663.616	29.88
663.943	29.34
664.27	29.64
664.596	29.71
664.923	29.66
665.249	29.65
665.576	30.02
665.902	29.94
666.228	29.87
666.554	30.07
666.881	29.64
667.207	30.09
667.533	29.79
667.859	30.09
668.185	29.97
668.511	30.33
668.837	30.23
669.162	30.36
669.488	30.35
669.814	29.71
670.139	30.1
670.465	29.97
670.791	30.78
671.116	30.25
671.442	30.48
671.767	30.29
672.092	30.39
672.418	30.41
672.743	30.4
673.068	30.74
673.393	30.65
673.718	30.68
674.043	30.38
674.368	30.42
674.693	30.71
675.018	30.87
675.343	30.28
675.667	30.59
675.992	30.86
676.317	30.4
676.641	30.74
676.966	30.77
677.29	30.96
677.615	31.02
677.939	30.56
678.264	30.77
678.588	29.54
678.912	30.94
679.236	30.8
679.56	30.3
679.885	30.83
680.209	30.47
680.532	30.64
680.856	30.46
681.18	30.85
681.504	30.53
681.828	31.35
682.152	30.82
682.475	30.78
682.799	30.86
683.122	30.9
683.446	30.93
683.769	30.83
684.093	30.99
684.416	31.59
684.739	30.9
685.062	31.05
685.386	30.99
685.709	31
686.032	30.61
686.355	31.32
686.678	31.29
687.001	31.32
687.324	30.59
687.646	30.97
687.969	31.58
688.292	31.31
688.614	30.99
688.937	30.92
689.26	31.39
689.582	30.9
689.904	30.98
690.227	30.89
690.549	31.31
690.871	31.41
691.194	31.67
691.516	31.73
691.838	32.22
692.16	31.17
692.482	31.9
692.804	31.81
693.126	30.95
693.448	32.11
693.769	31.75
694.091	31.41
694.413	31.1
694.735	31.27
695.056	31.28
695.378	31.78
695.699	31.94
696.021	31.69
696.342	31.28
696.663	31.78
696.984	31.28
697.306	32.08
697.627	31.84
697.948	31.17
698.269	31.6
698.59	31.61
698.911	31.73
699.232	31.36
699.553	32.26
699.873	32.22
700.194	31.58
700.515	31.69
700.835	32.04
701.156	32.32
701.477	31.96
701.797	31.99
702.117	31.91
702.438	31.64
702.758	31.46
703.078	32.26
703.398	32.25
703.719	32.26
704.039	31.82
704.359	31.78
704.679	32.82
704.999	31.26
705.319	32.03
705.638	32.5
705.958	32.93
706.278	32.45
706.597	32.57
706.917	32.45
707.237	33.08
707.556	31.62
707.876	32.66
708.195	32.93
708.514	32.18
708.834	33.57
709.153	33.08
709.472	33.06
709.791	33.21
710.11	33.08
710.429	32.56
710.748	32.92
711.067	32.7
711.386	32.34
711.705	32.9
712.023	33.37
712.342	32.45
712.661	31.81
712.979	32.26
713.298	32.92
713.616	33.26
713.935	33.23
714.253	32.62
714.572	33.55
714.89	33.09
715.208	32.26
715.526	33.16
715.844	31.95
716.162	32.2
716.48	34
716.798	32.99
717.116	32.08
717.434	33.47
717.752	33.41
718.069	32.41
718.387	32.59
718.705	32.3
719.022	33.26
719.34	33.24
719.657	33.04
719.975	33.18
720.292	33.21
720.609	33.72
720.927	32.68
721.244	32.46
721.561	32.97
721.878	33.25
722.195	33.29
722.512	33.45
722.829	32.85
723.146	32.67
723.463	33
723.779	33.27
724.096	32.82
724.413	32.92
724.729	34.53
725.046	33.96
725.362	34.61
725.679	32.84
725.995	33.43
726.311	35.05
726.628	33.76
726.944	33.6
727.26	32.05
727.576	33.95
727.892	32.63
728.208	33.85
728.524	32.52
728.84	33.31
729.156	34.24
729.472	33.99
729.787	33.42
730.103	34.05
730.419	34.29
730.734	33.79
731.05	33.03
731.365	31.75
731.681	32.82
731.996	33.39
732.311	33.95
732.626	33.39
732.942	33.48
733.257	33.34
733.572	34.3
733.887	33.51
734.202	34.45
734.517	33.41
734.832	33.83
735.146	34.69
735.461	33.63
735.776	34.06
736.091	34.36
736.405	33.57
736.72	34.2
737.034	36.07
737.349	34.82
737.663	34.42
737.977	35.33
738.292	34.06
738.606	34.82
738.92	33.99
739.234	33.8
739.548	33.36
739.862	34.32
740.176	34.91
740.49	33.12
740.804	34.81
741.117	35.63
741.431	32.94
741.745	33.48
742.058	34.93
742.372	34.13
742.685	33.95
742.999	33.43
743.312	33.94
743.626	35.4
743.939	34.54
744.252	33
744.565	34.77
744.878	33.59
745.191	34.5
745.505	33.94
745.817	35.34
746.13	33.07
746.443	34.7
746.756	33.97
747.069	34.83
747.381	35.21
747.694	35.22
748.007	33.56
748.319	34.16
748.632	34.13
748.944	34.92
749.256	34.55
749.569	34.38
749.881	34.19
750.193	33.96
750.505	33.89
750.817	35.71
751.129	34.57
751.441	33.08
751.753	31.74
752.065	35.5
752.377	32.89
752.689	35.37
753	35.81
753.312	32.65
753.624	32.57
753.935	33.94
754.247	34.82
754.558	36.21
754.869	36.62
755.181	34.65
755.492	35.53
755.803	35.08
756.114	34.2
756.425	35.19
756.736	34.62
757.047	33.16
757.358	35.22
757.669	34.09
757.98	33.47
758.291	32.19
758.601	36
758.912	35.71
759.223	35.93
759.533	37.08
759.844	35.28
760.154	34.87
760.464	35.16
760.775	35.37
761.085	35.07
761.395	35.73
761.705	34.44
762.016	35.36
762.326	34.37
762.636	35.71
762.945	32.55
763.255	35.07
763.565	36.34
763.875	34.34
764.185	34.9
764.494	36.67
764.804	35.02
765.113	34.58
765.423	35.86
765.732	34.19
766.042	35.05
766.351	35.21
766.66	34.21
766.97	35.06
767.279	34.59
767.588	34.32
767.897	33.51
768.206	35.04
768.515	34.78
768.824	35.6
769.133	34.28
769.441	34.86
769.75	34.92
770.059	35.88
770.367	35.71
770.676	34.18
770.984	38.03
771.293	36.42
771.601	36.72
771.91	32.99
772.218	38.63
772.526	34.41
772.834	34.81
773.142	36.55
773.45	35.97
773.758	37.02
774.066	35.46
774.374	35.96
774.682	35.32
774.99	35.48
775.298	31.81
775.605	33.92
775.913	38.01
776.22	32.2
776.528	32.76
776.835	34.9
777.143	36.18
777.45	33.82
777.757	34.57
778.065	35.5
778.372	35.23
778.679	33
778.986	36.39
779.293	36.83
779.6	33.98
779.907	36.15
780.214	36.05
780.52	36.7
780.827	36.61
781.134	35.76
781.44	36.23
781.747	37.37
782.053	37.88
782.36	34.96
782.666	34.03
782.973	36.04
783.279	34.07
783.585	33.81
783.891	31.11
784.197	32.26
784.503	36.6
784.809	35.48
785.115	36.51
785.421	34.66
785.727	37.94
786.033	35.16
786.339	34.12
786.644	35.16
786.95	39.56
787.255	38.39
787.561	37.76
787.866	34.37
788.172	37.74
788.477	30.45
788.782	34.57
789.088	36.13
789.393	34.79
789.698	31.46
790.003	34.67
790.308	38.59
790.613	34.9
790.918	39.23
791.223	34.66
791.527	34.56
791.832	37.89
792.137	34.79
792.441	35.32
792.746	35.62
793.05	34.96
793.355	34.83
793.659	36.01
793.963	34.58
794.268	35.02
794.572	34.9
794.876	37.7
795.18	34.24
795.484	31.74
795.788	37.37
796.092	36.66
796.396	39.07
796.7	38.86
797.004	31.54
797.307	34.47
797.611	36.1
797.915	34.44
798.218	33.82
798.522	35.72
798.825	36.8
799.128	34.87
799.432	36.76
799.735	35.68
800.038	31.74
800.341	34.04
800.644	41.58
800.947	36.47
801.25	34.4
801.553	40.66
801.856	37.78
802.159	35.09
802.462	34.8
802.764	39.02
803.067	36.5
803.37	37.19
803.672	39.48
803.975	33.75
804.277	35.9
804.579	31.45
804.882	35.33
805.184	39.01
805.486	36.96
805.788	43.74
806.09	40.69
806.392	34.56
806.694	37.62
806.996	39.24
807.298	35.5
807.6	35.49
807.902	34.19
808.203	43.08
808.505	39.73
808.807	32.64
809.108	32.56
809.409	40.96
809.711	35.38
810.012	37.11
810.313	36
810.615	40.27
810.916	38
811.217	33.32
811.518	30.9
811.819	29.12
812.12	34.69
812.421	32.77
812.722	37.55
813.023	39.13
813.323	32.79
813.624	34.42
813.925	33.09
814.225	38.34
814.526	37.97
814.826	39.33
815.126	39.17
815.427	35.59
815.727	37.21
816.027	36.73
816.327	40.42
816.627	40.71
816.927	34.56
817.227	34.38
817.527	26.57
817.827	36.71
818.127	38.38
818.427	35.93
818.727	37.99
819.026	35.3
819.326	37.3
819.625	40.48
819.925	37.66
820.224	38.9
820.524	35.63
820.823	33.16
821.122	31.37
821.421	35.3
821.72	39.98
822.019	34.36
822.318	37.2
822.617	35.26
822.916	32.77
823.215	35.57
823.514	40.41
823.813	36.72
824.111	37.44
824.41	36.99
824.709	39.37
825.007	36.17
825.306	37.97
825.604	37.82
825.902	37.56
826.201	37.16
826.499	37.12
826.797	36.5
827.095	37.13
827.393	35.79
827.691	36.69
827.989	37.39
828.287	37.44
828.585	37.52
828.882	33.78
829.18	36.33
829.478	36.08
829.775	38.18
830.073	38.54
830.37	36.86
830.668	36.56
830.965	37.94
831.263	36.91
831.56	37.87
831.857	36.94
832.154	37.66
832.451	37.8
832.748	38.43
833.045	34.15
833.342	40.05
833.639	37.38
833.936	40.26
834.232	42.67
834.529	39.29
834.826	34.92
835.122	36.83
835.419	36.03
835.715	37.73
836.012	33.42
836.308	37.81
836.604	36.25
836.901	39.86
837.197	37.63
837.493	35.49
837.789	34.93
838.085	36.75
838.381	40.4
838.677	31.98
838.972	40.5
839.268	33.96
839.564	39.15
839.86	36.89
840.155	43.25
840.451	41.41
840.746	40.28
841.042	38.13
841.337	32.06
841.632	43.87
841.928	34.57
842.223	44.26
842.518	33.08
842.813	46.87
843.108	36.72
843.403	35.2
843.698	34.52
843.993	37.45
844.287	38.32
844.582	34.4
844.877	39.07
845.171	44.48
845.466	33.38
845.761	39.6
846.055	29.34
846.349	26.54
846.644	38.42
846.938	44.99
847.232	38.03
847.526	33.41
847.82	24.24
848.114	48.04
848.408	36.61
848.702	23.94
848.996	44.74
849.29	41.64
849.584	38.2
849.877	47.56
850.171	42.09
850.465	27.02
850.758	29.22
851.052	36.79
851.345	34.9
851.638	34.53
851.932	42.58
852.225	35.53
852.518	45.24
852.811	43
853.104	40.78
853.397	45.91
853.69	40.74
853.983	32.65
854.276	59.89
854.569	42.32
854.861	40.64
855.154	72.95
855.447	22.61
855.739	26.2
856.032	40.89
856.324	37.45
856.616	14.8
856.909	42.29
857.201	31.92
857.493	66.78
857.785	38.7
858.077	44.61
858.369	44.65
858.661	26.46
858.953	24.3
859.245	48.34
859.537	50.82
859.829	47.36
860.12	53.78
860.412	37.52
860.703	44.97
860.995	56.01
861.286	43.15
861.578	44.67
861.869	39.84
862.16	20.18
862.452	41.75
862.743	53.33
863.034	37.04
863.325	27.62
863.616	40.44
863.907	29.68
864.198	43.12
864.488	47.72
864.779	36.61
865.07	41.88
865.36	45.81
865.651	35.18
865.941	61.83
866.232	24.27
866.522	19.75
866.813	36.23
867.103	31.51
867.393	56.88
867.683	47.69
867.973	55.51
868.263	44.04
868.553	53.14
868.843	42.17
869.133	54.27
869.423	55.78
869.713	48.2
870.002	37.05
870.292	43.94
870.582	30.55
870.871	40.32
871.161	27.17
871.45	58.36
871.739	27.61
872.029	41.75
872.318	63.29
872.607	47.92
872.896	42.54
873.185	25.97
873.474	32.16
873.763	35.95
874.052	42.99
874.341	43.97
874.63	55.2
874.918	39.22
875.207	29.99
875.496	26.79
875.784	45.47
876.073	27.55
876.361	42.79
876.649	38.9
876.938	47.34
877.226	28.15
877.514	18.69
877.802	32.33
878.09	45.15
878.378	59.74
878.666	18.14
878.954	36.33
879.242	47.31
879.53	37.8
879.817	32.25
880.105	41.38
880.392	47.23
880.68	38.93
880.967	24.83
881.255	37.92
881.542	44.62
881.83	35.11
882.117	39.13
882.404	47.14
882.691	41.47
882.978	68.26
883.265	42.9
883.552	52.7
883.839	59.13
884.126	42.73
884.413	40.73
884.699	37.35
884.986	41.77
885.273	35.87
885.559	35.87
885.846	35.87
