Data from 0356_crown_Reflection__0__67.txt Node

Date: Mon Dec 11 18:28:50 CST 2023
User: ToomeyLab
Spectrometer: FLMS14357
Trigger mode: 0
Integration Time (sec): 1.000000E-2
Scans to average: 100
Electric dark correction enabled: true
Nonlinearity correction enabled: false
Boxcar width: 0
XAxis mode: Wavelengths
Number of Pixels in Spectrum: 2048
>>>>>Begin Spectral Data<<<<<
189.047	58.73
189.435	58.73
189.823	58.73
190.211	-42.1
190.599	157.61
190.987	220.02
191.375	367.46
191.763	70.49
192.151	-4620.83
192.538	-50.34
192.926	2.7
193.314	-937.5
193.702	77.41
194.089	-126.32
194.477	140.35
194.864	-504.07
195.252	-68.04
195.639	160.08
196.027	110.14
196.414	-284.9
196.801	-42.55
197.189	369.42
197.576	70.44
197.963	102.03
198.351	-24.8
198.738	32.22
199.125	-6.73
199.512	-11.67
199.899	11.08
200.286	8.93
200.673	-106.08
201.06	86.88
201.447	-4.18
201.833	17.81
202.22	52.99
202.607	-23.5
202.994	6.48
203.38	-55.45
203.767	29.03
204.154	51.88
204.54	-12.23
204.927	-40.2
205.313	-21.94
205.699	1.67
206.086	-38.48
206.472	-4.98
206.858	-16.29
207.245	17.79
207.631	19.8
208.017	2.57
208.403	0.51
208.789	-23.21
209.175	20.1
209.561	-5.36
209.947	1.21
210.333	13.03
210.719	19.42
211.105	15.6
211.491	11.48
211.876	7.58
212.262	-12.72
212.648	37.3
213.034	13.99
213.419	18.12
213.805	-63.93
214.19	22.3
214.576	-10.08
214.961	4.98
215.346	-40.24
215.732	-16.5
216.117	28.66
216.502	4.73
216.888	3.82
217.273	16.31
217.658	-5.81
218.043	-28.06
218.428	4.54
218.813	4.73
219.198	-7.35
219.583	0.12
219.968	-3.57
220.353	1.72
220.738	24.6
221.122	-1.53
221.507	27.37
221.892	6.2
222.276	4.46
222.661	-0.32
223.046	-8.16
223.43	5.71
223.815	-9.02
224.199	-1.65
224.583	-0.53
224.968	6.38
225.352	2.23
225.736	6.7
226.121	1.1
226.505	-4.18
226.889	6.76
227.273	1.72
227.657	8.85
228.041	4.01
228.425	2.65
228.809	-1.2
229.193	4.38
229.577	3.55
229.961	2.21
230.344	3.4
230.728	2.28
231.112	3.52
231.495	3.65
231.879	2.94
232.263	1.68
232.646	3.8
233.03	2.76
233.413	2.54
233.797	5.7
234.18	3.56
234.563	3.9
234.946	5.06
235.33	4.1
235.713	1.88
236.096	2.61
236.479	4.16
236.862	3.15
237.245	4.54
237.628	2.12
238.011	4.1
238.394	2.1
238.777	2.58
239.16	2.54
239.543	4.03
239.925	3.25
240.308	3.61
240.691	3.61
241.073	4.76
241.456	4.84
241.838	5
242.221	3.25
242.603	2.29
242.986	1.88
243.368	2.45
243.75	3.03
244.133	3.12
244.515	3.08
244.897	3.17
245.279	2.75
245.661	3.55
246.043	2.18
246.425	3.37
246.807	4.74
247.189	3.1
247.571	2.11
247.953	2.76
248.335	3.32
248.717	2.97
249.098	2.76
249.48	2.85
249.862	3.16
250.243	3.32
250.625	3.11
251.006	2.59
251.388	3.83
251.769	3.18
252.151	3.61
252.532	2.69
252.913	2.83
253.295	3.52
253.676	2.97
254.057	3.13
254.438	3.19
254.819	2.69
255.2	2.63
255.581	2.5
255.962	2.67
256.343	2.64
256.724	3.69
257.105	2.31
257.486	1.98
257.867	4.09
258.247	2.19
258.628	2.37
259.009	4.05
259.389	4.1
259.77	2.66
260.15	2.8
260.531	2.25
260.911	2.41
261.292	2.88
261.672	2.69
262.052	2.85
262.432	3.06
262.813	2.84
263.193	2.86
263.573	2.99
263.953	2.39
264.333	2.64
264.713	3.23
265.093	3
265.473	3.69
265.853	3.15
266.233	3.17
266.612	3.53
266.992	3.78
267.372	3.97
267.752	3.21
268.131	3
268.511	2.37
268.89	3.05
269.27	3.74
269.649	3.01
270.029	3.06
270.408	2.55
270.787	2.26
271.167	2.45
271.546	2.67
271.925	2.48
272.304	2.69
272.683	2.86
273.062	2.3
273.441	2.48
273.82	2.29
274.199	2.79
274.578	2.44
274.957	2.76
275.336	2.69
275.715	3.05
276.093	3.29
276.472	3.14
276.851	2.44
277.229	3.26
277.608	2.81
277.986	3.15
278.365	2.83
278.743	2.73
279.122	2.9
279.5	3.09
279.878	2.51
280.257	2.62
280.635	3.07
281.013	2.37
281.391	2
281.769	1.64
282.147	2.4
282.525	1.92
282.903	3.04
283.281	2.58
283.659	2.59
284.037	1.99
284.415	2.55
284.792	2.83
285.17	2.81
285.548	2.67
285.925	2.2
286.303	2.84
286.68	2.43
287.058	2.82
287.435	2.55
287.813	2.91
288.19	2.6
288.567	2.55
288.945	2.78
289.322	2.22
289.699	2.65
290.076	2.14
290.453	2.71
290.83	2.96
291.207	2.77
291.584	2.32
291.961	2.58
292.338	2.76
292.715	2.8
293.092	2.5
293.469	2.81
293.845	2.43
294.222	3.04
294.599	2.39
294.975	2.68
295.352	2.19
295.728	2.51
296.105	2.64
296.481	2.64
296.858	2.57
297.234	2.88
297.61	3.21
297.986	2.54
298.363	2.78
298.739	3.1
299.115	2.63
299.491	2.8
299.867	2.67
300.243	2.91
300.619	2.79
300.995	2.99
301.371	1.91
301.746	2.62
302.122	2.46
302.498	2.93
302.874	3.34
303.249	2.9
303.625	2.68
304	3
304.376	2.65
304.751	2.05
305.127	3.06
305.502	2.99
305.878	3.1
306.253	3.17
306.628	2.92
307.003	2.69
307.378	2.86
307.754	3.18
308.129	2.8
308.504	2.32
308.879	2.44
309.254	3.25
309.629	3.25
310.003	3.38
310.378	2.33
310.753	3.2
311.128	3.06
311.502	2.49
311.877	2.9
312.252	2.92
312.626	2.8
313.001	2.72
313.375	2.57
313.75	2.58
314.124	2.97
314.498	2.66
314.873	2.8
315.247	2.68
315.621	3.37
315.995	2.88
316.369	2.8
316.743	3.17
317.117	3.02
317.491	3.03
317.865	3.1
318.239	2.99
318.613	3.03
318.987	3.41
319.361	3.04
319.734	3.06
320.108	2.49
320.482	2.86
320.855	2.62
321.229	3.26
321.602	2.62
321.976	3.49
322.349	3.3
322.723	3.2
323.096	3.15
323.469	3.22
323.843	2.98
324.216	3.51
324.589	4.16
324.962	2.37
325.335	3.4
325.708	3.45
326.081	3.55
326.454	3.44
326.827	3.15
327.2	2.93
327.573	2.67
327.945	3.1
328.318	2.97
328.691	3.08
329.063	2.62
329.436	2.92
329.809	3.44
330.181	3.35
330.553	2.88
330.926	2.75
331.298	3.2
331.671	3.77
332.043	3.33
332.415	3.01
332.787	3.11
333.159	2.42
333.532	3.31
333.904	3.13
334.276	3.09
334.648	3.36
335.02	2.97
335.391	2.53
335.763	3.27
336.135	3.19
336.507	2.67
336.879	3.32
337.25	2.91
337.622	2.77
337.993	3.13
338.365	3.27
338.736	3.24
339.108	2.95
339.479	3.32
339.851	3.68
340.222	3.18
340.593	2.64
340.964	3.18
341.336	2.86
341.707	2.3
342.078	3.24
342.449	2.89
342.82	2.8
343.191	2.8
343.562	3.1
343.933	3.03
344.303	2.68
344.674	2.93
345.045	3.2
345.416	2.38
345.786	3.42
346.157	2.97
346.527	3.17
346.898	2.89
347.268	3
347.639	3.15
348.009	3.09
348.38	2.62
348.75	3.16
349.12	3.09
349.49	2.65
349.861	2.68
350.231	3.04
350.601	3.16
350.971	3.27
351.341	2.77
351.711	2.94
352.081	2.72
352.45	2.82
352.82	2.62
353.19	3.01
353.56	2.75
353.929	3.14
354.299	3.28
354.669	3.24
355.038	3.43
355.408	2.76
355.777	2.67
356.147	3.2
356.516	3.32
356.885	3.39
357.254	3.3
357.624	3.28
357.993	2.87
358.362	3.33
358.731	2.92
359.1	3.48
359.469	2.98
359.838	3.12
360.207	2.84
360.576	2.94
360.945	3.17
361.314	3.23
361.682	2.66
362.051	3.17
362.42	3.18
362.788	3.02
363.157	2.94
363.525	2.78
363.894	3.17
364.262	3.28
364.631	3.21
364.999	3.05
365.367	3.43
365.735	2.96
366.104	3.04
366.472	2.93
366.84	2.84
367.208	3.1
367.576	3.21
367.944	3.23
368.312	2.98
368.68	3.4
369.048	3.29
369.416	2.84
369.783	3.24
370.151	3.45
370.519	3.62
370.886	3.19
371.254	3.52
371.621	3.33
371.989	3.27
372.356	3.2
372.724	3.58
373.091	3.43
373.458	3.14
373.826	3.02
374.193	3.07
374.56	3.47
374.927	3.24
375.294	3.16
375.661	3.48
376.028	3.44
376.395	3.09
376.762	3.48
377.129	3.34
377.496	3.15
377.863	3.13
378.229	3.4
378.596	3.22
378.963	3.26
379.329	3.17
379.696	3.58
380.062	3.01
380.429	3.1
380.795	3.5
381.161	3.04
381.528	3.6
381.894	3.2
382.26	3.4
382.626	3.23
382.993	3.24
383.359	3.43
383.725	2.87
384.091	3.19
384.457	3.31
384.823	3.59
385.188	3.39
385.554	3.06
385.92	3.13
386.286	3.04
386.651	3.11
387.017	3.2
387.383	3.05
387.748	3.11
388.114	3.37
388.479	3.21
388.845	3.25
389.21	3.46
389.575	3.49
389.94	3.24
390.306	3.26
390.671	3.43
391.036	3.37
391.401	3.71
391.766	3.35
392.131	3.38
392.496	3.39
392.861	3.69
393.226	3.65
393.591	3.36
393.956	3.12
394.32	3.5
394.685	3.22
395.05	3.57
395.414	3.63
395.779	3.21
396.143	3.29
396.508	3
396.872	3.4
397.236	3.33
397.601	3.31
397.965	3.54
398.329	3.39
398.694	3.27
399.058	3.29
399.422	3.54
399.786	3.11
400.15	3.28
400.514	3.53
400.878	3.39
401.242	3.22
401.605	3.57
401.969	3.23
402.333	3.18
402.697	3.34
403.06	3.35
403.424	3.46
403.787	3.91
404.151	3.4
404.514	3.09
404.878	3.56
405.241	3.56
405.604	3.38
405.968	3.43
406.331	3.25
406.694	3.17
407.057	3.3
407.42	3.63
407.783	3.39
408.146	3.71
408.509	3.29
408.872	3.57
409.235	3.36
409.598	3.55
409.961	3.47
410.323	3.44
410.686	3.46
411.049	3.34
411.411	3.42
411.774	3.39
412.136	3.22
412.499	3.61
412.861	3.34
413.223	3.54
413.586	3.38
413.948	3.41
414.31	3.4
414.672	3.11
415.035	3.39
415.397	3.41
415.759	3.58
416.121	3.42
416.483	3.64
416.845	3.6
417.206	3.39
417.568	3.61
417.93	3.57
418.292	3.41
418.653	3.23
419.015	3.19
419.377	3.54
419.738	3.54
420.1	3.49
420.461	3.43
420.822	3.51
421.184	3.31
421.545	3.31
421.906	3.43
422.267	3.53
422.629	3.44
422.99	3.37
423.351	3.3
423.712	3.32
424.073	3.37
424.434	3.42
424.795	3.49
425.155	3.52
425.516	3.44
425.877	3.28
426.238	3.38
426.598	3.45
426.959	3.54
427.32	3.43
427.68	3.41
428.041	3.22
428.401	3.42
428.761	3.54
429.122	3.41
429.482	3.55
429.842	3.49
430.202	3.57
430.563	3.56
430.923	3.52
431.283	3.49
431.643	3.62
432.003	3.59
432.363	3.75
432.722	3.62
433.082	3.45
433.442	3.61
433.802	3.55
434.161	3.69
434.521	3.41
434.881	3.68
435.24	3.52
435.6	3.57
435.959	3.39
436.319	3.56
436.678	3.48
437.037	3.49
437.396	3.54
437.756	3.79
438.115	3.74
438.474	3.64
438.833	3.71
439.192	3.7
439.551	3.69
439.91	3.67
440.269	3.67
440.628	3.44
440.987	3.76
441.345	3.53
441.704	3.61
442.063	3.61
442.421	3.54
442.78	3.53
443.138	3.55
443.497	3.55
443.855	3.43
444.214	3.82
444.572	3.59
444.93	3.54
445.288	3.55
445.647	3.76
446.005	3.45
446.363	3.57
446.721	3.72
447.079	3.5
447.437	3.55
447.795	3.61
448.153	3.64
448.51	3.59
448.868	3.38
449.226	3.39
449.584	3.6
449.941	3.68
450.299	3.63
450.656	3.65
451.014	3.66
451.371	3.6
451.729	3.65
452.086	3.61
452.443	3.69
452.801	3.57
453.158	3.76
453.515	3.72
453.872	3.83
454.229	3.71
454.586	3.71
454.943	3.81
455.3	3.84
455.657	3.7
456.014	3.67
456.371	3.83
456.727	3.71
457.084	3.52
457.441	3.86
457.797	3.64
458.154	3.79
458.51	3.86
458.867	3.64
459.223	3.71
459.58	3.84
459.936	3.76
460.292	3.61
460.648	3.65
461.005	3.53
461.361	3.67
461.717	3.6
462.073	3.63
462.429	3.7
462.785	3.64
463.141	3.65
463.496	3.74
463.852	3.65
464.208	3.61
464.564	3.69
464.919	3.89
465.275	3.87
465.631	3.5
465.986	3.84
466.342	3.87
466.697	3.7
467.052	3.84
467.408	3.94
467.763	3.8
468.118	3.69
468.473	3.73
468.829	3.76
469.184	3.85
469.539	3.75
469.894	3.69
470.249	3.93
470.603	3.75
470.958	3.86
471.313	3.88
471.668	3.79
472.023	3.84
472.377	3.79
472.732	3.69
473.086	4
473.441	3.78
473.795	3.74
474.15	3.81
474.504	3.68
474.859	3.75
475.213	3.76
475.567	3.85
475.921	3.81
476.275	3.91
476.63	3.69
476.984	3.8
477.338	3.66
477.692	3.96
478.045	3.83
478.399	3.78
478.753	3.66
479.107	3.76
479.461	3.89
479.814	3.82
480.168	3.97
480.521	3.88
480.875	3.8
481.228	3.83
481.582	3.86
481.935	3.79
482.289	3.77
482.642	3.72
482.995	3.76
483.348	3.75
483.701	3.69
484.055	3.77
484.408	3.82
484.761	3.71
485.114	3.61
485.466	3.56
485.819	3.52
486.172	3.54
486.525	3.57
486.878	3.63
487.23	3.68
487.583	3.69
487.936	3.67
488.288	3.75
488.641	3.6
488.993	3.62
489.345	3.67
489.698	3.6
490.05	3.65
490.402	3.63
490.754	3.65
491.107	3.71
491.459	3.81
491.811	3.84
492.163	3.83
492.515	3.83
492.866	3.74
493.218	3.61
493.57	3.67
493.922	3.66
494.274	3.69
494.625	3.77
494.977	3.85
495.328	3.85
495.68	3.96
496.031	3.83
496.383	3.85
496.734	3.91
497.086	3.86
497.437	3.99
497.788	3.88
498.139	3.77
498.49	3.86
498.842	3.88
499.193	3.97
499.544	3.84
499.894	3.86
500.245	3.9
500.596	3.94
500.947	3.86
501.298	3.98
501.648	3.97
501.999	3.87
502.35	3.93
502.7	3.97
503.051	3.86
503.401	4.01
503.752	4
504.102	3.87
504.452	3.99
504.803	4.09
505.153	4.12
505.503	3.98
505.853	3.97
506.203	3.88
506.553	3.92
506.903	3.92
507.253	4.06
507.603	3.94
507.953	4.09
508.303	3.84
508.652	3.85
509.002	3.91
509.352	4.09
509.701	3.92
510.051	3.87
510.4	3.84
510.75	3.97
511.099	3.9
511.449	3.93
511.798	3.89
512.147	4.11
512.496	3.91
512.846	4.03
513.195	4.11
513.544	4.03
513.893	3.82
514.242	4.02
514.591	3.91
514.939	3.88
515.288	4.05
515.637	3.94
515.986	4.06
516.334	4.08
516.683	4.03
517.032	4.15
517.38	4.04
517.729	4.01
518.077	4.14
518.426	4.17
518.774	4.09
519.122	4.06
519.47	3.96
519.819	3.97
520.167	3.92
520.515	3.9
520.863	3.88
521.211	4.03
521.559	3.93
521.907	3.96
522.255	3.95
522.602	4.09
522.95	4.18
523.298	4.02
523.645	4.27
523.993	3.98
524.341	4.25
524.688	3.98
525.036	4.09
525.383	4.09
525.73	4.05
526.078	4.18
526.425	4.14
526.772	4.04
527.119	3.98
527.466	4.05
527.814	4.03
528.161	3.93
528.508	4.08
528.854	4.06
529.201	3.98
529.548	4.02
529.895	3.87
530.242	3.87
530.588	3.83
530.935	3.86
531.282	3.89
531.628	3.92
531.975	3.95
532.321	3.99
532.667	3.97
533.014	3.97
533.36	4.01
533.706	4.15
534.052	3.99
534.399	4.04
534.745	4.01
535.091	3.94
535.437	3.93
535.783	4
536.129	3.99
536.474	4.04
536.82	4.1
537.166	4.07
537.512	4.07
537.857	4.11
538.203	4.07
538.549	4.15
538.894	4.13
539.239	4.19
539.585	4.15
539.93	4.04
540.276	4.11
540.621	4.25
540.966	4.25
541.311	4.15
541.656	4.12
542.001	4.27
542.346	4.19
542.691	4.06
543.036	4.01
543.381	3.94
543.726	3.94
544.071	4.06
544.415	4.05
544.76	4.05
545.105	4.05
545.449	4.05
545.794	4.1
546.138	4.13
546.483	4.13
546.827	4.16
547.171	4.13
547.516	4.16
547.86	4.25
548.204	4.28
548.548	4.15
548.892	4.23
549.236	4.21
549.58	4.23
549.924	4.3
550.268	4.13
550.612	4.24
550.956	4.26
551.3	4.33
551.643	4.37
551.987	4.53
552.33	4.4
552.674	4.37
553.017	4.34
553.361	4.2
553.704	4.13
554.048	4.34
554.391	4.37
554.734	4.35
555.077	4.34
555.42	4.41
555.764	4.31
556.107	4.25
556.45	4.31
556.793	4.31
557.135	4.48
557.478	4.46
557.821	4.24
558.164	4.32
558.507	4.24
558.849	4.44
559.192	4.43
559.534	4.4
559.877	4.41
560.219	4.4
560.562	4.51
560.904	4.56
561.246	4.51
561.589	4.47
561.931	4.54
562.273	4.38
562.615	4.36
562.957	4.37
563.299	4.39
563.641	4.18
563.983	4.56
564.325	4.68
564.667	4.61
565.008	4.42
565.35	4.64
565.692	4.37
566.033	4.56
566.375	4.59
566.716	4.45
567.058	4.47
567.399	4.45
567.741	4.36
568.082	4.44
568.423	4.46
568.764	4.44
569.105	4.39
569.447	4.51
569.788	4.49
570.129	4.46
570.47	4.33
570.811	4.2
571.151	4.53
571.492	4.53
571.833	4.34
572.174	4.54
572.514	4.41
572.855	4.32
573.195	4.41
573.536	4.47
573.876	4.45
574.217	4.37
574.557	4.44
574.898	4.47
575.238	4.71
575.578	4.43
575.918	4.58
576.258	4.49
576.598	4.63
576.938	4.69
577.278	4.54
577.618	4.51
577.958	4.57
578.298	4.51
578.638	4.57
578.977	4.6
579.317	4.56
579.657	4.45
579.996	4.67
580.336	4.58
580.675	4.66
581.014	4.54
581.354	4.57
581.693	4.66
582.032	4.41
582.372	4.61
582.711	4.61
583.05	4.77
583.389	4.57
583.728	4.79
584.067	4.5
584.406	4.6
584.745	4.62
585.083	4.52
585.422	4.57
585.761	4.7
586.1	4.46
586.438	4.52
586.777	4.73
587.115	4.38
587.454	4.48
587.792	4.67
588.13	5.04
588.469	4.78
588.807	4.88
589.145	4.94
589.483	4.62
589.821	4.46
590.159	4.57
590.497	4.69
590.835	4.68
591.173	4.48
591.511	4.78
591.849	4.72
592.187	4.55
592.524	4.72
592.862	4.8
593.2	4.68
593.537	4.75
593.875	4.72
594.212	4.73
594.55	4.57
594.887	4.55
595.224	4.66
595.561	4.69
595.899	4.72
596.236	4.86
596.573	4.65
596.91	4.51
597.247	4.74
597.584	4.62
597.921	4.72
598.258	4.65
598.594	4.69
598.931	4.46
599.268	4.8
599.604	4.76
599.941	4.99
600.277	4.7
600.614	4.96
600.95	4.58
601.287	4.65
601.623	4.83
601.959	4.84
602.296	4.86
602.632	4.96
602.968	4.47
603.304	4.71
603.64	4.93
603.976	4.97
604.312	4.74
604.648	4.64
604.984	4.94
605.319	4.9
605.655	4.75
605.991	4.61
606.326	4.87
606.662	4.79
606.998	4.64
607.333	4.69
607.668	4.75
608.004	4.6
608.339	5.07
608.674	4.88
609.01	4.93
609.345	4.75
609.68	4.63
610.015	4.79
610.35	4.97
610.685	4.48
611.02	4.67
611.355	4.68
611.689	4.83
612.024	4.64
612.359	4.58
612.694	4.87
613.028	4.89
613.363	4.9
613.697	4.84
614.032	4.75
614.366	4.82
614.7	4.78
615.035	5.16
615.369	5.15
615.703	4.81
616.037	4.76
616.371	4.93
616.705	4.82
617.039	5.05
617.373	4.91
617.707	5.02
618.041	5.09
618.375	5.13
618.709	4.95
619.042	5.11
619.376	5
619.71	4.76
620.043	4.59
620.377	4.96
620.71	5.14
621.043	4.75
621.377	4.58
621.71	4.96
622.043	4.97
622.376	4.85
622.709	5.33
623.043	5.34
623.376	5.13
623.709	5.22
624.041	5.24
624.374	5.18
624.707	5
625.04	5.51
625.373	4.79
625.705	5.03
626.038	5.03
626.37	5.33
626.703	5.46
627.035	4.95
627.368	4.99
627.7	5.05
628.032	5.15
628.365	4.98
628.697	4.8
629.029	5.13
629.361	4.76
629.693	5.09
630.025	4.98
630.357	4.91
630.689	4.73
631.021	5.35
631.353	5.07
631.684	5.26
632.016	5.13
632.348	5.01
632.679	5.53
633.011	4.95
633.342	5.41
633.674	5.41
634.005	5.26
634.336	5.21
634.668	5.04
634.999	5.47
635.33	5.1
635.661	5.27
635.992	5.23
636.323	4.75
636.654	5.35
636.985	5.06
637.316	5.06
637.647	5.42
637.977	5.37
638.308	4.99
638.639	5.08
638.969	4.96
639.3	4.96
639.63	5.07
639.961	5.72
640.291	5.48
640.622	5.13
640.952	5.57
641.282	5.25
641.612	5.72
641.943	5.01
642.273	5.15
642.603	5.22
642.933	5.37
643.263	5.58
643.592	5.29
643.922	5.34
644.252	5.16
644.582	5.31
644.911	5.26
645.241	5.22
645.571	5.61
645.9	5.33
646.23	5.64
646.559	5.36
646.888	5.15
647.218	5.76
647.547	5.26
647.876	4.87
648.205	5.14
648.534	5.24
648.863	5.43
649.192	5.75
649.521	5.58
649.85	5.7
650.179	5.27
650.508	5.72
650.837	4.89
651.165	6.04
651.494	5.21
651.822	5.52
652.151	5.74
652.479	5.02
652.808	5.45
653.136	5.38
653.465	5.47
653.793	5.44
654.121	5.44
654.449	5.46
654.777	5.79
655.105	5.46
655.433	5.53
655.761	5.06
656.089	5.49
656.417	5.48
656.745	5.97
657.073	5.7
657.4	5.77
657.728	5.24
658.056	6.06
658.383	5.46
658.711	5.37
659.038	5.74
659.365	5.73
659.693	5.7
660.02	5.37
660.347	5.46
660.674	5.14
661.001	5.21
661.329	5.41
661.656	5.52
661.982	5.44
662.309	5.38
662.636	5.45
662.963	5.67
663.29	5.27
663.616	5.25
663.943	4.67
664.27	5.23
664.596	6.18
664.923	5.72
665.249	5.78
665.576	5.24
665.902	5.27
666.228	5.65
666.554	5.63
666.881	5.37
667.207	6.21
667.533	5.48
667.859	5.64
668.185	6.18
668.511	5.66
668.837	6.27
669.162	5.56
669.488	5.92
669.814	5.25
670.139	5.65
670.465	6.1
670.791	5.39
671.116	6.54
671.442	6.22
671.767	6.31
672.092	5.57
672.418	5.68
672.743	5.67
673.068	5.53
673.393	5.92
673.718	5.81
674.043	6.38
674.368	5.38
674.693	5.51
675.018	5.81
675.343	5.64
675.667	5.98
675.992	6.15
676.317	5.5
676.641	6.26
676.966	6.1
677.29	5.38
677.615	6.09
677.939	5.68
678.264	5.48
678.588	6.93
678.912	5.69
679.236	5.62
679.56	5.88
679.885	6.07
680.209	5.74
680.532	6.06
680.856	6.47
681.18	6.19
681.504	5.79
681.828	5.28
682.152	5.61
682.475	5.83
682.799	5.97
683.122	6.01
683.446	5.27
683.769	6.19
684.093	6.56
684.416	5.8
684.739	6.34
685.062	6
685.386	6.63
685.709	6.32
686.032	6.34
686.355	5.87
686.678	6.01
687.001	5.92
687.324	5.56
687.646	5.91
687.969	5.62
688.292	6.41
688.614	6.45
688.937	6.92
689.26	5.97
689.582	6.07
689.904	6.34
690.227	6.58
690.549	6.57
690.871	6.05
691.194	6.12
691.516	5.7
691.838	6
692.16	6.73
692.482	6.36
692.804	5.91
693.126	6.67
693.448	5.66
693.769	6.11
694.091	6.22
694.413	6.02
694.735	5.83
695.056	6.66
695.378	6.66
695.699	6.07
696.021	6.29
696.342	6.12
696.663	6.94
696.984	5.9
697.306	7.03
697.627	6.7
697.948	5.91
698.269	6.29
698.59	6.43
698.911	6.05
699.232	6.21
699.553	7.53
699.873	5.73
700.194	6.07
700.515	6.8
700.835	6.41
701.156	6.19
701.477	5.59
701.797	6.22
702.117	6.13
702.438	5.93
702.758	6.57
703.078	5.94
703.398	6.49
703.719	6.85
704.039	6.25
704.359	6.17
704.679	7.22
704.999	6.65
705.319	6.22
705.638	5.99
705.958	6.98
706.278	6.95
706.597	6.51
706.917	7.12
707.237	6.48
707.556	6.66
707.876	5.82
708.195	6.34
708.514	6.94
708.834	6.57
709.153	6.17
709.472	4.46
709.791	7.55
710.11	6.48
710.429	6.46
710.748	6.78
711.067	7.06
711.386	7.03
711.705	6.1
712.023	6.28
712.342	7.31
712.661	5.56
712.979	5.44
713.298	5.99
713.616	6.48
713.935	6.35
714.253	5.78
714.572	5.69
714.89	7.7
715.208	6.13
715.526	6.49
715.844	7.17
716.162	6.02
716.48	7.74
716.798	6.47
717.116	7.73
717.434	6.57
717.752	6.34
718.069	7.28
718.387	6.62
718.705	6.98
719.022	6.67
719.34	7.41
719.657	5.57
719.975	6.7
720.292	7.86
720.609	6.68
720.927	7.59
721.244	7.25
721.561	7.25
721.878	6.76
722.195	6.28
722.512	5.98
722.829	7.03
723.146	7.48
723.463	6.28
723.779	7.05
724.096	8.13
724.413	5.96
724.729	8.32
725.046	8.16
725.362	6.65
725.679	6.14
725.995	7.81
726.311	6.77
726.628	8.32
726.944	7.8
727.26	6.14
727.576	8.03
727.892	6.89
728.208	7.6
728.524	6.93
728.84	6.22
729.156	6.34
729.472	8.19
729.787	5.73
730.103	7.15
730.419	7.46
730.734	6.99
731.05	6.83
731.365	8.08
731.681	6.53
731.996	6.44
732.311	6.71
732.626	6.99
732.942	6.45
733.257	7.51
733.572	5.67
733.887	7.1
734.202	7.32
734.517	6.14
734.832	5.47
735.146	6.77
735.461	6.88
735.776	7.5
736.091	8.31
736.405	6.6
736.72	7.06
737.034	8.06
737.349	6.11
737.663	7.24
737.977	6.51
738.292	6.58
738.606	6.59
738.92	7.28
739.234	5.31
739.548	6.47
739.862	7.85
740.176	6.98
740.49	6.23
740.804	6.46
741.117	6.88
741.431	7.43
741.745	4.39
742.058	6.99
742.372	5.63
742.685	5.87
742.999	7.1
743.312	7.58
743.626	4.17
743.939	7.47
744.252	6.83
744.565	7.61
744.878	6.84
745.191	6.37
745.505	6.86
745.817	8.15
746.13	9.02
746.443	7.66
746.756	8.41
747.069	7.53
747.381	7.97
747.694	7.06
748.007	8.22
748.319	6.97
748.632	6.51
748.944	6.26
749.256	8.87
749.569	7.02
749.881	7.5
750.193	7.07
750.505	6.19
750.817	7.69
751.129	8.07
751.441	7.42
751.753	6.88
752.065	7.8
752.377	7.81
752.689	6.58
753	8.62
753.312	7.23
753.624	7.21
753.935	5.31
754.247	7.91
754.558	9.02
754.869	6.79
755.181	5.97
755.492	7.06
755.803	5.33
756.114	7.7
756.425	8.09
756.736	9.05
757.047	9.08
757.358	6.55
757.669	7.65
757.98	6.93
758.291	6.78
758.601	8.54
758.912	7.04
759.223	6.99
759.533	8.6
759.844	9.67
760.154	8.23
760.464	9.04
760.775	8.98
761.085	5.87
761.395	8.02
761.705	7.7
762.016	10.31
762.326	7.23
762.636	10.49
762.945	7.26
763.255	6.77
763.565	8.64
763.875	9.56
764.185	8.11
764.494	7.54
764.804	7.06
765.113	7.03
765.423	8.35
765.732	8.65
766.042	7.57
766.351	7.16
766.66	8.52
766.97	7.77
767.279	8.41
767.588	8.51
767.897	7.36
768.206	8.28
768.515	7.05
768.824	8.34
769.133	7.98
769.441	6.85
769.75	8.94
770.059	7.09
770.367	8.02
770.676	7.42
770.984	4.25
771.293	6.85
771.601	8.56
771.91	5.32
772.218	7.91
772.526	9.66
772.834	7.72
773.142	8.48
773.45	9.02
773.758	7.69
774.066	9.29
774.374	10.45
774.682	8.39
774.99	9.6
775.298	5.82
775.605	4.12
775.913	10.67
776.22	10.8
776.528	7.98
776.835	10.14
777.143	7.8
777.45	7.03
777.757	5.94
778.065	8.77
778.372	9.48
778.679	12.9
778.986	8.15
779.293	7.92
779.6	7.34
779.907	7.46
780.214	8.91
780.52	11.11
780.827	9.73
781.134	5.21
781.44	10.53
781.747	6.61
782.053	5.27
782.36	7.92
782.666	7.78
782.973	7.9
783.279	9.89
783.585	10.97
783.891	12.07
784.197	9.66
784.503	9.58
784.809	7.96
785.115	11.67
785.421	5.87
785.727	13.9
786.033	8.4
786.339	10.6
786.644	8.63
786.95	9.44
787.255	8.79
787.561	13.12
787.866	11.14
788.172	8.96
788.477	10.56
788.782	4.06
789.088	9.69
789.393	7.15
789.698	11.27
790.003	3.53
790.308	8.08
790.613	8.91
790.918	7.68
791.223	3.5
791.527	8.21
791.832	9.65
792.137	6.5
792.441	11
792.746	8.9
793.05	9.13
793.355	14.88
793.659	3.85
793.963	11.03
794.268	10.56
794.572	12.85
794.876	7.88
795.18	8.66
795.484	12.17
795.788	8.77
796.092	8.63
796.396	4.39
796.7	5.11
797.004	9.04
797.307	8.99
797.611	7.51
797.915	11.9
798.218	6.37
798.522	10.17
798.825	3.7
799.128	11.01
799.432	10.86
799.735	8
800.038	10.98
800.341	6.79
800.644	6.7
800.947	6.42
801.25	11.95
801.553	9.41
801.856	9.54
802.159	5.74
802.462	9.95
802.764	13.91
803.067	11.99
803.37	11.09
803.672	12.47
803.975	9.69
804.277	7.83
804.579	14.84
804.882	13.91
805.184	7.66
805.486	7.71
805.788	11.12
806.09	2.83
806.392	10.01
806.694	13.05
806.996	11.87
807.298	11.99
807.6	8.05
807.902	5.25
808.203	16.5
808.505	9.99
808.807	1.28
809.108	2.4
809.409	11.97
809.711	1.61
810.012	9.5
810.313	7.41
810.615	4.08
810.916	15.53
811.217	15.46
811.518	8.28
811.819	13.36
812.12	10.66
812.421	13.83
812.722	6.39
813.023	13.89
813.323	8.12
813.624	9.83
813.925	9.34
814.225	5.26
814.526	12.41
814.826	12.84
815.126	12.53
815.427	14.67
815.727	9.9
816.027	12.42
816.327	3.67
816.627	15.63
816.927	5.78
817.227	6.84
817.527	6.58
817.827	8.91
818.127	7.88
818.427	7.35
818.727	8.77
819.026	15.54
819.326	12.43
819.625	6.42
819.925	7.48
820.224	10.65
820.524	10.12
820.823	8.98
821.122	5.5
821.421	8.98
821.72	14.75
822.019	8.47
822.318	5.22
822.617	9.06
822.916	9.98
823.215	8.84
823.514	9.12
823.813	10.91
824.111	10.43
824.41	10.6
824.709	10.51
825.007	11.41
825.306	9.87
825.604	9.9
825.902	8.84
826.201	9.99
826.499	8.86
826.797	9.93
827.095	9.35
827.393	10.76
827.691	8.8
827.989	9.44
828.287	13.13
828.585	9.48
828.882	10.07
829.18	11.02
829.478	12.28
829.775	10.97
830.073	11.65
830.37	7.6
830.668	8.56
830.965	12.92
831.263	8.13
831.56	11.35
831.857	12.45
832.154	8.07
832.451	10.9
832.748	6.92
833.045	8.03
833.342	3.16
833.639	14.94
833.936	19.53
834.232	7.74
834.529	15.77
834.826	12.05
835.122	9.26
835.419	10.29
835.715	16.17
836.012	13.64
836.308	11.71
836.604	12.66
836.901	11.99
837.197	6.65
837.493	11.17
837.789	12.16
838.085	10.86
838.381	7.8
838.677	9.77
838.972	8.1
839.268	5.66
839.564	5.62
839.86	12.64
840.155	8.77
840.451	14.25
840.746	17.47
841.042	13.84
841.337	8.99
841.632	17.56
841.928	0.56
842.223	18.57
842.518	20.9
842.813	3.98
843.108	8.22
843.403	6.94
843.698	15.5
843.993	5.67
844.287	13.4
844.582	20.75
844.877	20.77
845.171	-1.31
845.466	14.89
845.761	13.02
846.055	22.34
846.349	22.2
846.644	5.7
846.938	27.34
847.232	11.69
847.526	7.28
847.82	-7.53
848.114	3.38
848.408	8.23
848.702	1.46
848.996	8.38
849.29	21.78
849.584	27.47
849.877	0.64
850.171	25.35
850.465	6.43
850.758	0.46
851.052	11.36
851.345	12.17
851.638	21.6
851.932	29.33
852.225	3.02
852.518	4.12
852.811	9.42
853.104	10.9
853.397	17.58
853.69	-7.19
853.983	0.2
854.276	-6.3
854.569	19.69
854.861	10.96
855.154	-9.9
855.447	48.86
855.739	19.77
856.032	27.57
856.324	16.63
856.616	14.61
856.909	-2.13
857.201	2.6
857.493	7.17
857.785	-14.17
858.077	2.22
858.369	14.42
858.661	44.48
858.953	4.99
859.245	-22.71
859.537	29.15
859.829	21.92
860.12	-4.29
860.412	39.95
860.703	17.29
860.995	26.82
861.286	2.29
861.578	12.33
861.869	30.48
862.16	-25.12
862.452	11.8
862.743	16.16
863.034	38.96
863.325	0.14
863.616	20.74
863.907	-9.79
864.198	14.58
864.488	35.64
864.779	37.9
865.07	1.73
865.36	21.28
865.651	21.81
865.941	22.27
866.232	-26.82
866.522	22.2
866.813	16.99
867.103	0.57
867.393	30.72
867.683	15.9
867.973	-6.18
868.263	-17.58
868.553	10.82
868.843	18.59
869.133	-10.32
869.423	13.76
869.713	10.23
870.002	-20.08
870.292	27.82
870.582	42.67
870.871	28.24
871.161	22.51
871.45	-2.97
871.739	14.61
872.029	29.42
872.318	9.2
872.607	13.09
872.896	18.48
873.185	4.2
873.474	10.25
873.763	22.92
874.052	7.28
874.341	3.79
874.63	-1.71
874.918	17.12
875.207	1.08
875.496	12.37
875.784	-62.4
876.073	5.96
876.361	28.1
876.649	6.75
876.938	11.41
877.226	19
877.514	2.51
877.802	29.47
878.09	21.24
878.378	17.46
878.666	51.47
878.954	18.92
879.242	39.14
879.53	44.26
879.817	-32.47
880.105	38.72
880.392	27.36
880.68	-20.1
880.967	38.45
881.255	3.84
881.542	15.43
881.83	9.85
882.117	-9.91
882.404	10.41
882.691	1.34
882.978	11.14
883.265	4.41
883.552	21.91
883.839	5.96
884.126	6.36
884.413	23.65
884.699	4.87
884.986	17.07
885.273	19.11
885.559	19.11
885.846	19.11
