Data from 0356_crown_Reflection__4__71.txt Node

Date: Mon Dec 11 18:29:25 CST 2023
User: ToomeyLab
Spectrometer: FLMS14357
Trigger mode: 0
Integration Time (sec): 1.000000E-2
Scans to average: 100
Electric dark correction enabled: true
Nonlinearity correction enabled: false
Boxcar width: 0
XAxis mode: Wavelengths
Number of Pixels in Spectrum: 2048
>>>>>Begin Spectral Data<<<<<
189.047	-50.61
189.435	-50.61
189.823	-50.61
190.211	189.93
190.599	64.11
190.987	215.23
191.375	456.3
191.763	15.68
192.151	13391.67
192.538	1312.84
192.926	49.4
193.314	-30975
193.702	114.84
194.089	-13.51
194.477	-56.71
194.864	-714.89
195.252	197.48
195.639	17.94
196.027	-20.72
196.414	-282.92
196.801	-121.25
197.189	-30.35
197.576	71.25
197.963	-76.96
198.351	-61.48
198.738	38.09
199.125	-54.87
199.512	-6.34
199.899	-13.93
200.286	-0.72
200.673	-71.04
201.06	42.15
201.447	13.52
201.833	34.07
202.22	47.59
202.607	-25.61
202.994	-37.48
203.38	-39.58
203.767	31.24
204.154	19.28
204.54	-13.83
204.927	-11.22
205.313	-5.62
205.699	-53.81
206.086	12.04
206.472	41.94
206.858	-13.82
207.245	20.62
207.631	-20.54
208.017	-44.9
208.403	23.11
208.789	6.76
209.175	0.01
209.561	-30.69
209.947	-0.71
210.333	20.39
210.719	21.19
211.105	12.35
211.491	30.5
211.876	16.58
212.262	23.22
212.648	36.75
213.034	1.4
213.419	28.31
213.805	-14.11
214.19	16.15
214.576	-21.23
214.961	-8.3
215.346	-5.94
215.732	3.55
216.117	-19.04
216.502	15.14
216.888	11.49
217.273	7.86
217.658	15.4
218.043	-5.91
218.428	20.24
218.813	1.04
219.198	-6.93
219.583	0.28
219.968	-14.2
220.353	-19.68
220.738	12.79
221.122	13.41
221.507	28.5
221.892	-9.54
222.276	8.56
222.661	11.22
223.046	-4.34
223.43	4.16
223.815	-1.73
224.199	9.57
224.583	4.22
224.968	10.8
225.352	6
225.736	-0.16
226.121	10.94
226.505	0.52
226.889	5.22
227.273	2.12
227.657	11.15
228.041	3.65
228.425	3.5
228.809	-1.88
229.193	5.55
229.577	3.86
229.961	5.19
230.344	3.98
230.728	3.77
231.112	4.42
231.495	4.44
231.879	4.77
232.263	2.57
232.646	3.71
233.03	2.65
233.413	4.45
233.797	6.81
234.18	4.18
234.563	6.22
234.946	5.49
235.33	5.05
235.713	4.73
236.096	5.29
236.479	5.68
236.862	4.37
237.245	4.4
237.628	4.76
238.011	5.33
238.394	4.11
238.777	1.9
239.16	3.3
239.543	5.21
239.925	4.55
240.308	2.2
240.691	4.83
241.073	6.26
241.456	4.53
241.838	6.37
242.221	4.23
242.603	2.61
242.986	4.74
243.368	4.18
243.75	4.11
244.133	4.65
244.515	4.3
244.897	4.19
245.279	3.92
245.661	4.54
246.043	5.24
246.425	4.2
246.807	4.03
247.189	4.35
247.571	3.65
247.953	4.13
248.335	4.28
248.717	4.58
249.098	4.17
249.48	4
249.862	4.19
250.243	3.98
250.625	3.97
251.006	3.67
251.388	3.88
251.769	4.27
252.151	5.2
252.532	4.15
252.913	3.89
253.295	4.01
253.676	3.31
254.057	4.08
254.438	4.69
254.819	3.55
255.2	3.01
255.581	2.39
255.962	2.76
256.343	4
256.724	4.38
257.105	3.67
257.486	3.14
257.867	4.69
258.247	3.08
258.628	3.63
259.009	5.1
259.389	5.42
259.77	3.48
260.15	3.58
260.531	3.83
260.911	3.65
261.292	3.67
261.672	3.9
262.052	3.94
262.432	3.79
262.813	4.11
263.193	3.84
263.573	4.02
263.953	3.23
264.333	3.61
264.713	3.98
265.093	3.75
265.473	3.87
265.853	3.77
266.233	3.57
266.612	3.21
266.992	4.85
267.372	4.98
267.752	4.27
268.131	4.49
268.511	3.24
268.89	4.08
269.27	4.68
269.649	3.66
270.029	4.54
270.408	3.91
270.787	3.39
271.167	3.21
271.546	3.74
271.925	3.73
272.304	3.78
272.683	3.96
273.062	3.62
273.441	3.64
273.82	3.77
274.199	3.73
274.578	3.56
274.957	4.11
275.336	3.39
275.715	3.5
276.093	4.51
276.472	3.63
276.851	4.22
277.229	3.55
277.608	4.17
277.986	4.58
278.365	3.27
278.743	2.93
279.122	3.49
279.5	3.5
279.878	3.58
280.257	3.14
280.635	3.28
281.013	3.55
281.391	3.86
281.769	3.38
282.147	3.85
282.525	3.13
282.903	3.72
283.281	3.58
283.659	3.16
284.037	3.24
284.415	3.21
284.792	3.77
285.17	4.03
285.548	3.03
285.925	3.06
286.303	3.6
286.68	3.42
287.058	3.59
287.435	3.81
287.813	3.63
288.19	3.21
288.567	3.11
288.945	3.62
289.322	3.55
289.699	3.48
290.076	3.03
290.453	3.97
290.83	3.63
291.207	3.39
291.584	3.43
291.961	3.7
292.338	3.7
292.715	3.32
293.092	3.52
293.469	3.57
293.845	3.59
294.222	3.75
294.599	3.05
294.975	3.4
295.352	3.39
295.728	3.43
296.105	3.22
296.481	3.38
296.858	2.9
297.234	3.76
297.61	3.78
297.986	3.6
298.363	3.41
298.739	3.55
299.115	3.49
299.491	3.33
299.867	3.56
300.243	3.41
300.619	3.45
300.995	3.61
301.371	3.49
301.746	3.15
302.122	3.3
302.498	3.68
302.874	3.88
303.249	3.28
303.625	3.41
304	3.54
304.376	3.11
304.751	3.29
305.127	3.11
305.502	3.38
305.878	3.73
306.253	3.57
306.628	3.65
307.003	3.68
307.378	3.18
307.754	3.55
308.129	3.14
308.504	3.06
308.879	2.69
309.254	3.66
309.629	3.48
310.003	3.31
310.378	3.27
310.753	3.79
311.128	3.59
311.502	3
311.877	3.84
312.252	3.61
312.626	3.11
313.001	3.78
313.375	3.25
313.75	3.33
314.124	3.53
314.498	3.07
314.873	3.75
315.247	3.86
315.621	4.13
315.995	3.63
316.369	3.74
316.743	3.7
317.117	3.97
317.491	3.79
317.865	3.4
318.239	3.59
318.613	3.14
318.987	3.37
319.361	3.62
319.734	3.89
320.108	3.91
320.482	3.16
320.855	3.32
321.229	3.46
321.602	3.63
321.976	4.16
322.349	3.46
322.723	2.97
323.096	3.55
323.469	3.73
323.843	3
324.216	3.86
324.589	3.95
324.962	3.65
325.335	3.27
325.708	3.63
326.081	3.85
326.454	3.84
326.827	3.54
327.2	2.79
327.573	3.4
327.945	3.8
328.318	3.4
328.691	3.63
329.063	3.66
329.436	3.93
329.809	2.79
330.181	3.97
330.553	3.67
330.926	3.45
331.298	3.96
331.671	3.4
332.043	4.23
332.415	3.66
332.787	3.31
333.159	3.64
333.532	3.73
333.904	3.61
334.276	3.76
334.648	3.65
335.02	3.55
335.391	3.54
335.763	3.8
336.135	3.73
336.507	3.46
336.879	3.84
337.25	3.09
337.622	3.27
337.993	3.49
338.365	3.3
338.736	3.34
339.108	4
339.479	3.61
339.851	3.7
340.222	3.08
340.593	3.14
340.964	3.87
341.336	3.3
341.707	3.36
342.078	3.58
342.449	3.55
342.82	3.38
343.191	3.22
343.562	3.86
343.933	3.19
344.303	3.56
344.674	3.9
345.045	4.17
345.416	3.22
345.786	3.71
346.157	3.68
346.527	3.5
346.898	3.71
347.268	3.69
347.639	3.4
348.009	3.79
348.38	3.1
348.75	3.6
349.12	4.08
349.49	3.3
349.861	3.28
350.231	3.46
350.601	3.78
350.971	3.91
351.341	3.46
351.711	3.52
352.081	3.07
352.45	3.71
352.82	3.13
353.19	3.75
353.56	3.64
353.929	3.8
354.299	4.03
354.669	3.65
355.038	3.7
355.408	3.21
355.777	3.2
356.147	3.94
356.516	3.51
356.885	3.6
357.254	3.8
357.624	3.59
357.993	3.31
358.362	3.72
358.731	3.51
359.1	3.77
359.469	3.33
359.838	3.85
360.207	3.56
360.576	3.46
360.945	3.86
361.314	4.13
361.682	3.35
362.051	3.81
362.42	3.44
362.788	3.42
363.157	3.6
363.525	3.27
363.894	3.91
364.262	3.73
364.631	3.81
364.999	3.34
365.367	3.73
365.735	3.54
366.104	3.59
366.472	3.65
366.84	3.58
367.208	3.83
367.576	3.82
367.944	3.66
368.312	4
368.68	3.86
369.048	3.77
369.416	3.54
369.783	3.49
370.151	4.04
370.519	4.18
370.886	3.67
371.254	3.66
371.621	3.73
371.989	4.05
372.356	3.54
372.724	3.88
373.091	3.86
373.458	3.6
373.826	4.01
374.193	3.57
374.56	4.02
374.927	3.72
375.294	4.03
375.661	3.61
376.028	3.68
376.395	3.91
376.762	3.67
377.129	4.14
377.496	3.74
377.863	3.65
378.229	3.68
378.596	3.85
378.963	3.51
379.329	3.88
379.696	3.77
380.062	3.7
380.429	3.73
380.795	3.93
381.161	3.65
381.528	4.02
381.894	4.06
382.26	4.14
382.626	3.88
382.993	3.75
383.359	4.01
383.725	3.77
384.091	3.78
384.457	3.54
384.823	4.06
385.188	3.68
385.554	3.84
385.92	4.02
386.286	3.96
386.651	3.48
387.017	3.9
387.383	3.83
387.748	3.74
388.114	3.73
388.479	3.89
388.845	3.73
389.21	3.79
389.575	3.68
389.94	3.88
390.306	4.08
390.671	3.82
391.036	3.84
391.401	4.08
391.766	3.67
392.131	3.83
392.496	4.07
392.861	4.35
393.226	3.89
393.591	3.95
393.956	3.8
394.32	4.21
394.685	3.72
395.05	4.07
395.414	4.33
395.779	3.83
396.143	3.68
396.508	3.68
396.872	3.79
397.236	3.92
397.601	3.82
397.965	3.94
398.329	4.06
398.694	3.76
399.058	3.76
399.422	3.71
399.786	3.85
400.15	3.91
400.514	3.99
400.878	4.19
401.242	3.61
401.605	4.05
401.969	3.51
402.333	3.89
402.697	3.83
403.06	3.95
403.424	3.98
403.787	4.14
404.151	4.03
404.514	3.9
404.878	4.12
405.241	4.08
405.604	3.97
405.968	4.05
406.331	3.65
406.694	3.84
407.057	3.8
407.42	4.23
407.783	3.99
408.146	4.17
408.509	3.95
408.872	3.74
409.235	3.83
409.598	3.67
409.961	4.01
410.323	3.98
410.686	3.81
411.049	3.82
411.411	3.95
411.774	4.13
412.136	3.92
412.499	3.98
412.861	3.85
413.223	4
413.586	4.06
413.948	4.03
414.31	3.81
414.672	3.87
415.035	4.05
415.397	4.08
415.759	4.19
416.121	4
416.483	4.1
416.845	3.78
417.206	4.11
417.568	4.08
417.93	4.23
418.292	3.94
418.653	3.78
419.015	3.99
419.377	4.15
419.738	3.82
420.1	3.99
420.461	3.92
420.822	3.94
421.184	3.92
421.545	3.8
421.906	3.88
422.267	4.07
422.629	3.8
422.99	3.84
423.351	3.78
423.712	3.87
424.073	3.87
424.434	3.94
424.795	3.99
425.155	4.02
425.516	3.78
425.877	3.8
426.238	3.86
426.598	3.79
426.959	3.83
427.32	3.92
427.68	3.95
428.041	3.68
428.401	3.95
428.761	3.97
429.122	3.92
429.482	4.07
429.842	3.9
430.202	4.06
430.563	3.99
430.923	4.01
431.283	3.93
431.643	3.94
432.003	4.15
432.363	3.99
432.722	3.95
433.082	3.92
433.442	4.1
433.802	3.88
434.161	4.18
434.521	3.76
434.881	3.98
435.24	3.75
435.6	3.88
435.959	4.03
436.319	3.9
436.678	4.04
437.037	4.05
437.396	3.98
437.756	3.97
438.115	4.15
438.474	4.15
438.833	4
439.192	3.93
439.551	3.99
439.91	3.96
440.269	4.08
440.628	3.78
440.987	4.06
441.345	3.95
441.704	3.98
442.063	3.9
442.421	3.89
442.78	3.9
443.138	3.92
443.497	3.99
443.855	3.77
444.214	4.1
444.572	3.94
444.93	4.08
445.288	3.89
445.647	4.09
446.005	3.92
446.363	3.87
446.721	3.9
447.079	3.88
447.437	3.89
447.795	3.87
448.153	4.11
448.51	3.94
448.868	3.82
449.226	3.79
449.584	4.02
449.941	3.95
450.299	3.9
450.656	3.97
451.014	3.99
451.371	3.87
451.729	4.12
452.086	4
452.443	4.07
452.801	4.1
453.158	4.15
453.515	3.81
453.872	4.16
454.229	3.86
454.586	3.9
454.943	3.95
455.3	4.1
455.657	4.14
456.014	3.98
456.371	4.14
456.727	3.92
457.084	3.98
457.441	4.02
457.797	3.95
458.154	4
458.51	4.13
458.867	3.91
459.223	3.91
459.58	3.91
459.936	4.18
460.292	4.02
460.648	4.02
461.005	3.94
461.361	3.86
461.717	3.78
462.073	3.94
462.429	3.88
462.785	3.89
463.141	3.95
463.496	3.92
463.852	3.94
464.208	3.87
464.564	4.06
464.919	4.05
465.275	3.99
465.631	3.8
465.986	4.01
466.342	4.09
466.697	3.94
467.052	3.94
467.408	4.08
467.763	3.87
468.118	3.9
468.473	3.95
468.829	4.02
469.184	4.41
469.539	4.07
469.894	3.96
470.249	3.95
470.603	3.84
470.958	4.06
471.313	4.08
471.668	4.2
472.023	4.17
472.377	4.02
472.732	3.96
473.086	4.11
473.441	4.09
473.795	4.09
474.15	4.02
474.504	4.04
474.859	4.01
475.213	3.99
475.567	4.05
475.921	3.93
476.275	4.05
476.63	3.84
476.984	3.96
477.338	3.83
477.692	3.9
478.045	3.94
478.399	3.99
478.753	3.79
479.107	3.75
479.461	3.87
479.814	3.93
480.168	3.99
480.521	4.12
480.875	3.94
481.228	3.93
481.582	4.26
481.935	4.07
482.289	3.98
482.642	3.95
482.995	3.93
483.348	3.87
483.701	3.79
484.055	3.91
484.408	3.97
484.761	3.86
485.114	3.79
485.466	3.7
485.819	3.65
486.172	3.68
486.525	3.71
486.878	3.79
487.23	3.82
487.583	3.83
487.936	3.9
488.288	3.93
488.641	3.79
488.993	3.71
489.345	3.82
489.698	3.72
490.05	3.75
490.402	3.75
490.754	3.79
491.107	3.86
491.459	3.84
491.811	3.9
492.163	3.97
492.515	3.92
492.866	3.94
493.218	3.82
493.57	3.78
493.922	3.74
494.274	3.88
494.625	3.89
494.977	3.93
495.328	3.93
495.68	4.07
496.031	3.89
496.383	3.84
496.734	4.01
497.086	3.94
497.437	3.92
497.788	3.89
498.139	3.94
498.49	3.89
498.842	4.06
499.193	4.04
499.544	3.95
499.894	4.11
500.245	3.87
500.596	3.98
500.947	3.85
501.298	4.08
501.648	3.92
501.999	3.8
502.35	3.98
502.7	4.05
503.051	4.01
503.401	4.04
503.752	3.88
504.102	3.77
504.452	4.01
504.803	4.15
505.153	4.05
505.503	4.11
505.853	4.03
506.203	3.98
506.553	3.93
506.903	3.86
507.253	4.05
507.603	3.97
507.953	4.05
508.303	3.96
508.652	3.85
509.002	3.87
509.352	4.14
509.701	3.88
510.051	3.87
510.4	3.96
510.75	3.92
511.099	3.85
511.449	3.88
511.798	3.99
512.147	4.1
512.496	3.97
512.846	4.09
513.195	4.14
513.544	3.95
513.893	3.95
514.242	3.95
514.591	3.93
514.939	3.9
515.288	4.06
515.637	3.89
515.986	3.85
516.334	4.04
516.683	4.05
517.032	4
517.38	3.93
517.729	3.93
518.077	4
518.426	4.06
518.774	4
519.122	3.97
519.47	3.9
519.819	3.85
520.167	3.87
520.515	3.77
520.863	3.79
521.211	3.93
521.559	4
521.907	3.93
522.255	3.84
522.602	3.9
522.95	4.05
523.298	3.88
523.645	4.19
523.993	3.9
524.341	4.04
524.688	3.89
525.036	3.96
525.383	3.9
525.73	3.99
526.078	3.98
526.425	3.9
526.772	3.89
527.119	3.88
527.466	3.9
527.814	3.86
528.161	3.85
528.508	3.97
528.854	3.87
529.201	3.87
529.548	3.79
529.895	3.78
530.242	3.73
530.588	3.68
530.935	3.71
531.282	3.78
531.628	3.78
531.975	3.79
532.321	3.76
532.667	3.85
533.014	3.83
533.36	3.88
533.706	3.88
534.052	3.83
534.399	3.88
534.745	3.9
535.091	3.73
535.437	3.75
535.783	3.78
536.129	3.84
536.474	3.86
536.82	3.89
537.166	3.83
537.512	3.88
537.857	3.86
538.203	3.88
538.549	3.82
538.894	3.9
539.239	3.98
539.585	3.9
539.93	3.91
540.276	4
540.621	3.99
540.966	4.03
541.311	4.01
541.656	3.93
542.001	3.92
542.346	3.9
542.691	3.79
543.036	3.74
543.381	3.67
543.726	3.8
544.071	3.8
544.415	3.76
544.76	3.8
545.105	3.81
545.449	3.84
545.794	3.78
546.138	3.9
546.483	3.91
546.827	3.91
547.171	3.93
547.516	4.01
547.86	4
548.204	3.98
548.548	3.74
548.892	3.95
549.236	3.83
549.58	3.94
549.924	4.04
550.268	3.92
550.612	3.91
550.956	3.94
551.3	3.98
551.643	3.87
551.987	3.95
552.33	4.05
552.674	3.97
553.017	4.04
553.361	3.85
553.704	3.88
554.048	4
554.391	4.06
554.734	3.95
555.077	4.01
555.42	3.94
555.764	3.85
556.107	4.04
556.45	4.01
556.793	3.81
557.135	4.11
557.478	4.02
557.821	3.94
558.164	4.21
558.507	3.85
558.849	4.05
559.192	3.82
559.534	3.94
559.877	4.09
560.219	3.94
560.562	4
560.904	3.93
561.246	3.99
561.589	4.16
561.931	4.05
562.273	3.73
562.615	3.99
562.957	4.01
563.299	4.01
563.641	3.97
563.983	4.06
564.325	4.12
564.667	4.22
565.008	3.9
565.35	4.09
565.692	3.98
566.033	4.15
566.375	4.13
566.716	4
567.058	3.99
567.399	4.14
567.741	3.8
568.082	4
568.423	3.99
568.764	4.02
569.105	3.92
569.447	4.06
569.788	3.99
570.129	4.01
570.47	3.87
570.811	3.75
571.151	3.87
571.492	4.11
571.833	3.96
572.174	4.11
572.514	3.94
572.855	3.88
573.195	4.12
573.536	3.82
573.876	4.24
574.217	3.98
574.557	3.89
574.898	4.09
575.238	4.19
575.578	3.95
575.918	4.01
576.258	3.91
576.598	4.06
576.938	4.03
577.278	4
577.618	3.95
577.958	3.84
578.298	4.13
578.638	4.21
578.977	4.08
579.317	3.88
579.657	3.86
579.996	3.98
580.336	4
580.675	4.1
581.014	3.89
581.354	3.83
581.693	4
582.032	3.66
582.372	4.24
582.711	3.94
583.05	4.06
583.389	3.89
583.728	4.27
584.067	3.93
584.406	4.07
584.745	4.12
585.083	4.04
585.422	4.08
585.761	4.12
586.1	4.07
586.438	3.6
586.777	3.97
587.115	3.53
587.454	4.08
587.792	4.08
588.13	4.22
588.469	3.93
588.807	4.06
589.145	4.51
589.483	4.22
589.821	3.75
590.159	4.19
590.497	4
590.835	4.03
591.173	4.08
591.511	4.07
591.849	4.18
592.187	3.81
592.524	3.94
592.862	4.09
593.2	3.93
593.537	3.85
593.875	4.05
594.212	4.18
594.55	3.85
594.887	4.14
595.224	4.38
595.561	4.06
595.899	3.88
596.236	3.99
596.573	4.07
596.91	3.85
597.247	3.93
597.584	4.02
597.921	3.71
598.258	3.83
598.594	3.94
598.931	3.84
599.268	3.99
599.604	3.87
599.941	3.88
600.277	3.81
600.614	4.2
600.95	3.87
601.287	4.02
601.623	4.04
601.959	4.09
602.296	3.82
602.632	4.02
602.968	3.83
603.304	4.18
603.64	3.85
603.976	3.96
604.312	4.02
604.648	4.04
604.984	4.19
605.319	3.9
605.655	4.06
605.991	3.97
606.326	3.93
606.662	3.86
606.998	3.68
607.333	3.98
607.668	4.14
608.004	3.69
608.339	4.16
608.674	4.07
609.01	3.94
609.345	3.82
609.68	4.01
610.015	3.97
610.35	4.05
610.685	3.85
611.02	3.84
611.355	4.11
611.689	3.9
612.024	3.89
612.359	3.97
612.694	3.91
613.028	3.9
613.363	3.84
613.697	3.87
614.032	4.04
614.366	4.08
614.7	4.13
615.035	4.27
615.369	3.98
615.703	4.1
616.037	3.94
616.371	4.07
616.705	3.97
617.039	3.91
617.373	3.75
617.707	4.07
618.041	4.05
618.375	4.36
618.709	3.69
619.042	3.9
619.376	4.2
619.71	4.09
620.043	3.92
620.377	4.44
620.71	4.03
621.043	4.21
621.377	3.53
621.71	4.04
622.043	3.76
622.376	3.95
622.709	4.08
623.043	4.26
623.376	3.98
623.709	4.33
624.041	3.68
624.374	3.89
624.707	4.13
625.04	4.54
625.373	4.08
625.705	3.93
626.038	3.86
626.37	4.67
626.703	4.11
627.035	4.03
627.368	3.91
627.7	3.92
628.032	4.12
628.365	3.82
628.697	3.85
629.029	4.18
629.361	3.8
629.693	4.01
630.025	3.83
630.357	3.89
630.689	3.46
631.021	3.66
631.353	3.98
631.684	4.23
632.016	3.79
632.348	4.29
632.679	4.25
633.011	3.97
633.342	3.83
633.674	4.34
634.005	4.13
634.336	3.94
634.668	3.69
634.999	4.47
635.33	3.83
635.661	4.04
635.992	4.14
636.323	3.87
636.654	4.25
636.985	4.25
637.316	3.88
637.647	4.28
637.977	4.2
638.308	3.92
638.639	3.62
638.969	3.99
639.3	4.15
639.63	3.76
639.961	3.88
640.291	4.27
640.622	3.92
640.952	4.15
641.282	3.86
641.612	4.61
641.943	3.91
642.273	4.16
642.603	4.12
642.933	4.03
643.263	4.42
643.592	3.56
643.922	3.98
644.252	3.85
644.582	4.03
644.911	4.46
645.241	3.8
645.571	4.29
645.9	3.4
646.23	3.41
646.559	4.18
646.888	4.17
647.218	4.61
647.547	3.7
647.876	4.02
648.205	3.47
648.534	4.41
648.863	3.74
649.192	4.16
649.521	4.3
649.85	3.89
650.179	4.24
650.508	3.95
650.837	3.62
651.165	4.68
651.494	4.04
651.822	4.29
652.151	4.22
652.479	4.14
652.808	3.79
653.136	4.21
653.465	4.21
653.793	3.81
654.121	4.14
654.449	4.34
654.777	4.2
655.105	3.98
655.433	3.87
655.761	4.24
656.089	3.65
656.417	4.41
656.745	4.32
657.073	4.6
657.4	4.47
657.728	4.22
658.056	4.06
658.383	3.77
658.711	4.29
659.038	3.96
659.365	4.48
659.693	4.11
660.02	3.69
660.347	3.8
660.674	4.33
661.001	4.17
661.329	3.76
661.656	4.24
661.982	4.17
662.309	4.05
662.636	4.24
662.963	4.46
663.29	3.7
663.616	4.39
663.943	3.72
664.27	4.79
664.596	4.12
664.923	3.89
665.249	3.78
665.576	3.81
665.902	3.31
666.228	4.19
666.554	4.28
666.881	4.24
667.207	4.39
667.533	4.11
667.859	4.59
668.185	4.62
668.511	4.04
668.837	4.49
669.162	4.43
669.488	4.59
669.814	3.8
670.139	3.86
670.465	4.59
670.791	4.11
671.116	4.22
671.442	4.29
671.767	4.66
672.092	3.92
672.418	4.37
672.743	3.45
673.068	4.15
673.393	3.71
673.718	4.15
674.043	4.48
674.368	3.96
674.693	4.26
675.018	4.74
675.343	4.11
675.667	4.42
675.992	4.8
676.317	4.08
676.641	4.57
676.966	4.44
677.29	3.72
677.615	4.52
677.939	3.94
678.264	3.67
678.588	4.37
678.912	3.94
679.236	4.17
679.56	4.36
679.885	4.81
680.209	4.49
680.532	4.47
680.856	4.52
681.18	4.56
681.504	4.17
681.828	4.18
682.152	3.6
682.475	4.04
682.799	4.03
683.122	4.33
683.446	3.29
683.769	3.9
684.093	4.24
684.416	4.25
684.739	4.61
685.062	4.09
685.386	4.9
685.709	4.22
686.032	4.68
686.355	4.27
686.678	4.8
687.001	4.66
687.324	3.21
687.646	4.07
687.969	4.25
688.292	4.92
688.614	5.07
688.937	4.69
689.26	4.36
689.582	3.85
689.904	4.12
690.227	3.93
690.549	4.51
690.871	4.21
691.194	4.09
691.516	3.79
691.838	4.27
692.16	5.13
692.482	4.77
692.804	4.2
693.126	4.91
693.448	3.5
693.769	3.8
694.091	3.83
694.413	5.12
694.735	4.37
695.056	4.12
695.378	4.69
695.699	3.05
696.021	4.95
696.342	4.63
696.663	4.73
696.984	4.07
697.306	4.83
697.627	5.26
697.948	3.81
698.269	4.38
698.59	5.01
698.911	4.4
699.232	4.15
699.553	4.73
699.873	4.28
700.194	4.09
700.515	4.67
700.835	4.18
701.156	4.42
701.477	4.05
701.797	4.84
702.117	4.19
702.438	4.12
702.758	4.54
703.078	4.52
703.398	4.25
703.719	4.5
704.039	4.46
704.359	4.45
704.679	5.63
704.999	4.65
705.319	3.98
705.638	3.96
705.958	4.1
706.278	4.59
706.597	4.94
706.917	4.33
707.237	3.78
707.556	3.61
707.876	4.07
708.195	4.2
708.514	5.24
708.834	4.14
709.153	3.99
709.472	3.5
709.791	5.31
710.11	5.12
710.429	4.2
710.748	4.08
711.067	5
711.386	4.98
711.705	4.97
712.023	4.32
712.342	5.04
712.661	4.04
712.979	4.5
713.298	3.64
713.616	6.03
713.935	4.77
714.253	5.08
714.572	3.97
714.89	3.41
715.208	4.09
715.526	3.31
715.844	4.58
716.162	3.35
716.48	6.28
716.798	4.87
717.116	4.95
717.434	4.65
717.752	4.3
718.069	4.66
718.387	4.68
718.705	3.66
719.022	4.68
719.34	4.87
719.657	4.53
719.975	4.56
720.292	6.09
720.609	4.79
720.927	5.07
721.244	5.82
721.561	4.53
721.878	4.32
722.195	5.2
722.512	5.34
722.829	2.67
723.146	4.38
723.463	4.7
723.779	4.5
724.096	4.74
724.413	3.4
724.729	4.69
725.046	3.66
725.362	4.75
725.679	5.02
725.995	4.16
726.311	3.28
726.628	4.6
726.944	6.79
727.26	3.81
727.576	5.14
727.892	4.7
728.208	4.57
728.524	5.56
728.84	3.6
729.156	3.42
729.472	4.21
729.787	4.8
730.103	5.62
730.419	6.14
730.734	4
731.05	4.02
731.365	5.27
731.681	4.6
731.996	4.95
732.311	5.04
732.626	4.8
732.942	4.49
733.257	4.81
733.572	4.29
733.887	4.4
734.202	5.08
734.517	5.21
734.832	4.75
735.146	5.01
735.461	3.64
735.776	6.44
736.091	4.83
736.405	4.67
736.72	5.88
737.034	5.35
737.349	2.5
737.663	3.21
737.977	3.93
738.292	4.1
738.606	4.82
738.92	4.63
739.234	3.26
739.548	4.74
739.862	5.56
740.176	4.48
740.49	4.23
740.804	5.93
741.117	5.59
741.431	5.37
741.745	3.04
742.058	5.58
742.372	3.42
742.685	5.59
742.999	6.4
743.312	3.14
743.626	1.66
743.939	5.1
744.252	5.6
744.565	6.26
744.878	5.3
745.191	3.97
745.505	4.28
745.817	4.45
746.13	5.03
746.443	5.67
746.756	6.49
747.069	4.99
747.381	4.74
747.694	2.63
748.007	5.91
748.319	3.18
748.632	3.19
748.944	3.11
749.256	5.31
749.569	3.92
749.881	3.97
750.193	5.98
750.505	6.03
750.817	5.04
751.129	5.51
751.441	5.02
751.753	3.05
752.065	6.7
752.377	5.26
752.689	4.66
753	5.55
753.312	6.55
753.624	4.66
753.935	4.26
754.247	5.02
754.558	6
754.869	4.56
755.181	3.45
755.492	3.62
755.803	4.72
756.114	5.25
756.425	5.65
756.736	4.33
757.047	3.86
757.358	4.63
757.669	5.36
757.98	3.3
758.291	4.05
758.601	5.6
758.912	4.79
759.223	5.04
759.533	5.69
759.844	5.56
760.154	6.27
760.464	6.61
760.775	4.27
761.085	5.96
761.395	5.77
761.705	6.63
762.016	4.76
762.326	3.82
762.636	7.22
762.945	4.69
763.255	4.76
763.565	5.3
763.875	5.86
764.185	5.14
764.494	6.64
764.804	3.72
765.113	4.22
765.423	3.29
765.732	7.17
766.042	4.99
766.351	4.42
766.66	5.46
766.97	5.28
767.279	5.47
767.588	4.62
767.897	3.32
768.206	4.44
768.515	5.6
768.824	5.08
769.133	3.04
769.441	3.62
769.75	5.92
770.059	3.95
770.367	4.43
770.676	5.39
770.984	4.52
771.293	3.53
771.601	6.68
771.91	4.74
772.218	5
772.526	6.01
772.834	7.23
773.142	5.57
773.45	9.8
773.758	3.06
774.066	6.39
774.374	4.31
774.682	4.83
774.99	4.87
775.298	5.28
775.605	3.05
775.913	7.82
776.22	3.91
776.528	6.32
776.835	7.5
777.143	4
777.45	2
777.757	6.04
778.065	6.34
778.372	8.21
778.679	4.85
778.986	8.13
779.293	3.22
779.6	6.3
779.907	2.03
780.214	3.7
780.52	5.22
780.827	5.57
781.134	5.11
781.44	5.95
781.747	1.85
782.053	2.22
782.36	4.59
782.666	5.5
782.973	7.18
783.279	6.07
783.585	5.8
783.891	7.36
784.197	8.67
784.503	7.31
784.809	4.18
785.115	10.48
785.421	7.29
785.727	7.29
786.033	1.76
786.339	3.84
786.644	7.66
786.95	9.7
787.255	3.55
787.561	11.85
787.866	3.3
788.172	3.95
788.477	8.07
788.782	4.75
789.088	9.69
789.393	0.89
789.698	8.45
790.003	2.41
790.308	4.97
790.613	6.46
790.918	5.2
791.223	4.36
791.527	6.17
791.832	4.56
792.137	4.59
792.441	6.34
792.746	6.47
793.05	7.06
793.355	14.11
793.659	2.53
793.963	7.34
794.268	6.98
794.572	8.58
794.876	3.69
795.18	11.71
795.484	8.28
795.788	5.46
796.092	7.36
796.396	5.83
796.7	1.84
797.004	7.67
797.307	2.2
797.611	6.67
797.915	7.04
798.218	4.16
798.522	6.23
798.825	3
799.128	6.91
799.432	3.11
799.735	7.66
800.038	5.69
800.341	4.23
800.644	10.93
800.947	0.56
801.25	9.28
801.553	6.66
801.856	5.83
802.159	8.67
802.462	10.26
802.764	9.99
803.067	5.83
803.37	3.15
803.672	5.53
803.975	8.7
804.277	3.81
804.579	7.24
804.882	7.11
805.184	6.68
805.486	8.99
805.788	8.87
806.09	1.3
806.392	0.55
806.694	3.8
806.996	5.94
807.298	7.09
807.6	7.11
807.902	3.92
808.203	11.06
808.505	2.45
808.807	-0.84
809.108	2.73
809.409	6.63
809.711	-1.48
810.012	3.09
810.313	7.21
810.615	0.13
810.916	6.91
811.217	10.13
811.518	3.14
811.819	10.33
812.12	3.74
812.421	2
812.722	4.28
813.023	5
813.323	13.74
813.624	4.74
813.925	6.05
814.225	-0.94
814.526	3.35
814.826	10.15
815.126	3.12
815.427	-0.31
815.727	-2
816.027	9.78
816.327	7.92
816.627	7.54
816.927	2.9
817.227	12.02
817.527	0.03
817.827	4.92
818.127	5.27
818.427	6.2
818.727	8.78
819.026	3.63
819.326	6.52
819.625	3.13
819.925	0.88
820.224	6.05
820.524	6.22
820.823	-0.2
821.122	6.65
821.421	1.98
821.72	7.79
822.019	5.58
822.318	5.97
822.617	6.69
822.916	9.18
823.215	3.09
823.514	5.3
823.813	6.01
824.111	8.42
824.41	10.63
824.709	6.95
825.007	6.36
825.306	5.56
825.604	5.83
825.902	6.06
826.201	6.01
826.499	6.16
826.797	6.18
827.095	6.47
827.393	7.15
827.691	7.11
827.989	6.7
828.287	8.11
828.585	7.4
828.882	6.78
829.18	7.49
829.478	4.62
829.775	9.69
830.073	6.62
830.37	4.66
830.668	5.01
830.965	4.85
831.263	5.14
831.56	6.91
831.857	7.07
832.154	3.58
832.451	6.1
832.748	7.14
833.045	0.33
833.342	4.63
833.639	11.68
833.936	14.46
834.232	2.37
834.529	7.31
834.826	9.7
835.122	12.61
835.419	8.04
835.715	7.35
836.012	5.85
836.308	9.41
836.604	7.43
836.901	6.85
837.197	6.91
837.493	6.8
837.789	7.11
838.085	9.21
838.381	9.8
838.677	9.64
838.972	5.85
839.268	7.53
839.564	1.67
839.86	8.23
840.155	0.03
840.451	1.06
840.746	3.73
841.042	11.01
841.337	0.28
841.632	13.63
841.928	1.38
842.223	10.37
842.518	14.06
842.813	-1.65
843.108	10.89
843.403	-0.23
843.698	7.42
843.993	-5.38
844.287	-3.09
844.582	2.91
844.877	15.13
845.171	-6.93
845.466	5.43
845.761	7.48
846.055	-4.05
846.349	-3.86
846.644	6.57
846.938	31.36
847.232	0.56
847.526	6.48
847.82	-13.71
848.114	-20.4
848.408	16.13
848.702	-7.73
848.996	14.96
849.29	20.11
849.584	8.45
849.877	14.12
850.171	-2.02
850.465	16.2
850.758	-7.91
851.052	14.26
851.345	4.83
851.638	16.19
851.932	14.35
852.225	18.96
852.518	15.33
852.811	28.66
853.104	8.63
853.397	0.88
853.69	-0.71
853.983	3.78
854.276	-9.28
854.569	17.74
854.861	19.48
855.154	-2.8
855.447	-30.13
855.739	6.88
856.032	15.78
856.324	16.56
856.616	10.18
856.909	6.24
857.201	2.58
857.493	-4.07
857.785	8.93
858.077	-1.34
858.369	7.5
858.661	20.7
858.953	-5.53
859.245	-5.84
859.537	32.44
859.829	2.67
860.12	-14.35
860.412	28.99
860.703	8.15
860.995	19.43
861.286	9.83
861.578	-9.18
861.869	31.69
862.16	-13.4
862.452	-4.28
862.743	-16.57
863.034	15.88
863.325	-43.83
863.616	-2.64
863.907	5.23
864.198	32.89
864.488	23.91
864.779	-0.42
865.07	4.22
865.36	-23.45
865.651	6.31
865.941	3.58
866.232	-19.34
866.522	0.98
866.813	14.4
867.103	18.69
867.393	30.88
867.683	0.69
867.973	-20.67
868.263	-4.66
868.553	4.64
868.843	27.03
869.133	40.05
869.423	-7.54
869.713	-36.95
870.002	-13.08
870.292	15.53
870.582	33.93
870.871	18.44
871.161	21.5
871.45	-57.43
871.739	17.32
872.029	-22.18
872.318	-15.49
872.607	1.54
872.896	6.53
873.185	-11.17
873.474	1.28
873.763	8.66
874.052	9.02
874.341	-5.53
874.63	23.77
874.918	12.77
875.207	5.21
875.496	29.43
875.784	-34.36
876.073	-11.66
876.361	4.85
876.649	19.35
876.938	4.43
877.226	37.69
877.514	0.51
877.802	32.67
878.09	34.52
878.378	28.11
878.666	35.08
878.954	-9.81
879.242	32.38
879.53	0.94
879.817	-74.73
880.105	45.69
880.392	24.77
880.68	-4.96
880.967	0.34
881.255	-5.45
881.542	3.5
881.83	0.36
882.117	7.96
882.404	-21.97
882.691	-35.65
882.978	10.2
883.265	-27.92
883.552	5.57
883.839	3.08
884.126	2.76
884.413	-3.91
884.699	2.66
884.986	7.01
885.273	6.92
885.559	6.92
885.846	6.92
