Data from 0356_forehead_Reflection__4__76.txt Node

Date: Mon Dec 11 18:31:22 CST 2023
User: ToomeyLab
Spectrometer: FLMS14357
Trigger mode: 0
Integration Time (sec): 1.000000E-2
Scans to average: 100
Electric dark correction enabled: true
Nonlinearity correction enabled: false
Boxcar width: 0
XAxis mode: Wavelengths
Number of Pixels in Spectrum: 2048
>>>>>Begin Spectral Data<<<<<
189.047	130.44
189.435	130.44
189.823	130.44
190.211	-48.88
190.599	-83.44
190.987	149.06
191.375	320.42
191.763	133.92
192.151	5925
192.538	534.46
192.926	44.6
193.314	22425
193.702	38.3
194.089	217.55
194.477	422.97
194.864	-51.97
195.252	60.57
195.639	154
196.027	11.14
196.414	-169.26
196.801	-22.23
197.189	89.15
197.576	30.94
197.963	268.3
198.351	-41.85
198.738	-27.49
199.125	-30.04
199.512	59.02
199.899	87.63
200.286	-16.63
200.673	-20.5
201.06	68.75
201.447	-5.18
201.833	8.63
202.22	57.64
202.607	39.8
202.994	-91.99
203.38	2.98
203.767	28.84
204.154	47.07
204.54	13.15
204.927	-76.91
205.313	-22.86
205.699	-45.54
206.086	-25.18
206.472	20.04
206.858	28.42
207.245	2.29
207.631	-2.58
208.017	23.02
208.403	23.22
208.789	-44.25
209.175	15.35
209.561	-20.21
209.947	-35.71
210.333	55.39
210.719	39.6
211.105	31.53
211.491	22.46
211.876	8.95
212.262	-32.5
212.648	0.41
213.034	11.82
213.419	-18.08
213.805	2.91
214.19	5.46
214.576	-12.35
214.961	-1.39
215.346	25.73
215.732	0.22
216.117	12.88
216.502	49.37
216.888	38.78
217.273	19.47
217.658	4.75
218.043	5.08
218.428	5.98
218.813	34.64
219.198	11.08
219.583	38.01
219.968	-7.34
220.353	-17.28
220.738	31.7
221.122	23.36
221.507	18.4
221.892	-17.02
222.276	5.04
222.661	3.47
223.046	-5.79
223.43	8.07
223.815	6.89
224.199	8.85
224.583	-9.45
224.968	2.33
225.352	9.81
225.736	3.01
226.121	0.49
226.505	-2.65
226.889	1.74
227.273	5.52
227.657	13.93
228.041	5.6
228.425	-0.46
228.809	-0.65
229.193	1.1
229.577	1.22
229.961	2.13
230.344	2.25
230.728	2.42
231.112	1.92
231.495	2.68
231.879	2.56
232.263	0.83
232.646	1.99
233.03	2.32
233.413	1.02
233.797	2.79
234.18	4.99
234.563	5.44
234.946	3.33
235.33	4.57
235.713	2.3
236.096	1.95
236.479	3.05
236.862	2.26
237.245	1.67
237.628	2.24
238.011	2.83
238.394	2.32
238.777	3.09
239.16	3.13
239.543	2.24
239.925	0.3
240.308	4.14
240.691	1.23
241.073	3.53
241.456	2.87
241.838	4.26
242.221	2.97
242.603	1.84
242.986	2.36
243.368	1.78
243.75	2.17
244.133	2.09
244.515	1.92
244.897	1.93
245.279	2.25
245.661	2.36
246.043	1.96
246.425	2.16
246.807	1.76
247.189	2.92
247.571	2.84
247.953	2.11
248.335	2.45
248.717	2.26
249.098	2.5
249.48	1.87
249.862	2.51
250.243	2.64
250.625	2.28
251.006	1.99
251.388	2.02
251.769	3.02
252.151	3.19
252.532	2.94
252.913	2.46
253.295	2.91
253.676	2.49
254.057	2.33
254.438	2.54
254.819	1.7
255.2	1.66
255.581	1.67
255.962	1.33
256.343	2.74
256.724	2.31
257.105	2.81
257.486	2.01
257.867	3.34
258.247	1.91
258.628	2.04
259.009	3.78
259.389	3.15
259.77	2.22
260.15	2.58
260.531	2.66
260.911	1.87
261.292	2.14
261.672	2.37
262.052	2.25
262.432	2.41
262.813	2.49
263.193	2.56
263.573	2.57
263.953	2.35
264.333	1.95
264.713	3.14
265.093	2.4
265.473	2.58
265.853	2.58
266.233	2.13
266.612	2.47
266.992	2.53
267.372	3.91
267.752	2.48
268.131	2.28
268.511	1.87
268.89	2.85
269.27	2.87
269.649	2.62
270.029	2.95
270.408	2.25
270.787	2.35
271.167	1.21
271.546	2.81
271.925	2.41
272.304	2.74
272.683	2.37
273.062	1.68
273.441	2.06
273.82	2.41
274.199	2.18
274.578	2.11
274.957	2.32
275.336	2.38
275.715	1.96
276.093	2.72
276.472	2.62
276.851	3.11
277.229	2.65
277.608	2.74
277.986	2.27
278.365	2.43
278.743	2.82
279.122	2.67
279.5	3.13
279.878	1.97
280.257	1.92
280.635	2.1
281.013	2.11
281.391	2.87
281.769	2.27
282.147	1.88
282.525	2.46
282.903	2.17
283.281	2.21
283.659	2.64
284.037	2.1
284.415	1.98
284.792	2.57
285.17	2.41
285.548	1.74
285.925	2.23
286.303	2.59
286.68	2.26
287.058	2.44
287.435	2.59
287.813	2.86
288.19	2.34
288.567	2.35
288.945	2.6
289.322	1.82
289.699	1.89
290.076	2.21
290.453	2.53
290.83	2.63
291.207	2.6
291.584	2.53
291.961	2.46
292.338	2.51
292.715	2.64
293.092	2.35
293.469	2.36
293.845	2.24
294.222	2.96
294.599	2.32
294.975	2.13
295.352	2.39
295.728	2.16
296.105	2.27
296.481	2.17
296.858	2.62
297.234	2.99
297.61	2.72
297.986	2.85
298.363	2.86
298.739	2.59
299.115	2.58
299.491	2.67
299.867	2.68
300.243	2.91
300.619	2.83
300.995	2.68
301.371	2.77
301.746	2.27
302.122	2.35
302.498	2.95
302.874	2.94
303.249	3.38
303.625	2.84
304	3.06
304.376	3.02
304.751	3.03
305.127	2.86
305.502	3.11
305.878	3.1
306.253	3.63
306.628	3
307.003	3.19
307.378	3.62
307.754	3.81
308.129	3.32
308.504	3.16
308.879	3.27
309.254	3.49
309.629	3.62
310.003	3.78
310.378	3.31
310.753	3.75
311.128	3.02
311.502	3.23
311.877	3.35
312.252	3.62
312.626	3.73
313.001	3.08
313.375	3.35
313.75	3.23
314.124	3.76
314.498	3.31
314.873	3.59
315.247	3.46
315.621	4.04
315.995	3.82
316.369	4.32
316.743	4.28
317.117	4.07
317.491	3.98
317.865	4.06
318.239	4.1
318.613	3.99
318.987	3.9
319.361	4.56
319.734	3.75
320.108	4.17
320.482	4.32
320.855	4.34
321.229	3.8
321.602	4.29
321.976	4.69
322.349	3.88
322.723	4.47
323.096	4.62
323.469	5.08
323.843	3.89
324.216	4.24
324.589	5.47
324.962	4.42
325.335	4.38
325.708	5.15
326.081	4.71
326.454	4.69
326.827	4.83
327.2	3.93
327.573	4.4
327.945	5.15
328.318	4.59
328.691	4.91
329.063	4.84
329.436	4.79
329.809	4.39
330.181	5.22
330.553	4.87
330.926	4.76
331.298	5.36
331.671	4.95
332.043	5.04
332.415	4.8
332.787	5.24
333.159	5
333.532	5.3
333.904	4.98
334.276	5
334.648	5.35
335.02	5.03
335.391	5.5
335.763	5.16
336.135	5.7
336.507	4.97
336.879	5.58
337.25	5.67
337.622	4.9
337.993	5.29
338.365	4.91
338.736	5.44
339.108	5.42
339.479	5.36
339.851	5.44
340.222	6.22
340.593	5.3
340.964	5.58
341.336	5.91
341.707	5.26
342.078	5.69
342.449	5.74
342.82	5.65
343.191	5.87
343.562	5.92
343.933	6.13
344.303	5.34
344.674	5.52
345.045	6.14
345.416	5.84
345.786	6.17
346.157	5.96
346.527	6.05
346.898	5.98
347.268	5.81
347.639	6.04
348.009	5.91
348.38	5.9
348.75	5.81
349.12	6.48
349.49	5.76
349.861	5.69
350.231	6.15
350.601	6.64
350.971	6.44
351.341	5.77
351.711	6.11
352.081	6.02
352.45	6.16
352.82	5.77
353.19	6.11
353.56	6.25
353.929	6.14
354.299	6.54
354.669	7
355.038	6.81
355.408	6.05
355.777	6.81
356.147	6.65
356.516	6.7
356.885	6.48
357.254	6.75
357.624	6.88
357.993	6.66
358.362	7.08
358.731	6.58
359.1	6.48
359.469	6.51
359.838	6.42
360.207	6.52
360.576	6.84
360.945	7.14
361.314	6.91
361.682	6.71
362.051	6.86
362.42	6.74
362.788	6.7
363.157	6.83
363.525	6.53
363.894	6.84
364.262	7.01
364.631	6.68
364.999	6.99
365.367	7.31
365.735	7.03
366.104	6.92
366.472	7.38
366.84	6.95
367.208	6.96
367.576	7.25
367.944	7.53
368.312	7.41
368.68	7.27
369.048	7.51
369.416	7.34
369.783	7.18
370.151	7.66
370.519	8.02
370.886	7.31
371.254	7.85
371.621	8.07
371.989	7.25
372.356	7.5
372.724	8.24
373.091	7.62
373.458	7.55
373.826	7.84
374.193	7.74
374.56	7.83
374.927	7.82
375.294	8.04
375.661	8.44
376.028	7.99
376.395	7.9
376.762	8
377.129	8.52
377.496	7.86
377.863	8.07
378.229	8
378.596	8.43
378.963	8.14
379.329	8.38
379.696	8.21
380.062	7.97
380.429	8.41
380.795	8.26
381.161	8.32
381.528	8.67
381.894	8.55
382.26	8.4
382.626	8.65
382.993	8.73
383.359	8.42
383.725	8.31
384.091	8.55
384.457	8.42
384.823	8.97
385.188	8.72
385.554	8.6
385.92	8.69
386.286	8.77
386.651	8.78
387.017	8.46
387.383	8.91
387.748	8.83
388.114	8.56
388.479	8.81
388.845	8.96
389.21	8.6
389.575	8.93
389.94	8.91
390.306	9.13
390.671	8.73
391.036	9.03
391.401	9.46
391.766	9.11
392.131	9.21
392.496	9.21
392.861	9.51
393.226	9.43
393.591	9.33
393.956	9.24
394.32	9.57
394.685	9.09
395.05	9.37
395.414	9.82
395.779	9.22
396.143	9.26
396.508	9.42
396.872	9.38
397.236	9.51
397.601	9.58
397.965	9.79
398.329	9.86
398.694	9.68
399.058	9.65
399.422	9.64
399.786	9.9
400.15	9.81
400.514	10.03
400.878	9.7
401.242	9.76
401.605	10.13
401.969	9.75
402.333	9.82
402.697	9.92
403.06	9.91
403.424	9.95
403.787	10.14
404.151	9.85
404.514	9.98
404.878	10.34
405.241	10.19
405.604	10.25
405.968	10.31
406.331	10
406.694	10.15
407.057	10.01
407.42	10.49
407.783	10.24
408.146	10.39
408.509	10.26
408.872	10.28
409.235	10.31
409.598	10.49
409.961	10.73
410.323	10.48
410.686	10.6
411.049	10.7
411.411	10.59
411.774	10.67
412.136	10.71
412.499	10.71
412.861	10.5
413.223	10.73
413.586	10.86
413.948	10.89
414.31	10.83
414.672	10.61
415.035	11
415.397	10.8
415.759	10.94
416.121	11.11
416.483	10.91
416.845	11.1
417.206	10.92
417.568	10.85
417.93	11.18
418.292	10.99
418.653	10.93
419.015	10.91
419.377	11.14
419.738	11.11
420.1	11
420.461	11.14
420.822	11.12
421.184	11.07
421.545	11.15
421.906	11.14
422.267	11.11
422.629	11.09
422.99	10.98
423.351	11.04
423.712	11.08
424.073	11.13
424.434	11.14
424.795	11.24
425.155	11.27
425.516	11.12
425.877	11.18
426.238	11.21
426.598	11.34
426.959	11.26
427.32	11.38
427.68	11.65
428.041	11.4
428.401	11.35
428.761	11.59
429.122	11.61
429.482	11.86
429.842	11.99
430.202	11.9
430.563	11.87
430.923	12.05
431.283	11.98
431.643	12.05
432.003	12.09
432.363	12.22
432.722	12.12
433.082	12.14
433.442	12.01
433.802	12.1
434.161	12.22
434.521	12.01
434.881	12.18
435.24	12.04
435.6	12.17
435.959	12.16
436.319	12.15
436.678	12.21
437.037	12.3
437.396	12.45
437.756	12.47
438.115	12.75
438.474	12.41
438.833	12.47
439.192	12.39
439.551	12.59
439.91	12.6
440.269	12.59
440.628	12.46
440.987	12.61
441.345	12.57
441.704	12.61
442.063	12.61
442.421	12.65
442.78	12.51
443.138	12.62
443.497	12.62
443.855	12.69
444.214	12.99
444.572	12.73
444.93	12.84
445.288	12.86
445.647	13.09
446.005	12.8
446.363	12.92
446.721	12.94
447.079	12.79
447.437	12.96
447.795	12.84
448.153	12.99
448.51	12.91
448.868	12.87
449.226	12.87
449.584	13.1
449.941	13.12
450.299	13.09
450.656	13.37
451.014	13.3
451.371	13.24
451.729	13.45
452.086	13.32
452.443	13.42
452.801	13.5
453.158	13.52
453.515	13.47
453.872	13.53
454.229	13.59
454.586	13.6
454.943	13.54
455.3	13.73
455.657	13.56
456.014	13.7
456.371	13.83
456.727	13.79
457.084	13.68
457.441	13.83
457.797	14.07
458.154	14.03
458.51	13.98
458.867	13.8
459.223	14.03
459.58	14.03
459.936	14.16
460.292	14.08
460.648	14.05
461.005	14.05
461.361	13.78
461.717	13.73
462.073	13.85
462.429	13.89
462.785	14.06
463.141	13.98
463.496	14.29
463.852	14.35
464.208	14.12
464.564	14.43
464.919	14.59
465.275	14.54
465.631	14.35
465.986	14.75
466.342	14.72
466.697	14.66
467.052	14.58
467.408	14.65
467.763	14.6
468.118	14.43
468.473	14.75
468.829	14.76
469.184	14.89
469.539	14.81
469.894	14.69
470.249	14.72
470.603	14.79
470.958	15.14
471.313	14.99
471.668	15.13
472.023	15.13
472.377	15.05
472.732	14.91
473.086	15.25
473.441	15.35
473.795	15.1
474.15	15.14
474.504	15.21
474.859	15.23
475.213	15.02
475.567	15.45
475.921	15.25
476.275	15.43
476.63	15.17
476.984	15.24
477.338	15.3
477.692	15.44
478.045	15.55
478.399	15.4
478.753	15.2
479.107	15.48
479.461	15.46
479.814	15.47
480.168	15.63
480.521	15.64
480.875	15.45
481.228	15.61
481.582	15.81
481.935	15.68
482.289	15.79
482.642	15.7
482.995	15.81
483.348	15.6
483.701	15.46
484.055	15.56
484.408	15.44
484.761	15.52
485.114	15.37
485.466	15.06
485.819	14.89
486.172	14.92
486.525	15.01
486.878	15.2
487.23	15.33
487.583	15.48
487.936	15.58
488.288	15.7
488.641	15.6
488.993	15.4
489.345	15.43
489.698	15.4
490.05	15.4
490.402	15.5
490.754	15.63
491.107	15.88
491.459	15.96
491.811	15.98
492.163	16.11
492.515	16.08
492.866	16.19
493.218	15.82
493.57	15.81
493.922	15.72
494.274	16.01
494.625	16.07
494.977	16.28
495.328	16.38
495.68	16.56
496.031	16.61
496.383	16.65
496.734	16.93
497.086	16.91
497.437	16.95
497.788	16.96
498.139	16.95
498.49	16.84
498.842	16.87
499.193	16.91
499.544	16.77
499.894	16.89
500.245	16.97
500.596	17.1
500.947	17.09
501.298	17.21
501.648	17.12
501.999	17.16
502.35	17.39
502.7	17.42
503.051	17.33
503.401	17.39
503.752	17.38
504.102	17.5
504.452	17.47
504.803	17.7
505.153	17.64
505.503	17.7
505.853	17.58
506.203	17.5
506.553	17.57
506.903	17.64
507.253	17.7
507.603	17.72
507.953	17.87
508.303	17.85
508.652	17.84
509.002	17.78
509.352	18.03
509.701	17.74
510.051	17.68
510.4	17.82
510.75	17.83
511.099	17.73
511.449	17.9
511.798	17.94
512.147	18.08
512.496	18
512.846	18.03
513.195	18.07
513.544	18.17
513.893	18.11
514.242	18.02
514.591	17.98
514.939	18.16
515.288	18.37
515.637	18.24
515.986	18.36
516.334	18.29
516.683	18.38
517.032	18.53
517.38	18.52
517.729	18.56
518.077	18.53
518.426	18.55
518.774	18.64
519.122	18.62
519.47	18.52
519.819	18.5
520.167	18.34
520.515	18.28
520.863	18.25
521.211	18.48
521.559	18.42
521.907	18.43
522.255	18.55
522.602	18.54
522.95	18.77
523.298	18.75
523.645	19
523.993	19.05
524.341	19.12
524.688	19.01
525.036	19.14
525.383	19.17
525.73	19.17
526.078	19.24
526.425	19.3
526.772	19.13
527.119	19
527.466	18.92
527.814	18.76
528.161	18.85
528.508	19.05
528.854	18.91
529.201	18.91
529.548	18.94
529.895	18.75
530.242	18.54
530.588	18.4
530.935	18.47
531.282	18.6
531.628	18.72
531.975	18.85
532.321	18.92
532.667	19.08
533.014	19.19
533.36	19.28
533.706	19.29
534.052	19.35
534.399	19.39
534.745	19.4
535.091	19.11
535.437	19.12
535.783	19.11
536.129	19.34
536.474	19.49
536.82	19.68
537.166	19.64
537.512	19.7
537.857	19.9
538.203	19.81
538.549	19.68
538.894	19.65
539.239	19.89
539.585	19.84
539.93	19.97
540.276	20.24
540.621	20.3
540.966	20.27
541.311	20.34
541.656	20.35
542.001	20.38
542.346	20.27
542.691	20.04
543.036	19.78
543.381	19.61
543.726	19.75
544.071	19.77
544.415	19.96
544.76	20
545.105	20.09
545.449	20.23
545.794	20.33
546.138	20.47
546.483	20.55
546.827	20.64
547.171	20.62
547.516	20.71
547.86	20.76
548.204	20.74
548.548	20.64
548.892	20.75
549.236	20.81
549.58	20.95
549.924	20.97
550.268	20.82
550.612	21.19
550.956	21.18
551.3	21.28
551.643	21.29
551.987	21.3
552.33	21.77
552.674	21.5
553.017	21.6
553.361	21.51
553.704	21.44
554.048	21.59
554.391	21.49
554.734	21.41
555.077	21.66
555.42	21.55
555.764	21.79
556.107	21.68
556.45	21.65
556.793	21.93
557.135	21.79
557.478	21.82
557.821	21.71
558.164	21.88
558.507	21.99
558.849	22.05
559.192	22.04
559.534	21.98
559.877	22.1
560.219	22.12
560.562	22.17
560.904	22.23
561.246	22.25
561.589	22.34
561.931	22.22
562.273	22.28
562.615	22.45
562.957	22.15
563.299	22.26
563.641	22.24
563.983	22.27
564.325	22.34
564.667	22.43
565.008	22.39
565.35	22.59
565.692	22.46
566.033	22.68
566.375	22.63
566.716	22.46
567.058	22.57
567.399	22.76
567.741	22.65
568.082	22.47
568.423	22.43
568.764	22.58
569.105	22.89
569.447	22.8
569.788	22.82
570.129	22.98
570.47	22.74
570.811	22.68
571.151	22.81
571.492	22.87
571.833	23.01
572.174	23.08
572.514	23.03
572.855	23.03
573.195	23.12
573.536	22.97
573.876	23.06
574.217	22.95
574.557	23.08
574.898	22.95
575.238	23.15
575.578	23.2
575.918	23.18
576.258	23.15
576.598	23.21
576.938	23.23
577.278	23.28
577.618	23.23
577.958	23.29
578.298	23.44
578.638	23.7
578.977	23.57
579.317	23.37
579.657	23.65
579.996	23.45
580.336	23.83
580.675	23.7
581.014	24.05
581.354	23.79
581.693	23.84
582.032	23.54
582.372	23.85
582.711	23.68
583.05	23.78
583.389	24.08
583.728	24.31
584.067	23.96
584.406	24
584.745	24.28
585.083	24.39
585.422	24.17
585.761	24.04
586.1	24.17
586.438	23.95
586.777	24.24
587.115	24.15
587.454	24.17
587.792	24.56
588.13	24.68
588.469	24.39
588.807	24.26
589.145	24.77
589.483	24.58
589.821	24.33
590.159	24.43
590.497	24.57
590.835	24.69
591.173	24.48
591.511	24.56
591.849	24.55
592.187	24.31
592.524	24.67
592.862	24.58
593.2	24.47
593.537	24.75
593.875	24.78
594.212	24.74
594.55	24.6
594.887	24.97
595.224	24.85
595.561	25.04
595.899	24.9
596.236	24.96
596.573	24.92
596.91	24.78
597.247	24.96
597.584	24.86
597.921	24.78
598.258	24.85
598.594	25.03
598.931	24.73
599.268	24.99
599.604	24.85
599.941	25.26
600.277	25.22
600.614	25.29
600.95	25.08
601.287	25.41
601.623	25.14
601.959	25.51
602.296	25.56
602.632	25.53
602.968	25.2
603.304	25.71
603.64	25.32
603.976	25.6
604.312	25.32
604.648	25.48
604.984	25.61
605.319	25.63
605.655	25.51
605.991	25.4
606.326	25.5
606.662	25.53
606.998	25.4
607.333	25.51
607.668	25.65
608.004	25.54
608.339	25.96
608.674	25.47
609.01	25.91
609.345	25.94
609.68	26.06
610.015	26.14
610.35	25.99
610.685	25.63
611.02	25.8
611.355	26.02
611.689	25.95
612.024	25.82
612.359	25.83
612.694	25.87
613.028	25.78
613.363	26.2
613.697	26.27
614.032	26.57
614.366	26.35
614.7	26.38
615.035	26.43
615.369	26.47
615.703	26.24
616.037	26.65
616.371	26.28
616.705	26.48
617.039	26.28
617.373	26.59
617.707	26.48
618.041	26.76
618.375	26.63
618.709	26.52
619.042	26.81
619.376	26.76
619.71	26.8
620.043	26.54
620.377	26.74
620.71	26.74
621.043	26.79
621.377	26.3
621.71	26.54
622.043	26.82
622.376	26.79
622.709	27
623.043	26.84
623.376	26.87
623.709	26.85
624.041	27.11
624.374	27.03
624.707	27.24
625.04	27.28
625.373	26.99
625.705	27.31
626.038	26.73
626.37	27.41
626.703	27.15
627.035	27.34
627.368	27.38
627.7	27.02
628.032	27.05
628.365	27.21
628.697	27.3
629.029	27.66
629.361	27.06
629.693	27.06
630.025	27.43
630.357	27.63
630.689	26.96
631.021	27.72
631.353	27.59
631.684	27.94
632.016	27.73
632.348	27.72
632.679	27.9
633.011	27.37
633.342	27.69
633.674	27.89
634.005	27.68
634.336	27.52
634.668	27.86
634.999	28.12
635.33	27.68
635.661	27.98
635.992	27.57
636.323	27.84
636.654	27.83
636.985	28.14
637.316	28.01
637.647	28.06
637.977	28.2
638.308	28.35
638.639	27.7
638.969	27.61
639.3	28.1
639.63	28.38
639.961	28.33
640.291	28.62
640.622	28.17
640.952	28.4
641.282	27.83
641.612	28.73
641.943	27.99
642.273	28.5
642.603	28.66
642.933	28.81
643.263	28.09
643.592	28.83
643.922	28.78
644.252	27.97
644.582	28.48
644.911	28.87
645.241	28.54
645.571	28.82
645.9	28.16
646.23	28.36
646.559	28.53
646.888	28.46
647.218	28.42
647.547	28.37
647.876	28.93
648.205	28.32
648.534	28.6
648.863	28.74
649.192	28.81
649.521	28.94
649.85	28.81
650.179	29.02
650.508	28.93
650.837	28.8
651.165	29.66
651.494	29.2
651.822	29.26
652.151	29.13
652.479	28.86
652.808	29
653.136	29.18
653.465	28.88
653.793	28.7
654.121	29.38
654.449	29.52
654.777	29.14
655.105	28.75
655.433	29.36
655.761	29.13
656.089	28.74
656.417	29.18
656.745	29.56
657.073	29.6
657.4	29.58
657.728	29.87
658.056	29.66
658.383	29.34
658.711	29.37
659.038	29.47
659.365	29.73
659.693	29.28
660.02	29.65
660.347	29.03
660.674	29.56
661.001	29.32
661.329	29.25
661.656	29.32
661.982	29.94
662.309	29.66
662.636	29.96
662.963	30.18
663.29	29.91
663.616	29.72
663.943	29.01
664.27	29.85
664.596	30.12
664.923	30.2
665.249	30.21
665.576	29.79
665.902	29.94
666.228	30.07
666.554	30.24
666.881	29.81
667.207	31.48
667.533	30.47
667.859	30.2
668.185	30.84
668.511	30.53
668.837	30.23
669.162	30.71
669.488	29.99
669.814	30.13
670.139	30.43
670.465	30.87
670.791	30.6
671.116	30.8
671.442	30.49
671.767	30.69
672.092	30.62
672.418	30.56
672.743	29.76
673.068	30.44
673.393	30.7
673.718	30.87
674.043	30.59
674.368	30.72
674.693	30.61
675.018	31.11
675.343	31.09
675.667	30.72
675.992	31.04
676.317	31.25
676.641	30.45
676.966	31.03
677.29	30.2
677.615	31.05
677.939	31.19
678.264	31.01
678.588	31.22
678.912	30.87
679.236	31.61
679.56	30.86
679.885	30.93
680.209	31.39
680.532	31.65
680.856	30.93
681.18	30.8
681.504	30.67
681.828	30.63
682.152	30.83
682.475	30.74
682.799	31.11
683.122	31.11
683.446	30.66
683.769	31
684.093	31.23
684.416	31.53
684.739	31.38
685.062	31.6
685.386	31.72
685.709	31.24
686.032	31.62
686.355	31.43
686.678	31.56
687.001	31.36
687.324	30.63
687.646	31.85
687.969	31.52
688.292	32.53
688.614	31.64
688.937	31.93
689.26	31.31
689.582	31.22
689.904	32.18
690.227	31.89
690.549	32.34
690.871	31.16
691.194	31.59
691.516	31.05
691.838	31.36
692.16	32.61
692.482	32.49
692.804	31.25
693.126	32.12
693.448	32.08
693.769	31.65
694.091	31.78
694.413	32.14
694.735	31.34
695.056	31.5
695.378	32.5
695.699	31.34
696.021	32.08
696.342	31.83
696.663	31.89
696.984	32.28
697.306	32.08
697.627	32.66
697.948	33.07
698.269	32.58
698.59	32.35
698.911	32.94
699.232	31.72
699.553	32.73
699.873	32.65
700.194	33.18
700.515	32.4
700.835	32.19
701.156	32.16
701.477	31.78
701.797	32.18
702.117	32.24
702.438	31.83
702.758	32.52
703.078	32.43
703.398	32.65
703.719	32.22
704.039	32.65
704.359	33.03
704.679	32.37
704.999	33.5
705.319	33.02
705.638	32.94
705.958	32.39
706.278	32.67
706.597	33.67
706.917	32.89
707.237	32.09
707.556	31.87
707.876	32.12
708.195	32.91
708.514	33.67
708.834	32.16
709.153	32.74
709.472	31.97
709.791	32.72
710.11	32.51
710.429	32.87
710.748	32.37
711.067	32.79
711.386	34.28
711.705	33.56
712.023	32.71
712.342	33.52
712.661	32.12
712.979	33.23
713.298	32.48
713.616	33.58
713.935	34.66
714.253	33.04
714.572	32.72
714.89	32.31
715.208	33.13
715.526	33.08
715.844	33.68
716.162	32.22
716.48	32.43
716.798	33.15
717.116	33.08
717.434	34.1
717.752	33.02
718.069	34.05
718.387	32.77
718.705	32.95
719.022	32.56
719.34	33.34
719.657	33.74
719.975	34.44
720.292	33.23
720.609	32.55
720.927	33.93
721.244	33.76
721.561	33.52
721.878	34.82
722.195	33.55
722.512	33.35
722.829	33.62
723.146	33.54
723.463	34.55
723.779	34.48
724.096	33.53
724.413	32.62
724.729	34.17
725.046	33.89
725.362	34.43
725.679	34.28
725.995	34.74
726.311	34.15
726.628	33.69
726.944	34.71
727.26	33.7
727.576	34.88
727.892	34.62
728.208	33.99
728.524	34.08
728.84	33.97
729.156	34.86
729.472	33.92
729.787	34.34
730.103	34.4
730.419	34.68
730.734	34.89
731.05	32.7
731.365	34.68
731.681	34
731.996	33.62
732.311	36.07
732.626	33.54
732.942	34.01
733.257	34.16
733.572	33.33
733.887	35.25
734.202	35.54
734.517	34.52
734.832	34.62
735.146	35.14
735.461	35.33
735.776	33.65
736.091	33.59
736.405	33.69
736.72	35.98
737.034	34.1
737.349	33.57
737.663	32.22
737.977	34.67
738.292	34.94
738.606	33.81
738.92	34.23
739.234	34.24
739.548	36.38
739.862	34.74
740.176	35.98
740.49	34.65
740.804	35.08
741.117	34.61
741.431	35.54
741.745	34.5
742.058	36.75
742.372	33.25
742.685	35.6
742.999	36.01
743.312	34.79
743.626	33.55
743.939	35.08
744.252	35.67
744.565	36.6
744.878	34.94
745.191	34.7
745.505	34.4
745.817	34.13
746.13	35.54
746.443	35.74
746.756	36.11
747.069	34.31
747.381	33.46
747.694	35.08
748.007	37.01
748.319	34.67
748.632	35.82
748.944	34.85
749.256	35.32
749.569	35.33
749.881	34.56
750.193	35.87
750.505	36.13
750.817	34.37
751.129	35.5
751.441	36.9
751.753	35.34
752.065	35.69
752.377	39.32
752.689	33.33
753	36.68
753.312	35.6
753.624	34.64
753.935	34
754.247	34.84
754.558	36.44
754.869	34.93
755.181	34.5
755.492	34.12
755.803	33.15
756.114	36.54
756.425	36.4
756.736	34.73
757.047	35.63
757.358	34.76
757.669	35.16
757.98	35.66
758.291	35.7
758.601	37.5
758.912	35.58
759.223	34.42
759.533	35.99
759.844	34.93
760.154	35.02
760.464	35.93
760.775	35.61
761.085	34.7
761.395	36.43
761.705	36.17
762.016	38.69
762.326	35.19
762.636	36.95
762.945	34.28
763.255	35.23
763.565	35.31
763.875	37.72
764.185	35.25
764.494	37.1
764.804	35.71
765.113	36.81
765.423	34.78
765.732	36.73
766.042	36.15
766.351	35.89
766.66	36.32
766.97	36.75
767.279	36.16
767.588	37.02
767.897	34.31
768.206	34.86
768.515	36.87
768.824	34.86
769.133	36.31
769.441	33.36
769.75	38
770.059	35.89
770.367	37.48
770.676	38.9
770.984	35.69
771.293	35.59
771.601	34.81
771.91	37.82
772.218	35.25
772.526	36.7
772.834	36.2
773.142	35.49
773.45	36.15
773.758	35.33
774.066	38.22
774.374	35.73
774.682	37.02
774.99	36.9
775.298	35.03
775.605	34.34
775.913	39.9
776.22	36.84
776.528	37.31
776.835	35.83
777.143	37.07
777.45	33.56
777.757	39.05
778.065	37.61
778.372	35.78
778.679	37.44
778.986	36.3
779.293	35.16
779.6	37.41
779.907	39.06
780.214	38.49
780.52	38.61
780.827	38.76
781.134	32.82
781.44	35.37
781.747	38.34
782.053	34.93
782.36	38.73
782.666	38.53
782.973	38.18
783.279	34.38
783.585	36.89
783.891	37.73
784.197	33.81
784.503	38.6
784.809	34.27
785.115	36.25
785.421	35.05
785.727	39.32
786.033	38.37
786.339	38.78
786.644	39.42
786.95	37.68
787.255	37.92
787.561	40.84
787.866	35.74
788.172	38.4
788.477	39.79
788.782	34.8
789.088	42.42
789.393	38.18
789.698	39.47
790.003	37.9
790.308	38.36
790.613	37.08
790.918	38.33
791.223	35.51
791.527	35.4
791.832	36.4
792.137	34.28
792.441	39.13
792.746	33.99
793.05	36.56
793.355	38.04
793.659	36.63
793.963	37.9
794.268	39.8
794.572	39.19
794.876	37.93
795.18	39.84
795.484	39.06
795.788	44.08
796.092	38.83
796.396	37.94
796.7	34.73
797.004	37.45
797.307	35.82
797.611	39.27
797.915	39.9
798.218	36.85
798.522	42.95
798.825	40.76
799.128	34.31
799.432	39.98
799.735	38.07
800.038	34.17
800.341	36.47
800.644	40.11
800.947	37.7
801.25	42.62
801.553	41.91
801.856	37.71
802.159	38.14
802.462	39.5
802.764	41.02
803.067	35.61
803.37	34.63
803.672	38.76
803.975	38.61
804.277	36.9
804.579	39.93
804.882	41.73
805.184	38.56
805.486	38.76
805.788	44.27
806.09	36.47
806.392	39.05
806.694	40.27
806.996	41.59
807.298	41.65
807.6	36.61
807.902	44.75
808.203	39.85
808.505	38.38
808.807	36.35
809.108	36.85
809.409	35.19
809.711	37.74
810.012	35.91
810.313	36.54
810.615	35.71
810.916	39.23
811.217	40.51
811.518	33.98
811.819	47.1
812.12	40.51
812.421	36.38
812.722	37.82
813.023	44.01
813.323	40.43
813.624	37.78
813.925	27.95
814.225	32.7
814.526	43.11
814.826	37.88
815.126	34.81
815.427	35.73
815.727	35.34
816.027	33.91
816.327	38.5
816.627	33.44
816.927	42.61
817.227	39.64
817.527	29.85
817.827	38.48
818.127	45.14
818.427	40.14
818.727	38.37
819.026	39.51
819.326	39.03
819.625	33.4
819.925	37.97
820.224	41.52
820.524	37.5
820.823	38.86
821.122	39.52
821.421	33.82
821.72	41.28
822.019	32.7
822.318	35.55
822.617	35.19
822.916	39.3
823.215	33.49
823.514	34.18
823.813	38.36
824.111	38.74
824.41	40.91
824.709	38.75
825.007	39.49
825.306	39.07
825.604	38.24
825.902	39.93
826.201	38.5
826.499	39.32
826.797	38.78
827.095	38.74
827.393	39.21
827.691	39.36
827.989	38.95
828.287	39.04
828.585	38.19
828.882	38.45
829.18	38.89
829.478	40.25
829.775	40.58
830.073	41.34
830.37	37.52
830.668	38.59
830.965	39.91
831.263	40.47
831.56	41.36
831.857	37.27
832.154	39.58
832.451	36.49
832.748	42.69
833.045	40.12
833.342	41.11
833.639	38.56
833.936	40.68
834.232	36.41
834.529	38.55
834.826	40.14
835.122	35.99
835.419	38.59
835.715	41.46
836.012	37.16
836.308	41.6
836.604	38.56
836.901	40.16
837.197	36.43
837.493	42.9
837.789	43.64
838.085	43.15
838.381	39.42
838.677	40.46
838.972	39.35
839.268	33.52
839.564	46.05
839.86	31.5
840.155	37.84
840.451	39.16
840.746	37.15
841.042	41.43
841.337	38.76
841.632	40.77
841.928	35.27
842.223	51.53
842.518	46.3
842.813	40.9
843.108	39.47
843.403	41.53
843.698	38.72
843.993	30.18
844.287	44.3
844.582	43.04
844.877	37.19
845.171	30.6
845.466	33.19
845.761	32.19
846.055	37.05
846.349	49.36
846.644	42.36
846.938	44.94
847.232	22.04
847.526	31.87
847.82	31.85
848.114	29.65
848.408	30.54
848.702	28.6
848.996	35.82
849.29	58.67
849.584	55.58
849.877	32.07
850.171	45.56
850.465	41.29
850.758	48.34
851.052	41.84
851.345	14.6
851.638	44.45
851.932	51.23
852.225	39.71
852.518	50.4
852.811	38.06
853.104	15.74
853.397	37.32
853.69	51.55
853.983	43.87
854.276	31.29
854.569	40.51
854.861	40.49
855.154	0.21
855.447	42.8
855.739	61.01
856.032	47.66
856.324	52.11
856.616	24.14
856.909	30.51
857.201	48.21
857.493	15.77
857.785	27.9
858.077	21.48
858.369	37.05
858.661	57.84
858.953	24.27
859.245	26.17
859.537	54.6
859.829	53.98
860.12	42.7
860.412	21.15
860.703	42.09
860.995	35.42
861.286	27.5
861.578	25.8
861.869	45.69
862.16	30.18
862.452	40.36
862.743	29.72
863.034	46.24
863.325	10.71
863.616	49.68
863.907	44.01
864.198	47.46
864.488	47.48
864.779	36.34
865.07	36.79
865.36	32.7
865.651	47.71
865.941	11.65
866.232	69.83
866.522	24.76
866.813	42.04
867.103	46.2
867.393	63.67
867.683	17.14
867.973	38.53
868.263	38.48
868.553	52.17
868.843	69.57
869.133	57.93
869.423	8.55
869.713	9.14
870.002	31.46
870.292	39.4
870.582	44.66
870.871	31.34
871.161	56.46
871.45	49.81
871.739	39.48
872.029	41.43
872.318	53.06
872.607	75.56
872.896	52.06
873.185	34.99
873.474	39.3
873.763	67.34
874.052	35.24
874.341	25.94
874.63	33.6
874.918	55.03
875.207	23.72
875.496	12.19
875.784	33.39
876.073	38.18
876.361	34.71
876.649	43.05
876.938	61.53
877.226	29.86
877.514	50.85
877.802	72.58
878.09	47.1
878.378	45.46
878.666	68.33
878.954	9.94
879.242	43.1
879.53	32.9
879.817	-12.2
880.105	40.96
880.392	36.75
880.68	0.4
880.967	39.16
881.255	37.3
881.542	45.4
881.83	43.56
882.117	23.68
882.404	38.09
882.691	13.87
882.978	52.56
883.265	2.72
883.552	20.4
883.839	18.03
884.126	18.84
884.413	59.56
884.699	39.21
884.986	43.88
885.273	49.17
885.559	49.17
885.846	49.17
