Data from 0003_chest_Reflection__2__258.txt Node

Date: Thu Dec 15 18:47:05 CST 2022
User: ToomeyLab
Spectrometer: FLMS14357
Trigger mode: 0
Integration Time (sec): 1.000000E-2
Scans to average: 100
Electric dark correction enabled: true
Nonlinearity correction enabled: false
Boxcar width: 0
XAxis mode: Wavelengths
Number of Pixels in Spectrum: 2048
>>>>>Begin Spectral Data<<<<<
189.047	171.77
189.435	171.77
189.823	171.77
190.211	130.35
190.599	752.93
190.987	438.38
191.375	54.44
191.763	199.66
192.151	0.93
192.538	-7.51
192.926	122.01
193.314	78.53
193.702	-33.8
194.089	51.04
194.477	-158.23
194.864	123.3
195.252	49.53
195.639	135.39
196.027	-86.3
196.414	-44.85
196.801	164.86
197.189	21.44
197.576	1.33
197.963	-612.43
198.351	-61.75
198.738	-86.38
199.125	-105.06
199.512	36.29
199.899	-40.89
200.286	-74.05
200.673	27.52
201.06	-28.55
201.447	1.51
201.833	-10.38
202.22	32.8
202.607	15.29
202.994	15.83
203.38	-28.62
203.767	0.81
204.154	17.69
204.54	46.45
204.927	73.15
205.313	34.53
205.699	19.69
206.086	10.75
206.472	42.97
206.858	-4.49
207.245	-36.32
207.631	-1.76
208.017	38.66
208.403	-56.42
208.789	-0.24
209.175	38.08
209.561	-78.23
209.947	-30.95
210.333	-19.64
210.719	4.25
211.105	28.01
211.491	13.29
211.876	-8.03
212.262	12.03
212.648	30.08
213.034	-20.41
213.419	-4.27
213.805	-30.87
214.19	-94.3
214.576	-58.32
214.961	-19.83
215.346	-36.21
215.732	-25.92
216.117	15.76
216.502	-10.92
216.888	11.99
217.273	3.85
217.658	-22.74
218.043	-6.06
218.428	-33.4
218.813	-0.79
219.198	-62.72
219.583	-15.84
219.968	2.87
220.353	-2.73
220.738	-8.67
221.122	-16.74
221.507	-16.43
221.892	-32.85
222.276	-25.12
222.661	-2.75
223.046	-14.02
223.43	16.41
223.815	2.46
224.199	-4.36
224.583	-9.87
224.968	-19.68
225.352	-0.88
225.736	11.77
226.121	-2.67
226.505	-9.8
226.889	-7.68
227.273	-7.2
227.657	-1.91
228.041	-6.68
228.425	-1.97
228.809	-1.06
229.193	1.1
229.577	-0.42
229.961	1.47
230.344	1.84
230.728	2.55
231.112	2.71
231.495	0.97
231.879	0.3
232.263	0.24
232.646	-0.04
233.03	2.44
233.413	0.35
233.797	1.04
234.18	1.92
234.563	1.94
234.946	-0.94
235.33	0.99
235.713	1.61
236.096	1.83
236.479	2.49
236.862	0.17
237.245	0.16
237.628	1.55
238.011	1.95
238.394	2.09
238.777	-0.15
239.16	3.54
239.543	3.3
239.925	1.18
240.308	0.25
240.691	1.36
241.073	-0.23
241.456	1.53
241.838	1.06
242.221	1.29
242.603	1.71
242.986	2.44
243.368	1.62
243.75	1.73
244.133	2.45
244.515	1.76
244.897	1.51
245.279	0.9
245.661	2.52
246.043	1.47
246.425	1.57
246.807	2.07
247.189	0.85
247.571	1.34
247.953	1.54
248.335	1.81
248.717	1.66
249.098	1.86
249.48	1.79
249.862	1.48
250.243	1.93
250.625	1.63
251.006	1.89
251.388	1.15
251.769	2.16
252.151	1.59
252.532	0.04
252.913	1.59
253.295	1.54
253.676	1.41
254.057	1.44
254.438	1.6
254.819	1.74
255.2	1.16
255.581	3.09
255.962	1.74
256.343	1.36
256.724	1.6
257.105	1.6
257.486	0.47
257.867	1.06
258.247	1.29
258.628	1.47
259.009	1.81
259.389	0.82
259.77	0.71
260.15	2.42
260.531	1.72
260.911	1.6
261.292	1.65
261.672	1.63
262.052	1.59
262.432	1.44
262.813	1.69
263.193	1.59
263.573	1.51
263.953	1.13
264.333	1.84
264.713	1.59
265.093	0.91
265.473	1.24
265.853	1.72
266.233	1.61
266.612	1.63
266.992	1.42
267.372	1.64
267.752	1.4
268.131	1.15
268.511	1.12
268.89	2.35
269.27	0.96
269.649	1.19
270.029	1.55
270.408	1.12
270.787	2.01
271.167	1.24
271.546	1.78
271.925	1.26
272.304	1.4
272.683	1.39
273.062	1.51
273.441	1.36
273.82	1.6
274.199	1.38
274.578	1.77
274.957	1.74
275.336	1.75
275.715	1.77
276.093	1.44
276.472	1.18
276.851	1.26
277.229	1.68
277.608	1.39
277.986	1.34
278.365	1.63
278.743	0.96
279.122	1.26
279.5	1.66
279.878	1.56
280.257	1.63
280.635	1.91
281.013	0.92
281.391	0.87
281.769	2.14
282.147	1.52
282.525	1.08
282.903	1.4
283.281	1.73
283.659	1.99
284.037	1.24
284.415	1.1
284.792	1.59
285.17	1.36
285.548	1.36
285.925	1
286.303	2.03
286.68	1.54
287.058	1.56
287.435	1.4
287.813	1.49
288.19	1.26
288.567	1.22
288.945	1.15
289.322	1.7
289.699	1.85
290.076	1.23
290.453	0.87
290.83	1.44
291.207	1.35
291.584	1.71
291.961	1.79
292.338	1.07
292.715	1.32
293.092	1.62
293.469	1.56
293.845	1.54
294.222	1.89
294.599	0.97
294.975	0.71
295.352	1.84
295.728	1.48
296.105	1.1
296.481	1.63
296.858	1.55
297.234	1.29
297.61	1.18
297.986	1.79
298.363	1.82
298.739	1.84
299.115	1.48
299.491	1.9
299.867	1.49
300.243	1.25
300.619	1.1
300.995	1.4
301.371	1.66
301.746	1.68
302.122	1.16
302.498	1.4
302.874	1.8
303.249	1.38
303.625	1.3
304	1.42
304.376	1.94
304.751	1.47
305.127	1.62
305.502	1.67
305.878	1.48
306.253	1.64
306.628	1.23
307.003	1.3
307.378	1.68
307.754	1.81
308.129	1.45
308.504	1.36
308.879	1.88
309.254	2.07
309.629	1.63
310.003	1.34
310.378	1.57
310.753	1.7
311.128	1.33
311.502	1.41
311.877	1.3
312.252	1.51
312.626	1.99
313.001	1.99
313.375	1.69
313.75	1.67
314.124	2.07
314.498	1.92
314.873	1.07
315.247	1.03
315.621	1.54
315.995	1.18
316.369	1.18
316.743	1.63
317.117	1.59
317.491	1.36
317.865	0.8
318.239	1.96
318.613	1.04
318.987	1.18
319.361	1.29
319.734	1.53
320.108	1.82
320.482	1.73
320.855	1.63
321.229	1.33
321.602	1.5
321.976	1.29
322.349	2.23
322.723	1.95
323.096	1.68
323.469	2.04
323.843	1.6
324.216	1.42
324.589	1.54
324.962	1.41
325.335	1.66
325.708	1.83
326.081	1.49
326.454	2.07
326.827	1.67
327.2	1.22
327.573	1.87
327.945	1.28
328.318	1.65
328.691	1.76
329.063	0.93
329.436	1.28
329.809	1.81
330.181	2.62
330.553	2.21
330.926	2.08
331.298	1.74
331.671	2.02
332.043	1.56
332.415	1.59
332.787	1.73
333.159	1.43
333.532	1.26
333.904	1.51
334.276	1.88
334.648	1.71
335.02	1.6
335.391	1.35
335.763	1.78
336.135	1.92
336.507	1.77
336.879	1.64
337.25	1.66
337.622	1.67
337.993	1.92
338.365	1.88
338.736	1.72
339.108	1.85
339.479	1.42
339.851	1.97
340.222	2.4
340.593	1.67
340.964	1.67
341.336	1.55
341.707	1.63
342.078	1.56
342.449	1.62
342.82	2.06
343.191	1.75
343.562	1.99
343.933	1.18
344.303	1.5
344.674	1.59
345.045	1.97
345.416	2.08
345.786	1.31
346.157	1.92
346.527	1.74
346.898	1.68
347.268	1.99
347.639	1.62
348.009	1.99
348.38	1.74
348.75	1.99
349.12	2.11
349.49	1.62
349.861	2.02
350.231	1.52
350.601	2.08
350.971	1.64
351.341	1.99
351.711	1.57
352.081	1.33
352.45	1.34
352.82	1.52
353.19	1.92
353.56	2.04
353.929	1.6
354.299	1.67
354.669	1.64
355.038	1.77
355.408	1.76
355.777	1.96
356.147	1.65
356.516	1.58
356.885	1.84
357.254	1.38
357.624	1.65
357.993	1.83
358.362	1.87
358.731	2.09
359.1	2.02
359.469	1.89
359.838	1.95
360.207	1.77
360.576	1.88
360.945	1.85
361.314	1.8
361.682	1.64
362.051	1.69
362.42	1.7
362.788	1.8
363.157	1.61
363.525	1.91
363.894	1.66
364.262	1.81
364.631	1.92
364.999	1.45
365.367	1.85
365.735	1.77
366.104	1.91
366.472	1.77
366.84	1.59
367.208	2.31
367.576	1.53
367.944	1.84
368.312	1.67
368.68	2.22
369.048	1.87
369.416	1.64
369.783	1.78
370.151	1.95
370.519	2.4
370.886	1.95
371.254	1.93
371.621	1.88
371.989	2.06
372.356	1.85
372.724	1.87
373.091	1.95
373.458	2.01
373.826	1.78
374.193	1.82
374.56	2.01
374.927	1.53
375.294	1.91
375.661	2.06
376.028	1.93
376.395	2.03
376.762	1.53
377.129	1.6
377.496	1.76
377.863	1.86
378.229	1.8
378.596	2.05
378.963	1.83
379.329	2.06
379.696	1.77
380.062	2.06
380.429	1.49
380.795	1.97
381.161	1.6
381.528	1.62
381.894	2.13
382.26	1.96
382.626	1.92
382.993	2.13
383.359	1.9
383.725	1.86
384.091	1.95
384.457	1.74
384.823	1.92
385.188	2.03
385.554	2.15
385.92	1.85
386.286	2.03
386.651	1.83
387.017	2.13
387.383	1.86
387.748	1.91
388.114	2.04
388.479	2.03
388.845	1.66
389.21	2.18
389.575	2.11
389.94	1.95
390.306	2.14
390.671	2.16
391.036	2.13
391.401	1.95
391.766	1.94
392.131	2.19
392.496	2.1
392.861	2.03
393.226	1.94
393.591	2
393.956	2.04
394.32	2.03
394.685	2.05
395.05	2.12
395.414	1.93
395.779	2.24
396.143	1.91
396.508	1.94
396.872	1.83
397.236	2.24
397.601	2.11
397.965	1.88
398.329	2.11
398.694	1.94
399.058	2
399.422	1.83
399.786	1.92
400.15	1.99
400.514	2.18
400.878	1.96
401.242	2.24
401.605	1.9
401.969	1.93
402.333	2.06
402.697	2.42
403.06	2.19
403.424	2.13
403.787	1.88
404.151	2.11
404.514	2.15
404.878	1.9
405.241	2.12
405.604	2.28
405.968	2.08
406.331	2.23
406.694	2.11
407.057	1.96
407.42	2.12
407.783	2.17
408.146	2.12
408.509	2.11
408.872	2.19
409.235	2.19
409.598	2.05
409.961	2.31
410.323	2.05
410.686	2.06
411.049	2.36
411.411	2.22
411.774	2.06
412.136	2.09
412.499	2.25
412.861	1.75
413.223	1.78
413.586	2.26
413.948	2.29
414.31	2.04
414.672	2.1
415.035	2.33
415.397	1.96
415.759	1.74
416.121	2.53
416.483	2.13
416.845	2.41
417.206	2.09
417.568	2.08
417.93	2.19
418.292	2.08
418.653	1.91
419.015	2.08
419.377	2.16
419.738	2.18
420.1	2.27
420.461	1.93
420.822	2.14
421.184	2.16
421.545	2.18
421.906	2.2
422.267	2.17
422.629	2.12
422.99	2.17
423.351	2.19
423.712	2.11
424.073	2.24
424.434	2.23
424.795	2.07
425.155	2.09
425.516	2.19
425.877	2.14
426.238	2.18
426.598	2.15
426.959	2.17
427.32	2.09
427.68	2.16
428.041	2.28
428.401	2.12
428.761	2.18
429.122	2.18
429.482	2.12
429.842	2.05
430.202	2.13
430.563	2.21
430.923	2.27
431.283	2.26
431.643	2.4
432.003	2.4
432.363	2.25
432.722	2.23
433.082	2.34
433.442	2.42
433.802	2.21
434.161	2.21
434.521	2.24
434.881	2.18
435.24	2.11
435.6	2.27
435.959	2.38
436.319	2.23
436.678	2.42
437.037	2.26
437.396	2.11
437.756	2.18
438.115	2.29
438.474	2.36
438.833	2.35
439.192	2.08
439.551	2.19
439.91	2.29
440.269	2.17
440.628	2.27
440.987	2.31
441.345	2.29
441.704	2.18
442.063	2.26
442.421	2.35
442.78	2.33
443.138	2.35
443.497	2.19
443.855	2.45
444.214	2.08
444.572	2.28
444.93	2.16
445.288	2.3
445.647	2.26
446.005	2.3
446.363	2.21
446.721	2.32
447.079	2.25
447.437	2.27
447.795	2.29
448.153	2.31
448.51	2.37
448.868	2.3
449.226	2.34
449.584	2.3
449.941	2.26
450.299	2.28
450.656	2.28
451.014	2.44
451.371	2.42
451.729	2.52
452.086	2.34
452.443	2.55
452.801	2.22
453.158	2.51
453.515	2.32
453.872	2.47
454.229	2.26
454.586	2.34
454.943	2.33
455.3	2.32
455.657	2.33
456.014	2.46
456.371	2.45
456.727	2.45
457.084	2.55
457.441	2.35
457.797	2.57
458.154	2.35
458.51	2.23
458.867	2.36
459.223	2.27
459.58	2.44
459.936	2.31
460.292	2.34
460.648	2.3
461.005	2.34
461.361	2.47
461.717	2.35
462.073	2.44
462.429	2.42
462.785	2.56
463.141	2.36
463.496	2.53
463.852	2.59
464.208	2.36
464.564	2.36
464.919	2.35
465.275	2.37
465.631	2.74
465.986	2.41
466.342	2.41
466.697	2.41
467.052	2.49
467.408	2.56
467.763	2.49
468.118	2.4
468.473	2.49
468.829	2.31
469.184	2.45
469.539	2.34
469.894	2.65
470.249	2.47
470.603	2.52
470.958	2.52
471.313	2.69
471.668	2.49
472.023	2.59
472.377	2.36
472.732	2.65
473.086	2.5
473.441	2.48
473.795	2.57
474.15	2.38
474.504	2.47
474.859	2.33
475.213	2.66
475.567	2.5
475.921	2.53
476.275	2.48
476.63	2.62
476.984	2.29
477.338	2.7
477.692	2.58
478.045	2.62
478.399	2.62
478.753	2.35
479.107	2.68
479.461	2.54
479.814	2.58
480.168	2.49
480.521	2.55
480.875	2.55
481.228	2.63
481.582	2.57
481.935	2.61
482.289	2.52
482.642	2.72
482.995	2.59
483.348	2.51
483.701	2.55
484.055	2.53
484.408	2.55
484.761	2.49
485.114	2.39
485.466	2.38
485.819	2.38
486.172	2.45
486.525	2.45
486.878	2.5
487.23	2.5
487.583	2.53
487.936	2.53
488.288	2.45
488.641	2.48
488.993	2.46
489.345	2.44
489.698	2.49
490.05	2.46
490.402	2.52
490.754	2.5
491.107	2.49
491.459	2.59
491.811	2.58
492.163	2.59
492.515	2.56
492.866	2.52
493.218	2.55
493.57	2.58
493.922	2.59
494.274	2.65
494.625	2.72
494.977	2.62
495.328	2.72
495.68	2.67
496.031	2.68
496.383	2.72
496.734	2.64
497.086	2.77
497.437	2.85
497.788	2.81
498.139	2.66
498.49	2.7
498.842	2.79
499.193	2.57
499.544	2.71
499.894	2.62
500.245	2.76
500.596	2.79
500.947	2.73
501.298	2.74
501.648	2.66
501.999	2.8
502.35	2.73
502.7	2.9
503.051	2.77
503.401	2.85
503.752	2.72
504.102	2.75
504.452	2.63
504.803	2.75
505.153	2.84
505.503	2.74
505.853	2.84
506.203	2.81
506.553	2.76
506.903	2.9
507.253	2.79
507.603	2.86
507.953	2.9
508.303	2.97
508.652	2.7
509.002	2.79
509.352	2.79
509.701	2.78
510.051	2.9
510.4	2.89
510.75	2.78
511.099	2.66
511.449	2.81
511.798	2.86
512.147	2.81
512.496	2.88
512.846	2.87
513.195	2.89
513.544	2.98
513.893	2.84
514.242	2.9
514.591	2.89
514.939	3.04
515.288	3
515.637	2.91
515.986	2.98
516.334	2.96
516.683	3.02
517.032	2.92
517.38	2.8
517.729	2.93
518.077	2.89
518.426	2.95
518.774	2.89
519.122	3.02
519.47	2.99
519.819	3.05
520.167	2.91
520.515	3.02
520.863	2.94
521.211	2.92
521.559	2.85
521.907	2.99
522.255	3.07
522.602	3.1
522.95	3.15
523.298	3.08
523.645	3.06
523.993	3.17
524.341	3.03
524.688	3.12
525.036	3.1
525.383	3.1
525.73	3.1
526.078	3.1
526.425	3.11
526.772	3.02
527.119	3.08
527.466	3.08
527.814	3.09
528.161	3.13
528.508	3.11
528.854	3.11
529.201	3.03
529.548	3.04
529.895	2.97
530.242	3.03
530.588	2.97
530.935	3.04
531.282	3
531.628	3.11
531.975	3.07
532.321	3.13
532.667	3.16
533.014	3.23
533.36	3.28
533.706	3.21
534.052	3.25
534.399	3.15
534.745	3.14
535.091	3.1
535.437	3.17
535.783	3.19
536.129	3.25
536.474	3.36
536.82	3.27
537.166	3.18
537.512	3.35
537.857	3.3
538.203	3.32
538.549	3.25
538.894	3.29
539.239	3.33
539.585	3.29
539.93	3.42
540.276	3.33
540.621	3.45
540.966	3.41
541.311	3.44
541.656	3.37
542.001	3.36
542.346	3.31
542.691	3.26
543.036	3.25
543.381	3.32
543.726	3.36
544.071	3.42
544.415	3.44
544.76	3.37
545.105	3.43
545.449	3.45
545.794	3.48
546.138	3.54
546.483	3.58
546.827	3.38
547.171	3.52
547.516	3.5
547.86	3.6
548.204	3.55
548.548	3.56
548.892	3.62
549.236	3.64
549.58	3.76
549.924	3.61
550.268	3.75
550.612	3.74
550.956	3.78
551.3	3.84
551.643	3.69
551.987	3.92
552.33	3.9
552.674	3.77
553.017	3.91
553.361	3.8
553.704	3.72
554.048	3.83
554.391	3.91
554.734	3.8
555.077	3.9
555.42	3.81
555.764	3.79
556.107	3.79
556.45	3.93
556.793	3.99
557.135	3.87
557.478	3.98
557.821	3.92
558.164	4.1
558.507	3.92
558.849	4.14
559.192	3.8
559.534	4.06
559.877	4.12
560.219	4.02
560.562	4
560.904	4.24
561.246	3.98
561.589	4.23
561.931	4.04
562.273	4.17
562.615	4.06
562.957	4.2
563.299	4.01
563.641	4.25
563.983	4.02
564.325	4.1
564.667	4.24
565.008	4.24
565.35	4.03
565.692	4.25
566.033	4.2
566.375	4.23
566.716	4.13
567.058	4.26
567.399	4.26
567.741	4.35
568.082	4.26
568.423	4.26
568.764	4.27
569.105	4.33
569.447	4.42
569.788	4.3
570.129	4.43
570.47	4.42
570.811	4.38
571.151	4.47
571.492	4.59
571.833	4.33
572.174	4.55
572.514	4.5
572.855	4.49
573.195	4.41
573.536	4.5
573.876	4.53
574.217	4.54
574.557	4.49
574.898	4.48
575.238	4.56
575.578	4.77
575.918	4.68
576.258	4.77
576.598	4.55
576.938	4.6
577.278	4.7
577.618	4.73
577.958	4.69
578.298	4.66
578.638	4.77
578.977	4.82
579.317	4.77
579.657	4.67
579.996	4.87
580.336	4.98
580.675	4.9
581.014	4.94
581.354	4.82
581.693	5.02
582.032	5.14
582.372	4.91
582.711	4.97
583.05	5.12
583.389	5.21
583.728	5.19
584.067	4.92
584.406	5.2
584.745	4.8
585.083	4.96
585.422	5.1
585.761	5.15
586.1	5.37
586.438	5.29
586.777	5.1
587.115	5.23
587.454	5.06
587.792	5.42
588.13	5.27
588.469	5.25
588.807	5.4
589.145	5.24
589.483	5.07
589.821	5.34
590.159	5.47
590.497	5.6
590.835	5.49
591.173	5.63
591.511	5.64
591.849	5.55
592.187	5.35
592.524	5.52
592.862	5.42
593.2	5.65
593.537	5.5
593.875	5.48
594.212	5.66
594.55	5.66
594.887	5.76
595.224	5.87
595.561	5.71
595.899	5.82
596.236	5.85
596.573	5.82
596.91	5.8
597.247	5.99
597.584	5.83
597.921	5.94
598.258	5.93
598.594	5.82
598.931	5.7
599.268	5.83
599.604	5.98
599.941	5.92
600.277	6.03
600.614	5.85
600.95	5.9
601.287	5.81
601.623	5.69
601.959	6.49
602.296	6.03
602.632	6.06
602.968	6.28
603.304	6.26
603.64	6.05
603.976	5.92
604.312	6.14
604.648	6.12
604.984	6.12
605.319	6.3
605.655	6.2
605.991	6.11
606.326	6.31
606.662	6.06
606.998	6.5
607.333	6.3
607.668	6.29
608.004	6.36
608.339	6.54
608.674	6.65
609.01	6.69
609.345	6.72
609.68	6.39
610.015	6.76
610.35	6.74
610.685	6.54
611.02	6.4
611.355	6.53
611.689	6.52
612.024	6.57
612.359	6.81
612.694	6.75
613.028	6.72
613.363	6.76
613.697	6.82
614.032	6.96
614.366	6.72
614.7	6.97
615.035	6.7
615.369	7.11
615.703	7.12
616.037	6.93
616.371	6.84
616.705	7.07
617.039	6.97
617.373	7.07
617.707	6.99
618.041	7.05
618.375	6.58
618.709	7.24
619.042	7.13
619.376	7.11
619.71	7.08
620.043	7.19
620.377	7.22
620.71	7.24
621.043	7.19
621.377	7.41
621.71	7.67
622.043	7.23
622.376	7.25
622.709	7.71
623.043	7.2
623.376	7.41
623.709	7.8
624.041	7.45
624.374	7.57
624.707	7.6
625.04	7.7
625.373	7.65
625.705	7.97
626.038	7.93
626.37	7.61
626.703	7.74
627.035	8
627.368	8.12
627.7	7.93
628.032	7.82
628.365	7.86
628.697	7.85
629.029	7.84
629.361	8.01
629.693	7.86
630.025	8.09
630.357	8.01
630.689	8.16
631.021	8.2
631.353	7.94
631.684	7.81
632.016	7.78
632.348	7.81
632.679	7.96
633.011	8.22
633.342	8.33
633.674	8.12
634.005	8.3
634.336	8.53
634.668	8.11
634.999	8.11
635.33	8.15
635.661	8.41
635.992	8.5
636.323	8.37
636.654	8.5
636.985	8.2
637.316	8.32
637.647	8.65
637.977	8.52
638.308	8.71
638.639	8.39
638.969	8.63
639.3	8.7
639.63	8.45
639.961	8.71
640.291	8.43
640.622	8.96
640.952	8.72
641.282	8.51
641.612	8.89
641.943	8.71
642.273	8.39
642.603	8.97
642.933	9.2
643.263	8.82
643.592	9.43
643.922	9.21
644.252	9.14
644.582	9
644.911	9.1
645.241	8.75
645.571	9.31
645.9	8.91
646.23	9.49
646.559	8.71
646.888	9.3
647.218	9.15
647.547	9.19
647.876	9.16
648.205	9.03
648.534	9.41
648.863	9.26
649.192	9.54
649.521	9.52
649.85	9.41
650.179	9.16
650.508	8.95
650.837	9.56
651.165	9.4
651.494	9.61
651.822	9.1
652.151	9.35
652.479	9.5
652.808	9.73
653.136	9.14
653.465	9.58
653.793	9.87
654.121	9.63
654.449	9.54
654.777	9.27
655.105	9.48
655.433	10.08
655.761	9.97
656.089	10.34
656.417	9.99
656.745	9.95
657.073	9.66
657.4	9.61
657.728	9.46
658.056	9.91
658.383	9.76
658.711	10.02
659.038	10.41
659.365	10.41
659.693	9.9
660.02	9.7
660.347	10.15
660.674	10.13
661.001	10.14
661.329	10.04
661.656	10.15
661.982	9.8
662.309	10.26
662.636	10.02
662.963	10.25
663.29	10.39
663.616	9.81
663.943	10.52
664.27	10.5
664.596	10.08
664.923	10.52
665.249	10.67
665.576	10.61
665.902	10.24
666.228	10.7
666.554	11.02
666.881	10.09
667.207	10.81
667.533	10.53
667.859	10.75
668.185	10.62
668.511	10.67
668.837	10.85
669.162	10.65
669.488	10.52
669.814	10.63
670.139	10.81
670.465	11.14
670.791	10.8
671.116	10.43
671.442	10.29
671.767	11.05
672.092	10.84
672.418	10.99
672.743	10.54
673.068	10.61
673.393	11.57
673.718	10.44
674.043	10.78
674.368	11.05
674.693	11.61
675.018	11.42
675.343	11.71
675.667	10.85
675.992	11.64
676.317	10.38
676.641	11.83
676.966	11.41
677.29	11.09
677.615	11.46
677.939	11.68
678.264	11.57
678.588	11.14
678.912	11.64
679.236	11.36
679.56	11.2
679.885	11.41
680.209	12.12
680.532	12.35
680.856	12.35
681.18	12.2
681.504	11.47
681.828	11.31
682.152	11.68
682.475	11.4
682.799	11.42
683.122	11.93
683.446	11.1
683.769	12.21
684.093	11.15
684.416	11.76
684.739	11.68
685.062	12.2
685.386	12.08
685.709	12.03
686.032	12.09
686.355	12.5
686.678	12.26
687.001	12.18
687.324	11.79
687.646	11.88
687.969	12.33
688.292	12.35
688.614	12.39
688.937	12.16
689.26	12.19
689.582	12.18
689.904	12.15
690.227	12.74
690.549	12.04
690.871	11.77
691.194	12.41
691.516	12.47
691.838	13.03
692.16	12.23
692.482	12.77
692.804	12.61
693.126	12.38
693.448	12.66
693.769	12.76
694.091	11.86
694.413	12
694.735	12.94
695.056	13.06
695.378	12.49
695.699	12.26
696.021	12.8
696.342	12.64
696.663	13.43
696.984	12.37
697.306	12.57
697.627	12.96
697.948	12.72
698.269	13.23
698.59	13.16
698.911	12.81
699.232	14.06
699.553	13.49
699.873	13.15
700.194	13.55
700.515	12.77
700.835	13.5
701.156	13.29
701.477	12.71
701.797	12.72
702.117	13.02
702.438	13.57
702.758	13.15
703.078	13.02
703.398	13.99
703.719	13.58
704.039	13.77
704.359	12.66
704.679	12.88
704.999	13.27
705.319	13.46
705.638	13.15
705.958	14.37
706.278	13.3
706.597	13.89
706.917	13.81
707.237	14.09
707.556	14.11
707.876	13.95
708.195	13.97
708.514	14.45
708.834	14.28
709.153	14.46
709.472	14.71
709.791	13.96
710.11	14.12
710.429	13.77
710.748	14.33
711.067	14.01
711.386	13.78
711.705	14.28
712.023	14.75
712.342	14.07
712.661	14.25
712.979	14.5
713.298	14.65
713.616	14.42
713.935	14.54
714.253	13.82
714.572	13.49
714.89	13.61
715.208	13.88
715.526	14.33
715.844	14.36
716.162	14.81
716.48	14.28
716.798	14.13
717.116	14.53
717.434	14.9
717.752	13.87
718.069	14.69
718.387	13.9
718.705	14.99
719.022	14.94
719.34	14.4
719.657	15.6
719.975	15.24
720.292	14.1
720.609	14.6
720.927	14.05
721.244	14.56
721.561	14.09
721.878	15.51
722.195	14.46
722.512	13.96
722.829	14.72
723.146	15.41
723.463	14.8
723.779	13.45
724.096	14.86
724.413	15.71
724.729	15.01
725.046	15.77
725.362	14.54
725.679	15.57
725.995	14.06
726.311	14.78
726.628	14.05
726.944	14.84
727.26	15.75
727.576	15.19
727.892	14.94
728.208	15.44
728.524	14.37
728.84	14.44
729.156	15.1
729.472	14.71
729.787	15.14
730.103	14.45
730.419	15.51
730.734	15.08
731.05	15.2
731.365	16.18
731.681	15.51
731.996	15.92
732.311	15.02
732.626	16.57
732.942	15.51
733.257	16.03
733.572	15.64
733.887	15.87
734.202	14.95
734.517	15.43
734.832	15.96
735.146	17.17
735.461	16
735.776	16.77
736.091	17.14
736.405	14.81
736.72	14.62
737.034	16.04
737.349	15.95
737.663	15.86
737.977	17.39
738.292	14.72
738.606	15.96
738.92	16.37
739.234	15.97
739.548	16.19
739.862	16.97
740.176	16.26
740.49	16.65
740.804	15.63
741.117	16.25
741.431	15.8
741.745	16.12
742.058	15.78
742.372	15.41
742.685	15.5
742.999	14.76
743.312	16.69
743.626	18.28
743.939	14.69
744.252	17.78
744.565	15.81
744.878	15.6
745.191	15.42
745.505	16.16
745.817	18.03
746.13	17.8
746.443	17.23
746.756	15.8
747.069	18.19
747.381	16.59
747.694	17.02
748.007	17.35
748.319	17.19
748.632	16.76
748.944	16.05
749.256	18.29
749.569	15.53
749.881	16.11
750.193	17.05
750.505	17.09
750.817	16.48
751.129	17.93
751.441	18.41
751.753	17.48
752.065	16.75
752.377	17.53
752.689	15.5
753	17
753.312	17.98
753.624	16.69
753.935	16.4
754.247	16.57
754.558	15.66
754.869	18.52
755.181	16.77
755.492	15.89
755.803	19.58
756.114	17.02
756.425	15.96
756.736	18.81
757.047	18.01
757.358	16.97
757.669	17.54
757.98	15.69
758.291	18.76
758.601	16.89
758.912	16.94
759.223	16.99
759.533	18.53
759.844	17.42
760.154	17.95
760.464	16.51
760.775	18.08
761.085	16.55
761.395	16.86
761.705	16.92
762.016	18.93
762.326	19.74
762.636	19.76
762.945	17.45
763.255	16.99
763.565	18.5
763.875	19.08
764.185	19.91
764.494	16.79
764.804	16.04
765.113	18.34
765.423	17.85
765.732	17.92
766.042	19.36
766.351	17.65
766.66	17.07
766.97	18.21
767.279	17.51
767.588	18.16
767.897	17.49
768.206	17.47
768.515	18.57
768.824	20
769.133	16.92
769.441	16.82
769.75	18.12
770.059	18.98
770.367	19.06
770.676	18.25
770.984	17.85
771.293	19.5
771.601	15.94
771.91	16.35
772.218	16.57
772.526	15.02
772.834	17.38
773.142	17.58
773.45	18.3
773.758	19.49
774.066	17.71
774.374	20.01
774.682	18.5
774.99	18.26
775.298	14.4
775.605	17.58
775.913	17.68
776.22	18.14
776.528	18.16
776.835	17.94
777.143	21.77
777.45	17.68
777.757	19.41
778.065	18.42
778.372	19.92
778.679	22.83
778.986	18.83
779.293	18.22
779.6	21.18
779.907	18.73
780.214	15.95
780.52	18.18
780.827	17.77
781.134	18.05
781.44	22.69
781.747	20.58
782.053	18.03
782.36	16.32
782.666	19.01
782.973	20.91
783.279	20.48
783.585	21.56
783.891	17.77
784.197	17.79
784.503	16.28
784.809	21.67
785.115	16.93
785.421	19.89
785.727	18.79
786.033	21.5
786.339	21.4
786.644	14.47
786.95	19.51
787.255	17.27
787.561	17.1
787.866	19.72
788.172	21.75
788.477	17.51
788.782	19
789.088	16.2
789.393	19.17
789.698	14.19
790.003	20.7
790.308	20.25
790.613	16.23
790.918	17.67
791.223	15.75
791.527	22.36
791.832	19.68
792.137	20.05
792.441	18.2
792.746	20.52
793.05	24.14
793.355	18.59
793.659	19.75
793.963	17.26
794.268	20.89
794.572	21.27
794.876	18.49
795.18	22.48
795.484	19.93
795.788	24.39
796.092	20.26
796.396	16.86
796.7	14.09
797.004	16.54
797.307	11.91
797.611	17.62
797.915	17.83
798.218	19.63
798.522	18.72
798.825	21.1
799.128	18.63
799.432	19.45
799.735	21.49
800.038	17.58
800.341	22.48
800.644	17.98
800.947	19.52
801.25	21.22
801.553	23.37
801.856	23.41
802.159	17.36
802.462	23.11
802.764	22.5
803.067	21.11
803.37	20.59
803.672	14.81
803.975	22.72
804.277	17.27
804.579	20.67
804.882	18.71
805.184	23.23
805.486	25.25
805.788	25.95
806.09	20.51
806.392	20.58
806.694	18.48
806.996	23.15
807.298	20.23
807.6	23.11
807.902	19.76
808.203	17.08
808.505	15.86
808.807	19.72
809.108	24.08
809.409	18.04
809.711	22.29
810.012	21.94
810.313	19.95
810.615	20.29
810.916	21.03
811.217	16.64
811.518	16.07
811.819	21.14
812.12	21.95
812.421	12.66
812.722	18.33
813.023	20.33
813.323	17.47
813.624	23.22
813.925	23.77
814.225	26.38
814.526	16.16
814.826	22.83
815.126	15.35
815.427	18.44
815.727	21.25
816.027	30.08
816.327	22.29
816.627	20.77
816.927	18.01
817.227	20.3
817.527	14.58
817.827	18.32
818.127	17.84
818.427	13.9
818.727	12.8
819.026	15.88
819.326	24.05
819.625	19.45
819.925	19.58
820.224	22.28
820.524	18.91
820.823	17.83
821.122	15.44
821.421	21.22
821.72	17.79
822.019	19.01
822.318	22.35
822.617	26.35
822.916	21.52
823.215	20.13
823.514	22.46
823.813	19.76
824.111	23.82
824.41	22.5
824.709	23.92
825.007	23
825.306	24.01
825.604	23.59
825.902	23.66
826.201	23.52
826.499	23.92
826.797	24.51
827.095	24.72
827.393	25.47
827.691	24.15
827.989	23.24
828.287	22.15
828.585	22.55
828.882	21
829.18	23
829.478	24.55
829.775	23.7
830.073	22.84
830.37	22.5
830.668	23.73
830.965	25.04
831.263	21.59
831.56	22.58
831.857	24.65
832.154	23.02
832.451	23.54
832.748	18.45
833.045	25.01
833.342	20.69
833.639	23.36
833.936	21.13
834.232	21.9
834.529	22.51
834.826	23.8
835.122	23.22
835.419	24.42
835.715	19.68
836.012	20.17
836.308	26.44
836.604	21.73
836.901	19.29
837.197	21.78
837.493	25.12
837.789	25.06
838.085	22.88
838.381	27.09
838.677	23.81
838.972	20.57
839.268	23.51
839.564	23.95
839.86	22.69
840.155	25.57
840.451	24.26
840.746	19.92
841.042	11.23
841.337	13.01
841.632	20.49
841.928	29.25
842.223	15.66
842.518	23.76
842.813	24.39
843.108	18.84
843.403	27.49
843.698	18.23
843.993	33.77
844.287	23.78
844.582	22.77
844.877	24.33
845.171	27.33
845.466	17.29
845.761	20.8
846.055	18.54
846.349	26.89
846.644	22.13
846.938	37.23
847.232	25.81
847.526	20.87
847.82	18.22
848.114	25.64
848.408	20.07
848.702	38.53
848.996	29.54
849.29	16.86
849.584	12.53
849.877	6.2
850.171	15.65
850.465	29.21
850.758	8.18
851.052	19.99
851.345	25.99
851.638	26.8
851.932	26.44
852.225	14.62
852.518	25.74
852.811	16.64
853.104	4.78
853.397	23.33
853.69	22.81
853.983	15.51
854.276	18.25
854.569	2.62
854.861	-2.64
855.154	34.89
855.447	9.83
855.739	-2.67
856.032	30.45
856.324	35.03
856.616	17.62
856.909	11.76
857.201	-17.83
857.493	21.42
857.785	14.57
858.077	-1.3
858.369	15.11
858.661	28.87
858.953	20.12
859.245	34.04
859.537	8.73
859.829	24.79
860.12	18.27
860.412	26.24
860.703	8.89
860.995	28.26
861.286	17.62
861.578	28.09
861.869	37.7
862.16	18.09
862.452	1.82
862.743	-10.62
863.034	33.88
863.325	25.08
863.616	15.19
863.907	15.69
864.198	14.5
864.488	9.85
864.779	23.28
865.07	23
865.36	43.16
865.651	27.79
865.941	15.54
866.232	23.33
866.522	3.63
866.813	19.56
867.103	13.26
867.393	30
867.683	45.66
867.973	30.62
868.263	18.28
868.553	13.17
868.843	24
869.133	19.38
869.423	18.55
869.713	11.4
870.002	6.76
870.292	37.77
870.582	24.09
870.871	20.45
871.161	-12.29
871.45	-2.6
871.739	36.55
872.029	4.18
872.318	20.3
872.607	41.71
872.896	28.09
873.185	48.28
873.474	9.26
873.763	15.76
874.052	22.51
874.341	5.29
874.63	-6.59
874.918	-0.18
875.207	-1.46
875.496	11.08
875.784	-10.85
876.073	35.79
876.361	17.61
876.649	22.54
876.938	2.13
877.226	38.16
877.514	26.45
877.802	-12.31
878.09	19.63
878.378	49.28
878.666	8.79
878.954	17.42
879.242	26.04
879.53	5.04
879.817	4.2
880.105	14.04
880.392	33.34
880.68	16.29
880.967	-8.59
881.255	19.78
881.542	-1.77
881.83	13.74
882.117	36.09
882.404	20.29
882.691	20.06
882.978	30.91
883.265	30.29
883.552	24.15
883.839	38.06
884.126	24.95
884.413	23.14
884.699	32.68
884.986	26.52
885.273	28.51
885.559	28.51
885.846	28.51
