Data from 0003_crown_Reflection__2__263.txt Node

Date: Thu Dec 15 18:48:47 CST 2022
User: ToomeyLab
Spectrometer: FLMS14357
Trigger mode: 0
Integration Time (sec): 1.000000E-2
Scans to average: 100
Electric dark correction enabled: true
Nonlinearity correction enabled: false
Boxcar width: 0
XAxis mode: Wavelengths
Number of Pixels in Spectrum: 2048
>>>>>Begin Spectral Data<<<<<
189.047	-3.43
189.435	-3.43
189.823	-3.43
190.211	-30.48
190.599	58.54
190.987	587.88
191.375	-69.27
191.763	256.41
192.151	105.11
192.538	-38.24
192.926	217.12
193.314	3.76
193.702	-32.02
194.089	-155.74
194.477	-242
194.864	88.8
195.252	98.37
195.639	49.75
196.027	-143.74
196.414	55.56
196.801	-1.41
197.189	33.71
197.576	-32.51
197.963	-606
198.351	15.34
198.738	-71.91
199.125	-97.43
199.512	8.01
199.899	-49.3
200.286	-67.12
200.673	23.62
201.06	-92.48
201.447	-18.74
201.833	-11.18
202.22	-21.27
202.607	26.28
202.994	-25.29
203.38	47.33
203.767	21.76
204.154	6.24
204.54	12.76
204.927	7.25
205.313	21.11
205.699	1.52
206.086	23.46
206.472	11.68
206.858	1.26
207.245	-31.98
207.631	-46.74
208.017	28.99
208.403	-62.69
208.789	-21.59
209.175	-47.15
209.561	-158.11
209.947	-44.41
210.333	-33.61
210.719	22.55
211.105	29.18
211.491	-21.55
211.876	-32.67
212.262	-0.94
212.648	-4.68
213.034	-20.97
213.419	-23.83
213.805	-46.86
214.19	-78.85
214.576	-45.14
214.961	-0.21
215.346	-28.06
215.732	-17.86
216.117	-10.05
216.502	-6.35
216.888	28.75
217.273	-34.09
217.658	-24.59
218.043	-28.77
218.428	-6.89
218.813	-13.97
219.198	-35.99
219.583	14.23
219.968	-4.59
220.353	-24.4
220.738	-17.27
221.122	-31.17
221.507	-35.71
221.892	-13.76
222.276	-29.72
222.661	-19.18
223.046	-12.12
223.43	3.26
223.815	-4.56
224.199	-9.26
224.583	-1.34
224.968	-7.07
225.352	-13.77
225.736	6.26
226.121	-11.99
226.505	-4.88
226.889	3.21
227.273	-13.06
227.657	-0.45
228.041	2.34
228.425	-3.25
228.809	-3.51
229.193	2.96
229.577	2.14
229.961	2.59
230.344	3.82
230.728	3.81
231.112	2.97
231.495	1.72
231.879	2.83
232.263	3.85
232.646	1.83
233.03	2.7
233.413	1.2
233.797	1.71
234.18	2.81
234.563	0.68
234.946	0.62
235.33	2.51
235.713	3.15
236.096	1.97
236.479	4.7
236.862	0.75
237.245	0.71
237.628	3.93
238.011	2.17
238.394	1.77
238.777	2
239.16	3.58
239.543	3.14
239.925	3.14
240.308	1.5
240.691	1.89
241.073	1.11
241.456	2.12
241.838	3.46
242.221	2.24
242.603	3.2
242.986	2.6
243.368	3.23
243.75	3.34
244.133	3.7
244.515	3.03
244.897	2.91
245.279	2.13
245.661	3.37
246.043	2.86
246.425	2.39
246.807	2.39
247.189	2.7
247.571	2.82
247.953	3.2
248.335	3.27
248.717	3.32
249.098	3.34
249.48	2.86
249.862	3.13
250.243	3.43
250.625	2.97
251.006	4.11
251.388	2.9
251.769	2.73
252.151	2.63
252.532	2.71
252.913	2.75
253.295	2.6
253.676	3.17
254.057	2.69
254.438	2.33
254.819	2.58
255.2	3.66
255.581	3.36
255.962	2.68
256.343	3
256.724	2.39
257.105	2.54
257.486	1.72
257.867	2.41
258.247	2.25
258.628	3.46
259.009	2.62
259.389	2.43
259.77	2.49
260.15	3.36
260.531	2.79
260.911	2.81
261.292	2.91
261.672	3.04
262.052	2.88
262.432	2.55
262.813	2.3
263.193	2.57
263.573	2.53
263.953	2.54
264.333	2.97
264.713	2.61
265.093	2.58
265.473	2.08
265.853	2.57
266.233	3.2
266.612	2.31
266.992	2.04
267.372	2.85
267.752	2.73
268.131	2.85
268.511	2.73
268.89	3.44
269.27	2.06
269.649	2.56
270.029	2.76
270.408	2.19
270.787	2.41
271.167	2.48
271.546	2.88
271.925	2.58
272.304	2.32
272.683	2.58
273.062	2.69
273.441	2.38
273.82	3
274.199	2.46
274.578	2.81
274.957	2.78
275.336	3.07
275.715	2.7
276.093	2.33
276.472	2.44
276.851	2.87
277.229	2.73
277.608	2
277.986	2.33
278.365	3.06
278.743	2.12
279.122	2.4
279.5	2.27
279.878	2.05
280.257	2.37
280.635	3.03
281.013	1.82
281.391	2.28
281.769	3.09
282.147	2.53
282.525	2.4
282.903	1.86
283.281	2.53
283.659	2.52
284.037	2.16
284.415	2.17
284.792	2.64
285.17	2.63
285.548	2.39
285.925	2.39
286.303	2.73
286.68	2.94
287.058	2.67
287.435	2.37
287.813	2.3
288.19	2.36
288.567	2.29
288.945	2.11
289.322	2.35
289.699	2.75
290.076	2
290.453	2.57
290.83	2.45
291.207	2.53
291.584	2.47
291.961	2.33
292.338	2.45
292.715	2.25
293.092	2.21
293.469	1.9
293.845	2.64
294.222	2.77
294.599	1.36
294.975	1.97
295.352	2.33
295.728	2.39
296.105	2.31
296.481	2.08
296.858	2.45
297.234	1.98
297.61	2.42
297.986	2.91
298.363	2.81
298.739	2.4
299.115	2.34
299.491	3.04
299.867	2.23
300.243	2.15
300.619	1.95
300.995	2.42
301.371	2.53
301.746	2.53
302.122	2.5
302.498	2.57
302.874	3.13
303.249	2.75
303.625	1.68
304	2.76
304.376	3.04
304.751	2.59
305.127	2.54
305.502	2.57
305.878	2.39
306.253	2.15
306.628	2.14
307.003	2.33
307.378	2.06
307.754	2.64
308.129	2.21
308.504	2.12
308.879	2.41
309.254	2.93
309.629	2.38
310.003	2.2
310.378	2.58
310.753	2.23
311.128	2.69
311.502	2.62
311.877	2.15
312.252	2.43
312.626	2.74
313.001	2.36
313.375	2.68
313.75	2.59
314.124	2.49
314.498	2.94
314.873	2.16
315.247	2.3
315.621	2.31
315.995	2.33
316.369	2.26
316.743	2.14
317.117	2.21
317.491	2.29
317.865	1.7
318.239	2.89
318.613	2.12
318.987	2.3
319.361	2.56
319.734	3.03
320.108	2.25
320.482	2.51
320.855	2.32
321.229	2.31
321.602	2.53
321.976	1.67
322.349	3.14
322.723	1.97
323.096	2.53
323.469	1.83
323.843	1.85
324.216	2.4
324.589	2.56
324.962	1.79
325.335	2.01
325.708	2.7
326.081	2.26
326.454	2.74
326.827	2.76
327.2	1.99
327.573	2.83
327.945	2.13
328.318	1.99
328.691	2.62
329.063	2.4
329.436	2.03
329.809	2.79
330.181	2.67
330.553	2.54
330.926	2.71
331.298	2.02
331.671	2.58
332.043	1.98
332.415	2.43
332.787	2.44
333.159	2.15
333.532	2.53
333.904	2.66
334.276	2.88
334.648	2.53
335.02	2.35
335.391	2.12
335.763	2.72
336.135	2.42
336.507	2.03
336.879	2.56
337.25	2.88
337.622	2.37
337.993	2.55
338.365	2.61
338.736	2.26
339.108	2.45
339.479	2.56
339.851	2.47
340.222	3.14
340.593	2.74
340.964	2.73
341.336	2.37
341.707	2.21
342.078	2.33
342.449	2.76
342.82	2.39
343.191	2.49
343.562	2.85
343.933	2.54
344.303	2.69
344.674	2.73
345.045	2.69
345.416	3.05
345.786	2.65
346.157	2.39
346.527	2.84
346.898	2.55
347.268	2.46
347.639	2.3
348.009	2.41
348.38	2.34
348.75	2.8
349.12	2.81
349.49	2.73
349.861	2.62
350.231	2.37
350.601	2.58
350.971	2.01
351.341	2.91
351.711	2.7
352.081	2.34
352.45	2.31
352.82	2.25
353.19	2.35
353.56	2.29
353.929	2.37
354.299	2.93
354.669	2.63
355.038	2.58
355.408	2.41
355.777	2.72
356.147	2.61
356.516	2.3
356.885	2.44
357.254	2.52
357.624	2.14
357.993	2.63
358.362	2.44
358.731	2.95
359.1	2.37
359.469	2.99
359.838	2.52
360.207	2.65
360.576	2.73
360.945	2.9
361.314	2.42
361.682	2.52
362.051	2.73
362.42	2.51
362.788	2.87
363.157	2.36
363.525	2.9
363.894	2.41
364.262	2.58
364.631	2.75
364.999	2.82
365.367	2.53
365.735	2.2
366.104	2.71
366.472	2.41
366.84	2.54
367.208	2.95
367.576	2.48
367.944	2.5
368.312	2.53
368.68	2.84
369.048	2.88
369.416	2.5
369.783	2.57
370.151	2.98
370.519	3.02
370.886	2.81
371.254	2.78
371.621	2.88
371.989	2.83
372.356	2.62
372.724	2.78
373.091	2.56
373.458	2.82
373.826	2.83
374.193	2.51
374.56	2.8
374.927	2.49
375.294	2.89
375.661	2.58
376.028	2.5
376.395	2.84
376.762	2.51
377.129	2.69
377.496	2.71
377.863	2.96
378.229	2.94
378.596	2.72
378.963	3.05
379.329	2.83
379.696	2.69
380.062	2.99
380.429	2.53
380.795	3
381.161	2.72
381.528	2.77
381.894	2.61
382.26	2.9
382.626	2.93
382.993	2.99
383.359	2.72
383.725	2.39
384.091	2.85
384.457	2.68
384.823	2.9
385.188	2.96
385.554	2.73
385.92	2.87
386.286	3.1
386.651	2.65
387.017	3.08
387.383	2.84
387.748	3.12
388.114	3.07
388.479	2.7
388.845	2.82
389.21	3.08
389.575	3.09
389.94	3.06
390.306	3.04
390.671	2.93
391.036	2.61
391.401	2.87
391.766	2.76
392.131	2.89
392.496	2.85
392.861	2.81
393.226	2.74
393.591	2.95
393.956	2.94
394.32	3.17
394.685	2.93
395.05	3.07
395.414	2.93
395.779	3.06
396.143	2.93
396.508	2.81
396.872	2.65
397.236	3.09
397.601	2.92
397.965	2.92
398.329	2.79
398.694	2.7
399.058	2.94
399.422	2.85
399.786	2.79
400.15	2.82
400.514	2.93
400.878	3.08
401.242	2.99
401.605	2.75
401.969	2.94
402.333	2.95
402.697	3.26
403.06	2.92
403.424	3.04
403.787	3.13
404.151	3.12
404.514	3.29
404.878	2.91
405.241	3.06
405.604	3.05
405.968	2.97
406.331	3.09
406.694	2.8
407.057	2.96
407.42	2.92
407.783	3.19
408.146	3.07
408.509	3.15
408.872	3.11
409.235	3.08
409.598	3.1
409.961	3.19
410.323	2.94
410.686	3.09
411.049	3.04
411.411	3.04
411.774	3.16
412.136	3.17
412.499	3.31
412.861	2.71
413.223	3.1
413.586	3.04
413.948	3.01
414.31	3.15
414.672	3.04
415.035	3.27
415.397	2.88
415.759	2.94
416.121	3.15
416.483	3.09
416.845	3.11
417.206	3.01
417.568	2.84
417.93	3.11
418.292	2.97
418.653	2.89
419.015	2.92
419.377	3.1
419.738	3.09
420.1	3.16
420.461	3.04
420.822	3.19
421.184	3.13
421.545	3.13
421.906	3.14
422.267	3.02
422.629	3.09
422.99	3.11
423.351	2.96
423.712	3.17
424.073	3.16
424.434	3.2
424.795	3.06
425.155	3.03
425.516	3.08
425.877	3.07
426.238	3.01
426.598	3.17
426.959	3.2
427.32	3.2
427.68	3.29
428.041	3.19
428.401	3.07
428.761	3.29
429.122	3.14
429.482	3.11
429.842	3.19
430.202	3.28
430.563	3.12
430.923	3.3
431.283	3.24
431.643	3.42
432.003	3.13
432.363	3.3
432.722	3.15
433.082	3.16
433.442	3.4
433.802	3.28
434.161	3.24
434.521	3.2
434.881	3.18
435.24	3.23
435.6	3.27
435.959	3.22
436.319	3.23
436.678	3.28
437.037	3.27
437.396	3.24
437.756	3.09
438.115	3.14
438.474	3.31
438.833	3.2
439.192	3.14
439.551	3.06
439.91	3.3
440.269	3.2
440.628	3.23
440.987	3.25
441.345	3.19
441.704	3.27
442.063	3.25
442.421	3.28
442.78	3.27
443.138	3.22
443.497	3.13
443.855	3.38
444.214	3.15
444.572	3.45
444.93	3.16
445.288	3.29
445.647	3.21
446.005	3.35
446.363	3.38
446.721	3.24
447.079	3.18
447.437	3.27
447.795	3.19
448.153	3.25
448.51	3.26
448.868	3.24
449.226	3.26
449.584	3.19
449.941	3.18
450.299	3.19
450.656	3.37
451.014	3.42
451.371	3.31
451.729	3.27
452.086	3.22
452.443	3.3
452.801	3.22
453.158	3.44
453.515	3.32
453.872	3.31
454.229	3.14
454.586	3.16
454.943	3.45
455.3	3.49
455.657	3.27
456.014	3.39
456.371	3.45
456.727	3.41
457.084	3.38
457.441	3.48
457.797	3.5
458.154	3.29
458.51	3.22
458.867	3.3
459.223	3.29
459.58	3.35
459.936	3.52
460.292	3.4
460.648	3.18
461.005	3.38
461.361	3.32
461.717	3.33
462.073	3.37
462.429	3.49
462.785	3.62
463.141	3.47
463.496	3.51
463.852	3.5
464.208	3.44
464.564	3.3
464.919	3.44
465.275	3.39
465.631	3.71
465.986	3.68
466.342	3.36
466.697	3.52
467.052	3.67
467.408	3.48
467.763	3.47
468.118	3.3
468.473	3.49
468.829	3.38
469.184	3.48
469.539	3.32
469.894	3.48
470.249	3.55
470.603	3.5
470.958	3.55
471.313	3.71
471.668	3.5
472.023	3.53
472.377	3.49
472.732	3.46
473.086	3.48
473.441	3.54
473.795	3.75
474.15	3.53
474.504	3.48
474.859	3.33
475.213	3.67
475.567	3.38
475.921	3.53
476.275	3.56
476.63	3.48
476.984	3.48
477.338	3.62
477.692	3.41
478.045	3.59
478.399	3.52
478.753	3.54
479.107	3.58
479.461	3.5
479.814	3.52
480.168	3.48
480.521	3.62
480.875	3.57
481.228	3.57
481.582	3.49
481.935	3.53
482.289	3.51
482.642	3.49
482.995	3.44
483.348	3.49
483.701	3.53
484.055	3.5
484.408	3.47
484.761	3.41
485.114	3.32
485.466	3.29
485.819	3.32
486.172	3.37
486.525	3.39
486.878	3.43
487.23	3.53
487.583	3.53
487.936	3.52
488.288	3.43
488.641	3.41
488.993	3.41
489.345	3.38
489.698	3.38
490.05	3.4
490.402	3.45
490.754	3.48
491.107	3.48
491.459	3.64
491.811	3.62
492.163	3.54
492.515	3.43
492.866	3.38
493.218	3.41
493.57	3.49
493.922	3.49
494.274	3.59
494.625	3.64
494.977	3.62
495.328	3.63
495.68	3.6
496.031	3.63
496.383	3.5
496.734	3.52
497.086	3.64
497.437	3.72
497.788	3.78
498.139	3.63
498.49	3.72
498.842	3.68
499.193	3.57
499.544	3.63
499.894	3.64
500.245	3.71
500.596	3.63
500.947	3.59
501.298	3.68
501.648	3.72
501.999	3.69
502.35	3.61
502.7	3.83
503.051	3.78
503.401	3.72
503.752	3.6
504.102	3.68
504.452	3.48
504.803	3.64
505.153	3.7
505.503	3.62
505.853	3.71
506.203	3.76
506.553	3.69
506.903	3.68
507.253	3.67
507.603	3.64
507.953	3.68
508.303	3.69
508.652	3.65
509.002	3.74
509.352	3.7
509.701	3.62
510.051	3.8
510.4	3.68
510.75	3.58
511.099	3.57
511.449	3.74
511.798	3.64
512.147	3.6
512.496	3.7
512.846	3.7
513.195	3.74
513.544	3.71
513.893	3.77
514.242	3.72
514.591	3.67
514.939	3.71
515.288	3.67
515.637	3.66
515.986	3.79
516.334	3.82
516.683	3.78
517.032	3.69
517.38	3.66
517.729	3.75
518.077	3.73
518.426	3.72
518.774	3.73
519.122	3.73
519.47	3.77
519.819	3.73
520.167	3.62
520.515	3.71
520.863	3.75
521.211	3.72
521.559	3.77
521.907	3.77
522.255	3.7
522.602	3.81
522.95	3.79
523.298	3.91
523.645	3.78
523.993	3.76
524.341	3.72
524.688	3.83
525.036	3.8
525.383	3.8
525.73	3.66
526.078	3.89
526.425	3.8
526.772	3.71
527.119	3.77
527.466	3.81
527.814	3.8
528.161	3.75
528.508	3.84
528.854	3.71
529.201	3.66
529.548	3.65
529.895	3.57
530.242	3.56
530.588	3.57
530.935	3.67
531.282	3.64
531.628	3.76
531.975	3.72
532.321	3.81
532.667	3.75
533.014	3.77
533.36	3.8
533.706	3.83
534.052	3.84
534.399	3.75
534.745	3.62
535.091	3.62
535.437	3.73
535.783	3.77
536.129	3.69
536.474	3.78
536.82	3.87
537.166	3.74
537.512	3.8
537.857	3.78
538.203	3.78
538.549	3.67
538.894	3.75
539.239	3.84
539.585	3.88
539.93	3.96
540.276	3.78
540.621	3.87
540.966	3.83
541.311	3.79
541.656	3.7
542.001	3.76
542.346	3.69
542.691	3.67
543.036	3.74
543.381	3.71
543.726	3.77
544.071	3.71
544.415	3.81
544.76	3.81
545.105	3.75
545.449	3.83
545.794	3.8
546.138	3.81
546.483	3.93
546.827	3.78
547.171	3.85
547.516	3.88
547.86	3.84
548.204	3.87
548.548	3.82
548.892	3.89
549.236	3.89
549.58	3.97
549.924	4.11
550.268	3.94
550.612	4.03
550.956	4.04
551.3	4.04
551.643	4.04
551.987	4.07
552.33	4.18
552.674	3.95
553.017	3.96
553.361	3.99
553.704	3.95
554.048	3.87
554.391	4.06
554.734	3.88
555.077	3.99
555.42	3.9
555.764	3.95
556.107	4.09
556.45	3.96
556.793	4.18
557.135	3.94
557.478	4
557.821	4
558.164	4.08
558.507	3.9
558.849	4.11
559.192	4.09
559.534	3.96
559.877	3.89
560.219	3.96
560.562	3.99
560.904	4.11
561.246	4.04
561.589	4.21
561.931	4.06
562.273	3.84
562.615	3.88
562.957	3.84
563.299	4.03
563.641	4.08
563.983	3.89
564.325	4.08
564.667	4.12
565.008	3.95
565.35	3.81
565.692	4.03
566.033	3.91
566.375	4.02
566.716	3.79
567.058	4.06
567.399	4.06
567.741	3.95
568.082	3.97
568.423	3.99
568.764	4.07
569.105	3.91
569.447	3.92
569.788	4.03
570.129	4.11
570.47	4.11
570.811	4
571.151	3.99
571.492	3.89
571.833	4.05
572.174	4.08
572.514	4.09
572.855	4.22
573.195	3.92
573.536	4.05
573.876	3.96
574.217	4.04
574.557	3.9
574.898	3.97
575.238	4.09
575.578	4.12
575.918	4.03
576.258	4.24
576.598	3.85
576.938	3.92
577.278	4.03
577.618	3.9
577.958	4.17
578.298	4.07
578.638	3.96
578.977	4.2
579.317	4.09
579.657	4.22
579.996	4.17
580.336	4.29
580.675	4.03
581.014	4.07
581.354	4.03
581.693	4.27
582.032	4.44
582.372	4.18
582.711	4.35
583.05	4.09
583.389	4.25
583.728	4.38
584.067	3.95
584.406	3.95
584.745	4.09
585.083	3.92
585.422	4.24
585.761	4.41
586.1	4.25
586.438	4.01
586.777	4.09
587.115	4.21
587.454	4.09
587.792	4.13
588.13	3.96
588.469	3.99
588.807	4.18
589.145	4.13
589.483	4.01
589.821	4.09
590.159	4.14
590.497	4.2
590.835	4.01
591.173	4.31
591.511	4.19
591.849	4.08
592.187	4.02
592.524	4.17
592.862	4.01
593.2	4.38
593.537	3.98
593.875	4.1
594.212	4.03
594.55	4.21
594.887	4.21
595.224	4.3
595.561	4.55
595.899	4.14
596.236	4.21
596.573	4.12
596.91	4.09
597.247	4.33
597.584	4.31
597.921	4.13
598.258	4.28
598.594	4.09
598.931	4.12
599.268	3.99
599.604	4.11
599.941	4.2
600.277	4.3
600.614	4.39
600.95	4.03
601.287	3.95
601.623	3.75
601.959	4.64
602.296	4.21
602.632	4.2
602.968	4.09
603.304	4.3
603.64	4.25
603.976	3.9
604.312	4.27
604.648	4.37
604.984	4.34
605.319	4.06
605.655	4.22
605.991	4.29
606.326	4.16
606.662	4.19
606.998	4.26
607.333	4.11
607.668	4.13
608.004	4.49
608.339	4.27
608.674	4.21
609.01	4.52
609.345	4.31
609.68	4.24
610.015	4.34
610.35	4.35
610.685	4.06
611.02	4.11
611.355	4.1
611.689	4.27
612.024	4.35
612.359	4.26
612.694	4.31
613.028	4.29
613.363	4.09
613.697	4.31
614.032	4.21
614.366	4.15
614.7	4.46
615.035	4.15
615.369	4.26
615.703	4.41
616.037	4.4
616.371	4.21
616.705	4.45
617.039	4.3
617.373	4.21
617.707	4.42
618.041	4.07
618.375	3.89
618.709	4.36
619.042	4.53
619.376	4.28
619.71	4.42
620.043	4.58
620.377	4.25
620.71	4.28
621.043	4.7
621.377	4.33
621.71	4.62
622.043	4.56
622.376	4.29
622.709	4.87
623.043	4.39
623.376	4.44
623.709	4.21
624.041	4.24
624.374	4.36
624.707	4.19
625.04	4.24
625.373	4.39
625.705	4.64
626.038	4.59
626.37	4.51
626.703	4.23
627.035	4.45
627.368	4.65
627.7	4.36
628.032	4.47
628.365	4.56
628.697	4.71
629.029	4.42
629.361	4.57
629.693	4.35
630.025	4.42
630.357	4.53
630.689	4.13
631.021	4.47
631.353	4.27
631.684	4.31
632.016	4.2
632.348	4.1
632.679	4.48
633.011	4.43
633.342	4.58
633.674	4.27
634.005	4.51
634.336	4.56
634.668	4.37
634.999	4.34
635.33	4.78
635.661	4.31
635.992	4.5
636.323	4.41
636.654	4.4
636.985	4.59
637.316	4.56
637.647	4.52
637.977	4.1
638.308	4.63
638.639	4.47
638.969	4.42
639.3	4.47
639.63	4.4
639.961	4.43
640.291	4.29
640.622	4.51
640.952	4.67
641.282	4.25
641.612	4.15
641.943	4.05
642.273	4.04
642.603	4.74
642.933	4.97
643.263	4.52
643.592	4.67
643.922	5.05
644.252	4.49
644.582	4.98
644.911	4.32
645.241	4.21
645.571	4.65
645.9	4.23
646.23	4.45
646.559	4
646.888	4.85
647.218	4.44
647.547	4.31
647.876	4.19
648.205	4.11
648.534	4.42
648.863	4.34
649.192	4.6
649.521	4.65
649.85	4.62
650.179	4.6
650.508	4.33
650.837	4.64
651.165	4.7
651.494	4.51
651.822	4.18
652.151	3.8
652.479	4.67
652.808	4.45
653.136	4.49
653.465	4.62
653.793	4.55
654.121	4.41
654.449	4.36
654.777	4.35
655.105	4.42
655.433	4.64
655.761	4.69
656.089	4.57
656.417	5.09
656.745	4.87
657.073	4.84
657.4	4.11
657.728	4.04
658.056	4.85
658.383	4.58
658.711	4.95
659.038	4.97
659.365	4.24
659.693	4.83
660.02	4.2
660.347	4.81
660.674	4.6
661.001	4.8
661.329	4.62
661.656	4.29
661.982	4.67
662.309	4.65
662.636	4.63
662.963	4.76
663.29	4.88
663.616	4.3
663.943	4.69
664.27	4.73
664.596	4.27
664.923	4.85
665.249	4.73
665.576	4.82
665.902	4.3
666.228	4.94
666.554	4.81
666.881	4.27
667.207	4.74
667.533	4.71
667.859	4.47
668.185	4.77
668.511	4.87
668.837	4.39
669.162	4.88
669.488	4.18
669.814	4.68
670.139	4.3
670.465	4.82
670.791	4.33
671.116	4.66
671.442	4.5
671.767	4.59
672.092	4.79
672.418	4.16
672.743	5.06
673.068	4.57
673.393	4.78
673.718	4.24
674.043	4.51
674.368	4.45
674.693	4.48
675.018	5.1
675.343	4.9
675.667	4.9
675.992	4.71
676.317	3.51
676.641	5.12
676.966	5.28
677.29	4.32
677.615	4.3
677.939	5.23
678.264	4.31
678.588	4.7
678.912	4.79
679.236	5.18
679.56	4.23
679.885	4.82
680.209	5.12
680.532	4.85
680.856	4.98
681.18	5.62
681.504	4.87
681.828	4.45
682.152	4.6
682.475	5.05
682.799	4.63
683.122	4.65
683.446	4.17
683.769	4.9
684.093	4.98
684.416	4.87
684.739	5.26
685.062	4.83
685.386	5.53
685.709	4.93
686.032	5.03
686.355	5.23
686.678	5.46
687.001	4.12
687.324	4.97
687.646	4.88
687.969	5.17
688.292	5.04
688.614	5.34
688.937	5.36
689.26	5.11
689.582	5.11
689.904	5.53
690.227	5.15
690.549	4.93
690.871	4.86
691.194	4.43
691.516	4.71
691.838	4.99
692.16	4.6
692.482	4.92
692.804	5.21
693.126	4.98
693.448	5.28
693.769	5.21
694.091	5.22
694.413	5.31
694.735	4.53
695.056	5.63
695.378	5.05
695.699	4.72
696.021	5.31
696.342	4.59
696.663	4.98
696.984	4.86
697.306	4.66
697.627	5.19
697.948	4.74
698.269	5.84
698.59	5.21
698.911	4.67
699.232	5.36
699.553	5.52
699.873	4.92
700.194	5.37
700.515	5.19
700.835	4.78
701.156	5.82
701.477	4.87
701.797	4.59
702.117	4.89
702.438	5.04
702.758	5.24
703.078	5.41
703.398	3.99
703.719	5.26
704.039	5.21
704.359	5
704.679	4.6
704.999	4.86
705.319	4.03
705.638	5
705.958	4.67
706.278	5.34
706.597	3.81
706.917	5.2
707.237	5.24
707.556	5.3
707.876	6.62
708.195	5.74
708.514	4.6
708.834	4.66
709.153	5.76
709.472	6.02
709.791	4.3
710.11	4.1
710.429	5.51
710.748	5.4
711.067	5.61
711.386	6.05
711.705	4.67
712.023	5.75
712.342	5.24
712.661	5.66
712.979	5.13
713.298	5.58
713.616	5.69
713.935	4.97
714.253	5.78
714.572	4.56
714.89	5.4
715.208	4.67
715.526	5.49
715.844	5.28
716.162	5.79
716.48	5.38
716.798	5.81
717.116	5.39
717.434	5.44
717.752	5.95
718.069	4.71
718.387	4.8
718.705	5.26
719.022	6.1
719.34	4.4
719.657	5.67
719.975	3.88
720.292	4.35
720.609	4.63
720.927	5.4
721.244	6.23
721.561	4.33
721.878	5.27
722.195	5.25
722.512	5.57
722.829	5.94
723.146	4.65
723.463	3.59
723.779	4.17
724.096	4.61
724.413	6.18
724.729	6.51
725.046	4.3
725.362	5.71
725.679	4.41
725.995	4.67
726.311	6.24
726.628	4.98
726.944	4.94
727.26	5.78
727.576	5.62
727.892	5.68
728.208	5.41
728.524	4.6
728.84	4.43
729.156	5.35
729.472	5.41
729.787	5.51
730.103	4.26
730.419	4.49
730.734	4.99
731.05	5.02
731.365	5.87
731.681	5.76
731.996	4.82
732.311	4.21
732.626	5.38
732.942	5.09
733.257	5.37
733.572	5.97
733.887	6.52
734.202	5.52
734.517	5.71
734.832	4.86
735.146	6.24
735.461	6.23
735.776	7.86
736.091	6.24
736.405	5.25
736.72	4.78
737.034	5.11
737.349	3.96
737.663	6.31
737.977	6.03
738.292	4.65
738.606	6.58
738.92	5.89
739.234	5.19
739.548	5.93
739.862	5.8
740.176	5.48
740.49	5.89
740.804	7.19
741.117	6.56
741.431	5.68
741.745	4.64
742.058	4.76
742.372	5.56
742.685	6.09
742.999	5.33
743.312	6.66
743.626	4.59
743.939	4.05
744.252	4.63
744.565	4.65
744.878	4.07
745.191	6.47
745.505	4.86
745.817	5.61
746.13	7.27
746.443	3.71
746.756	6.39
747.069	5.4
747.381	3.89
747.694	6.55
748.007	5.88
748.319	6.65
748.632	4.75
748.944	5.19
749.256	5.56
749.569	5.42
749.881	4.92
750.193	5.8
750.505	5.54
750.817	6.69
751.129	6.02
751.441	7.19
751.753	6.23
752.065	6.22
752.377	6.92
752.689	4.47
753	6.8
753.312	6.87
753.624	3.84
753.935	3.15
754.247	5.75
754.558	4.01
754.869	4.81
755.181	4.66
755.492	5.45
755.803	7.12
756.114	5.49
756.425	3.86
756.736	4.69
757.047	6.13
757.358	5.62
757.669	4.86
757.98	3.81
758.291	5.64
758.601	6.08
758.912	4.9
759.223	6.13
759.533	6.56
759.844	4.84
760.154	6.72
760.464	6.85
760.775	7.12
761.085	4.67
761.395	3.94
761.705	5.23
762.016	3.31
762.326	6.61
762.636	6.8
762.945	6.22
763.255	5.16
763.565	6.66
763.875	4.96
764.185	6.83
764.494	4.72
764.804	4.79
765.113	6.53
765.423	7.35
765.732	6.22
766.042	7.47
766.351	7.02
766.66	5.8
766.97	6.86
767.279	6.1
767.588	4.07
767.897	4.95
768.206	4.72
768.515	6.51
768.824	7.48
769.133	1.9
769.441	2.37
769.75	3.35
770.059	5.82
770.367	3.56
770.676	5.75
770.984	2.94
771.293	4.73
771.601	4.45
771.91	4.76
772.218	4.64
772.526	5.42
772.834	4.04
773.142	5.29
773.45	8.14
773.758	5.98
774.066	4.59
774.374	8.54
774.682	5.53
774.99	4.52
775.298	3.45
775.605	3.76
775.913	2.66
776.22	1.59
776.528	2.47
776.835	6.16
777.143	7.74
777.45	1.72
777.757	5.65
778.065	7.35
778.372	6.62
778.679	8.37
778.986	6.08
779.293	7.26
779.6	8.03
779.907	6.85
780.214	4.26
780.52	8.11
780.827	2.62
781.134	3.43
781.44	8.25
781.747	6.19
782.053	5.9
782.36	2.41
782.666	3.41
782.973	2.92
783.279	8.69
783.585	6.7
783.891	7.94
784.197	3.72
784.503	4.74
784.809	9.82
785.115	8.16
785.421	7.56
785.727	5.28
786.033	6.28
786.339	7.87
786.644	2.04
786.95	4.27
787.255	0.87
787.561	4.68
787.866	2.93
788.172	7.36
788.477	5.55
788.782	-0.05
789.088	1.1
789.393	4.46
789.698	2.55
790.003	7.57
790.308	6.3
790.613	8.55
790.918	4.43
791.223	3.25
791.527	7.8
791.832	5.25
792.137	7.59
792.441	3.11
792.746	9.35
793.05	4.9
793.355	5.93
793.659	5.49
793.963	4.97
794.268	4.77
794.572	1.16
794.876	2.17
795.18	7.41
795.484	9.43
795.788	9.08
796.092	2.89
796.396	3.64
796.7	6.4
797.004	3.16
797.307	2.89
797.611	7.76
797.915	2.75
798.218	4.84
798.522	6.41
798.825	9.51
799.128	9.26
799.432	0.89
799.735	4.34
800.038	6.72
800.341	6.74
800.644	5
800.947	9.9
801.25	8.08
801.553	8.48
801.856	8.06
802.159	1.19
802.462	4.14
802.764	9.72
803.067	4.1
803.37	5.13
803.672	-2.93
803.975	5.38
804.277	2.44
804.579	1.86
804.882	6.32
805.184	8.42
805.486	7.12
805.788	9.86
806.09	2.59
806.392	2.37
806.694	5.32
806.996	9.17
807.298	1.86
807.6	9.39
807.902	5.19
808.203	4.53
808.505	0.25
808.807	7.65
809.108	6.25
809.409	7.33
809.711	0.33
810.012	3.51
810.313	8.09
810.615	5.97
810.916	1.02
811.217	-0.25
811.518	1.24
811.819	4.97
812.12	4.93
812.421	1.29
812.722	-0.04
813.023	6.22
813.323	2.77
813.624	9.2
813.925	5.15
814.225	5.04
814.526	-3.61
814.826	-1.15
815.126	1.24
815.427	2
815.727	2.7
816.027	1.64
816.327	8.85
816.627	8.81
816.927	7.11
817.227	7.03
817.527	8.53
817.827	2.92
818.127	-1.2
818.427	2.19
818.727	2.42
819.026	2.23
819.326	-0.86
819.625	-0.92
819.925	11.74
820.224	7.39
820.524	0.79
820.823	5.15
821.122	2.39
821.421	1.28
821.72	2.71
822.019	-0.7
822.318	8.49
822.617	5.72
822.916	5.24
823.215	8.34
823.514	7.69
823.813	5.55
824.111	7.63
824.41	7.5
824.709	8.28
825.007	7.07
825.306	8.82
825.604	8.15
825.902	8.65
826.201	8.77
826.499	6.91
826.797	7.76
827.095	7.46
827.393	9.22
827.691	9.92
827.989	8.22
828.287	7.63
828.585	8.41
828.882	5.81
829.18	7.86
829.478	8.21
829.775	9.16
830.073	8.34
830.37	5.82
830.668	6.48
830.965	8.3
831.263	8.46
831.56	9.64
831.857	5.49
832.154	6.33
832.451	7.28
832.748	8.64
833.045	5.2
833.342	5.05
833.639	3.32
833.936	10.26
834.232	6.35
834.529	5.15
834.826	8.44
835.122	1.12
835.419	12.78
835.715	4.58
836.012	7.53
836.308	11.91
836.604	5.99
836.901	8.07
837.197	6.89
837.493	8.78
837.789	8.09
838.085	3.41
838.381	5.83
838.677	4.45
838.972	4.46
839.268	5.17
839.564	4.66
839.86	8.21
840.155	9.3
840.451	1.97
840.746	-2.76
841.042	-2.24
841.337	3.68
841.632	3.83
841.928	3.25
842.223	1.54
842.518	4.35
842.813	4.06
843.108	-0.51
843.403	3.66
843.698	-2.53
843.993	14.24
844.287	-0.53
844.582	5.35
844.877	10.13
845.171	-3.57
845.466	4.12
845.761	-6.36
846.055	9.2
846.349	1.76
846.644	-2.64
846.938	-1.37
847.232	-9.61
847.526	-3.84
847.82	-3.71
848.114	-9.96
848.408	-3.3
848.702	3.26
848.996	4.48
849.29	14.77
849.584	9.4
849.877	-8.09
850.171	9.39
850.465	-1.8
850.758	-33.14
851.052	-14.55
851.345	-2.47
851.638	-8.98
851.932	-18.75
852.225	-2.5
852.518	-5.01
852.811	-20.26
853.104	-10.97
853.397	16.63
853.69	2.98
853.983	-9.54
854.276	17.47
854.569	-6.13
854.861	-18.26
855.154	-1.09
855.447	-17.56
855.739	-50.06
856.032	15.54
856.324	-1.05
856.616	-24.4
856.909	14.29
857.201	-43.8
857.493	-30.48
857.785	-9.37
858.077	-25.8
858.369	7.22
858.661	-6.32
858.953	6.41
859.245	2.89
859.537	-29.96
859.829	-18.77
860.12	-5.34
860.412	-9.09
860.703	-7.26
860.995	18.17
861.286	-42.74
861.578	13.69
861.869	4.72
862.16	7.01
862.452	-26.34
862.743	-11.19
863.034	6.38
863.325	16.12
863.616	-8.79
863.907	11.94
864.198	-34.29
864.488	-31.07
864.779	-4.56
865.07	2.51
865.36	7.21
865.651	37.36
865.941	-16.53
866.232	10.88
866.522	-3.93
866.813	12.46
867.103	-20.9
867.393	-11.56
867.683	-20.8
867.973	-7.63
868.263	-17.69
868.553	-3.47
868.843	-18.06
869.133	-8.23
869.423	-6.88
869.713	-29.88
870.002	-16.16
870.292	-1.74
870.582	-28.05
870.871	0.43
871.161	-10.43
871.45	-16.2
871.739	26.67
872.029	-12.29
872.318	16.9
872.607	22.41
872.896	-10.97
873.185	2.32
873.474	-24.65
873.763	16.18
874.052	7.59
874.341	-5.79
874.63	-9.38
874.918	26.08
875.207	-28.42
875.496	-8.27
875.784	-27.13
876.073	-34.25
876.361	7.99
876.649	-12.22
876.938	-37.96
877.226	15.32
877.514	13.2
877.802	-42.62
878.09	-20.56
878.378	6.52
878.666	8.06
878.954	8.8
879.242	3.84
879.53	-4.9
879.817	-23.16
880.105	9.42
880.392	-5.38
880.68	-8.88
880.967	-34.26
881.255	6.48
881.542	-21.07
881.83	9.92
882.117	-14.7
882.404	-28.68
882.691	-8.32
882.978	12.3
883.265	2.68
883.552	5.48
883.839	8.93
884.126	6.82
884.413	2.58
884.699	5.86
884.986	4.02
885.273	8.99
885.559	8.99
885.846	8.99
