Data from 0003_chest_Reflection__3__259.txt Node

Date: Thu Dec 15 18:47:20 CST 2022
User: ToomeyLab
Spectrometer: FLMS14357
Trigger mode: 0
Integration Time (sec): 1.000000E-2
Scans to average: 100
Electric dark correction enabled: true
Nonlinearity correction enabled: false
Boxcar width: 0
XAxis mode: Wavelengths
Number of Pixels in Spectrum: 2048
>>>>>Begin Spectral Data<<<<<
189.047	28.99
189.435	28.99
189.823	28.99
190.211	-17.04
190.599	-4.78
190.987	354.66
191.375	121.69
191.763	263.46
192.151	134.9
192.538	57.66
192.926	204.37
193.314	110.29
193.702	27.44
194.089	-34.36
194.477	-183.72
194.864	80.01
195.252	-7.56
195.639	107.1
196.027	22.15
196.414	171.93
196.801	-58.97
197.189	197.08
197.576	-37.13
197.963	-201.5
198.351	-30.99
198.738	-50.34
199.125	-671.2
199.512	45.29
199.899	-72.36
200.286	-81.78
200.673	25.27
201.06	-21.62
201.447	45.76
201.833	-29.79
202.22	1.68
202.607	-14.41
202.994	16.9
203.38	40.33
203.767	44.56
204.154	17.49
204.54	13.74
204.927	1.58
205.313	22.87
205.699	21.01
206.086	31.36
206.472	24.64
206.858	-28.71
207.245	-34.63
207.631	-3.38
208.017	25.39
208.403	-56.08
208.789	13.27
209.175	-5.69
209.561	-55.15
209.947	-36.26
210.333	13.29
210.719	-13.1
211.105	36.22
211.491	27.45
211.876	-22.14
212.262	0.51
212.648	-2.52
213.034	-23.66
213.419	26.46
213.805	-45.56
214.19	2.62
214.576	11.64
214.961	76.92
215.346	-39.41
215.732	-7.36
216.117	31.29
216.502	-0.06
216.888	-6.21
217.273	2.06
217.658	-20.82
218.043	-15.1
218.428	2.43
218.813	-13.11
219.198	-30.99
219.583	13.28
219.968	-18.45
220.353	-49.08
220.738	16.61
221.122	-27.4
221.507	-16.23
221.892	-33.12
222.276	-33.84
222.661	-8.27
223.046	-13.2
223.43	10.34
223.815	4.87
224.199	-7.57
224.583	5.53
224.968	1.73
225.352	-9.91
225.736	5.67
226.121	-1.29
226.505	-4.82
226.889	-1.15
227.273	-2.45
227.657	2.25
228.041	2.6
228.425	0.35
228.809	-3.14
229.193	3.88
229.577	3.57
229.961	3.99
230.344	3.91
230.728	4.46
231.112	3.85
231.495	3.35
231.879	4.86
232.263	4.05
232.646	1.84
233.03	5.39
233.413	3.34
233.797	-0.25
234.18	3.88
234.563	4.26
234.946	2.79
235.33	2.27
235.713	4.38
236.096	2.71
236.479	4.28
236.862	1.53
237.245	2.64
237.628	4.72
238.011	4.29
238.394	2.55
238.777	2.69
239.16	4.57
239.543	4.88
239.925	2.65
240.308	2.9
240.691	4.08
241.073	4.24
241.456	2.96
241.838	2.32
242.221	3.58
242.603	3.38
242.986	3.25
243.368	3.62
243.75	3.52
244.133	4.16
244.515	3.9
244.897	3.04
245.279	3.52
245.661	3.94
246.043	2.83
246.425	3.64
246.807	3.12
247.189	3.28
247.571	3.38
247.953	3.26
248.335	3.46
248.717	3.65
249.098	3.62
249.48	3.4
249.862	3.12
250.243	3.64
250.625	3.37
251.006	4.32
251.388	3.19
251.769	3.26
252.151	4.33
252.532	3.61
252.913	2.81
253.295	2.87
253.676	2.91
254.057	3.52
254.438	3.21
254.819	2.36
255.2	4.02
255.581	3.63
255.962	3.82
256.343	3.16
256.724	2.58
257.105	3.43
257.486	1.93
257.867	3.27
258.247	2.69
258.628	3.19
259.009	2.69
259.389	2.06
259.77	2.47
260.15	3.86
260.531	3.4
260.911	3.13
261.292	3.3
261.672	3.15
262.052	3.25
262.432	3.03
262.813	3.09
263.193	3.37
263.573	3.53
263.953	2.71
264.333	3.23
264.713	3.11
265.093	2.89
265.473	1.62
265.853	3.46
266.233	3.14
266.612	1.82
266.992	3.29
267.372	3.22
267.752	2.86
268.131	2.9
268.511	2.86
268.89	3.51
269.27	2.45
269.649	3.05
270.029	2.55
270.408	3.26
270.787	2.69
271.167	3.34
271.546	3.45
271.925	2.91
272.304	3.5
272.683	2.69
273.062	3.13
273.441	2.56
273.82	3.38
274.199	2.99
274.578	2.86
274.957	3.03
275.336	3.25
275.715	2.84
276.093	2.28
276.472	2.97
276.851	2.99
277.229	2.97
277.608	2.46
277.986	3.08
278.365	2.99
278.743	3.18
279.122	2.59
279.5	3.05
279.878	1.94
280.257	2.97
280.635	2.7
281.013	2.29
281.391	2.5
281.769	3.53
282.147	2.59
282.525	2.65
282.903	3.02
283.281	3.06
283.659	2.82
284.037	3.17
284.415	2.89
284.792	3.09
285.17	2.67
285.548	3.16
285.925	2.57
286.303	3.24
286.68	2.7
287.058	2.99
287.435	2.9
287.813	2.93
288.19	2.39
288.567	2.82
288.945	2.57
289.322	2.63
289.699	3.07
290.076	2.62
290.453	2.65
290.83	2.88
291.207	2.35
291.584	2.9
291.961	2.4
292.338	2.77
292.715	2.6
293.092	3.14
293.469	2.92
293.845	2.81
294.222	3.43
294.599	2.38
294.975	2.11
295.352	2.58
295.728	2.77
296.105	2.88
296.481	2.69
296.858	2.98
297.234	2.38
297.61	3.03
297.986	3.29
298.363	2.88
298.739	3.06
299.115	2.96
299.491	3.16
299.867	2.55
300.243	2.67
300.619	2.53
300.995	2.8
301.371	3.1
301.746	2.99
302.122	2.09
302.498	2.59
302.874	2.7
303.249	2.79
303.625	2.58
304	3.16
304.376	3.24
304.751	2.77
305.127	3.11
305.502	2.82
305.878	2.86
306.253	2.4
306.628	2.73
307.003	2.75
307.378	2.59
307.754	2.53
308.129	2.48
308.504	2.74
308.879	2.72
309.254	2.65
309.629	2.67
310.003	2.47
310.378	2.68
310.753	3.32
311.128	2.52
311.502	2.7
311.877	2.72
312.252	2.9
312.626	3.16
313.001	2.94
313.375	3.05
313.75	2.77
314.124	2.62
314.498	2.88
314.873	2.54
315.247	3.05
315.621	2.65
315.995	2.57
316.369	2.23
316.743	2.39
317.117	2.55
317.491	3.22
317.865	2.31
318.239	3.2
318.613	2.18
318.987	2.22
319.361	2.69
319.734	2.62
320.108	2.6
320.482	2.87
320.855	2.45
321.229	2.37
321.602	3.18
321.976	2.11
322.349	3.34
322.723	2.32
323.096	2.37
323.469	2.6
323.843	2.23
324.216	2.78
324.589	2.57
324.962	2.5
325.335	2.71
325.708	2.49
326.081	2.41
326.454	2.87
326.827	2.48
327.2	2.39
327.573	3.32
327.945	2.69
328.318	2.77
328.691	2.45
329.063	2.08
329.436	2.5
329.809	3.15
330.181	3.5
330.553	2.8
330.926	2.69
331.298	2.72
331.671	2.76
332.043	2.86
332.415	2.62
332.787	2.78
333.159	2.47
333.532	2.8
333.904	2.93
334.276	2.5
334.648	2.78
335.02	2.52
335.391	2.68
335.763	2.95
336.135	2.83
336.507	2.63
336.879	2.59
337.25	2.52
337.622	2.9
337.993	2.77
338.365	3.08
338.736	2.64
339.108	3.11
339.479	2.43
339.851	3.09
340.222	2.62
340.593	2.82
340.964	3.25
341.336	2.73
341.707	2.6
342.078	2.25
342.449	2.43
342.82	3.11
343.191	2.75
343.562	2.94
343.933	2.28
344.303	3.02
344.674	2.63
345.045	2.82
345.416	3.24
345.786	3
346.157	3.06
346.527	2.47
346.898	2.33
347.268	2.99
347.639	2.76
348.009	3.04
348.38	2.69
348.75	3.08
349.12	2.73
349.49	2.49
349.861	2.99
350.231	2.6
350.601	3.15
350.971	2.63
351.341	3.27
351.711	2.98
352.081	2.33
352.45	2.43
352.82	2.3
353.19	2.58
353.56	2.88
353.929	3.09
354.299	3.07
354.669	3.19
355.038	3.15
355.408	2.47
355.777	3.16
356.147	2.91
356.516	2.26
356.885	2.71
357.254	2.77
357.624	2.52
357.993	2.54
358.362	2.74
358.731	3.17
359.1	2.81
359.469	2.92
359.838	3.04
360.207	2.68
360.576	2.94
360.945	3.05
361.314	2.63
361.682	2.65
362.051	2.9
362.42	2.78
362.788	2.91
363.157	2.52
363.525	3.05
363.894	2.91
364.262	2.98
364.631	3.17
364.999	2.7
365.367	2.96
365.735	2.93
366.104	2.97
366.472	2.68
366.84	2.81
367.208	2.86
367.576	2.78
367.944	3.18
368.312	2.93
368.68	2.99
369.048	2.95
369.416	2.55
369.783	2.91
370.151	3.13
370.519	3.21
370.886	2.91
371.254	3.14
371.621	3.13
371.989	3.14
372.356	2.86
372.724	2.95
373.091	2.78
373.458	2.84
373.826	2.86
374.193	2.99
374.56	3.02
374.927	2.77
375.294	2.99
375.661	2.94
376.028	3.05
376.395	3
376.762	2.59
377.129	2.86
377.496	2.98
377.863	3.2
378.229	3.01
378.596	3.15
378.963	3.15
379.329	2.92
379.696	2.99
380.062	3.08
380.429	2.64
380.795	2.9
381.161	2.78
381.528	2.79
381.894	2.86
382.26	3.02
382.626	2.94
382.993	3.27
383.359	2.98
383.725	2.98
384.091	2.98
384.457	2.79
384.823	2.89
385.188	3.04
385.554	3.01
385.92	2.89
386.286	2.9
386.651	2.79
387.017	3.11
387.383	2.95
387.748	3.23
388.114	3.11
388.479	2.96
388.845	2.68
389.21	3.11
389.575	3.37
389.94	3.45
390.306	3.08
390.671	2.92
391.036	2.88
391.401	3.06
391.766	3.04
392.131	3.3
392.496	3.13
392.861	2.94
393.226	2.8
393.591	2.96
393.956	3.16
394.32	3.07
394.685	3.02
395.05	2.99
395.414	3.07
395.779	3.28
396.143	2.99
396.508	3.02
396.872	3.14
397.236	3.55
397.601	3.23
397.965	2.98
398.329	2.97
398.694	2.93
399.058	2.97
399.422	2.98
399.786	3.02
400.15	2.99
400.514	3.1
400.878	3.26
401.242	3.18
401.605	2.85
401.969	2.81
402.333	3
402.697	3.18
403.06	3.01
403.424	3.07
403.787	3.1
404.151	3.16
404.514	3.28
404.878	3.02
405.241	3.03
405.604	2.89
405.968	3.26
406.331	3.24
406.694	3.17
407.057	2.85
407.42	3.15
407.783	3.02
408.146	3.03
408.509	3.33
408.872	3.13
409.235	2.91
409.598	3.12
409.961	3.28
410.323	3.12
410.686	3.1
411.049	3.06
411.411	3.13
411.774	3.16
412.136	3.06
412.499	3.18
412.861	2.84
413.223	3.09
413.586	3.1
413.948	3.19
414.31	3.1
414.672	2.95
415.035	3.21
415.397	2.96
415.759	2.87
416.121	3.31
416.483	3.17
416.845	3.17
417.206	2.91
417.568	3.05
417.93	3.1
418.292	3.07
418.653	2.86
419.015	3.11
419.377	3
419.738	3.2
420.1	3.18
420.461	2.98
420.822	3.13
421.184	3.16
421.545	3.15
421.906	3.1
422.267	2.98
422.629	3.04
422.99	3.04
423.351	3.15
423.712	3.04
424.073	3.18
424.434	3.17
424.795	3
425.155	2.93
425.516	3.04
425.877	3.09
426.238	3.1
426.598	3.12
426.959	3.21
427.32	3.08
427.68	3.09
428.041	3.24
428.401	3.06
428.761	3.17
429.122	3.18
429.482	3.17
429.842	3.17
430.202	3.27
430.563	3.1
430.923	3.17
431.283	3.2
431.643	3.29
432.003	3.18
432.363	3.29
432.722	3.31
433.082	3.13
433.442	3.28
433.802	3.13
434.161	3.06
434.521	3.25
434.881	3.17
435.24	3.19
435.6	3.13
435.959	3.17
436.319	3.28
436.678	3.28
437.037	3.28
437.396	3.27
437.756	3.24
438.115	3.14
438.474	3.15
438.833	3.05
439.192	3.15
439.551	3.18
439.91	3.17
440.269	3.1
440.628	3.1
440.987	3.27
441.345	3.21
441.704	3.09
442.063	3.12
442.421	3.14
442.78	3.23
443.138	3.27
443.497	3.15
443.855	3.26
444.214	3.08
444.572	3.34
444.93	3.16
445.288	3.21
445.647	3.14
446.005	3.19
446.363	3.2
446.721	3.22
447.079	3.17
447.437	3.09
447.795	3.22
448.153	3.18
448.51	3.17
448.868	3.13
449.226	3.2
449.584	3.13
449.941	3.22
450.299	3.2
450.656	3.07
451.014	3.22
451.371	3.34
451.729	3.08
452.086	3.18
452.443	3.25
452.801	3.2
453.158	3.39
453.515	3.21
453.872	3.21
454.229	3.06
454.586	3.06
454.943	3.25
455.3	3.26
455.657	3.27
456.014	3.18
456.371	3.33
456.727	3.25
457.084	3.4
457.441	3.29
457.797	3.41
458.154	3.17
458.51	3.26
458.867	3.13
459.223	3.09
459.58	3.21
459.936	3.18
460.292	3.21
460.648	3.15
461.005	3.16
461.361	3.17
461.717	3.2
462.073	3.4
462.429	3.27
462.785	3.42
463.141	3.19
463.496	3.42
463.852	3.35
464.208	3.24
464.564	3.1
464.919	3.29
465.275	3.36
465.631	3.41
465.986	3.4
466.342	3.14
466.697	3.25
467.052	3.38
467.408	3.41
467.763	3.28
468.118	3.08
468.473	3.28
468.829	3.24
469.184	3.33
469.539	3.22
469.894	3.31
470.249	3.38
470.603	3.36
470.958	3.37
471.313	3.41
471.668	3.37
472.023	3.29
472.377	3.3
472.732	3.3
473.086	3.22
473.441	3.35
473.795	3.52
474.15	3.33
474.504	3.11
474.859	3.07
475.213	3.38
475.567	3.35
475.921	3.31
476.275	3.48
476.63	3.43
476.984	3.15
477.338	3.41
477.692	3.21
478.045	3.29
478.399	3.44
478.753	3.29
479.107	3.37
479.461	3.25
479.814	3.33
480.168	3.38
480.521	3.46
480.875	3.34
481.228	3.18
481.582	3.23
481.935	3.43
482.289	3.35
482.642	3.38
482.995	3.43
483.348	3.28
483.701	3.43
484.055	3.25
484.408	3.29
484.761	3.23
485.114	3.08
485.466	3.1
485.819	3.13
486.172	3.17
486.525	3.18
486.878	3.26
487.23	3.27
487.583	3.24
487.936	3.2
488.288	3.23
488.641	3.21
488.993	3.16
489.345	3.21
489.698	3.23
490.05	3.21
490.402	3.22
490.754	3.24
491.107	3.22
491.459	3.39
491.811	3.29
492.163	3.3
492.515	3.27
492.866	3.23
493.218	3.23
493.57	3.34
493.922	3.29
494.274	3.43
494.625	3.42
494.977	3.38
495.328	3.38
495.68	3.45
496.031	3.42
496.383	3.31
496.734	3.44
497.086	3.5
497.437	3.5
497.788	3.51
498.139	3.43
498.49	3.43
498.842	3.49
499.193	3.44
499.544	3.48
499.894	3.43
500.245	3.46
500.596	3.41
500.947	3.39
501.298	3.47
501.648	3.43
501.999	3.43
502.35	3.27
502.7	3.62
503.051	3.31
503.401	3.54
503.752	3.32
504.102	3.3
504.452	3.46
504.803	3.36
505.153	3.53
505.503	3.46
505.853	3.53
506.203	3.52
506.553	3.35
506.903	3.51
507.253	3.34
507.603	3.44
507.953	3.38
508.303	3.53
508.652	3.36
509.002	3.58
509.352	3.43
509.701	3.44
510.051	3.63
510.4	3.58
510.75	3.48
511.099	3.5
511.449	3.52
511.798	3.44
512.147	3.45
512.496	3.48
512.846	3.52
513.195	3.53
513.544	3.62
513.893	3.58
514.242	3.55
514.591	3.53
514.939	3.53
515.288	3.56
515.637	3.49
515.986	3.52
516.334	3.6
516.683	3.59
517.032	3.56
517.38	3.46
517.729	3.49
518.077	3.59
518.426	3.58
518.774	3.59
519.122	3.59
519.47	3.49
519.819	3.6
520.167	3.56
520.515	3.54
520.863	3.55
521.211	3.56
521.559	3.55
521.907	3.62
522.255	3.58
522.602	3.64
522.95	3.6
523.298	3.71
523.645	3.7
523.993	3.64
524.341	3.65
524.688	3.66
525.036	3.62
525.383	3.7
525.73	3.6
526.078	3.72
526.425	3.61
526.772	3.6
527.119	3.65
527.466	3.72
527.814	3.59
528.161	3.62
528.508	3.64
528.854	3.66
529.201	3.62
529.548	3.58
529.895	3.55
530.242	3.51
530.588	3.51
530.935	3.55
531.282	3.56
531.628	3.63
531.975	3.58
532.321	3.67
532.667	3.68
533.014	3.68
533.36	3.71
533.706	3.74
534.052	3.7
534.399	3.76
534.745	3.64
535.091	3.61
535.437	3.63
535.783	3.72
536.129	3.69
536.474	3.78
536.82	3.79
537.166	3.66
537.512	3.83
537.857	3.75
538.203	3.75
538.549	3.67
538.894	3.75
539.239	3.88
539.585	3.9
539.93	3.83
540.276	3.87
540.621	3.95
540.966	3.99
541.311	3.87
541.656	3.77
542.001	3.77
542.346	3.71
542.691	3.73
543.036	3.72
543.381	3.77
543.726	3.88
544.071	3.78
544.415	3.86
544.76	3.82
545.105	3.84
545.449	3.94
545.794	3.86
546.138	3.89
546.483	4.14
546.827	3.89
547.171	3.96
547.516	3.95
547.86	3.99
548.204	3.99
548.548	3.99
548.892	4.01
549.236	3.94
549.58	3.96
549.924	4.16
550.268	4.12
550.612	4.06
550.956	4.13
551.3	4.11
551.643	4.22
551.987	4.17
552.33	4.35
552.674	4.16
553.017	4.25
553.361	4.28
553.704	4.3
554.048	4.22
554.391	4.27
554.734	4.08
555.077	4.24
555.42	4.23
555.764	4.22
556.107	4.41
556.45	4.35
556.793	4.33
557.135	4.1
557.478	4.15
557.821	4.32
558.164	4.26
558.507	4.27
558.849	4.45
559.192	4.26
559.534	4.23
559.877	4.29
560.219	4.32
560.562	4.32
560.904	4.58
561.246	4.36
561.589	4.66
561.931	4.38
562.273	4.44
562.615	4.43
562.957	4.37
563.299	4.37
563.641	4.5
563.983	4.43
564.325	4.48
564.667	4.56
565.008	4.42
565.35	4.56
565.692	4.54
566.033	4.33
566.375	4.6
566.716	4.49
567.058	4.68
567.399	4.63
567.741	4.6
568.082	4.47
568.423	4.49
568.764	4.66
569.105	4.66
569.447	4.64
569.788	4.72
570.129	4.59
570.47	4.62
570.811	4.76
571.151	4.73
571.492	4.64
571.833	4.67
572.174	4.81
572.514	4.9
572.855	4.87
573.195	4.66
573.536	4.83
573.876	4.82
574.217	4.77
574.557	4.86
574.898	4.77
575.238	4.89
575.578	4.9
575.918	4.82
576.258	5.07
576.598	4.81
576.938	4.83
577.278	5.03
577.618	4.91
577.958	5.16
578.298	5
578.638	4.99
578.977	5.09
579.317	5.06
579.657	5.08
579.996	5.08
580.336	5.09
580.675	5.09
581.014	5.15
581.354	5.01
581.693	5.32
582.032	5.35
582.372	5.39
582.711	5.28
583.05	5.15
583.389	5.32
583.728	5.31
584.067	5.15
584.406	5.25
584.745	5.11
585.083	5.36
585.422	5.26
585.761	5.48
586.1	5.33
586.438	5.29
586.777	5.4
587.115	5.62
587.454	5.26
587.792	5.42
588.13	5.3
588.469	5.42
588.807	5.66
589.145	5.39
589.483	5.3
589.821	5.64
590.159	5.71
590.497	5.61
590.835	5.66
591.173	5.83
591.511	5.76
591.849	5.7
592.187	5.56
592.524	5.66
592.862	5.63
593.2	5.88
593.537	5.73
593.875	5.61
594.212	5.94
594.55	5.8
594.887	5.79
595.224	5.71
595.561	5.78
595.899	5.91
596.236	5.72
596.573	5.67
596.91	5.66
597.247	6.03
597.584	5.8
597.921	5.87
598.258	5.87
598.594	5.7
598.931	5.81
599.268	5.85
599.604	6.06
599.941	5.91
600.277	6.06
600.614	6.09
600.95	5.82
601.287	5.77
601.623	5.98
601.959	6.39
602.296	6.13
602.632	6.24
602.968	6.03
603.304	6.18
603.64	6.04
603.976	6.13
604.312	6.13
604.648	6.21
604.984	6.28
605.319	6.31
605.655	6.35
605.991	6.04
606.326	6.19
606.662	6.02
606.998	6.38
607.333	6.25
607.668	6.19
608.004	6.32
608.339	6.29
608.674	6.42
609.01	6.55
609.345	6.6
609.68	6.43
610.015	6.65
610.35	6.64
610.685	6.31
611.02	6.49
611.355	6.48
611.689	6.51
612.024	6.49
612.359	6.63
612.694	6.7
613.028	6.51
613.363	6.72
613.697	6.75
614.032	6.62
614.366	6.58
614.7	6.77
615.035	6.56
615.369	6.92
615.703	7.02
616.037	6.74
616.371	6.71
616.705	7.05
617.039	6.67
617.373	7.07
617.707	6.94
618.041	6.42
618.375	6.45
618.709	6.96
619.042	7
619.376	7.01
619.71	7.21
620.043	7.19
620.377	7.04
620.71	7.3
621.043	7.2
621.377	7.41
621.71	7.36
622.043	7.44
622.376	7.46
622.709	7.64
623.043	7.31
623.376	7.01
623.709	7.54
624.041	7.47
624.374	7.64
624.707	7.24
625.04	7.16
625.373	7.62
625.705	7.6
626.038	7.55
626.37	7.63
626.703	7.56
627.035	7.57
627.368	7.82
627.7	7.55
628.032	7.56
628.365	7.77
628.697	7.92
629.029	7.52
629.361	7.97
629.693	7.74
630.025	7.97
630.357	7.96
630.689	8.04
631.021	7.74
631.353	7.73
631.684	7.7
632.016	7.71
632.348	7.61
632.679	8.03
633.011	7.9
633.342	8.04
633.674	7.79
634.005	8.17
634.336	8.39
634.668	8.2
634.999	7.83
635.33	8.03
635.661	8.02
635.992	8.26
636.323	8.3
636.654	8.03
636.985	8.12
637.316	8.11
637.647	8.36
637.977	8.03
638.308	8.58
638.639	8.27
638.969	8.55
639.3	8.33
639.63	8.6
639.961	8.59
640.291	8.19
640.622	8.36
640.952	8.59
641.282	8.48
641.612	8.42
641.943	8.2
642.273	8.35
642.603	8.53
642.933	9.04
643.263	8.62
643.592	8.77
643.922	9.02
644.252	8.99
644.582	8.91
644.911	8.59
645.241	8.71
645.571	8.64
645.9	8.88
646.23	9.12
646.559	9.15
646.888	9.05
647.218	8.78
647.547	9.04
647.876	8.95
648.205	8.86
648.534	9.15
648.863	8.34
649.192	9.13
649.521	9.15
649.85	8.97
650.179	9.18
650.508	8.95
650.837	9.66
651.165	9.47
651.494	9.76
651.822	9.44
652.151	9.12
652.479	9.32
652.808	9.27
653.136	9.18
653.465	9.22
653.793	9.21
654.121	9.68
654.449	9.37
654.777	9.46
655.105	8.51
655.433	9.54
655.761	9.41
656.089	9.9
656.417	9.73
656.745	9.9
657.073	9.37
657.4	9.21
657.728	9.3
658.056	9.52
658.383	9.44
658.711	9.43
659.038	10.27
659.365	10.1
659.693	9.75
660.02	9.76
660.347	9.97
660.674	9.74
661.001	9.91
661.329	9.8
661.656	9.41
661.982	9.77
662.309	9.7
662.636	9.86
662.963	9.58
663.29	9.91
663.616	9.46
663.943	10
664.27	10.18
664.596	9.9
664.923	10.22
665.249	10.17
665.576	10.31
665.902	10.18
666.228	10.48
666.554	10.72
666.881	9.92
667.207	10.89
667.533	10.07
667.859	10.6
668.185	10.39
668.511	10.83
668.837	10.51
669.162	10.09
669.488	10.3
669.814	10.33
670.139	9.91
670.465	10.31
670.791	10.22
671.116	10.08
671.442	9.96
671.767	10.61
672.092	10.56
672.418	10.86
672.743	10.79
673.068	10.07
673.393	10.41
673.718	10.52
674.043	10.48
674.368	10.72
674.693	10.85
675.018	11.01
675.343	10.65
675.667	10.98
675.992	11.32
676.317	9.69
676.641	10.98
676.966	10.86
677.29	10.58
677.615	10.61
677.939	11.19
678.264	11.32
678.588	11.24
678.912	11.42
679.236	10.8
679.56	11.28
679.885	10.8
680.209	11.18
680.532	11.93
680.856	11.48
681.18	11.76
681.504	11.44
681.828	11.03
682.152	11.08
682.475	10.94
682.799	11.31
683.122	11.5
683.446	11.19
683.769	11.69
684.093	11.74
684.416	10.91
684.739	11.15
685.062	10.75
685.386	12.33
685.709	11.47
686.032	11.07
686.355	11.7
686.678	12.24
687.001	11.36
687.324	11.56
687.646	11.66
687.969	11.83
688.292	12.06
688.614	11.82
688.937	12.01
689.26	12.16
689.582	12.68
689.904	11.89
690.227	11.65
690.549	11.55
690.871	11.89
691.194	11.93
691.516	11.76
691.838	12.33
692.16	11.78
692.482	12.08
692.804	11.77
693.126	11.24
693.448	12.6
693.769	11.87
694.091	11.72
694.413	11.7
694.735	11.83
695.056	12.5
695.378	11.97
695.699	12.09
696.021	12.33
696.342	11.88
696.663	12.88
696.984	11.99
697.306	12.29
697.627	13.26
697.948	11.71
698.269	13.09
698.59	12.66
698.911	12.84
699.232	13.42
699.553	12.87
699.873	12.26
700.194	12.17
700.515	12.29
700.835	12.83
701.156	12.78
701.477	12.59
701.797	12.87
702.117	12.3
702.438	13.22
702.758	12.58
703.078	12.75
703.398	12.75
703.719	13.39
704.039	13.46
704.359	12.55
704.679	13.15
704.999	12.99
705.319	12.47
705.638	12.71
705.958	12.88
706.278	13.79
706.597	13.44
706.917	13.52
707.237	13.79
707.556	13.06
707.876	13.28
708.195	13.16
708.514	12.9
708.834	13.32
709.153	13.53
709.472	14.28
709.791	12.69
710.11	13.56
710.429	13.9
710.748	14.38
711.067	14.39
711.386	13.49
711.705	14.22
712.023	14.14
712.342	13.95
712.661	14.34
712.979	14.02
713.298	14.23
713.616	13.88
713.935	13.78
714.253	13.6
714.572	13.44
714.89	14.18
715.208	13.51
715.526	13.79
715.844	14.37
716.162	14.16
716.48	13.92
716.798	14.45
717.116	13.9
717.434	14.23
717.752	14.14
718.069	14.1
718.387	13.85
718.705	13.68
719.022	14.4
719.34	13.46
719.657	14.58
719.975	13.73
720.292	13.27
720.609	13.58
720.927	13.82
721.244	14.81
721.561	13.81
721.878	15.84
722.195	15.06
722.512	14.68
722.829	13.68
723.146	14.35
723.463	14.9
723.779	12.09
724.096	13.91
724.413	14.67
724.729	15.07
725.046	15.09
725.362	14.76
725.679	15.28
725.995	12.71
726.311	15.16
726.628	15.12
726.944	16.09
727.26	15.35
727.576	16.24
727.892	15.05
728.208	14.69
728.524	13.48
728.84	14.58
729.156	15
729.472	13.73
729.787	14.7
730.103	14.61
730.419	15.03
730.734	14.29
731.05	15.21
731.365	15.23
731.681	14.56
731.996	15.26
732.311	14.09
732.626	15.91
732.942	16.52
733.257	14.86
733.572	15.7
733.887	16.31
734.202	15.07
734.517	14.63
734.832	14.5
735.146	16.45
735.461	15.57
735.776	17.54
736.091	16.21
736.405	16.14
736.72	14.08
737.034	15.38
737.349	15.38
737.663	16.53
737.977	18.59
738.292	14.18
738.606	17.5
738.92	17.34
739.234	15.69
739.548	16.57
739.862	17.73
740.176	15.37
740.49	15.99
740.804	15.45
741.117	15.39
741.431	14.15
741.745	14.38
742.058	15.7
742.372	14.92
742.685	16.05
742.999	15.28
743.312	14.93
743.626	16.53
743.939	16.04
744.252	16.58
744.565	15.88
744.878	16.34
745.191	15.95
745.505	15.95
745.817	16.22
746.13	17.62
746.443	16
746.756	17.51
747.069	16.98
747.381	16.08
747.694	18.23
748.007	16.24
748.319	16.33
748.632	16.83
748.944	16.04
749.256	17.71
749.569	15.32
749.881	17.02
750.193	17.42
750.505	15.83
750.817	17.45
751.129	16.72
751.441	18.09
751.753	18.16
752.065	18.13
752.377	18.11
752.689	14.74
753	18
753.312	17.76
753.624	17.94
753.935	15.88
754.247	16.95
754.558	15.67
754.869	17.47
755.181	17.03
755.492	15.99
755.803	18.62
756.114	16.29
756.425	15.36
756.736	17.32
757.047	17.63
757.358	17.14
757.669	18.7
757.98	14.6
758.291	18.34
758.601	17.75
758.912	15.94
759.223	17.43
759.533	18.45
759.844	16.73
760.154	17.45
760.464	18.12
760.775	18.52
761.085	19.39
761.395	16.32
761.705	16.71
762.016	16.86
762.326	19.25
762.636	18
762.945	15.26
763.255	16.66
763.565	19.15
763.875	17.13
764.185	17.74
764.494	17.71
764.804	17.1
765.113	18.64
765.423	18.45
765.732	17.99
766.042	18.69
766.351	19.18
766.66	17.74
766.97	18.52
767.279	17.05
767.588	17.11
767.897	16.04
768.206	17.79
768.515	17.73
768.824	18.45
769.133	17.04
769.441	16.15
769.75	15.99
770.059	18.71
770.367	18.69
770.676	17.8
770.984	18.69
771.293	17.25
771.601	16.36
771.91	18.02
772.218	16.34
772.526	15.04
772.834	17.3
773.142	17.37
773.45	19.66
773.758	21.26
774.066	16.99
774.374	21.5
774.682	20.59
774.99	16.05
775.298	18.06
775.605	18.93
775.913	17.11
776.22	17.28
776.528	20.36
776.835	19.93
777.143	19.45
777.45	16.36
777.757	18.88
778.065	18.15
778.372	18.4
778.679	20.04
778.986	22.97
779.293	18.16
779.6	20.75
779.907	21.28
780.214	19.06
780.52	19.29
780.827	17.76
781.134	21.2
781.44	17
781.747	18.13
782.053	17.31
782.36	17.97
782.666	18.58
782.973	16.24
783.279	19.88
783.585	19.09
783.891	18.63
784.197	19.16
784.503	21.2
784.809	22.87
785.115	18.33
785.421	21.03
785.727	24.27
786.033	17.14
786.339	16.89
786.644	14.6
786.95	19.13
787.255	13.63
787.561	18.07
787.866	18.74
788.172	19.88
788.477	20
788.782	17.11
789.088	17.37
789.393	20.28
789.698	19.43
790.003	20.35
790.308	18.87
790.613	18.93
790.918	21.28
791.223	19.29
791.527	22.19
791.832	20.58
792.137	18.4
792.441	18.23
792.746	18.86
793.05	19.9
793.355	19.67
793.659	21.19
793.963	18.5
794.268	20.73
794.572	17.4
794.876	18.95
795.18	22.73
795.484	19.27
795.788	24.26
796.092	21.65
796.396	14.34
796.7	19.11
797.004	17.53
797.307	16.44
797.611	24.4
797.915	17.08
798.218	20.62
798.522	18.98
798.825	22.1
799.128	21.16
799.432	21.6
799.735	20.04
800.038	22.73
800.341	21.84
800.644	18.35
800.947	19.76
801.25	18.57
801.553	23.19
801.856	18.99
802.159	17.46
802.462	21.25
802.764	21.13
803.067	22.94
803.37	21.59
803.672	18.17
803.975	14.71
804.277	23.24
804.579	23.13
804.882	20.3
805.184	22.3
805.486	23.63
805.788	26.02
806.09	15.11
806.392	16.91
806.694	17.41
806.996	27
807.298	19.68
807.6	21.93
807.902	19
808.203	21.79
808.505	18.18
808.807	26.94
809.108	21.28
809.409	21.76
809.711	20.55
810.012	20.61
810.313	21.83
810.615	20.01
810.916	22.21
811.217	21.13
811.518	13.89
811.819	19.79
812.12	20.85
812.421	16.88
812.722	22.53
813.023	26.13
813.323	20.73
813.624	20.96
813.925	22.59
814.225	23.97
814.526	14.53
814.826	17.76
815.126	23.86
815.427	18.85
815.727	17.22
816.027	29.18
816.327	20.95
816.627	22.52
816.927	17.88
817.227	21.52
817.527	21.79
817.827	17.57
818.127	21.3
818.427	19.47
818.727	11.05
819.026	17.45
819.326	15.67
819.625	23.3
819.925	17.59
820.224	23.44
820.524	24.37
820.823	22.16
821.122	18.23
821.421	19.53
821.72	19.3
822.019	19.99
822.318	21.76
822.617	28.6
822.916	20.44
823.215	25.46
823.514	25.39
823.813	19.64
824.111	23.74
824.41	25.49
824.709	24.65
825.007	23.89
825.306	24.85
825.604	24.67
825.902	25.35
826.201	24.71
826.499	24.53
826.797	22.56
827.095	25.15
827.393	26.36
827.691	25.21
827.989	24.92
828.287	24.14
828.585	22.82
828.882	21.83
829.18	22.16
829.478	26.03
829.775	24.64
830.073	25.39
830.37	24.39
830.668	23.62
830.965	23.28
831.263	24.72
831.56	25.41
831.857	26.24
832.154	22.7
832.451	26.56
832.748	22.82
833.045	22
833.342	24.8
833.639	20.87
833.936	20.78
834.232	21.66
834.529	21.15
834.826	27.32
835.122	25.64
835.419	24.63
835.715	21.4
836.012	22.15
836.308	24.66
836.604	25.19
836.901	21.14
837.197	25.09
837.493	24.84
837.789	24.59
838.085	23.13
838.381	23.95
838.677	28
838.972	24.2
839.268	24.49
839.564	19.63
839.86	24.06
840.155	27.71
840.451	22.34
840.746	21.65
841.042	28.43
841.337	26.74
841.632	18.03
841.928	24.81
842.223	22.85
842.518	19.76
842.813	19.64
843.108	24.56
843.403	21.44
843.698	23.07
843.993	25.52
844.287	27.08
844.582	24.89
844.877	17.24
845.171	32.22
845.466	9.65
845.761	17.02
846.055	28.98
846.349	27.74
846.644	18.24
846.938	13.05
847.232	20.89
847.526	17.59
847.82	30.33
848.114	19.32
848.408	33.61
848.702	23.42
848.996	23.26
849.29	27.98
849.584	18.33
849.877	9.96
850.171	13.15
850.465	4.74
850.758	17.71
851.052	13.54
851.345	10.22
851.638	18.47
851.932	15.93
852.225	23.71
852.518	19.9
852.811	31.1
853.104	23.28
853.397	20.56
853.69	29.09
853.983	20.05
854.276	41.45
854.569	20.82
854.861	3.79
855.154	34.51
855.447	-2.81
855.739	-25.91
856.032	21.68
856.324	22.9
856.616	21.8
856.909	16.11
857.201	-2.78
857.493	-0.33
857.785	8.94
858.077	15.56
858.369	35.73
858.661	39.94
858.953	36.63
859.245	22.28
859.537	-1.48
859.829	9.12
860.12	17.62
860.412	12.33
860.703	10.03
860.995	20.25
861.286	11.16
861.578	14.76
861.869	19.23
862.16	28.69
862.452	18.05
862.743	27.19
863.034	30.19
863.325	13.58
863.616	31.4
863.907	14.65
864.198	-53.82
864.488	17.1
864.779	18.72
865.07	26.78
865.36	20.02
865.651	52.76
865.941	2.46
866.232	27.52
866.522	35.43
866.813	47.46
867.103	-10.38
867.393	34
867.683	23.92
867.973	17.66
868.263	1.88
868.553	14.2
868.843	11.6
869.133	12.47
869.423	6.41
869.713	17.82
870.002	29.18
870.292	7.67
870.582	8.22
870.871	26.77
871.161	7.13
871.45	-17.18
871.739	26.96
872.029	3.17
872.318	13.84
872.607	21.91
872.896	22.07
873.185	28.23
873.474	7.71
873.763	40.58
874.052	11.63
874.341	3.5
874.63	16.73
874.918	45.31
875.207	13.22
875.496	28.07
875.784	0.28
876.073	1.54
876.361	33.75
876.649	5.93
876.938	-0.26
877.226	61.39
877.514	35.37
877.802	15.77
878.09	37.47
878.378	14.72
878.666	51.65
878.954	42.09
879.242	21.58
879.53	20.85
879.817	-0.89
880.105	14.77
880.392	32.64
880.68	26.84
880.967	-4.56
881.255	24.97
881.542	-3.67
881.83	26.73
882.117	18.92
882.404	14.52
882.691	16.62
882.978	30.45
883.265	25.69
883.552	12.66
883.839	32.28
884.126	34.67
884.413	28.44
884.699	29.24
884.986	27.97
885.273	33.75
885.559	33.75
885.846	33.75
