Data from 815658_forehead_Reflection__1__89.txt Node

Date: Fri Sep 16 15:20:03 CDT 2022
User: ToomeyLab
Spectrometer: FLMS14357
Trigger mode: 0
Integration Time (sec): 1.000000E-2
Scans to average: 100
Electric dark correction enabled: true
Nonlinearity correction enabled: false
Boxcar width: 0
XAxis mode: Wavelengths
Number of Pixels in Spectrum: 2048
>>>>>Begin Spectral Data<<<<<
189.047	65.63
189.435	65.63
189.823	65.63
190.211	33.95
190.599	-279.02
190.987	81.42
191.375	43.87
191.763	96.11
192.151	96.29
192.538	23.8
192.926	-24.21
193.314	16.66
193.702	39.39
194.089	63.4
194.477	181.64
194.864	511.05
195.252	10.72
195.639	1090.38
196.027	118.33
196.414	210.08
196.801	30.32
197.189	99.28
197.576	-281.1
197.963	-53.43
198.351	-4.95
198.738	11.53
199.125	54.98
199.512	-121.47
199.899	36.55
200.286	4.82
200.673	45.15
201.06	42.32
201.447	90.28
201.833	12.35
202.22	21.21
202.607	31.57
202.994	27.91
203.38	36.82
203.767	14.44
204.154	26.78
204.54	27.49
204.927	31.74
205.313	23.75
205.699	39.05
206.086	30.17
206.472	33.38
206.858	22.19
207.245	8.68
207.631	24.42
208.017	48.08
208.403	-5.78
208.789	29.44
209.175	32.25
209.561	13.63
209.947	10.13
210.333	30.32
210.719	37.09
211.105	29.51
211.491	23.1
211.876	19.98
212.262	11.22
212.648	48.34
213.034	0.77
213.419	4.98
213.805	27.56
214.19	72.57
214.576	4.27
214.961	32.7
215.346	-6.25
215.732	-37.77
216.117	19.6
216.502	56.59
216.888	-20.28
217.273	16.61
217.658	2.7
218.043	-41.54
218.428	9.97
218.813	25.93
219.198	3.54
219.583	28.4
219.968	23.46
220.353	3.78
220.738	-0.97
221.122	-12.92
221.507	18.81
221.892	21.75
222.276	15.5
222.661	7.66
223.046	13.38
223.43	20.12
223.815	-3.17
224.199	13.75
224.583	11.23
224.968	17.98
225.352	1.88
225.736	10.39
226.121	14.42
226.505	15.42
226.889	9.01
227.273	10.47
227.657	10.12
228.041	7.35
228.425	4.07
228.809	9.82
229.193	6.47
229.577	5.16
229.961	7.05
230.344	6.98
230.728	6.57
231.112	5.92
231.495	6.11
231.879	6.43
232.263	5.96
232.646	5.74
233.03	7.51
233.413	7.02
233.797	7.08
234.18	6.77
234.563	8.39
234.946	6.58
235.33	6.66
235.713	5.85
236.096	5.62
236.479	7.16
236.862	6.72
237.245	5.88
237.628	8.29
238.011	6.03
238.394	8.6
238.777	7.97
239.16	6.92
239.543	8.46
239.925	6.58
240.308	7.22
240.691	8.31
241.073	5.34
241.456	6.05
241.838	5.92
242.221	6.1
242.603	6.72
242.986	5.74
243.368	6.34
243.75	5.7
244.133	6.28
244.515	5.8
244.897	5.94
245.279	5.69
245.661	5.92
246.043	5.63
246.425	5.73
246.807	6.57
247.189	6.45
247.571	5.77
247.953	6.1
248.335	6.15
248.717	5.88
249.098	5.82
249.48	5.65
249.862	5.82
250.243	6.04
250.625	5.95
251.006	5.79
251.388	6.5
251.769	5.05
252.151	5.31
252.532	4.45
252.913	5.7
253.295	6.47
253.676	6.68
254.057	5.54
254.438	5.2
254.819	4.22
255.2	5.93
255.581	6.69
255.962	5.43
256.343	6.01
256.724	5.43
257.105	5.09
257.486	6.9
257.867	5.04
258.247	6.18
258.628	7.33
259.009	6.69
259.389	6.27
259.77	4.99
260.15	5.65
260.531	6.18
260.911	5.46
261.292	5.63
261.672	5.74
262.052	5.23
262.432	5.53
262.813	5.94
263.193	5.68
263.573	5.64
263.953	5.68
264.333	5.62
264.713	5.4
265.093	5.58
265.473	5.25
265.853	6.49
266.233	6.24
266.612	6.72
266.992	5.07
267.372	5.84
267.752	5.62
268.131	6.04
268.511	6.06
268.89	6.19
269.27	5.59
269.649	5.65
270.029	5.78
270.408	6.08
270.787	5.33
271.167	5.34
271.546	5.8
271.925	6.35
272.304	5.96
272.683	5.75
273.062	5.67
273.441	5.68
273.82	5.34
274.199	5.7
274.578	5.59
274.957	6.08
275.336	6.01
275.715	6.23
276.093	5.67
276.472	5.57
276.851	5.47
277.229	5.75
277.608	6.23
277.986	5.73
278.365	5.04
278.743	5.53
279.122	5.93
279.5	5.28
279.878	5.63
280.257	5.99
280.635	5.95
281.013	5.62
281.391	5.65
281.769	6.08
282.147	5.76
282.525	5.3
282.903	5.54
283.281	5.8
283.659	5.98
284.037	5.93
284.415	5.92
284.792	5.93
285.17	6.14
285.548	5.42
285.925	5.32
286.303	6.08
286.68	5.93
287.058	5.72
287.435	5.65
287.813	6.14
288.19	5.32
288.567	5.51
288.945	5.63
289.322	5.95
289.699	5.7
290.076	5.67
290.453	6.07
290.83	5.93
291.207	5.8
291.584	5.27
291.961	5.77
292.338	6.04
292.715	5.61
293.092	5.64
293.469	6.1
293.845	5.3
294.222	5.84
294.599	6.05
294.975	6
295.352	6.56
295.728	5.54
296.105	6.36
296.481	5.58
296.858	6.07
297.234	6.19
297.61	6.22
297.986	6.03
298.363	5.89
298.739	5.67
299.115	6.37
299.491	6.23
299.867	6.01
300.243	6.27
300.619	6.13
300.995	5.81
301.371	6.56
301.746	6.45
302.122	6.58
302.498	6.14
302.874	6.78
303.249	6.72
303.625	6.66
304	6.22
304.376	6.34
304.751	6.33
305.127	6.31
305.502	6.36
305.878	6.23
306.253	6.8
306.628	6.26
307.003	6.52
307.378	6.71
307.754	6.68
308.129	7.03
308.504	6.63
308.879	7.24
309.254	6.74
309.629	6.61
310.003	6.77
310.378	6.32
310.753	6.67
311.128	7.05
311.502	6.64
311.877	7.04
312.252	6.91
312.626	7.27
313.001	7.22
313.375	7.12
313.75	7.05
314.124	6.83
314.498	7.3
314.873	7.64
315.247	7.11
315.621	7.24
315.995	7.28
316.369	7.33
316.743	7.52
317.117	6.89
317.491	7.07
317.865	7.91
318.239	7.34
318.613	7.18
318.987	6.88
319.361	6.94
319.734	7.69
320.108	7.63
320.482	7.69
320.855	7.14
321.229	7.66
321.602	8.2
321.976	8
322.349	7.87
322.723	7.54
323.096	7.76
323.469	8.13
323.843	8.38
324.216	8.24
324.589	7.69
324.962	8.31
325.335	7.89
325.708	8.32
326.081	8.13
326.454	7.94
326.827	8.3
327.2	8.33
327.573	7.84
327.945	8.28
328.318	8.59
328.691	8.34
329.063	8.39
329.436	8.38
329.809	8.1
330.181	8.77
330.553	8.9
330.926	8.79
331.298	8.77
331.671	8.76
332.043	8.8
332.415	8.52
332.787	8.54
333.159	8.66
333.532	8.94
333.904	8.9
334.276	8.56
334.648	8.65
335.02	8.91
335.391	9
335.763	8.75
336.135	8.71
336.507	9.06
336.879	9.45
337.25	8.63
337.622	9.74
337.993	9.58
338.365	8.99
338.736	9.94
339.108	9.26
339.479	10
339.851	9.48
340.222	9.1
340.593	9.35
340.964	9.77
341.336	9.52
341.707	9.37
342.078	10.12
342.449	9.88
342.82	9.79
343.191	9.6
343.562	9.88
343.933	9.84
344.303	10.38
344.674	9.55
345.045	10.23
345.416	9.64
345.786	10.62
346.157	10.25
346.527	10.08
346.898	9.97
347.268	10.45
347.639	10.03
348.009	10.46
348.38	10.87
348.75	10.12
349.12	10.24
349.49	10.39
349.861	10.44
350.231	10.73
350.601	10.88
350.971	10.94
351.341	10.76
351.711	10.61
352.081	10.3
352.45	11.15
352.82	11.08
353.19	10.58
353.56	10.89
353.929	11.52
354.299	11.18
354.669	11.08
355.038	11.02
355.408	11.2
355.777	11.3
356.147	11.17
356.516	11.09
356.885	11.48
357.254	11.41
357.624	11.41
357.993	11.39
358.362	11.27
358.731	11.85
359.1	11.62
359.469	11.52
359.838	11.53
360.207	11.66
360.576	11.55
360.945	11.64
361.314	11.65
361.682	11.57
362.051	12.01
362.42	12.1
362.788	12.01
363.157	11.81
363.525	11.93
363.894	12.27
364.262	12.29
364.631	12.22
364.999	12.08
365.367	12.4
365.735	12.65
366.104	12.52
366.472	12.56
366.84	12.62
367.208	12.9
367.576	12.77
367.944	12.9
368.312	12.73
368.68	12.68
369.048	12.9
369.416	13.05
369.783	12.98
370.151	13.09
370.519	12.81
370.886	12.72
371.254	13.27
371.621	13.37
371.989	13.3
372.356	13.46
372.724	13.46
373.091	13.12
373.458	13.27
373.826	13.37
374.193	13.55
374.56	13.15
374.927	13.75
375.294	13.45
375.661	13.38
376.028	13.68
376.395	13.42
376.762	14.06
377.129	13.45
377.496	13.91
377.863	13.77
378.229	14.13
378.596	13.86
378.963	14.09
379.329	14
379.696	14.27
380.062	14
380.429	14.17
380.795	14.35
381.161	14.6
381.528	14.51
381.894	14.41
382.26	14.75
382.626	14.3
382.993	14.38
383.359	14.58
383.725	14.64
384.091	14.66
384.457	14.53
384.823	14.63
385.188	14.84
385.554	14.8
385.92	14.65
386.286	15.01
386.651	14.74
387.017	15.15
387.383	14.68
387.748	14.79
388.114	14.79
388.479	15.28
388.845	15.39
389.21	15.91
389.575	15.43
389.94	15.43
390.306	15.66
390.671	15.44
391.036	15.44
391.401	15.78
391.766	15.66
392.131	15.78
392.496	15.63
392.861	15.91
393.226	15.96
393.591	16.02
393.956	16.07
394.32	16.36
394.685	16.03
395.05	16.22
395.414	16.01
395.779	16.41
396.143	16.47
396.508	16.3
396.872	16.55
397.236	16.36
397.601	16.19
397.965	16.36
398.329	16.41
398.694	16.55
399.058	16.78
399.422	16.57
399.786	16.92
400.15	16.85
400.514	16.77
400.878	16.97
401.242	16.82
401.605	16.82
401.969	16.95
402.333	16.98
402.697	17.31
403.06	17.29
403.424	17.22
403.787	17.36
404.151	17.1
404.514	17.5
404.878	17.1
405.241	17.29
405.604	17.61
405.968	17.87
406.331	17.7
406.694	17.75
407.057	17.82
407.42	17.73
407.783	18.06
408.146	17.95
408.509	18.07
408.872	18.03
409.235	18
409.598	18.18
409.961	18.38
410.323	18.28
410.686	18.42
411.049	18.34
411.411	18.03
411.774	18.31
412.136	18.52
412.499	18.53
412.861	18.62
413.223	18.65
413.586	18.84
413.948	18.73
414.31	18.99
414.672	18.88
415.035	19.1
415.397	18.71
415.759	19.02
416.121	19.01
416.483	19.17
416.845	19.11
417.206	19.03
417.568	19.37
417.93	19.26
418.292	19.33
418.653	19.24
419.015	19.47
419.377	19.54
419.738	19.39
420.1	19.67
420.461	19.59
420.822	19.46
421.184	19.54
421.545	19.54
421.906	19.69
422.267	19.67
422.629	19.55
422.99	19.61
423.351	19.64
423.712	19.58
424.073	19.81
424.434	19.89
424.795	19.84
425.155	20.01
425.516	20.13
425.877	20.04
426.238	20
426.598	19.95
426.959	20.11
427.32	20.19
427.68	20.38
428.041	20.32
428.401	20.48
428.761	20.82
429.122	20.89
429.482	20.82
429.842	20.75
430.202	21.06
430.563	20.99
430.923	21.03
431.283	21.36
431.643	21.45
432.003	21.45
432.363	21.29
432.722	21.57
433.082	21.41
433.442	21.76
433.802	21.56
434.161	21.66
434.521	21.65
434.881	21.68
435.24	21.73
435.6	21.8
435.959	21.8
436.319	21.63
436.678	22.08
437.037	22
437.396	22
437.756	22.08
438.115	22.21
438.474	22.15
438.833	22.36
439.192	22.35
439.551	22.36
439.91	22.43
440.269	22.41
440.628	22.51
440.987	22.41
441.345	22.51
441.704	22.62
442.063	22.47
442.421	22.66
442.78	22.63
443.138	22.81
443.497	22.79
443.855	22.71
444.214	22.91
444.572	22.94
444.93	23.02
445.288	22.96
445.647	23.2
446.005	23.2
446.363	23.16
446.721	23.29
447.079	23.23
447.437	23.23
447.795	23.22
448.153	23.24
448.51	23.12
448.868	23.17
449.226	23.36
449.584	23.37
449.941	23.41
450.299	23.75
450.656	23.71
451.014	23.84
451.371	23.86
451.729	23.95
452.086	23.87
452.443	24.16
452.801	24.43
453.158	24.3
453.515	24.37
453.872	24.37
454.229	24.53
454.586	24.35
454.943	24.31
455.3	24.55
455.657	24.67
456.014	24.63
456.371	24.69
456.727	25.05
457.084	24.89
457.441	25
457.797	24.99
458.154	24.89
458.51	25.06
458.867	25.26
459.223	25.28
459.58	25.49
459.936	25.25
460.292	25.37
460.648	25.17
461.005	25.4
461.361	25.05
461.717	25.01
462.073	25.11
462.429	25.26
462.785	25.34
463.141	25.41
463.496	25.68
463.852	25.76
464.208	25.81
464.564	26.01
464.919	26.02
465.275	26.21
465.631	26.26
465.986	26.3
466.342	26.4
466.697	26.37
467.052	26.37
467.408	26.41
467.763	26.45
468.118	26.6
468.473	26.47
468.829	26.55
469.184	26.72
469.539	26.6
469.894	26.63
470.249	27
470.603	26.78
470.958	26.88
471.313	27.11
471.668	27.08
472.023	26.93
472.377	27.27
472.732	27.14
473.086	27.35
473.441	27.29
473.795	27.38
474.15	27.43
474.504	27.34
474.859	27.34
475.213	27.6
475.567	27.55
475.921	27.75
476.275	27.69
476.63	27.68
476.984	27.9
477.338	27.87
477.692	28.08
478.045	28.03
478.399	28.03
478.753	27.77
479.107	27.95
479.461	28.11
479.814	28.2
480.168	28.13
480.521	28.26
480.875	28.33
481.228	28.27
481.582	28.3
481.935	28.32
482.289	28.35
482.642	28.53
482.995	28.48
483.348	28.42
483.701	28.45
484.055	28.45
484.408	28.48
484.761	28.17
485.114	28.07
485.466	28.08
485.819	28.05
486.172	27.92
486.525	27.9
486.878	28.09
487.23	28.18
487.583	28.46
487.936	28.52
488.288	28.63
488.641	28.65
488.993	28.63
489.345	28.62
489.698	28.62
490.05	28.57
490.402	28.69
490.754	28.9
491.107	28.88
491.459	29.11
491.811	29.37
492.163	29.36
492.515	29.49
492.866	29.36
493.218	29.22
493.57	29.19
493.922	29.2
494.274	29.25
494.625	29.38
494.977	29.69
495.328	29.8
495.68	30.13
496.031	30.29
496.383	30.42
496.734	30.47
497.086	30.54
497.437	30.75
497.788	30.69
498.139	30.7
498.49	30.67
498.842	30.71
499.193	30.62
499.544	30.78
499.894	30.66
500.245	31.09
500.596	31.01
500.947	31.08
501.298	31.02
501.648	31.33
501.999	31.32
502.35	31.38
502.7	31.56
503.051	31.52
503.401	31.5
503.752	31.61
504.102	31.67
504.452	31.66
504.803	31.95
505.153	31.93
505.503	32
505.853	31.8
506.203	31.87
506.553	31.75
506.903	32.01
507.253	32.12
507.603	32.09
507.953	32.11
508.303	32.18
508.652	32.32
509.002	32.29
509.352	32.23
509.701	32.53
510.051	32.51
510.4	32.3
510.75	32.3
511.099	32.24
511.449	32.38
511.798	32.7
512.147	32.42
512.496	32.79
512.846	32.71
513.195	32.7
513.544	32.86
513.893	32.86
514.242	33.03
514.591	33.1
514.939	33.05
515.288	33.21
515.637	33.2
515.986	33.42
516.334	33.26
516.683	33.32
517.032	33.59
517.38	33.82
517.729	33.76
518.077	33.75
518.426	33.58
518.774	33.78
519.122	33.76
519.47	33.69
519.819	33.57
520.167	33.62
520.515	33.47
520.863	33.63
521.211	33.54
521.559	33.61
521.907	33.69
522.255	33.9
522.602	34
522.95	34.23
523.298	34.34
523.645	34.34
523.993	34.51
524.341	34.58
524.688	34.47
525.036	34.57
525.383	34.81
525.73	34.88
526.078	34.81
526.425	34.65
526.772	34.75
527.119	34.58
527.466	34.51
527.814	34.66
528.161	34.58
528.508	34.64
528.854	34.56
529.201	34.78
529.548	34.68
529.895	34.59
530.242	34.64
530.588	34.69
530.935	34.57
531.282	34.52
531.628	34.46
531.975	34.58
532.321	34.95
532.667	35.04
533.014	35.23
533.36	35.32
533.706	35.48
534.052	35.55
534.399	35.53
534.745	35.45
535.091	35.28
535.437	35.38
535.783	35.36
536.129	35.4
536.474	35.53
536.82	35.6
537.166	36.02
537.512	35.97
537.857	36.12
538.203	36.28
538.549	36.04
538.894	35.92
539.239	36.3
539.585	36.04
539.93	36.4
540.276	36.67
540.621	36.68
540.966	36.83
541.311	37.07
541.656	37
542.001	37.02
542.346	36.89
542.691	36.64
543.036	36.56
543.381	36.52
543.726	36.4
544.071	36.42
544.415	36.42
544.76	36.75
545.105	36.96
545.449	36.97
545.794	37.08
546.138	37.11
546.483	37.43
546.827	37.44
547.171	37.67
547.516	37.62
547.86	37.6
548.204	37.63
548.548	37.56
548.892	37.76
549.236	37.85
549.58	38.09
549.924	38.25
550.268	38
550.612	38.21
550.956	38.25
551.3	38.67
551.643	38.65
551.987	38.78
552.33	38.82
552.674	38.72
553.017	39.15
553.361	39
553.704	38.94
554.048	39.02
554.391	39.05
554.734	38.87
555.077	39.1
555.42	39.31
555.764	39.11
556.107	39.31
556.45	39.35
556.793	39.71
557.135	39.58
557.478	39.52
557.821	39.63
558.164	39.63
558.507	39.87
558.849	39.93
559.192	39.8
559.534	39.97
559.877	40.15
560.219	40.35
560.562	40.14
560.904	40.25
561.246	40.24
561.589	40.12
561.931	40.33
562.273	40.42
562.615	40.09
562.957	40.47
563.299	40.39
563.641	40.5
563.983	40.52
564.325	40.46
564.667	40.71
565.008	40.78
565.35	40.73
565.692	40.86
566.033	40.93
566.375	40.77
566.716	40.88
567.058	41.03
567.399	41.23
567.741	41.06
568.082	41.31
568.423	40.71
568.764	41.11
569.105	40.95
569.447	41.13
569.788	41.36
570.129	41.24
570.47	41.47
570.811	41.67
571.151	41.59
571.492	41.79
571.833	41.67
572.174	41.79
572.514	41.77
572.855	41.83
573.195	41.88
573.536	41.87
573.876	41.89
574.217	41.94
574.557	42.09
574.898	42.2
575.238	42.01
575.578	42.07
575.918	42.15
576.258	42.01
576.598	42.4
576.938	42.43
577.278	42.35
577.618	42.57
577.958	42.43
578.298	42.23
578.638	42.58
578.977	42.75
579.317	42.57
579.657	42.69
579.996	42.77
580.336	43.1
580.675	42.94
581.014	43.12
581.354	43.17
581.693	43.18
582.032	43.43
582.372	43.38
582.711	43.58
583.05	43.93
583.389	43.27
583.728	43.53
584.067	43.66
584.406	43.85
584.745	44
585.083	43.92
585.422	43.73
585.761	43.91
586.1	43.79
586.438	44.09
586.777	44.06
587.115	43.94
587.454	44.28
587.792	44.29
588.13	44.5
588.469	44.43
588.807	44.34
589.145	44.81
589.483	44.47
589.821	44.77
590.159	44.57
590.497	44.51
590.835	44.71
591.173	45.07
591.511	44.63
591.849	44.86
592.187	44.73
592.524	44.66
592.862	45.09
593.2	45.13
593.537	45.56
593.875	44.86
594.212	45.04
594.55	45.05
594.887	45.37
595.224	45.04
595.561	45.5
595.899	45.47
596.236	45.35
596.573	45.37
596.91	45.21
597.247	45.43
597.584	45.34
597.921	45.7
598.258	45.44
598.594	45.51
598.931	45.79
599.268	45.72
599.604	45.57
599.941	45.55
600.277	45.44
600.614	45.74
600.95	45.63
601.287	45.78
601.623	46.16
601.959	46.44
602.296	45.79
602.632	46.38
602.968	46.09
603.304	46.45
603.64	46.38
603.976	46.32
604.312	46.64
604.648	46.56
604.984	46.75
605.319	46.73
605.655	46.72
605.991	46.47
606.326	46.56
606.662	46.65
606.998	46.51
607.333	46.31
607.668	46.75
608.004	46.51
608.339	47.12
608.674	47.12
609.01	46.8
609.345	47.21
609.68	47.49
610.015	47.1
610.35	47.47
610.685	47.67
611.02	47.42
611.355	47.47
611.689	47.45
612.024	47.35
612.359	47.31
612.694	47.24
613.028	47.16
613.363	47.51
613.697	47.63
614.032	47.83
614.366	47.75
614.7	47.88
615.035	48.26
615.369	48.17
615.703	48.37
616.037	48.48
616.371	48.36
616.705	48.42
617.039	48.41
617.373	48.4
617.707	48.93
618.041	48.81
618.375	48.4
618.709	48.63
619.042	48.54
619.376	48.88
619.71	48.83
620.043	48.42
620.377	48.99
620.71	48.84
621.043	49.24
621.377	48.86
621.71	49.11
622.043	49.03
622.376	48.75
622.709	48.38
623.043	49.23
623.376	48.96
623.709	48.98
624.041	49.16
624.374	49.16
624.707	49.17
625.04	49.9
625.373	49.35
625.705	49.66
626.038	49.62
626.37	49.8
626.703	49.63
627.035	49.73
627.368	50.23
627.7	50.18
628.032	50.27
628.365	49.83
628.697	49.67
629.029	50.12
629.361	50.09
629.693	49.83
630.025	50.1
630.357	50.08
630.689	49.95
631.021	50.02
631.353	50.19
631.684	50.22
632.016	50.33
632.348	50.14
632.679	50.53
633.011	50.59
633.342	50.34
633.674	50.57
634.005	50.53
634.336	50.6
634.668	50.65
634.999	50.52
635.33	50.4
635.661	51.01
635.992	50.49
636.323	50.64
636.654	51.16
636.985	51.39
637.316	51.04
637.647	51.27
637.977	51.18
638.308	51.24
638.639	51.21
638.969	50.94
639.3	51.35
639.63	51.51
639.961	51.52
640.291	51.26
640.622	51.29
640.952	51.72
641.282	51.79
641.612	51.66
641.943	51.01
642.273	51.44
642.603	52.25
642.933	51.55
643.263	51.94
643.592	52.16
643.922	51.92
644.252	52.17
644.582	51.56
644.911	51.71
645.241	52.19
645.571	51.96
645.9	51.98
646.23	51.59
646.559	51.95
646.888	52.24
647.218	52.8
647.547	52.16
647.876	52.72
648.205	52.37
648.534	52.93
648.863	52.08
649.192	52.47
649.521	51.61
649.85	53.2
650.179	52.44
650.508	52.95
650.837	52.84
651.165	52.49
651.494	52.69
651.822	52.25
652.151	52.75
652.479	52.97
652.808	52.93
653.136	52.47
653.465	52.84
653.793	53.24
654.121	52.84
654.449	52.43
654.777	53.06
655.105	53.34
655.433	53.28
655.761	53.58
656.089	53.23
656.417	53.26
656.745	53.33
657.073	52.98
657.4	53.7
657.728	53.89
658.056	53.16
658.383	53.35
658.711	53.62
659.038	53.41
659.365	53.72
659.693	54.11
660.02	53.77
660.347	54.19
660.674	53.79
661.001	53.98
661.329	54.15
661.656	53.91
661.982	53.84
662.309	54.09
662.636	53.71
662.963	54.01
663.29	53.96
663.616	54.02
663.943	54.76
664.27	54.21
664.596	53.85
664.923	54.27
665.249	54.66
665.576	54.69
665.902	54.18
666.228	54.32
666.554	55
666.881	54.48
667.207	54.25
667.533	54.56
667.859	54.68
668.185	54.2
668.511	54.23
668.837	54.15
669.162	54.76
669.488	55
669.814	55.14
670.139	54.48
670.465	54.49
670.791	54.87
671.116	54.72
671.442	55.15
671.767	55.1
672.092	55.34
672.418	55.22
672.743	55.43
673.068	54.85
673.393	54.69
673.718	54.89
674.043	55
674.368	55.85
674.693	55.28
675.018	55.34
675.343	55.75
675.667	55.49
675.992	55.82
676.317	55.57
676.641	55.12
676.966	55.92
677.29	55.45
677.615	55.61
677.939	55.05
678.264	56.58
678.588	55.7
678.912	55.4
679.236	55.26
679.56	56.58
679.885	55.77
680.209	55.51
680.532	56.49
680.856	56.26
681.18	56.24
681.504	56.54
681.828	56.43
682.152	56.59
682.475	56.2
682.799	56.23
683.122	56.51
683.446	56.22
683.769	56.25
684.093	56.03
684.416	55.94
684.739	56.04
685.062	56.37
685.386	56.74
685.709	56.51
686.032	56.58
686.355	56.63
686.678	56.99
687.001	56.77
687.324	57.07
687.646	56.94
687.969	56.8
688.292	56.22
688.614	56.72
688.937	57.13
689.26	57.82
689.582	56.64
689.904	57.08
690.227	57.16
690.549	56.87
690.871	56.18
691.194	56.99
691.516	56.41
691.838	56.7
692.16	56.82
692.482	56.61
692.804	57.87
693.126	57.21
693.448	58.16
693.769	56.9
694.091	57.47
694.413	57.66
694.735	57.7
695.056	57.37
695.378	57.96
695.699	57.77
696.021	58.58
696.342	57.34
696.663	58.21
696.984	57.46
697.306	57.1
697.627	58.08
697.948	58.23
698.269	57.91
698.59	58.31
698.911	58.08
699.232	57.42
699.553	58.51
699.873	58.22
700.194	57.91
700.515	58.96
700.835	59.04
701.156	58.21
701.477	58.56
701.797	57.81
702.117	57.66
702.438	57.74
702.758	58.05
703.078	57.42
703.398	58.44
703.719	57.9
704.039	57.74
704.359	58.09
704.679	57.86
704.999	57.84
705.319	58.89
705.638	58.29
705.958	58.37
706.278	58.6
706.597	58.49
706.917	59.27
707.237	58.96
707.556	59.79
707.876	59.07
708.195	58.6
708.514	59.55
708.834	59.58
709.153	59.05
709.472	59.48
709.791	58.69
710.11	59.65
710.429	58.05
710.748	60.31
711.067	60.09
711.386	58.47
711.705	58.3
712.023	59.86
712.342	58.95
712.661	59.75
712.979	59.45
713.298	59.83
713.616	59.43
713.935	59.51
714.253	58.83
714.572	58.84
714.89	59.49
715.208	60.28
715.526	59.54
715.844	60.48
716.162	60
716.48	58.84
716.798	59.78
717.116	60.35
717.434	60.31
717.752	60.5
718.069	60.71
718.387	60.23
718.705	60.55
719.022	60.53
719.34	60.71
719.657	60.84
719.975	59.68
720.292	59.88
720.609	59.56
720.927	59.31
721.244	60.28
721.561	59.16
721.878	59.11
722.195	58.6
722.512	60.1
722.829	59.92
723.146	60.55
723.463	59.89
723.779	59.78
724.096	60.13
724.413	60.55
724.729	59.31
725.046	60.11
725.362	60.43
725.679	61.22
725.995	59.86
726.311	59.3
726.628	61.05
726.944	61.5
727.26	60.46
727.576	60.75
727.892	60.01
728.208	60.07
728.524	60.49
728.84	60.43
729.156	60.94
729.472	60.86
729.787	60.87
730.103	60.95
730.419	61.4
730.734	60.81
731.05	61.45
731.365	60.42
731.681	62.15
731.996	59.97
732.311	59.83
732.626	60.73
732.942	60.98
733.257	61.63
733.572	61.19
733.887	61.33
734.202	61.17
734.517	62.11
734.832	61.08
735.146	62.67
735.461	62.38
735.776	60.69
736.091	61.61
736.405	60.82
736.72	61.41
737.034	60.78
737.349	60.74
737.663	60.6
737.977	60.16
738.292	60.71
738.606	62.03
738.92	60.53
739.234	62.04
739.548	60.92
739.862	61.27
740.176	62.89
740.49	60.44
740.804	62.17
741.117	60.79
741.431	62.37
741.745	60.95
742.058	62.31
742.372	61.2
742.685	61.28
742.999	62.57
743.312	61.55
743.626	61.52
743.939	60.75
744.252	62.62
744.565	62.71
744.878	60.13
745.191	60.41
745.505	59.87
745.817	61.44
746.13	62.79
746.443	60.91
746.756	62.09
747.069	60.93
747.381	62.41
747.694	61.45
748.007	62.18
748.319	61.99
748.632	62.68
748.944	60.33
749.256	62.77
749.569	62.03
749.881	61.23
750.193	63.37
750.505	61.45
750.817	63.88
751.129	60.83
751.441	61.99
751.753	62.69
752.065	62.41
752.377	62.09
752.689	60.62
753	63.03
753.312	61.15
753.624	62.42
753.935	63.53
754.247	63.07
754.558	62.48
754.869	63.17
755.181	63.08
755.492	63.21
755.803	62.44
756.114	62.82
756.425	63.78
756.736	61.7
757.047	64.41
757.358	63.5
757.669	63.23
757.98	63.07
758.291	63.07
758.601	63.33
758.912	64.13
759.223	62.1
759.533	63.52
759.844	62.39
760.154	62.41
760.464	61.92
760.775	61.36
761.085	62.2
761.395	63.45
761.705	62.65
762.016	63.57
762.326	64.63
762.636	63.73
762.945	62.4
763.255	62.65
763.565	62.5
763.875	61.66
764.185	62.99
764.494	62.06
764.804	64.32
765.113	63.15
765.423	62.9
765.732	64.24
766.042	64.34
766.351	64.06
766.66	63.47
766.97	63.32
767.279	64.48
767.588	64.29
767.897	63.27
768.206	61.94
768.515	62.69
768.824	62.92
769.133	63.98
769.441	61.37
769.75	65
770.059	62.53
770.367	65.05
770.676	63.02
770.984	62.23
771.293	62.63
771.601	61.76
771.91	64.31
772.218	65.47
772.526	62.51
772.834	62.27
773.142	64.91
773.45	62.96
773.758	64.02
774.066	63.18
774.374	63.74
774.682	62.87
774.99	63.05
775.298	63.96
775.605	62.6
775.913	61.9
776.22	63.26
776.528	62.71
776.835	65.76
777.143	64.31
777.45	65.32
777.757	62.58
778.065	63.03
778.372	64.94
778.679	66.67
778.986	59.91
779.293	64.92
779.6	64.95
779.907	65.04
780.214	66.28
780.52	65.08
780.827	62.8
781.134	61.52
781.44	63.71
781.747	65.05
782.053	62.3
782.36	64.91
782.666	67.06
782.973	63.56
783.279	63.24
783.585	66.08
783.891	64.7
784.197	64.4
784.503	65.72
784.809	65.72
785.115	64.26
785.421	64.64
785.727	63.95
786.033	64.22
786.339	63.86
786.644	67.93
786.95	64.2
787.255	61.4
787.561	62.26
787.866	67.36
788.172	63.36
788.477	60.92
788.782	67.76
789.088	60.86
789.393	65.27
789.698	62.94
790.003	65.34
790.308	62.73
790.613	64.12
790.918	63.84
791.223	63.19
791.527	63.32
791.832	65.63
792.137	63.03
792.441	64.44
792.746	62.08
793.05	60
793.355	64.18
793.659	67.54
793.963	64.77
794.268	65.32
794.572	63.51
794.876	64.24
795.18	65.94
795.484	65.68
795.788	64.91
796.092	64.18
796.396	64.19
796.7	64.57
797.004	65.06
797.307	67.38
797.611	67.15
797.915	66.19
798.218	66.54
798.522	66.37
798.825	64.48
799.128	63
799.432	65.69
799.735	63.6
800.038	62.8
800.341	63.77
800.644	64.18
800.947	64.29
801.25	63.51
801.553	67.17
801.856	64.04
802.159	65.47
802.462	64.28
802.764	66.52
803.067	66.26
803.37	61.82
803.672	64.49
803.975	67.7
804.277	64.11
804.579	62.92
804.882	64.21
805.184	64.46
805.486	61.86
805.788	68.94
806.09	65.08
806.392	61.11
806.694	63.46
806.996	59.81
807.298	61.26
807.6	63.53
807.902	66.6
808.203	61.05
808.505	63.25
808.807	64.88
809.108	66.31
809.409	63.22
809.711	65.88
810.012	63.94
810.313	67.16
810.615	62.14
810.916	63.67
811.217	63.73
811.518	64.66
811.819	65.86
812.12	61.67
812.421	61.04
812.722	63.57
813.023	59.37
813.323	62.56
813.624	71.54
813.925	66.01
814.225	64.11
814.526	65.3
814.826	66.48
815.126	69.34
815.427	65.28
815.727	56.33
816.027	61.42
816.327	64.67
816.627	65.81
816.927	61.55
817.227	61.48
817.527	58.84
817.827	66.98
818.127	61.92
818.427	62.95
818.727	64.91
819.026	65.84
819.326	61.41
819.625	57.18
819.925	63.61
820.224	60.31
820.524	62.51
820.823	71.15
821.122	66.82
821.421	67.72
821.72	63.98
822.019	65.33
822.318	66.92
822.617	70.16
822.916	65.17
823.215	66.67
823.514	67.82
823.813	69.9
824.111	67.68
824.41	66.93
824.709	67.44
825.007	66.85
825.306	67.46
825.604	67.13
825.902	66.11
826.201	65.94
826.499	66.36
826.797	63.31
827.095	63.29
827.393	64.93
827.691	64.25
827.989	64.88
828.287	66.55
828.585	66.16
828.882	66.2
829.18	64.47
829.478	65.43
829.775	66.48
830.073	66.16
830.37	65.43
830.668	64.68
830.965	66.81
831.263	64.31
831.56	64.22
831.857	67.59
832.154	69.31
832.451	65.01
832.748	63.43
833.045	61.47
833.342	64.17
833.639	66.75
833.936	59.37
834.232	64.86
834.529	63.88
834.826	63.7
835.122	66.17
835.419	67.89
835.715	65.59
836.012	69.44
836.308	67.62
836.604	65.97
836.901	65.98
837.197	67.52
837.493	67.03
837.789	67.23
838.085	65.9
838.381	65.97
838.677	66.29
838.972	65.17
839.268	64.41
839.564	63.74
839.86	69.73
840.155	56.18
840.451	63.2
840.746	57.6
841.042	66.94
841.337	62.36
841.632	59.12
841.928	58.46
842.223	61.53
842.518	69.27
842.813	70.06
843.108	68.45
843.403	64.42
843.698	67.69
843.993	69.43
844.287	68.55
844.582	66.29
844.877	60.3
845.171	63.68
845.466	63.83
845.761	61.84
846.055	65.83
846.349	59.26
846.644	59.21
846.938	69.06
847.232	56.24
847.526	75.52
847.82	63.32
848.114	67.21
848.408	53.59
848.702	70.5
848.996	60.86
849.29	65.19
849.584	53.11
849.877	64.59
850.171	61.97
850.465	56.96
850.758	49.4
851.052	61.08
851.345	63.91
851.638	67.99
851.932	72.59
852.225	69.28
852.518	87.17
852.811	71.69
853.104	57.84
853.397	41.51
853.69	72.62
853.983	52.31
854.276	71.84
854.569	68.93
854.861	49.51
855.154	65.17
855.447	49.53
855.739	79.24
856.032	62.59
856.324	64.59
856.616	45.57
856.909	81.8
857.201	68.59
857.493	61.61
857.785	54.12
858.077	41.49
858.369	61.04
858.661	73.35
858.953	46.71
859.245	54.21
859.537	69.51
859.829	62.5
860.12	67.49
860.412	51.02
860.703	54.18
860.995	72.41
861.286	49.15
861.578	54.37
861.869	48.89
862.16	58.64
862.452	75.85
862.743	55.2
863.034	54.92
863.325	79.37
863.616	48.63
863.907	53.87
864.198	55.57
864.488	69.05
864.779	42.76
865.07	45.73
865.36	64.91
865.651	26.4
865.941	55.79
866.232	47.89
866.522	38.5
866.813	56.36
867.103	54.81
867.393	59.25
867.683	51.79
867.973	57.76
868.263	51.56
868.553	52.18
868.843	27.96
869.133	69.01
869.423	45.26
869.713	35
870.002	61.05
870.292	57.53
870.582	69.47
870.871	50.74
871.161	55.12
871.45	34.58
871.739	52.35
872.029	63.61
872.318	80.31
872.607	57.68
872.896	48.88
873.185	79.04
873.474	75.52
873.763	65.54
874.052	48.65
874.341	35.19
874.63	53.17
874.918	58.51
875.207	63.76
875.496	63.46
875.784	54.89
876.073	62.25
876.361	45.97
876.649	50.5
876.938	68.13
877.226	71.63
877.514	55.19
877.802	42.07
878.09	57.1
878.378	54.85
878.666	79.55
878.954	74.17
879.242	57.06
879.53	48.31
879.817	63.58
880.105	73.55
880.392	50.19
880.68	65.13
880.967	79.03
881.255	53.76
881.542	57.14
881.83	50.6
882.117	59.34
882.404	67.24
882.691	69.68
882.978	87.02
883.265	85.36
883.552	61.52
883.839	61.14
884.126	75.37
884.413	60.87
884.699	66.88
884.986	67.33
885.273	68.26
885.559	68.26
885.846	68.26
