Data from 815658_crown_Reflection__4__86.txt Node

Date: Fri Sep 16 15:17:38 CDT 2022
User: ToomeyLab
Spectrometer: FLMS14357
Trigger mode: 0
Integration Time (sec): 1.000000E-2
Scans to average: 100
Electric dark correction enabled: true
Nonlinearity correction enabled: false
Boxcar width: 0
XAxis mode: Wavelengths
Number of Pixels in Spectrum: 2048
>>>>>Begin Spectral Data<<<<<
189.047	97.93
189.435	97.93
189.823	97.93
190.211	154.36
190.599	709.77
190.987	116.01
191.375	78.91
191.763	72.3
192.151	52.28
192.538	-107.33
192.926	73.69
193.314	61.67
193.702	92.78
194.089	79.51
194.477	336.12
194.864	-83.05
195.252	9.75
195.639	1183.33
196.027	-32.01
196.414	485.69
196.801	-38.39
197.189	-6.62
197.576	106.45
197.963	20.52
198.351	-72.72
198.738	-2.24
199.125	66.83
199.512	-58.52
199.899	35.93
200.286	-7.24
200.673	-6.98
201.06	25.34
201.447	39.78
201.833	20.81
202.22	44.65
202.607	-26.66
202.994	18.45
203.38	28.18
203.767	16.15
204.154	14.36
204.54	39.26
204.927	-55.33
205.313	42.85
205.699	44.14
206.086	16.95
206.472	22.31
206.858	20.92
207.245	50.48
207.631	17.08
208.017	5.46
208.403	-7.91
208.789	-8.24
209.175	4.57
209.561	30.43
209.947	-21.29
210.333	13.56
210.719	12.62
211.105	6.73
211.491	37.92
211.876	35.24
212.262	6.19
212.648	12.6
213.034	-23.23
213.419	-42.98
213.805	2.11
214.19	1.48
214.576	-6.86
214.961	18.68
215.346	-3.08
215.732	-7.71
216.117	10.24
216.502	11.88
216.888	-8.3
217.273	2.19
217.658	20.29
218.043	-71.29
218.428	7.61
218.813	-16.78
219.198	-8.15
219.583	-18.44
219.968	5.77
220.353	3.91
220.738	8.7
221.122	-9.99
221.507	22.78
221.892	15.14
222.276	26.92
222.661	18.34
223.046	15.02
223.43	2.44
223.815	9.4
224.199	6.31
224.583	16.19
224.968	10.01
225.352	0.35
225.736	11.76
226.121	5.58
226.505	9.45
226.889	11.53
227.273	6.75
227.657	13.72
228.041	6.4
228.425	1.24
228.809	12.36
229.193	9.31
229.577	10.23
229.961	9.01
230.344	9.8
230.728	8.73
231.112	8.62
231.495	8.11
231.879	8.91
232.263	7.45
232.646	7.94
233.03	10
233.413	10.77
233.797	8.79
234.18	11.32
234.563	10.53
234.946	8.89
235.33	8.15
235.713	7.43
236.096	8.9
236.479	9.5
236.862	9.51
237.245	8.75
237.628	9.92
238.011	9.18
238.394	9.37
238.777	10.2
239.16	9.84
239.543	9.21
239.925	8.27
240.308	8.47
240.691	8.71
241.073	8.62
241.456	8.16
241.838	8.2
242.221	8.2
242.603	8.53
242.986	8.07
243.368	8.37
243.75	8.05
244.133	8.7
244.515	8.39
244.897	8.67
245.279	8.16
245.661	8.09
246.043	8.43
246.425	8.58
246.807	8.78
247.189	8.69
247.571	7.84
247.953	8.18
248.335	7.99
248.717	8.27
249.098	8
249.48	7.93
249.862	7.96
250.243	8.08
250.625	8.12
251.006	8.3
251.388	8.17
251.769	7.12
252.151	7.87
252.532	6.83
252.913	7.69
253.295	7.82
253.676	8.37
254.057	7.51
254.438	7.2
254.819	6.36
255.2	6.5
255.581	8.78
255.962	7.18
256.343	8.21
256.724	7.24
257.105	8.16
257.486	7.78
257.867	7.95
258.247	8.1
258.628	7.29
259.009	7.6
259.389	7.89
259.77	6.86
260.15	7.66
260.531	7.8
260.911	7.21
261.292	7.12
261.672	7.44
262.052	6.89
262.432	6.86
262.813	7.89
263.193	7.47
263.573	7.61
263.953	7.13
264.333	6.79
264.713	6.11
265.093	7.1
265.473	7.27
265.853	6.98
266.233	7.06
266.612	7.43
266.992	5.71
267.372	7.08
267.752	6.48
268.131	7.08
268.511	7.39
268.89	7.38
269.27	6.59
269.649	6.97
270.029	6.64
270.408	6.77
270.787	6.8
271.167	6.67
271.546	6.87
271.925	6.92
272.304	7.07
272.683	6.95
273.062	7.05
273.441	7.09
273.82	6.89
274.199	7.07
274.578	6.66
274.957	7.34
275.336	6.66
275.715	7.26
276.093	6.32
276.472	6.19
276.851	6.85
277.229	6.79
277.608	7.35
277.986	6.69
278.365	6.41
278.743	6.46
279.122	6.56
279.5	6.48
279.878	6.84
280.257	6.8
280.635	7.04
281.013	5.97
281.391	6.55
281.769	6.42
282.147	6.4
282.525	6.07
282.903	7.04
283.281	5.92
283.659	6.46
284.037	6.4
284.415	6.47
284.792	6.7
285.17	6.24
285.548	6.28
285.925	6.37
286.303	6.46
286.68	6.23
287.058	5.85
287.435	6.07
287.813	6.45
288.19	6.02
288.567	5.72
288.945	6.39
289.322	6.56
289.699	5.95
290.076	6.23
290.453	6.07
290.83	5.93
291.207	6.36
291.584	5.7
291.961	6.03
292.338	5.98
292.715	5.8
293.092	6.03
293.469	6.41
293.845	6.3
294.222	5.64
294.599	5.65
294.975	5.96
295.352	6.07
295.728	5.68
296.105	6.08
296.481	5.44
296.858	5.43
297.234	5.63
297.61	6.22
297.986	5.72
298.363	5.69
298.739	5.5
299.115	5.71
299.491	5.75
299.867	5.64
300.243	5.53
300.619	6.14
300.995	5.78
301.371	5.61
301.746	5.5
302.122	5.84
302.498	5.82
302.874	5.46
303.249	5.86
303.625	5.62
304	5.62
304.376	5.35
304.751	5.32
305.127	5.69
305.502	5.66
305.878	5.54
306.253	5.48
306.628	5.62
307.003	5.74
307.378	5.71
307.754	5.64
308.129	5.9
308.504	5.74
308.879	5.75
309.254	5.57
309.629	4.93
310.003	5.31
310.378	5.33
310.753	5.27
311.128	5.52
311.502	4.98
311.877	5.25
312.252	5.46
312.626	5.41
313.001	5.56
313.375	5.69
313.75	5.45
314.124	4.8
314.498	5.21
314.873	5.65
315.247	4.95
315.621	5.52
315.995	5.12
316.369	5.06
316.743	5.76
317.117	4.91
317.491	5.59
317.865	5.65
318.239	5.59
318.613	5.33
318.987	5.04
319.361	5.48
319.734	4.88
320.108	4.71
320.482	5.39
320.855	5.42
321.229	5.17
321.602	5.5
321.976	4.89
322.349	5.01
322.723	5.46
323.096	5.23
323.469	5.32
323.843	5.81
324.216	5.6
324.589	5.02
324.962	5.23
325.335	5.44
325.708	5.03
326.081	5.23
326.454	5.36
326.827	4.91
327.2	4.79
327.573	4.68
327.945	5.4
328.318	5.42
328.691	4.99
329.063	5.3
329.436	5.11
329.809	4.62
330.181	5.3
330.553	5.69
330.926	5.13
331.298	5.29
331.671	4.98
332.043	4.91
332.415	5.05
332.787	4.92
333.159	4.8
333.532	5.58
333.904	5.57
334.276	5.17
334.648	5.32
335.02	5.45
335.391	5.88
335.763	5.44
336.135	4.69
336.507	5.35
336.879	5.78
337.25	4.74
337.622	5.35
337.993	5.35
338.365	5.57
338.736	5.74
339.108	5.38
339.479	5.24
339.851	5.63
340.222	4.91
340.593	5.26
340.964	5.55
341.336	5.57
341.707	5.36
342.078	5.23
342.449	5.63
342.82	5.11
343.191	5.46
343.562	5.2
343.933	5.09
344.303	5.71
344.674	4.63
345.045	5.68
345.416	5.5
345.786	5.7
346.157	5.62
346.527	5.6
346.898	5.27
347.268	5.71
347.639	5.02
348.009	5.44
348.38	5.6
348.75	5.12
349.12	5.4
349.49	5.72
349.861	5.51
350.231	5.45
350.601	5.55
350.971	5.32
351.341	5.82
351.711	5.45
352.081	5.69
352.45	5.57
352.82	5.82
353.19	5.41
353.56	5.59
353.929	5.75
354.299	5.43
354.669	5.74
355.038	5.1
355.408	5.87
355.777	5.49
356.147	5.65
356.516	5.89
356.885	5.62
357.254	5.97
357.624	5.8
357.993	5.74
358.362	5.36
358.731	5.95
359.1	5.52
359.469	5.61
359.838	5.71
360.207	5.83
360.576	5.65
360.945	5.47
361.314	5.47
361.682	5.48
362.051	5.61
362.42	5.98
362.788	5.86
363.157	5.72
363.525	5.66
363.894	5.86
364.262	5.66
364.631	5.96
364.999	5.64
365.367	5.83
365.735	5.92
366.104	5.9
366.472	5.87
366.84	5.77
367.208	6.08
367.576	5.83
367.944	5.61
368.312	5.7
368.68	6
369.048	6
369.416	5.91
369.783	5.62
370.151	6.19
370.519	5.89
370.886	5.88
371.254	5.55
371.621	6.2
371.989	5.88
372.356	6.26
372.724	6.15
373.091	5.87
373.458	5.9
373.826	5.72
374.193	6.32
374.56	5.67
374.927	6.04
375.294	6
375.661	6.26
376.028	6.45
376.395	5.77
376.762	6.37
377.129	5.82
377.496	6.33
377.863	6.13
378.229	6.33
378.596	5.99
378.963	6.21
379.329	6.11
379.696	6.37
380.062	6.13
380.429	6.22
380.795	6.26
381.161	6.24
381.528	6.12
381.894	6.22
382.26	6.43
382.626	6.27
382.993	5.99
383.359	6.22
383.725	6.3
384.091	6.41
384.457	6.01
384.823	6.09
385.188	5.82
385.554	5.88
385.92	6.28
386.286	6.16
386.651	6.35
387.017	6.22
387.383	5.96
387.748	6.13
388.114	6.07
388.479	6.41
388.845	6.23
389.21	6.46
389.575	6.48
389.94	6.49
390.306	6.18
390.671	6.38
391.036	5.98
391.401	6.49
391.766	6.4
392.131	6.34
392.496	6.22
392.861	6.4
393.226	6.32
393.591	6.44
393.956	6.48
394.32	6.33
394.685	6.34
395.05	6.76
395.414	6.34
395.779	6.4
396.143	6.52
396.508	6.32
396.872	6.42
397.236	6.49
397.601	6.18
397.965	6.22
398.329	6.29
398.694	6.45
399.058	6.66
399.422	6.33
399.786	6.4
400.15	6.62
400.514	6.48
400.878	6.59
401.242	6.68
401.605	6.54
401.969	6.38
402.333	6.44
402.697	6.41
403.06	6.7
403.424	6.57
403.787	6.4
404.151	6.56
404.514	6.63
404.878	6.59
405.241	6.4
405.604	6.72
405.968	6.74
406.331	6.48
406.694	6.42
407.057	6.58
407.42	6.49
407.783	6.7
408.146	6.74
408.509	6.55
408.872	6.71
409.235	6.89
409.598	6.61
409.961	6.59
410.323	6.52
410.686	6.76
411.049	6.63
411.411	6.5
411.774	6.73
412.136	6.61
412.499	6.81
412.861	6.74
413.223	6.74
413.586	6.71
413.948	6.62
414.31	6.88
414.672	6.56
415.035	6.95
415.397	6.64
415.759	6.78
416.121	6.56
416.483	6.68
416.845	6.78
417.206	6.84
417.568	6.71
417.93	6.79
418.292	6.71
418.653	6.59
419.015	6.72
419.377	6.78
419.738	6.71
420.1	6.77
420.461	6.82
420.822	6.73
421.184	6.69
421.545	6.58
421.906	6.65
422.267	6.73
422.629	6.65
422.99	6.56
423.351	6.6
423.712	6.62
424.073	6.76
424.434	6.71
424.795	6.7
425.155	6.73
425.516	6.78
425.877	6.71
426.238	6.61
426.598	6.61
426.959	6.62
427.32	6.62
427.68	6.77
428.041	6.64
428.401	6.78
428.761	7.03
429.122	6.9
429.482	6.87
429.842	6.7
430.202	7
430.563	6.9
430.923	6.94
431.283	7.08
431.643	7.16
432.003	6.94
432.363	7.08
432.722	6.87
433.082	6.94
433.442	7.09
433.802	6.97
434.161	6.84
434.521	6.95
434.881	6.86
435.24	6.99
435.6	6.97
435.959	7.02
436.319	7
436.678	6.98
437.037	6.92
437.396	6.97
437.756	7.1
438.115	6.89
438.474	6.97
438.833	6.98
439.192	6.99
439.551	6.86
439.91	6.89
440.269	7.08
440.628	6.89
440.987	6.87
441.345	6.85
441.704	6.91
442.063	7.07
442.421	6.96
442.78	6.97
443.138	7.01
443.497	6.86
443.855	6.96
444.214	6.85
444.572	7.06
444.93	6.96
445.288	6.97
445.647	6.93
446.005	7.03
446.363	6.96
446.721	7.05
447.079	6.86
447.437	6.97
447.795	6.94
448.153	6.91
448.51	6.87
448.868	6.82
449.226	6.95
449.584	6.96
449.941	6.93
450.299	6.94
450.656	7.02
451.014	7.12
451.371	6.94
451.729	7.08
452.086	6.89
452.443	6.98
452.801	7.01
453.158	7.03
453.515	6.87
453.872	6.9
454.229	6.94
454.586	7
454.943	6.86
455.3	7.13
455.657	7.05
456.014	7.13
456.371	6.87
456.727	7.06
457.084	7.11
457.441	7.07
457.797	7.03
458.154	7.08
458.51	6.98
458.867	7.08
459.223	7.23
459.58	7.18
459.936	7.07
460.292	7.17
460.648	7.02
461.005	7.12
461.361	6.93
461.717	6.95
462.073	6.93
462.429	7.01
462.785	7
463.141	7.02
463.496	7.09
463.852	7.08
464.208	7.05
464.564	7.14
464.919	6.97
465.275	7.37
465.631	7.16
465.986	7.13
466.342	7.02
466.697	7.17
467.052	7.11
467.408	7.17
467.763	7.26
468.118	7.18
468.473	6.93
468.829	7.22
469.184	7.03
469.539	7.08
469.894	7.14
470.249	7.2
470.603	7.2
470.958	6.95
471.313	7.25
471.668	7.18
472.023	7.08
472.377	7.21
472.732	7.1
473.086	7.09
473.441	7.02
473.795	7.24
474.15	6.93
474.504	7.25
474.859	7.12
475.213	7.07
475.567	6.95
475.921	7.16
476.275	7.17
476.63	7.11
476.984	7.21
477.338	7.22
477.692	7.11
478.045	7.14
478.399	7.15
478.753	7.06
479.107	7.14
479.461	7.14
479.814	7.11
480.168	7.11
480.521	7.1
480.875	7.04
481.228	7.08
481.582	7.13
481.935	7.13
482.289	7.16
482.642	7.17
482.995	7.11
483.348	7.03
483.701	7.09
484.055	7.04
484.408	7.05
484.761	6.95
485.114	6.83
485.466	6.78
485.819	6.76
486.172	6.69
486.525	6.72
486.878	6.75
487.23	6.8
487.583	6.86
487.936	6.88
488.288	6.98
488.641	6.9
488.993	6.85
489.345	6.83
489.698	6.78
490.05	6.82
490.402	6.82
490.754	6.9
491.107	6.82
491.459	6.95
491.811	6.92
492.163	7.01
492.515	6.94
492.866	6.95
493.218	6.81
493.57	6.79
493.922	6.84
494.274	6.8
494.625	6.85
494.977	6.89
495.328	6.9
495.68	7.01
496.031	7
496.383	7.1
496.734	6.9
497.086	7.05
497.437	7.01
497.788	7.08
498.139	6.99
498.49	7.08
498.842	7.06
499.193	6.92
499.544	7.01
499.894	6.96
500.245	7.07
500.596	7.08
500.947	7.03
501.298	7.07
501.648	6.9
501.999	6.93
502.35	7.09
502.7	7.16
503.051	7.18
503.401	7.04
503.752	7.16
504.102	7.17
504.452	6.99
504.803	7.1
505.153	7.1
505.503	7.16
505.853	6.96
506.203	7.13
506.553	6.85
506.903	6.96
507.253	6.93
507.603	6.99
507.953	7.12
508.303	7.08
508.652	7.1
509.002	6.97
509.352	6.99
509.701	7.01
510.051	7.03
510.4	6.96
510.75	7.01
511.099	6.99
511.449	6.81
511.798	6.89
512.147	6.89
512.496	7.07
512.846	7.03
513.195	7.06
513.544	7.02
513.893	7.04
514.242	6.99
514.591	6.96
514.939	6.98
515.288	7
515.637	7.07
515.986	7.01
516.334	6.9
516.683	7.03
517.032	6.9
517.38	7.06
517.729	7.11
518.077	7.03
518.426	7.21
518.774	7.04
519.122	7.07
519.47	6.88
519.819	6.94
520.167	6.93
520.515	6.83
520.863	6.92
521.211	6.91
521.559	6.9
521.907	6.85
522.255	6.88
522.602	6.98
522.95	6.96
523.298	6.95
523.645	7.03
523.993	6.94
524.341	6.93
524.688	7.03
525.036	7
525.383	7.03
525.73	7.04
526.078	6.94
526.425	6.88
526.772	6.85
527.119	6.84
527.466	6.93
527.814	6.94
528.161	6.85
528.508	6.81
528.854	6.89
529.201	6.77
529.548	6.8
529.895	6.78
530.242	6.7
530.588	6.69
530.935	6.68
531.282	6.68
531.628	6.67
531.975	6.71
532.321	6.78
532.667	6.84
533.014	6.91
533.36	6.79
533.706	6.84
534.052	6.87
534.399	6.81
534.745	6.77
535.091	6.76
535.437	6.7
535.783	6.79
536.129	6.83
536.474	6.75
536.82	6.73
537.166	6.88
537.512	6.82
537.857	6.83
538.203	6.87
538.549	6.8
538.894	6.68
539.239	6.85
539.585	6.74
539.93	6.71
540.276	6.94
540.621	6.91
540.966	6.78
541.311	6.86
541.656	6.93
542.001	6.7
542.346	6.75
542.691	6.74
543.036	6.65
543.381	6.64
543.726	6.59
544.071	6.57
544.415	6.56
544.76	6.63
545.105	6.72
545.449	6.76
545.794	6.77
546.138	6.69
546.483	6.81
546.827	6.79
547.171	6.8
547.516	6.6
547.86	6.72
548.204	6.71
548.548	6.6
548.892	6.68
549.236	6.73
549.58	6.81
549.924	6.96
550.268	6.82
550.612	6.84
550.956	6.74
551.3	6.8
551.643	6.92
551.987	6.86
552.33	6.8
552.674	6.72
553.017	6.82
553.361	6.67
553.704	6.77
554.048	6.87
554.391	6.87
554.734	6.8
555.077	6.7
555.42	6.82
555.764	6.86
556.107	6.87
556.45	6.79
556.793	6.82
557.135	6.81
557.478	6.79
557.821	6.81
558.164	6.96
558.507	6.76
558.849	6.69
559.192	6.63
559.534	6.94
559.877	6.58
560.219	6.78
560.562	6.84
560.904	6.74
561.246	6.81
561.589	6.82
561.931	6.8
562.273	6.81
562.615	6.67
562.957	6.69
563.299	6.65
563.641	6.64
563.983	6.69
564.325	6.67
564.667	6.71
565.008	6.77
565.35	6.69
565.692	6.67
566.033	6.69
566.375	6.64
566.716	6.55
567.058	6.58
567.399	6.9
567.741	6.62
568.082	6.84
568.423	6.48
568.764	6.62
569.105	6.59
569.447	6.5
569.788	6.75
570.129	6.72
570.47	6.56
570.811	6.74
571.151	6.68
571.492	6.63
571.833	6.74
572.174	6.69
572.514	6.65
572.855	6.68
573.195	6.71
573.536	6.66
573.876	6.62
574.217	6.53
574.557	6.59
574.898	6.67
575.238	6.66
575.578	6.71
575.918	6.66
576.258	6.6
576.598	6.44
576.938	6.52
577.278	6.46
577.618	6.57
577.958	6.56
578.298	6.58
578.638	6.45
578.977	6.34
579.317	6.56
579.657	6.42
579.996	6.55
580.336	6.57
580.675	6.48
581.014	6.62
581.354	6.6
581.693	6.48
582.032	6.56
582.372	6.66
582.711	6.56
583.05	6.56
583.389	6.52
583.728	6.47
584.067	6.6
584.406	6.64
584.745	6.56
585.083	6.67
585.422	6.69
585.761	6.71
586.1	6.28
586.438	6.92
586.777	6.26
587.115	6.64
587.454	6.69
587.792	6.37
588.13	6.92
588.469	6.49
588.807	6.59
589.145	6.23
589.483	6.55
589.821	6.6
590.159	6.4
590.497	6.61
590.835	6.5
591.173	6.61
591.511	6.59
591.849	6.57
592.187	6.5
592.524	6.29
592.862	6.42
593.2	6.13
593.537	6.42
593.875	6.36
594.212	6.53
594.55	6.17
594.887	6.54
595.224	6.36
595.561	6.43
595.899	6.67
596.236	6.6
596.573	6.29
596.91	6.49
597.247	6.32
597.584	6.3
597.921	6.31
598.258	6.25
598.594	6.22
598.931	6.32
599.268	6.44
599.604	6.27
599.941	6.27
600.277	6.3
600.614	6.32
600.95	6.33
601.287	6.51
601.623	6.23
601.959	6.42
602.296	6.46
602.632	6.48
602.968	6.44
603.304	6.39
603.64	6.39
603.976	6.46
604.312	6.37
604.648	6.35
604.984	6.49
605.319	6.52
605.655	6.44
605.991	6.49
606.326	6.21
606.662	6.29
606.998	6.22
607.333	6.29
607.668	6.5
608.004	6.16
608.339	6.19
608.674	6.56
609.01	6.29
609.345	6.36
609.68	6.4
610.015	6.28
610.35	6.46
610.685	6.47
611.02	6.27
611.355	6.29
611.689	6.13
612.024	6.12
612.359	6.36
612.694	6.35
613.028	6.16
613.363	6.16
613.697	6.36
614.032	6.16
614.366	5.96
614.7	6.3
615.035	6.29
615.369	6.09
615.703	6.23
616.037	6.22
616.371	6.34
616.705	6.11
617.039	6.46
617.373	6.1
617.707	6.29
618.041	6.18
618.375	6.33
618.709	6.1
619.042	6.17
619.376	6.2
619.71	6.16
620.043	5.91
620.377	6.32
620.71	6.25
621.043	6.41
621.377	6.26
621.71	6.25
622.043	5.94
622.376	6.24
622.709	6.06
623.043	6.11
623.376	6.06
623.709	5.79
624.041	6.48
624.374	6.33
624.707	6.34
625.04	6.13
625.373	5.78
625.705	6.29
626.038	6.61
626.37	6.26
626.703	5.76
627.035	6.32
627.368	6.57
627.7	6.39
628.032	6.17
628.365	6.21
628.697	6.14
629.029	6.28
629.361	5.99
629.693	6.21
630.025	6.11
630.357	6.17
630.689	6.03
631.021	6.35
631.353	6.08
631.684	5.96
632.016	6.26
632.348	6.26
632.679	5.89
633.011	5.98
633.342	5.88
633.674	6.1
634.005	6.5
634.336	6.01
634.668	6.19
634.999	5.63
635.33	6.11
635.661	6.31
635.992	5.84
636.323	6.17
636.654	5.97
636.985	6.32
637.316	6.44
637.647	6.11
637.977	6.15
638.308	6.26
638.639	6.15
638.969	5.87
639.3	6.25
639.63	5.67
639.961	6.14
640.291	6.04
640.622	5.72
640.952	6.25
641.282	6.2
641.612	5.82
641.943	6.02
642.273	5.81
642.603	6
642.933	6.11
643.263	6.19
643.592	5.65
643.922	5.93
644.252	6.23
644.582	5.87
644.911	6.38
645.241	6.18
645.571	5.88
645.9	6.19
646.23	5.91
646.559	5.79
646.888	5.86
647.218	6.31
647.547	6.06
647.876	6.55
648.205	6.18
648.534	6.16
648.863	6.08
649.192	6.21
649.521	5.9
649.85	6.18
650.179	5.69
650.508	6.44
650.837	6.02
651.165	6.29
651.494	6.15
651.822	6.12
652.151	5.97
652.479	6.37
652.808	6.63
653.136	5.96
653.465	6.22
653.793	5.71
654.121	6.53
654.449	5.97
654.777	6.24
655.105	6.47
655.433	6.14
655.761	6.63
656.089	5.75
656.417	6.41
656.745	6.49
657.073	5.85
657.4	5.98
657.728	6.36
658.056	5.79
658.383	6.07
658.711	5.84
659.038	6.33
659.365	6.33
659.693	5.51
660.02	6.29
660.347	6.31
660.674	6.17
661.001	6.25
661.329	6.04
661.656	5.82
661.982	6.03
662.309	5.8
662.636	6.61
662.963	6.46
663.29	6.59
663.616	6.22
663.943	6.25
664.27	5.39
664.596	6.01
664.923	6.07
665.249	6.72
665.576	5.99
665.902	6.07
666.228	5.51
666.554	6.4
666.881	5.75
667.207	6.31
667.533	6.02
667.859	6.52
668.185	6.33
668.511	6.28
668.837	5.71
669.162	6.17
669.488	6.7
669.814	6.39
670.139	6.37
670.465	5.99
670.791	6.24
671.116	5.93
671.442	5.79
671.767	6.07
672.092	6.52
672.418	5.85
672.743	6.03
673.068	6.83
673.393	5.55
673.718	6.63
674.043	6.3
674.368	6.11
674.693	6.94
675.018	6.77
675.343	6.12
675.667	5.87
675.992	6.47
676.317	6.09
676.641	5.61
676.966	5.82
677.29	6.07
677.615	6.51
677.939	5.6
678.264	6.29
678.588	5.47
678.912	5.7
679.236	6.1
679.56	6.14
679.885	6.2
680.209	5.49
680.532	6.79
680.856	6.17
681.18	6.36
681.504	6.3
681.828	5.94
682.152	6.15
682.475	6.43
682.799	5.78
683.122	6.05
683.446	6.38
683.769	6.26
684.093	6.04
684.416	6.07
684.739	5.74
685.062	6.44
685.386	6.11
685.709	5.92
686.032	6.56
686.355	6.11
686.678	6.57
687.001	5.81
687.324	6
687.646	6.92
687.969	5.89
688.292	5.8
688.614	5.64
688.937	5.98
689.26	7.04
689.582	5.93
689.904	6.15
690.227	6.4
690.549	6.45
690.871	6.52
691.194	5.75
691.516	5.41
691.838	6.81
692.16	6.53
692.482	5.4
692.804	6.12
693.126	7
693.448	6.11
693.769	6.09
694.091	6.62
694.413	6.92
694.735	6.04
695.056	6.84
695.378	6.76
695.699	5.96
696.021	7.01
696.342	7.21
696.663	6.88
696.984	6.1
697.306	6.37
697.627	7.3
697.948	6.02
698.269	6.5
698.59	6.11
698.911	6.9
699.232	6.7
699.553	6.13
699.873	6.48
700.194	6.62
700.515	6.05
700.835	6.4
701.156	6.18
701.477	6.63
701.797	6.35
702.117	6.12
702.438	5.79
702.758	6.24
703.078	5.49
703.398	6.38
703.719	6.52
704.039	5.53
704.359	6.47
704.679	7.05
704.999	5.31
705.319	6.88
705.638	5.86
705.958	6.84
706.278	6.36
706.597	6.71
706.917	6.31
707.237	7.2
707.556	6.38
707.876	6.72
708.195	8.13
708.514	6.66
708.834	6.41
709.153	6.75
709.472	7.26
709.791	6.53
710.11	6.63
710.429	5.53
710.748	6.92
711.067	6.58
711.386	5.96
711.705	6.55
712.023	7.01
712.342	6.83
712.661	7.25
712.979	6.51
713.298	7.18
713.616	6.88
713.935	7.09
714.253	6.1
714.572	6.39
714.89	6.45
715.208	6.51
715.526	6.15
715.844	7.14
716.162	7.38
716.48	5.93
716.798	5.55
717.116	6.58
717.434	7.48
717.752	7.25
718.069	6.78
718.387	7.37
718.705	7.29
719.022	6.42
719.34	6.93
719.657	6.9
719.975	5.36
720.292	5.72
720.609	7.21
720.927	6.13
721.244	6.48
721.561	7.72
721.878	4.47
722.195	6.31
722.512	7.3
722.829	5.71
723.146	7.34
723.463	6.19
723.779	5.27
724.096	6.94
724.413	7.14
724.729	5.04
725.046	6.77
725.362	7.05
725.679	6.38
725.995	6.53
726.311	5.39
726.628	5.13
726.944	7.31
727.26	6.02
727.576	7.23
727.892	6
728.208	6.88
728.524	6.99
728.84	6.85
729.156	6.47
729.472	7.81
729.787	7
730.103	6.96
730.419	5.8
730.734	6.63
731.05	7.19
731.365	6.17
731.681	6.13
731.996	7.89
732.311	6.59
732.626	6.01
732.942	7.73
733.257	7.14
733.572	6.02
733.887	6.69
734.202	7.69
734.517	7.03
734.832	6.27
735.146	7.44
735.461	6.41
735.776	6.5
736.091	6.2
736.405	7.15
736.72	6.88
737.034	7.62
737.349	6.13
737.663	7.62
737.977	6.32
738.292	6.54
738.606	7.64
738.92	6.27
739.234	8.54
739.548	5.29
739.862	6.64
740.176	6.71
740.49	6.43
740.804	7.18
741.117	6.04
741.431	7.93
741.745	8.8
742.058	7.49
742.372	6.24
742.685	5.87
742.999	7.47
743.312	8.47
743.626	6.2
743.939	5.7
744.252	6.89
744.565	7.72
744.878	6.34
745.191	5.17
745.505	5.29
745.817	7.48
746.13	6.58
746.443	8.17
746.756	7.43
747.069	5.53
747.381	6.03
747.694	6.72
748.007	8.54
748.319	7.34
748.632	7.9
748.944	6.25
749.256	7.22
749.569	7.24
749.881	8.15
750.193	8.03
750.505	8.55
750.817	8.81
751.129	6.09
751.441	8.07
751.753	7.21
752.065	7.81
752.377	6.57
752.689	8.32
753	7
753.312	7.89
753.624	7.44
753.935	6.51
754.247	7.44
754.558	9.06
754.869	7.6
755.181	7.54
755.492	7.24
755.803	7.94
756.114	7.02
756.425	8.04
756.736	6.61
757.047	7.67
757.358	7.03
757.669	7.13
757.98	7.24
758.291	7.43
758.601	9.36
758.912	8.51
759.223	6.26
759.533	9.31
759.844	6.87
760.154	8.08
760.464	9.1
760.775	5.75
761.085	6.85
761.395	7.33
761.705	6.13
762.016	7.73
762.326	7.84
762.636	8.63
762.945	6.5
763.255	8.57
763.565	9.03
763.875	7.67
764.185	7.74
764.494	8.81
764.804	8.43
765.113	7.65
765.423	7.11
765.732	6.42
766.042	8.13
766.351	7.33
766.66	7.01
766.97	7.57
767.279	7.45
767.588	7.62
767.897	6.75
768.206	7.24
768.515	7.26
768.824	7.08
769.133	7.58
769.441	8.13
769.75	7.06
770.059	7.41
770.367	8.91
770.676	7.85
770.984	6.43
771.293	8.25
771.601	4.61
771.91	10.1
772.218	8.36
772.526	6.33
772.834	7.82
773.142	9.74
773.45	4.58
773.758	7.57
774.066	7.12
774.374	7.8
774.682	10.27
774.99	6.93
775.298	7.4
775.605	6.56
775.913	6.03
776.22	6.04
776.528	9.44
776.835	9.44
777.143	5.12
777.45	6.83
777.757	7.96
778.065	9.42
778.372	5.73
778.679	9.13
778.986	8.33
779.293	8.69
779.6	6.88
779.907	8.38
780.214	10.64
780.52	8.82
780.827	11.24
781.134	7.12
781.44	10.78
781.747	11.53
782.053	4.64
782.36	9.74
782.666	6.82
782.973	8.99
783.279	6.96
783.585	8.77
783.891	8.49
784.197	6.78
784.503	10.5
784.809	11.85
785.115	8.17
785.421	8.26
785.727	7.56
786.033	6.38
786.339	8.75
786.644	6.6
786.95	9.19
787.255	5.9
787.561	8.09
787.866	9.13
788.172	7.25
788.477	4.87
788.782	10.82
789.088	6.7
789.393	7.77
789.698	5.66
790.003	11.03
790.308	7.36
790.613	7.14
790.918	6.25
791.223	7.22
791.527	4.91
791.832	7.93
792.137	7.93
792.441	12.86
792.746	6.05
793.05	7.44
793.355	4.88
793.659	9.5
793.963	7.26
794.268	11.85
794.572	10.67
794.876	3.35
795.18	6.52
795.484	8.55
795.788	12.19
796.092	11.41
796.396	10.46
796.7	10.2
797.004	9.88
797.307	8.54
797.611	6.18
797.915	5.98
798.218	7.24
798.522	11.82
798.825	4.76
799.128	5.85
799.432	10.54
799.735	5.96
800.038	5.3
800.341	5.48
800.644	7.29
800.947	9.41
801.25	5.33
801.553	11.27
801.856	5.13
802.159	8.13
802.462	9.48
802.764	9.95
803.067	5.9
803.37	12.81
803.672	10.52
803.975	10.23
804.277	8.05
804.579	8.52
804.882	10.69
805.184	9.92
805.486	11.33
805.788	9.19
806.09	2.45
806.392	9.05
806.694	8.9
806.996	9.94
807.298	7.78
807.6	9.18
807.902	6.86
808.203	5.52
808.505	10.36
808.807	8.19
809.108	18.36
809.409	2.13
809.711	11.84
810.012	4.38
810.313	10.52
810.615	2.54
810.916	3.53
811.217	9.62
811.518	9.47
811.819	11.02
812.12	6.47
812.421	3.64
812.722	10.74
813.023	5.05
813.323	7.94
813.624	11.46
813.925	7.92
814.225	15.65
814.526	7.48
814.826	15.57
815.126	12.9
815.427	5.54
815.727	3.76
816.027	13.59
816.327	10.7
816.627	6.99
816.927	10.17
817.227	6.32
817.527	3.35
817.827	5.17
818.127	10.13
818.427	9.58
818.727	11.5
819.026	12.81
819.326	9.62
819.625	7.16
819.925	2.29
820.224	11.94
820.524	12.13
820.823	8.22
821.122	15.73
821.421	12.9
821.72	9.79
822.019	7.46
822.318	11.27
822.617	9.44
822.916	5.8
823.215	4.32
823.514	10.68
823.813	10.54
824.111	11.36
824.41	8.97
824.709	8.25
825.007	8.73
825.306	9.07
825.604	8.55
825.902	8.96
826.201	9.53
826.499	9.71
826.797	10.09
827.095	9.23
827.393	9.42
827.691	7.29
827.989	10.3
828.287	8.73
828.585	8.18
828.882	5.73
829.18	9.5
829.478	9.75
829.775	8.22
830.073	8.3
830.37	7.84
830.668	9.05
830.965	7.86
831.263	8.88
831.56	9.78
831.857	11.61
832.154	8.49
832.451	7.94
832.748	6.93
833.045	-0.53
833.342	5.5
833.639	6.08
833.936	9.97
834.232	14.81
834.529	10.21
834.826	15.95
835.122	3.37
835.419	8.28
835.715	9.51
836.012	6.07
836.308	4.53
836.604	12.31
836.901	8.92
837.197	11.38
837.493	9.35
837.789	12.26
838.085	7.63
838.381	10.38
838.677	8.7
838.972	7.17
839.268	11.12
839.564	8.66
839.86	15.02
840.155	14.12
840.451	5.38
840.746	7.87
841.042	5.8
841.337	6.47
841.632	10.8
841.928	10.34
842.223	3.77
842.518	8.55
842.813	8.98
843.108	8.82
843.403	15.72
843.698	10.54
843.993	6.91
844.287	14.35
844.582	5.8
844.877	8.94
845.171	16.75
845.466	4.84
845.761	14.93
846.055	6.63
846.349	1.08
846.644	1.18
846.938	4.81
847.232	3.93
847.526	20.7
847.82	5.68
848.114	6.24
848.408	3.3
848.702	-14.72
848.996	13.49
849.29	-15.67
849.584	15.5
849.877	24.28
850.171	6.76
850.465	17.88
850.758	6.12
851.052	7.03
851.345	0.82
851.638	-10.43
851.932	11.34
852.225	-15.82
852.518	25.69
852.811	-0.15
853.104	14.4
853.397	-9.38
853.69	19.24
853.983	-21.35
854.276	12.3
854.569	20.96
854.861	10.44
855.154	-2.62
855.447	9.18
855.739	8.64
856.032	25.78
856.324	-5.17
856.616	4.28
856.909	27.34
857.201	-21.44
857.493	24.07
857.785	8.86
858.077	-4.15
858.369	6.96
858.661	17.77
858.953	11.42
859.245	15.5
859.537	15.32
859.829	12.75
860.12	15.76
860.412	10.17
860.703	8.2
860.995	-4.19
861.286	20.2
861.578	-4.74
861.869	14.34
862.16	6.11
862.452	23.76
862.743	25.76
863.034	6.94
863.325	-6.1
863.616	1.09
863.907	13.4
864.198	3.45
864.488	13.86
864.779	0.43
865.07	-13.26
865.36	16.7
865.651	-10.17
865.941	-26.9
866.232	14.39
866.522	-9.68
866.813	13.73
867.103	7.83
867.393	5.67
867.683	0.25
867.973	-10.69
868.263	-7.27
868.553	14.84
868.843	7.13
869.133	-21.54
869.423	19.93
869.713	-4.44
870.002	15.32
870.292	19.76
870.582	17.06
870.871	20.51
871.161	-7.18
871.45	-38.04
871.739	2.17
872.029	16.06
872.318	9.29
872.607	-19.01
872.896	-25.67
873.185	-16.32
873.474	44.48
873.763	13.41
874.052	11.36
874.341	5.92
874.63	-8.19
874.918	-0.2
875.207	9.63
875.496	6.88
875.784	3.37
876.073	-1.24
876.361	17.98
876.649	-8.32
876.938	17.16
877.226	23.31
877.514	19.34
877.802	-19.83
878.09	1.19
878.378	20.04
878.666	-25.04
878.954	18.1
879.242	5.56
879.53	11.9
879.817	19.79
880.105	8.24
880.392	14.26
880.68	4.18
880.967	21.24
881.255	5.55
881.542	12.26
881.83	-4.22
882.117	25.81
882.404	20.32
882.691	-14.71
882.978	21.48
883.265	-13.79
883.552	-1.65
883.839	8.52
884.126	-3.61
884.413	13.52
884.699	17.1
884.986	8.29
885.273	14.39
885.559	14.39
885.846	14.39
