Data from 23-3_chest_Reflection__0__15.txt Node

Date: Thu Feb 29 21:59:54 CST 2024
User: ToomeyLab
Spectrometer: FLMS14357
Trigger mode: 0
Integration Time (sec): 1.000000E-2
Scans to average: 100
Electric dark correction enabled: true
Nonlinearity correction enabled: false
Boxcar width: 0
XAxis mode: Wavelengths
Number of Pixels in Spectrum: 2048
>>>>>Begin Spectral Data<<<<<
189.047	-68.4
189.435	-68.4
189.823	-68.4
190.211	279.83
190.599	56.37
190.987	-231.91
191.375	-33.95
191.763	48.23
192.151	104.73
192.538	-0.68
192.926	104.57
193.314	-462.59
193.702	127.09
194.089	-9808.11
194.477	-1.03
194.864	101.58
195.252	336.66
195.639	-497.04
196.027	-170.46
196.414	189.39
196.801	23.94
197.189	92.94
197.576	-138.38
197.963	-28.72
198.351	6.5
198.738	-19.72
199.125	14.23
199.512	-36.42
199.899	-21.31
200.286	-130.46
200.673	32.22
201.06	-48
201.447	-124.17
201.833	27.78
202.22	-13.21
202.607	-97.54
202.994	-112.82
203.38	-6.62
203.767	2.07
204.154	18.57
204.54	0.72
204.927	8.83
205.313	43.69
205.699	-57.36
206.086	-2.84
206.472	-2.66
206.858	-39.04
207.245	1.24
207.631	-17.17
208.017	23.42
208.403	-104.75
208.789	6.24
209.175	-44.3
209.561	6.33
209.947	-6.14
210.333	8.52
210.719	14.15
211.105	1.17
211.491	-43.44
211.876	11.47
212.262	25.29
212.648	-33.12
213.034	19.7
213.419	17.24
213.805	17.97
214.19	8.96
214.576	-8.51
214.961	-10.11
215.346	-7.7
215.732	6.61
216.117	-45.93
216.502	15.45
216.888	-20.17
217.273	-4.89
217.658	32.74
218.043	3.18
218.428	-19.29
218.813	33.74
219.198	17.27
219.583	-11.11
219.968	-6.81
220.353	-14.51
220.738	18.77
221.122	-16.66
221.507	6.07
221.892	0.67
222.276	20.6
222.661	15.28
223.046	5.78
223.43	-19.83
223.815	-8.92
224.199	-6.62
224.583	-12.21
224.968	-1.32
225.352	6.04
225.736	-4.39
226.121	-1.99
226.505	6.17
226.889	4.05
227.273	-3.19
227.657	-12.22
228.041	0.36
228.425	7.73
228.809	6.18
229.193	-1.12
229.577	3.01
229.961	-0.86
230.344	0.02
230.728	1.41
231.112	2.74
231.495	1.71
231.879	1.3
232.263	-1.07
232.646	2.93
233.03	1.71
233.413	0.78
233.797	2.59
234.18	-0.74
234.563	0.45
234.946	0.71
235.33	2.93
235.713	0.84
236.096	2.01
236.479	2.78
236.862	3.22
237.245	0.77
237.628	1.29
238.011	2.96
238.394	2.06
238.777	1.58
239.16	2.42
239.543	1.05
239.925	1.83
240.308	1.7
240.691	3.37
241.073	0.77
241.456	1.11
241.838	1.01
242.221	1.77
242.603	1.7
242.986	2.58
243.368	1.38
243.75	2.57
244.133	1.97
244.515	1.86
244.897	2.41
245.279	2.75
245.661	1.82
246.043	1.86
246.425	3.06
246.807	2.99
247.189	0.45
247.571	1.49
247.953	2.09
248.335	1.7
248.717	1.9
249.098	1.99
249.48	1.9
249.862	1.84
250.243	2.11
250.625	1.69
251.006	2.18
251.388	2.25
251.769	0.92
252.151	2.39
252.532	0.44
252.913	1.01
253.295	1.96
253.676	2.03
254.057	1.46
254.438	2.37
254.819	2.95
255.2	0.84
255.581	2.26
255.962	2.75
256.343	1.99
256.724	1.28
257.105	2.61
257.486	1.77
257.867	2.1
258.247	2.88
258.628	1.24
259.009	1.93
259.389	1.1
259.77	2.91
260.15	3.02
260.531	2.26
260.911	2.02
261.292	1.48
261.672	2.2
262.052	1.8
262.432	1.99
262.813	0.84
263.193	1.49
263.573	2.21
263.953	1.94
264.333	1.91
264.713	1.67
265.093	2.57
265.473	2.11
265.853	2.42
266.233	2.39
266.612	2.64
266.992	0.92
267.372	0.96
267.752	2.2
268.131	2.2
268.511	2.57
268.89	2.2
269.27	2.11
269.649	1.58
270.029	1.24
270.408	2.03
270.787	1.17
271.167	1.6
271.546	1.99
271.925	1.87
272.304	2.78
272.683	2.77
273.062	1.57
273.441	2.05
273.82	2.08
274.199	2.22
274.578	1.9
274.957	1.82
275.336	2.53
275.715	2.01
276.093	1.68
276.472	2.75
276.851	1.93
277.229	1.69
277.608	1.63
277.986	1.36
278.365	2.05
278.743	1.93
279.122	1.98
279.5	2.3
279.878	1.77
280.257	1.96
280.635	1.74
281.013	1.61
281.391	1.41
281.769	2.29
282.147	1.89
282.525	2.25
282.903	1.86
283.281	2.12
283.659	2.22
284.037	1.72
284.415	1.69
284.792	1.53
285.17	1.4
285.548	1.73
285.925	1.95
286.303	2.07
286.68	1.38
287.058	1.89
287.435	1.99
287.813	2.04
288.19	1.97
288.567	2.23
288.945	2.23
289.322	2.4
289.699	2.03
290.076	2.21
290.453	1.87
290.83	1.72
291.207	1.75
291.584	1.77
291.961	2.15
292.338	2.54
292.715	2.17
293.092	1.82
293.469	2.16
293.845	2.32
294.222	1.64
294.599	1.27
294.975	2.07
295.352	2.47
295.728	2.57
296.105	2.16
296.481	1.66
296.858	2.37
297.234	1.58
297.61	2.07
297.986	2.07
298.363	2.05
298.739	2
299.115	2.3
299.491	2.23
299.867	2.1
300.243	2.07
300.619	2.61
300.995	2.12
301.371	2.29
301.746	2.01
302.122	2.7
302.498	1.95
302.874	2.32
303.249	2.27
303.625	1.89
304	2.33
304.376	2.63
304.751	2.2
305.127	2.09
305.502	1.74
305.878	2.7
306.253	1.83
306.628	2.26
307.003	2.67
307.378	2.8
307.754	2.99
308.129	2.12
308.504	2.58
308.879	2.13
309.254	2.14
309.629	2.63
310.003	2.2
310.378	2.16
310.753	2.28
311.128	2.31
311.502	2.47
311.877	2.39
312.252	2.71
312.626	2.32
313.001	2.17
313.375	2.8
313.75	2.62
314.124	2.51
314.498	2.39
314.873	1.84
315.247	1.51
315.621	2.74
315.995	2.4
316.369	2.45
316.743	1.98
317.117	2.66
317.491	2.06
317.865	2.12
318.239	2.74
318.613	3.1
318.987	2.86
319.361	1.94
319.734	3
320.108	2.48
320.482	2.82
320.855	2.48
321.229	2.54
321.602	3.07
321.976	2.44
322.349	2.02
322.723	2.75
323.096	3.05
323.469	2.12
323.843	1.96
324.216	2.46
324.589	1.82
324.962	2.46
325.335	2.26
325.708	2.94
326.081	2.23
326.454	2.41
326.827	2.78
327.2	3.03
327.573	2.68
327.945	2.69
328.318	2.04
328.691	2.82
329.063	2.33
329.436	2.77
329.809	2.2
330.181	3.25
330.553	2.83
330.926	1.98
331.298	2.54
331.671	2.85
332.043	2.34
332.415	2.75
332.787	2.31
333.159	2.26
333.532	2.59
333.904	2.5
334.276	2.64
334.648	2.64
335.02	1.77
335.391	1.86
335.763	2.12
336.135	2.04
336.507	2.12
336.879	2.58
337.25	2.41
337.622	2.44
337.993	3.17
338.365	2.25
338.736	2.28
339.108	2.45
339.479	2.59
339.851	2.43
340.222	2.91
340.593	2.38
340.964	2.99
341.336	2.74
341.707	2.37
342.078	2.07
342.449	2.9
342.82	2.74
343.191	2.69
343.562	2.67
343.933	2.38
344.303	2.86
344.674	2.93
345.045	3.36
345.416	2.79
345.786	2.76
346.157	3.06
346.527	2.81
346.898	3.19
347.268	2.79
347.639	2.95
348.009	2.99
348.38	2.54
348.75	3.08
349.12	2.61
349.49	3.25
349.861	2.56
350.231	2.41
350.601	2.9
350.971	3.12
351.341	3.09
351.711	3.13
352.081	3.13
352.45	2.86
352.82	2.52
353.19	3.31
353.56	2.92
353.929	3.05
354.299	1.98
354.669	2.81
355.038	2.94
355.408	2.89
355.777	3.11
356.147	2.84
356.516	3.12
356.885	2.42
357.254	2.76
357.624	2.51
357.993	2.92
358.362	2.85
358.731	2.92
359.1	3.42
359.469	3.18
359.838	2.87
360.207	3.05
360.576	2.47
360.945	2.47
361.314	2.74
361.682	2.69
362.051	2.86
362.42	3.12
362.788	2.78
363.157	2.78
363.525	2.7
363.894	3.06
364.262	2.85
364.631	2.92
364.999	2.31
365.367	2.7
365.735	2.61
366.104	3.36
366.472	2.56
366.84	3.07
367.208	2.94
367.576	2.69
367.944	2.69
368.312	2.96
368.68	3.13
369.048	3.08
369.416	3.05
369.783	3.19
370.151	3.02
370.519	2.87
370.886	3.1
371.254	3.33
371.621	3.16
371.989	2.87
372.356	2.98
372.724	3.09
373.091	3.11
373.458	3.03
373.826	3.05
374.193	3.02
374.56	2.98
374.927	3.44
375.294	3
375.661	3.26
376.028	3.28
376.395	2.94
376.762	3.42
377.129	2.9
377.496	3.5
377.863	3.17
378.229	2.84
378.596	2.96
378.963	3.01
379.329	3.07
379.696	2.84
380.062	3.17
380.429	3.28
380.795	3.27
381.161	3.35
381.528	2.81
381.894	2.94
382.26	2.71
382.626	3.09
382.993	3.05
383.359	3.34
383.725	2.75
384.091	3.27
384.457	3.01
384.823	3.41
385.188	2.95
385.554	3.03
385.92	3.22
386.286	2.56
386.651	3.11
387.017	3.01
387.383	3.12
387.748	3.06
388.114	2.94
388.479	3.39
388.845	3.12
389.21	3.26
389.575	2.85
389.94	3.12
390.306	3.07
390.671	3.16
391.036	3.2
391.401	3.31
391.766	3.15
392.131	3.07
392.496	3.34
392.861	3.2
393.226	3.65
393.591	3.22
393.956	3.23
394.32	3.17
394.685	3.28
395.05	3.28
395.414	3.23
395.779	3.07
396.143	3.56
396.508	3.19
396.872	3.3
397.236	3.11
397.601	3.31
397.965	3.53
398.329	3.15
398.694	2.75
399.058	3.21
399.422	2.91
399.786	2.96
400.15	3.07
400.514	2.95
400.878	3.01
401.242	3.01
401.605	3.49
401.969	3.5
402.333	3.16
402.697	3
403.06	3.42
403.424	3.42
403.787	3.25
404.151	3.29
404.514	3.14
404.878	3
405.241	3.33
405.604	3.15
405.968	2.99
406.331	2.98
406.694	3.26
407.057	3.31
407.42	3.32
407.783	3.21
408.146	3.47
408.509	3.29
408.872	3.25
409.235	3.14
409.598	3.37
409.961	3.19
410.323	3.46
410.686	3.2
411.049	3.09
411.411	3.15
411.774	3.22
412.136	3.29
412.499	3.29
412.861	3.25
413.223	3.17
413.586	3.28
413.948	3.25
414.31	3.41
414.672	3.12
415.035	3.36
415.397	3.28
415.759	3.26
416.121	3.59
416.483	3.25
416.845	3.23
417.206	3.41
417.568	3.31
417.93	3.26
418.292	3.43
418.653	3.44
419.015	3.33
419.377	3.23
419.738	3.32
420.1	3.48
420.461	3.23
420.822	3.32
421.184	3.12
421.545	3.23
421.906	3.32
422.267	3.36
422.629	3.33
422.99	3.27
423.351	3.39
423.712	3.3
424.073	3.17
424.434	3.21
424.795	3.23
425.155	3.38
425.516	3.26
425.877	3.28
426.238	3.27
426.598	3.34
426.959	3.44
427.32	3.39
427.68	3.37
428.041	3.34
428.401	3.42
428.761	3.55
429.122	3.34
429.482	3.3
429.842	3.53
430.202	3.44
430.563	3.35
430.923	3.44
431.283	3.39
431.643	3.37
432.003	3.55
432.363	3.22
432.722	3.64
433.082	3.36
433.442	3.6
433.802	3.37
434.161	3.69
434.521	3.48
434.881	3.42
435.24	3.49
435.6	3.28
435.959	3.56
436.319	3.61
436.678	3.34
437.037	3.41
437.396	3.64
437.756	3.55
438.115	3.42
438.474	3.43
438.833	3.68
439.192	3.49
439.551	3.45
439.91	3.51
440.269	3.6
440.628	3.49
440.987	3.6
441.345	3.51
441.704	3.58
442.063	3.56
442.421	3.52
442.78	3.55
443.138	3.42
443.497	3.45
443.855	3.67
444.214	3.83
444.572	3.63
444.93	3.51
445.288	3.69
445.647	3.43
446.005	3.61
446.363	3.52
446.721	3.51
447.079	3.41
447.437	3.54
447.795	3.53
448.153	3.54
448.51	3.54
448.868	3.49
449.226	3.63
449.584	3.51
449.941	3.63
450.299	3.61
450.656	3.56
451.014	3.54
451.371	3.58
451.729	3.76
452.086	3.61
452.443	3.55
452.801	3.55
453.158	3.78
453.515	3.78
453.872	3.69
454.229	3.51
454.586	3.52
454.943	3.62
455.3	3.55
455.657	3.74
456.014	3.74
456.371	3.67
456.727	3.69
457.084	3.5
457.441	3.78
457.797	3.7
458.154	3.67
458.51	3.71
458.867	3.9
459.223	3.63
459.58	3.62
459.936	3.61
460.292	3.65
460.648	3.62
461.005	3.68
461.361	3.61
461.717	3.61
462.073	3.6
462.429	3.79
462.785	3.73
463.141	3.8
463.496	3.72
463.852	3.8
464.208	3.62
464.564	3.79
464.919	3.92
465.275	3.74
465.631	3.79
465.986	3.92
466.342	3.72
466.697	3.69
467.052	3.66
467.408	3.92
467.763	3.96
468.118	3.72
468.473	3.95
468.829	3.85
469.184	3.92
469.539	3.89
469.894	3.71
470.249	3.74
470.603	3.85
470.958	4.08
471.313	3.64
471.668	3.83
472.023	3.82
472.377	3.71
472.732	4.03
473.086	4.08
473.441	3.75
473.795	4
474.15	3.87
474.504	3.97
474.859	3.93
475.213	3.98
475.567	4
475.921	4.08
476.275	3.96
476.63	3.94
476.984	3.89
477.338	3.97
477.692	3.8
478.045	3.88
478.399	3.88
478.753	4.02
479.107	4.04
479.461	4.01
479.814	3.9
480.168	3.91
480.521	3.91
480.875	4
481.228	3.93
481.582	4.24
481.935	4.02
482.289	4.07
482.642	3.94
482.995	3.9
483.348	3.97
483.701	3.96
484.055	3.96
484.408	3.95
484.761	3.98
485.114	3.8
485.466	3.65
485.819	3.7
486.172	3.74
486.525	3.84
486.878	3.89
487.23	3.97
487.583	4.02
487.936	4.05
488.288	3.94
488.641	3.87
488.993	3.88
489.345	3.86
489.698	3.84
490.05	3.81
490.402	4
490.754	4.03
491.107	4.08
491.459	4.08
491.811	4.15
492.163	4.06
492.515	4.07
492.866	4.02
493.218	3.96
493.57	3.9
493.922	4.02
494.274	3.98
494.625	4.09
494.977	4.12
495.328	4.14
495.68	4.23
496.031	4.13
496.383	4.05
496.734	4.27
497.086	4.25
497.437	4.3
497.788	4.2
498.139	4.27
498.49	4.24
498.842	4.22
499.193	4.32
499.544	4.24
499.894	4.24
500.245	4.2
500.596	4.18
500.947	4.24
501.298	4.38
501.648	4.24
501.999	4.4
502.35	4.33
502.7	4.53
503.051	4.46
503.401	4.25
503.752	4.32
504.102	4.42
504.452	4.34
504.803	4.53
505.153	4.37
505.503	4.38
505.853	4.52
506.203	4.4
506.553	4.46
506.903	4.32
507.253	4.62
507.603	4.49
507.953	4.44
508.303	4.47
508.652	4.44
509.002	4.59
509.352	4.49
509.701	4.54
510.051	4.38
510.4	4.46
510.75	4.38
511.099	4.37
511.449	4.51
511.798	4.5
512.147	4.54
512.496	4.53
512.846	4.44
513.195	4.56
513.544	4.53
513.893	4.54
514.242	4.59
514.591	4.54
514.939	4.49
515.288	4.69
515.637	4.63
515.986	4.62
516.334	4.59
516.683	4.66
517.032	4.65
517.38	4.67
517.729	4.67
518.077	4.73
518.426	4.55
518.774	4.57
519.122	4.69
519.47	4.65
519.819	4.66
520.167	4.62
520.515	4.6
520.863	4.65
521.211	4.56
521.559	4.72
521.907	4.74
522.255	4.69
522.602	4.66
522.95	4.71
523.298	4.72
523.645	4.69
523.993	4.88
524.341	4.8
524.688	4.75
525.036	4.77
525.383	4.91
525.73	4.9
526.078	5.02
526.425	4.94
526.772	4.83
527.119	4.9
527.466	4.81
527.814	4.75
528.161	4.93
528.508	4.87
528.854	4.84
529.201	4.87
529.548	4.75
529.895	4.72
530.242	4.61
530.588	4.67
530.935	4.75
531.282	4.79
531.628	4.83
531.975	4.94
532.321	4.99
532.667	4.93
533.014	5.1
533.36	5
533.706	5.08
534.052	4.96
534.399	5.06
534.745	4.92
535.091	4.82
535.437	4.97
535.783	5.01
536.129	5.06
536.474	5.14
536.82	5.14
537.166	5.16
537.512	5.33
537.857	5.2
538.203	5.14
538.549	5.07
538.894	5.17
539.239	5.24
539.585	5.19
539.93	5.26
540.276	5.45
540.621	5.22
540.966	5.27
541.311	5.26
541.656	5.42
542.001	5.38
542.346	5.37
542.691	5.13
543.036	5.25
543.381	5.12
543.726	5.2
544.071	5.31
544.415	5.36
544.76	5.38
545.105	5.32
545.449	5.38
545.794	5.43
546.138	5.6
546.483	5.54
546.827	5.54
547.171	5.57
547.516	5.69
547.86	5.45
548.204	5.43
548.548	5.52
548.892	5.59
549.236	5.8
549.58	5.66
549.924	5.67
550.268	5.71
550.612	5.8
550.956	5.68
551.3	5.79
551.643	5.69
551.987	5.81
552.33	5.91
552.674	6.08
553.017	5.74
553.361	5.81
553.704	5.8
554.048	5.86
554.391	5.93
554.734	5.99
555.077	5.95
555.42	6.03
555.764	5.9
556.107	6.13
556.45	5.99
556.793	6.03
557.135	6.12
557.478	5.98
557.821	6.13
558.164	6.25
558.507	6.1
558.849	6.29
559.192	6.09
559.534	6.28
559.877	6.27
560.219	6.15
560.562	6.12
560.904	6.42
561.246	6.09
561.589	6.42
561.931	6.14
562.273	6.68
562.615	6.38
562.957	6.52
563.299	6.51
563.641	6.45
563.983	6.45
564.325	6.44
564.667	6.57
565.008	6.53
565.35	6.68
565.692	6.63
566.033	6.78
566.375	6.38
566.716	6.62
567.058	6.65
567.399	6.76
567.741	6.77
568.082	6.84
568.423	6.53
568.764	6.74
569.105	6.61
569.447	6.74
569.788	6.82
570.129	6.68
570.47	6.86
570.811	6.94
571.151	7.16
571.492	7.02
571.833	7.11
572.174	6.92
572.514	7.09
572.855	7.08
573.195	7.21
573.536	7.14
573.876	7.01
574.217	7.2
574.557	7
574.898	7.25
575.238	7.07
575.578	7.26
575.918	7.07
576.258	7.07
576.598	7.21
576.938	7.29
577.278	7.11
577.618	7.23
577.958	7.31
578.298	7.29
578.638	7.23
578.977	7.31
579.317	7.47
579.657	7.5
579.996	7.56
580.336	7.61
580.675	7.53
581.014	7.78
581.354	7.37
581.693	7.69
582.032	7.72
582.372	7.94
582.711	7.88
583.05	7.87
583.389	7.97
583.728	7.56
584.067	7.95
584.406	7.68
584.745	7.98
585.083	7.78
585.422	7.96
585.761	7.88
586.1	8.15
586.438	8.09
586.777	8.07
587.115	8.01
587.454	7.93
587.792	7.84
588.13	8.19
588.469	7.76
588.807	8.28
589.145	8.3
589.483	8.46
589.821	8.08
590.159	8.15
590.497	8.13
590.835	8.27
591.173	8.41
591.511	8.53
591.849	8.6
592.187	8.33
592.524	8.43
592.862	8.31
593.2	8.36
593.537	8.39
593.875	8.64
594.212	8.43
594.55	8.71
594.887	8.69
595.224	8.73
595.561	8.79
595.899	8.81
596.236	8.39
596.573	8.85
596.91	8.81
597.247	8.69
597.584	8.64
597.921	8.56
598.258	8.65
598.594	8.8
598.931	8.86
599.268	8.73
599.604	9.03
599.941	8.89
600.277	9.14
600.614	9.2
600.95	9.28
601.287	9.2
601.623	9.27
601.959	9.08
602.296	8.93
602.632	9.2
602.968	9.23
603.304	9.34
603.64	9.19
603.976	9.32
604.312	9.53
604.648	9.28
604.984	9.51
605.319	9.54
605.655	9.3
605.991	9.27
606.326	9.46
606.662	9.62
606.998	9.41
607.333	9.48
607.668	9.73
608.004	9.63
608.339	9.57
608.674	9.73
609.01	9.78
609.345	9.9
609.68	9.77
610.015	9.73
610.35	9.97
610.685	9.97
611.02	9.86
611.355	9.97
611.689	10.18
612.024	9.91
612.359	10.21
612.694	10.15
613.028	9.85
613.363	9.99
613.697	10.09
614.032	10.15
614.366	10.72
614.7	10.32
615.035	10.22
615.369	10.05
615.703	10.44
616.037	10.64
616.371	10.26
616.705	10.27
617.039	10.4
617.373	10.66
617.707	10.58
618.041	10.32
618.375	10.81
618.709	10.38
619.042	10.48
619.376	10.48
619.71	10.84
620.043	10.75
620.377	11.28
620.71	10.98
621.043	10.99
621.377	10.95
621.71	11.25
622.043	10.97
622.376	10.97
622.709	11.33
623.043	11.14
623.376	11.45
623.709	11.14
624.041	11.04
624.374	10.88
624.707	11.34
625.04	11.26
625.373	11.35
625.705	11.17
626.038	11.96
626.37	10.99
626.703	11.42
627.035	11.5
627.368	11.38
627.7	11.79
628.032	11.47
628.365	11.38
628.697	11.59
629.029	11.75
629.361	11.64
629.693	11.58
630.025	11.49
630.357	11.88
630.689	11.5
631.021	11.98
631.353	11.51
631.684	11.28
632.016	11.96
632.348	11.67
632.679	12.06
633.011	12.51
633.342	11.63
633.674	11.77
634.005	12.15
634.336	12.29
634.668	12.08
634.999	12.23
635.33	12.37
635.661	12.2
635.992	11.66
636.323	12.13
636.654	12.4
636.985	12.08
637.316	11.82
637.647	12.3
637.977	12.18
638.308	12.41
638.639	12.67
638.969	12.42
639.3	12.73
639.63	12.57
639.961	13.08
640.291	12.26
640.622	13.11
640.952	12.31
641.282	13.26
641.612	12.81
641.943	13.07
642.273	12.86
642.603	13.13
642.933	13.02
643.263	13.71
643.592	13.18
643.922	12.91
644.252	13.18
644.582	12.81
644.911	13.46
645.241	12.94
645.571	13.32
645.9	12.81
646.23	13.84
646.559	13
646.888	13.39
647.218	13.2
647.547	13.54
647.876	13.48
648.205	12.85
648.534	13.39
648.863	14.24
649.192	13.89
649.521	14.06
649.85	14.19
650.179	13.38
650.508	13.44
650.837	13.77
651.165	13.3
651.494	14.01
651.822	13.62
652.151	14.18
652.479	13.74
652.808	13.41
653.136	13.66
653.465	13.92
653.793	14.06
654.121	14.1
654.449	14.32
654.777	14.74
655.105	14.06
655.433	14.38
655.761	14.51
656.089	14.07
656.417	14.06
656.745	14.28
657.073	14.45
657.4	14.43
657.728	14.93
658.056	14.87
658.383	14.75
658.711	14.43
659.038	14.57
659.365	14.47
659.693	14.45
660.02	14.59
660.347	15.02
660.674	15.21
661.001	14.35
661.329	14.2
661.656	14.86
661.982	14.66
662.309	15.17
662.636	15.17
662.963	14.86
663.29	14.52
663.616	15.37
663.943	14.61
664.27	15.17
664.596	14.88
664.923	15.38
665.249	14.92
665.576	14.79
665.902	14.93
666.228	15.8
666.554	15.61
666.881	15.54
667.207	15.66
667.533	15.17
667.859	15.3
668.185	15.77
668.511	15.05
668.837	16.1
669.162	15.44
669.488	15.8
669.814	16.42
670.139	15.83
670.465	15.49
670.791	15.62
671.116	15.2
671.442	16.07
671.767	15.41
672.092	15.92
672.418	16.06
672.743	16.14
673.068	15.71
673.393	15.45
673.718	16.41
674.043	16.57
674.368	17.19
674.693	16.77
675.018	16.92
675.343	16.77
675.667	16.18
675.992	16.48
676.317	15.41
676.641	15.67
676.966	15.86
677.29	15.94
677.615	16.44
677.939	17.17
678.264	16.66
678.588	16.73
678.912	15.81
679.236	16.32
679.56	16.98
679.885	16.73
680.209	16.2
680.532	16.59
680.856	17.52
681.18	16.51
681.504	16.73
681.828	16.99
682.152	16.4
682.475	17.27
682.799	16.9
683.122	17.45
683.446	17.61
683.769	16.99
684.093	16.93
684.416	17.68
684.739	16.93
685.062	17.47
685.386	17.29
685.709	17.38
686.032	17.72
686.355	17.8
686.678	18.09
687.001	17.42
687.324	18.49
687.646	18.33
687.969	17.77
688.292	18.38
688.614	18.03
688.937	18.34
689.26	17.78
689.582	19.39
689.904	17.88
690.227	18.87
690.549	17.91
690.871	17.64
691.194	17.47
691.516	17.75
691.838	17.91
692.16	18.49
692.482	18.29
692.804	17.55
693.126	18.77
693.448	18.06
693.769	18.58
694.091	17.71
694.413	18.67
694.735	18.1
695.056	17.99
695.378	18.08
695.699	17.5
696.021	17.82
696.342	19.14
696.663	18.28
696.984	18.95
697.306	19.61
697.627	18.54
697.948	18.77
698.269	19.79
698.59	19.52
698.911	19.06
699.232	18.84
699.553	18.29
699.873	19.55
700.194	18.7
700.515	18.96
700.835	18.43
701.156	19.49
701.477	19.24
701.797	19.26
702.117	18.9
702.438	19.54
702.758	18.67
703.078	19.22
703.398	20.04
703.719	19.32
704.039	19.44
704.359	20.21
704.679	18.98
704.999	18.73
705.319	18.6
705.638	19.51
705.958	19.79
706.278	20.19
706.597	19.1
706.917	20.93
707.237	21.05
707.556	20.51
707.876	19.26
708.195	19.76
708.514	20.8
708.834	19.49
709.153	20.13
709.472	19.9
709.791	20.41
710.11	21
710.429	19.97
710.748	19.76
711.067	20.41
711.386	20.22
711.705	21.11
712.023	20.22
712.342	18.16
712.661	22.46
712.979	21.11
713.298	20.4
713.616	20.7
713.935	20.18
714.253	20.08
714.572	20.98
714.89	21.23
715.208	20.81
715.526	20
715.844	20.88
716.162	20.4
716.48	20.47
716.798	21.79
717.116	21.05
717.434	21.57
717.752	20.45
718.069	22.01
718.387	20.83
718.705	20.79
719.022	21.65
719.34	20.09
719.657	21.26
719.975	20.7
720.292	21.29
720.609	21.29
720.927	21.1
721.244	20.94
721.561	20.9
721.878	21.69
722.195	22.47
722.512	20.03
722.829	22.33
723.146	21.64
723.463	22.18
723.779	22.01
724.096	20.79
724.413	21.15
724.729	20.9
725.046	19.93
725.362	22.66
725.679	22.11
725.995	21.75
726.311	21.06
726.628	21.45
726.944	22.51
727.26	22.15
727.576	22.17
727.892	21.67
728.208	21.71
728.524	22.81
728.84	21.88
729.156	22.94
729.472	22.16
729.787	22.85
730.103	22.11
730.419	21.24
730.734	22.9
731.05	22.65
731.365	22.83
731.681	22.84
731.996	22.5
732.311	23.05
732.626	23.03
732.942	22.49
733.257	24.72
733.572	22.79
733.887	21.9
734.202	23.8
734.517	22.52
734.832	21.8
735.146	21.89
735.461	23.54
735.776	23.89
736.091	23.05
736.405	23.23
736.72	23.44
737.034	21.6
737.349	23.44
737.663	23.96
737.977	22.68
738.292	22.2
738.606	21.1
738.92	23.62
739.234	24.38
739.548	24.88
739.862	21.94
740.176	23.41
740.49	23.59
740.804	22.96
741.117	23.8
741.431	23.17
741.745	22.82
742.058	23.11
742.372	23.28
742.685	25.47
742.999	23.95
743.312	23.99
743.626	22.32
743.939	22.3
744.252	23.9
744.565	23.23
744.878	23.09
745.191	25.81
745.505	24.34
745.817	25.37
746.13	23.94
746.443	25.2
746.756	25.72
747.069	23.37
747.381	25.74
747.694	23.77
748.007	23.75
748.319	25.16
748.632	22.95
748.944	24.75
749.256	24.04
749.569	23.69
749.881	24.76
750.193	24.94
750.505	25.35
750.817	24.07
751.129	24.13
751.441	22.2
751.753	25.29
752.065	22.51
752.377	26.63
752.689	25.74
753	26.28
753.312	26.26
753.624	23.16
753.935	25.22
754.247	25.86
754.558	23.62
754.869	22.91
755.181	26.14
755.492	25.1
755.803	24.18
756.114	26.38
756.425	24.71
756.736	24.6
757.047	23.47
757.358	23.51
757.669	25.4
757.98	27.2
758.291	24.75
758.601	23.95
758.912	25.44
759.223	27.51
759.533	25.09
759.844	25.2
760.154	24.22
760.464	26.16
760.775	26.25
761.085	27.81
761.395	26.37
761.705	25.96
762.016	25.05
762.326	25.54
762.636	26.33
762.945	25.9
763.255	25.79
763.565	26.47
763.875	26.92
764.185	26.69
764.494	26.27
764.804	25.26
765.113	26.9
765.423	26.86
765.732	26.78
766.042	25.15
766.351	26.71
766.66	26.28
766.97	26
767.279	26.07
767.588	24.76
767.897	26.36
768.206	27.1
768.515	27.21
768.824	26.92
769.133	28.94
769.441	28.37
769.75	28.27
770.059	27.76
770.367	24.67
770.676	26.33
770.984	23.8
771.293	26.51
771.601	24.98
771.91	27.85
772.218	23.45
772.526	26.65
772.834	29.85
773.142	25.83
773.45	26.77
773.758	24.48
774.066	26.16
774.374	27.92
774.682	26.64
774.99	25.03
775.298	23.72
775.605	28.03
775.913	25.72
776.22	26.11
776.528	26.8
776.835	29.77
777.143	23.77
777.45	26.44
777.757	24.15
778.065	27.7
778.372	26.72
778.679	29.72
778.986	25.89
779.293	24.59
779.6	27.55
779.907	27.21
780.214	31.19
780.52	24.66
780.827	26.94
781.134	29.23
781.44	31.48
781.747	29.39
782.053	28.09
782.36	33.17
782.666	25.65
782.973	25.51
783.279	29.96
783.585	27.09
783.891	29.56
784.197	27.81
784.503	32.39
784.809	30.51
785.115	24.95
785.421	26.87
785.727	30.21
786.033	26.87
786.339	30.15
786.644	25.55
786.95	24.81
787.255	29.24
787.561	26.72
787.866	27.71
788.172	25.91
788.477	28.02
788.782	26.68
789.088	29.92
789.393	27.92
789.698	30.67
790.003	26.85
790.308	28.84
790.613	29.5
790.918	29.82
791.223	26.75
791.527	29.63
791.832	27.62
792.137	29.44
792.441	27.88
792.746	31.15
793.05	30.94
793.355	28.83
793.659	29.28
793.963	32.68
794.268	27.55
794.572	28.7
794.876	30.61
795.18	29.97
795.484	31.34
795.788	25.5
796.092	22.5
796.396	25.72
796.7	26.01
797.004	27.19
797.307	24.98
797.611	24.93
797.915	34.19
798.218	30.67
798.522	32.64
798.825	25.22
799.128	26.61
799.432	28.8
799.735	26.98
800.038	27.99
800.341	33.88
800.644	28.35
800.947	28.06
801.25	31.88
801.553	25.99
801.856	32.55
802.159	30.36
802.462	26.87
802.764	30.26
803.067	32.18
803.37	32.9
803.672	29.48
803.975	31.44
804.277	30.16
804.579	24.74
804.882	31.88
805.184	25.71
805.486	25.5
805.788	31.65
806.09	30.18
806.392	31.67
806.694	26.81
806.996	27.28
807.298	24.59
807.6	30.67
807.902	27.47
808.203	29.82
808.505	31.35
808.807	32.46
809.108	29.37
809.409	33.76
809.711	34.06
810.012	28.55
810.313	28.42
810.615	29.21
810.916	32.21
811.217	23.55
811.518	33.12
811.819	28.02
812.12	30.99
812.421	28.78
812.722	31.5
813.023	37.59
813.323	27.59
813.624	22.86
813.925	32.73
814.225	26.45
814.526	26.59
814.826	28.62
815.126	31.52
815.427	29.13
815.727	27.83
816.027	32.84
816.327	38.35
816.627	27.94
816.927	31.12
817.227	30.69
817.527	26.83
817.827	29.31
818.127	31.52
818.427	34.57
818.727	34.57
819.026	30.79
819.326	33.71
819.625	35.3
819.925	29.35
820.224	37.36
820.524	29.69
820.823	32.16
821.122	32.9
821.421	37.38
821.72	36.68
822.019	24.28
822.318	30.04
822.617	33.81
822.916	34.56
823.215	28.98
823.514	29.16
823.813	31.13
824.111	32.03
824.41	32.8
824.709	32.52
825.007	32.68
825.306	33.68
825.604	34.42
825.902	33.15
826.201	33.34
826.499	33.36
826.797	33.96
827.095	34.05
827.393	34.68
827.691	32.82
827.989	36.19
828.287	34.41
828.585	33.31
828.882	31.98
829.18	32.32
829.478	33
829.775	33.85
830.073	32.62
830.37	34.48
830.668	33.65
830.965	33.15
831.263	35.15
831.56	33.53
831.857	34.69
832.154	35.91
832.451	35
832.748	35
833.045	35.2
833.342	28.35
833.639	34.08
833.936	36.69
834.232	34.05
834.529	33.84
834.826	34.03
835.122	28.07
835.419	31.64
835.715	29.46
836.012	32.97
836.308	32.47
836.604	29.81
836.901	32.11
837.197	28.69
837.493	28.47
837.789	34.99
838.085	36.7
838.381	38.67
838.677	35.31
838.972	35.54
839.268	40.4
839.564	32.01
839.86	38.47
840.155	37.71
840.451	27.58
840.746	24.35
841.042	30.44
841.337	33.61
841.632	39.86
841.928	28.4
842.223	39.91
842.518	30.21
842.813	21.15
843.108	28.76
843.403	41.38
843.698	35.08
843.993	28.17
844.287	43.6
844.582	40.83
844.877	35.38
845.171	37.37
845.466	38.54
845.761	37.03
846.055	31.94
846.349	28.89
846.644	28.72
846.938	48.13
847.232	28.31
847.526	36.33
847.82	33.79
848.114	26.21
848.408	32.16
848.702	30.97
848.996	16.3
849.29	34.49
849.584	35.97
849.877	46.04
850.171	16.51
850.465	8.98
850.758	25.34
851.052	26.04
851.345	19.3
851.638	18.36
851.932	24.71
852.225	34.5
852.518	29.58
852.811	27.83
853.104	24.97
853.397	41.86
853.69	15.74
853.983	18.85
854.276	-10.06
854.569	34.55
854.861	50.33
855.154	32.93
855.447	26.4
855.739	28.77
856.032	46.32
856.324	30.16
856.616	47.89
856.909	28.16
857.201	22.39
857.493	32.34
857.785	34.08
858.077	22.99
858.369	-2.53
858.661	43.86
858.953	-13.42
859.245	20.51
859.537	13.78
859.829	-5.89
860.12	-12.74
860.412	45.6
860.703	67.02
860.995	20.09
861.286	59.41
861.578	35.16
861.869	56.41
862.16	45.31
862.452	7.95
862.743	28.13
863.034	15.52
863.325	53.62
863.616	65.57
863.907	39.16
864.198	45.29
864.488	38.84
864.779	53.5
865.07	-11.65
865.36	-8.85
865.651	6.12
865.941	34.56
866.232	34.68
866.522	51.88
866.813	20.46
867.103	40.47
867.393	35.13
867.683	-2.6
867.973	23.91
868.263	35.2
868.553	29.15
868.843	43.2
869.133	64.13
869.423	8.6
869.713	94.24
870.002	-4.02
870.292	-17.75
870.582	22.95
870.871	11.71
871.161	20.78
871.45	35.82
871.739	28.21
872.029	37.44
872.318	48.54
872.607	20.03
872.896	47.23
873.185	79.68
873.474	9.73
873.763	13.65
874.052	70.68
874.341	-5.45
874.63	36.56
874.918	29.22
875.207	22.49
875.496	21.95
875.784	29.12
876.073	16.56
876.361	7.73
876.649	39.26
876.938	28.82
877.226	3.83
877.514	43.59
877.802	63.49
878.09	52.13
878.378	37.08
878.666	16.83
878.954	59.27
879.242	-30.38
879.53	27.51
879.817	34.25
880.105	13.41
880.392	-0.69
880.68	63.92
880.967	71.06
881.255	72.78
881.542	49.73
881.83	21.32
882.117	-4.3
882.404	25.06
882.691	33.92
882.978	59.52
883.265	-4.92
883.552	29.52
883.839	34.18
884.126	40.59
884.413	42.91
884.699	38.15
884.986	41.26
885.273	39.23
885.559	39.23
885.846	39.23
