Data from 23-3_forehead_Reflection__0__25.txt Node

Date: Thu Feb 29 22:04:03 CST 2024
User: ToomeyLab
Spectrometer: FLMS14357
Trigger mode: 0
Integration Time (sec): 1.000000E-2
Scans to average: 100
Electric dark correction enabled: true
Nonlinearity correction enabled: false
Boxcar width: 0
XAxis mode: Wavelengths
Number of Pixels in Spectrum: 2048
>>>>>Begin Spectral Data<<<<<
189.047	180.5
189.435	180.5
189.823	180.5
190.211	-408.47
190.599	97.98
190.987	-96.61
191.375	41.39
191.763	145.55
192.151	91.87
192.538	45.88
192.926	55.74
193.314	-774.82
193.702	102.95
194.089	-8375.68
194.477	-161.91
194.864	27.31
195.252	-193.3
195.639	-563.7
196.027	11.8
196.414	99.39
196.801	-448.36
197.189	-24.12
197.576	15.07
197.963	-65.31
198.351	-13.23
198.738	27.05
199.125	0.55
199.512	6.68
199.899	-7.12
200.286	-107.2
200.673	3.96
201.06	-35.46
201.447	-45.05
201.833	-6.87
202.22	24.75
202.607	-3.57
202.994	-71.38
203.38	-25.1
203.767	54.02
204.154	0.17
204.54	44.11
204.927	91.5
205.313	29.64
205.699	-14.1
206.086	11.29
206.472	38.83
206.858	16.72
207.245	0.37
207.631	41.37
208.017	-3.66
208.403	-48.05
208.789	57
209.175	-48.7
209.561	6.09
209.947	15.28
210.333	-8.92
210.719	12.3
211.105	16.62
211.491	-21.4
211.876	-11.67
212.262	36.08
212.648	24.62
213.034	3.08
213.419	30.82
213.805	7.22
214.19	-12.35
214.576	11.2
214.961	5.33
215.346	20.67
215.732	15.3
216.117	-7.6
216.502	-5.18
216.888	-11.86
217.273	18.99
217.658	13.27
218.043	-1.5
218.428	10.41
218.813	24
219.198	17.95
219.583	-9.79
219.968	-9.82
220.353	0.02
220.738	5.51
221.122	15.11
221.507	17.79
221.892	3.84
222.276	21.29
222.661	-4.44
223.046	15.96
223.43	-14.59
223.815	-7.96
224.199	-0.65
224.583	0.39
224.968	3.92
225.352	6.47
225.736	4.92
226.121	-1.47
226.505	20.72
226.889	10.62
227.273	1.68
227.657	-8.66
228.041	1.55
228.425	3.42
228.809	6.52
229.193	1.82
229.577	2.03
229.961	0.03
230.344	1.56
230.728	2.67
231.112	3.12
231.495	2.4
231.879	1.63
232.263	-0.43
232.646	2.45
233.03	2.89
233.413	2.44
233.797	1.96
234.18	2.37
234.563	1.24
234.946	-0.12
235.33	2.43
235.713	1
236.096	2.14
236.479	2.33
236.862	3.37
237.245	3.19
237.628	1.45
238.011	3.74
238.394	-0.15
238.777	1.61
239.16	1.77
239.543	2.29
239.925	0.25
240.308	2.78
240.691	3.81
241.073	2.09
241.456	3.16
241.838	2.63
242.221	2.24
242.603	2.52
242.986	3.18
243.368	2.03
243.75	2.89
244.133	1.57
244.515	2.01
244.897	2.48
245.279	2.23
245.661	2.36
246.043	1.08
246.425	3.32
246.807	3.11
247.189	1.78
247.571	2.11
247.953	2.43
248.335	2.04
248.717	2.36
249.098	2.46
249.48	2.43
249.862	2.37
250.243	2.68
250.625	2.44
251.006	2.79
251.388	2.84
251.769	2.31
252.151	3.94
252.532	2.67
252.913	1.1
253.295	2.19
253.676	2.17
254.057	2.19
254.438	3.39
254.819	2.65
255.2	1.68
255.581	2.71
255.962	3.3
256.343	3.72
256.724	4.11
257.105	2.29
257.486	3.07
257.867	3.11
258.247	2.59
258.628	1.79
259.009	1.52
259.389	1.31
259.77	2.97
260.15	3.12
260.531	2.82
260.911	2.34
261.292	2.19
261.672	2.48
262.052	2.31
262.432	2.36
262.813	2.44
263.193	2.1
263.573	2.01
263.953	2.3
264.333	2.2
264.713	2.8
265.093	2.89
265.473	2.6
265.853	3.45
266.233	2.85
266.612	2.72
266.992	2.41
267.372	1.68
267.752	1.96
268.131	2.75
268.511	2.93
268.89	2.68
269.27	3.06
269.649	2.24
270.029	2.48
270.408	2.51
270.787	2.07
271.167	3.25
271.546	2.34
271.925	1.93
272.304	2.79
272.683	2.34
273.062	1.75
273.441	2.53
273.82	1.94
274.199	2.35
274.578	2.26
274.957	2.97
275.336	2.45
275.715	2.47
276.093	1.75
276.472	3.17
276.851	2.18
277.229	2.2
277.608	2.34
277.986	2.31
278.365	2.64
278.743	1.39
279.122	2.11
279.5	2.82
279.878	1.95
280.257	2.79
280.635	2.18
281.013	2.73
281.391	2.14
281.769	2.86
282.147	2.62
282.525	2.99
282.903	1.75
283.281	2.32
283.659	2.95
284.037	2.62
284.415	2.14
284.792	2.19
285.17	1.25
285.548	2.64
285.925	2.02
286.303	2.61
286.68	1.88
287.058	2.19
287.435	2.47
287.813	2.18
288.19	2.33
288.567	2.36
288.945	2.95
289.322	2.65
289.699	2.53
290.076	2.78
290.453	1.75
290.83	2.04
291.207	2.12
291.584	2.46
291.961	2.2
292.338	2.9
292.715	2.61
293.092	2.57
293.469	2.77
293.845	3.51
294.222	2.71
294.599	2.15
294.975	2.87
295.352	3.25
295.728	2.89
296.105	3.51
296.481	2.26
296.858	3.21
297.234	2.83
297.61	2.79
297.986	3.01
298.363	2.71
298.739	3
299.115	3.25
299.491	2.64
299.867	2.91
300.243	2.82
300.619	2.59
300.995	3.42
301.371	3.37
301.746	3.17
302.122	3.32
302.498	3.36
302.874	2.77
303.249	2.75
303.625	3.47
304	3.62
304.376	3.7
304.751	3.44
305.127	3.07
305.502	3.1
305.878	4.03
306.253	3.49
306.628	3.22
307.003	3.66
307.378	4.19
307.754	4.15
308.129	3.75
308.504	3.45
308.879	3.62
309.254	3.65
309.629	3.42
310.003	3.71
310.378	3.6
310.753	3.02
311.128	3.45
311.502	4.21
311.877	4.49
312.252	3.94
312.626	4.24
313.001	4.09
313.375	4.61
313.75	4.37
314.124	4.45
314.498	4.38
314.873	4.35
315.247	4.16
315.621	4.66
315.995	5.17
316.369	4.64
316.743	4.37
317.117	4.61
317.491	4.72
317.865	4.52
318.239	4.74
318.613	5.37
318.987	5.72
319.361	4.61
319.734	4.95
320.108	5.85
320.482	5.18
320.855	4.76
321.229	5.09
321.602	5.57
321.976	4.07
322.349	4.56
322.723	5.46
323.096	5.17
323.469	5.5
323.843	5.23
324.216	5.54
324.589	5.07
324.962	5.28
325.335	5.44
325.708	5.92
326.081	5.61
326.454	5.39
326.827	5.62
327.2	5.64
327.573	5.78
327.945	5.97
328.318	5.69
328.691	5.89
329.063	6.35
329.436	6.81
329.809	6.77
330.181	7.44
330.553	6.38
330.926	6.18
331.298	6.25
331.671	6.36
332.043	6.52
332.415	6.8
332.787	6.68
333.159	6.62
333.532	6.46
333.904	7.2
334.276	7.23
334.648	7.41
335.02	6.12
335.391	6.43
335.763	7.07
336.135	6.15
336.507	7.05
336.879	7.08
337.25	7.15
337.622	7.1
337.993	6.95
338.365	6.98
338.736	7.62
339.108	7.48
339.479	7.62
339.851	7.24
340.222	7.91
340.593	7.73
340.964	7.58
341.336	7.74
341.707	7.4
342.078	7.3
342.449	7.82
342.82	7.85
343.191	8.27
343.562	7.85
343.933	7.75
344.303	7.81
344.674	8.34
345.045	7.88
345.416	8.03
345.786	7.79
346.157	7.82
346.527	8.16
346.898	8.69
347.268	7.85
347.639	8.44
348.009	8.43
348.38	7.89
348.75	8.5
349.12	8.74
349.49	8.66
349.861	9.03
350.231	8.8
350.601	8.79
350.971	8.6
351.341	8.79
351.711	9.14
352.081	8.68
352.45	8.74
352.82	7.91
353.19	9.4
353.56	8.93
353.929	9.05
354.299	8.84
354.669	9.08
355.038	8.7
355.408	9.42
355.777	8.94
356.147	9.03
356.516	9.25
356.885	9.18
357.254	9.15
357.624	9.29
357.993	9.33
358.362	9.37
358.731	9.71
359.1	9.57
359.469	9.61
359.838	9.48
360.207	9.55
360.576	9.5
360.945	9.63
361.314	9.96
361.682	9.91
362.051	9.93
362.42	10.03
362.788	9.81
363.157	9.42
363.525	9.48
363.894	10.06
364.262	9.57
364.631	9.94
364.999	9.69
365.367	9.94
365.735	10.19
366.104	9.99
366.472	9.51
366.84	10.34
367.208	10.21
367.576	10.19
367.944	10.47
368.312	10.23
368.68	10.07
369.048	10.55
369.416	10.36
369.783	10.45
370.151	10.59
370.519	10.36
370.886	10.73
371.254	10.75
371.621	10.85
371.989	10.56
372.356	10.45
372.724	10.94
373.091	10.63
373.458	10.63
373.826	10.77
374.193	11.13
374.56	10.49
374.927	11.2
375.294	10.66
375.661	10.82
376.028	10.95
376.395	10.82
376.762	11.2
377.129	11.1
377.496	11.45
377.863	11.33
378.229	11.14
378.596	11.24
378.963	11.13
379.329	11.28
379.696	11.09
380.062	11.57
380.429	11.9
380.795	11.64
381.161	11.88
381.528	11.66
381.894	11.56
382.26	11.4
382.626	11.67
382.993	11.5
383.359	11.71
383.725	11.65
384.091	12.1
384.457	11.92
384.823	12.28
385.188	11.81
385.554	11.97
385.92	12.46
386.286	11.82
386.651	11.91
387.017	12.07
387.383	12.3
387.748	12.29
388.114	12.3
388.479	12.63
388.845	12.17
389.21	12.33
389.575	12.2
389.94	12.54
390.306	12.34
390.671	12.31
391.036	12.71
391.401	12.67
391.766	12.46
392.131	12.45
392.496	12.62
392.861	12.74
393.226	13.12
393.591	13.07
393.956	12.44
394.32	12.94
394.685	12.97
395.05	13.01
395.414	13.16
395.779	12.91
396.143	13.36
396.508	13.05
396.872	13.19
397.236	13.21
397.601	13.16
397.965	13.26
398.329	13.27
398.694	13.08
399.058	13.44
399.422	12.93
399.786	13.11
400.15	13.43
400.514	13.4
400.878	13.37
401.242	13.36
401.605	13.59
401.969	13.99
402.333	13.77
402.697	13.4
403.06	14.07
403.424	14.02
403.787	13.53
404.151	13.7
404.514	13.99
404.878	13.97
405.241	13.76
405.604	14.03
405.968	13.8
406.331	13.78
406.694	14.17
407.057	13.88
407.42	14.24
407.783	13.9
408.146	14.23
408.509	14.08
408.872	14.39
409.235	14.37
409.598	14.37
409.961	14.16
410.323	14.84
410.686	14.43
411.049	14.32
411.411	14.5
411.774	14.48
412.136	14.62
412.499	14.51
412.861	14.77
413.223	14.45
413.586	14.72
413.948	14.82
414.31	14.95
414.672	14.82
415.035	15.21
415.397	14.89
415.759	14.93
416.121	15.12
416.483	14.97
416.845	14.97
417.206	15.05
417.568	15.08
417.93	15.2
418.292	15.19
418.653	15.15
419.015	15.42
419.377	15.29
419.738	15.1
420.1	14.99
420.461	15.01
420.822	14.96
421.184	15.26
421.545	15.25
421.906	15.32
422.267	15.45
422.629	15.35
422.99	15.34
423.351	15.49
423.712	15.48
424.073	15.46
424.434	15.49
424.795	15.68
425.155	15.68
425.516	15.66
425.877	15.61
426.238	15.65
426.598	15.67
426.959	15.63
427.32	16
427.68	15.87
428.041	16.17
428.401	16.2
428.761	16.5
429.122	16.65
429.482	16.34
429.842	16.6
430.202	16.54
430.563	16.71
430.923	16.77
431.283	16.74
431.643	16.67
432.003	16.93
432.363	16.76
432.722	16.94
433.082	16.53
433.442	16.92
433.802	16.79
434.161	16.95
434.521	16.69
434.881	16.77
435.24	16.86
435.6	16.96
435.959	16.73
436.319	16.84
436.678	16.9
437.037	17.25
437.396	17.27
437.756	17.32
438.115	17.35
438.474	17.19
438.833	17.41
439.192	17.41
439.551	17.49
439.91	17.5
440.269	17.5
440.628	17.46
440.987	17.4
441.345	17.54
441.704	17.6
442.063	17.46
442.421	17.65
442.78	17.56
443.138	17.54
443.497	17.65
443.855	17.86
444.214	18.24
444.572	18.24
444.93	18.06
445.288	18.11
445.647	18.1
446.005	18.17
446.363	18.08
446.721	17.94
447.079	17.98
447.437	18.03
447.795	18.03
448.153	17.92
448.51	17.97
448.868	17.97
449.226	18.08
449.584	18.19
449.941	18.43
450.299	18.55
450.656	18.31
451.014	18.58
451.371	18.81
451.729	18.91
452.086	18.67
452.443	18.69
452.801	19.04
453.158	19.04
453.515	19.09
453.872	18.98
454.229	18.84
454.586	18.9
454.943	19.04
455.3	19.16
455.657	19.09
456.014	19.19
456.371	19.11
456.727	18.94
457.084	19.28
457.441	19.52
457.797	19.5
458.154	19.64
458.51	19.46
458.867	19.52
459.223	19.59
459.58	19.41
459.936	19.68
460.292	19.41
460.648	19.41
461.005	19.53
461.361	19.31
461.717	19.34
462.073	19.34
462.429	19.46
462.785	19.65
463.141	19.61
463.496	19.93
463.852	20.14
464.208	19.79
464.564	19.95
464.919	20.05
465.275	19.97
465.631	20.18
465.986	20.48
466.342	20.23
466.697	20.23
467.052	20.12
467.408	20.34
467.763	20.42
468.118	20.22
468.473	20.42
468.829	20.13
469.184	20.48
469.539	20.52
469.894	20.39
470.249	20.36
470.603	20.41
470.958	20.64
471.313	20.19
471.668	20.53
472.023	20.52
472.377	20.74
472.732	20.91
473.086	21.01
473.441	20.81
473.795	20.99
474.15	20.78
474.504	21.08
474.859	20.75
475.213	20.87
475.567	21.03
475.921	21.16
476.275	20.94
476.63	21.18
476.984	21.12
477.338	21.31
477.692	21.4
478.045	21.44
478.399	21.35
478.753	21.26
479.107	21.4
479.461	21.31
479.814	21.25
480.168	21.39
480.521	21.4
480.875	21.48
481.228	21.58
481.582	21.66
481.935	21.6
482.289	21.62
482.642	21.7
482.995	21.61
483.348	21.56
483.701	21.64
484.055	21.65
484.408	21.54
484.761	21.51
485.114	21.18
485.466	20.8
485.819	20.81
486.172	20.66
486.525	20.77
486.878	20.94
487.23	21.21
487.583	21.5
487.936	21.67
488.288	21.76
488.641	21.7
488.993	21.33
489.345	21.32
489.698	21.35
490.05	21.3
490.402	21.46
490.754	21.47
491.107	21.82
491.459	22.06
491.811	22.32
492.163	22.37
492.515	22.35
492.866	22.23
493.218	21.86
493.57	21.83
493.922	21.77
494.274	21.69
494.625	22.05
494.977	22.23
495.328	22.54
495.68	22.66
496.031	22.78
496.383	22.84
496.734	22.93
497.086	22.78
497.437	23.08
497.788	23.03
498.139	23
498.49	22.75
498.842	22.86
499.193	22.89
499.544	23.03
499.894	22.99
500.245	22.95
500.596	22.97
500.947	23.07
501.298	23.26
501.648	23.3
501.999	23.33
502.35	23.38
502.7	23.37
503.051	23.56
503.401	23.35
503.752	23.55
504.102	23.59
504.452	23.66
504.803	23.49
505.153	23.62
505.503	23.75
505.853	23.72
506.203	23.67
506.553	23.66
506.903	23.64
507.253	23.73
507.603	23.88
507.953	23.97
508.303	23.72
508.652	23.9
509.002	23.86
509.352	23.83
509.701	23.85
510.051	23.67
510.4	23.91
510.75	23.77
511.099	23.79
511.449	23.87
511.798	23.94
512.147	24.03
512.496	24.12
512.846	23.98
513.195	24.27
513.544	24.24
513.893	24.27
514.242	24.13
514.591	24.17
514.939	24.25
515.288	24.42
515.637	24.33
515.986	24.51
516.334	24.33
516.683	24.64
517.032	24.8
517.38	24.56
517.729	24.74
518.077	24.86
518.426	24.76
518.774	24.6
519.122	24.77
519.47	24.67
519.819	24.8
520.167	24.5
520.515	24.5
520.863	24.39
521.211	24.46
521.559	24.6
521.907	24.69
522.255	24.8
522.602	24.78
522.95	24.82
523.298	25.32
523.645	25.18
523.993	25.2
524.341	25.29
524.688	25.2
525.036	25.3
525.383	25.43
525.73	25.49
526.078	25.41
526.425	25.47
526.772	25.22
527.119	25.32
527.466	25.04
527.814	24.97
528.161	25.21
528.508	25.22
528.854	25.34
529.201	25.46
529.548	25.25
529.895	25.11
530.242	24.65
530.588	24.55
530.935	24.61
531.282	24.6
531.628	24.63
531.975	25.05
532.321	25.12
532.667	25.31
533.014	25.71
533.36	25.63
533.706	25.67
534.052	25.78
534.399	25.58
534.745	25.42
535.091	25.27
535.437	25.3
535.783	25.14
536.129	25.4
536.474	25.55
536.82	25.81
537.166	26.11
537.512	26.29
537.857	26.27
538.203	26.04
538.549	25.85
538.894	25.87
539.239	26.04
539.585	26.08
539.93	26.1
540.276	26.56
540.621	26.49
540.966	26.72
541.311	26.59
541.656	26.78
542.001	26.85
542.346	26.69
542.691	26.22
543.036	25.97
543.381	25.78
543.726	25.76
544.071	25.89
544.415	26.07
544.76	26.3
545.105	26.28
545.449	26.38
545.794	26.54
546.138	26.65
546.483	26.79
546.827	26.96
547.171	26.93
547.516	26.87
547.86	26.91
548.204	26.83
548.548	26.92
548.892	26.79
549.236	26.99
549.58	27.02
549.924	27.16
550.268	27.27
550.612	27.23
550.956	27.33
551.3	27.43
551.643	27.56
551.987	27.57
552.33	27.51
552.674	27.53
553.017	27.58
553.361	27.66
553.704	27.72
554.048	27.45
554.391	27.46
554.734	27.5
555.077	27.61
555.42	27.53
555.764	27.44
556.107	28.05
556.45	27.86
556.793	27.95
557.135	27.78
557.478	27.91
557.821	27.77
558.164	28.14
558.507	28.13
558.849	28.3
559.192	28.04
559.534	27.84
559.877	27.96
560.219	28.24
560.562	27.88
560.904	28.18
561.246	28.34
561.589	28.14
561.931	28.43
562.273	28.55
562.615	28.34
562.957	28.35
563.299	28.48
563.641	28.38
563.983	28.51
564.325	28.61
564.667	28.54
565.008	28.41
565.35	28.77
565.692	28.94
566.033	28.81
566.375	28.62
566.716	28.59
567.058	28.62
567.399	28.87
567.741	28.7
568.082	28.84
568.423	28.61
568.764	28.76
569.105	28.64
569.447	28.81
569.788	28.91
570.129	28.73
570.47	28.94
570.811	28.88
571.151	29.38
571.492	28.88
571.833	29.19
572.174	29
572.514	29
572.855	29.24
573.195	29.35
573.536	29.17
573.876	28.94
574.217	29.08
574.557	29.06
574.898	29.5
575.238	29.15
575.578	29.31
575.918	29.25
576.258	29.23
576.598	29.6
576.938	29.48
577.278	29.31
577.618	29.38
577.958	29.51
578.298	29.64
578.638	29.68
578.977	29.56
579.317	29.94
579.657	29.53
579.996	29.88
580.336	30.02
580.675	29.9
581.014	30.03
581.354	29.93
581.693	29.91
582.032	30.09
582.372	30.06
582.711	29.89
583.05	30.02
583.389	30.1
583.728	29.93
584.067	30.25
584.406	30.1
584.745	30.17
585.083	30.06
585.422	30.4
585.761	30.54
586.1	29.96
586.438	30.59
586.777	30.53
587.115	30.19
587.454	30.14
587.792	30.27
588.13	30.39
588.469	30.17
588.807	30.6
589.145	30.64
589.483	30.6
589.821	30.78
590.159	30.67
590.497	30.21
590.835	30.53
591.173	30.82
591.511	30.74
591.849	30.41
592.187	30.49
592.524	30.56
592.862	30.32
593.2	30.6
593.537	30.88
593.875	30.89
594.212	30.65
594.55	31.04
594.887	31.1
595.224	30.94
595.561	31.03
595.899	31.22
596.236	30.68
596.573	31.08
596.91	31.11
597.247	30.85
597.584	31.41
597.921	31.28
598.258	30.95
598.594	31.07
598.931	30.97
599.268	31.03
599.604	31.24
599.941	31.23
600.277	31.22
600.614	31.53
600.95	31.51
601.287	31.55
601.623	31.82
601.959	31.68
602.296	31.3
602.632	31.53
602.968	31.48
603.304	31.35
603.64	31.81
603.976	31.7
604.312	31.68
604.648	31.8
604.984	31.63
605.319	31.86
605.655	31.94
605.991	31.51
606.326	31.54
606.662	31.69
606.998	31.34
607.333	31.64
607.668	31.71
608.004	31.96
608.339	31.92
608.674	31.92
609.01	32.02
609.345	32.32
609.68	32.17
610.015	32.02
610.35	32.28
610.685	32.15
611.02	31.95
611.355	32.18
611.689	32.28
612.024	31.95
612.359	32.11
612.694	32.43
613.028	32.11
613.363	32.42
613.697	32.44
614.032	32.06
614.366	32.6
614.7	32.44
615.035	32.15
615.369	32.17
615.703	32.7
616.037	32.66
616.371	32.53
616.705	32.93
617.039	32.79
617.373	32.74
617.707	32.71
618.041	32.4
618.375	32.99
618.709	32.12
619.042	32.29
619.376	32.15
619.71	32.59
620.043	32.63
620.377	33.03
620.71	33
621.043	32.83
621.377	32.5
621.71	32.76
622.043	32.88
622.376	32.78
622.709	32.85
623.043	32.92
623.376	33.17
623.709	32.63
624.041	33.17
624.374	32.68
624.707	33.08
625.04	32.94
625.373	32.83
625.705	33.51
626.038	33.32
626.37	33.17
626.703	33.59
627.035	33.92
627.368	33.16
627.7	33.65
628.032	33.04
628.365	33.46
628.697	33.67
629.029	33.34
629.361	33.27
629.693	33.15
630.025	33.23
630.357	33.7
630.689	33.64
631.021	33.63
631.353	33.43
631.684	33.36
632.016	33.8
632.348	33.69
632.679	33.29
633.011	34.1
633.342	33.57
633.674	33.27
634.005	33.5
634.336	33.49
634.668	33.99
634.999	33.68
635.33	34.31
635.661	33.54
635.992	33.76
636.323	34.02
636.654	34.16
636.985	34.38
637.316	34.18
637.647	33.78
637.977	33.56
638.308	33.69
638.639	33.7
638.969	34.13
639.3	33.91
639.63	34.05
639.961	34.32
640.291	34.26
640.622	34.31
640.952	33.86
641.282	35.1
641.612	34.59
641.943	34.9
642.273	34.44
642.603	34.17
642.933	34.73
643.263	34.85
643.592	34.58
643.922	34.34
644.252	34.61
644.582	34.78
644.911	34.38
645.241	34.39
645.571	34.65
645.9	34.55
646.23	34.98
646.559	34.56
646.888	34.55
647.218	34.26
647.547	34.94
647.876	34.36
648.205	34.82
648.534	34.45
648.863	34.91
649.192	35.29
649.521	35.08
649.85	34.56
650.179	34.76
650.508	35.14
650.837	34.45
651.165	34.79
651.494	34.61
651.822	34.81
652.151	34.43
652.479	34.46
652.808	34.71
653.136	35.21
653.465	35.14
653.793	35.09
654.121	34.8
654.449	35.37
654.777	35.49
655.105	34.96
655.433	35.05
655.761	35.37
656.089	35.27
656.417	35.81
656.745	35.35
657.073	35.4
657.4	35.9
657.728	35.74
658.056	36
658.383	35.81
658.711	35.57
659.038	36.25
659.365	35.28
659.693	35.54
660.02	35.88
660.347	35.81
660.674	35.67
661.001	35.49
661.329	35.54
661.656	35.88
661.982	35.75
662.309	35.77
662.636	35.31
662.963	35.42
663.29	36.15
663.616	35.68
663.943	35.7
664.27	36.1
664.596	36.3
664.923	35.95
665.249	35.58
665.576	35.53
665.902	35.94
666.228	36.1
666.554	35.81
666.881	36.96
667.207	36.78
667.533	36.22
667.859	35.77
668.185	35.9
668.511	35.62
668.837	36.11
669.162	36.09
669.488	35.89
669.814	36.51
670.139	36.43
670.465	36.09
670.791	36.42
671.116	36.24
671.442	36.11
671.767	36.25
672.092	37.05
672.418	36.37
672.743	36.58
673.068	36.14
673.393	36.39
673.718	36.78
674.043	36.43
674.368	37.32
674.693	36.23
675.018	36.62
675.343	36.68
675.667	36.74
675.992	37.48
676.317	36.5
676.641	35.84
676.966	36.75
677.29	37.14
677.615	36.54
677.939	36.87
678.264	36.98
678.588	37.1
678.912	36.34
679.236	36.4
679.56	36.75
679.885	36.65
680.209	36.92
680.532	37.02
680.856	37.56
681.18	36.49
681.504	37.32
681.828	36.78
682.152	37.13
682.475	37.55
682.799	36.87
683.122	36.69
683.446	37.51
683.769	36.85
684.093	37.69
684.416	37.7
684.739	37.32
685.062	37.6
685.386	37.82
685.709	37.35
686.032	37.49
686.355	37.71
686.678	37.51
687.001	37.12
687.324	37.7
687.646	36.89
687.969	38.09
688.292	37.3
688.614	36.92
688.937	37.74
689.26	37.74
689.582	37.92
689.904	37.34
690.227	38.01
690.549	36.48
690.871	37.06
691.194	38.04
691.516	37.08
691.838	37.65
692.16	37.78
692.482	37.55
692.804	38.09
693.126	37.86
693.448	37.86
693.769	37.37
694.091	37.31
694.413	37.73
694.735	37.51
695.056	38.32
695.378	37.7
695.699	38.27
696.021	37.67
696.342	38.48
696.663	38.4
696.984	37.02
697.306	39.15
697.627	37.61
697.948	38.31
698.269	38.84
698.59	37.98
698.911	38.89
699.232	38.54
699.553	38.21
699.873	39.25
700.194	38.4
700.515	37.69
700.835	37.81
701.156	38.16
701.477	38.57
701.797	38.21
702.117	38.79
702.438	38.9
702.758	37.8
703.078	38.79
703.398	39.25
703.719	38.88
704.039	38.48
704.359	38.28
704.679	38.28
704.999	37.23
705.319	39.2
705.638	38.69
705.958	38.69
706.278	38.48
706.597	37.72
706.917	39.35
707.237	40.07
707.556	38.38
707.876	37.87
708.195	38.97
708.514	39.27
708.834	40.54
709.153	40.37
709.472	39.01
709.791	38.06
710.11	38.85
710.429	39.43
710.748	39.02
711.067	39.01
711.386	37.62
711.705	38.51
712.023	39.52
712.342	37.81
712.661	39.2
712.979	39.42
713.298	37.89
713.616	39.2
713.935	39.37
714.253	38.43
714.572	39.2
714.89	39.18
715.208	39.76
715.526	38.4
715.844	39.91
716.162	39.73
716.48	38.1
716.798	37.72
717.116	40.98
717.434	39.31
717.752	38
718.069	39.76
718.387	39.9
718.705	38.36
719.022	39.27
719.34	39.08
719.657	38.75
719.975	38.96
720.292	40.25
720.609	39.74
720.927	40.32
721.244	38.83
721.561	38.79
721.878	39.21
722.195	40.54
722.512	38.09
722.829	39.41
723.146	39.58
723.463	39.83
723.779	39.01
724.096	38.57
724.413	39.84
724.729	39.47
725.046	37.55
725.362	39.68
725.679	39.91
725.995	39.02
726.311	38.73
726.628	39.01
726.944	39.38
727.26	38.55
727.576	38.85
727.892	39.49
728.208	38.89
728.524	38.2
728.84	39.16
729.156	40.62
729.472	38.35
729.787	40.97
730.103	40.96
730.419	38.11
730.734	39.68
731.05	39.73
731.365	40.61
731.681	40.58
731.996	39.72
732.311	40.99
732.626	40.4
732.942	39.1
733.257	39.85
733.572	39.1
733.887	39.49
734.202	40.08
734.517	38.87
734.832	40.28
735.146	39.56
735.461	39.38
735.776	39.31
736.091	39.73
736.405	40.08
736.72	39.14
737.034	39.33
737.349	39.35
737.663	40.71
737.977	39.41
738.292	38.48
738.606	38.95
738.92	40.94
739.234	39.16
739.548	42.19
739.862	39.57
740.176	39.28
740.49	40.58
740.804	39.36
741.117	40.91
741.431	41.32
741.745	40.21
742.058	38.42
742.372	39.96
742.685	41.24
742.999	39.04
743.312	40.03
743.626	38.81
743.939	39.51
744.252	39.29
744.565	39.74
744.878	38.51
745.191	39.03
745.505	38.76
745.817	42.32
746.13	40.51
746.443	41.88
746.756	39.7
747.069	38.7
747.381	40.57
747.694	39.73
748.007	40.46
748.319	41.47
748.632	38.25
748.944	42.14
749.256	39.68
749.569	39.9
749.881	42.28
750.193	40.79
750.505	40.96
750.817	40.45
751.129	39.65
751.441	39.16
751.753	40.5
752.065	40.03
752.377	42.58
752.689	41.49
753	42.03
753.312	40.81
753.624	41
753.935	39.96
754.247	41.53
754.558	39.56
754.869	39.3
755.181	40.96
755.492	41.11
755.803	40.62
756.114	39.54
756.425	40.42
756.736	39.59
757.047	39.31
757.358	41.41
757.669	42.53
757.98	40.58
758.291	40.8
758.601	38.9
758.912	40.6
759.223	39.81
759.533	40.47
759.844	40.18
760.154	41.94
760.464	40.94
760.775	41.28
761.085	41.62
761.395	41.14
761.705	40.64
762.016	40.43
762.326	40.02
762.636	41.08
762.945	39.81
763.255	39.59
763.565	39.09
763.875	40
764.185	41.03
764.494	40.37
764.804	41.62
765.113	40.47
765.423	39.87
765.732	41.4
766.042	41.29
766.351	41.35
766.66	39.66
766.97	39.03
767.279	39.61
767.588	40.33
767.897	41.85
768.206	42.94
768.515	40.97
768.824	40.24
769.133	41.03
769.441	39.3
769.75	43.23
770.059	40.05
770.367	41.56
770.676	41.86
770.984	40.88
771.293	44.03
771.601	41.18
771.91	41.31
772.218	42.44
772.526	41.88
772.834	42.34
773.142	42.92
773.45	43.78
773.758	37.91
774.066	40.3
774.374	37.4
774.682	37.52
774.99	41.21
775.298	40.21
775.605	43.89
775.913	39.28
776.22	39.13
776.528	45.41
776.835	43.5
777.143	40.66
777.45	42.95
777.757	42.98
778.065	43.39
778.372	40.62
778.679	39.62
778.986	41.83
779.293	36.83
779.6	42
779.907	43.63
780.214	41.03
780.52	38.61
780.827	40
781.134	41.74
781.44	41.35
781.747	43.14
782.053	40.22
782.36	41.77
782.666	37.87
782.973	40.37
783.279	39.93
783.585	40.75
783.891	41.11
784.197	40.67
784.503	44.35
784.809	44.45
785.115	41.5
785.421	40.48
785.727	40.62
786.033	42.57
786.339	45.4
786.644	39.87
786.95	44.69
787.255	41.21
787.561	41.58
787.866	41.71
788.172	38.97
788.477	39.21
788.782	39.84
789.088	43.63
789.393	40.59
789.698	43.15
790.003	39.87
790.308	44.26
790.613	40.21
790.918	41.57
791.223	44.32
791.527	38.91
791.832	40.85
792.137	41.04
792.441	41.86
792.746	40.71
793.05	42.8
793.355	40.62
793.659	37.92
793.963	41.32
794.268	40.29
794.572	39.2
794.876	44.07
795.18	43.15
795.484	43.34
795.788	42.26
796.092	35.75
796.396	40.11
796.7	38.81
797.004	39.36
797.307	39.34
797.611	37.81
797.915	45.98
798.218	43.83
798.522	43.03
798.825	41.2
799.128	40.91
799.432	42.29
799.735	42.54
800.038	42.05
800.341	42.82
800.644	40.37
800.947	34.58
801.25	43.72
801.553	36.57
801.856	44.69
802.159	39.99
802.462	37.94
802.764	44.98
803.067	39.52
803.37	46.28
803.672	36.96
803.975	39.09
804.277	43.85
804.579	41.72
804.882	45.42
805.184	38.58
805.486	41.77
805.788	38.05
806.09	42.07
806.392	40.72
806.694	38.31
806.996	44.7
807.298	40.83
807.6	42.97
807.902	41.59
808.203	42.93
808.505	40.79
808.807	34.49
809.108	46.95
809.409	48.46
809.711	40.54
810.012	41.74
810.313	43.79
810.615	39.97
810.916	45.02
811.217	35.51
811.518	41.02
811.819	38.22
812.12	41.4
812.421	35.2
812.722	40.59
813.023	39.11
813.323	45.61
813.624	41.13
813.925	42
814.225	38.4
814.526	44.07
814.826	37.1
815.126	51.54
815.427	39.27
815.727	36.07
816.027	43.57
816.327	48.5
816.627	31.23
816.927	43.33
817.227	40.99
817.527	37.41
817.827	40.84
818.127	42.73
818.427	41.62
818.727	44.16
819.026	43.34
819.326	41.89
819.625	41.79
819.925	43.82
820.224	54.49
820.524	45.39
820.823	42.59
821.122	37.12
821.421	44.5
821.72	43.01
822.019	33.58
822.318	40.98
822.617	46.6
822.916	39.47
823.215	46.97
823.514	38.92
823.813	43.37
824.111	42.58
824.41	42.73
824.709	41.9
825.007	42.8
825.306	42.93
825.604	42.37
825.902	40.89
826.201	41.66
826.499	41.08
826.797	42.23
827.095	41.2
827.393	40.05
827.691	40.3
827.989	40.95
828.287	42.82
828.585	39.98
828.882	39.17
829.18	41.86
829.478	41.82
829.775	41.62
830.073	41.12
830.37	41.99
830.668	44.03
830.965	42.69
831.263	43.28
831.56	39.03
831.857	41.71
832.154	39.42
832.451	39.82
832.748	37.55
833.045	41.42
833.342	42.09
833.639	39.33
833.936	34.46
834.232	43.77
834.529	36.74
834.826	43.9
835.122	46.54
835.419	43.75
835.715	38.75
836.012	45.41
836.308	45.35
836.604	42.71
836.901	43.72
837.197	44.26
837.493	40.69
837.789	41.74
838.085	39.24
838.381	39.94
838.677	38.43
838.972	41.67
839.268	39.74
839.564	39.08
839.86	38.25
840.155	42.94
840.451	36.91
840.746	42.17
841.042	31.62
841.337	44.9
841.632	51.7
841.928	39.51
842.223	38.65
842.518	47.91
842.813	37.6
843.108	31.11
843.403	45.31
843.698	36.95
843.993	30.85
844.287	40.47
844.582	39.55
844.877	30.52
845.171	41.3
845.466	37.09
845.761	29.56
846.055	26.28
846.349	30.79
846.644	28.41
846.938	55.15
847.232	12.81
847.526	50.94
847.82	27.73
848.114	37.36
848.408	6.25
848.702	38.72
848.996	39.8
849.29	53.65
849.584	36.83
849.877	50.4
850.171	15.57
850.465	9.71
850.758	58.41
851.052	30.74
851.345	31.17
851.638	38.87
851.932	38.72
852.225	51.46
852.518	56.57
852.811	42.69
853.104	44.96
853.397	44.08
853.69	39.41
853.983	23.02
854.276	22.64
854.569	34.14
854.861	28.2
855.154	47.35
855.447	49.31
855.739	43.1
856.032	66.16
856.324	47.96
856.616	49.28
856.909	49
857.201	40.92
857.493	44.73
857.785	52.73
858.077	44.89
858.369	27.28
858.661	56.08
858.953	26.8
859.245	19.33
859.537	31.8
859.829	5.83
860.12	7.4
860.412	50.21
860.703	73.38
860.995	39.62
861.286	-3.48
861.578	35.88
861.869	41.47
862.16	35.33
862.452	15.73
862.743	31.92
863.034	36.04
863.325	74.34
863.616	54.24
863.907	33
864.198	64.25
864.488	49.06
864.779	30.94
865.07	-8.42
865.36	56.33
865.651	27.87
865.941	37.31
866.232	31.5
866.522	43.13
866.813	30.24
867.103	24.46
867.393	26.19
867.683	16.89
867.973	15.33
868.263	22.36
868.553	65.02
868.843	35.56
869.133	30.33
869.423	8.61
869.713	42.64
870.002	86.07
870.292	3.45
870.582	20.46
870.871	21.03
871.161	18.2
871.45	31.75
871.739	31.91
872.029	32.72
872.318	53.22
872.607	31.58
872.896	33.58
873.185	30.27
873.474	8.09
873.763	46.1
874.052	22.69
874.341	-30.5
874.63	42.81
874.918	41.27
875.207	28.15
875.496	38.45
875.784	53.53
876.073	44.35
876.361	65.88
876.649	34.37
876.938	54.65
877.226	34.84
877.514	50.07
877.802	40.8
878.09	65.6
878.378	29.12
878.666	37.34
878.954	21.28
879.242	-21.5
879.53	39.9
879.817	78.5
880.105	41.01
880.392	6.64
880.68	40.83
880.967	50.13
881.255	117.3
881.542	24.01
881.83	29.61
882.117	49.85
882.404	38
882.691	27.77
882.978	45.43
883.265	26.5
883.552	54.64
883.839	40.93
884.126	35.06
884.413	35.45
884.699	40.35
884.986	38.88
885.273	41.79
885.559	41.79
885.846	41.79
