Data from 20-9_crown_Reflection__2__143.txt Node

Date: Fri Nov 11 21:12:09 CST 2022
User: ToomeyLab
Spectrometer: FLMS14357
Trigger mode: 0
Integration Time (sec): 1.000000E-2
Scans to average: 100
Electric dark correction enabled: true
Nonlinearity correction enabled: false
Boxcar width: 0
XAxis mode: Wavelengths
Number of Pixels in Spectrum: 2048
>>>>>Begin Spectral Data<<<<<
189.047	70.13
189.435	70.13
189.823	70.13
190.211	56.17
190.599	-24.21
190.987	173.2
191.375	-176.28
191.763	29.87
192.151	319.29
192.538	257.72
192.926	204.01
193.314	112.32
193.702	6.32
194.089	33.38
194.477	107.48
194.864	31.87
195.252	91.87
195.639	124.16
196.027	-263.24
196.414	128.94
196.801	144.94
197.189	91.54
197.576	99.64
197.963	-90.54
198.351	-100.3
198.738	-50.07
199.125	-1.01
199.512	54.77
199.899	-688.77
200.286	-21.98
200.673	-12.27
201.06	27.57
201.447	7.04
201.833	-0.07
202.22	-32.87
202.607	26.77
202.994	14.01
203.38	-3.03
203.767	-11.16
204.154	9.64
204.54	-18.98
204.927	-13.65
205.313	-51.99
205.699	-111.35
206.086	34.67
206.472	13.46
206.858	19.56
207.245	73.54
207.631	30.53
208.017	-11.66
208.403	-9.16
208.789	30.06
209.175	26.03
209.561	18.6
209.947	-2.51
210.333	13.81
210.719	31.93
211.105	46.14
211.491	-4.78
211.876	25.55
212.262	46.73
212.648	-31.39
213.034	-19.12
213.419	-48.61
213.805	-38.08
214.19	-52.86
214.576	7.97
214.961	-69.7
215.346	-92.28
215.732	-34.4
216.117	24.73
216.502	3.95
216.888	-49.56
217.273	-18.94
217.658	-34.86
218.043	-10.22
218.428	-24.97
218.813	-18.2
219.198	-7.81
219.583	15.02
219.968	-13.41
220.353	-42
220.738	3.47
221.122	2.53
221.507	-25.12
221.892	-0.54
222.276	9.41
222.661	16.06
223.046	-20.24
223.43	-2.65
223.815	-7.13
224.199	-0.5
224.583	-2.98
224.968	-11.74
225.352	2.31
225.736	4.01
226.121	2.85
226.505	-3.3
226.889	-16.12
227.273	4.16
227.657	-5.07
228.041	-5.37
228.425	-0.93
228.809	1.51
229.193	6.16
229.577	5.86
229.961	4.34
230.344	4.23
230.728	2.55
231.112	2.56
231.495	3.81
231.879	2.46
232.263	1.86
232.646	2.63
233.03	3.18
233.413	1.94
233.797	2.46
234.18	2.04
234.563	2.73
234.946	0.31
235.33	4.47
235.713	2.43
236.096	3.14
236.479	1.48
236.862	3.47
237.245	3.44
237.628	3.77
238.011	3.82
238.394	3.96
238.777	3.47
239.16	3.02
239.543	0.59
239.925	3.49
240.308	1.35
240.691	4.58
241.073	3.67
241.456	2.48
241.838	5.06
242.221	3.21
242.603	4.21
242.986	3.14
243.368	3.71
243.75	3.5
244.133	3.35
244.515	3.23
244.897	4.27
245.279	3.44
245.661	3.31
246.043	2.64
246.425	3.42
246.807	3.04
247.189	3.38
247.571	3.27
247.953	3.17
248.335	3.4
248.717	3.55
249.098	3.66
249.48	3.19
249.862	3.77
250.243	3.54
250.625	3.09
251.006	3.78
251.388	3.49
251.769	3.59
252.151	3.44
252.532	2.94
252.913	3.6
253.295	2.72
253.676	2.56
254.057	3.13
254.438	3.4
254.819	2.71
255.2	3.35
255.581	3.02
255.962	2.8
256.343	2.37
256.724	2.86
257.105	3.66
257.486	2
257.867	3.81
258.247	3.11
258.628	3.08
259.009	3.08
259.389	2.64
259.77	4.02
260.15	3.43
260.531	3.11
260.911	3.31
261.292	3.33
261.672	3.18
262.052	3.16
262.432	3.33
262.813	3.39
263.193	3.17
263.573	2.88
263.953	3.45
264.333	2.79
264.713	2.9
265.093	3.23
265.473	2.4
265.853	2.81
266.233	3.27
266.612	2.71
266.992	2.67
267.372	3.28
267.752	2.74
268.131	2.48
268.511	2.82
268.89	2.84
269.27	2.87
269.649	2.43
270.029	3.43
270.408	2.77
270.787	3.09
271.167	3.24
271.546	3.38
271.925	3.13
272.304	3
272.683	3.14
273.062	2.54
273.441	2.94
273.82	2.85
274.199	2.67
274.578	2.79
274.957	2.89
275.336	3.36
275.715	3.28
276.093	3.06
276.472	2.43
276.851	3
277.229	2.76
277.608	3.13
277.986	3.14
278.365	2.35
278.743	2.72
279.122	3.24
279.5	2.92
279.878	3.11
280.257	2.84
280.635	3.07
281.013	2.82
281.391	2.88
281.769	3.15
282.147	2.85
282.525	2.59
282.903	2.48
283.281	2.72
283.659	2.7
284.037	3.06
284.415	2.89
284.792	2.51
285.17	3.19
285.548	3.28
285.925	2.71
286.303	3.09
286.68	3.03
287.058	2.7
287.435	2.85
287.813	2.89
288.19	2.72
288.567	2.96
288.945	2.68
289.322	3.56
289.699	2.66
290.076	3.06
290.453	2.77
290.83	2.79
291.207	2.69
291.584	2.81
291.961	2.85
292.338	2.83
292.715	2.7
293.092	2.78
293.469	2.63
293.845	2.99
294.222	2.27
294.599	2.88
294.975	2.73
295.352	2.75
295.728	2.65
296.105	2.48
296.481	2.2
296.858	2.95
297.234	2.79
297.61	2.52
297.986	2.78
298.363	3.18
298.739	2.82
299.115	3.08
299.491	3.05
299.867	2.67
300.243	3.09
300.619	2.68
300.995	2.93
301.371	3.16
301.746	3.04
302.122	3.22
302.498	2.78
302.874	3.03
303.249	2.74
303.625	2.76
304	2.65
304.376	2.74
304.751	2.18
305.127	3.03
305.502	2.93
305.878	3.01
306.253	2.68
306.628	2.71
307.003	2.91
307.378	2.6
307.754	3.62
308.129	3.08
308.504	2.62
308.879	2.56
309.254	2.69
309.629	2.53
310.003	2.68
310.378	3.13
310.753	2.76
311.128	3.16
311.502	2.94
311.877	2.85
312.252	3.04
312.626	2.71
313.001	2.59
313.375	2.7
313.75	2.46
314.124	2.36
314.498	2.66
314.873	2.52
315.247	2.88
315.621	3.07
315.995	3.3
316.369	2.79
316.743	2.63
317.117	2.68
317.491	2.37
317.865	2.26
318.239	2.74
318.613	2.67
318.987	2.39
319.361	2.84
319.734	2.89
320.108	2.91
320.482	3.22
320.855	2.79
321.229	2.54
321.602	2.93
321.976	2.99
322.349	2.9
322.723	2.94
323.096	3.23
323.469	3.05
323.843	2.65
324.216	1.97
324.589	2.75
324.962	3.31
325.335	2.69
325.708	2.74
326.081	2.86
326.454	2.72
326.827	2.55
327.2	3.16
327.573	3.18
327.945	2.44
328.318	2.83
328.691	3.08
329.063	3.26
329.436	2.64
329.809	2.93
330.181	2.56
330.553	2.43
330.926	3.25
331.298	3.05
331.671	2.13
332.043	2.09
332.415	2.83
332.787	2.94
333.159	2.51
333.532	3.05
333.904	2.97
334.276	2.33
334.648	2.43
335.02	2.47
335.391	2.95
335.763	2.74
336.135	2.66
336.507	3.04
336.879	3.23
337.25	2.78
337.622	2.73
337.993	2.62
338.365	2.9
338.736	2.69
339.108	2.9
339.479	2.28
339.851	3
340.222	2.82
340.593	3.2
340.964	2.77
341.336	3.12
341.707	2.99
342.078	2.35
342.449	2.97
342.82	3.02
343.191	3.31
343.562	2.62
343.933	3.13
344.303	3
344.674	3.04
345.045	3.01
345.416	2.95
345.786	2.72
346.157	2.85
346.527	2.98
346.898	2.55
347.268	2.44
347.639	2.81
348.009	2.59
348.38	2.98
348.75	3.07
349.12	3.09
349.49	3.14
349.861	2.92
350.231	3.03
350.601	2.9
350.971	2.89
351.341	3.1
351.711	2.88
352.081	3.13
352.45	2.87
352.82	2.8
353.19	3.04
353.56	2.84
353.929	3.01
354.299	2.76
354.669	3.53
355.038	2.98
355.408	3.14
355.777	3.26
356.147	3
356.516	2.94
356.885	3.04
357.254	3.12
357.624	2.83
357.993	3.07
358.362	3.11
358.731	2.43
359.1	2.99
359.469	2.67
359.838	2.78
360.207	3.14
360.576	3.16
360.945	3
361.314	2.9
361.682	3
362.051	2.89
362.42	3.34
362.788	3.24
363.157	3.14
363.525	2.92
363.894	2.95
364.262	3.19
364.631	3.47
364.999	3.13
365.367	3.23
365.735	3.15
366.104	3.2
366.472	3.07
366.84	2.55
367.208	2.93
367.576	3.24
367.944	3.19
368.312	2.82
368.68	3.13
369.048	3.01
369.416	3.08
369.783	2.99
370.151	3.17
370.519	3.11
370.886	2.89
371.254	3.29
371.621	2.83
371.989	3.01
372.356	3.2
372.724	3.4
373.091	3.18
373.458	3.21
373.826	3.01
374.193	3.06
374.56	2.9
374.927	3.06
375.294	3.32
375.661	3.26
376.028	3.06
376.395	3.27
376.762	3.31
377.129	2.86
377.496	3.01
377.863	3.28
378.229	3.17
378.596	2.89
378.963	2.95
379.329	3.2
379.696	3.18
380.062	3.29
380.429	3.15
380.795	3.45
381.161	3.53
381.528	3.08
381.894	3.44
382.26	3.33
382.626	3.52
382.993	3.18
383.359	3.21
383.725	3.24
384.091	3.3
384.457	3.37
384.823	3.33
385.188	3.18
385.554	3.14
385.92	3.1
386.286	3.2
386.651	3.24
387.017	3.25
387.383	3.27
387.748	3.12
388.114	3.16
388.479	3.12
388.845	3.29
389.21	3.04
389.575	3.34
389.94	3.25
390.306	3.1
390.671	2.95
391.036	3.22
391.401	3.31
391.766	3.49
392.131	3.3
392.496	3.29
392.861	3.11
393.226	3.2
393.591	3.24
393.956	3.19
394.32	3.28
394.685	3.32
395.05	3.64
395.414	3.36
395.779	3.29
396.143	3.25
396.508	3.24
396.872	3.31
397.236	3.24
397.601	3.2
397.965	3.6
398.329	3.32
398.694	3.35
399.058	3.44
399.422	3.35
399.786	3.27
400.15	3.26
400.514	3.41
400.878	3.21
401.242	3.3
401.605	3.25
401.969	3.5
402.333	3.17
402.697	3.54
403.06	3.51
403.424	3.18
403.787	3.49
404.151	3.33
404.514	3.17
404.878	3.22
405.241	3.43
405.604	3.18
405.968	3.34
406.331	3.19
406.694	3.14
407.057	3.46
407.42	3.49
407.783	3.59
408.146	3.37
408.509	3.44
408.872	3.42
409.235	3.44
409.598	3.37
409.961	3.6
410.323	3.28
410.686	3.22
411.049	3.19
411.411	3.21
411.774	3.41
412.136	3.33
412.499	3.5
412.861	3.23
413.223	3.22
413.586	3.31
413.948	3.66
414.31	3.42
414.672	3.42
415.035	3.55
415.397	3.22
415.759	3.3
416.121	3.31
416.483	3.36
416.845	3.44
417.206	3.27
417.568	3.22
417.93	3.34
418.292	3.26
418.653	3.39
419.015	3.53
419.377	3.31
419.738	3.35
420.1	3.32
420.461	3.44
420.822	3.25
421.184	3.36
421.545	3.44
421.906	3.39
422.267	3.35
422.629	3.16
422.99	3.36
423.351	3.37
423.712	3.26
424.073	3.34
424.434	3.51
424.795	3.43
425.155	3.32
425.516	3.37
425.877	3.37
426.238	3.31
426.598	3.3
426.959	3.3
427.32	3.37
427.68	3.55
428.041	3.48
428.401	3.28
428.761	3.59
429.122	3.36
429.482	3.64
429.842	3.47
430.202	3.56
430.563	3.61
430.923	3.5
431.283	3.42
431.643	3.43
432.003	3.55
432.363	3.44
432.722	3.53
433.082	3.58
433.442	3.61
433.802	3.56
434.161	3.37
434.521	3.53
434.881	3.59
435.24	3.48
435.6	3.47
435.959	3.45
436.319	3.42
436.678	3.34
437.037	3.51
437.396	3.51
437.756	3.53
438.115	3.47
438.474	3.39
438.833	3.62
439.192	3.53
439.551	3.5
439.91	3.5
440.269	3.37
440.628	3.6
440.987	3.56
441.345	3.54
441.704	3.49
442.063	3.53
442.421	3.45
442.78	3.38
443.138	3.5
443.497	3.39
443.855	3.41
444.214	3.47
444.572	3.5
444.93	3.52
445.288	3.54
445.647	3.56
446.005	3.59
446.363	3.62
446.721	3.53
447.079	3.55
447.437	3.47
447.795	3.45
448.153	3.46
448.51	3.48
448.868	3.43
449.226	3.47
449.584	3.51
449.941	3.44
450.299	3.44
450.656	3.57
451.014	3.65
451.371	3.62
451.729	3.44
452.086	3.66
452.443	3.44
452.801	3.6
453.158	3.51
453.515	3.54
453.872	3.49
454.229	3.63
454.586	3.6
454.943	3.51
455.3	3.65
455.657	3.64
456.014	3.71
456.371	3.56
456.727	3.62
457.084	3.44
457.441	3.63
457.797	3.59
458.154	3.65
458.51	3.69
458.867	3.58
459.223	3.72
459.58	3.69
459.936	3.49
460.292	3.57
460.648	3.56
461.005	3.51
461.361	3.43
461.717	3.44
462.073	3.58
462.429	3.52
462.785	3.46
463.141	3.55
463.496	3.58
463.852	3.53
464.208	3.62
464.564	3.55
464.919	3.6
465.275	3.56
465.631	3.5
465.986	3.83
466.342	3.66
466.697	3.52
467.052	3.53
467.408	3.57
467.763	3.59
468.118	3.68
468.473	3.55
468.829	3.57
469.184	3.62
469.539	3.64
469.894	3.68
470.249	3.73
470.603	3.65
470.958	3.46
471.313	3.66
471.668	3.72
472.023	3.45
472.377	3.71
472.732	3.51
473.086	3.56
473.441	3.59
473.795	3.59
474.15	3.57
474.504	3.68
474.859	3.65
475.213	3.72
475.567	3.84
475.921	3.74
476.275	3.57
476.63	3.55
476.984	3.71
477.338	3.67
477.692	3.58
478.045	3.65
478.399	3.74
478.753	3.42
479.107	3.56
479.461	3.7
479.814	3.47
480.168	3.58
480.521	3.61
480.875	3.66
481.228	3.52
481.582	3.6
481.935	3.57
482.289	3.51
482.642	3.55
482.995	3.49
483.348	3.53
483.701	3.6
484.055	3.56
484.408	3.54
484.761	3.4
485.114	3.35
485.466	3.32
485.819	3.3
486.172	3.34
486.525	3.42
486.878	3.5
487.23	3.51
487.583	3.54
487.936	3.5
488.288	3.51
488.641	3.45
488.993	3.44
489.345	3.37
489.698	3.43
490.05	3.43
490.402	3.42
490.754	3.51
491.107	3.55
491.459	3.54
491.811	3.62
492.163	3.62
492.515	3.57
492.866	3.48
493.218	3.43
493.57	3.4
493.922	3.46
494.274	3.55
494.625	3.59
494.977	3.61
495.328	3.61
495.68	3.59
496.031	3.58
496.383	3.62
496.734	3.67
497.086	3.59
497.437	3.64
497.788	3.68
498.139	3.55
498.49	3.53
498.842	3.42
499.193	3.7
499.544	3.69
499.894	3.52
500.245	3.72
500.596	3.67
500.947	3.65
501.298	3.66
501.648	3.68
501.999	3.62
502.35	3.74
502.7	3.73
503.051	3.69
503.401	3.63
503.752	3.52
504.102	3.48
504.452	3.64
504.803	3.57
505.153	3.59
505.503	3.65
505.853	3.63
506.203	3.63
506.553	3.54
506.903	3.59
507.253	3.58
507.603	3.66
507.953	3.61
508.303	3.64
508.652	3.65
509.002	3.58
509.352	3.56
509.701	3.72
510.051	3.66
510.4	3.6
510.75	3.63
511.099	3.46
511.449	3.6
511.798	3.64
512.147	3.52
512.496	3.53
512.846	3.77
513.195	3.63
513.544	3.6
513.893	3.63
514.242	3.5
514.591	3.62
514.939	3.69
515.288	3.63
515.637	3.62
515.986	3.65
516.334	3.61
516.683	3.51
517.032	3.66
517.38	3.7
517.729	3.8
518.077	3.71
518.426	3.6
518.774	3.6
519.122	3.69
519.47	3.63
519.819	3.63
520.167	3.52
520.515	3.49
520.863	3.59
521.211	3.54
521.559	3.57
521.907	3.69
522.255	3.6
522.602	3.63
522.95	3.62
523.298	3.68
523.645	3.6
523.993	3.68
524.341	3.73
524.688	3.63
525.036	3.72
525.383	3.55
525.73	3.63
526.078	3.54
526.425	3.59
526.772	3.67
527.119	3.42
527.466	3.55
527.814	3.53
528.161	3.7
528.508	3.57
528.854	3.51
529.201	3.62
529.548	3.47
529.895	3.38
530.242	3.36
530.588	3.37
530.935	3.44
531.282	3.51
531.628	3.51
531.975	3.54
532.321	3.47
532.667	3.61
533.014	3.61
533.36	3.58
533.706	3.63
534.052	3.52
534.399	3.46
534.745	3.47
535.091	3.48
535.437	3.43
535.783	3.49
536.129	3.59
536.474	3.57
536.82	3.6
537.166	3.64
537.512	3.53
537.857	3.58
538.203	3.57
538.549	3.61
538.894	3.52
539.239	3.56
539.585	3.64
539.93	3.65
540.276	3.76
540.621	3.65
540.966	3.65
541.311	3.67
541.656	3.59
542.001	3.62
542.346	3.61
542.691	3.46
543.036	3.44
543.381	3.44
543.726	3.43
544.071	3.52
544.415	3.53
544.76	3.57
545.105	3.52
545.449	3.44
545.794	3.66
546.138	3.58
546.483	3.63
546.827	3.62
547.171	3.65
547.516	3.49
547.86	3.54
548.204	3.61
548.548	3.6
548.892	3.56
549.236	3.67
549.58	3.67
549.924	3.66
550.268	3.63
550.612	3.7
550.956	3.81
551.3	3.72
551.643	3.77
551.987	3.76
552.33	3.74
552.674	3.6
553.017	3.74
553.361	3.75
553.704	3.79
554.048	3.68
554.391	3.68
554.734	3.64
555.077	3.69
555.42	3.64
555.764	3.74
556.107	3.71
556.45	3.73
556.793	3.76
557.135	3.69
557.478	3.62
557.821	3.82
558.164	3.61
558.507	3.71
558.849	3.52
559.192	3.65
559.534	3.64
559.877	3.75
560.219	3.67
560.562	3.67
560.904	3.79
561.246	3.48
561.589	3.63
561.931	3.55
562.273	3.7
562.615	3.58
562.957	3.84
563.299	3.88
563.641	3.58
563.983	3.62
564.325	3.62
564.667	3.7
565.008	3.71
565.35	3.74
565.692	3.45
566.033	3.66
566.375	3.62
566.716	3.73
567.058	3.67
567.399	3.91
567.741	3.77
568.082	3.68
568.423	3.73
568.764	3.8
569.105	3.62
569.447	3.93
569.788	3.86
570.129	3.63
570.47	3.61
570.811	3.87
571.151	3.83
571.492	3.78
571.833	3.71
572.174	3.73
572.514	3.75
572.855	3.73
573.195	3.43
573.536	3.72
573.876	3.64
574.217	3.7
574.557	3.64
574.898	3.56
575.238	3.68
575.578	3.8
575.918	3.72
576.258	3.74
576.598	3.59
576.938	3.64
577.278	3.61
577.618	3.68
577.958	3.57
578.298	3.75
578.638	3.84
578.977	3.71
579.317	3.78
579.657	3.76
579.996	3.74
580.336	3.69
580.675	3.86
581.014	3.92
581.354	3.69
581.693	3.51
582.032	3.59
582.372	3.63
582.711	3.65
583.05	3.68
583.389	3.79
583.728	3.78
584.067	3.83
584.406	3.53
584.745	3.81
585.083	3.78
585.422	3.65
585.761	3.7
586.1	3.75
586.438	3.6
586.777	3.73
587.115	3.7
587.454	3.59
587.792	3.74
588.13	3.7
588.469	3.8
588.807	3.51
589.145	3.76
589.483	3.9
589.821	3.81
590.159	3.8
590.497	3.85
590.835	3.72
591.173	3.73
591.511	3.59
591.849	3.68
592.187	3.61
592.524	3.48
592.862	3.59
593.2	3.67
593.537	3.79
593.875	3.96
594.212	3.56
594.55	3.65
594.887	3.77
595.224	3.52
595.561	3.36
595.899	3.45
596.236	3.75
596.573	3.6
596.91	3.66
597.247	3.49
597.584	3.57
597.921	3.91
598.258	3.74
598.594	3.76
598.931	3.53
599.268	3.68
599.604	3.71
599.941	3.89
600.277	3.76
600.614	3.63
600.95	3.52
601.287	3.74
601.623	3.99
601.959	3.8
602.296	3.67
602.632	3.75
602.968	3.76
603.304	3.85
603.64	4.02
603.976	3.7
604.312	3.58
604.648	3.53
604.984	3.55
605.319	3.78
605.655	3.81
605.991	3.58
606.326	3.86
606.662	3.5
606.998	3.58
607.333	3.72
607.668	3.62
608.004	3.67
608.339	3.6
608.674	3.69
609.01	3.8
609.345	3.7
609.68	3.38
610.015	3.71
610.35	3.75
610.685	3.92
611.02	3.7
611.355	3.62
611.689	3.76
612.024	3.53
612.359	3.67
612.694	3.54
613.028	3.66
613.363	3.88
613.697	3.91
614.032	3.74
614.366	3.54
614.7	3.83
615.035	3.49
615.369	3.48
615.703	3.89
616.037	3.96
616.371	3.62
616.705	3.83
617.039	3.9
617.373	3.45
617.707	3.74
618.041	3.73
618.375	3.24
618.709	4.21
619.042	3.87
619.376	3.68
619.71	3.79
620.043	3.71
620.377	3.75
620.71	3.6
621.043	3.57
621.377	3.64
621.71	3.44
622.043	3.98
622.376	3.87
622.709	3.42
623.043	3.59
623.376	3.37
623.709	3.71
624.041	3.7
624.374	3.3
624.707	3.79
625.04	3.78
625.373	3.34
625.705	3.7
626.038	3.64
626.37	3.82
626.703	3.65
627.035	3.61
627.368	3.49
627.7	3.53
628.032	3.61
628.365	3.9
628.697	3.53
629.029	3.58
629.361	3.67
629.693	3.74
630.025	3.57
630.357	3.66
630.689	3.66
631.021	3.64
631.353	3.96
631.684	3.47
632.016	3.64
632.348	3.12
632.679	3.2
633.011	3.77
633.342	3.64
633.674	3.47
634.005	3.56
634.336	3.52
634.668	3.5
634.999	3.45
635.33	3.7
635.661	3.66
635.992	3.64
636.323	3.55
636.654	3.67
636.985	3.56
637.316	3.65
637.647	3.99
637.977	3.63
638.308	3.94
638.639	3.23
638.969	3.58
639.3	3.83
639.63	3.95
639.961	3.58
640.291	3.76
640.622	3.87
640.952	3.49
641.282	3.23
641.612	3.44
641.943	4.01
642.273	3.3
642.603	3.29
642.933	3.79
643.263	3.72
643.592	3.74
643.922	3.64
644.252	3.75
644.582	3.7
644.911	3.82
645.241	3.5
645.571	3.69
645.9	3.84
646.23	3.79
646.559	3.84
646.888	3.3
647.218	3.47
647.547	3.34
647.876	3.22
648.205	3.5
648.534	3.66
648.863	3.53
649.192	3.4
649.521	3.85
649.85	3.47
650.179	3.28
650.508	3.37
650.837	3.66
651.165	3.55
651.494	3.68
651.822	3.41
652.151	3.38
652.479	3.2
652.808	3.58
653.136	3.37
653.465	3.71
653.793	4.05
654.121	3.65
654.449	3
654.777	3.99
655.105	3.63
655.433	3.24
655.761	3.62
656.089	3.78
656.417	3.21
656.745	3.55
657.073	3.44
657.4	3.6
657.728	3.95
658.056	3.62
658.383	3.36
658.711	3.68
659.038	3.7
659.365	3.12
659.693	3.31
660.02	4.16
660.347	3.82
660.674	3.71
661.001	3.28
661.329	3.55
661.656	3.62
661.982	3.78
662.309	3.75
662.636	4.03
662.963	3.67
663.29	3.58
663.616	3.33
663.943	3.82
664.27	3.41
664.596	3.73
664.923	3.72
665.249	4
665.576	3.51
665.902	3.6
666.228	4.08
666.554	3.8
666.881	3.31
667.207	3.75
667.533	4.03
667.859	3.8
668.185	3.1
668.511	3.39
668.837	3.93
669.162	3.93
669.488	3.47
669.814	3.32
670.139	3.29
670.465	2.92
670.791	3.02
671.116	3.16
671.442	3.43
671.767	3.67
672.092	3.4
672.418	3.4
672.743	3.11
673.068	3.18
673.393	4
673.718	3.43
674.043	3.66
674.368	3.58
674.693	2.67
675.018	3.61
675.343	3.68
675.667	4.08
675.992	4.12
676.317	3.18
676.641	2.96
676.966	3.41
677.29	3.29
677.615	3.27
677.939	3.69
678.264	3.11
678.588	2.97
678.912	4.08
679.236	3.53
679.56	3.89
679.885	3.25
680.209	3.52
680.532	4.08
680.856	4.19
681.18	3.3
681.504	3.23
681.828	3.33
682.152	3.43
682.475	3.34
682.799	3.31
683.122	3.82
683.446	3.87
683.769	3.82
684.093	3.86
684.416	3.65
684.739	3.86
685.062	3.56
685.386	3.84
685.709	3.56
686.032	2.98
686.355	3.39
686.678	2.93
687.001	3.93
687.324	3.8
687.646	2.74
687.969	3.1
688.292	4.44
688.614	3.1
688.937	3.5
689.26	2.34
689.582	3.83
689.904	2.99
690.227	3.64
690.549	3.41
690.871	3.78
691.194	3.24
691.516	2.68
691.838	3.64
692.16	3.83
692.482	3.23
692.804	3.22
693.126	3.01
693.448	3.19
693.769	3.32
694.091	4.13
694.413	3.58
694.735	3.2
695.056	2.98
695.378	4.03
695.699	3.73
696.021	2.98
696.342	3.16
696.663	3.96
696.984	3.96
697.306	2.78
697.627	3.54
697.948	3.35
698.269	3.8
698.59	3.22
698.911	2.97
699.232	3.29
699.553	3.73
699.873	3.92
700.194	3.42
700.515	3.48
700.835	3.41
701.156	3.43
701.477	3.32
701.797	3.85
702.117	3.47
702.438	3.42
702.758	2.87
703.078	4.19
703.398	4.63
703.719	3.97
704.039	3.64
704.359	3.28
704.679	3.92
704.999	3.53
705.319	3.2
705.638	3.79
705.958	2.68
706.278	2.65
706.597	3
706.917	2.84
707.237	4.22
707.556	4.61
707.876	3.75
708.195	3.43
708.514	4.07
708.834	3.66
709.153	2.77
709.472	3.04
709.791	3.31
710.11	3.56
710.429	4.16
710.748	3.08
711.067	3.51
711.386	3.72
711.705	3.73
712.023	3.62
712.342	2.91
712.661	3.52
712.979	3.55
713.298	4.17
713.616	3.06
713.935	2.56
714.253	3.43
714.572	2.59
714.89	3.64
715.208	3.59
715.526	3.67
715.844	2.58
716.162	3.77
716.48	3.95
716.798	3.01
717.116	4.53
717.434	3.46
717.752	3.01
718.069	3.81
718.387	4.14
718.705	3.46
719.022	4.41
719.34	3.55
719.657	3.32
719.975	2.96
720.292	3.25
720.609	2.9
720.927	3
721.244	4.54
721.561	3.53
721.878	4.1
722.195	2.79
722.512	3.17
722.829	4.13
723.146	2.32
723.463	2.31
723.779	2.27
724.096	3.71
724.413	3.33
724.729	2
725.046	3.74
725.362	3.27
725.679	5.83
725.995	3.96
726.311	4.11
726.628	3.35
726.944	3.95
727.26	3.12
727.576	2.98
727.892	3.59
728.208	3.08
728.524	3.05
728.84	3.49
729.156	3.73
729.472	3.67
729.787	3.82
730.103	3.85
730.419	3.39
730.734	2.78
731.05	4.13
731.365	3.44
731.681	3.54
731.996	3.3
732.311	2.69
732.626	2.53
732.942	3.19
733.257	3.79
733.572	4.2
733.887	3.93
734.202	3.56
734.517	3.9
734.832	4.43
735.146	3.8
735.461	2.19
735.776	4.02
736.091	3.01
736.405	3.38
736.72	3.42
737.034	1.55
737.349	3.97
737.663	2.97
737.977	4.1
738.292	1.99
738.606	2.94
738.92	3.9
739.234	3.04
739.548	3.02
739.862	3.81
740.176	3.67
740.49	2.83
740.804	2.22
741.117	3.45
741.431	2.77
741.745	3.23
742.058	2.87
742.372	1.47
742.685	3.83
742.999	2.57
743.312	3.59
743.626	4.51
743.939	4.06
744.252	1.56
744.565	2.55
744.878	4.03
745.191	4.73
745.505	1.95
745.817	4.45
746.13	5.68
746.443	2.48
746.756	5.14
747.069	4.14
747.381	4.86
747.694	2.2
748.007	4.47
748.319	3.48
748.632	3.5
748.944	1.5
749.256	4.62
749.569	2.3
749.881	4.12
750.193	2.04
750.505	4.75
750.817	5.23
751.129	2.23
751.441	3.05
751.753	2.86
752.065	4.47
752.377	3.3
752.689	4.3
753	3.71
753.312	1.97
753.624	3.29
753.935	3.16
754.247	3.1
754.558	3.24
754.869	4.88
755.181	2.45
755.492	3.08
755.803	2.44
756.114	3.49
756.425	4.1
756.736	2.52
757.047	3.33
757.358	2
757.669	2
757.98	4.21
758.291	3.23
758.601	4.17
758.912	2.88
759.223	4.88
759.533	2.45
759.844	2.47
760.154	2.69
760.464	2.97
760.775	4.02
761.085	4.62
761.395	3.27
761.705	4.04
762.016	4.02
762.326	3.5
762.636	3.43
762.945	4.16
763.255	5.19
763.565	2.39
763.875	5.07
764.185	3.52
764.494	3.21
764.804	2.66
765.113	3.5
765.423	2.82
765.732	4.05
766.042	4.33
766.351	3.92
766.66	2.56
766.97	3.25
767.279	3.08
767.588	3.13
767.897	3.16
768.206	2.85
768.515	2.82
768.824	3.34
769.133	3.94
769.441	1.31
769.75	5.66
770.059	2.79
770.367	0.68
770.676	2
770.984	5.25
771.293	2.7
771.601	2.99
771.91	5.33
772.218	2.9
772.526	1.57
772.834	1.15
773.142	2.21
773.45	2.22
773.758	4.53
774.066	4.64
774.374	4.44
774.682	2.37
774.99	4.72
775.298	5.36
775.605	4.78
775.913	3.84
776.22	3.77
776.528	6.89
776.835	1.14
777.143	4.73
777.45	1.94
777.757	5.39
778.065	3.07
778.372	2.11
778.679	4.44
778.986	0.99
779.293	6.31
779.6	3.36
779.907	3.06
780.214	0.97
780.52	1.19
780.827	1.58
781.134	1.91
781.44	-0.05
781.747	3.93
782.053	3.51
782.36	5
782.666	6.59
782.973	0.42
783.279	2.97
783.585	2.76
783.891	3.51
784.197	6.79
784.503	2.11
784.809	4.03
785.115	3.32
785.421	-0.05
785.727	3.09
786.033	2.14
786.339	1.94
786.644	4.48
786.95	0.95
787.255	1.93
787.561	-0.51
787.866	-0.69
788.172	1.81
788.477	5.84
788.782	3.74
789.088	3.52
789.393	-2.62
789.698	5.34
790.003	3.85
790.308	3.81
790.613	4.73
790.918	4.11
791.223	2.66
791.527	-1.6
791.832	-0.22
792.137	2.96
792.441	2.25
792.746	-1.9
793.05	0.39
793.355	3.29
793.659	1.61
793.963	1.69
794.268	2.57
794.572	2.37
794.876	-0.93
795.18	-0.47
795.484	3.81
795.788	-0.62
796.092	0.6
796.396	7.84
796.7	2.37
797.004	4.63
797.307	2.25
797.611	3.52
797.915	4.28
798.218	1.33
798.522	4.68
798.825	3.23
799.128	0.75
799.432	0.25
799.735	-0.48
800.038	6.95
800.341	-0.8
800.644	1.61
800.947	-3.2
801.25	0.32
801.553	3.47
801.856	3.24
802.159	2
802.462	0
802.764	2.31
803.067	4.42
803.37	1.75
803.672	3.66
803.975	-2.28
804.277	2.93
804.579	7.88
804.882	-2.05
805.184	-0.24
805.486	2.28
805.788	8.17
806.09	-1.27
806.392	3.48
806.694	1.61
806.996	1.97
807.298	-0.33
807.6	-0.56
807.902	5.39
808.203	-1.37
808.505	0.29
808.807	3.4
809.108	-2.68
809.409	4.34
809.711	5.85
810.012	4.37
810.313	6.61
810.615	-0.83
810.916	1.77
811.217	8.24
811.518	1.52
811.819	1.64
812.12	-4.12
812.421	9.14
812.722	8.29
813.023	1.2
813.323	-0.76
813.624	2.71
813.925	4.74
814.225	1.49
814.526	-0.88
814.826	1.21
815.126	-2.01
815.427	5.56
815.727	5.99
816.027	4.72
816.327	2.75
816.627	5.64
816.927	-0.31
817.227	7.13
817.527	-3.71
817.827	7.14
818.127	3.31
818.427	8.7
818.727	1.97
819.026	4.41
819.326	7.31
819.625	1.72
819.925	6.67
820.224	-1.51
820.524	0.8
820.823	-2.25
821.122	0.15
821.421	3
821.72	5.12
822.019	4.31
822.318	5.67
822.617	3.7
822.916	6.02
823.215	3.42
823.514	2.91
823.813	4.76
824.111	2.82
824.41	5.29
824.709	5.6
825.007	4.31
825.306	3.84
825.604	3.61
825.902	4.44
826.201	3.93
826.499	3.91
826.797	3.84
827.095	4.59
827.393	5.21
827.691	4.08
827.989	4.91
828.287	6.45
828.585	2.09
828.882	0.89
829.18	3.37
829.478	4.35
829.775	4.5
830.073	5.42
830.37	5.85
830.668	3.03
830.965	3.25
831.263	3.08
831.56	5.87
831.857	5.4
832.154	-1.2
832.451	2.31
832.748	-2.65
833.045	2.24
833.342	3.11
833.639	-0.49
833.936	-5.11
834.232	4.56
834.529	1.53
834.826	-0.25
835.122	1.69
835.419	1.56
835.715	2.44
836.012	6.27
836.308	0.11
836.604	5.54
836.901	2.27
837.197	3.85
837.493	0.91
837.789	3.69
838.085	0.53
838.381	2.41
838.677	3.08
838.972	0.66
839.268	2.77
839.564	3.55
839.86	-3.42
840.155	-1.04
840.451	-9.54
840.746	0.68
841.042	3.18
841.337	2.52
841.632	0.55
841.928	-1.47
842.223	-4.93
842.518	-4.42
842.813	-6.28
843.108	2.8
843.403	1.24
843.698	6.07
843.993	6.76
844.287	3.81
844.582	5.85
844.877	2.33
845.171	-5.13
845.466	-3.94
845.761	-10.48
846.055	-0.89
846.349	-34.54
846.644	-2.02
846.938	1.32
847.232	-7.7
847.526	-4.67
847.82	-10.46
848.114	-1.89
848.408	-1.23
848.702	-4.49
848.996	-0.83
849.29	-1.24
849.584	-30.99
849.877	-13.47
850.171	-10.09
850.465	-7.66
850.758	-13.1
851.052	11.31
851.345	4.95
851.638	4.93
851.932	4.32
852.225	-8.07
852.518	0.24
852.811	-3.62
853.104	-4.55
853.397	-7.65
853.69	3.3
853.983	1.43
854.276	-8.44
854.569	-6.7
854.861	15.71
855.154	9.67
855.447	-1.49
855.739	-14.84
856.032	-20.61
856.324	-9.07
856.616	-8.51
856.909	-41.43
857.201	12.23
857.493	-0.15
857.785	-5.85
858.077	-25.16
858.369	-2.33
858.661	7.4
858.953	-2.53
859.245	16.48
859.537	-8.63
859.829	-11.81
860.12	6.51
860.412	-12.66
860.703	13.66
860.995	-17.24
861.286	-18.09
861.578	-31.49
861.869	-0.94
862.16	-19.22
862.452	1.96
862.743	-3.97
863.034	-30.8
863.325	-12.19
863.616	13.19
863.907	-6.7
864.198	-22.68
864.488	-1.21
864.779	9.25
865.07	-24.84
865.36	-0.85
865.651	-2.8
865.941	2.46
866.232	-0.66
866.522	-1.21
866.813	4.02
867.103	-16.62
867.393	12.8
867.683	-44.83
867.973	13.69
868.263	-23.06
868.553	-4.9
868.843	14.97
869.133	-17.49
869.423	-15.83
869.713	8.5
870.002	-24.23
870.292	-37.72
870.582	0.5
870.871	7.14
871.161	19.52
871.45	-12.6
871.739	-29.61
872.029	-18.8
872.318	-66.19
872.607	4.98
872.896	-8.84
873.185	10.93
873.474	-7.98
873.763	-41.7
874.052	0.04
874.341	0.04
874.63	-8.87
874.918	3.37
875.207	-1.14
875.496	-18
875.784	13.58
876.073	-26.5
876.361	8.72
876.649	-4.32
876.938	-16.04
877.226	-4.1
877.514	-15.69
877.802	-19.72
878.09	11.17
878.378	-19.66
878.666	-21.74
878.954	-48.83
879.242	-26.38
879.53	-52.08
879.817	-18.08
880.105	-8.25
880.392	32.04
880.68	-29.06
880.967	9.13
881.255	-14.36
881.542	-43.46
881.83	-31.04
882.117	-27.29
882.404	15.45
882.691	17.29
882.978	12.99
883.265	-16.18
883.552	12.96
883.839	-4.71
884.126	-8
884.413	-1.33
884.699	-3.92
884.986	0.88
885.273	6.45
885.559	6.45
885.846	6.45
