Data from 20-9_chest_Reflection__3__139.txt Node

Date: Fri Nov 11 21:10:49 CST 2022
User: ToomeyLab
Spectrometer: FLMS14357
Trigger mode: 0
Integration Time (sec): 1.000000E-2
Scans to average: 100
Electric dark correction enabled: true
Nonlinearity correction enabled: false
Boxcar width: 0
XAxis mode: Wavelengths
Number of Pixels in Spectrum: 2048
>>>>>Begin Spectral Data<<<<<
189.047	135.21
189.435	135.21
189.823	135.21
190.211	144.16
190.599	-49.21
190.987	619.42
191.375	26.5
191.763	-46.57
192.151	77.14
192.538	509.88
192.926	396.3
193.314	55.21
193.702	196.6
194.089	83.25
194.477	558.39
194.864	134.04
195.252	92.8
195.639	-88.8
196.027	4911.76
196.414	100
196.801	116.83
197.189	48.98
197.576	64.84
197.963	114.34
198.351	-123.56
198.738	-1.81
199.125	-10.4
199.512	1.95
199.899	-1471.01
200.286	-17.86
200.673	0.45
201.06	50.74
201.447	19.71
201.833	24.57
202.22	21.19
202.607	42.76
202.994	13.68
203.38	5.03
203.767	18.69
204.154	36.88
204.54	-10.74
204.927	42.53
205.313	-20.42
205.699	-22.92
206.086	23.42
206.472	9.79
206.858	32.51
207.245	56.54
207.631	-12.46
208.017	28.12
208.403	5.13
208.789	-5.74
209.175	-5.02
209.561	30.06
209.947	25.16
210.333	18.46
210.719	-6.32
211.105	27.91
211.491	5.55
211.876	15.52
212.262	24.13
212.648	10.68
213.034	5.03
213.419	-13.02
213.805	17.96
214.19	3.53
214.576	-21.98
214.961	-46.42
215.346	-42.47
215.732	-41.79
216.117	19.33
216.502	-5.06
216.888	27.9
217.273	8.06
217.658	-68.1
218.043	22.48
218.428	-3.19
218.813	-6.23
219.198	13.38
219.583	15.36
219.968	-7.65
220.353	-18.78
220.738	9.56
221.122	8.39
221.507	-31.35
221.892	-10.15
222.276	25.18
222.661	15.66
223.046	-10.74
223.43	-10.04
223.815	-0.93
224.199	-2.49
224.583	4.62
224.968	-3.03
225.352	-1.94
225.736	1.26
226.121	2.06
226.505	-3.98
226.889	-11.09
227.273	0.48
227.657	-3.21
228.041	1.06
228.425	-0.54
228.809	0.57
229.193	5.48
229.577	4.06
229.961	4.58
230.344	4.15
230.728	2.38
231.112	2.1
231.495	2.73
231.879	2.23
232.263	3.26
232.646	1.56
233.03	2.82
233.413	4.52
233.797	1.98
234.18	3
234.563	2.43
234.946	3.5
235.33	3.12
235.713	1.99
236.096	2.38
236.479	2.63
236.862	4.47
237.245	3.37
237.628	1.89
238.011	2.34
238.394	3.64
238.777	4.38
239.16	3.33
239.543	1.33
239.925	3.82
240.308	3.1
240.691	4.29
241.073	2.9
241.456	3.52
241.838	4
242.221	3.96
242.603	3.8
242.986	3
243.368	3.21
243.75	3.68
244.133	3.29
244.515	3.15
244.897	3.4
245.279	2.38
245.661	3.31
246.043	3.63
246.425	4.64
246.807	3.08
247.189	3.05
247.571	3.01
247.953	3.34
248.335	3.5
248.717	3.58
249.098	3.61
249.48	3.3
249.862	3.42
250.243	3.26
250.625	3.31
251.006	4.12
251.388	3.81
251.769	2.92
252.151	2.52
252.532	3.47
252.913	4.56
253.295	3.53
253.676	2.42
254.057	2.97
254.438	3.49
254.819	2.66
255.2	4.64
255.581	2.67
255.962	3.46
256.343	3.1
256.724	3.31
257.105	2.17
257.486	3.05
257.867	3.55
258.247	1.88
258.628	2.1
259.009	3.76
259.389	2.8
259.77	4
260.15	2.68
260.531	3.21
260.911	3.14
261.292	3.44
261.672	3.01
262.052	3.15
262.432	3.37
262.813	3.34
263.193	2.76
263.573	2.57
263.953	3.78
264.333	2.65
264.713	3.35
265.093	3.55
265.473	1.95
265.853	3.16
266.233	2.95
266.612	2.49
266.992	3.21
267.372	3.3
267.752	3.04
268.131	2.2
268.511	3.55
268.89	2.92
269.27	3.07
269.649	2.54
270.029	3.34
270.408	2.94
270.787	3.09
271.167	2.31
271.546	3.5
271.925	3.6
272.304	3.09
272.683	2.87
273.062	3.21
273.441	3.44
273.82	3.05
274.199	3.07
274.578	2.97
274.957	3.42
275.336	2.93
275.715	3.57
276.093	3.18
276.472	2.59
276.851	2.76
277.229	3.14
277.608	3.29
277.986	3.32
278.365	2.55
278.743	2.95
279.122	3.13
279.5	3.2
279.878	3.62
280.257	3.2
280.635	3.09
281.013	3.15
281.391	3.43
281.769	2.7
282.147	2.92
282.525	2.54
282.903	2.84
283.281	2.77
283.659	3.04
284.037	3.24
284.415	3.05
284.792	2.97
285.17	3.15
285.548	2.6
285.925	2.59
286.303	2.78
286.68	3.35
287.058	3.02
287.435	3.06
287.813	2.79
288.19	2.8
288.567	3.05
288.945	3.2
289.322	3.68
289.699	2.39
290.076	3.55
290.453	3.06
290.83	3.28
291.207	2.74
291.584	3.15
291.961	3.16
292.338	2.96
292.715	3.21
293.092	3.59
293.469	3.19
293.845	3.14
294.222	2.6
294.599	3.42
294.975	3.13
295.352	3
295.728	2.92
296.105	3
296.481	3.24
296.858	3.49
297.234	3.14
297.61	3.03
297.986	3.47
298.363	3.17
298.739	3.43
299.115	3.38
299.491	3.48
299.867	3.05
300.243	3.45
300.619	3.33
300.995	2.95
301.371	3.54
301.746	3.94
302.122	3.69
302.498	3.52
302.874	3.09
303.249	3.53
303.625	3.4
304	3.07
304.376	3.49
304.751	3.09
305.127	3.38
305.502	3.86
305.878	4.09
306.253	3.38
306.628	3.29
307.003	3.58
307.378	3.36
307.754	4.03
308.129	3.63
308.504	3.38
308.879	3.96
309.254	3.41
309.629	3.47
310.003	3.27
310.378	3.82
310.753	3.97
311.128	3.88
311.502	3.31
311.877	3.55
312.252	3.4
312.626	3.68
313.001	3.43
313.375	3.5
313.75	3.51
314.124	3.48
314.498	3.79
314.873	3.57
315.247	3.77
315.621	4.14
315.995	3.58
316.369	3.88
316.743	4.01
317.117	3.53
317.491	3.23
317.865	3.33
318.239	4
318.613	4.22
318.987	3.58
319.361	3.29
319.734	4.22
320.108	3.61
320.482	4.15
320.855	2.97
321.229	4.2
321.602	3.38
321.976	3.72
322.349	4.09
322.723	4.04
323.096	3.87
323.469	3.92
323.843	3.98
324.216	4.06
324.589	4.19
324.962	4.24
325.335	3.52
325.708	3.67
326.081	3.85
326.454	3.96
326.827	3.63
327.2	4.26
327.573	4.57
327.945	3.53
328.318	3.99
328.691	4.06
329.063	3.93
329.436	4.06
329.809	3.39
330.181	3.77
330.553	3.29
330.926	4.17
331.298	4.04
331.671	3.62
332.043	3.3
332.415	3.72
332.787	3.95
333.159	4.21
333.532	4.1
333.904	4.14
334.276	3.76
334.648	3.38
335.02	3.97
335.391	4.39
335.763	3.54
336.135	3.89
336.507	3.65
336.879	3.84
337.25	3.85
337.622	4.01
337.993	3.79
338.365	4.2
338.736	3.94
339.108	4.33
339.479	4.08
339.851	4.14
340.222	3.88
340.593	4.43
340.964	4.08
341.336	4.1
341.707	3.89
342.078	3.57
342.449	4.24
342.82	4.05
343.191	4.13
343.562	3.85
343.933	3.84
344.303	3.54
344.674	4.07
345.045	3.99
345.416	4.28
345.786	3.98
346.157	4
346.527	3.79
346.898	3.64
347.268	3.98
347.639	3.66
348.009	3.81
348.38	4.06
348.75	4.01
349.12	4.44
349.49	4.29
349.861	4.11
350.231	4.36
350.601	3.79
350.971	3.98
351.341	4.22
351.711	3.98
352.081	4.16
352.45	4.13
352.82	3.89
353.19	4.31
353.56	4.01
353.929	4.02
354.299	4.07
354.669	4.31
355.038	4.01
355.408	4.18
355.777	4.37
356.147	4.09
356.516	4.2
356.885	4.23
357.254	3.89
357.624	3.7
357.993	3.94
358.362	4.42
358.731	4.04
359.1	3.94
359.469	3.84
359.838	4.04
360.207	4.23
360.576	4.24
360.945	4.19
361.314	4
361.682	4.2
362.051	4.43
362.42	4.15
362.788	4.38
363.157	4.18
363.525	4.22
363.894	4.05
364.262	4.57
364.631	4.33
364.999	4.23
365.367	4.11
365.735	4.22
366.104	4.27
366.472	4.33
366.84	3.88
367.208	4.22
367.576	4.68
367.944	4.24
368.312	4.28
368.68	4.33
369.048	4.27
369.416	4.21
369.783	4.41
370.151	4.42
370.519	4.68
370.886	4.08
371.254	4.57
371.621	4.2
371.989	4.37
372.356	4.5
372.724	4.43
373.091	4.44
373.458	4.34
373.826	4.3
374.193	4.08
374.56	4.31
374.927	4.42
375.294	4.6
375.661	4.64
376.028	4.09
376.395	4.47
376.762	4.55
377.129	4.43
377.496	4.53
377.863	4.41
378.229	4.51
378.596	4.29
378.963	4.55
379.329	4.61
379.696	4.65
380.062	4.35
380.429	4.5
380.795	5.03
381.161	4.35
381.528	4.61
381.894	4.59
382.26	4.62
382.626	4.54
382.993	4.43
383.359	4.65
383.725	4.4
384.091	4.19
384.457	4.5
384.823	4.37
385.188	4.66
385.554	4.53
385.92	4.39
386.286	4.4
386.651	4.5
387.017	4.49
387.383	4.6
387.748	4.42
388.114	4.63
388.479	4.49
388.845	4.44
389.21	4.56
389.575	4.42
389.94	4.42
390.306	4.38
390.671	4.57
391.036	4.45
391.401	4.69
391.766	4.46
392.131	4.48
392.496	4.7
392.861	4.41
393.226	4.35
393.591	4.55
393.956	4.62
394.32	4.48
394.685	4.45
395.05	4.89
395.414	4.61
395.779	4.64
396.143	4.4
396.508	4.72
396.872	4.64
397.236	4.6
397.601	4.67
397.965	4.72
398.329	4.62
398.694	4.73
399.058	4.61
399.422	4.73
399.786	4.44
400.15	4.61
400.514	4.69
400.878	4.67
401.242	4.64
401.605	4.82
401.969	4.71
402.333	4.4
402.697	4.88
403.06	5.01
403.424	4.55
403.787	4.71
404.151	4.6
404.514	4.64
404.878	4.62
405.241	4.36
405.604	4.5
405.968	4.56
406.331	4.56
406.694	4.74
407.057	4.67
407.42	4.96
407.783	4.61
408.146	4.74
408.509	4.65
408.872	4.75
409.235	4.75
409.598	4.81
409.961	4.99
410.323	4.67
410.686	4.65
411.049	4.7
411.411	4.64
411.774	4.63
412.136	4.7
412.499	4.55
412.861	4.79
413.223	4.71
413.586	4.67
413.948	4.87
414.31	4.85
414.672	4.61
415.035	4.51
415.397	4.53
415.759	4.58
416.121	4.65
416.483	4.67
416.845	4.59
417.206	4.49
417.568	4.71
417.93	4.56
418.292	4.61
418.653	4.69
419.015	4.74
419.377	4.7
419.738	4.69
420.1	4.61
420.461	4.63
420.822	4.66
421.184	4.66
421.545	4.68
421.906	4.66
422.267	4.56
422.629	4.51
422.99	4.64
423.351	4.61
423.712	4.5
424.073	4.74
424.434	4.68
424.795	4.76
425.155	4.64
425.516	4.74
425.877	4.65
426.238	4.62
426.598	4.67
426.959	4.64
427.32	4.8
427.68	4.87
428.041	4.87
428.401	4.74
428.761	4.92
429.122	4.77
429.482	4.78
429.842	4.77
430.202	4.8
430.563	5.01
430.923	4.92
431.283	4.9
431.643	4.81
432.003	5.06
432.363	4.75
432.722	4.89
433.082	4.88
433.442	4.98
433.802	4.94
434.161	4.82
434.521	4.94
434.881	5
435.24	4.9
435.6	4.9
435.959	4.93
436.319	4.88
436.678	4.87
437.037	4.91
437.396	5
437.756	4.96
438.115	4.89
438.474	5.04
438.833	5
439.192	5.01
439.551	4.9
439.91	4.86
440.269	4.99
440.628	4.97
440.987	4.8
441.345	5.02
441.704	4.94
442.063	4.83
442.421	4.84
442.78	4.81
443.138	5.03
443.497	4.84
443.855	4.97
444.214	4.97
444.572	4.99
444.93	4.97
445.288	4.87
445.647	5.03
446.005	5.01
446.363	4.98
446.721	5.11
447.079	5.04
447.437	4.88
447.795	4.98
448.153	4.85
448.51	4.94
448.868	4.98
449.226	4.97
449.584	4.95
449.941	4.96
450.299	4.91
450.656	5.07
451.014	5.04
451.371	5.13
451.729	4.98
452.086	5.03
452.443	5.02
452.801	5.22
453.158	5.06
453.515	5.15
453.872	4.91
454.229	5.05
454.586	5.17
454.943	5.14
455.3	5.15
455.657	5.13
456.014	5.19
456.371	5.14
456.727	5.25
457.084	4.87
457.441	5.17
457.797	5.1
458.154	5.24
458.51	5.15
458.867	5.01
459.223	5.23
459.58	5.08
459.936	5.16
460.292	5.16
460.648	5.11
461.005	5.14
461.361	5.04
461.717	4.98
462.073	5.08
462.429	5.12
462.785	4.99
463.141	5.07
463.496	5.23
463.852	5.24
464.208	5.21
464.564	5.14
464.919	5.17
465.275	5.15
465.631	5.33
465.986	5.43
466.342	5.2
466.697	5.21
467.052	5.28
467.408	5.2
467.763	5.13
468.118	5.16
468.473	5.34
468.829	5.27
469.184	5.24
469.539	5.28
469.894	5.18
470.249	5.36
470.603	5.16
470.958	5.19
471.313	5.27
471.668	5.4
472.023	5.29
472.377	5.48
472.732	5.28
473.086	5.29
473.441	5.16
473.795	5.18
474.15	5.29
474.504	5.27
474.859	5.25
475.213	5.36
475.567	5.38
475.921	5.38
476.275	5.25
476.63	5.3
476.984	5.41
477.338	5.36
477.692	5.18
478.045	5.32
478.399	5.29
478.753	5.23
479.107	5.44
479.461	5.32
479.814	5.28
480.168	5.27
480.521	5.38
480.875	5.41
481.228	5.26
481.582	5.42
481.935	5.25
482.289	5.24
482.642	5.39
482.995	5.24
483.348	5.25
483.701	5.31
484.055	5.32
484.408	5.22
484.761	5.16
485.114	5.05
485.466	5.03
485.819	4.98
486.172	5.03
486.525	5.12
486.878	5.15
487.23	5.19
487.583	5.17
487.936	5.16
488.288	5.23
488.641	5.17
488.993	5.15
489.345	5.07
489.698	5.14
490.05	5.17
490.402	5.17
490.754	5.27
491.107	5.21
491.459	5.27
491.811	5.29
492.163	5.33
492.515	5.28
492.866	5.25
493.218	5.22
493.57	5.19
493.922	5.24
494.274	5.33
494.625	5.38
494.977	5.39
495.328	5.5
495.68	5.38
496.031	5.42
496.383	5.43
496.734	5.57
497.086	5.6
497.437	5.47
497.788	5.42
498.139	5.43
498.49	5.41
498.842	5.42
499.193	5.55
499.544	5.51
499.894	5.5
500.245	5.52
500.596	5.55
500.947	5.51
501.298	5.55
501.648	5.57
501.999	5.43
502.35	5.63
502.7	5.56
503.051	5.59
503.401	5.73
503.752	5.51
504.102	5.5
504.452	5.65
504.803	5.68
505.153	5.51
505.503	5.66
505.853	5.61
506.203	5.74
506.553	5.52
506.903	5.59
507.253	5.64
507.603	5.63
507.953	5.64
508.303	5.49
508.652	5.6
509.002	5.67
509.352	5.73
509.701	5.68
510.051	5.6
510.4	5.66
510.75	5.63
511.099	5.58
511.449	5.59
511.798	5.58
512.147	5.57
512.496	5.56
512.846	5.88
513.195	5.65
513.544	5.69
513.893	5.65
514.242	5.69
514.591	5.71
514.939	5.74
515.288	5.69
515.637	5.81
515.986	5.74
516.334	5.78
516.683	5.71
517.032	5.76
517.38	5.74
517.729	5.76
518.077	5.86
518.426	5.87
518.774	5.8
519.122	5.92
519.47	5.74
519.819	5.75
520.167	5.71
520.515	5.8
520.863	5.69
521.211	5.75
521.559	5.72
521.907	5.87
522.255	5.75
522.602	5.78
522.95	5.89
523.298	5.84
523.645	5.8
523.993	5.95
524.341	5.94
524.688	5.97
525.036	5.95
525.383	5.86
525.73	5.96
526.078	5.97
526.425	5.95
526.772	5.87
527.119	5.78
527.466	5.89
527.814	5.84
528.161	5.94
528.508	5.9
528.854	5.83
529.201	5.93
529.548	5.79
529.895	5.77
530.242	5.71
530.588	5.72
530.935	5.73
531.282	5.82
531.628	5.86
531.975	5.9
532.321	5.83
532.667	6.03
533.014	6.06
533.36	5.96
533.706	6.09
534.052	5.98
534.399	5.98
534.745	5.92
535.091	5.93
535.437	5.9
535.783	6.02
536.129	6
536.474	6.14
536.82	6.05
537.166	6.14
537.512	6.08
537.857	6.14
538.203	6.05
538.549	6.24
538.894	6.06
539.239	6.13
539.585	6.2
539.93	6.17
540.276	6.34
540.621	6.38
540.966	6.44
541.311	6.24
541.656	6.38
542.001	6.37
542.346	6.28
542.691	6.18
543.036	6.11
543.381	6.14
543.726	6.15
544.071	6.18
544.415	6.33
544.76	6.26
545.105	6.25
545.449	6.24
545.794	6.41
546.138	6.39
546.483	6.44
546.827	6.46
547.171	6.45
547.516	6.43
547.86	6.42
548.204	6.5
548.548	6.45
548.892	6.4
549.236	6.54
549.58	6.57
549.924	6.58
550.268	6.61
550.612	6.72
550.956	6.89
551.3	6.69
551.643	6.7
551.987	6.82
552.33	6.76
552.674	6.67
553.017	6.92
553.361	6.84
553.704	6.75
554.048	6.68
554.391	6.86
554.734	6.69
555.077	6.92
555.42	6.85
555.764	6.97
556.107	7.02
556.45	6.93
556.793	6.92
557.135	6.98
557.478	6.95
557.821	7.01
558.164	7
558.507	7.08
558.849	6.89
559.192	7.09
559.534	7.08
559.877	7.19
560.219	7.18
560.562	7.1
560.904	7.3
561.246	6.94
561.589	7.31
561.931	7.1
562.273	7.11
562.615	7.12
562.957	7.23
563.299	7.21
563.641	7.11
563.983	7.23
564.325	7.27
564.667	7.32
565.008	7.47
565.35	7.36
565.692	7.11
566.033	7.21
566.375	7.39
566.716	7.43
567.058	7.5
567.399	7.52
567.741	7.54
568.082	7.49
568.423	7.46
568.764	7.61
569.105	7.38
569.447	7.57
569.788	7.54
570.129	7.62
570.47	7.63
570.811	7.58
571.151	7.81
571.492	7.87
571.833	7.82
572.174	7.82
572.514	7.8
572.855	7.71
573.195	7.61
573.536	7.88
573.876	7.73
574.217	7.89
574.557	7.63
574.898	8.07
575.238	7.71
575.578	7.84
575.918	7.95
576.258	7.87
576.598	7.82
576.938	7.88
577.278	7.79
577.618	7.93
577.958	7.92
578.298	8.21
578.638	8.02
578.977	8.1
579.317	8.17
579.657	8.16
579.996	8.18
580.336	8.05
580.675	8.3
581.014	8.38
581.354	8.11
581.693	8.19
582.032	8.33
582.372	8.32
582.711	8.16
583.05	8.35
583.389	8.41
583.728	8.58
584.067	8.63
584.406	8.25
584.745	8.49
585.083	8.39
585.422	8.57
585.761	8.54
586.1	8.51
586.438	8.47
586.777	8.52
587.115	8.71
587.454	8.76
587.792	8.56
588.13	8.6
588.469	8.71
588.807	8.89
589.145	8.72
589.483	8.96
589.821	8.67
590.159	8.75
590.497	8.91
590.835	8.84
591.173	9
591.511	8.75
591.849	8.93
592.187	8.83
592.524	8.79
592.862	8.83
593.2	8.99
593.537	9.04
593.875	8.96
594.212	9.15
594.55	8.95
594.887	9.09
595.224	8.97
595.561	8.99
595.899	8.92
596.236	9.11
596.573	9.31
596.91	9.15
597.247	9.47
597.584	9.25
597.921	9.6
598.258	9.18
598.594	9.36
598.931	9.24
599.268	9.47
599.604	9.44
599.941	9.47
600.277	9.58
600.614	9.54
600.95	9.42
601.287	9.56
601.623	9.97
601.959	9.7
602.296	9.56
602.632	9.51
602.968	9.82
603.304	9.98
603.64	9.8
603.976	9.81
604.312	9.69
604.648	9.65
604.984	10.01
605.319	9.94
605.655	9.8
605.991	9.9
606.326	9.91
606.662	10.01
606.998	9.95
607.333	9.82
607.668	9.8
608.004	10.07
608.339	10.11
608.674	10.22
609.01	10.26
609.345	10.26
609.68	10.01
610.015	10.23
610.35	10.3
610.685	10.36
611.02	10.3
611.355	10.22
611.689	10.21
612.024	10.49
612.359	10.47
612.694	10.11
613.028	10.59
613.363	10.42
613.697	10.68
614.032	10.57
614.366	10.72
614.7	10.65
615.035	10.58
615.369	10.7
615.703	10.76
616.037	10.69
616.371	10.57
616.705	11.13
617.039	10.77
617.373	10.73
617.707	11.05
618.041	11.11
618.375	10.89
618.709	11.01
619.042	11.15
619.376	11.02
619.71	10.97
620.043	11.12
620.377	11.01
620.71	11
621.043	11.01
621.377	11.13
621.71	11.16
622.043	11.27
622.376	11.08
622.709	11.02
623.043	11.16
623.376	11.33
623.709	11.64
624.041	11.47
624.374	11.03
624.707	11.39
625.04	11.32
625.373	11.24
625.705	11.71
626.038	11.47
626.37	11.75
626.703	11.71
627.035	11.68
627.368	11.52
627.7	11.5
628.032	11.84
628.365	11.82
628.697	11.88
629.029	11.7
629.361	11.8
629.693	12.11
630.025	11.9
630.357	11.74
630.689	11.69
631.021	11.8
631.353	12.68
631.684	11.75
632.016	11.91
632.348	11.89
632.679	11.81
633.011	12.44
633.342	12.3
633.674	12.24
634.005	12.14
634.336	12.2
634.668	12.2
634.999	12.4
635.33	12.43
635.661	12.55
635.992	12.7
636.323	12.28
636.654	12.46
636.985	12.42
637.316	12.57
637.647	12.79
637.977	12.63
638.308	12.75
638.639	12.55
638.969	12.57
639.3	12.81
639.63	13.01
639.961	12.92
640.291	12.93
640.622	12.96
640.952	12.68
641.282	12.94
641.612	12.95
641.943	13.28
642.273	12.51
642.603	12.96
642.933	13.27
643.263	12.55
643.592	13.41
643.922	13.12
644.252	13.26
644.582	13.29
644.911	13.03
645.241	13.58
645.571	13.56
645.9	13.56
646.23	13.69
646.559	13.85
646.888	13.48
647.218	13.32
647.547	13.51
647.876	13.84
648.205	13.69
648.534	13.28
648.863	13.68
649.192	13.27
649.521	13.66
649.85	13.98
650.179	13.73
650.508	14.4
650.837	14.15
651.165	13.78
651.494	13.82
651.822	14.33
652.151	13.71
652.479	13.74
652.808	13.65
653.136	13.65
653.465	14.27
653.793	14.28
654.121	13.98
654.449	13.52
654.777	14.33
655.105	14.42
655.433	14.82
655.761	14.51
656.089	14.37
656.417	14.07
656.745	14.36
657.073	14.36
657.4	14.38
657.728	14.5
658.056	14.62
658.383	14.56
658.711	14.59
659.038	14.76
659.365	14.61
659.693	14.23
660.02	15.15
660.347	14.58
660.674	15.03
661.001	15.02
661.329	14.78
661.656	14.78
661.982	15.27
662.309	14.59
662.636	15.32
662.963	15.16
663.29	14.92
663.616	14.79
663.943	14.96
664.27	14.87
664.596	15.43
664.923	15.39
665.249	15.84
665.576	15.83
665.902	15.5
666.228	15.61
666.554	15.6
666.881	15.18
667.207	15.73
667.533	15.59
667.859	15.71
668.185	15.53
668.511	15.13
668.837	15.87
669.162	15.53
669.488	15.38
669.814	16
670.139	15.92
670.465	15.82
670.791	15.65
671.116	16
671.442	16.35
671.767	16.24
672.092	15.71
672.418	15.51
672.743	16.21
673.068	16.29
673.393	16.15
673.718	16.27
674.043	16.15
674.368	15.91
674.693	16.15
675.018	16.16
675.343	16.26
675.667	16.77
675.992	17.35
676.317	16.52
676.641	16.27
676.966	16.59
677.29	16.89
677.615	16.61
677.939	16.6
678.264	16.74
678.588	16.67
678.912	16.26
679.236	16.92
679.56	17.29
679.885	16.49
680.209	16.49
680.532	17.34
680.856	17
681.18	17.06
681.504	16.91
681.828	16.69
682.152	17.39
682.475	16.95
682.799	17.09
683.122	17.13
683.446	17.55
683.769	17.43
684.093	17.11
684.416	17.23
684.739	17.44
685.062	16.87
685.386	18.22
685.709	18.1
686.032	17.04
686.355	17.43
686.678	17.77
687.001	16.93
687.324	17.96
687.646	16.82
687.969	17.9
688.292	18.16
688.614	17.64
688.937	17.17
689.26	17
689.582	17.69
689.904	18.35
690.227	18.12
690.549	17.87
690.871	17.96
691.194	17.95
691.516	17.99
691.838	18.02
692.16	17.95
692.482	17.51
692.804	18.18
693.126	18.54
693.448	18.02
693.769	17.84
694.091	18.93
694.413	18.59
694.735	17.63
695.056	18.21
695.378	18.55
695.699	18.84
696.021	18.2
696.342	18.12
696.663	19.16
696.984	18.61
697.306	18.39
697.627	18.52
697.948	18.02
698.269	19.11
698.59	18.69
698.911	18.85
699.232	19.29
699.553	18.96
699.873	19.11
700.194	18.85
700.515	18.9
700.835	19.43
701.156	19.26
701.477	18.46
701.797	18.95
702.117	19.11
702.438	19.5
702.758	18.92
703.078	19.25
703.398	20.37
703.719	20.14
704.039	19.91
704.359	19.5
704.679	19.33
704.999	19.22
705.319	19.99
705.638	19.76
705.958	19.85
706.278	19.56
706.597	19.34
706.917	19.75
707.237	19.69
707.556	19.93
707.876	20.22
708.195	19.94
708.514	20.37
708.834	20.14
709.153	19.7
709.472	19.8
709.791	20.72
710.11	19.58
710.429	21.2
710.748	19.97
711.067	20.32
711.386	20.31
711.705	19.93
712.023	21.03
712.342	20.14
712.661	20.1
712.979	21.34
713.298	21.82
713.616	20.98
713.935	20.52
714.253	21.21
714.572	20.27
714.89	21.31
715.208	20.53
715.526	20.57
715.844	20.83
716.162	20.97
716.48	21.21
716.798	21.51
717.116	20.94
717.434	21.78
717.752	20.9
718.069	21.45
718.387	22.32
718.705	20.82
719.022	22.4
719.34	21.54
719.657	20.85
719.975	20.15
720.292	21.25
720.609	21.13
720.927	20.82
721.244	21.76
721.561	21.04
721.878	22.35
722.195	21.23
722.512	21.63
722.829	21.53
723.146	20.7
723.463	20.43
723.779	21.91
724.096	23.02
724.413	21.77
724.729	22.3
725.046	22.39
725.362	23.28
725.679	21.81
725.995	21.87
726.311	22.06
726.628	22.88
726.944	22.03
727.26	22.01
727.576	22.62
727.892	22.6
728.208	21.9
728.524	21.92
728.84	23.32
729.156	22.11
729.472	23.38
729.787	22.83
730.103	21.72
730.419	22.86
730.734	21.92
731.05	22.9
731.365	24.07
731.681	23.08
731.996	22.79
732.311	21.97
732.626	23.04
732.942	22.48
733.257	22.03
733.572	23.13
733.887	23.55
734.202	22.23
734.517	23.43
734.832	24.08
735.146	22.82
735.461	21.6
735.776	24.28
736.091	24.1
736.405	23.3
736.72	22.85
737.034	21.8
737.349	24.28
737.663	23.79
737.977	23.46
738.292	22.83
738.606	21.52
738.92	24.38
739.234	22.75
739.548	23.3
739.862	23.79
740.176	24.63
740.49	23.41
740.804	23.64
741.117	23.85
741.431	23.29
741.745	23.61
742.058	23
742.372	23.69
742.685	24.11
742.999	23.41
743.312	23.88
743.626	24.7
743.939	23.5
744.252	24.92
744.565	25.12
744.878	25.01
745.191	25.09
745.505	23.57
745.817	23.48
746.13	25.63
746.443	22.8
746.756	24.86
747.069	23.43
747.381	25.86
747.694	23.91
748.007	25.18
748.319	24.9
748.632	23.93
748.944	22.38
749.256	25
749.569	24.68
749.881	26.23
750.193	24.81
750.505	27.9
750.817	25.49
751.129	25.16
751.441	25.11
751.753	24.05
752.065	25.61
752.377	25.31
752.689	26.12
753	24.59
753.312	24.75
753.624	24.72
753.935	25.67
754.247	23.17
754.558	24.8
754.869	25.82
755.181	24.2
755.492	26.71
755.803	23.63
756.114	25.07
756.425	25.59
756.736	24.49
757.047	26.52
757.358	25.64
757.669	26.55
757.98	26.31
758.291	24.59
758.601	25.26
758.912	26.12
759.223	26.66
759.533	26.18
759.844	23.43
760.154	25.23
760.464	25.22
760.775	26.66
761.085	27.1
761.395	25.16
761.705	25.88
762.016	25.38
762.326	26.99
762.636	26.23
762.945	25.76
763.255	26.81
763.565	24.45
763.875	27.12
764.185	28.16
764.494	25.89
764.804	25.94
765.113	26.6
765.423	26.58
765.732	27.21
766.042	27.04
766.351	27.09
766.66	26.64
766.97	26.38
767.279	26.58
767.588	26.78
767.897	26.93
768.206	26.43
768.515	27.21
768.824	26.07
769.133	26.88
769.441	24.27
769.75	29.15
770.059	26.57
770.367	26.26
770.676	27.26
770.984	27.45
771.293	25.78
771.601	28
771.91	29.26
772.218	27.77
772.526	28.54
772.834	28.98
773.142	25.7
773.45	26.24
773.758	29.75
774.066	29.11
774.374	28.1
774.682	28.32
774.99	28.78
775.298	29.66
775.605	26.55
775.913	29.49
776.22	27.43
776.528	31.88
776.835	27.27
777.143	29.89
777.45	27.43
777.757	28.84
778.065	25.55
778.372	27.34
778.679	28.97
778.986	28.18
779.293	30.08
779.6	27.5
779.907	28.79
780.214	27.13
780.52	25.47
780.827	26.76
781.134	27.46
781.44	26.57
781.747	29.24
782.053	26.35
782.36	31.47
782.666	27.01
782.973	26.36
783.279	28.82
783.585	27.17
783.891	30.63
784.197	27.68
784.503	28.64
784.809	24.23
785.115	26.5
785.421	28.84
785.727	32.41
786.033	31.66
786.339	30.66
786.644	28.81
786.95	23.38
787.255	26.63
787.561	23.61
787.866	25.22
788.172	29.25
788.477	27.77
788.782	29.12
789.088	26.95
789.393	28.43
789.698	31.42
790.003	28.88
790.308	27.17
790.613	30.8
790.918	28.85
791.223	29.27
791.527	30.36
791.832	27.63
792.137	32.01
792.441	29.13
792.746	25.17
793.05	28.34
793.355	25.77
793.659	27.55
793.963	27.42
794.268	29.52
794.572	31.88
794.876	25.42
795.18	27.63
795.484	30.56
795.788	27.65
796.092	31.7
796.396	31.02
796.7	29.11
797.004	31.3
797.307	30.71
797.611	28.12
797.915	25.44
798.218	33.19
798.522	32.32
798.825	29.56
799.128	28.79
799.432	31.99
799.735	30.87
800.038	30.82
800.341	27.41
800.644	33.02
800.947	29.09
801.25	29.65
801.553	27.56
801.856	30.7
802.159	29.08
802.462	29.42
802.764	33.98
803.067	32.82
803.37	27.71
803.672	31.49
803.975	27.56
804.277	26.72
804.579	31.07
804.882	27.63
805.184	28.77
805.486	31.07
805.788	31.71
806.09	28.37
806.392	30.29
806.694	30.6
806.996	28.9
807.298	27.44
807.6	32.62
807.902	31.47
808.203	28.23
808.505	29.85
808.807	30.22
809.108	33.55
809.409	30.5
809.711	32.31
810.012	33.44
810.313	31.75
810.615	30.58
810.916	28.2
811.217	35.65
811.518	32.42
811.819	32.85
812.12	30.38
812.421	37.96
812.722	31.92
813.023	26.24
813.323	38.06
813.624	31.63
813.925	29.74
814.225	26.69
814.526	28.54
814.826	24.13
815.126	26.32
815.427	38.44
815.727	32.25
816.027	28.35
816.327	29.53
816.627	34.72
816.927	29.98
817.227	29.97
817.527	30.34
817.827	29.13
818.127	34.5
818.427	31.9
818.727	33.11
819.026	33.71
819.326	28.55
819.625	30.61
819.925	31.83
820.224	24.11
820.524	31.01
820.823	29.17
821.122	30.82
821.421	29.17
821.72	30.67
822.019	27.69
822.318	34.31
822.617	33.87
822.916	35.15
823.215	33.92
823.514	32.54
823.813	37.01
824.111	33.5
824.41	33.7
824.709	34.04
825.007	32.92
825.306	32.87
825.604	32.95
825.902	34.04
826.201	33.4
826.499	33.27
826.797	33.23
827.095	33.53
827.393	33.91
827.691	33.93
827.989	33.21
828.287	36.14
828.585	32.68
828.882	33.54
829.18	33.2
829.478	32.69
829.775	33.95
830.073	34.59
830.37	34.37
830.668	35.34
830.965	33.18
831.263	34.02
831.56	35.78
831.857	34.01
832.154	26.55
832.451	29.6
832.748	32.04
833.045	34.52
833.342	31.08
833.639	34.36
833.936	34.63
834.232	32.17
834.529	32.38
834.826	36.72
835.122	33.94
835.419	36.21
835.715	35.83
836.012	38.59
836.308	30.13
836.604	33.21
836.901	35.34
837.197	32.86
837.493	32.95
837.789	32.35
838.085	30.41
838.381	34.81
838.677	31.42
838.972	33.03
839.268	32.45
839.564	35.64
839.86	31.91
840.155	29.26
840.451	27.77
840.746	31.29
841.042	29.88
841.337	38.26
841.632	40.85
841.928	36.83
842.223	37.19
842.518	27.57
842.813	30.43
843.108	31.17
843.403	35.26
843.698	34.15
843.993	37.55
844.287	32.71
844.582	35.63
844.877	30.03
845.171	17.82
845.466	32.82
845.761	26.34
846.055	32.6
846.349	18.45
846.644	33.99
846.938	31.92
847.232	19.56
847.526	29.44
847.82	40.54
848.114	33.14
848.408	27.27
848.702	36.79
848.996	20.59
849.29	34.71
849.584	20.12
849.877	18.16
850.171	19.07
850.465	27.98
850.758	28.44
851.052	21.15
851.345	44.97
851.638	45.15
851.932	45.97
852.225	34.87
852.518	22.62
852.811	27.49
853.104	36.17
853.397	8.96
853.69	39.1
853.983	29.75
854.276	59.34
854.569	35.08
854.861	44.94
855.154	24.6
855.447	33.93
855.739	33.62
856.032	51.77
856.324	57.14
856.616	35.49
856.909	1.32
857.201	23.82
857.493	53.36
857.785	30.52
858.077	30.72
858.369	34.86
858.661	36.5
858.953	27.09
859.245	34.77
859.537	27.61
859.829	22.73
860.12	42.14
860.412	28.43
860.703	42.15
860.995	31.65
861.286	36.5
861.578	-4.85
861.869	33.89
862.16	-8.01
862.452	40.98
862.743	32.21
863.034	39.49
863.325	38.34
863.616	27.43
863.907	19.35
864.198	-3.05
864.488	19.02
864.779	30.31
865.07	-1.23
865.36	28.43
865.651	19.22
865.941	60.58
866.232	39.13
866.522	32.06
866.813	55.1
867.103	23.16
867.393	18.72
867.683	18.17
867.973	35.68
868.263	29.14
868.553	30.87
868.843	47.15
869.133	42.96
869.423	84.76
869.713	45.42
870.002	25.39
870.292	-6.01
870.582	22.02
870.871	25.07
871.161	41.7
871.45	32.67
871.739	36.06
872.029	45.91
872.318	20.9
872.607	31.44
872.896	41.54
873.185	32.18
873.474	35.72
873.763	22.95
874.052	61.68
874.341	61.43
874.63	27.39
874.918	31.25
875.207	48.06
875.496	36.72
875.784	54.06
876.073	33.57
876.361	26.58
876.649	30
876.938	-3.92
877.226	25.96
877.514	28.19
877.802	26.01
878.09	33.54
878.378	29.58
878.666	20.66
878.954	-14.9
879.242	1.25
879.53	24.95
879.817	39.66
880.105	32.36
880.392	39.31
880.68	47.42
880.967	29.02
881.255	39.76
881.542	13.5
881.83	45.91
882.117	51.19
882.404	48.84
882.691	54.42
882.978	49.23
883.265	35.2
883.552	35.23
883.839	25.66
884.126	9.76
884.413	36.21
884.699	33.42
884.986	41.33
885.273	41.12
885.559	41.12
885.846	41.12
