Data from 2019-4_chest_Reflection__0__190.txt Node

Date: Fri Nov 11 18:25:19 CST 2022
User: ToomeyLab
Spectrometer: FLMS14357
Trigger mode: 0
Integration Time (sec): 1.000000E-2
Scans to average: 100
Electric dark correction enabled: true
Nonlinearity correction enabled: false
Boxcar width: 0
XAxis mode: Wavelengths
Number of Pixels in Spectrum: 2048
>>>>>Begin Spectral Data<<<<<
189.047	221.32
189.435	221.32
189.823	221.32
190.211	-14.08
190.599	54.55
190.987	128.73
191.375	-999.17
191.763	43.48
192.151	18.59
192.538	-320.74
192.926	167.49
193.314	304.3
193.702	-748.85
194.089	-104.8
194.477	120.73
194.864	91.55
195.252	-11.11
195.639	86.03
196.027	36.29
196.414	-98.16
196.801	36.52
197.189	72.94
197.576	247.45
197.963	174.76
198.351	9.8
198.738	10.74
199.125	-16.97
199.512	-48.15
199.899	39.56
200.286	-77.18
200.673	-23.58
201.06	-21.32
201.447	19.02
201.833	25.78
202.22	-33.32
202.607	-23.67
202.994	53.13
203.38	-68.83
203.767	27.71
204.154	-35.35
204.54	20.55
204.927	-12.57
205.313	13.91
205.699	8.62
206.086	-45.41
206.472	-74.57
206.858	0.27
207.245	-18.15
207.631	-35.8
208.017	-49.04
208.403	6.61
208.789	15.84
209.175	-19.45
209.561	18.85
209.947	-9.38
210.333	18.03
210.719	-12.5
211.105	0.86
211.491	7.6
211.876	-13.75
212.262	-40.3
212.648	-4.27
213.034	-2.19
213.419	-33.69
213.805	-7.86
214.19	8.98
214.576	9.86
214.961	16.7
215.346	-8.46
215.732	-8.26
216.117	25.58
216.502	5.29
216.888	-25.41
217.273	-1.86
217.658	-19.09
218.043	5.75
218.428	18.09
218.813	13.4
219.198	-4.34
219.583	-6.76
219.968	0.01
220.353	-4.18
220.738	-4.12
221.122	-18.13
221.507	8.19
221.892	15.73
222.276	12.82
222.661	-1.82
223.046	-22.45
223.43	4.21
223.815	-5.38
224.199	-19.82
224.583	21.54
224.968	11.07
225.352	8.01
225.736	-7.47
226.121	8.49
226.505	-2.99
226.889	1.09
227.273	5.6
227.657	5.77
228.041	4.79
228.425	-0.82
228.809	2.46
229.193	1.11
229.577	2.87
229.961	3.63
230.344	2.7
230.728	3.22
231.112	2.13
231.495	3.46
231.879	3.1
232.263	2.69
232.646	2.59
233.03	2.26
233.413	3.42
233.797	2.62
234.18	-1.8
234.563	1.98
234.946	2.46
235.33	3.84
235.713	0.31
236.096	3.19
236.479	1.19
236.862	2.75
237.245	3.77
237.628	1.74
238.011	1.44
238.394	3.14
238.777	1.96
239.16	1.53
239.543	3.66
239.925	0.9
240.308	2.49
240.691	4.69
241.073	3.36
241.456	2.27
241.838	3.39
242.221	2.93
242.603	1.39
242.986	2.2
243.368	1.92
243.75	3.04
244.133	2.26
244.515	3.08
244.897	3.12
245.279	2.66
245.661	1.97
246.043	1.93
246.425	2.26
246.807	3.06
247.189	2.93
247.571	2.15
247.953	2.4
248.335	2.37
248.717	2.85
249.098	2.61
249.48	2.54
249.862	2.24
250.243	2.36
250.625	2.01
251.006	1.58
251.388	3.25
251.769	2.93
252.151	2.86
252.532	2.96
252.913	2.47
253.295	2.39
253.676	3.18
254.057	2.35
254.438	2.42
254.819	2.11
255.2	2.88
255.581	2.61
255.962	2.31
256.343	0.89
256.724	1.36
257.105	2.13
257.486	1.5
257.867	1.79
258.247	2.47
258.628	2.58
259.009	2.09
259.389	2.34
259.77	2.57
260.15	2.3
260.531	2.31
260.911	2.18
261.292	2.26
261.672	2.44
262.052	2.4
262.432	2.03
262.813	3.03
263.193	2.95
263.573	2.25
263.953	2.53
264.333	2.11
264.713	2.41
265.093	2.01
265.473	2.28
265.853	2.42
266.233	2.27
266.612	2.69
266.992	2.81
267.372	2.74
267.752	2.16
268.131	2.66
268.511	2.18
268.89	2.25
269.27	2.71
269.649	2.58
270.029	2.05
270.408	2
270.787	2.92
271.167	2.3
271.546	2.88
271.925	2.02
272.304	2.05
272.683	2.42
273.062	2.08
273.441	1.76
273.82	2.51
274.199	2.34
274.578	2.58
274.957	2.48
275.336	2.41
275.715	1.95
276.093	2.24
276.472	2.52
276.851	2.85
277.229	2.63
277.608	2.27
277.986	2.45
278.365	2.26
278.743	2.78
279.122	2.31
279.5	2.17
279.878	1.96
280.257	1.98
280.635	2.28
281.013	1.97
281.391	2.26
281.769	1.78
282.147	2.31
282.525	2.6
282.903	2.97
283.281	2.78
283.659	2.23
284.037	2.27
284.415	2.26
284.792	2.72
285.17	2.7
285.548	2.37
285.925	2.36
286.303	1.98
286.68	2.15
287.058	2.69
287.435	2.57
287.813	2.58
288.19	2.54
288.567	2
288.945	2.01
289.322	2.44
289.699	2.37
290.076	2.31
290.453	2.26
290.83	1.72
291.207	2.32
291.584	2.37
291.961	2.44
292.338	2.49
292.715	2.32
293.092	2.6
293.469	1.95
293.845	1.74
294.222	2.58
294.599	2.46
294.975	2.1
295.352	2.69
295.728	2.11
296.105	2.46
296.481	2.36
296.858	2.61
297.234	2.47
297.61	2.23
297.986	2.36
298.363	2.41
298.739	2.37
299.115	2.61
299.491	2.33
299.867	2.74
300.243	2.35
300.619	2.28
300.995	2.68
301.371	2.8
301.746	1.89
302.122	2.63
302.498	3.14
302.874	2.38
303.249	2.44
303.625	2.64
304	2.43
304.376	2.55
304.751	2.77
305.127	2.32
305.502	2.38
305.878	2.31
306.253	2.63
306.628	2.31
307.003	2.5
307.378	2.4
307.754	2.18
308.129	2.62
308.504	2.12
308.879	2.85
309.254	2.27
309.629	2.58
310.003	2.96
310.378	2.59
310.753	2.51
311.128	2.88
311.502	2.26
311.877	2.73
312.252	3.15
312.626	2.7
313.001	2.65
313.375	2.23
313.75	2.84
314.124	2.69
314.498	2.59
314.873	2.77
315.247	2.74
315.621	2.79
315.995	2.29
316.369	3.1
316.743	2.91
317.117	2.81
317.491	2.8
317.865	3.3
318.239	2.94
318.613	3.22
318.987	2.71
319.361	2.9
319.734	3.4
320.108	2.51
320.482	2.62
320.855	2.72
321.229	2.81
321.602	2.96
321.976	2.95
322.349	2.65
322.723	2.9
323.096	2.63
323.469	2.85
323.843	2.44
324.216	2.68
324.589	2.92
324.962	2.1
325.335	2.38
325.708	2.75
326.081	3.04
326.454	2.7
326.827	2.52
327.2	2.93
327.573	2.69
327.945	3.18
328.318	2.91
328.691	2.76
329.063	2.84
329.436	2.79
329.809	3.05
330.181	2.02
330.553	2.66
330.926	3.1
331.298	2.9
331.671	2.82
332.043	3.13
332.415	2.37
332.787	2.5
333.159	3.02
333.532	2.97
333.904	3.13
334.276	3.22
334.648	2.31
335.02	2.83
335.391	2.87
335.763	3.2
336.135	3.31
336.507	2.85
336.879	2.79
337.25	2.73
337.622	3.22
337.993	2.85
338.365	2.96
338.736	2.87
339.108	3.18
339.479	3.22
339.851	2.87
340.222	2.71
340.593	2.44
340.964	3
341.336	2.61
341.707	3
342.078	2.76
342.449	3.05
342.82	3.08
343.191	3.04
343.562	3.18
343.933	2.61
344.303	2.94
344.674	2.89
345.045	3.19
345.416	2.93
345.786	2.67
346.157	2.99
346.527	3.09
346.898	3.18
347.268	2.82
347.639	2.96
348.009	3.01
348.38	3.53
348.75	2.95
349.12	3.18
349.49	2.52
349.861	2.9
350.231	3.19
350.601	3.43
350.971	2.95
351.341	2.86
351.711	2.99
352.081	2.98
352.45	2.77
352.82	3.13
353.19	3.22
353.56	3.26
353.929	2.8
354.299	2.66
354.669	2.94
355.038	3.29
355.408	2.84
355.777	3.28
356.147	2.85
356.516	2.64
356.885	3.01
357.254	3.05
357.624	2.96
357.993	2.92
358.362	3.18
358.731	2.72
359.1	3.13
359.469	3.11
359.838	3.13
360.207	3.09
360.576	3.03
360.945	2.99
361.314	3.37
361.682	3.01
362.051	3.17
362.42	3.06
362.788	3.11
363.157	2.84
363.525	2.88
363.894	2.98
364.262	3.19
364.631	2.93
364.999	3.13
365.367	2.92
365.735	3.41
366.104	3.12
366.472	3.02
366.84	3.32
367.208	3.32
367.576	3.1
367.944	2.8
368.312	2.9
368.68	3.04
369.048	2.96
369.416	3.34
369.783	3.42
370.151	2.76
370.519	2.97
370.886	2.82
371.254	3.04
371.621	3.22
371.989	3.3
372.356	2.92
372.724	3.11
373.091	3.33
373.458	3.01
373.826	3.5
374.193	3.09
374.56	3.24
374.927	3.18
375.294	3.24
375.661	3.14
376.028	3.16
376.395	3.11
376.762	3.19
377.129	3.17
377.496	3.18
377.863	2.66
378.229	2.99
378.596	3.21
378.963	3.36
379.329	3.07
379.696	3.34
380.062	3.23
380.429	3.16
380.795	3.16
381.161	3.21
381.528	3.03
381.894	3.16
382.26	3.23
382.626	3.1
382.993	2.83
383.359	2.79
383.725	3.31
384.091	2.99
384.457	3.16
384.823	2.8
385.188	3.09
385.554	3.14
385.92	3.41
386.286	3.29
386.651	3.46
387.017	3.06
387.383	3.23
387.748	2.96
388.114	3.04
388.479	3.27
388.845	3.31
389.21	2.94
389.575	3.02
389.94	3.42
390.306	3.27
390.671	3.15
391.036	2.95
391.401	3.4
391.766	3.38
392.131	3.34
392.496	3.06
392.861	3.14
393.226	3.38
393.591	3.44
393.956	3.51
394.32	3.42
394.685	3.31
395.05	3.17
395.414	3.42
395.779	3.11
396.143	3.24
396.508	3.37
396.872	3.03
397.236	3.1
397.601	3.37
397.965	3.44
398.329	3.24
398.694	3.54
399.058	3.16
399.422	3.35
399.786	3.31
400.15	3.32
400.514	3.02
400.878	3.51
401.242	3.34
401.605	3.25
401.969	3.03
402.333	3.27
402.697	3.69
403.06	3.58
403.424	3.31
403.787	3.41
404.151	3.41
404.514	3.31
404.878	3.19
405.241	3.27
405.604	3.43
405.968	3.28
406.331	3.31
406.694	3.25
407.057	3.15
407.42	3.21
407.783	3.29
408.146	3.43
408.509	3.24
408.872	3.42
409.235	3.39
409.598	3.2
409.961	3.41
410.323	3.57
410.686	3.34
411.049	3.32
411.411	3.55
411.774	3.29
412.136	3.21
412.499	3.36
412.861	3.37
413.223	3.44
413.586	3.27
413.948	3.4
414.31	3.5
414.672	3.34
415.035	3.38
415.397	3.56
415.759	3.51
416.121	3.61
416.483	3.44
416.845	3.23
417.206	3.45
417.568	3.55
417.93	3.37
418.292	3.42
418.653	3.42
419.015	3.46
419.377	3.36
419.738	3.47
420.1	3.43
420.461	3.42
420.822	3.42
421.184	3.4
421.545	3.44
421.906	3.37
422.267	3.34
422.629	3.24
422.99	3.4
423.351	3.28
423.712	3.27
424.073	3.4
424.434	3.38
424.795	3.32
425.155	3.4
425.516	3.42
425.877	3.31
426.238	3.38
426.598	3.45
426.959	3.38
427.32	3.36
427.68	3.45
428.041	3.36
428.401	3.52
428.761	3.42
429.122	3.6
429.482	3.53
429.842	3.48
430.202	3.62
430.563	3.53
430.923	3.49
431.283	3.56
431.643	3.5
432.003	3.53
432.363	3.32
432.722	3.5
433.082	3.67
433.442	3.67
433.802	3.53
434.161	3.59
434.521	3.49
434.881	3.45
435.24	3.46
435.6	3.58
435.959	3.41
436.319	3.53
436.678	3.58
437.037	3.72
437.396	3.68
437.756	3.38
438.115	3.33
438.474	3.54
438.833	3.62
439.192	3.51
439.551	3.56
439.91	3.47
440.269	3.49
440.628	3.55
440.987	3.43
441.345	3.67
441.704	3.5
442.063	3.55
442.421	3.54
442.78	3.57
443.138	3.6
443.497	3.43
443.855	3.65
444.214	3.61
444.572	3.72
444.93	3.55
445.288	3.55
445.647	3.63
446.005	3.61
446.363	3.55
446.721	3.66
447.079	3.6
447.437	3.54
447.795	3.63
448.153	3.58
448.51	3.53
448.868	3.57
449.226	3.63
449.584	3.62
449.941	3.63
450.299	3.62
450.656	3.62
451.014	3.57
451.371	3.72
451.729	3.68
452.086	3.67
452.443	3.72
452.801	3.61
453.158	3.75
453.515	3.68
453.872	3.65
454.229	3.64
454.586	3.61
454.943	3.73
455.3	3.82
455.657	3.57
456.014	3.79
456.371	3.77
456.727	3.82
457.084	3.79
457.441	3.72
457.797	3.8
458.154	3.82
458.51	3.84
458.867	3.83
459.223	3.72
459.58	3.8
459.936	3.83
460.292	3.79
460.648	3.63
461.005	3.82
461.361	3.75
461.717	3.68
462.073	3.67
462.429	3.68
462.785	3.7
463.141	3.72
463.496	3.79
463.852	3.89
464.208	3.96
464.564	3.89
464.919	3.83
465.275	3.78
465.631	3.88
465.986	3.71
466.342	3.97
466.697	3.91
467.052	3.8
467.408	4.07
467.763	3.82
468.118	3.99
468.473	3.92
468.829	3.67
469.184	3.76
469.539	3.91
469.894	3.95
470.249	3.79
470.603	3.88
470.958	3.92
471.313	3.73
471.668	3.94
472.023	4.01
472.377	3.93
472.732	4.09
473.086	3.94
473.441	3.95
473.795	3.83
474.15	3.84
474.504	3.86
474.859	3.83
475.213	3.93
475.567	4.04
475.921	3.86
476.275	3.92
476.63	3.89
476.984	4.02
477.338	3.81
477.692	4.05
478.045	3.85
478.399	3.88
478.753	4.04
479.107	4.07
479.461	4.01
479.814	3.88
480.168	3.99
480.521	3.98
480.875	4.08
481.228	4.16
481.582	4.09
481.935	3.88
482.289	3.89
482.642	4.04
482.995	3.92
483.348	3.96
483.701	3.99
484.055	3.94
484.408	3.86
484.761	3.86
485.114	3.74
485.466	3.72
485.819	3.73
486.172	3.77
486.525	3.8
486.878	3.89
487.23	3.94
487.583	3.91
487.936	3.95
488.288	3.97
488.641	3.88
488.993	3.85
489.345	3.83
489.698	3.86
490.05	3.91
490.402	3.94
490.754	3.95
491.107	3.91
491.459	4.01
491.811	4.02
492.163	4.11
492.515	4.1
492.866	3.93
493.218	3.89
493.57	3.95
493.922	3.97
494.274	4.02
494.625	4.1
494.977	4.06
495.328	4.17
495.68	4.24
496.031	4.21
496.383	4.21
496.734	4.23
497.086	4.13
497.437	4.24
497.788	4.24
498.139	4.26
498.49	4.27
498.842	4.15
499.193	4.28
499.544	4.24
499.894	4.32
500.245	4.31
500.596	4.27
500.947	4.21
501.298	4.26
501.648	4.32
501.999	4.29
502.35	4.36
502.7	4.25
503.051	4.26
503.401	4.32
503.752	4.23
504.102	4.29
504.452	4.32
504.803	4.39
505.153	4.54
505.503	4.42
505.853	4.33
506.203	4.5
506.553	4.42
506.903	4.31
507.253	4.46
507.603	4.51
507.953	4.38
508.303	4.49
508.652	4.39
509.002	4.43
509.352	4.35
509.701	4.43
510.051	4.47
510.4	4.56
510.75	4.4
511.099	4.47
511.449	4.5
511.798	4.46
512.147	4.47
512.496	4.5
512.846	4.51
513.195	4.49
513.544	4.49
513.893	4.4
514.242	4.47
514.591	4.45
514.939	4.52
515.288	4.56
515.637	4.52
515.986	4.46
516.334	4.51
516.683	4.71
517.032	4.68
517.38	4.76
517.729	4.51
518.077	4.68
518.426	4.55
518.774	4.61
519.122	4.59
519.47	4.59
519.819	4.58
520.167	4.59
520.515	4.56
520.863	4.6
521.211	4.6
521.559	4.57
521.907	4.67
522.255	4.69
522.602	4.66
522.95	4.7
523.298	4.74
523.645	4.75
523.993	4.76
524.341	4.81
524.688	4.69
525.036	4.82
525.383	4.83
525.73	4.8
526.078	4.85
526.425	4.75
526.772	4.71
527.119	4.66
527.466	4.71
527.814	4.66
528.161	4.67
528.508	4.77
528.854	4.77
529.201	4.81
529.548	4.71
529.895	4.56
530.242	4.61
530.588	4.58
530.935	4.62
531.282	4.65
531.628	4.7
531.975	4.77
532.321	4.82
532.667	4.81
533.014	4.86
533.36	4.97
533.706	4.9
534.052	4.95
534.399	4.87
534.745	4.78
535.091	4.82
535.437	4.81
535.783	4.92
536.129	4.94
536.474	4.97
536.82	4.98
537.166	4.97
537.512	5.04
537.857	5.1
538.203	4.97
538.549	5.01
538.894	4.99
539.239	5.02
539.585	4.97
539.93	5.1
540.276	5.18
540.621	5.32
540.966	5.27
541.311	5.33
541.656	5.2
542.001	5.14
542.346	5.13
542.691	5.11
543.036	4.99
543.381	5
543.726	5
544.071	5.05
544.415	5.15
544.76	5.21
545.105	5.15
545.449	5.16
545.794	5.27
546.138	5.31
546.483	5.33
546.827	5.39
547.171	5.29
547.516	5.33
547.86	5.3
548.204	5.4
548.548	5.38
548.892	5.34
549.236	5.43
549.58	5.41
549.924	5.5
550.268	5.48
550.612	5.72
550.956	5.59
551.3	5.53
551.643	5.6
551.987	5.46
552.33	5.72
552.674	5.73
553.017	5.72
553.361	5.71
553.704	5.71
554.048	5.58
554.391	5.76
554.734	5.79
555.077	5.74
555.42	5.72
555.764	5.71
556.107	5.64
556.45	5.73
556.793	5.91
557.135	5.94
557.478	5.72
557.821	5.82
558.164	5.86
558.507	5.75
558.849	5.95
559.192	5.81
559.534	6.13
559.877	6.01
560.219	5.94
560.562	5.92
560.904	5.91
561.246	6.03
561.589	6.09
561.931	6.08
562.273	6.19
562.615	5.97
562.957	6.09
563.299	6.08
563.641	6.07
563.983	6.23
564.325	6.04
564.667	6.18
565.008	6.2
565.35	6.33
565.692	6.27
566.033	6.3
566.375	6.28
566.716	6.23
567.058	6.16
567.399	6.3
567.741	6.29
568.082	6.28
568.423	6.36
568.764	6.44
569.105	6.4
569.447	6.43
569.788	6.5
570.129	6.45
570.47	6.53
570.811	6.46
571.151	6.31
571.492	6.43
571.833	6.48
572.174	6.41
572.514	6.54
572.855	6.53
573.195	6.44
573.536	6.59
573.876	6.59
574.217	6.51
574.557	6.5
574.898	6.62
575.238	6.71
575.578	6.59
575.918	6.43
576.258	6.76
576.598	6.64
576.938	6.75
577.278	6.65
577.618	6.73
577.958	6.79
578.298	6.78
578.638	6.84
578.977	6.79
579.317	6.77
579.657	6.89
579.996	6.91
580.336	7.11
580.675	7
581.014	6.96
581.354	7.21
581.693	6.89
582.032	6.92
582.372	6.94
582.711	7.03
583.05	7
583.389	7.01
583.728	7.23
584.067	7.28
584.406	7.19
584.745	7.4
585.083	7.18
585.422	7.24
585.761	7.3
586.1	7.52
586.438	7.26
586.777	7.35
587.115	7.62
587.454	7.48
587.792	7.37
588.13	7.46
588.469	7.45
588.807	7.52
589.145	7.42
589.483	7.54
589.821	7.71
590.159	7.56
590.497	7.36
590.835	7.5
591.173	7.65
591.511	7.57
591.849	7.55
592.187	7.75
592.524	7.6
592.862	7.78
593.2	7.72
593.537	7.74
593.875	7.83
594.212	7.72
594.55	7.83
594.887	7.71
595.224	7.69
595.561	7.94
595.899	7.68
596.236	7.8
596.573	7.84
596.91	8.03
597.247	8.02
597.584	7.8
597.921	7.91
598.258	8.08
598.594	7.89
598.931	7.76
599.268	7.92
599.604	7.95
599.941	7.88
600.277	8.09
600.614	8.06
600.95	8.28
601.287	8.06
601.623	8.2
601.959	8.24
602.296	8.26
602.632	7.98
602.968	8.3
603.304	8.2
603.64	8.68
603.976	8.34
604.312	8.34
604.648	8.28
604.984	8.19
605.319	8.22
605.655	8.09
605.991	8.44
606.326	8.37
606.662	8.37
606.998	8.21
607.333	8.53
607.668	8.4
608.004	8.63
608.339	8.52
608.674	8.48
609.01	8.55
609.345	8.69
609.68	8.71
610.015	8.65
610.35	8.71
610.685	8.79
611.02	8.6
611.355	8.57
611.689	8.74
612.024	8.85
612.359	8.54
612.694	9.04
613.028	9.05
613.363	8.7
613.697	8.7
614.032	8.85
614.366	9.07
614.7	8.89
615.035	9
615.369	8.95
615.703	8.77
616.037	8.99
616.371	9.09
616.705	9.46
617.039	9.44
617.373	9.23
617.707	9.46
618.041	9.33
618.375	9.36
618.709	9.2
619.042	9.25
619.376	9.2
619.71	9.18
620.043	9.59
620.377	9.13
620.71	9.69
621.043	9.24
621.377	9.61
621.71	9.29
622.043	9.7
622.376	9.33
622.709	9.52
623.043	9.89
623.376	9.12
623.709	9.35
624.041	9.65
624.374	9.48
624.707	9.39
625.04	9.91
625.373	10.02
625.705	9.57
626.038	9.67
626.37	9.81
626.703	9.83
627.035	9.62
627.368	9.96
627.7	9.96
628.032	9.66
628.365	10.03
628.697	9.95
629.029	9.95
629.361	9.96
629.693	9.96
630.025	10.16
630.357	9.98
630.689	10.13
631.021	10.29
631.353	10.29
631.684	10.53
632.016	10.35
632.348	9.98
632.679	10.03
633.011	10.32
633.342	10.37
633.674	10.32
634.005	9.85
634.336	10.31
634.668	10.45
634.999	10.45
635.33	10.4
635.661	10.24
635.992	10.37
636.323	10.05
636.654	10.35
636.985	10.56
637.316	10.6
637.647	10.73
637.977	10.75
638.308	10.96
638.639	10.57
638.969	10.82
639.3	10.95
639.63	10.21
639.961	10.8
640.291	11.25
640.622	10.59
640.952	11.04
641.282	10.93
641.612	11.09
641.943	11.21
642.273	11.23
642.603	10.92
642.933	10.75
643.263	10.85
643.592	10.86
643.922	11.25
644.252	10.92
644.582	11.56
644.911	11.23
645.241	11.02
645.571	11.4
645.9	11.15
646.23	11.03
646.559	11.23
646.888	11.08
647.218	11.58
647.547	11.77
647.876	11.06
648.205	11.44
648.534	10.87
648.863	11.64
649.192	11.93
649.521	11.35
649.85	11.41
650.179	11.89
650.508	11.62
650.837	11.61
651.165	11.38
651.494	11.52
651.822	11.42
652.151	12.03
652.479	11.6
652.808	11.68
653.136	11.73
653.465	11.92
653.793	11.81
654.121	11.75
654.449	11.8
654.777	11.86
655.105	11.76
655.433	11.37
655.761	12.46
656.089	11.79
656.417	12.41
656.745	11.95
657.073	12.18
657.4	12.32
657.728	11.71
658.056	12.14
658.383	11.59
658.711	12.11
659.038	12.09
659.365	12.82
659.693	12.16
660.02	12.94
660.347	12.1
660.674	12.1
661.001	12.5
661.329	12.56
661.656	12.32
661.982	12.29
662.309	12.76
662.636	12.88
662.963	12.36
663.29	12.48
663.616	12.34
663.943	12.8
664.27	12.74
664.596	12.33
664.923	12.17
665.249	12.73
665.576	13
665.902	12.4
666.228	11.93
666.554	13.14
666.881	12.6
667.207	12.52
667.533	13.04
667.859	12.69
668.185	12.05
668.511	12.88
668.837	13.44
669.162	12.9
669.488	13.66
669.814	12.74
670.139	12.64
670.465	12.57
670.791	13.44
671.116	13.21
671.442	13.42
671.767	13.71
672.092	13.07
672.418	13.1
672.743	12.98
673.068	13.86
673.393	13.27
673.718	13.33
674.043	12.98
674.368	13.63
674.693	13.78
675.018	13.51
675.343	13.51
675.667	13.97
675.992	13.93
676.317	13.89
676.641	13.2
676.966	13.07
677.29	13.92
677.615	13.17
677.939	13.56
678.264	14.43
678.588	13.82
678.912	13.87
679.236	13.89
679.56	13.48
679.885	13.99
680.209	14
680.532	13.61
680.856	14.04
681.18	14.11
681.504	13.8
681.828	14.33
682.152	14.18
682.475	13.74
682.799	14.17
683.122	13.89
683.446	14.18
683.769	14.33
684.093	14.25
684.416	14.25
684.739	14.53
685.062	14.02
685.386	14.34
685.709	14.43
686.032	14.39
686.355	14.48
686.678	14.51
687.001	14.18
687.324	14.76
687.646	15.07
687.969	15.12
688.292	15.04
688.614	14.58
688.937	14.49
689.26	14.82
689.582	14.89
689.904	14.14
690.227	14.53
690.549	15.05
690.871	14.42
691.194	15.11
691.516	14.85
691.838	14.35
692.16	14.48
692.482	14.82
692.804	14.84
693.126	14.36
693.448	14.56
693.769	14.57
694.091	14.93
694.413	15.15
694.735	14.62
695.056	14.83
695.378	14.87
695.699	14.83
696.021	15.45
696.342	15.34
696.663	14.6
696.984	15.4
697.306	15.14
697.627	15.44
697.948	15.3
698.269	15.68
698.59	15.22
698.911	15.45
699.232	15.42
699.553	16.23
699.873	14.85
700.194	15.4
700.515	15.71
700.835	15.32
701.156	15.62
701.477	15.49
701.797	15.3
702.117	15.98
702.438	15.59
702.758	16.9
703.078	15.98
703.398	15.18
703.719	15.5
704.039	16.37
704.359	16.14
704.679	15.21
704.999	15.66
705.319	16.81
705.638	16.62
705.958	16.78
706.278	16.16
706.597	15.67
706.917	15.41
707.237	16.44
707.556	15.32
707.876	16.45
708.195	16.19
708.514	15.92
708.834	16.42
709.153	15.55
709.472	16.27
709.791	15.91
710.11	16.12
710.429	16.44
710.748	16.94
711.067	17.18
711.386	17.43
711.705	16.49
712.023	16.51
712.342	17.13
712.661	16.68
712.979	17.02
713.298	16.76
713.616	16.73
713.935	16.74
714.253	15.7
714.572	16.77
714.89	16.58
715.208	17.36
715.526	17.95
715.844	17.39
716.162	16.13
716.48	17.6
716.798	17.03
717.116	15.99
717.434	16.95
717.752	17.56
718.069	16.23
718.387	16.88
718.705	16.73
719.022	17.36
719.34	16.3
719.657	17.87
719.975	17.37
720.292	17.95
720.609	18.57
720.927	16.92
721.244	17.27
721.561	17.56
721.878	18.16
722.195	18.02
722.512	16.43
722.829	17.76
723.146	16.73
723.463	17.97
723.779	17.8
724.096	17.67
724.413	17.67
724.729	16.99
725.046	16.42
725.362	16.76
725.679	17.06
725.995	17.18
726.311	18.16
726.628	16.8
726.944	18.36
727.26	17.02
727.576	17.06
727.892	17.82
728.208	19.08
728.524	16.72
728.84	18.42
729.156	18.33
729.472	18.22
729.787	17.61
730.103	17.03
730.419	18.71
730.734	18.05
731.05	18.74
731.365	16.81
731.681	16.87
731.996	17.8
732.311	17.74
732.626	16.66
732.942	18.55
733.257	18.61
733.572	17.59
733.887	17.65
734.202	17.58
734.517	18.11
734.832	18.35
735.146	18.22
735.461	19.25
735.776	18.47
736.091	18.24
736.405	18.53
736.72	18.17
737.034	18.64
737.349	17.28
737.663	19.12
737.977	18.57
738.292	18.41
738.606	19.15
738.92	18.86
739.234	20.17
739.548	18.57
739.862	17.44
740.176	18.96
740.49	19.42
740.804	19.91
741.117	17.58
741.431	18.39
741.745	19.93
742.058	20.69
742.372	18.33
742.685	20.35
742.999	19.69
743.312	18.66
743.626	18.41
743.939	20.76
744.252	19.25
744.565	19.21
744.878	19.34
745.191	18.32
745.505	18.69
745.817	19.39
746.13	19.3
746.443	18.12
746.756	18.49
747.069	20.81
747.381	18.77
747.694	20.01
748.007	20.54
748.319	19.26
748.632	19.87
748.944	20.63
749.256	19.74
749.569	20.01
749.881	19.3
750.193	19.44
750.505	19.02
750.817	19.69
751.129	20.47
751.441	18.89
751.753	19.68
752.065	19.78
752.377	19.33
752.689	20.31
753	20.19
753.312	20.16
753.624	20.83
753.935	18.97
754.247	19.69
754.558	18.85
754.869	21.5
755.181	21.01
755.492	19.62
755.803	19.82
756.114	21.47
756.425	21.25
756.736	19.87
757.047	22.25
757.358	19.99
757.669	18.56
757.98	20.73
758.291	19.76
758.601	20
758.912	20.57
759.223	20.37
759.533	20.88
759.844	19.91
760.154	20.72
760.464	21.14
760.775	19.74
761.085	20.23
761.395	21.52
761.705	21.73
762.016	19.62
762.326	20.86
762.636	19.8
762.945	21.17
763.255	20.45
763.565	18.31
763.875	20.09
764.185	20.28
764.494	20.29
764.804	19.31
765.113	20.12
765.423	22.5
765.732	21.38
766.042	20.48
766.351	20.8
766.66	22.45
766.97	20.5
767.279	21.4
767.588	21.94
767.897	21.32
768.206	19.05
768.515	19.86
768.824	21.35
769.133	20.82
769.441	20.91
769.75	20.44
770.059	19.84
770.367	19.76
770.676	22.51
770.984	20.68
771.293	22.08
771.601	22.9
771.91	21.24
772.218	18.75
772.526	22.27
772.834	21.8
773.142	22.11
773.45	22.09
773.758	22.47
774.066	23
774.374	20.33
774.682	23.94
774.99	22.01
775.298	20.72
775.605	18.52
775.913	23.27
776.22	20.87
776.528	22.45
776.835	20.54
777.143	19.95
777.45	21.12
777.757	20.48
778.065	22.55
778.372	22.3
778.679	21.32
778.986	18.46
779.293	20
779.6	22.54
779.907	21.83
780.214	21.76
780.52	24.96
780.827	23.83
781.134	25.94
781.44	22.89
781.747	21.83
782.053	22.37
782.36	20.47
782.666	23.07
782.973	19.8
783.279	21.18
783.585	20.75
783.891	21.38
784.197	20.88
784.503	21.19
784.809	20.53
785.115	21.18
785.421	22.82
785.727	24.01
786.033	19.68
786.339	20.11
786.644	21.7
786.95	23.61
787.255	24.18
787.561	22.31
787.866	24.73
788.172	22.62
788.477	21.09
788.782	20.4
789.088	19.85
789.393	25.1
789.698	21.51
790.003	23.03
790.308	24.47
790.613	22.17
790.918	23.72
791.223	21.98
791.527	24.8
791.832	23.18
792.137	22.68
792.441	23.27
792.746	20.09
793.05	20.84
793.355	21.36
793.659	23.22
793.963	20.87
794.268	22.15
794.572	22.33
794.876	21.31
795.18	27.56
795.484	22.72
795.788	22.97
796.092	22.64
796.396	21.68
796.7	26.07
797.004	22.01
797.307	21.43
797.611	23.71
797.915	22.65
798.218	23.58
798.522	22.93
798.825	22.85
799.128	23.5
799.432	24.69
799.735	23.73
800.038	19.69
800.341	24.44
800.644	21.45
800.947	24.92
801.25	26.42
801.553	24.17
801.856	21.61
802.159	19.84
802.462	22.55
802.764	24.8
803.067	28.93
803.37	22.06
803.672	16.56
803.975	23.77
804.277	22.53
804.579	27.08
804.882	20.8
805.184	22.83
805.486	20.46
805.788	25.88
806.09	23.13
806.392	24.66
806.694	25.69
806.996	22.22
807.298	25.23
807.6	21.43
807.902	24.27
808.203	24.49
808.505	22.01
808.807	26.55
809.108	21.3
809.409	23.18
809.711	26.45
810.012	23.67
810.313	28.78
810.615	21.6
810.916	25.6
811.217	25.5
811.518	18.69
811.819	23
812.12	23.99
812.421	25.11
812.722	22.67
813.023	21.99
813.323	21.33
813.624	24.11
813.925	24.4
814.225	25.4
814.526	21.9
814.826	23.63
815.126	29.53
815.427	26.74
815.727	28.58
816.027	22.2
816.327	21.75
816.627	20.83
816.927	30.66
817.227	21.06
817.527	19.15
817.827	29.28
818.127	26.77
818.427	20.68
818.727	27.77
819.026	27.87
819.326	23.99
819.625	30.18
819.925	25.06
820.224	20.42
820.524	23.68
820.823	26.84
821.122	24.74
821.421	23.48
821.72	20.05
822.019	25.12
822.318	23.95
822.617	28.3
822.916	27.43
823.215	24.27
823.514	25.29
823.813	26.47
824.111	27.56
824.41	25.39
824.709	26
825.007	25.72
825.306	25.12
825.604	26.43
825.902	25.38
826.201	26.13
826.499	25.87
826.797	26.2
827.095	25.7
827.393	27.71
827.691	25.9
827.989	26.97
828.287	26.48
828.585	27.86
828.882	26.53
829.18	27.56
829.478	25.66
829.775	26.5
830.073	25.72
830.37	25.05
830.668	27.35
830.965	27.63
831.263	25.63
831.56	25.96
831.857	24.4
832.154	25.21
832.451	23.74
832.748	25.23
833.045	23.44
833.342	22.85
833.639	27.07
833.936	16.92
834.232	25.24
834.529	29.91
834.826	20.11
835.122	28.18
835.419	26.31
835.715	23.66
836.012	26.88
836.308	25.01
836.604	24
836.901	25.1
837.197	24.66
837.493	25.28
837.789	26.21
838.085	26.24
838.381	22.77
838.677	25.4
838.972	26.07
839.268	28.69
839.564	26.83
839.86	20.12
840.155	22.66
840.451	26.49
840.746	29.03
841.042	21.95
841.337	18.29
841.632	32.87
841.928	31.33
842.223	24.48
842.518	26.12
842.813	22.04
843.108	20.49
843.403	24.1
843.698	24.39
843.993	32.46
844.287	26.47
844.582	33.24
844.877	12.82
845.171	30.84
845.466	13.88
845.761	29.84
846.055	23.81
846.349	19.67
846.644	21.27
846.938	28.29
847.232	30.6
847.526	31.21
847.82	22.02
848.114	3.77
848.408	25.25
848.702	24.7
848.996	26.52
849.29	20.44
849.584	25.12
849.877	26.11
850.171	21.15
850.465	24.8
850.758	20.3
851.052	24.17
851.345	32.91
851.638	17.57
851.932	29.47
852.225	18.19
852.518	22.47
852.811	32.61
853.104	29.72
853.397	19.01
853.69	27.61
853.983	17.73
854.276	46.46
854.569	12.8
854.861	9.97
855.154	5.59
855.447	3.8
855.739	21.04
856.032	4.6
856.324	-17.05
856.616	15.26
856.909	39.78
857.201	23.18
857.493	21.35
857.785	29.86
858.077	19.82
858.369	-3.85
858.661	28.09
858.953	17.3
859.245	44.83
859.537	20.6
859.829	46.87
860.12	30.96
860.412	28.58
860.703	3.48
860.995	17.34
861.286	21.58
861.578	-4.39
861.869	28.31
862.16	30.32
862.452	28.48
862.743	32.13
863.034	19.47
863.325	9.23
863.616	12.19
863.907	29.75
864.198	5.69
864.488	19.51
864.779	30.93
865.07	-20.54
865.36	16.86
865.651	34.29
865.941	11.33
866.232	24.75
866.522	42.3
866.813	13.61
867.103	20.68
867.393	45.85
867.683	31.6
867.973	38.34
868.263	8.79
868.553	21.33
868.843	10.05
869.133	6.78
869.423	22.55
869.713	7.43
870.002	39.41
870.292	18.14
870.582	40.01
870.871	26.1
871.161	30.88
871.45	-3.05
871.739	12.82
872.029	30.96
872.318	22.51
872.607	13.94
872.896	2.84
873.185	-13.18
873.474	1.47
873.763	17.37
874.052	6.77
874.341	38.91
874.63	28.07
874.918	40.52
875.207	-10.71
875.496	20.98
875.784	23.15
876.073	9.3
876.361	47.03
876.649	17.6
876.938	19.96
877.226	26.86
877.514	18.93
877.802	26.45
878.09	38.23
878.378	35.65
878.666	19.24
878.954	24.44
879.242	33.84
879.53	36.55
879.817	29.82
880.105	2.84
880.392	13.28
880.68	35.26
880.967	29.5
881.255	23.56
881.542	33.07
881.83	33.03
882.117	44.58
882.404	5.7
882.691	20.56
882.978	16.3
883.265	14.13
883.552	30.58
883.839	16.62
884.126	22.28
884.413	23.73
884.699	34.67
884.986	29.52
885.273	31.4
885.559	31.4
885.846	31.4
