Data from 2019-4_crown_Reflection__1__196.txt Node

Date: Fri Nov 11 18:27:16 CST 2022
User: ToomeyLab
Spectrometer: FLMS14357
Trigger mode: 0
Integration Time (sec): 1.000000E-2
Scans to average: 100
Electric dark correction enabled: true
Nonlinearity correction enabled: false
Boxcar width: 0
XAxis mode: Wavelengths
Number of Pixels in Spectrum: 2048
>>>>>Begin Spectral Data<<<<<
189.047	36.42
189.435	36.42
189.823	36.42
190.211	21.76
190.599	14.89
190.987	42.21
191.375	404.55
191.763	172.05
192.151	-206.71
192.538	34.01
192.926	85.19
193.314	225.7
193.702	-814.06
194.089	-33.03
194.477	-7.74
194.864	106.06
195.252	-283.21
195.639	44.17
196.027	29.22
196.414	249.66
196.801	23.56
197.189	-19.87
197.576	83.85
197.963	-82.42
198.351	-14.78
198.738	-35.93
199.125	51.75
199.512	16.7
199.899	20.48
200.286	-35.44
200.673	10.08
201.06	-80.12
201.447	28.84
201.833	51.5
202.22	-36.18
202.607	24.32
202.994	28.26
203.38	-8.96
203.767	36.62
204.154	-45.53
204.54	11.1
204.927	-8.56
205.313	-14.44
205.699	17.01
206.086	-68.65
206.472	-52.04
206.858	-19.59
207.245	-28.84
207.631	-41.35
208.017	-11.82
208.403	28.28
208.789	22.46
209.175	-2.72
209.561	-13.28
209.947	33.5
210.333	-0.02
210.719	-1.27
211.105	-20.29
211.491	21.28
211.876	-7.62
212.262	-13.42
212.648	30.31
213.034	-2.48
213.419	-23.1
213.805	-0.5
214.19	-5.5
214.576	-11.17
214.961	6.08
215.346	1.07
215.732	27.19
216.117	38.91
216.502	16.69
216.888	-30.6
217.273	-4.91
217.658	-7.89
218.043	11.82
218.428	31.15
218.813	15.51
219.198	15.89
219.583	4.03
219.968	-31.15
220.353	-4.75
220.738	0.29
221.122	-11.74
221.507	23.93
221.892	-5.58
222.276	2.09
222.661	-0.11
223.046	-9.54
223.43	-0.91
223.815	5.95
224.199	6.47
224.583	11.78
224.968	17.39
225.352	2.49
225.736	-6.85
226.121	4.61
226.505	-2.48
226.889	6.11
227.273	4.66
227.657	3.93
228.041	4.94
228.425	1.05
228.809	6.34
229.193	4.42
229.577	5.33
229.961	5.37
230.344	3.93
230.728	4.7
231.112	5.3
231.495	5.22
231.879	6.81
232.263	5.58
232.646	4.73
233.03	4.63
233.413	4.95
233.797	4.75
234.18	2.28
234.563	4.06
234.946	4.25
235.33	5.69
235.713	1.96
236.096	5.13
236.479	2.6
236.862	4.08
237.245	6.07
237.628	3.44
238.011	4.55
238.394	4.55
238.777	5.85
239.16	4.18
239.543	5.32
239.925	3.7
240.308	5.62
240.691	4.5
241.073	3.84
241.456	3.58
241.838	4.48
242.221	4.52
242.603	3.41
242.986	4.27
243.368	4.8
243.75	4.91
244.133	4.25
244.515	4.66
244.897	4.54
245.279	4.44
245.661	3.26
246.043	3.64
246.425	3.85
246.807	5.3
247.189	4.16
247.571	4.5
247.953	3.9
248.335	4.04
248.717	4.32
249.098	4.5
249.48	4.7
249.862	4.37
250.243	4.14
250.625	4.22
251.006	3.02
251.388	4.22
251.769	4.73
252.151	4.62
252.532	4.2
252.913	3.54
253.295	3.18
253.676	4.87
254.057	4.01
254.438	4.13
254.819	4.12
255.2	5.66
255.581	3.85
255.962	3.67
256.343	3.84
256.724	3.85
257.105	3.94
257.486	3.39
257.867	3.95
258.247	4.35
258.628	4.53
259.009	4.34
259.389	4.45
259.77	4.19
260.15	3.87
260.531	4.01
260.911	3.7
261.292	3.91
261.672	3.9
262.052	4.04
262.432	3.95
262.813	3.98
263.193	4.36
263.573	4.66
263.953	4.12
264.333	4.28
264.713	4.08
265.093	4.2
265.473	4.24
265.853	4.33
266.233	4.02
266.612	3.85
266.992	3.45
267.372	4.49
267.752	3.91
268.131	4.27
268.511	4.25
268.89	3.92
269.27	3.62
269.649	4.53
270.029	3.66
270.408	4
270.787	4.32
271.167	4.24
271.546	4.35
271.925	3.8
272.304	3.98
272.683	3.74
273.062	3.93
273.441	3.54
273.82	4.06
274.199	3.28
274.578	3.96
274.957	3.93
275.336	3.6
275.715	3.35
276.093	3.82
276.472	4.38
276.851	3.97
277.229	4.14
277.608	3.61
277.986	3.92
278.365	3.11
278.743	3.66
279.122	4.04
279.5	4.22
279.878	3.46
280.257	3.96
280.635	3.8
281.013	3.98
281.391	4.07
281.769	3.36
282.147	3.59
282.525	4.06
282.903	3.56
283.281	4.66
283.659	3.87
284.037	3.92
284.415	3.6
284.792	4.1
285.17	3.45
285.548	4.03
285.925	3.87
286.303	3.68
286.68	3.54
287.058	3.97
287.435	4.01
287.813	3.85
288.19	3.69
288.567	3.12
288.945	3.02
289.322	4.33
289.699	3.91
290.076	3.69
290.453	3.54
290.83	3.49
291.207	3.51
291.584	3.48
291.961	3.93
292.338	3.46
292.715	3.41
293.092	3.51
293.469	3.63
293.845	3.57
294.222	3.8
294.599	3.81
294.975	2.84
295.352	3.74
295.728	3.88
296.105	3.54
296.481	3.56
296.858	4.01
297.234	3.85
297.61	3.39
297.986	3.48
298.363	3.68
298.739	3.38
299.115	3.92
299.491	3.74
299.867	3.83
300.243	3.15
300.619	3.62
300.995	3.83
301.371	3.94
301.746	3.18
302.122	3.58
302.498	3.73
302.874	3.85
303.249	3.46
303.625	3.65
304	3.68
304.376	3.44
304.751	3.62
305.127	3.81
305.502	3.7
305.878	3.67
306.253	3.36
306.628	3.61
307.003	4.13
307.378	3
307.754	3.36
308.129	3.79
308.504	2.9
308.879	3.56
309.254	3.56
309.629	3.24
310.003	3.95
310.378	3.73
310.753	3.7
311.128	3.87
311.502	2.99
311.877	3.93
312.252	3.73
312.626	3.83
313.001	3.52
313.375	3.07
313.75	3.69
314.124	3.44
314.498	3.28
314.873	3.31
315.247	3.12
315.621	3.37
315.995	3.24
316.369	3.24
316.743	3.95
317.117	3.71
317.491	3.25
317.865	3.74
318.239	3.67
318.613	3.53
318.987	2.99
319.361	3.68
319.734	3.45
320.108	2.64
320.482	3.08
320.855	3.4
321.229	3.68
321.602	3.33
321.976	3.74
322.349	3.91
322.723	3.86
323.096	3.61
323.469	3.25
323.843	3.28
324.216	2.98
324.589	3.29
324.962	2.51
325.335	2.76
325.708	3.31
326.081	3.26
326.454	3.55
326.827	3.62
327.2	3.93
327.573	3.29
327.945	3.83
328.318	3.14
328.691	3.13
329.063	3.67
329.436	3.15
329.809	3.85
330.181	3.27
330.553	2.76
330.926	3.23
331.298	3.32
331.671	3.51
332.043	3.56
332.415	3.57
332.787	3.02
333.159	3.17
333.532	3.19
333.904	3.68
334.276	3
334.648	2.77
335.02	3.3
335.391	3.22
335.763	3.49
336.135	3.35
336.507	3.84
336.879	3.25
337.25	3.39
337.622	3.77
337.993	3.58
338.365	3.06
338.736	2.83
339.108	3.56
339.479	2.71
339.851	3.33
340.222	3.1
340.593	3.14
340.964	2.96
341.336	3.11
341.707	3.29
342.078	3.45
342.449	3.45
342.82	3.6
343.191	3.5
343.562	3.38
343.933	3.18
344.303	3.35
344.674	3.19
345.045	3.35
345.416	3.66
345.786	3.43
346.157	3.38
346.527	3.4
346.898	3.2
347.268	2.98
347.639	3.44
348.009	3.32
348.38	3.47
348.75	3.6
349.12	3.63
349.49	3.46
349.861	3.36
350.231	3.47
350.601	3.44
350.971	3.5
351.341	3.11
351.711	3.39
352.081	3.2
352.45	3.42
352.82	3.38
353.19	3.37
353.56	3.52
353.929	3.26
354.299	3.17
354.669	3.59
355.038	3.71
355.408	3.14
355.777	3.66
356.147	3.5
356.516	3.11
356.885	3.7
357.254	3.64
357.624	2.99
357.993	3.16
358.362	3.31
358.731	3.31
359.1	3.42
359.469	3.49
359.838	3.45
360.207	3.52
360.576	3.13
360.945	3.16
361.314	3.61
361.682	3.68
362.051	3.48
362.42	3.19
362.788	3.52
363.157	3.17
363.525	3.42
363.894	3.2
364.262	3.22
364.631	3.46
364.999	3.4
365.367	3.56
365.735	3.46
366.104	3.55
366.472	3.42
366.84	3.81
367.208	3.49
367.576	3.54
367.944	3.35
368.312	3.15
368.68	3.45
369.048	3.19
369.416	3.56
369.783	3.41
370.151	3.28
370.519	3.45
370.886	3.3
371.254	3.3
371.621	3.57
371.989	3.68
372.356	3.15
372.724	3.24
373.091	3.56
373.458	3.35
373.826	3.59
374.193	3.16
374.56	3.25
374.927	3.16
375.294	3.42
375.661	3.48
376.028	3.43
376.395	3.44
376.762	3.49
377.129	3.5
377.496	3.72
377.863	3.28
378.229	3.44
378.596	3.54
378.963	3.79
379.329	3.32
379.696	3.57
380.062	3.38
380.429	3.42
380.795	3.27
381.161	3.58
381.528	3.68
381.894	3.49
382.26	3.26
382.626	3.48
382.993	3.33
383.359	3.6
383.725	3.49
384.091	3.53
384.457	3.56
384.823	3.36
385.188	3.37
385.554	3.77
385.92	3.59
386.286	3.74
386.651	3.65
387.017	3.5
387.383	3.68
387.748	3.46
388.114	3.41
388.479	3.45
388.845	3.55
389.21	3.41
389.575	3.46
389.94	3.29
390.306	3.56
390.671	3.42
391.036	3.68
391.401	3.57
391.766	3.8
392.131	3.57
392.496	3.56
392.861	3.52
393.226	3.58
393.591	3.49
393.956	3.88
394.32	3.48
394.685	3.54
395.05	3.49
395.414	3.6
395.779	3.35
396.143	3.54
396.508	3.51
396.872	3.42
397.236	3.48
397.601	3.51
397.965	3.36
398.329	3.52
398.694	3.79
399.058	3.51
399.422	3.83
399.786	3.72
400.15	3.57
400.514	3.64
400.878	3.6
401.242	3.57
401.605	3.41
401.969	3.47
402.333	3.39
402.697	3.88
403.06	3.54
403.424	3.72
403.787	3.68
404.151	3.41
404.514	3.64
404.878	3.45
405.241	3.64
405.604	3.62
405.968	3.55
406.331	3.55
406.694	3.65
407.057	3.51
407.42	3.54
407.783	3.65
408.146	3.79
408.509	3.59
408.872	3.49
409.235	3.85
409.598	3.59
409.961	3.45
410.323	3.76
410.686	3.79
411.049	3.73
411.411	3.83
411.774	3.63
412.136	3.47
412.499	3.8
412.861	3.76
413.223	3.54
413.586	3.51
413.948	3.53
414.31	3.62
414.672	3.61
415.035	3.79
415.397	3.67
415.759	3.6
416.121	3.65
416.483	3.52
416.845	3.57
417.206	3.63
417.568	3.66
417.93	3.72
418.292	3.59
418.653	3.52
419.015	3.67
419.377	3.59
419.738	3.6
420.1	3.65
420.461	3.73
420.822	3.65
421.184	3.56
421.545	3.57
421.906	3.62
422.267	3.53
422.629	3.53
422.99	3.55
423.351	3.59
423.712	3.48
424.073	3.59
424.434	3.64
424.795	3.54
425.155	3.45
425.516	3.49
425.877	3.49
426.238	3.54
426.598	3.59
426.959	3.58
427.32	3.63
427.68	3.65
428.041	3.5
428.401	3.72
428.761	3.69
429.122	3.63
429.482	3.64
429.842	3.63
430.202	3.94
430.563	3.66
430.923	3.7
431.283	3.72
431.643	3.58
432.003	3.74
432.363	3.77
432.722	3.58
433.082	3.59
433.442	3.84
433.802	3.59
434.161	3.72
434.521	3.63
434.881	3.63
435.24	3.54
435.6	3.59
435.959	3.47
436.319	3.74
436.678	3.58
437.037	3.77
437.396	3.78
437.756	3.67
438.115	3.62
438.474	3.74
438.833	3.65
439.192	3.7
439.551	3.67
439.91	3.63
440.269	3.6
440.628	3.73
440.987	3.65
441.345	3.7
441.704	3.66
442.063	3.71
442.421	3.63
442.78	3.66
443.138	3.76
443.497	3.59
443.855	3.79
444.214	3.7
444.572	3.85
444.93	3.64
445.288	3.71
445.647	3.79
446.005	3.76
446.363	3.74
446.721	3.86
447.079	3.61
447.437	3.63
447.795	3.66
448.153	3.61
448.51	3.74
448.868	3.64
449.226	3.6
449.584	3.7
449.941	3.64
450.299	3.62
450.656	3.72
451.014	3.83
451.371	3.85
451.729	3.72
452.086	3.83
452.443	3.66
452.801	3.75
453.158	3.79
453.515	3.73
453.872	3.64
454.229	3.82
454.586	3.84
454.943	3.75
455.3	3.8
455.657	3.71
456.014	3.87
456.371	3.77
456.727	3.8
457.084	3.78
457.441	3.69
457.797	3.72
458.154	3.87
458.51	3.75
458.867	3.91
459.223	3.78
459.58	3.8
459.936	3.61
460.292	3.78
460.648	3.72
461.005	3.84
461.361	3.72
461.717	3.68
462.073	3.68
462.429	3.52
462.785	3.73
463.141	3.71
463.496	3.63
463.852	3.81
464.208	3.8
464.564	3.63
464.919	3.95
465.275	3.75
465.631	3.93
465.986	3.63
466.342	3.76
466.697	3.67
467.052	3.73
467.408	3.88
467.763	3.74
468.118	3.8
468.473	3.76
468.829	3.56
469.184	3.74
469.539	3.75
469.894	3.78
470.249	3.88
470.603	3.76
470.958	3.86
471.313	3.72
471.668	3.76
472.023	3.75
472.377	3.8
472.732	3.98
473.086	3.78
473.441	3.57
473.795	3.82
474.15	3.63
474.504	3.69
474.859	3.72
475.213	3.95
475.567	3.85
475.921	3.86
476.275	3.76
476.63	3.82
476.984	3.74
477.338	3.76
477.692	3.84
478.045	3.59
478.399	3.62
478.753	3.72
479.107	3.82
479.461	3.89
479.814	3.79
480.168	3.74
480.521	3.87
480.875	3.85
481.228	3.81
481.582	3.83
481.935	3.67
482.289	3.67
482.642	3.76
482.995	3.71
483.348	3.72
483.701	3.58
484.055	3.85
484.408	3.63
484.761	3.65
485.114	3.54
485.466	3.48
485.819	3.45
486.172	3.53
486.525	3.58
486.878	3.63
487.23	3.64
487.583	3.7
487.936	3.7
488.288	3.63
488.641	3.68
488.993	3.57
489.345	3.58
489.698	3.6
490.05	3.55
490.402	3.64
490.754	3.74
491.107	3.65
491.459	3.76
491.811	3.68
492.163	3.69
492.515	3.65
492.866	3.61
493.218	3.57
493.57	3.62
493.922	3.65
494.274	3.67
494.625	3.73
494.977	3.73
495.328	3.89
495.68	3.84
496.031	3.81
496.383	3.69
496.734	3.87
497.086	3.78
497.437	3.91
497.788	3.81
498.139	3.68
498.49	3.73
498.842	3.67
499.193	3.79
499.544	3.7
499.894	3.84
500.245	3.8
500.596	3.83
500.947	3.7
501.298	3.82
501.648	3.81
501.999	3.85
502.35	3.74
502.7	3.71
503.051	3.84
503.401	3.87
503.752	3.78
504.102	3.9
504.452	3.92
504.803	3.66
505.153	3.91
505.503	3.88
505.853	3.86
506.203	3.87
506.553	3.86
506.903	3.98
507.253	3.92
507.603	3.87
507.953	3.87
508.303	3.85
508.652	3.93
509.002	3.76
509.352	3.84
509.701	3.91
510.051	3.81
510.4	3.87
510.75	3.83
511.099	3.83
511.449	3.8
511.798	3.89
512.147	3.87
512.496	3.8
512.846	3.87
513.195	3.77
513.544	3.86
513.893	3.74
514.242	3.75
514.591	3.7
514.939	3.79
515.288	3.84
515.637	3.76
515.986	3.98
516.334	3.85
516.683	3.88
517.032	3.92
517.38	3.92
517.729	3.86
518.077	3.91
518.426	3.82
518.774	3.82
519.122	3.79
519.47	3.78
519.819	3.75
520.167	3.82
520.515	3.72
520.863	3.8
521.211	3.82
521.559	3.78
521.907	3.92
522.255	3.77
522.602	3.82
522.95	3.9
523.298	3.86
523.645	3.68
523.993	3.84
524.341	3.94
524.688	3.8
525.036	3.98
525.383	3.86
525.73	3.9
526.078	3.89
526.425	3.9
526.772	3.77
527.119	3.76
527.466	3.76
527.814	3.65
528.161	3.81
528.508	3.76
528.854	3.74
529.201	3.8
529.548	3.73
529.895	3.65
530.242	3.61
530.588	3.59
530.935	3.62
531.282	3.63
531.628	3.68
531.975	3.73
532.321	3.77
532.667	3.8
533.014	3.81
533.36	3.82
533.706	3.86
534.052	3.79
534.399	3.76
534.745	3.63
535.091	3.67
535.437	3.72
535.783	3.73
536.129	3.81
536.474	3.79
536.82	3.82
537.166	3.78
537.512	3.84
537.857	3.94
538.203	3.78
538.549	3.8
538.894	3.82
539.239	3.8
539.585	3.88
539.93	3.88
540.276	3.88
540.621	4
540.966	3.9
541.311	3.98
541.656	3.82
542.001	3.8
542.346	3.75
542.691	3.73
543.036	3.66
543.381	3.71
543.726	3.69
544.071	3.77
544.415	3.8
544.76	3.77
545.105	3.76
545.449	3.78
545.794	3.93
546.138	3.82
546.483	3.78
546.827	3.86
547.171	3.87
547.516	3.93
547.86	3.74
548.204	3.85
548.548	3.88
548.892	3.84
549.236	3.8
549.58	3.9
549.924	3.95
550.268	3.81
550.612	3.95
550.956	3.9
551.3	3.88
551.643	3.97
551.987	4.06
552.33	4.02
552.674	4.15
553.017	4.1
553.361	4.03
553.704	4.07
554.048	3.95
554.391	3.85
554.734	3.93
555.077	3.89
555.42	3.99
555.764	4.04
556.107	3.92
556.45	3.94
556.793	4.08
557.135	4.09
557.478	3.92
557.821	3.92
558.164	3.99
558.507	3.97
558.849	3.76
559.192	4.02
559.534	4.23
559.877	4.03
560.219	3.78
560.562	4.02
560.904	4.13
561.246	3.89
561.589	4.1
561.931	4.04
562.273	4.15
562.615	4.07
562.957	4.04
563.299	4.05
563.641	3.95
563.983	3.89
564.325	3.86
564.667	3.89
565.008	4.05
565.35	4.05
565.692	4.19
566.033	3.87
566.375	3.88
566.716	3.92
567.058	3.87
567.399	4.06
567.741	3.88
568.082	4.04
568.423	3.94
568.764	4.01
569.105	4.06
569.447	4.02
569.788	3.94
570.129	4.09
570.47	3.95
570.811	4.06
571.151	3.97
571.492	4
571.833	3.89
572.174	3.85
572.514	3.97
572.855	3.91
573.195	3.89
573.536	3.96
573.876	3.93
574.217	3.92
574.557	3.81
574.898	4.05
575.238	3.98
575.578	3.89
575.918	3.88
576.258	3.81
576.598	3.83
576.938	3.99
577.278	4
577.618	4.07
577.958	3.91
578.298	4.04
578.638	3.98
578.977	4.17
579.317	4.14
579.657	4.15
579.996	4.07
580.336	4.1
580.675	3.91
581.014	3.95
581.354	4.28
581.693	4.07
582.032	4.08
582.372	3.85
582.711	4.06
583.05	4.01
583.389	3.93
583.728	4.09
584.067	4.04
584.406	4.08
584.745	4.36
585.083	4.03
585.422	3.9
585.761	4.09
586.1	4.19
586.438	3.95
586.777	3.92
587.115	4.16
587.454	3.96
587.792	4.09
588.13	4.06
588.469	4.09
588.807	3.72
589.145	4.02
589.483	4.12
589.821	4.27
590.159	4.03
590.497	3.81
590.835	4.33
591.173	3.89
591.511	4.13
591.849	4.09
592.187	3.97
592.524	3.98
592.862	4.13
593.2	4.07
593.537	3.72
593.875	4.14
594.212	4.18
594.55	4.05
594.887	4.29
595.224	3.95
595.561	4.1
595.899	3.95
596.236	4.08
596.573	3.86
596.91	4.1
597.247	3.96
597.584	4.1
597.921	3.91
598.258	4.18
598.594	3.94
598.931	4
599.268	3.98
599.604	3.92
599.941	3.99
600.277	4.02
600.614	3.99
600.95	3.94
601.287	3.99
601.623	3.87
601.959	4.08
602.296	3.98
602.632	4.05
602.968	3.97
603.304	3.94
603.64	4.26
603.976	4.26
604.312	3.96
604.648	3.99
604.984	3.95
605.319	4
605.655	3.87
605.991	4.11
606.326	4.02
606.662	3.94
606.998	3.98
607.333	4.07
607.668	4.04
608.004	4.28
608.339	3.92
608.674	4.14
609.01	4.06
609.345	4.22
609.68	3.98
610.015	4.15
610.35	3.99
610.685	3.93
611.02	4.11
611.355	4.08
611.689	4.04
612.024	3.91
612.359	3.87
612.694	4.11
613.028	4
613.363	4.11
613.697	4.1
614.032	3.98
614.366	4.18
614.7	3.89
615.035	4.07
615.369	3.88
615.703	3.98
616.037	4
616.371	4.16
616.705	4.02
617.039	3.99
617.373	4.09
617.707	4.32
618.041	4.24
618.375	4.09
618.709	3.95
619.042	4.08
619.376	4.25
619.71	4.28
620.043	4.6
620.377	4.03
620.71	4.54
621.043	4.17
621.377	4.22
621.71	3.97
622.043	4.26
622.376	4.37
622.709	3.85
623.043	4.24
623.376	3.84
623.709	3.95
624.041	4.16
624.374	4.16
624.707	3.96
625.04	4.26
625.373	4.07
625.705	4.15
626.038	4.18
626.37	3.79
626.703	4.1
627.035	3.92
627.368	4.03
627.7	4.11
628.032	4.12
628.365	4
628.697	4.09
629.029	4.11
629.361	4.06
629.693	3.99
630.025	4.25
630.357	4.32
630.689	4.39
631.021	4.26
631.353	4.31
631.684	4.07
632.016	4.35
632.348	3.71
632.679	4.14
633.011	3.92
633.342	3.97
633.674	4.3
634.005	3.52
634.336	4.52
634.668	4.37
634.999	3.91
635.33	3.71
635.661	3.84
635.992	4.22
636.323	4.15
636.654	4.13
636.985	3.99
637.316	3.94
637.647	4.41
637.977	4.04
638.308	4.41
638.639	4
638.969	3.93
639.3	4.38
639.63	3.91
639.961	4.24
640.291	4.47
640.622	3.86
640.952	4.22
641.282	4.02
641.612	4.11
641.943	4.55
642.273	4.1
642.603	4.07
642.933	4.33
643.263	4.17
643.592	4.04
643.922	4.25
644.252	4.65
644.582	4.31
644.911	4.18
645.241	3.81
645.571	4.23
645.9	3.51
646.23	4.37
646.559	4.12
646.888	4
647.218	4.29
647.547	4.36
647.876	3.94
648.205	4.57
648.534	3.92
648.863	3.86
649.192	4.45
649.521	4.09
649.85	4.27
650.179	4.25
650.508	4.48
650.837	4.18
651.165	4.16
651.494	4.27
651.822	4.35
652.151	4.45
652.479	4.23
652.808	4.26
653.136	3.95
653.465	4.4
653.793	3.99
654.121	4.01
654.449	4.1
654.777	4.26
655.105	4.15
655.433	4.17
655.761	4.4
656.089	4.24
656.417	4.61
656.745	4.06
657.073	4.31
657.4	4.45
657.728	4.51
658.056	4.03
658.383	3.9
658.711	3.92
659.038	4.47
659.365	4.63
659.693	4.43
660.02	4.42
660.347	3.92
660.674	4.02
661.001	4.09
661.329	4.44
661.656	4.18
661.982	4.36
662.309	4.55
662.636	4.38
662.963	3.95
663.29	4.47
663.616	4.4
663.943	4.54
664.27	4.31
664.596	4.32
664.923	3.31
665.249	4.08
665.576	4.37
665.902	4.31
666.228	3.75
666.554	4.23
666.881	4.12
667.207	3.64
667.533	4.77
667.859	4.1
668.185	3.44
668.511	3.84
668.837	4.12
669.162	4.22
669.488	4.24
669.814	3.88
670.139	4.37
670.465	4.52
670.791	4.07
671.116	3.97
671.442	4.57
671.767	4.5
672.092	3.75
672.418	4.16
672.743	3.63
673.068	4.5
673.393	5.05
673.718	4.4
674.043	4.04
674.368	5.39
674.693	4.65
675.018	4.08
675.343	4.28
675.667	4.18
675.992	3.87
676.317	4.27
676.641	4.44
676.966	3.89
677.29	4.82
677.615	4.19
677.939	4.94
678.264	4.63
678.588	4.38
678.912	4.02
679.236	4.14
679.56	3.82
679.885	4.26
680.209	3.87
680.532	3.82
680.856	4.5
681.18	3.79
681.504	4.41
681.828	4.54
682.152	3.97
682.475	4.67
682.799	4.54
683.122	4.11
683.446	4.59
683.769	4.58
684.093	4.01
684.416	4.49
684.739	4.69
685.062	4.25
685.386	4.1
685.709	4.36
686.032	4.82
686.355	4.42
686.678	4.25
687.001	4.1
687.324	4.02
687.646	4.91
687.969	4.44
688.292	4.41
688.614	4.84
688.937	3.79
689.26	4.38
689.582	3.84
689.904	3.37
690.227	4.68
690.549	4.56
690.871	4.02
691.194	3.64
691.516	4.38
691.838	4.27
692.16	3.53
692.482	4.65
692.804	4.18
693.126	4.28
693.448	4.19
693.769	4.99
694.091	4.38
694.413	3.75
694.735	4.24
695.056	3.91
695.378	4.33
695.699	4.78
696.021	5.05
696.342	4.69
696.663	4
696.984	4.67
697.306	4.52
697.627	4.34
697.948	4.19
698.269	4.9
698.59	4.53
698.911	4.41
699.232	4.31
699.553	4.93
699.873	3.75
700.194	3.81
700.515	4.46
700.835	4.09
701.156	4.46
701.477	4.28
701.797	4.26
702.117	4.9
702.438	4.18
702.758	5.06
703.078	4.77
703.398	4.08
703.719	4.52
704.039	5.22
704.359	4.94
704.679	3.57
704.999	3.72
705.319	5.68
705.638	4.39
705.958	4.37
706.278	4.73
706.597	3.94
706.917	4.6
707.237	4.53
707.556	3.8
707.876	4.43
708.195	4.2
708.514	3.2
708.834	4.61
709.153	4.09
709.472	4.75
709.791	4.01
710.11	4.19
710.429	3.99
710.748	4.37
711.067	4.02
711.386	5.48
711.705	4.56
712.023	3.9
712.342	4.48
712.661	4.4
712.979	5.02
713.298	4.3
713.616	4.18
713.935	4.62
714.253	3.1
714.572	4.31
714.89	4.03
715.208	4.87
715.526	4.47
715.844	3.04
716.162	3.97
716.48	4.68
716.798	3.87
717.116	3.63
717.434	4.91
717.752	4.48
718.069	3.95
718.387	4.43
718.705	3.8
719.022	5.09
719.34	4.33
719.657	4.65
719.975	5.07
720.292	4.67
720.609	4.95
720.927	4.89
721.244	5.13
721.561	5.15
721.878	4.62
722.195	5.72
722.512	3.9
722.829	4.29
723.146	3.4
723.463	5.13
723.779	4.32
724.096	5.16
724.413	4.34
724.729	3.63
725.046	3.87
725.362	4.52
725.679	4.15
725.995	3.67
726.311	4.57
726.628	3.74
726.944	4.74
727.26	4.67
727.576	4.42
727.892	4.73
728.208	4.83
728.524	2.26
728.84	5.46
729.156	4.98
729.472	6.05
729.787	3.93
730.103	3.94
730.419	4.99
730.734	5.05
731.05	4.61
731.365	4.7
731.681	4.83
731.996	3.66
732.311	4.38
732.626	3.93
732.942	4.08
733.257	3.94
733.572	3.84
733.887	4.45
734.202	4.01
734.517	4.43
734.832	4.4
735.146	4.25
735.461	5.42
735.776	4.61
736.091	4.45
736.405	5.15
736.72	4.18
737.034	6.06
737.349	4.81
737.663	5.46
737.977	3.97
738.292	4.66
738.606	4.54
738.92	4.96
739.234	4.95
739.548	3
739.862	3.13
740.176	4.24
740.49	4.91
740.804	4.37
741.117	4.68
741.431	5.17
741.745	6.74
742.058	5.87
742.372	3.19
742.685	4.19
742.999	4.28
743.312	3.99
743.626	2.5
743.939	4.67
744.252	4.42
744.565	3.44
744.878	3.7
745.191	2.57
745.505	4.88
745.817	3.69
746.13	5.02
746.443	4.09
746.756	4.97
747.069	3.55
747.381	6.62
747.694	3.29
748.007	5.28
748.319	3.61
748.632	3.27
748.944	4.28
749.256	6.29
749.569	6
749.881	3.16
750.193	2.47
750.505	4.31
750.817	3.74
751.129	3.14
751.441	2.85
751.753	4.26
752.065	3.51
752.377	5.09
752.689	4.13
753	5.07
753.312	4.92
753.624	5.48
753.935	3
754.247	5.34
754.558	5.02
754.869	3.49
755.181	4.86
755.492	4.75
755.803	4.96
756.114	4.28
756.425	4.42
756.736	3.1
757.047	4.16
757.358	4.34
757.669	4.86
757.98	4.62
758.291	4.31
758.601	4.52
758.912	6.15
759.223	5.69
759.533	3.64
759.844	5.27
760.154	4.25
760.464	5.19
760.775	4.6
761.085	4.74
761.395	4.02
761.705	5.07
762.016	3.98
762.326	4.74
762.636	4.42
762.945	5.72
763.255	4.3
763.565	4.1
763.875	3.89
764.185	4.68
764.494	4.09
764.804	3.99
765.113	3.15
765.423	5.98
765.732	3.96
766.042	4.15
766.351	4.75
766.66	6
766.97	4.7
767.279	4.97
767.588	5.76
767.897	4.78
768.206	2.9
768.515	4.74
768.824	5.3
769.133	4.16
769.441	5.83
769.75	5.34
770.059	2.91
770.367	4.35
770.676	5.1
770.984	4.32
771.293	4
771.601	5.4
771.91	2.03
772.218	2.48
772.526	6.46
772.834	5.78
773.142	4.32
773.45	6.94
773.758	6.96
774.066	4.24
774.374	1.39
774.682	6.19
774.99	4.67
775.298	4.97
775.605	3.74
775.913	5.87
776.22	5.51
776.528	6.1
776.835	4.95
777.143	1.99
777.45	4.36
777.757	4.78
778.065	3.58
778.372	1.81
778.679	1.66
778.986	2.05
779.293	3.17
779.6	4.63
779.907	5.05
780.214	4.75
780.52	7.33
780.827	3.25
781.134	9.72
781.44	3.51
781.747	0.43
782.053	5.04
782.36	6.39
782.666	6.67
782.973	4.35
783.279	3.5
783.585	4.65
783.891	3.6
784.197	5.31
784.503	4.56
784.809	5.25
785.115	5.95
785.421	3.65
785.727	4.79
786.033	3.32
786.339	2.31
786.644	2.25
786.95	5.64
787.255	3.63
787.561	3.19
787.866	2.63
788.172	3.54
788.477	3.96
788.782	2.18
789.088	2.23
789.393	7.67
789.698	3.38
790.003	6.14
790.308	5.56
790.613	6.54
790.918	7.49
791.223	5.36
791.527	6.89
791.832	11.21
792.137	9.74
792.441	4.81
792.746	5.04
793.05	5.63
793.355	3.4
793.659	6.76
793.963	2.54
794.268	4.44
794.572	2.79
794.876	6.58
795.18	9.13
795.484	0.69
795.788	4.09
796.092	0.89
796.396	4.3
796.7	7.32
797.004	4.62
797.307	4.52
797.611	5.92
797.915	5.1
798.218	4.8
798.522	5.26
798.825	5.29
799.128	1.11
799.432	1.01
799.735	3.74
800.038	-0.49
800.341	5.3
800.644	3.48
800.947	4.01
801.25	5.23
801.553	6.7
801.856	5.04
802.159	2.14
802.462	6.12
802.764	1.13
803.067	6.52
803.37	4.13
803.672	0.99
803.975	4.69
804.277	6.61
804.579	5.25
804.882	4.46
805.184	4.37
805.486	-1.13
805.788	5.79
806.09	9.04
806.392	8.5
806.694	8.06
806.996	6.91
807.298	6.29
807.6	7.26
807.902	7.34
808.203	3.81
808.505	4.04
808.807	9.97
809.108	6.01
809.409	5.66
809.711	7.71
810.012	4.59
810.313	6.43
810.615	4.6
810.916	1.74
811.217	-1.58
811.518	7.19
811.819	5.15
812.12	0.99
812.421	4.99
812.722	7.44
813.023	6.16
813.323	6.61
813.624	10.23
813.925	2.49
814.225	3.05
814.526	-2.76
814.826	7.14
815.126	3.56
815.427	8.34
815.727	10.04
816.027	5.26
816.327	4.59
816.627	5.8
816.927	5.65
817.227	11
817.527	8.02
817.827	6.44
818.127	4.16
818.427	2.51
818.727	10.01
819.026	4.44
819.326	5.12
819.625	5.67
819.925	8.68
820.224	4.67
820.524	10.14
820.823	8.39
821.122	5.62
821.421	1.61
821.72	-0.47
822.019	5.33
822.318	3.76
822.617	5.99
822.916	6.96
823.215	5.19
823.514	7.15
823.813	4.49
824.111	4.63
824.41	3.45
824.709	5.95
825.007	5.74
825.306	4.71
825.604	5.63
825.902	5.76
826.201	5.74
826.499	4.32
826.797	4.86
827.095	5.98
827.393	6.17
827.691	6.16
827.989	3.25
828.287	3.47
828.585	6.28
828.882	5.47
829.18	6.64
829.478	3.68
829.775	6.45
830.073	4.94
830.37	4.98
830.668	7.4
830.965	5.11
831.263	2.92
831.56	3.49
831.857	7.07
832.154	6.42
832.451	8.15
832.748	2.63
833.045	4.31
833.342	7.24
833.639	8.28
833.936	-0.32
834.232	6.37
834.529	3.94
834.826	4.97
835.122	5.69
835.419	2.78
835.715	5.99
836.012	8.71
836.308	6.18
836.604	4.91
836.901	2.17
837.197	2.22
837.493	4.58
837.789	5.33
838.085	4.62
838.381	3.62
838.677	8.01
838.972	3.01
839.268	7.63
839.564	4.88
839.86	-7.03
840.155	4.99
840.451	9.96
840.746	12.58
841.042	5.92
841.337	5.55
841.632	9.32
841.928	10.6
842.223	4.4
842.518	3.98
842.813	3.31
843.108	-1.6
843.403	5.86
843.698	-7.4
843.993	9.15
844.287	11.74
844.582	7.65
844.877	-4.88
845.171	14.8
845.466	0.36
845.761	14.1
846.055	9.53
846.349	-1.34
846.644	1.73
846.938	1.45
847.232	1.95
847.526	25.79
847.82	-4.72
848.114	-4.46
848.408	-2.46
848.702	14.13
848.996	7.32
849.29	3.79
849.584	4.05
849.877	7.24
850.171	5.79
850.465	18.25
850.758	8.67
851.052	13.94
851.345	-6.33
851.638	-6.95
851.932	26.89
852.225	-21.48
852.518	15.39
852.811	15.31
853.104	0.14
853.397	13.52
853.69	-6.15
853.983	-4.9
854.276	23.03
854.569	-2.45
854.861	-6.3
855.154	-25.82
855.447	0.15
855.739	6.63
856.032	5.76
856.324	-43.51
856.616	-15.26
856.909	13.01
857.201	-12.34
857.493	14.51
857.785	24.15
858.077	-12.49
858.369	-40.49
858.661	14.33
858.953	-7.49
859.245	34.46
859.537	0.67
859.829	5.36
860.12	-7.32
860.412	10.25
860.703	-37.16
860.995	9.41
861.286	29.36
861.578	-12.05
861.869	8.83
862.16	22.89
862.452	1.27
862.743	12.75
863.034	5.48
863.325	4.87
863.616	7.41
863.907	5.58
864.198	1.14
864.488	25.37
864.779	3.8
865.07	-10.78
865.36	-0.68
865.651	9.5
865.941	4.26
866.232	11.15
866.522	16.74
866.813	4.99
867.103	0.34
867.393	10.15
867.683	-26.54
867.973	4.84
868.263	-38.61
868.553	-10.04
868.843	2.56
869.133	-4.44
869.423	15.87
869.713	-16.06
870.002	9.27
870.292	2.46
870.582	4.26
870.871	12.19
871.161	-9.79
871.45	7.85
871.739	-5.01
872.029	16.59
872.318	15.47
872.607	-22.03
872.896	24.2
873.185	9.08
873.474	-4.14
873.763	2.2
874.052	-3.36
874.341	8.24
874.63	16.88
874.918	3.44
875.207	-25.68
875.496	-0.4
875.784	26.9
876.073	-6.31
876.361	19.67
876.649	-10.02
876.938	13.61
877.226	-0.73
877.514	2.32
877.802	-5.1
878.09	6.26
878.378	17.06
878.666	19.15
878.954	0.88
879.242	12.53
879.53	-3.22
879.817	25.07
880.105	-15.77
880.392	18.15
880.68	7.83
880.967	4.87
881.255	3.49
881.542	-5.56
881.83	-24.85
882.117	18.73
882.404	12.61
882.691	-38.51
882.978	6.63
883.265	-4.17
883.552	5.2
883.839	-0.2
884.126	3.37
884.413	5.51
884.699	14.22
884.986	5.74
885.273	-1.11
885.559	-1.11
885.846	-1.11
