Data from 0412_chest_Reflection__3__33.txt Node

Date: Fri Dec 15 16:39:56 CST 2023
User: ToomeyLab
Spectrometer: FLMS14357
Trigger mode: 0
Integration Time (sec): 1.000000E-2
Scans to average: 100
Electric dark correction enabled: true
Nonlinearity correction enabled: false
Boxcar width: 0
XAxis mode: Wavelengths
Number of Pixels in Spectrum: 2048
>>>>>Begin Spectral Data<<<<<
189.047	19.29
189.435	19.29
189.823	19.29
190.211	-180.71
190.599	-364.82
190.987	110.4
191.375	-66.48
191.763	37.31
192.151	-9.02
192.538	169.97
192.926	31.3
193.314	139.62
193.702	45.16
194.089	-103.73
194.477	-50.06
194.864	-137.76
195.252	46.19
195.639	105.75
196.027	99.29
196.414	-429.7
196.801	-82.3
197.189	492.11
197.576	241.83
197.963	73
198.351	41.42
198.738	4.84
199.125	41.79
199.512	45.83
199.899	18.77
200.286	39.23
200.673	6.72
201.06	38.28
201.447	29.6
201.833	-7.37
202.22	45.5
202.607	24.42
202.994	27.35
203.38	49.23
203.767	51.99
204.154	20.82
204.54	57.01
204.927	52.83
205.313	6.57
205.699	23.63
206.086	58
206.472	21.35
206.858	24.49
207.245	14.65
207.631	22.77
208.017	16.12
208.403	12.19
208.789	45.82
209.175	44.46
209.561	5.75
209.947	13.3
210.333	21.95
210.719	23.12
211.105	17.56
211.491	24.76
211.876	16.16
212.262	71.41
212.648	33.86
213.034	26.7
213.419	-11.16
213.805	-1.67
214.19	-9.59
214.576	10.72
214.961	-3.58
215.346	-87.33
215.732	10.64
216.117	50.95
216.502	10.92
216.888	23.92
217.273	41.84
217.658	17.61
218.043	16.87
218.428	-23.73
218.813	-24.95
219.198	8.97
219.583	16.55
219.968	10.16
220.353	15.17
220.738	23.12
221.122	15.29
221.507	-9.76
221.892	-16.72
222.276	1.01
222.661	12.69
223.046	22.44
223.43	12.45
223.815	14.06
224.199	-13.72
224.583	10.96
224.968	2.21
225.352	9.09
225.736	-3.3
226.121	-4.04
226.505	8.21
226.889	8.48
227.273	4.91
227.657	8.09
228.041	7.55
228.425	-0.25
228.809	4.01
229.193	2.73
229.577	-0.55
229.961	2.73
230.344	1.06
230.728	1.46
231.112	1.6
231.495	1.27
231.879	-0.12
232.263	2.09
232.646	2.5
233.03	1.41
233.413	-0.32
233.797	2.9
234.18	0.4
234.563	1.58
234.946	0.47
235.33	5.97
235.713	3.42
236.096	2.04
236.479	2.58
236.862	0.19
237.245	2.67
237.628	1.81
238.011	1.12
238.394	4.26
238.777	2.3
239.16	1.78
239.543	1.77
239.925	4.95
240.308	2.31
240.691	3.1
241.073	3.13
241.456	1.04
241.838	0.72
242.221	1.16
242.603	1.7
242.986	1.69
243.368	1.71
243.75	2.25
244.133	1.4
244.515	1.37
244.897	1.88
245.279	1.75
245.661	2.1
246.043	1.27
246.425	0.42
246.807	3.28
247.189	2.57
247.571	1.25
247.953	2.33
248.335	1.31
248.717	1.34
249.098	1.06
249.48	1.31
249.862	0.97
250.243	1.21
250.625	1.2
251.006	1.39
251.388	0.78
251.769	0.72
252.151	2.43
252.532	0.44
252.913	0.68
253.295	1.44
253.676	1.04
254.057	1.66
254.438	1.14
254.819	0.86
255.2	1.15
255.581	0.89
255.962	2.03
256.343	2.61
256.724	0.59
257.105	0.52
257.486	1.17
257.867	1.89
258.247	1.92
258.628	1.34
259.009	0.44
259.389	2.21
259.77	1.73
260.15	0.44
260.531	0.96
260.911	1.43
261.292	1.09
261.672	1.34
262.052	1.17
262.432	1.29
262.813	1.26
263.193	1.07
263.573	1.28
263.953	0.96
264.333	2.02
264.713	0.98
265.093	0.75
265.473	1.53
265.853	-0.54
266.233	1.38
266.612	-0.97
266.992	-0.02
267.372	1.98
267.752	1.54
268.131	1.47
268.511	2.05
268.89	1.5
269.27	0.93
269.649	1.37
270.029	0.76
270.408	2.76
270.787	2.3
271.167	2.84
271.546	1.8
271.925	0.82
272.304	1.7
272.683	1.99
273.062	1.23
273.441	1.16
273.82	0.68
274.199	1.27
274.578	1.5
274.957	0.67
275.336	1.33
275.715	0.69
276.093	1.08
276.472	1.73
276.851	1.42
277.229	1.18
277.608	0.58
277.986	1.3
278.365	0.76
278.743	1.14
279.122	1.33
279.5	1.82
279.878	1.78
280.257	1.71
280.635	1.51
281.013	1.39
281.391	1.97
281.769	1.39
282.147	1.22
282.525	1.79
282.903	1.21
283.281	1.48
283.659	2.04
284.037	1.28
284.415	1.37
284.792	1.24
285.17	0.36
285.548	1.34
285.925	1.56
286.303	1.24
286.68	1
287.058	0.95
287.435	1.12
287.813	1.6
288.19	1.18
288.567	1.3
288.945	1.77
289.322	1.03
289.699	1.27
290.076	0.72
290.453	1.15
290.83	1
291.207	1.32
291.584	1.63
291.961	1.08
292.338	1.14
292.715	1.64
293.092	1.16
293.469	1.28
293.845	1.32
294.222	0.63
294.599	1.36
294.975	0.64
295.352	1.56
295.728	1.13
296.105	1.31
296.481	1.66
296.858	1.86
297.234	1.27
297.61	1.2
297.986	1.38
298.363	1.62
298.739	1.11
299.115	1.08
299.491	0.75
299.867	1.28
300.243	1.44
300.619	0.85
300.995	1.46
301.371	1.25
301.746	1.26
302.122	1.81
302.498	1.2
302.874	1.36
303.249	1.86
303.625	1.39
304	1.82
304.376	1.43
304.751	0.77
305.127	2.26
305.502	1.48
305.878	0.51
306.253	1.46
306.628	1.94
307.003	1.07
307.378	1.37
307.754	1.58
308.129	0.98
308.504	0.88
308.879	1.47
309.254	2.13
309.629	2.27
310.003	1.42
310.378	1.5
310.753	1.79
311.128	1.41
311.502	1.76
311.877	1.79
312.252	1.42
312.626	1.61
313.001	1.22
313.375	1.71
313.75	1.34
314.124	1.26
314.498	1.57
314.873	1.02
315.247	1.32
315.621	1.22
315.995	0.82
316.369	1.51
316.743	1.09
317.117	1.61
317.491	1.26
317.865	1.13
318.239	1.82
318.613	1.52
318.987	2.06
319.361	1.35
319.734	2.01
320.108	1.81
320.482	1.71
320.855	2.11
321.229	1.25
321.602	1.62
321.976	2.07
322.349	1.5
322.723	2.36
323.096	1.86
323.469	1.66
323.843	1.1
324.216	1.59
324.589	0.95
324.962	1.85
325.335	1.24
325.708	1.34
326.081	1.38
326.454	2.05
326.827	1.67
327.2	1.81
327.573	2.08
327.945	1.52
328.318	1.48
328.691	1.23
329.063	1.8
329.436	1.37
329.809	1.88
330.181	1.21
330.553	1.22
330.926	1.98
331.298	2.07
331.671	1.46
332.043	2.42
332.415	1.86
332.787	2.02
333.159	1.78
333.532	1.74
333.904	1.4
334.276	1.51
334.648	1.37
335.02	1.5
335.391	1.07
335.763	1.42
336.135	1.53
336.507	2.04
336.879	1.74
337.25	1.19
337.622	1.37
337.993	1.9
338.365	1.59
338.736	1.99
339.108	1.36
339.479	1.31
339.851	1.82
340.222	1.78
340.593	1.71
340.964	1.26
341.336	2.36
341.707	1.48
342.078	1.97
342.449	1.79
342.82	1.34
343.191	2.01
343.562	1.35
343.933	1.85
344.303	1.72
344.674	1.85
345.045	1.74
345.416	1.92
345.786	1.73
346.157	1.8
346.527	1.21
346.898	1.26
347.268	1.54
347.639	1.93
348.009	1.93
348.38	1.05
348.75	1.54
349.12	1.61
349.49	2.01
349.861	1.65
350.231	1.84
350.601	2.18
350.971	1.98
351.341	1.93
351.711	1.73
352.081	1.92
352.45	1.8
352.82	2.11
353.19	1.68
353.56	1.66
353.929	2.09
354.299	1.52
354.669	1.72
355.038	1.87
355.408	1.53
355.777	1.68
356.147	1.66
356.516	2.02
356.885	1.9
357.254	1.84
357.624	2.11
357.993	1.63
358.362	1.31
358.731	1.5
359.1	1.35
359.469	1.63
359.838	2.1
360.207	2.01
360.576	1.46
360.945	1.54
361.314	2.13
361.682	1.29
362.051	1.27
362.42	1.73
362.788	1.53
363.157	1.53
363.525	1.82
363.894	1.73
364.262	1.47
364.631	1.64
364.999	1.73
365.367	1.24
365.735	2.34
366.104	1.61
366.472	1.96
366.84	1.53
367.208	1.72
367.576	1.98
367.944	1.93
368.312	1.54
368.68	1.18
369.048	1.7
369.416	1.79
369.783	1.52
370.151	2.26
370.519	2.2
370.886	1.82
371.254	1.27
371.621	1.82
371.989	1.86
372.356	1.27
372.724	1.85
373.091	1.29
373.458	1.71
373.826	1.72
374.193	1.7
374.56	1.73
374.927	1.67
375.294	1.58
375.661	1.71
376.028	1.55
376.395	1.68
376.762	1.87
377.129	1.74
377.496	2.01
377.863	1.74
378.229	1.13
378.596	1.73
378.963	1.45
379.329	1.52
379.696	2.07
380.062	1.73
380.429	1.72
380.795	1.41
381.161	1.9
381.528	1.94
381.894	1.69
382.26	1.61
382.626	1.81
382.993	1.41
383.359	2.27
383.725	1.85
384.091	1.73
384.457	2.01
384.823	1.61
385.188	1.79
385.554	1.78
385.92	1.92
386.286	1.86
386.651	2.33
387.017	1.95
387.383	1.99
387.748	1.42
388.114	1.98
388.479	1.67
388.845	2.17
389.21	2.14
389.575	2.05
389.94	2.02
390.306	1.97
390.671	1.91
391.036	1.27
391.401	1.5
391.766	1.72
392.131	1.68
392.496	1.8
392.861	1.85
393.226	2.23
393.591	1.91
393.956	1.85
394.32	2.03
394.685	2.02
395.05	1.63
395.414	1.87
395.779	2.03
396.143	1.66
396.508	1.76
396.872	2.04
397.236	1.95
397.601	1.54
397.965	1.72
398.329	2.01
398.694	1.9
399.058	1.98
399.422	1.86
399.786	1.95
400.15	2.18
400.514	2.06
400.878	1.83
401.242	2.35
401.605	2.04
401.969	1.78
402.333	1.96
402.697	1.92
403.06	1.76
403.424	1.93
403.787	1.72
404.151	2.07
404.514	2.02
404.878	1.86
405.241	1.92
405.604	1.85
405.968	2.04
406.331	2.14
406.694	1.97
407.057	1.97
407.42	2.08
407.783	1.67
408.146	1.98
408.509	1.85
408.872	1.78
409.235	2.07
409.598	2.1
409.961	1.88
410.323	2.09
410.686	2.05
411.049	1.8
411.411	1.73
411.774	1.94
412.136	1.72
412.499	1.96
412.861	2.03
413.223	1.84
413.586	2.05
413.948	1.75
414.31	2.04
414.672	1.85
415.035	1.82
415.397	2.18
415.759	1.85
416.121	1.93
416.483	1.96
416.845	1.74
417.206	1.83
417.568	1.96
417.93	1.67
418.292	1.81
418.653	2
419.015	2.08
419.377	1.89
419.738	2.01
420.1	1.89
420.461	1.93
420.822	1.97
421.184	1.89
421.545	1.91
421.906	1.8
422.267	1.89
422.629	1.86
422.99	1.82
423.351	1.75
423.712	1.97
424.073	1.91
424.434	1.85
424.795	1.82
425.155	1.83
425.516	1.77
425.877	1.83
426.238	1.84
426.598	2.02
426.959	1.89
427.32	1.85
427.68	1.87
428.041	1.89
428.401	1.95
428.761	1.93
429.122	2.11
429.482	1.84
429.842	2.07
430.202	1.91
430.563	2.06
430.923	1.89
431.283	2.07
431.643	1.97
432.003	2.01
432.363	2.02
432.722	2.09
433.082	2.01
433.442	1.93
433.802	1.81
434.161	1.87
434.521	2.23
434.881	2.01
435.24	1.91
435.6	2.01
435.959	2.07
436.319	1.92
436.678	2.11
437.037	2.06
437.396	1.97
437.756	2.16
438.115	2.01
438.474	2.2
438.833	2.02
439.192	1.88
439.551	2.1
439.91	2.05
440.269	2.01
440.628	1.91
440.987	2.03
441.345	1.74
441.704	1.97
442.063	1.96
442.421	1.89
442.78	2.01
443.138	1.98
443.497	1.96
443.855	1.89
444.214	1.97
444.572	2.14
444.93	2
445.288	2.1
445.647	2.27
446.005	2.05
446.363	2.04
446.721	2.01
447.079	1.73
447.437	1.92
447.795	2.06
448.153	1.88
448.51	1.95
448.868	1.95
449.226	2
449.584	1.99
449.941	2.12
450.299	1.96
450.656	2.09
451.014	2
451.371	2.01
451.729	1.94
452.086	2.17
452.443	1.99
452.801	2.06
453.158	2.08
453.515	1.87
453.872	2.34
454.229	1.95
454.586	1.95
454.943	2.04
455.3	2.05
455.657	1.93
456.014	2.07
456.371	2.2
456.727	2.12
457.084	2.13
457.441	2.04
457.797	2.11
458.154	2.21
458.51	2.18
458.867	2.24
459.223	2.16
459.58	2.22
459.936	2.17
460.292	2.15
460.648	2.04
461.005	2.12
461.361	2.23
461.717	2.04
462.073	2.01
462.429	2.12
462.785	2.02
463.141	2.15
463.496	2.18
463.852	2.21
464.208	2.14
464.564	2.24
464.919	2.19
465.275	2.27
465.631	2.42
465.986	2.08
466.342	2.25
466.697	1.94
467.052	2.16
467.408	2.21
467.763	2.26
468.118	2.14
468.473	2.17
468.829	2.17
469.184	2.06
469.539	2.23
469.894	2.14
470.249	2.32
470.603	2.24
470.958	2.3
471.313	2.49
471.668	2.42
472.023	2.22
472.377	2.27
472.732	2.28
473.086	2.09
473.441	2.02
473.795	2.33
474.15	2.2
474.504	2.25
474.859	2.34
475.213	2.11
475.567	2.21
475.921	2.05
476.275	2.2
476.63	2.24
476.984	2.46
477.338	2.35
477.692	2.19
478.045	2.07
478.399	2.28
478.753	2.25
479.107	2.25
479.461	2.23
479.814	2.13
480.168	2.06
480.521	2.34
480.875	2.2
481.228	2.13
481.582	2.12
481.935	2.2
482.289	2.29
482.642	2.22
482.995	2.2
483.348	2.21
483.701	2.17
484.055	2.31
484.408	2.28
484.761	2.1
485.114	2.16
485.466	2.06
485.819	2.07
486.172	2.03
486.525	2.05
486.878	2.09
487.23	2.15
487.583	2.14
487.936	2.21
488.288	2.2
488.641	2.27
488.993	2.17
489.345	2.09
489.698	2.1
490.05	2.13
490.402	2.14
490.754	2.16
491.107	2.23
491.459	2.18
491.811	2.24
492.163	2.23
492.515	2.27
492.866	2.25
493.218	2.24
493.57	2.21
493.922	2.2
494.274	2.27
494.625	2.34
494.977	2.31
495.328	2.27
495.68	2.33
496.031	2.41
496.383	2.24
496.734	2.48
497.086	2.41
497.437	2.43
497.788	2.53
498.139	2.33
498.49	2.47
498.842	2.14
499.193	2.26
499.544	2.34
499.894	2.4
500.245	2.44
500.596	2.32
500.947	2.38
501.298	2.29
501.648	2.48
501.999	2.51
502.35	2.36
502.7	2.43
503.051	2.28
503.401	2.4
503.752	2.56
504.102	2.49
504.452	2.48
504.803	2.44
505.153	2.39
505.503	2.47
505.853	2.48
506.203	2.36
506.553	2.45
506.903	2.25
507.253	2.39
507.603	2.41
507.953	2.55
508.303	2.55
508.652	2.37
509.002	2.54
509.352	2.61
509.701	2.43
510.051	2.36
510.4	2.54
510.75	2.41
511.099	2.57
511.449	2.37
511.798	2.36
512.147	2.37
512.496	2.32
512.846	2.46
513.195	2.5
513.544	2.42
513.893	2.57
514.242	2.54
514.591	2.66
514.939	2.48
515.288	2.47
515.637	2.56
515.986	2.48
516.334	2.62
516.683	2.51
517.032	2.63
517.38	2.6
517.729	2.6
518.077	2.41
518.426	2.7
518.774	2.61
519.122	2.49
519.47	2.5
519.819	2.37
520.167	2.5
520.515	2.55
520.863	2.54
521.211	2.55
521.559	2.69
521.907	2.52
522.255	2.53
522.602	2.58
522.95	2.55
523.298	2.66
523.645	2.65
523.993	2.63
524.341	2.67
524.688	2.63
525.036	2.65
525.383	2.68
525.73	2.81
526.078	2.65
526.425	2.58
526.772	2.68
527.119	2.62
527.466	2.66
527.814	2.66
528.161	2.62
528.508	2.68
528.854	2.64
529.201	2.58
529.548	2.61
529.895	2.63
530.242	2.52
530.588	2.55
530.935	2.58
531.282	2.58
531.628	2.57
531.975	2.66
532.321	2.69
532.667	2.69
533.014	2.7
533.36	2.77
533.706	2.75
534.052	2.71
534.399	2.62
534.745	2.65
535.091	2.74
535.437	2.7
535.783	2.72
536.129	2.76
536.474	2.69
536.82	2.81
537.166	2.79
537.512	2.78
537.857	2.8
538.203	2.75
538.549	2.76
538.894	2.78
539.239	2.87
539.585	2.84
539.93	2.82
540.276	2.96
540.621	2.98
540.966	2.91
541.311	2.79
541.656	2.82
542.001	2.83
542.346	2.99
542.691	2.9
543.036	2.81
543.381	2.72
543.726	2.84
544.071	2.92
544.415	2.91
544.76	2.87
545.105	2.92
545.449	2.91
545.794	3.06
546.138	2.92
546.483	2.96
546.827	3.02
547.171	3.01
547.516	3.09
547.86	3.02
548.204	3.03
548.548	3.06
548.892	3.02
549.236	3.07
549.58	3.03
549.924	3.09
550.268	3.19
550.612	3.19
550.956	3.4
551.3	3.17
551.643	3.36
551.987	3.19
552.33	3.19
552.674	3.27
553.017	3.17
553.361	3.1
553.704	3.35
554.048	3.11
554.391	3.23
554.734	3.21
555.077	3.27
555.42	3.24
555.764	3.18
556.107	3.35
556.45	3.08
556.793	3.25
557.135	3.36
557.478	3.63
557.821	3.38
558.164	3.29
558.507	3.33
558.849	3.41
559.192	3.54
559.534	3.26
559.877	3.52
560.219	3.38
560.562	3.7
560.904	3.58
561.246	3.5
561.589	3.6
561.931	3.54
562.273	3.42
562.615	3.6
562.957	3.53
563.299	3.36
563.641	3.55
563.983	3.71
564.325	3.38
564.667	3.36
565.008	3.38
565.35	3.68
565.692	3.49
566.033	3.55
566.375	3.87
566.716	3.79
567.058	3.42
567.399	3.6
567.741	3.38
568.082	3.54
568.423	3.6
568.764	3.69
569.105	3.63
569.447	3.68
569.788	3.67
570.129	3.81
570.47	3.72
570.811	3.87
571.151	3.82
571.492	3.96
571.833	3.91
572.174	3.85
572.514	3.87
572.855	3.86
573.195	3.86
573.536	3.89
573.876	3.77
574.217	3.82
574.557	3.9
574.898	3.92
575.238	3.87
575.578	3.67
575.918	4.03
576.258	3.91
576.598	4.03
576.938	3.87
577.278	3.98
577.618	3.82
577.958	3.93
578.298	4.09
578.638	3.85
578.977	4.12
579.317	3.99
579.657	4.1
579.996	3.97
580.336	4.14
580.675	4.03
581.014	4.27
581.354	4.1
581.693	4.31
582.032	4.33
582.372	4.13
582.711	4.12
583.05	4.05
583.389	4.31
583.728	4.11
584.067	4.45
584.406	4.47
584.745	4.52
585.083	4.36
585.422	4.31
585.761	4.46
586.1	4.7
586.438	4.56
586.777	4.72
587.115	4.45
587.454	4.54
587.792	4.47
588.13	4.45
588.469	4.38
588.807	4.4
589.145	3.95
589.483	4.61
589.821	4.65
590.159	4.55
590.497	4.88
590.835	4.89
591.173	4.71
591.511	4.81
591.849	4.47
592.187	4.73
592.524	4.57
592.862	4.72
593.2	4.69
593.537	4.72
593.875	4.72
594.212	4.4
594.55	4.76
594.887	4.9
595.224	4.87
595.561	5.04
595.899	4.87
596.236	5.03
596.573	4.91
596.91	4.37
597.247	4.84
597.584	5.08
597.921	4.82
598.258	4.44
598.594	4.97
598.931	4.73
599.268	4.95
599.604	4.93
599.941	5
600.277	4.86
600.614	4.92
600.95	5.04
601.287	5.13
601.623	5.19
601.959	4.97
602.296	5.14
602.632	5.08
602.968	5.27
603.304	5.18
603.64	5.06
603.976	5.41
604.312	4.96
604.648	4.98
604.984	5.29
605.319	5.36
605.655	5.28
605.991	5.18
606.326	5.34
606.662	5.31
606.998	5.09
607.333	5.26
607.668	5.18
608.004	5.4
608.339	5.5
608.674	5.64
609.01	5.47
609.345	5.28
609.68	5.59
610.015	5.55
610.35	5.41
610.685	5.63
611.02	5.37
611.355	5.71
611.689	5.67
612.024	5.56
612.359	5.55
612.694	5.64
613.028	5.39
613.363	5.81
613.697	5.83
614.032	5.87
614.366	5.55
614.7	5.74
615.035	6.07
615.369	5.86
615.703	5.81
616.037	5.78
616.371	5.56
616.705	5.64
617.039	5.93
617.373	5.62
617.707	5.87
618.041	5.59
618.375	5.93
618.709	6.27
619.042	5.81
619.376	6.03
619.71	6.5
620.043	6.01
620.377	6.05
620.71	6.24
621.043	6.13
621.377	6.29
621.71	6.11
622.043	5.96
622.376	5.84
622.709	6.11
623.043	6.48
623.376	6.23
623.709	6.56
624.041	6.43
624.374	6.26
624.707	6.15
625.04	6.63
625.373	6.01
625.705	6.49
626.038	6.47
626.37	6.35
626.703	6.24
627.035	6.4
627.368	6.73
627.7	6.55
628.032	6.36
628.365	6.67
628.697	6.56
629.029	6.29
629.361	6.43
629.693	6.46
630.025	6.59
630.357	6.73
630.689	6.95
631.021	6.62
631.353	6.98
631.684	6.72
632.016	6.46
632.348	6.91
632.679	7.04
633.011	7
633.342	6.99
633.674	6.85
634.005	7.02
634.336	7.11
634.668	6.91
634.999	6.97
635.33	7.25
635.661	7.36
635.992	7.14
636.323	7.19
636.654	7.29
636.985	7.11
637.316	7.22
637.647	6.97
637.977	7.33
638.308	7.24
638.639	6.71
638.969	6.94
639.3	7.18
639.63	6.74
639.961	7.29
640.291	7.04
640.622	7.72
640.952	7.09
641.282	7.53
641.612	7.13
641.943	7.15
642.273	7
642.603	7.39
642.933	7.44
643.263	7.55
643.592	7.16
643.922	7.49
644.252	7.23
644.582	7.49
644.911	7.09
645.241	7.4
645.571	7.51
645.9	7.23
646.23	7.57
646.559	8
646.888	7.76
647.218	7.29
647.547	7.76
647.876	7.64
648.205	7.82
648.534	7.69
648.863	7.47
649.192	8.01
649.521	7.89
649.85	7.12
650.179	8.1
650.508	7.86
650.837	7.74
651.165	7.64
651.494	7.87
651.822	8.02
652.151	8.02
652.479	8.22
652.808	8.04
653.136	8.46
653.465	7.42
653.793	7.52
654.121	7.7
654.449	8.02
654.777	8.06
655.105	8.2
655.433	7.88
655.761	7.79
656.089	7.91
656.417	7.95
656.745	8.16
657.073	8.22
657.4	8.71
657.728	8.24
658.056	8.45
658.383	8.55
658.711	8.22
659.038	8.54
659.365	8.25
659.693	8.55
660.02	8.62
660.347	8.47
660.674	8.63
661.001	8.68
661.329	7.91
661.656	8.22
661.982	8.58
662.309	8.49
662.636	8.34
662.963	8.6
663.29	8.56
663.616	9.1
663.943	8.18
664.27	8.72
664.596	8.9
664.923	8.74
665.249	8.85
665.576	8.91
665.902	9.84
666.228	9.32
666.554	8.99
666.881	8.62
667.207	9.28
667.533	9.07
667.859	8.66
668.185	9.23
668.511	8.58
668.837	8.3
669.162	8.59
669.488	8.42
669.814	9.49
670.139	9.69
670.465	9.71
670.791	9.32
671.116	9.56
671.442	8.89
671.767	9.36
672.092	9.43
672.418	9.52
672.743	9.56
673.068	9.52
673.393	9.28
673.718	9.37
674.043	9.2
674.368	9.23
674.693	9.85
675.018	8.63
675.343	9
675.667	9.02
675.992	9.88
676.317	10.16
676.641	9.27
676.966	10.14
677.29	9.57
677.615	9.72
677.939	9.99
678.264	10.39
678.588	9.8
678.912	10.17
679.236	10.14
679.56	9.36
679.885	10.52
680.209	10.69
680.532	9.61
680.856	10.34
681.18	9.84
681.504	9.88
681.828	10.3
682.152	10.06
682.475	10.26
682.799	9.79
683.122	10.11
683.446	9.4
683.769	10.34
684.093	9.61
684.416	10.31
684.739	10.54
685.062	10.03
685.386	10.01
685.709	9.36
686.032	10.44
686.355	9.99
686.678	9.41
687.001	10.33
687.324	9.81
687.646	10.21
687.969	9.82
688.292	10.35
688.614	10.12
688.937	11.31
689.26	10.48
689.582	10.93
689.904	10.52
690.227	11.05
690.549	10.93
690.871	11.67
691.194	10.57
691.516	9.96
691.838	10.32
692.16	10.32
692.482	9.81
692.804	10.56
693.126	11.06
693.448	10.53
693.769	11.77
694.091	10.51
694.413	10.45
694.735	10.56
695.056	10.99
695.378	10.73
695.699	9.98
696.021	10.59
696.342	10.6
696.663	10.53
696.984	11.36
697.306	10.03
697.627	10.85
697.948	11.57
698.269	10.98
698.59	11.84
698.911	11.18
699.232	11.36
699.553	11.18
699.873	11.46
700.194	11.7
700.515	11.44
700.835	11.37
701.156	11.23
701.477	11.11
701.797	10.83
702.117	10.96
702.438	11.94
702.758	11.2
703.078	11.33
703.398	10.89
703.719	10.92
704.039	10.96
704.359	12.31
704.679	11.64
704.999	11.86
705.319	10.89
705.638	11.22
705.958	11.65
706.278	11.44
706.597	11.46
706.917	10.84
707.237	11.94
707.556	12.83
707.876	11.86
708.195	12.21
708.514	11.21
708.834	11.88
709.153	11.82
709.472	12.89
709.791	12.33
710.11	11.16
710.429	11.68
710.748	12.01
711.067	11.23
711.386	12.89
711.705	11.34
712.023	11.72
712.342	11.53
712.661	11.57
712.979	12.07
713.298	11.97
713.616	12.21
713.935	12.73
714.253	10.91
714.572	12.52
714.89	12.11
715.208	13.26
715.526	13.19
715.844	12.88
716.162	12.54
716.48	12.74
716.798	11.96
717.116	13.03
717.434	12.69
717.752	10.92
718.069	12.84
718.387	12.18
718.705	12.38
719.022	11.93
719.34	12.59
719.657	12.09
719.975	12.9
720.292	13.09
720.609	13.45
720.927	13.33
721.244	13.31
721.561	12.47
721.878	12.6
722.195	11.88
722.512	13.42
722.829	11.43
723.146	12.09
723.463	14.51
723.779	12.16
724.096	13.53
724.413	12.16
724.729	13.79
725.046	11.8
725.362	12.7
725.679	12.28
725.995	13.3
726.311	12.38
726.628	13.22
726.944	14.22
727.26	14.95
727.576	14.39
727.892	13.71
728.208	13.11
728.524	13.89
728.84	12.19
729.156	13.64
729.472	10.78
729.787	13.8
730.103	13.49
730.419	14.16
730.734	13.3
731.05	13.82
731.365	12.83
731.681	13.09
731.996	13.58
732.311	13.48
732.626	14.12
732.942	13.23
733.257	15.2
733.572	13.39
733.887	13.75
734.202	14.43
734.517	13.33
734.832	14.21
735.146	13.99
735.461	14.33
735.776	12.36
736.091	13.8
736.405	12.87
736.72	14.8
737.034	14.06
737.349	16.27
737.663	14.7
737.977	12.98
738.292	14.69
738.606	15.66
738.92	15.43
739.234	15.63
739.548	13.74
739.862	12.37
740.176	13.78
740.49	14.55
740.804	14.87
741.117	13.71
741.431	14.29
741.745	13.41
742.058	14.34
742.372	15.33
742.685	14.59
742.999	13.8
743.312	15.59
743.626	14.73
743.939	15.97
744.252	14.09
744.565	13.54
744.878	14.63
745.191	14.16
745.505	14.14
745.817	14.19
746.13	16.65
746.443	15.24
746.756	16.27
747.069	13.94
747.381	14.76
747.694	12.16
748.007	16.21
748.319	14.19
748.632	15.18
748.944	14.72
749.256	15.6
749.569	15.6
749.881	16.88
750.193	16.41
750.505	16.63
750.817	16.31
751.129	15.72
751.441	15.8
751.753	15.31
752.065	15.55
752.377	15.41
752.689	16.04
753	15.71
753.312	15.26
753.624	16.91
753.935	16.02
754.247	15.04
754.558	14.74
754.869	13.78
755.181	15.99
755.492	16.36
755.803	13.5
756.114	15.61
756.425	15.07
756.736	14.46
757.047	18.03
757.358	17.85
757.669	15.91
757.98	16
758.291	15.76
758.601	15.57
758.912	13.81
759.223	16.1
759.533	15.25
759.844	14.2
760.154	14.25
760.464	16.78
760.775	16.25
761.085	15.84
761.395	18.5
761.705	17.98
762.016	16.8
762.326	17.54
762.636	17.61
762.945	14.29
763.255	15.18
763.565	16.61
763.875	17.19
764.185	15.65
764.494	15.79
764.804	16.63
765.113	16.68
765.423	15.33
765.732	15.5
766.042	16.58
766.351	14.99
766.66	15.77
766.97	16.9
767.279	15.3
767.588	15.87
767.897	17.37
768.206	16.53
768.515	18.34
768.824	16.42
769.133	15.42
769.441	16.54
769.75	14.46
770.059	16.71
770.367	16.37
770.676	18.41
770.984	17.74
771.293	16.1
771.601	19.24
771.91	15.79
772.218	17.9
772.526	17.71
772.834	17.15
773.142	13.05
773.45	16.24
773.758	17
774.066	17.1
774.374	13.69
774.682	18.12
774.99	18.41
775.298	17.84
775.605	14.15
775.913	17.47
776.22	17.37
776.528	15.29
776.835	19.65
777.143	17.73
777.45	17.18
777.757	17.51
778.065	15.9
778.372	19.44
778.679	14.68
778.986	16.19
779.293	17.15
779.6	18.25
779.907	16.32
780.214	18.56
780.52	18.06
780.827	17.77
781.134	17.17
781.44	13.6
781.747	17.61
782.053	15.53
782.36	18.32
782.666	21.91
782.973	17.88
783.279	18.85
783.585	16.77
783.891	20.5
784.197	19.33
784.503	19.32
784.809	17.94
785.115	17.86
785.421	20
785.727	16.44
786.033	16.05
786.339	18.23
786.644	14.77
786.95	14.79
787.255	19.16
787.561	20.69
787.866	15.99
788.172	19.18
788.477	14.44
788.782	21
789.088	20.59
789.393	17.23
789.698	19.14
790.003	18.32
790.308	16.35
790.613	16.89
790.918	19.47
791.223	19.51
791.527	16.06
791.832	19.76
792.137	13.17
792.441	22.07
792.746	19.36
793.05	14.98
793.355	19.15
793.659	18.08
793.963	18.28
794.268	18.03
794.572	17.26
794.876	21.06
795.18	16.81
795.484	16.64
795.788	21.55
796.092	16.26
796.396	16.54
796.7	17.75
797.004	19.69
797.307	18.17
797.611	21.11
797.915	20.13
798.218	18.24
798.522	19.73
798.825	21.33
799.128	19.68
799.432	18.52
799.735	18.41
800.038	21.81
800.341	17.9
800.644	20.01
800.947	17.63
801.25	17.68
801.553	18.87
801.856	17.21
802.159	16.76
802.462	17.99
802.764	19.2
803.067	21.5
803.37	19.66
803.672	21.46
803.975	17.08
804.277	16.62
804.579	19.66
804.882	21.64
805.184	22.05
805.486	20.9
805.788	26.76
806.09	25.73
806.392	19.08
806.694	24.48
806.996	20.27
807.298	23.36
807.6	20.02
807.902	21.76
808.203	18.8
808.505	22.15
808.807	12.55
809.108	19.56
809.409	17.54
809.711	15.82
810.012	17.71
810.313	22.33
810.615	20.66
810.916	22.3
811.217	22.56
811.518	19.05
811.819	22
812.12	23.89
812.421	20.38
812.722	21.69
813.023	18.06
813.323	14.42
813.624	20.57
813.925	28.71
814.225	19.25
814.526	24.03
814.826	25.95
815.126	12.89
815.427	19.82
815.727	21.94
816.027	16.33
816.327	18.43
816.627	16.46
816.927	18.51
817.227	16.98
817.527	19.76
817.827	21.14
818.127	24.68
818.427	23.79
818.727	19.56
819.026	17.53
819.326	26.25
819.625	23.45
819.925	14.97
820.224	22.2
820.524	15.16
820.823	23.88
821.122	21.98
821.421	25.43
821.72	17.77
822.019	21.44
822.318	22.5
822.617	16.7
822.916	20.68
823.215	19.83
823.514	20.09
823.813	20.04
824.111	21.3
824.41	22.39
824.709	20.84
825.007	19.94
825.306	19.89
825.604	20.89
825.902	21.25
826.201	20.4
826.499	22.02
826.797	19.5
827.095	19.78
827.393	20.28
827.691	21.95
827.989	17.89
828.287	22.24
828.585	20.2
828.882	22.15
829.18	22.4
829.478	22.29
829.775	21.83
830.073	22.05
830.37	21.55
830.668	21.38
830.965	21.78
831.263	19.33
831.56	22.55
831.857	21.33
832.154	22.71
832.451	21.02
832.748	24.27
833.045	19.57
833.342	26.1
833.639	18
833.936	17.66
834.232	25.24
834.529	17.95
834.826	13.59
835.122	19.08
835.419	14.09
835.715	21.75
836.012	24.09
836.308	18.82
836.604	19.62
836.901	19.42
837.197	19.51
837.493	21.97
837.789	19.01
838.085	20.75
838.381	21.98
838.677	24.5
838.972	24.8
839.268	18.88
839.564	21.78
839.86	21.61
840.155	24.74
840.451	21.32
840.746	26.54
841.042	27.39
841.337	16.52
841.632	30.36
841.928	31.93
842.223	17.79
842.518	28.14
842.813	29.61
843.108	16.09
843.403	25.6
843.698	21.96
843.993	25.7
844.287	14.08
844.582	24.77
844.877	23.43
845.171	25.15
845.466	20.69
845.761	23.5
846.055	25.55
846.349	30.43
846.644	24.47
846.938	24.89
847.232	18.64
847.526	26.37
847.82	33.71
848.114	10.75
848.408	26.9
848.702	33.72
848.996	6.77
849.29	31.08
849.584	25.5
849.877	17.89
850.171	45.58
850.465	20.11
850.758	43.65
851.052	23.59
851.345	35.71
851.638	40.28
851.932	9.75
852.225	10.83
852.518	19.24
852.811	26.7
853.104	1.26
853.397	31.27
853.69	38.45
853.983	6.17
854.276	23.13
854.569	30.95
854.861	26.87
855.154	18.54
855.447	3.44
855.739	30.23
856.032	23.44
856.324	19.71
856.616	24.16
856.909	19.41
857.201	41.34
857.493	23.32
857.785	10.68
858.077	36.25
858.369	35.82
858.661	33.21
858.953	26.37
859.245	6.89
859.537	32.58
859.829	21.84
860.12	56.7
860.412	3.52
860.703	1.42
860.995	5.17
861.286	1.46
861.578	20.55
861.869	41.24
862.16	33.15
862.452	30.11
862.743	17.57
863.034	4.08
863.325	0.67
863.616	41.71
863.907	10.95
864.198	19.59
864.488	28.11
864.779	12.38
865.07	15.3
865.36	27.85
865.651	56.48
865.941	36.22
866.232	36.31
866.522	10.36
866.813	15.42
867.103	29.66
867.393	35.73
867.683	38.38
867.973	12.88
868.263	9.81
868.553	36.73
868.843	35.22
869.133	33.49
869.423	20.25
869.713	44.35
870.002	49.5
870.292	18.16
870.582	32.16
870.871	15.78
871.161	30.6
871.45	27
871.739	-6.53
872.029	36.83
872.318	31.46
872.607	63.65
872.896	11.72
873.185	61.68
873.474	16.62
873.763	17.19
874.052	41.65
874.341	33.32
874.63	26.37
874.918	28.89
875.207	48.19
875.496	23.7
875.784	-36.12
876.073	41.32
876.361	18.54
876.649	59.58
876.938	19.86
877.226	20.22
877.514	26.83
877.802	-5.77
878.09	32.82
878.378	28.19
878.666	32.14
878.954	21.39
879.242	6.24
879.53	41.83
879.817	43.62
880.105	25.29
880.392	57.02
880.68	21.89
880.967	2
881.255	34.33
881.542	40.22
881.83	-32.85
882.117	37.95
882.404	-2.96
882.691	25.35
882.978	17.77
883.265	30.56
883.552	20.78
883.839	16.99
884.126	21.16
884.413	36.58
884.699	38.76
884.986	27.93
885.273	27.32
885.559	27.32
885.846	27.32
