Data from 0141_chest_Reflection__4__04.txt Node

Date: Fri Sep 22 20:23:02 CDT 2023
User: ToomeyLab
Spectrometer: FLMS14357
Trigger mode: 0
Integration Time (sec): 1.000000E-2
Scans to average: 100
Electric dark correction enabled: true
Nonlinearity correction enabled: false
Boxcar width: 0
XAxis mode: Wavelengths
Number of Pixels in Spectrum: 2048
>>>>>Begin Spectral Data<<<<<
189.047	82.17
189.435	82.17
189.823	82.17
190.211	-46.96
190.599	156.99
190.987	-140.67
191.375	72.93
191.763	-46.91
192.151	33.15
192.538	15.05
192.926	183.04
193.314	-49.5
193.702	-702.84
194.089	261.29
194.477	28.78
194.864	55.51
195.252	-35.18
195.639	77.38
196.027	138.34
196.414	35.1
196.801	623.04
197.189	183.85
197.576	98.3
197.963	51.48
198.351	19.79
198.738	10.15
199.125	71.66
199.512	29.4
199.899	55.89
200.286	39.76
200.673	93.87
201.06	33.81
201.447	27.03
201.833	-53.59
202.22	50.25
202.607	3.58
202.994	47.77
203.38	9.71
203.767	33.35
204.154	38.75
204.54	36.24
204.927	-23.93
205.313	-8.68
205.699	68.03
206.086	33.78
206.472	32.24
206.858	37.84
207.245	-9.58
207.631	62.53
208.017	31.85
208.403	14.54
208.789	48.23
209.175	28.83
209.561	30.63
209.947	24.81
210.333	19.33
210.719	5.55
211.105	41.3
211.491	27.73
211.876	40.68
212.262	29.51
212.648	18.77
213.034	13.77
213.419	40.95
213.805	23.36
214.19	5.01
214.576	41.21
214.961	19
215.346	20.24
215.732	23.94
216.117	34.13
216.502	35.5
216.888	21.15
217.273	21.45
217.658	6
218.043	6.79
218.428	28.36
218.813	0.2
219.198	-14.83
219.583	12.26
219.968	-1.14
220.353	35.11
220.738	4.11
221.122	-5.01
221.507	15.92
221.892	-11.92
222.276	5.28
222.661	-10.04
223.046	20.52
223.43	14.5
223.815	8.05
224.199	4.52
224.583	8.74
224.968	17.07
225.352	11.89
225.736	16.18
226.121	4.42
226.505	14.09
226.889	12.16
227.273	3.79
227.657	-0.07
228.041	5.23
228.425	6.56
228.809	1.65
229.193	4.5
229.577	6.9
229.961	4.91
230.344	4.49
230.728	2.03
231.112	4.24
231.495	3.27
231.879	3.77
232.263	3.17
232.646	3.37
233.03	2.02
233.413	4.01
233.797	3.01
234.18	3.39
234.563	5.74
234.946	3.63
235.33	2.67
235.713	2.94
236.096	2.76
236.479	3.71
236.862	4.64
237.245	3.12
237.628	4.79
238.011	3.13
238.394	3.52
238.777	5.08
239.16	4.52
239.543	4.91
239.925	5.36
240.308	5.43
240.691	2.35
241.073	6.11
241.456	3.3
241.838	1.86
242.221	3.38
242.603	4.25
242.986	3.27
243.368	2.49
243.75	3.46
244.133	3.7
244.515	2.87
244.897	2.59
245.279	2.93
245.661	3.08
246.043	3.08
246.425	3.29
246.807	4.33
247.189	1.77
247.571	3.63
247.953	4.05
248.335	3.51
248.717	2.98
249.098	2.88
249.48	2.83
249.862	2.8
250.243	3.07
250.625	2.73
251.006	2.68
251.388	3.24
251.769	3.34
252.151	2.5
252.532	2.26
252.913	2.94
253.295	3.43
253.676	2.56
254.057	3.52
254.438	3.54
254.819	2.65
255.2	3.32
255.581	3.01
255.962	4.03
256.343	3.26
256.724	3.12
257.105	3.4
257.486	2.85
257.867	2.73
258.247	3.93
258.628	3.62
259.009	2.84
259.389	2.73
259.77	3.58
260.15	3.72
260.531	1.86
260.911	2.67
261.292	2.64
261.672	2.53
262.052	2.74
262.432	2.57
262.813	2.75
263.193	2.69
263.573	3.26
263.953	2.89
264.333	2.59
264.713	2.8
265.093	3.04
265.473	2.14
265.853	2.12
266.233	3.06
266.612	2.98
266.992	2.7
267.372	2.45
267.752	2.88
268.131	3.22
268.511	2.07
268.89	3.07
269.27	2.69
269.649	2.79
270.029	2.61
270.408	3
270.787	2.8
271.167	2.81
271.546	2.69
271.925	2.67
272.304	2.16
272.683	2.94
273.062	3.1
273.441	2.77
273.82	3.12
274.199	2.72
274.578	2.95
274.957	2.62
275.336	2.21
275.715	2.27
276.093	2.21
276.472	2.48
276.851	2.75
277.229	2.42
277.608	3.01
277.986	2.52
278.365	2.92
278.743	2.59
279.122	2.69
279.5	2.84
279.878	2.78
280.257	3.61
280.635	2.42
281.013	2.57
281.391	2.12
281.769	2.76
282.147	3.11
282.525	2.5
282.903	2.7
283.281	2.48
283.659	2.65
284.037	2.33
284.415	2.6
284.792	2.36
285.17	2.53
285.548	2.67
285.925	2.5
286.303	3.02
286.68	2.33
287.058	2.36
287.435	2.64
287.813	2.29
288.19	2.04
288.567	2.45
288.945	2.48
289.322	2.45
289.699	2.87
290.076	2.79
290.453	2.14
290.83	1.75
291.207	2.04
291.584	1.82
291.961	2.66
292.338	2.86
292.715	2.79
293.092	2.75
293.469	2.66
293.845	2.32
294.222	2.32
294.599	2.61
294.975	3.19
295.352	2.7
295.728	2.42
296.105	2.81
296.481	2.79
296.858	2.81
297.234	2.72
297.61	2.68
297.986	2.73
298.363	2.61
298.739	2.75
299.115	2.86
299.491	2.72
299.867	2.79
300.243	2.3
300.619	2.48
300.995	2.21
301.371	2.89
301.746	2.97
302.122	2.34
302.498	2.05
302.874	2.14
303.249	2.71
303.625	2.68
304	2.79
304.376	2.61
304.751	2.61
305.127	2.89
305.502	2.9
305.878	2.5
306.253	2.73
306.628	2.83
307.003	2.83
307.378	2.87
307.754	2.29
308.129	2.31
308.504	2.82
308.879	3.28
309.254	2.99
309.629	2.59
310.003	2.99
310.378	3.24
310.753	2.76
311.128	2.59
311.502	2.6
311.877	2.41
312.252	2.64
312.626	2.36
313.001	2.95
313.375	2.95
313.75	2.94
314.124	2.91
314.498	2.53
314.873	2.55
315.247	3.24
315.621	3.22
315.995	2.74
316.369	2.78
316.743	2.49
317.117	3.01
317.491	2.75
317.865	2.55
318.239	2.56
318.613	3.14
318.987	3.27
319.361	2.78
319.734	2.54
320.108	3.2
320.482	2.92
320.855	2.38
321.229	3.64
321.602	2.97
321.976	2.67
322.349	2.69
322.723	2.69
323.096	2.77
323.469	3.03
323.843	2.8
324.216	3.22
324.589	2.82
324.962	2.13
325.335	2.75
325.708	2.8
326.081	3.16
326.454	2.59
326.827	2.89
327.2	2.62
327.573	2.82
327.945	3.11
328.318	2.52
328.691	3.21
329.063	2.87
329.436	2.92
329.809	2.91
330.181	2.89
330.553	2.84
330.926	2.9
331.298	2.89
331.671	2.85
332.043	2.35
332.415	2.58
332.787	2.92
333.159	3.02
333.532	2.33
333.904	2.6
334.276	2.43
334.648	2.42
335.02	2.9
335.391	2.81
335.763	3.35
336.135	2.72
336.507	3.3
336.879	2.11
337.25	2.59
337.622	2.85
337.993	2.78
338.365	3.33
338.736	3.18
339.108	2.84
339.479	2.64
339.851	2.6
340.222	2.87
340.593	2.64
340.964	2.49
341.336	2.7
341.707	2.55
342.078	2.64
342.449	2.67
342.82	2.55
343.191	2.5
343.562	3
343.933	2.84
344.303	2.6
344.674	2.9
345.045	2.83
345.416	2.95
345.786	2.45
346.157	2.84
346.527	2.77
346.898	2.67
347.268	2.75
347.639	2.73
348.009	2.78
348.38	2.76
348.75	2.7
349.12	2.71
349.49	3.32
349.861	2.67
350.231	3.06
350.601	2.74
350.971	2.84
351.341	2.52
351.711	2.89
352.081	2.8
352.45	2.87
352.82	3.1
353.19	2.95
353.56	2.73
353.929	3.22
354.299	2.67
354.669	2.65
355.038	2.83
355.408	2.82
355.777	2.84
356.147	2.68
356.516	2.83
356.885	2.84
357.254	3.15
357.624	2.41
357.993	3.09
358.362	2.72
358.731	2.85
359.1	2.69
359.469	2.61
359.838	2.73
360.207	2.55
360.576	2.94
360.945	2.71
361.314	2.91
361.682	3.07
362.051	2.77
362.42	2.91
362.788	2.57
363.157	2.84
363.525	2.73
363.894	2.7
364.262	2.59
364.631	2.59
364.999	2.48
365.367	2.92
365.735	2.88
366.104	2.94
366.472	3.21
366.84	2.93
367.208	3.16
367.576	2.79
367.944	2.63
368.312	2.59
368.68	2.7
369.048	2.98
369.416	3.08
369.783	2.8
370.151	2.57
370.519	2.73
370.886	3.25
371.254	3.07
371.621	2.39
371.989	2.74
372.356	2.57
372.724	2.64
373.091	2.74
373.458	2.8
373.826	3.01
374.193	2.86
374.56	3.05
374.927	2.95
375.294	3.11
375.661	2.86
376.028	2.87
376.395	2.99
376.762	2.82
377.129	2.79
377.496	3.02
377.863	3.12
378.229	2.74
378.596	2.75
378.963	3.25
379.329	2.72
379.696	2.92
380.062	2.51
380.429	2.89
380.795	2.62
381.161	2.6
381.528	2.82
381.894	2.45
382.26	2.59
382.626	2.75
382.993	2.91
383.359	2.83
383.725	2.6
384.091	3
384.457	2.85
384.823	3.2
385.188	3.06
385.554	3.04
385.92	3.08
386.286	2.78
386.651	3.04
387.017	2.68
387.383	2.82
387.748	2.83
388.114	2.94
388.479	3.03
388.845	2.98
389.21	2.68
389.575	3.13
389.94	2.91
390.306	3.02
390.671	2.98
391.036	2.56
391.401	2.64
391.766	2.69
392.131	3
392.496	2.86
392.861	2.9
393.226	3.16
393.591	3.03
393.956	2.8
394.32	2.76
394.685	2.86
395.05	3.07
395.414	3.06
395.779	2.99
396.143	2.74
396.508	2.78
396.872	2.68
397.236	2.96
397.601	2.88
397.965	3.01
398.329	2.85
398.694	2.77
399.058	2.8
399.422	2.73
399.786	2.99
400.15	3.06
400.514	2.82
400.878	2.72
401.242	2.81
401.605	2.67
401.969	2.63
402.333	2.86
402.697	2.6
403.06	2.85
403.424	2.87
403.787	3.04
404.151	2.92
404.514	2.88
404.878	3.08
405.241	2.93
405.604	2.97
405.968	2.82
406.331	2.87
406.694	2.91
407.057	2.62
407.42	2.88
407.783	2.81
408.146	2.74
408.509	2.75
408.872	2.84
409.235	2.84
409.598	2.91
409.961	3.04
410.323	2.91
410.686	3.05
411.049	2.99
411.411	3.13
411.774	2.68
412.136	2.9
412.499	2.93
412.861	2.9
413.223	2.94
413.586	2.9
413.948	2.97
414.31	2.75
414.672	2.98
415.035	2.81
415.397	3.23
415.759	3.16
416.121	2.92
416.483	2.97
416.845	2.88
417.206	2.75
417.568	2.78
417.93	2.85
418.292	3.02
418.653	2.75
419.015	2.86
419.377	2.87
419.738	2.96
420.1	2.81
420.461	2.9
420.822	2.9
421.184	2.91
421.545	2.8
421.906	2.89
422.267	2.68
422.629	2.85
422.99	2.79
423.351	2.79
423.712	2.76
424.073	2.77
424.434	2.87
424.795	2.77
425.155	2.88
425.516	2.83
425.877	2.82
426.238	2.7
426.598	2.74
426.959	2.84
427.32	2.85
427.68	2.8
428.041	2.76
428.401	2.88
428.761	3.02
429.122	2.8
429.482	2.84
429.842	2.86
430.202	2.9
430.563	3.09
430.923	2.98
431.283	3.11
431.643	2.9
432.003	2.92
432.363	2.89
432.722	3.04
433.082	3.02
433.442	2.84
433.802	2.96
434.161	2.93
434.521	2.93
434.881	2.86
435.24	2.82
435.6	2.76
435.959	2.78
436.319	2.85
436.678	3.04
437.037	2.99
437.396	2.82
437.756	2.82
438.115	3.07
438.474	2.91
438.833	2.97
439.192	2.93
439.551	2.94
439.91	2.99
440.269	2.9
440.628	2.68
440.987	2.9
441.345	3.08
441.704	3.02
442.063	2.76
442.421	2.84
442.78	2.8
443.138	2.85
443.497	2.89
443.855	2.82
444.214	2.9
444.572	2.93
444.93	2.89
445.288	2.77
445.647	3.02
446.005	2.81
446.363	2.94
446.721	2.82
447.079	2.98
447.437	2.87
447.795	2.92
448.153	2.76
448.51	2.84
448.868	2.73
449.226	2.85
449.584	2.83
449.941	2.87
450.299	2.97
450.656	2.94
451.014	2.92
451.371	2.93
451.729	2.95
452.086	2.96
452.443	3
452.801	3.02
453.158	2.98
453.515	3.04
453.872	2.94
454.229	3.01
454.586	2.88
454.943	2.82
455.3	2.9
455.657	2.84
456.014	2.97
456.371	2.92
456.727	3.18
457.084	2.96
457.441	2.87
457.797	2.95
458.154	3.06
458.51	2.92
458.867	2.91
459.223	3.09
459.58	3.02
459.936	2.93
460.292	2.98
460.648	3.27
461.005	3.03
461.361	2.96
461.717	2.69
462.073	2.81
462.429	2.74
462.785	2.87
463.141	2.9
463.496	2.97
463.852	2.99
464.208	2.89
464.564	3.05
464.919	2.94
465.275	3.21
465.631	3.03
465.986	3.01
466.342	3.09
466.697	3.1
467.052	2.97
467.408	3.12
467.763	2.99
468.118	3.04
468.473	2.95
468.829	2.93
469.184	3.07
469.539	3.02
469.894	3.13
470.249	3.1
470.603	3.06
470.958	3
471.313	2.95
471.668	3.09
472.023	3.03
472.377	3
472.732	3.03
473.086	3.15
473.441	2.78
473.795	3.18
474.15	3.01
474.504	2.96
474.859	3.17
475.213	2.79
475.567	3.01
475.921	2.96
476.275	3.12
476.63	2.92
476.984	2.88
477.338	3.19
477.692	2.96
478.045	3.23
478.399	3.25
478.753	3.03
479.107	2.98
479.461	3.04
479.814	3.06
480.168	3.05
480.521	3.12
480.875	3.11
481.228	3.05
481.582	2.96
481.935	3.01
482.289	2.98
482.642	2.93
482.995	2.98
483.348	3.12
483.701	2.99
484.055	2.94
484.408	3.08
484.761	3.01
485.114	2.9
485.466	2.86
485.819	2.83
486.172	2.78
486.525	2.82
486.878	2.82
487.23	2.88
487.583	2.91
487.936	2.98
488.288	2.96
488.641	2.91
488.993	2.93
489.345	2.88
489.698	2.85
490.05	2.9
490.402	2.94
490.754	2.87
491.107	2.93
491.459	2.98
491.811	2.99
492.163	3.06
492.515	3.06
492.866	3.05
493.218	3
493.57	2.92
493.922	2.86
494.274	2.89
494.625	2.97
494.977	3.03
495.328	3.08
495.68	3.13
496.031	3.05
496.383	3.06
496.734	3.11
497.086	3.13
497.437	3.19
497.788	3.09
498.139	3.13
498.49	3.24
498.842	2.95
499.193	3.02
499.544	3.14
499.894	3.08
500.245	3.1
500.596	3.1
500.947	3.13
501.298	3.16
501.648	3.1
501.999	3.19
502.35	3.15
502.7	3.18
503.051	3.1
503.401	3.17
503.752	3.13
504.102	3.14
504.452	3.19
504.803	3.1
505.153	3.17
505.503	3.11
505.853	3.27
506.203	3.11
506.553	3.21
506.903	3.13
507.253	3.1
507.603	3.09
507.953	3.19
508.303	3.24
508.652	3.36
509.002	3.24
509.352	3.16
509.701	3.31
510.051	3.18
510.4	3.16
510.75	3.16
511.099	3.04
511.449	3.18
511.798	3.19
512.147	3.2
512.496	3.27
512.846	3.16
513.195	3.27
513.544	3.21
513.893	3.35
514.242	3.13
514.591	3.21
514.939	3.34
515.288	3.11
515.637	3.18
515.986	3.11
516.334	3.28
516.683	3.28
517.032	3.31
517.38	3.35
517.729	3.32
518.077	3.31
518.426	3.37
518.774	3.38
519.122	3.31
519.47	3.31
519.819	3.37
520.167	3.38
520.515	3.31
520.863	3.17
521.211	3.22
521.559	3.27
521.907	3.24
522.255	3.31
522.602	3.3
522.95	3.28
523.298	3.28
523.645	3.38
523.993	3.33
524.341	3.25
524.688	3.44
525.036	3.32
525.383	3.3
525.73	3.46
526.078	3.33
526.425	3.33
526.772	3.34
527.119	3.22
527.466	3.22
527.814	3.24
528.161	3.29
528.508	3.31
528.854	3.37
529.201	3.43
529.548	3.36
529.895	3.24
530.242	3.23
530.588	3.18
530.935	3.13
531.282	3.2
531.628	3.27
531.975	3.28
532.321	3.3
532.667	3.36
533.014	3.41
533.36	3.43
533.706	3.43
534.052	3.48
534.399	3.36
534.745	3.37
535.091	3.29
535.437	3.31
535.783	3.28
536.129	3.33
536.474	3.42
536.82	3.36
537.166	3.49
537.512	3.5
537.857	3.49
538.203	3.55
538.549	3.47
538.894	3.47
539.239	3.49
539.585	3.4
539.93	3.53
540.276	3.52
540.621	3.54
540.966	3.56
541.311	3.67
541.656	3.5
542.001	3.61
542.346	3.61
542.691	3.61
543.036	3.44
543.381	3.44
543.726	3.43
544.071	3.44
544.415	3.48
544.76	3.49
545.105	3.45
545.449	3.54
545.794	3.6
546.138	3.63
546.483	3.57
546.827	3.62
547.171	3.58
547.516	3.76
547.86	3.77
548.204	3.8
548.548	3.71
548.892	3.83
549.236	3.7
549.58	3.66
549.924	3.82
550.268	3.89
550.612	3.75
550.956	3.93
551.3	3.93
551.643	3.88
551.987	3.84
552.33	3.94
552.674	3.92
553.017	3.77
553.361	3.88
553.704	4.04
554.048	3.94
554.391	3.95
554.734	3.97
555.077	3.9
555.42	3.91
555.764	3.87
556.107	3.98
556.45	3.91
556.793	3.89
557.135	4.15
557.478	3.99
557.821	3.98
558.164	4.04
558.507	4.12
558.849	3.89
559.192	4.05
559.534	4.05
559.877	4
560.219	4.06
560.562	4.16
560.904	4.05
561.246	4.26
561.589	4.21
561.931	4.13
562.273	4.05
562.615	3.98
562.957	4.11
563.299	4.15
563.641	4.19
563.983	4.18
564.325	4.39
564.667	4.27
565.008	4.17
565.35	4.34
565.692	4.17
566.033	4.3
566.375	4.25
566.716	4.32
567.058	4.25
567.399	4.28
567.741	4.49
568.082	4.17
568.423	4.34
568.764	4.41
569.105	4.3
569.447	4.41
569.788	4.26
570.129	4.44
570.47	4.49
570.811	4.38
571.151	4.57
571.492	4.28
571.833	4.39
572.174	4.41
572.514	4.37
572.855	4.47
573.195	4.3
573.536	4.49
573.876	4.43
574.217	4.35
574.557	4.5
574.898	4.57
575.238	4.53
575.578	4.56
575.918	4.44
576.258	4.58
576.598	4.53
576.938	4.49
577.278	4.61
577.618	4.52
577.958	4.79
578.298	4.77
578.638	4.53
578.977	4.65
579.317	4.78
579.657	4.73
579.996	4.8
580.336	4.87
580.675	4.81
581.014	4.63
581.354	4.71
581.693	4.87
582.032	4.94
582.372	4.9
582.711	4.83
583.05	4.67
583.389	4.86
583.728	4.71
584.067	5.24
584.406	4.92
584.745	4.87
585.083	5.06
585.422	5.13
585.761	4.87
586.1	5.2
586.438	4.94
586.777	5.23
587.115	5.15
587.454	5
587.792	5.22
588.13	5.14
588.469	5.21
588.807	5.25
589.145	5.19
589.483	5.03
589.821	5.05
590.159	5.24
590.497	5.24
590.835	5.38
591.173	5.12
591.511	5.09
591.849	5.25
592.187	5.19
592.524	5.36
592.862	5.24
593.2	5.39
593.537	5.15
593.875	5.22
594.212	5.59
594.55	5.59
594.887	5.36
595.224	5.39
595.561	5.54
595.899	5.75
596.236	5.58
596.573	5.58
596.91	5.54
597.247	5.45
597.584	5.7
597.921	5.58
598.258	5.61
598.594	5.53
598.931	5.49
599.268	5.55
599.604	5.67
599.941	5.65
600.277	5.46
600.614	5.73
600.95	5.69
601.287	5.71
601.623	5.71
601.959	5.95
602.296	5.69
602.632	5.59
602.968	5.68
603.304	5.92
603.64	5.69
603.976	5.94
604.312	5.93
604.648	5.96
604.984	6.12
605.319	5.97
605.655	5.69
605.991	5.86
606.326	6.02
606.662	5.83
606.998	5.82
607.333	5.98
607.668	6.02
608.004	6.07
608.339	6.01
608.674	6.14
609.01	6.19
609.345	6.05
609.68	6.32
610.015	6.05
610.35	6.21
610.685	6.34
611.02	6.14
611.355	6.2
611.689	6.18
612.024	6
612.359	6.19
612.694	6.19
613.028	6.27
613.363	6.05
613.697	6.25
614.032	6.13
614.366	6.45
614.7	6.46
615.035	6.42
615.369	6.16
615.703	6.44
616.037	6.32
616.371	6.74
616.705	6.86
617.039	6.44
617.373	6.36
617.707	6.39
618.041	6.72
618.375	6.5
618.709	6.73
619.042	7.14
619.376	6.7
619.71	6.59
620.043	6.31
620.377	6.4
620.71	6.74
621.043	6.97
621.377	6.7
621.71	6.76
622.043	7.01
622.376	7.23
622.709	6.85
623.043	6.66
623.376	7.04
623.709	7.01
624.041	6.95
624.374	6.97
624.707	7.33
625.04	7.3
625.373	6.83
625.705	6.8
626.038	6.98
626.37	7.16
626.703	7.24
627.035	6.89
627.368	7
627.7	7.32
628.032	7.24
628.365	7.25
628.697	6.93
629.029	7.35
629.361	7.21
629.693	7.24
630.025	7.21
630.357	7.11
630.689	7.51
631.021	7.15
631.353	7.27
631.684	7.3
632.016	7.39
632.348	7.23
632.679	7.07
633.011	7.37
633.342	7.58
633.674	7.67
634.005	7.21
634.336	7.67
634.668	7.68
634.999	7.98
635.33	7.69
635.661	7.56
635.992	7.24
636.323	7.36
636.654	7.32
636.985	7.85
637.316	7.61
637.647	7.78
637.977	7.34
638.308	7.83
638.639	7.77
638.969	7.96
639.3	7.88
639.63	8.13
639.961	7.87
640.291	7.74
640.622	8.08
640.952	7.76
641.282	8.12
641.612	7.97
641.943	8.25
642.273	8.13
642.603	7.74
642.933	7.73
643.263	7.52
643.592	7.96
643.922	8.05
644.252	7.87
644.582	8.49
644.911	7.86
645.241	8.45
645.571	7.97
645.9	8.33
646.23	8.42
646.559	8.38
646.888	8.08
647.218	8.55
647.547	8.04
647.876	8.17
648.205	7.85
648.534	8.95
648.863	8.42
649.192	7.9
649.521	8.41
649.85	8.78
650.179	8.27
650.508	8.1
650.837	8.76
651.165	8.54
651.494	8.52
651.822	8.3
652.151	8.51
652.479	8.62
652.808	8.7
653.136	8.76
653.465	8.48
653.793	8.47
654.121	8.85
654.449	8.14
654.777	8.73
655.105	8.87
655.433	8.84
655.761	9.57
656.089	9.02
656.417	8.8
656.745	9.07
657.073	9.2
657.4	9.14
657.728	8.93
658.056	9.19
658.383	9.01
658.711	8.95
659.038	8.5
659.365	8.91
659.693	8.74
660.02	9.15
660.347	9.04
660.674	9.05
661.001	8.7
661.329	9.08
661.656	9.09
661.982	9.08
662.309	9.55
662.636	9.23
662.963	9.47
663.29	9.3
663.616	9.44
663.943	9.73
664.27	9.58
664.596	9.08
664.923	9.1
665.249	9.63
665.576	9.61
665.902	9.78
666.228	9.06
666.554	9.11
666.881	10.21
667.207	9.79
667.533	9.4
667.859	9.72
668.185	9.83
668.511	9.77
668.837	9.15
669.162	9.84
669.488	9.78
669.814	9.84
670.139	9.51
670.465	9.85
670.791	9.69
671.116	9.41
671.442	10.15
671.767	9.21
672.092	10.11
672.418	10.68
672.743	10.06
673.068	10.14
673.393	9.66
673.718	10.25
674.043	10.07
674.368	9.79
674.693	9.62
675.018	9.82
675.343	9.89
675.667	10.02
675.992	9.76
676.317	10.41
676.641	10.28
676.966	9.86
677.29	9.42
677.615	10.37
677.939	10.31
678.264	10.57
678.588	11.16
678.912	10.37
679.236	10.23
679.56	9.99
679.885	10.47
680.209	10.88
680.532	10.24
680.856	10.33
681.18	10.72
681.504	10.33
681.828	10.83
682.152	10.09
682.475	11.3
682.799	10.67
683.122	10.76
683.446	10.53
683.769	10.83
684.093	10.58
684.416	10.61
684.739	10.82
685.062	11.27
685.386	10.71
685.709	10.46
686.032	10.86
686.355	11.21
686.678	10.77
687.001	11.31
687.324	11.27
687.646	10.96
687.969	11.06
688.292	10.65
688.614	11.42
688.937	11.5
689.26	10.83
689.582	10.93
689.904	10.59
690.227	11.44
690.549	11.43
690.871	11.65
691.194	11.61
691.516	11.02
691.838	11.66
692.16	11.23
692.482	11.64
692.804	10.65
693.126	10.89
693.448	11.33
693.769	11.03
694.091	11.71
694.413	11.19
694.735	11.55
695.056	11.62
695.378	11.67
695.699	11.56
696.021	11.49
696.342	12.62
696.663	11.19
696.984	11.65
697.306	11.86
697.627	11.67
697.948	11.24
698.269	11.57
698.59	11.73
698.911	12.09
699.232	12.16
699.553	11.68
699.873	12.02
700.194	11.23
700.515	11.36
700.835	12.01
701.156	11.97
701.477	12.1
701.797	11.88
702.117	12.12
702.438	12.15
702.758	11.17
703.078	12.22
703.398	12.32
703.719	11.59
704.039	12.73
704.359	11.59
704.679	11.13
704.999	13.11
705.319	12.54
705.638	11.63
705.958	11.99
706.278	12.94
706.597	12.49
706.917	12.86
707.237	12.03
707.556	12.31
707.876	11.44
708.195	12.98
708.514	12.73
708.834	12.2
709.153	13.39
709.472	12.27
709.791	12.51
710.11	12.53
710.429	13.14
710.748	12.7
711.067	12.5
711.386	13.18
711.705	12.65
712.023	12.33
712.342	12.48
712.661	13.36
712.979	12.37
713.298	13.49
713.616	13.22
713.935	13.34
714.253	12.73
714.572	13.09
714.89	13.69
715.208	13.14
715.526	11.93
715.844	12.94
716.162	12.32
716.48	13.69
716.798	13.49
717.116	13.85
717.434	13.84
717.752	12.63
718.069	13.51
718.387	13.18
718.705	13.56
719.022	13.39
719.34	13.47
719.657	12.74
719.975	13.56
720.292	12.48
720.609	13.33
720.927	13.74
721.244	13.67
721.561	13.74
721.878	14.5
722.195	13.42
722.512	13.58
722.829	13.6
723.146	14.27
723.463	13.75
723.779	13.96
724.096	12.29
724.413	15.34
724.729	14.33
725.046	13.91
725.362	14.51
725.679	13.91
725.995	14.4
726.311	13.53
726.628	13.26
726.944	12.35
727.26	14.28
727.576	13.89
727.892	12.73
728.208	13.64
728.524	15.15
728.84	13.1
729.156	14
729.472	16.17
729.787	14.89
730.103	13.69
730.419	14.38
730.734	13.43
731.05	14.22
731.365	12.86
731.681	14.37
731.996	14.48
732.311	14.29
732.626	14.39
732.942	13.83
733.257	14.56
733.572	14.11
733.887	14.57
734.202	13.99
734.517	15.77
734.832	14.76
735.146	14.85
735.461	15.77
735.776	14.45
736.091	14.88
736.405	14.39
736.72	14.38
737.034	13.78
737.349	13.89
737.663	15.14
737.977	14.81
738.292	14.79
738.606	14.22
738.92	15.17
739.234	14.26
739.548	15.7
739.862	14.33
740.176	14.27
740.49	14.04
740.804	15.29
741.117	14.42
741.431	15.26
741.745	15.18
742.058	14.41
742.372	13.7
742.685	14.97
742.999	13.99
743.312	16.26
743.626	15.93
743.939	14.82
744.252	14.03
744.565	13.48
744.878	16.08
745.191	15.35
745.505	15.73
745.817	14.22
746.13	16.91
746.443	17.1
746.756	15.16
747.069	17.87
747.381	12.52
747.694	17.66
748.007	16.09
748.319	15.13
748.632	16.19
748.944	16.83
749.256	16.82
749.569	14.3
749.881	16.39
750.193	15.63
750.505	18.37
750.817	16.54
751.129	17.25
751.441	16.05
751.753	17.83
752.065	18.74
752.377	17.05
752.689	15.62
753	15.32
753.312	14.05
753.624	16.11
753.935	18.52
754.247	14.87
754.558	17.23
754.869	16.63
755.181	16.6
755.492	15.71
755.803	16.88
756.114	16.65
756.425	20.01
756.736	17.39
757.047	16.36
757.358	16.27
757.669	13.33
757.98	16.4
758.291	15.39
758.601	18.09
758.912	18.1
759.223	19.55
759.533	16.58
759.844	18.02
760.154	17.69
760.464	15.18
760.775	17.95
761.085	18.33
761.395	18.49
761.705	18.81
762.016	16.08
762.326	16.52
762.636	18.08
762.945	15.44
763.255	17.05
763.565	18.18
763.875	17.42
764.185	17.54
764.494	17.42
764.804	16.7
765.113	17.06
765.423	15.68
765.732	17.47
766.042	17.47
766.351	16.53
766.66	16.84
766.97	18.33
767.279	17.36
767.588	17.33
767.897	17.75
768.206	16.66
768.515	18.06
768.824	17.91
769.133	18.71
769.441	17.7
769.75	18.42
770.059	19.25
770.367	17.29
770.676	17.09
770.984	17.3
771.293	19.15
771.601	16.56
771.91	18.95
772.218	16.91
772.526	16.67
772.834	16.27
773.142	18.93
773.45	19.12
773.758	17.84
774.066	17.89
774.374	16.27
774.682	18.85
774.99	20.15
775.298	19.75
775.605	19.73
775.913	19.3
776.22	17
776.528	19.44
776.835	18.78
777.143	17.99
777.45	18.54
777.757	17.24
778.065	17.74
778.372	19.87
778.679	21.48
778.986	20.86
779.293	16.21
779.6	18.83
779.907	20.06
780.214	20.4
780.52	19.13
780.827	20.13
781.134	20.79
781.44	22.69
781.747	16.5
782.053	19.15
782.36	20.06
782.666	20.65
782.973	22.98
783.279	18.72
783.585	19.43
783.891	20.4
784.197	19.49
784.503	20.02
784.809	18.28
785.115	18.69
785.421	22.28
785.727	21.5
786.033	24.66
786.339	15.8
786.644	23.23
786.95	18.83
787.255	17.37
787.561	21.75
787.866	15.75
788.172	20.81
788.477	19.61
788.782	17.66
789.088	21.93
789.393	17.56
789.698	20.93
790.003	20.52
790.308	17.11
790.613	20.44
790.918	19.49
791.223	16.28
791.527	16.36
791.832	19.36
792.137	20.3
792.441	24.62
792.746	20.14
793.05	23.93
793.355	21.9
793.659	21.85
793.963	22.92
794.268	20.24
794.572	24.18
794.876	23.43
795.18	22.74
795.484	18.59
795.788	16.56
796.092	18.3
796.396	24.73
796.7	21.37
797.004	18.03
797.307	17.89
797.611	15.35
797.915	21.27
798.218	22.92
798.522	17.22
798.825	21.98
799.128	22.08
799.432	21.57
799.735	23.29
800.038	23.27
800.341	17.87
800.644	26
800.947	19.7
801.25	21.82
801.553	24.92
801.856	25.84
802.159	21.59
802.462	21.59
802.764	22.93
803.067	21.26
803.37	21.01
803.672	21.4
803.975	24.24
804.277	25.23
804.579	25.78
804.882	23.91
805.184	24.4
805.486	24.09
805.788	27.59
806.09	22.56
806.392	20.6
806.694	26.87
806.996	23.95
807.298	23.46
807.6	23.78
807.902	22.49
808.203	24.16
808.505	24.25
808.807	22.28
809.108	25.72
809.409	22.06
809.711	18.47
810.012	21.51
810.313	23.79
810.615	20.94
810.916	21.51
811.217	26.69
811.518	17.81
811.819	23.44
812.12	26.81
812.421	22.51
812.722	31.67
813.023	25
813.323	24.8
813.624	21.99
813.925	28.09
814.225	27.59
814.526	18.26
814.826	24.02
815.126	25.35
815.427	23.85
815.727	16.71
816.027	24.55
816.327	26.03
816.627	23.54
816.927	29.12
817.227	23.55
817.527	24.94
817.827	21.04
818.127	19.05
818.427	27.03
818.727	19.23
819.026	32.95
819.326	23.16
819.625	30.23
819.925	25.02
820.224	21.15
820.524	21.25
820.823	24.12
821.122	17.72
821.421	23.09
821.72	26.86
822.019	29.91
822.318	19.28
822.617	18.28
822.916	22.53
823.215	21.5
823.514	22.09
823.813	24.64
824.111	26.3
824.41	25.22
824.709	23.71
825.007	22.91
825.306	22.19
825.604	23.12
825.902	23.18
826.201	23.73
826.499	22.37
826.797	23.44
827.095	24.75
827.393	23.64
827.691	22.29
827.989	21.59
828.287	24.37
828.585	23.97
828.882	23.75
829.18	24.09
829.478	21.96
829.775	21.56
830.073	22.29
830.37	21.97
830.668	23.71
830.965	24.48
831.263	22.88
831.56	22.27
831.857	23.99
832.154	21.73
832.451	25.06
832.748	25.3
833.045	27.66
833.342	26.91
833.639	26.63
833.936	27.83
834.232	25.28
834.529	27.71
834.826	27.68
835.122	29.23
835.419	25.72
835.715	30.05
836.012	26.36
836.308	28.18
836.604	25.42
836.901	21.85
837.197	28.7
837.493	26.78
837.789	23.52
838.085	21.19
838.381	24.15
838.677	25.96
838.972	26.5
839.268	27.89
839.564	27.22
839.86	26.98
840.155	21.36
840.451	22.77
840.746	24.44
841.042	19.57
841.337	26.36
841.632	30.74
841.928	27.78
842.223	31.16
842.518	35.71
842.813	34.52
843.108	24.97
843.403	23.29
843.698	27.63
843.993	30.15
844.287	25.73
844.582	25.1
844.877	21.35
845.171	33.01
845.466	23.48
845.761	22.19
846.055	26.03
846.349	27.52
846.644	25.79
846.938	23.64
847.232	30.35
847.526	22.9
847.82	16.43
848.114	30.93
848.408	28.99
848.702	20.34
848.996	32.52
849.29	37.26
849.584	46.8
849.877	32.15
850.171	7.2
850.465	24.49
850.758	17.48
851.052	27.24
851.345	40.23
851.638	40.12
851.932	53.13
852.225	30.66
852.518	41.75
852.811	30.35
853.104	34.61
853.397	36.45
853.69	25.55
853.983	46.36
854.276	35.19
854.569	40.23
854.861	16.67
855.154	13.98
855.447	14.89
855.739	35.22
856.032	27.59
856.324	37.02
856.616	45.08
856.909	47.83
857.201	18.91
857.493	36.91
857.785	33.72
858.077	30.23
858.369	42.05
858.661	57.88
858.953	26.35
859.245	42.7
859.537	55.14
859.829	19.91
860.12	39.16
860.412	39.76
860.703	4.34
860.995	37.72
861.286	40.21
861.578	54.1
861.869	15.84
862.16	15.58
862.452	2.79
862.743	55.17
863.034	47.92
863.325	38.65
863.616	34.12
863.907	42.55
864.198	28.93
864.488	14.66
864.779	16.52
865.07	18.86
865.36	21.27
865.651	43.77
865.941	2.44
866.232	27.61
866.522	46.14
866.813	25.15
867.103	46.37
867.393	33.1
867.683	33.24
867.973	35.78
868.263	24.22
868.553	15.82
868.843	30.88
869.133	45.31
869.423	47.37
869.713	49.8
870.002	48.28
870.292	21.87
870.582	44.7
870.871	42.72
871.161	28.88
871.45	30.94
871.739	32.57
872.029	39.09
872.318	44.54
872.607	44.71
872.896	27.64
873.185	25.71
873.474	43.49
873.763	27.76
874.052	19.05
874.341	25.15
874.63	34.23
874.918	30.29
875.207	50.36
875.496	22.23
875.784	31.99
876.073	43.89
876.361	35.43
876.649	22.06
876.938	35.81
877.226	54.34
877.514	45.88
877.802	42.87
878.09	61.16
878.378	45.14
878.666	52.71
878.954	34.35
879.242	40.22
879.53	34.06
879.817	26.89
880.105	7.46
880.392	10.02
880.68	41.84
880.967	41.59
881.255	34.24
881.542	48.92
881.83	80.35
882.117	16.75
882.404	42.05
882.691	25.14
882.978	24.5
883.265	41.3
883.552	37.67
883.839	13.51
884.126	46.01
884.413	37.05
884.699	45.05
884.986	34.42
885.273	33.2
885.559	33.2
885.846	33.2
