Data from 0112_chest_Reflection__1__190.txt Node

Date: Fri Sep 22 22:23:32 CDT 2023
User: ToomeyLab
Spectrometer: FLMS14357
Trigger mode: 0
Integration Time (sec): 1.000000E-2
Scans to average: 100
Electric dark correction enabled: true
Nonlinearity correction enabled: false
Boxcar width: 0
XAxis mode: Wavelengths
Number of Pixels in Spectrum: 2048
>>>>>Begin Spectral Data<<<<<
189.047	-27.93
189.435	-27.93
189.823	-27.93
190.211	351.41
190.599	-6.67
190.987	3.28
191.375	225.16
191.763	76.54
192.151	35.17
192.538	208.46
192.926	85.04
193.314	67.83
193.702	509.89
194.089	79.57
194.477	75.97
194.864	137.55
195.252	108.66
195.639	-574.34
196.027	10248.78
196.414	83.57
196.801	-1448.87
197.189	101.59
197.576	1161.18
197.963	-16.75
198.351	12.44
198.738	28.2
199.125	12.99
199.512	16.13
199.899	50.19
200.286	0.72
200.673	15.16
201.06	-4.75
201.447	50.77
201.833	-9.03
202.22	73.84
202.607	52.34
202.994	37.93
203.38	15.83
203.767	21.06
204.154	23.32
204.54	20.86
204.927	-10.96
205.313	32.78
205.699	40.75
206.086	49.34
206.472	57.54
206.858	14.06
207.245	11.8
207.631	37.99
208.017	35.62
208.403	21.79
208.789	40.3
209.175	54.11
209.561	51.68
209.947	35.77
210.333	21.87
210.719	-14.33
211.105	41.71
211.491	18.29
211.876	19.02
212.262	44.17
212.648	61.3
213.034	34.6
213.419	0.93
213.805	18.22
214.19	21.15
214.576	42.49
214.961	29.05
215.346	4.01
215.732	23.99
216.117	14.61
216.502	21.92
216.888	20.29
217.273	14.51
217.658	-9.96
218.043	14.26
218.428	16.54
218.813	18.86
219.198	-7.49
219.583	17.16
219.968	6.49
220.353	15.35
220.738	13.1
221.122	10.43
221.507	-5.9
221.892	-15.71
222.276	21.37
222.661	-8.97
223.046	17.54
223.43	30.63
223.815	-0.86
224.199	-7.34
224.583	21.05
224.968	5.94
225.352	9.3
225.736	12.36
226.121	9.66
226.505	5.55
226.889	7.26
227.273	7.41
227.657	6.16
228.041	-1.08
228.425	6.88
228.809	4.27
229.193	5.27
229.577	5.67
229.961	5.27
230.344	3.86
230.728	1.24
231.112	3.01
231.495	2.23
231.879	2.88
232.263	1.57
232.646	1.65
233.03	2.72
233.413	1.86
233.797	1.41
234.18	2.19
234.563	3.64
234.946	1.35
235.33	1.24
235.713	1.72
236.096	2.18
236.479	1.71
236.862	5.02
237.245	3.16
237.628	4.42
238.011	2.04
238.394	2.18
238.777	5.36
239.16	1.59
239.543	4.65
239.925	3.73
240.308	5.24
240.691	3.77
241.073	4.29
241.456	3.13
241.838	0.38
242.221	1.64
242.603	1.54
242.986	1.93
243.368	2.44
243.75	2.96
244.133	2.72
244.515	2.05
244.897	2.28
245.279	1.9
245.661	1.78
246.043	2.15
246.425	2.76
246.807	3.36
247.189	2.04
247.571	2.15
247.953	2.8
248.335	2.51
248.717	2.57
249.098	2.5
249.48	2.1
249.862	2.17
250.243	2.19
250.625	2.37
251.006	1.44
251.388	2.17
251.769	2.35
252.151	2.51
252.532	2.63
252.913	2.35
253.295	3.61
253.676	2.56
254.057	2.05
254.438	3.06
254.819	2.29
255.2	2.18
255.581	2.04
255.962	2.68
256.343	1.32
256.724	0.66
257.105	3.17
257.486	2.88
257.867	1.68
258.247	3.15
258.628	2.43
259.009	3.44
259.389	2.82
259.77	2.88
260.15	3.25
260.531	2.33
260.911	2.18
261.292	1.88
261.672	1.85
262.052	2.24
262.432	2.17
262.813	2.21
263.193	1.7
263.573	2.92
263.953	1.64
264.333	2.01
264.713	2.12
265.093	2.15
265.473	2.29
265.853	1.47
266.233	1.78
266.612	2.24
266.992	3.52
267.372	2.48
267.752	2.91
268.131	1.94
268.511	2.17
268.89	2.16
269.27	1.94
269.649	2.53
270.029	2.18
270.408	2.02
270.787	2.12
271.167	2.29
271.546	2.27
271.925	2.63
272.304	1.89
272.683	2.04
273.062	2.56
273.441	1.96
273.82	2.59
274.199	2.01
274.578	2.67
274.957	1.91
275.336	1.87
275.715	1.95
276.093	1.59
276.472	1.87
276.851	2.03
277.229	1.8
277.608	2.33
277.986	2.12
278.365	2.55
278.743	2.34
279.122	2.6
279.5	2.76
279.878	2.18
280.257	3.04
280.635	1.82
281.013	2.19
281.391	1.99
281.769	2.29
282.147	2.32
282.525	2.18
282.903	2.42
283.281	2.37
283.659	2.34
284.037	1.97
284.415	2.03
284.792	2.58
285.17	2.57
285.548	2.67
285.925	2.1
286.303	2.19
286.68	1.68
287.058	2.09
287.435	2.12
287.813	2.13
288.19	1.73
288.567	2.37
288.945	2.01
289.322	2.29
289.699	1.59
290.076	2.3
290.453	2.02
290.83	1.68
291.207	2.37
291.584	1.93
291.961	2.13
292.338	2.41
292.715	2.16
293.092	2.13
293.469	1.88
293.845	2.25
294.222	2.13
294.599	2.19
294.975	2.62
295.352	2.26
295.728	2.29
296.105	2.59
296.481	2.17
296.858	2.05
297.234	2.58
297.61	1.96
297.986	2.08
298.363	1.68
298.739	2.45
299.115	2.52
299.491	2.5
299.867	2.12
300.243	1.94
300.619	2.25
300.995	1.98
301.371	2.39
301.746	2.1
302.122	2.09
302.498	2.19
302.874	2.25
303.249	1.58
303.625	2.44
304	2.36
304.376	2.41
304.751	2.66
305.127	2.07
305.502	2.71
305.878	2.34
306.253	2.04
306.628	2.21
307.003	2.35
307.378	1.73
307.754	2.09
308.129	2.1
308.504	2.56
308.879	2.23
309.254	2.23
309.629	2.33
310.003	3
310.378	2.58
310.753	2.31
311.128	2.21
311.502	2.31
311.877	2.18
312.252	2.02
312.626	2.07
313.001	2.92
313.375	2.52
313.75	2.66
314.124	2.88
314.498	2.32
314.873	2.2
315.247	2.76
315.621	2.6
315.995	2.43
316.369	2.89
316.743	2.8
317.117	2.74
317.491	2.84
317.865	1.75
318.239	2.27
318.613	2.33
318.987	2.34
319.361	2.51
319.734	2.34
320.108	2.67
320.482	2.18
320.855	1.98
321.229	2.73
321.602	2.76
321.976	2.35
322.349	2.56
322.723	2.42
323.096	2.12
323.469	2.2
323.843	2.29
324.216	2.71
324.589	2.61
324.962	1.82
325.335	2.21
325.708	2.56
326.081	2.81
326.454	1.97
326.827	2.24
327.2	2.09
327.573	2.94
327.945	2.21
328.318	2.3
328.691	2.46
329.063	2.13
329.436	2.41
329.809	2.63
330.181	2.58
330.553	2.38
330.926	2.36
331.298	2.62
331.671	2.66
332.043	1.86
332.415	2.14
332.787	2.75
333.159	2.27
333.532	2.41
333.904	2.38
334.276	1.86
334.648	1.91
335.02	1.93
335.391	2.51
335.763	2.43
336.135	2.58
336.507	2.9
336.879	1.84
337.25	2.32
337.622	2.61
337.993	2.61
338.365	2.98
338.736	2.68
339.108	2.39
339.479	2.14
339.851	2.12
340.222	2.32
340.593	2.25
340.964	2.13
341.336	2.28
341.707	2.32
342.078	2.17
342.449	2.41
342.82	2.37
343.191	1.97
343.562	2.45
343.933	2.36
344.303	2.49
344.674	2.12
345.045	2.59
345.416	2.85
345.786	2.43
346.157	2.47
346.527	2.24
346.898	1.96
347.268	1.93
347.639	2.22
348.009	2.21
348.38	2.28
348.75	2.71
349.12	2.38
349.49	2.88
349.861	2.33
350.231	2.58
350.601	2.9
350.971	2.56
351.341	2.33
351.711	2.23
352.081	2.32
352.45	2.47
352.82	2.52
353.19	3.1
353.56	2.58
353.929	2.84
354.299	2.52
354.669	2.12
355.038	1.71
355.408	2.34
355.777	2.56
356.147	2.38
356.516	2.86
356.885	2.41
357.254	2.71
357.624	1.93
357.993	2.67
358.362	2.25
358.731	2.32
359.1	2.14
359.469	2.4
359.838	1.95
360.207	2.24
360.576	2.23
360.945	2.3
361.314	2.87
361.682	2.67
362.051	2.5
362.42	2.56
362.788	2.22
363.157	2.53
363.525	2.42
363.894	2.18
364.262	2.21
364.631	2.31
364.999	2.34
365.367	2.49
365.735	2.15
366.104	2.43
366.472	2.7
366.84	1.96
367.208	2.44
367.576	2.52
367.944	2.2
368.312	2.59
368.68	2.44
369.048	2.9
369.416	2.2
369.783	2.19
370.151	2.21
370.519	2.64
370.886	2.49
371.254	2.54
371.621	2.16
371.989	2.59
372.356	2.24
372.724	2.45
373.091	2.51
373.458	2.75
373.826	2.42
374.193	2.59
374.56	2.47
374.927	2.38
375.294	2.55
375.661	2.45
376.028	2.57
376.395	2.25
376.762	2.47
377.129	2.65
377.496	2.73
377.863	2.7
378.229	2.51
378.596	2.7
378.963	2.68
379.329	2.56
379.696	2.71
380.062	2.32
380.429	2.45
380.795	2.48
381.161	2.22
381.528	2.27
381.894	2
382.26	2.46
382.626	2.3
382.993	2.61
383.359	2.23
383.725	2.55
384.091	2.59
384.457	2.72
384.823	2.54
385.188	2.49
385.554	2.35
385.92	2.87
386.286	2.37
386.651	2.45
387.017	2.7
387.383	2.36
387.748	2.49
388.114	2.47
388.479	2.38
388.845	2.4
389.21	2.46
389.575	2.61
389.94	2.36
390.306	2.61
390.671	2.71
391.036	2.07
391.401	2.6
391.766	2.6
392.131	2.58
392.496	2.51
392.861	2.61
393.226	2.47
393.591	2.67
393.956	2.33
394.32	2.46
394.685	2.35
395.05	2.66
395.414	2.68
395.779	2.57
396.143	2.53
396.508	2.55
396.872	2.3
397.236	2.65
397.601	2.59
397.965	2.73
398.329	2.62
398.694	2.64
399.058	2.6
399.422	2.38
399.786	2.36
400.15	2.71
400.514	2.31
400.878	2.49
401.242	2.7
401.605	2.56
401.969	2.05
402.333	2.5
402.697	2.5
403.06	2.77
403.424	2.43
403.787	2.56
404.151	2.44
404.514	2.66
404.878	2.64
405.241	2.73
405.604	2.54
405.968	2.57
406.331	2.65
406.694	2.64
407.057	2.42
407.42	2.77
407.783	2.58
408.146	2.71
408.509	2.37
408.872	2.37
409.235	2.67
409.598	2.49
409.961	2.72
410.323	2.59
410.686	2.69
411.049	2.95
411.411	2.8
411.774	2.69
412.136	2.51
412.499	2.57
412.861	2.83
413.223	2.59
413.586	2.47
413.948	2.57
414.31	2.31
414.672	2.62
415.035	2.45
415.397	2.72
415.759	3.02
416.121	2.71
416.483	2.38
416.845	2.48
417.206	2.48
417.568	2.65
417.93	2.29
418.292	2.5
418.653	2.41
419.015	2.6
419.377	2.31
419.738	2.76
420.1	2.47
420.461	2.52
420.822	2.59
421.184	2.41
421.545	2.46
421.906	2.46
422.267	2.4
422.629	2.54
422.99	2.45
423.351	2.37
423.712	2.36
424.073	2.41
424.434	2.59
424.795	2.49
425.155	2.59
425.516	2.56
425.877	2.57
426.238	2.37
426.598	2.45
426.959	2.49
427.32	2.59
427.68	2.4
428.041	2.42
428.401	2.7
428.761	2.76
429.122	2.48
429.482	2.47
429.842	2.39
430.202	2.46
430.563	2.7
430.923	2.58
431.283	2.6
431.643	2.62
432.003	2.6
432.363	2.69
432.722	2.75
433.082	2.62
433.442	2.58
433.802	2.8
434.161	2.66
434.521	2.6
434.881	2.78
435.24	2.53
435.6	2.51
435.959	2.52
436.319	2.6
436.678	2.71
437.037	2.65
437.396	2.59
437.756	2.76
438.115	2.67
438.474	2.68
438.833	2.66
439.192	2.73
439.551	2.52
439.91	2.7
440.269	2.79
440.628	2.44
440.987	2.55
441.345	2.64
441.704	2.65
442.063	2.59
442.421	2.59
442.78	2.66
443.138	2.66
443.497	2.52
443.855	2.7
444.214	2.55
444.572	2.79
444.93	2.56
445.288	2.72
445.647	2.79
446.005	2.49
446.363	2.45
446.721	2.66
447.079	2.46
447.437	2.59
447.795	2.73
448.153	2.57
448.51	2.57
448.868	2.58
449.226	2.68
449.584	2.57
449.941	2.59
450.299	2.76
450.656	2.67
451.014	2.69
451.371	2.65
451.729	2.54
452.086	2.73
452.443	2.85
452.801	2.74
453.158	2.68
453.515	2.77
453.872	2.69
454.229	2.64
454.586	2.85
454.943	2.65
455.3	2.86
455.657	2.68
456.014	2.79
456.371	2.74
456.727	2.94
457.084	2.7
457.441	2.65
457.797	2.77
458.154	2.89
458.51	2.74
458.867	2.83
459.223	2.72
459.58	2.68
459.936	2.78
460.292	2.86
460.648	2.78
461.005	2.66
461.361	2.82
461.717	2.59
462.073	2.63
462.429	2.55
462.785	2.69
463.141	2.7
463.496	2.8
463.852	2.76
464.208	2.7
464.564	2.77
464.919	2.72
465.275	3.08
465.631	2.9
465.986	3
466.342	2.89
466.697	2.84
467.052	2.73
467.408	2.85
467.763	2.79
468.118	2.9
468.473	2.7
468.829	2.69
469.184	2.71
469.539	2.91
469.894	2.93
470.249	2.78
470.603	2.81
470.958	2.86
471.313	2.99
471.668	2.82
472.023	2.78
472.377	3.03
472.732	2.75
473.086	2.95
473.441	2.66
473.795	3.03
474.15	2.72
474.504	2.78
474.859	2.96
475.213	2.79
475.567	2.83
475.921	2.79
476.275	2.81
476.63	2.9
476.984	2.64
477.338	3.08
477.692	2.87
478.045	2.99
478.399	3
478.753	2.87
479.107	2.88
479.461	2.81
479.814	2.94
480.168	2.9
480.521	2.92
480.875	3.17
481.228	3.02
481.582	2.81
481.935	2.85
482.289	2.84
482.642	2.82
482.995	2.85
483.348	2.87
483.701	2.82
484.055	2.87
484.408	2.77
484.761	2.85
485.114	2.7
485.466	2.69
485.819	2.66
486.172	2.6
486.525	2.63
486.878	2.69
487.23	2.75
487.583	2.81
487.936	2.75
488.288	2.84
488.641	2.79
488.993	2.76
489.345	2.74
489.698	2.68
490.05	2.73
490.402	2.77
490.754	2.71
491.107	2.78
491.459	2.84
491.811	2.86
492.163	2.84
492.515	2.91
492.866	2.89
493.218	2.84
493.57	2.92
493.922	2.76
494.274	2.78
494.625	2.75
494.977	2.94
495.328	2.98
495.68	3.04
496.031	2.95
496.383	2.94
496.734	2.92
497.086	2.97
497.437	3.08
497.788	3.08
498.139	3.05
498.49	3.06
498.842	2.93
499.193	2.85
499.544	2.95
499.894	2.99
500.245	3.08
500.596	3.05
500.947	3
501.298	3.15
501.648	3.1
501.999	3.13
502.35	3.04
502.7	3.06
503.051	3.09
503.401	3.04
503.752	3.03
504.102	3.07
504.452	3.12
504.803	3.07
505.153	2.99
505.503	3.02
505.853	3.09
506.203	3.08
506.553	3.2
506.903	3.12
507.253	2.98
507.603	3.06
507.953	3.1
508.303	3.25
508.652	3.11
509.002	3.2
509.352	3.08
509.701	3.2
510.051	3.2
510.4	3.12
510.75	3.18
511.099	2.96
511.449	3.07
511.798	3.07
512.147	3.15
512.496	3.15
512.846	3.1
513.195	3.23
513.544	3.2
513.893	3.3
514.242	3.12
514.591	3.19
514.939	3.23
515.288	3.11
515.637	3.16
515.986	3.15
516.334	3.2
516.683	3.27
517.032	3.36
517.38	3.24
517.729	3.21
518.077	3.28
518.426	3.22
518.774	3.32
519.122	3.24
519.47	3.08
519.819	3.22
520.167	3.32
520.515	3.23
520.863	3.12
521.211	3.21
521.559	3.28
521.907	3.33
522.255	3.26
522.602	3.37
522.95	3.28
523.298	3.32
523.645	3.46
523.993	3.33
524.341	3.25
524.688	3.28
525.036	3.34
525.383	3.38
525.73	3.45
526.078	3.33
526.425	3.36
526.772	3.47
527.119	3.29
527.466	3.3
527.814	3.31
528.161	3.3
528.508	3.32
528.854	3.34
529.201	3.33
529.548	3.36
529.895	3.29
530.242	3.22
530.588	3.23
530.935	3.14
531.282	3.2
531.628	3.27
531.975	3.28
532.321	3.3
532.667	3.34
533.014	3.46
533.36	3.49
533.706	3.31
534.052	3.5
534.399	3.52
534.745	3.5
535.091	3.35
535.437	3.33
535.783	3.31
536.129	3.41
536.474	3.45
536.82	3.44
537.166	3.59
537.512	3.61
537.857	3.66
538.203	3.69
538.549	3.52
538.894	3.47
539.239	3.48
539.585	3.54
539.93	3.64
540.276	3.64
540.621	3.64
540.966	3.58
541.311	3.73
541.656	3.44
542.001	3.67
542.346	3.63
542.691	3.68
543.036	3.58
543.381	3.53
543.726	3.55
544.071	3.58
544.415	3.54
544.76	3.57
545.105	3.56
545.449	3.64
545.794	3.77
546.138	3.7
546.483	3.74
546.827	3.72
547.171	3.78
547.516	3.93
547.86	3.87
548.204	3.82
548.548	3.85
548.892	3.85
549.236	3.83
549.58	3.84
549.924	3.9
550.268	3.93
550.612	3.9
550.956	3.97
551.3	4.1
551.643	4.04
551.987	4.05
552.33	4.11
552.674	4.05
553.017	4.09
553.361	4.02
553.704	4.12
554.048	4.08
554.391	4.24
554.734	4.14
555.077	4.06
555.42	4.03
555.764	4.1
556.107	4.21
556.45	4.06
556.793	4
557.135	4.12
557.478	4
557.821	4.22
558.164	4.25
558.507	4.33
558.849	4.28
559.192	4.46
559.534	4.38
559.877	4.32
560.219	4.31
560.562	4.44
560.904	4.31
561.246	4.49
561.589	4.59
561.931	4.4
562.273	4.22
562.615	4.33
562.957	4.5
563.299	4.48
563.641	4.53
563.983	4.55
564.325	4.43
564.667	4.54
565.008	4.48
565.35	4.55
565.692	4.55
566.033	4.64
566.375	4.41
566.716	4.65
567.058	4.59
567.399	4.7
567.741	4.66
568.082	4.49
568.423	4.66
568.764	4.63
569.105	4.54
569.447	4.63
569.788	4.64
570.129	4.66
570.47	4.88
570.811	4.68
571.151	4.9
571.492	4.54
571.833	4.81
572.174	4.85
572.514	4.75
572.855	4.8
573.195	4.68
573.536	4.75
573.876	4.73
574.217	4.81
574.557	4.76
574.898	4.86
575.238	4.62
575.578	4.98
575.918	5.01
576.258	4.86
576.598	4.99
576.938	4.99
577.278	5.07
577.618	4.85
577.958	4.99
578.298	5.16
578.638	5
578.977	5.13
579.317	5.21
579.657	5.16
579.996	5.01
580.336	5.16
580.675	5.31
581.014	5.18
581.354	5.16
581.693	5.33
582.032	5.44
582.372	5.36
582.711	5.41
583.05	5.29
583.389	5.23
583.728	5.27
584.067	5.48
584.406	5.31
584.745	5.17
585.083	5.83
585.422	5.57
585.761	5.29
586.1	5.61
586.438	5.6
586.777	5.51
587.115	5.73
587.454	5.53
587.792	5.71
588.13	5.8
588.469	5.63
588.807	5.96
589.145	5.89
589.483	5.68
589.821	5.71
590.159	5.7
590.497	5.93
590.835	5.81
591.173	5.94
591.511	5.89
591.849	6.03
592.187	5.81
592.524	6.05
592.862	5.86
593.2	5.83
593.537	5.75
593.875	5.99
594.212	5.91
594.55	5.98
594.887	5.7
595.224	6
595.561	6.12
595.899	5.88
596.236	6.21
596.573	6.1
596.91	6.26
597.247	6.18
597.584	6.29
597.921	6.49
598.258	6.04
598.594	6.22
598.931	6.04
599.268	6.14
599.604	6.34
599.941	6.33
600.277	6.31
600.614	6.37
600.95	6.41
601.287	6.31
601.623	6.31
601.959	6.44
602.296	6.66
602.632	6.11
602.968	6.68
603.304	6.58
603.64	6.27
603.976	6.32
604.312	6.66
604.648	6.64
604.984	6.6
605.319	6.57
605.655	6.51
605.991	6.6
606.326	6.87
606.662	6.47
606.998	6.51
607.333	6.74
607.668	6.64
608.004	6.94
608.339	6.76
608.674	6.72
609.01	6.83
609.345	6.86
609.68	7.11
610.015	6.72
610.35	7.05
610.685	7.02
611.02	7.01
611.355	6.95
611.689	7.24
612.024	7.16
612.359	7
612.694	7
613.028	7.1
613.363	6.93
613.697	7.28
614.032	7.12
614.366	7.26
614.7	7.23
615.035	7.27
615.369	6.97
615.703	7.25
616.037	7.37
616.371	7.51
616.705	7.59
617.039	7.5
617.373	7.29
617.707	7.36
618.041	7.6
618.375	7.69
618.709	7.24
619.042	7.68
619.376	7.64
619.71	7.7
620.043	7.45
620.377	7.39
620.71	7.8
621.043	7.71
621.377	7.55
621.71	8
622.043	7.94
622.376	8.13
622.709	8.05
623.043	7.82
623.376	8.04
623.709	8.04
624.041	7.78
624.374	8.11
624.707	8.39
625.04	8.23
625.373	7.69
625.705	8.04
626.038	7.91
626.37	8.19
626.703	8.17
627.035	8.32
627.368	8.15
627.7	8.58
628.032	8.61
628.365	8.38
628.697	8.4
629.029	8.16
629.361	8.31
629.693	8.51
630.025	8.3
630.357	8.22
630.689	8.39
631.021	8.22
631.353	8.68
631.684	8.37
632.016	8.63
632.348	8.77
632.679	8.66
633.011	8.33
633.342	8.85
633.674	8.85
634.005	8.63
634.336	9.16
634.668	8.8
634.999	8.64
635.33	9.03
635.661	9.05
635.992	8.7
636.323	8.88
636.654	8.91
636.985	8.99
637.316	8.86
637.647	9.17
637.977	8.49
638.308	9.67
638.639	9.09
638.969	8.99
639.3	9.09
639.63	9.61
639.961	9.2
640.291	9.39
640.622	9.53
640.952	9.15
641.282	9.27
641.612	9.01
641.943	9.45
642.273	9.9
642.603	9.26
642.933	9.17
643.263	9.1
643.592	9.46
643.922	9.95
644.252	9.66
644.582	9.91
644.911	9.56
645.241	9.6
645.571	9.64
645.9	9.69
646.23	10.2
646.559	9.99
646.888	10.08
647.218	10.09
647.547	9.72
647.876	9.81
648.205	9.78
648.534	10.37
648.863	10.02
649.192	9.24
649.521	10.24
649.85	10.26
650.179	10.11
650.508	9.99
650.837	10.54
651.165	10.17
651.494	10.24
651.822	10.33
652.151	10.25
652.479	9.97
652.808	10.22
653.136	10.23
653.465	10.37
653.793	10.6
654.121	10.59
654.449	10.34
654.777	10.53
655.105	10.82
655.433	10.85
655.761	10.62
656.089	10.47
656.417	10.54
656.745	11.09
657.073	10.7
657.4	11.22
657.728	10.56
658.056	10.7
658.383	11.36
658.711	10.69
659.038	10.55
659.365	10.62
659.693	10.59
660.02	11.02
660.347	11.4
660.674	10.84
661.001	10.81
661.329	11.3
661.656	11.06
661.982	10.99
662.309	11.26
662.636	11.16
662.963	11.28
663.29	11.49
663.616	11.62
663.943	11.69
664.27	11.63
664.596	11.26
664.923	11.08
665.249	11.1
665.576	11.19
665.902	11.95
666.228	11.88
666.554	11.6
666.881	12.27
667.207	11.49
667.533	11.45
667.859	11.95
668.185	11.65
668.511	12.04
668.837	11.85
669.162	11.78
669.488	11.85
669.814	11.38
670.139	11.86
670.465	12.34
670.791	12.04
671.116	11.66
671.442	12.56
671.767	11.49
672.092	11.99
672.418	12.56
672.743	12.34
673.068	12.54
673.393	12.15
673.718	12.52
674.043	13.1
674.368	13.09
674.693	12.19
675.018	12.32
675.343	12.63
675.667	12.34
675.992	12.98
676.317	12.85
676.641	12.63
676.966	12.58
677.29	13.01
677.615	12.6
677.939	13.08
678.264	13.02
678.588	12.85
678.912	13.34
679.236	12.53
679.56	13.17
679.885	12.48
680.209	13.28
680.532	12.68
680.856	12.97
681.18	13.33
681.504	13.03
681.828	13.24
682.152	12.61
682.475	13.25
682.799	13.31
683.122	13.15
683.446	13.09
683.769	13.29
684.093	13.43
684.416	13.52
684.739	13.43
685.062	14.51
685.386	13.53
685.709	12.81
686.032	13.24
686.355	13.42
686.678	13.71
687.001	13.47
687.324	14.2
687.646	13.17
687.969	13.71
688.292	14.04
688.614	14.56
688.937	14.01
689.26	13.11
689.582	13.81
689.904	13.94
690.227	14.56
690.549	14.3
690.871	14.31
691.194	14
691.516	14.18
691.838	14.15
692.16	13.52
692.482	14.44
692.804	14.12
693.126	13.74
693.448	14.85
693.769	13.9
694.091	14.14
694.413	13.98
694.735	15.13
695.056	14.44
695.378	14.93
695.699	14.76
696.021	14.34
696.342	15.03
696.663	14.53
696.984	14.58
697.306	14.68
697.627	13.88
697.948	14.41
698.269	14.2
698.59	14.26
698.911	15.46
699.232	14.94
699.553	14.67
699.873	14.39
700.194	14.64
700.515	14.42
700.835	15.02
701.156	14.86
701.477	14.95
701.797	14.47
702.117	15.3
702.438	14.92
702.758	14.75
703.078	15.41
703.398	15.87
703.719	15.21
704.039	15.82
704.359	14.62
704.679	14.47
704.999	16.44
705.319	15.22
705.638	15.48
705.958	15.44
706.278	16.46
706.597	16.04
706.917	15.52
707.237	15.5
707.556	15.47
707.876	14.45
708.195	16.06
708.514	15.83
708.834	14.97
709.153	16.37
709.472	15.47
709.791	16.9
710.11	16.06
710.429	16.39
710.748	16.05
711.067	16.32
711.386	17.41
711.705	16
712.023	16.67
712.342	16.29
712.661	16.83
712.979	16.99
713.298	17.47
713.616	16.21
713.935	17.08
714.253	16.94
714.572	16.25
714.89	16.93
715.208	17.6
715.526	15.85
715.844	17.19
716.162	16.72
716.48	16.64
716.798	16.83
717.116	16.32
717.434	16.46
717.752	17.29
718.069	16.42
718.387	16.23
718.705	16.66
719.022	17.21
719.34	18.2
719.657	16.57
719.975	18.37
720.292	16.48
720.609	17.13
720.927	17.7
721.244	17.9
721.561	17.95
721.878	16.67
722.195	16.96
722.512	17.69
722.829	18.44
723.146	18.28
723.463	18.01
723.779	17.67
724.096	17.38
724.413	18.88
724.729	18.35
725.046	17.75
725.362	18.06
725.679	17.55
725.995	19.17
726.311	16.55
726.628	16.39
726.944	18.21
727.26	17.35
727.576	16.93
727.892	17.33
728.208	18.34
728.524	18.93
728.84	17.42
729.156	17.64
729.472	19.31
729.787	17.7
730.103	17.82
730.419	19.46
730.734	18.82
731.05	17.34
731.365	18.77
731.681	18.89
731.996	18.73
732.311	17.84
732.626	17.87
732.942	19.26
733.257	19.34
733.572	19.24
733.887	19.18
734.202	18.71
734.517	19.25
734.832	18.51
735.146	18.6
735.461	19.99
735.776	17.69
736.091	19.91
736.405	18.05
736.72	19.9
737.034	19.19
737.349	19.68
737.663	19.23
737.977	19.11
738.292	18.75
738.606	19.8
738.92	19.56
739.234	19.43
739.548	20.12
739.862	19.18
740.176	19.78
740.49	19
740.804	19.35
741.117	19.86
741.431	19.47
741.745	19.27
742.058	19.91
742.372	18.32
742.685	18.57
742.999	19.97
743.312	20.83
743.626	19.65
743.939	20.11
744.252	20.71
744.565	18.31
744.878	20.27
745.191	19.33
745.505	18.88
745.817	21.7
746.13	21.66
746.443	21.53
746.756	20.88
747.069	20.1
747.381	18.39
747.694	20.71
748.007	20.56
748.319	22.9
748.632	21.04
748.944	21.63
749.256	21.47
749.569	20.05
749.881	21.37
750.193	20.27
750.505	21.97
750.817	21.94
751.129	21.07
751.441	22.53
751.753	20.89
752.065	22.64
752.377	22.58
752.689	22.04
753	20.11
753.312	22.14
753.624	21.33
753.935	22.78
754.247	18.69
754.558	19.81
754.869	21.26
755.181	21.09
755.492	19.5
755.803	23.62
756.114	22.59
756.425	23.94
756.736	20.77
757.047	21.08
757.358	21.15
757.669	20.78
757.98	22.21
758.291	22.47
758.601	22.53
758.912	20.83
759.223	24
759.533	24.16
759.844	24.35
760.154	21.92
760.464	21.44
760.775	22.42
761.085	23.98
761.395	22.49
761.705	21.2
762.016	21.62
762.326	22.86
762.636	23
762.945	21.94
763.255	22.47
763.565	22.61
763.875	21.26
764.185	25.11
764.494	23.91
764.804	23.07
765.113	21.4
765.423	22.43
765.732	22.87
766.042	22
766.351	22.35
766.66	23.47
766.97	21.99
767.279	22.38
767.588	23.84
767.897	22.47
768.206	23.79
768.515	23.85
768.824	22.88
769.133	23.04
769.441	23.51
769.75	25.33
770.059	25.15
770.367	23.97
770.676	24.05
770.984	23.22
771.293	24.04
771.601	24.59
771.91	23.71
772.218	22.33
772.526	23.14
772.834	22.48
773.142	25.2
773.45	25.17
773.758	23.02
774.066	24.04
774.374	23.43
774.682	24.18
774.99	24.53
775.298	24.78
775.605	24.17
775.913	27.28
776.22	23.98
776.528	24.84
776.835	25.24
777.143	26.09
777.45	24.49
777.757	23.37
778.065	26.66
778.372	25.23
778.679	23.79
778.986	25.59
779.293	22.84
779.6	23.12
779.907	24.86
780.214	27.64
780.52	24.51
780.827	25.95
781.134	24.62
781.44	24.58
781.747	22.97
782.053	26.49
782.36	29.07
782.666	23.9
782.973	25.15
783.279	25.69
783.585	24.86
783.891	20.19
784.197	27.23
784.503	25.45
784.809	22.97
785.115	23.64
785.421	28.22
785.727	24.21
786.033	28.31
786.339	23
786.644	26.99
786.95	24.11
787.255	25.76
787.561	28.27
787.866	23.51
788.172	27.92
788.477	23.71
788.782	24.81
789.088	25.03
789.393	22.58
789.698	28.12
790.003	26.84
790.308	26.39
790.613	25.26
790.918	26.1
791.223	27.34
791.527	23.54
791.832	27.86
792.137	25.1
792.441	30.44
792.746	26.47
793.05	27.74
793.355	28.34
793.659	27.43
793.963	25.28
794.268	22.34
794.572	31.32
794.876	25.14
795.18	27.15
795.484	25.48
795.788	24.46
796.092	23.11
796.396	26.72
796.7	31.81
797.004	24.88
797.307	21.13
797.611	27.43
797.915	26.24
798.218	30.6
798.522	24.83
798.825	26.07
799.128	30.54
799.432	22.97
799.735	27.08
800.038	28.34
800.341	25.44
800.644	29.48
800.947	32.05
801.25	28.18
801.553	29.28
801.856	29.89
802.159	21.59
802.462	28.16
802.764	22.46
803.067	27.33
803.37	31.53
803.672	26.85
803.975	23.69
804.277	32.18
804.579	30.48
804.882	26.16
805.184	31.06
805.486	25.59
805.788	33.98
806.09	29.98
806.392	28.68
806.694	28.87
806.996	29.41
807.298	29.14
807.6	35.77
807.902	28.14
808.203	23.79
808.505	29.34
808.807	32.33
809.108	29.33
809.409	34.82
809.711	26.12
810.012	32.63
810.313	28.71
810.615	27.11
810.916	30.25
811.217	30.58
811.518	30.76
811.819	33.41
812.12	30.77
812.421	29.06
812.722	30.5
813.023	29.89
813.323	33.98
813.624	37.45
813.925	31.67
814.225	36.13
814.526	32.95
814.826	35.31
815.126	31.04
815.427	26.08
815.727	28.12
816.027	24.91
816.327	34.15
816.627	31.95
816.927	30.74
817.227	29.89
817.527	27.07
817.827	26.1
818.127	25.19
818.427	29.13
818.727	27.96
819.026	33.67
819.326	34.14
819.625	33
819.925	36.46
820.224	33.83
820.524	29.07
820.823	27.6
821.122	22.53
821.421	32.03
821.72	32.84
822.019	28.4
822.318	35.38
822.617	29.59
822.916	26.48
823.215	33.16
823.514	26.65
823.813	34.55
824.111	33.52
824.41	30.88
824.709	30.58
825.007	30.31
825.306	28.88
825.604	28.67
825.902	30.61
826.201	30.15
826.499	30.14
826.797	30.26
827.095	31.62
827.393	31.13
827.691	31.26
827.989	29.93
828.287	29.31
828.585	31.02
828.882	30.64
829.18	30.97
829.478	29.99
829.775	30.01
830.073	30.17
830.37	32.12
830.668	31.72
830.965	33.87
831.263	31.46
831.56	31.04
831.857	29.57
832.154	34.96
832.451	34.32
832.748	31.5
833.045	34.09
833.342	34.51
833.639	34.61
833.936	36.44
834.232	33.14
834.529	37.02
834.826	32.97
835.122	31.56
835.419	30.61
835.715	37.09
836.012	29.8
836.308	38.69
836.604	33.09
836.901	32.95
837.197	33.35
837.493	33.44
837.789	32
838.085	32.7
838.381	35.72
838.677	30.55
838.972	34.28
839.268	37.14
839.564	33.86
839.86	32.29
840.155	32.14
840.451	31.85
840.746	32
841.042	31.11
841.337	33.95
841.632	32.1
841.928	42.29
842.223	37.83
842.518	42.78
842.813	41.17
843.108	36.43
843.403	39.01
843.698	40.93
843.993	40.48
844.287	32.48
844.582	30.54
844.877	29.46
845.171	31.99
845.466	35.24
845.761	29.17
846.055	32.32
846.349	24.27
846.644	44.76
846.938	33.91
847.232	35.32
847.526	28.27
847.82	33.48
848.114	33.68
848.408	45.61
848.702	39.26
848.996	34.28
849.29	41.39
849.584	53.5
849.877	38.09
850.171	31.91
850.465	25.16
850.758	40.41
851.052	13.52
851.345	50.51
851.638	23.81
851.932	34.79
852.225	35.98
852.518	48.82
852.811	34.97
853.104	35.16
853.397	46.47
853.69	29.71
853.983	37.5
854.276	27.62
854.569	28.96
854.861	14.4
855.154	16.79
855.447	27.32
855.739	41
856.032	54.69
856.324	39.61
856.616	45.68
856.909	37.07
857.201	39.87
857.493	43.9
857.785	41.42
858.077	40.23
858.369	39.97
858.661	49.98
858.953	47.41
859.245	42.25
859.537	44.31
859.829	38.71
860.12	45.51
860.412	28.32
860.703	6.19
860.995	27.95
861.286	57.87
861.578	50.85
861.869	22.99
862.16	44.35
862.452	3.37
862.743	40.33
863.034	56.45
863.325	50.92
863.616	29.83
863.907	42.84
864.198	33.33
864.488	9.06
864.779	17.95
865.07	32.04
865.36	36.97
865.651	57.36
865.941	5.13
866.232	52.8
866.522	55.73
866.813	44.48
867.103	42.39
867.393	31.29
867.683	42.69
867.973	32.62
868.263	15.95
868.553	8.81
868.843	27.54
869.133	45.15
869.423	30.23
869.713	20.82
870.002	50.4
870.292	16.46
870.582	55.52
870.871	44.22
871.161	51.92
871.45	17.65
871.739	38.67
872.029	36.52
872.318	34.66
872.607	35.5
872.896	53.24
873.185	82.49
873.474	61.22
873.763	34.88
874.052	39.11
874.341	34.91
874.63	22.91
874.918	22.93
875.207	80.4
875.496	42.12
875.784	51.21
876.073	29.01
876.361	79.7
876.649	23.99
876.938	51.82
877.226	35.04
877.514	51.11
877.802	53.44
878.09	48.3
878.378	52
878.666	34.39
878.954	38.99
879.242	42.04
879.53	43.28
879.817	17.75
880.105	30.75
880.392	21.85
880.68	53.02
880.967	33.35
881.255	49.65
881.542	25.9
881.83	64.23
882.117	16.65
882.404	57.88
882.691	38.86
882.978	20.68
883.265	41.94
883.552	45.24
883.839	12.63
884.126	28.64
884.413	17.84
884.699	30.61
884.986	39.98
885.273	40.08
885.559	40.08
885.846	40.08
