Data from 0112_chest_Reflection__2__191.txt Node

Date: Fri Sep 22 22:23:42 CDT 2023
User: ToomeyLab
Spectrometer: FLMS14357
Trigger mode: 0
Integration Time (sec): 1.000000E-2
Scans to average: 100
Electric dark correction enabled: true
Nonlinearity correction enabled: false
Boxcar width: 0
XAxis mode: Wavelengths
Number of Pixels in Spectrum: 2048
>>>>>Begin Spectral Data<<<<<
189.047	-431.1
189.435	-431.1
189.823	-431.1
190.211	133.83
190.599	120.79
190.987	-588.52
191.375	112.58
191.763	-99.58
192.151	103.74
192.538	11.21
192.926	414.86
193.314	-30.37
193.702	537.6
194.089	92.86
194.477	-90.43
194.864	61.89
195.252	184.29
195.639	-426.46
196.027	3875.61
196.414	-16.77
196.801	1305.14
197.189	-13.18
197.576	938.33
197.963	-70.08
198.351	23
198.738	16.31
199.125	-11.5
199.512	50.33
199.899	61.53
200.286	38.27
200.673	4.81
201.06	14.81
201.447	40.11
201.833	-13.7
202.22	82.46
202.607	6.53
202.994	67
203.38	24.83
203.767	30.1
204.154	18.2
204.54	18.5
204.927	15.22
205.313	-6.46
205.699	47.06
206.086	27.32
206.472	55.26
206.858	14.46
207.245	-1.56
207.631	34.25
208.017	16.13
208.403	29.26
208.789	22.49
209.175	45.51
209.561	33.38
209.947	63.03
210.333	14.1
210.719	22.41
211.105	31.22
211.491	2.78
211.876	42.68
212.262	30.63
212.648	36
213.034	26.49
213.419	-3.95
213.805	-7.34
214.19	-12.85
214.576	44.11
214.961	16.4
215.346	12.85
215.732	8.94
216.117	38.58
216.502	34.2
216.888	18.38
217.273	-4.76
217.658	17.39
218.043	14.54
218.428	35.85
218.813	9.91
219.198	33.15
219.583	32.87
219.968	17.92
220.353	32.78
220.738	21.57
221.122	0.32
221.507	-4.73
221.892	2.14
222.276	12.39
222.661	-3.08
223.046	20.64
223.43	21.39
223.815	0.15
224.199	2.03
224.583	16.83
224.968	25.51
225.352	-0.43
225.736	3.86
226.121	4.72
226.505	11.9
226.889	2.94
227.273	8.92
227.657	5.03
228.041	5.58
228.425	8.3
228.809	-0.31
229.193	3.07
229.577	6.29
229.961	6.04
230.344	4.93
230.728	2.46
231.112	4.51
231.495	3.31
231.879	2.97
232.263	2.04
232.646	2.53
233.03	3.04
233.413	3.4
233.797	4.86
234.18	3.83
234.563	6.69
234.946	5.06
235.33	1.64
235.713	2.65
236.096	1.63
236.479	3.83
236.862	7.01
237.245	4.09
237.628	4.62
238.011	5.65
238.394	3.94
238.777	6.41
239.16	5.1
239.543	6.15
239.925	5.23
240.308	3.51
240.691	4.65
241.073	4
241.456	2.6
241.838	4.15
242.221	3.12
242.603	5.19
242.986	3.79
243.368	3.17
243.75	4.51
244.133	3.86
244.515	3.42
244.897	3.32
245.279	3.55
245.661	3.35
246.043	3.57
246.425	2.72
246.807	3.9
247.189	2.8
247.571	4.07
247.953	4.55
248.335	3.55
248.717	3.78
249.098	3.2
249.48	3.24
249.862	3.29
250.243	3.67
250.625	3.53
251.006	3.3
251.388	3.41
251.769	4.58
252.151	4.11
252.532	4.34
252.913	4.33
253.295	4.28
253.676	3.47
254.057	3.96
254.438	3.81
254.819	3.15
255.2	3.26
255.581	2.95
255.962	4.25
256.343	2.65
256.724	3.58
257.105	3.35
257.486	2.79
257.867	3.52
258.247	4.43
258.628	4.43
259.009	3.01
259.389	3.05
259.77	3.74
260.15	3.67
260.531	2.98
260.911	3.37
261.292	2.88
261.672	3.27
262.052	3.17
262.432	3.25
262.813	3.33
263.193	2.99
263.573	3.98
263.953	3.29
264.333	3.59
264.713	3.23
265.093	3.47
265.473	3.24
265.853	3.36
266.233	4.15
266.612	2.44
266.992	3.41
267.372	3.57
267.752	3.63
268.131	3.07
268.511	3.11
268.89	3.76
269.27	3.21
269.649	2.83
270.029	3.33
270.408	3.61
270.787	2.92
271.167	3.03
271.546	3.97
271.925	3.46
272.304	2.55
272.683	3.21
273.062	4.07
273.441	2.62
273.82	3.51
274.199	3.33
274.578	3.33
274.957	3.05
275.336	2.81
275.715	3.28
276.093	2.79
276.472	2.79
276.851	3.3
277.229	2.72
277.608	3.3
277.986	2.92
278.365	3.15
278.743	4.08
279.122	3.84
279.5	3.72
279.878	3.03
280.257	3.87
280.635	3.58
281.013	3.71
281.391	3.02
281.769	3.12
282.147	3.76
282.525	3.15
282.903	3.43
283.281	3.3
283.659	3.66
284.037	3.15
284.415	3.39
284.792	3
285.17	3.52
285.548	3.3
285.925	3.1
286.303	2.84
286.68	2.98
287.058	2.84
287.435	3.2
287.813	3.05
288.19	2.76
288.567	3.15
288.945	2.83
289.322	2.81
289.699	3.17
290.076	3.47
290.453	3.14
290.83	2.56
291.207	3.15
291.584	2.83
291.961	2.47
292.338	3.05
292.715	3.17
293.092	3.04
293.469	3.18
293.845	3.21
294.222	3.26
294.599	3.59
294.975	4.13
295.352	3.48
295.728	3.2
296.105	3.34
296.481	3.01
296.858	3.74
297.234	3.05
297.61	3.33
297.986	3.33
298.363	3.53
298.739	3.55
299.115	3.55
299.491	3.51
299.867	3.28
300.243	2.98
300.619	3.49
300.995	3.4
301.371	3.61
301.746	3.82
302.122	3.38
302.498	2.72
302.874	3.09
303.249	3.62
303.625	3.46
304	3.4
304.376	3.95
304.751	3.62
305.127	3.46
305.502	3.98
305.878	3.75
306.253	3.51
306.628	2.87
307.003	3.72
307.378	3.63
307.754	3.3
308.129	3.58
308.504	3.16
308.879	3.4
309.254	3.68
309.629	3.14
310.003	3.94
310.378	3.61
310.753	3.99
311.128	3.35
311.502	3.93
311.877	2.92
312.252	3.51
312.626	3.45
313.001	3.83
313.375	3.84
313.75	3.75
314.124	3.94
314.498	3.43
314.873	3.44
315.247	3.8
315.621	3.69
315.995	3.65
316.369	3.81
316.743	3.7
317.117	3.55
317.491	3.73
317.865	3.12
318.239	3.92
318.613	4.07
318.987	3.35
319.361	3.64
319.734	2.98
320.108	4.5
320.482	3.21
320.855	3.9
321.229	4.02
321.602	3.4
321.976	3.66
322.349	3.81
322.723	3.66
323.096	3.57
323.469	3.16
323.843	3.64
324.216	4.08
324.589	3.83
324.962	3.38
325.335	3.85
325.708	3.13
326.081	4.05
326.454	3.34
326.827	3.72
327.2	3.48
327.573	3.83
327.945	3.97
328.318	3.58
328.691	4.04
329.063	3.88
329.436	3.59
329.809	3.81
330.181	3.59
330.553	3.45
330.926	3.53
331.298	4.01
331.671	4.02
332.043	3.28
332.415	3.33
332.787	4.08
333.159	4.11
333.532	3.22
333.904	3.54
334.276	3.42
334.648	3.23
335.02	3.41
335.391	4.15
335.763	3.91
336.135	3.3
336.507	3.82
336.879	3.28
337.25	3.67
337.622	3.87
337.993	3.54
338.365	3.96
338.736	3.77
339.108	4.32
339.479	4.01
339.851	3.2
340.222	3.38
340.593	3.82
340.964	2.98
341.336	3.51
341.707	3.67
342.078	3.54
342.449	3.99
342.82	3.22
343.191	3.58
343.562	3.59
343.933	3.88
344.303	3.69
344.674	3.76
345.045	3.81
345.416	3.89
345.786	3.49
346.157	3.52
346.527	3.45
346.898	3.5
347.268	3.61
347.639	3.9
348.009	3.39
348.38	3.9
348.75	4.09
349.12	3.61
349.49	3.64
349.861	3.68
350.231	3.51
350.601	3.54
350.971	4.07
351.341	3.84
351.711	3.85
352.081	3.63
352.45	3.78
352.82	3.97
353.19	3.8
353.56	4
353.929	3.81
354.299	3.92
354.669	3.29
355.038	3.43
355.408	3.58
355.777	4.07
356.147	3.83
356.516	4.18
356.885	3.76
357.254	3.96
357.624	3.36
357.993	3.56
358.362	3.75
358.731	3.68
359.1	3.7
359.469	3.84
359.838	3.56
360.207	3.47
360.576	3.91
360.945	3.42
361.314	3.93
361.682	3.63
362.051	4
362.42	3.61
362.788	3.43
363.157	3.96
363.525	3.88
363.894	3.76
364.262	3.81
364.631	3.63
364.999	3.42
365.367	3.97
365.735	3.62
366.104	3.51
366.472	4.06
366.84	3.81
367.208	3.97
367.576	3.57
367.944	3.83
368.312	3.97
368.68	3.79
369.048	4.25
369.416	3.94
369.783	3.83
370.151	3.84
370.519	3.76
370.886	3.77
371.254	3.7
371.621	3.62
371.989	3.6
372.356	3.68
372.724	3.89
373.091	3.91
373.458	3.69
373.826	3.89
374.193	3.9
374.56	4.2
374.927	3.93
375.294	3.85
375.661	3.75
376.028	3.98
376.395	3.86
376.762	3.68
377.129	3.79
377.496	4.27
377.863	3.87
378.229	3.84
378.596	3.66
378.963	3.99
379.329	3.8
379.696	4.07
380.062	3.72
380.429	3.91
380.795	3.93
381.161	3.8
381.528	3.77
381.894	3.48
382.26	3.75
382.626	3.86
382.993	4
383.359	3.69
383.725	3.74
384.091	3.83
384.457	3.79
384.823	3.78
385.188	4.12
385.554	3.9
385.92	3.98
386.286	3.98
386.651	3.96
387.017	3.85
387.383	4.04
387.748	3.94
388.114	3.87
388.479	3.85
388.845	3.52
389.21	3.78
389.575	4.14
389.94	3.75
390.306	3.96
390.671	4.32
391.036	3.61
391.401	3.89
391.766	3.74
392.131	3.8
392.496	3.75
392.861	3.61
393.226	4.09
393.591	4.11
393.956	4.02
394.32	3.88
394.685	3.91
395.05	4.25
395.414	3.93
395.779	3.93
396.143	4.04
396.508	3.96
396.872	3.8
397.236	3.99
397.601	3.93
397.965	3.97
398.329	4.02
398.694	4.07
399.058	3.91
399.422	3.93
399.786	4.11
400.15	4.14
400.514	4.07
400.878	4.02
401.242	3.82
401.605	3.96
401.969	3.67
402.333	4.09
402.697	3.88
403.06	3.8
403.424	4.03
403.787	4.07
404.151	4.06
404.514	4.42
404.878	4.28
405.241	4.53
405.604	4.14
405.968	3.86
406.331	3.88
406.694	3.8
407.057	3.65
407.42	3.95
407.783	4.19
408.146	4.07
408.509	3.79
408.872	3.76
409.235	4.09
409.598	3.89
409.961	3.98
410.323	4.13
410.686	4.02
411.049	4.09
411.411	4.21
411.774	4.02
412.136	3.99
412.499	4
412.861	3.98
413.223	4.06
413.586	3.93
413.948	4.1
414.31	4.14
414.672	3.83
415.035	3.93
415.397	4.02
415.759	4.15
416.121	3.97
416.483	3.94
416.845	4.07
417.206	4.02
417.568	4.07
417.93	4.05
418.292	4.2
418.653	3.87
419.015	4.07
419.377	3.89
419.738	4.12
420.1	3.82
420.461	4.07
420.822	4.03
421.184	3.84
421.545	3.91
421.906	4.01
422.267	3.91
422.629	4.02
422.99	3.94
423.351	3.82
423.712	3.9
424.073	3.82
424.434	3.94
424.795	3.96
425.155	4.04
425.516	4
425.877	3.96
426.238	3.88
426.598	3.86
426.959	3.85
427.32	3.99
427.68	3.96
428.041	4.04
428.401	4.06
428.761	4.01
429.122	4.11
429.482	4.09
429.842	3.94
430.202	3.98
430.563	4.18
430.923	4.19
431.283	4.13
431.643	4.27
432.003	4.06
432.363	4.15
432.722	4.08
433.082	4.33
433.442	3.9
433.802	4.15
434.161	3.97
434.521	3.95
434.881	4.1
435.24	3.99
435.6	3.87
435.959	3.94
436.319	3.98
436.678	4.19
437.037	4.17
437.396	3.92
437.756	3.97
438.115	4.12
438.474	4.17
438.833	4.04
439.192	4.06
439.551	4.06
439.91	4.09
440.269	4.15
440.628	3.94
440.987	4.04
441.345	4.13
441.704	4.3
442.063	3.99
442.421	4.03
442.78	4.04
443.138	4.06
443.497	4.11
443.855	4.05
444.214	3.94
444.572	4.2
444.93	4.25
445.288	4.12
445.647	4.17
446.005	4.05
446.363	3.9
446.721	4.16
447.079	4
447.437	4.12
447.795	4.17
448.153	4.01
448.51	4.03
448.868	3.99
449.226	4.1
449.584	3.98
449.941	4.05
450.299	4.22
450.656	4.15
451.014	4.26
451.371	4.12
451.729	4.14
452.086	4.29
452.443	4.27
452.801	4.28
453.158	4.29
453.515	4.16
453.872	4.23
454.229	4.21
454.586	4.24
454.943	4.16
455.3	4.22
455.657	4.1
456.014	4.34
456.371	4.11
456.727	4.43
457.084	4.21
457.441	4.09
457.797	4.23
458.154	4.19
458.51	4.09
458.867	4.21
459.223	4.34
459.58	4.23
459.936	4.29
460.292	4.24
460.648	4.35
461.005	4.36
461.361	4.21
461.717	4.02
462.073	4.17
462.429	4.05
462.785	4.14
463.141	4.14
463.496	4.26
463.852	4.18
464.208	4.24
464.564	4.41
464.919	4.23
465.275	4.4
465.631	4.35
465.986	4.33
466.342	4.34
466.697	4.3
467.052	4.34
467.408	4.42
467.763	4.31
468.118	4.41
468.473	4.12
468.829	4.21
469.184	4.16
469.539	4.36
469.894	4.37
470.249	4.44
470.603	4.24
470.958	4.28
471.313	4.37
471.668	4.33
472.023	4.47
472.377	4.3
472.732	4.37
473.086	4.42
473.441	4.14
473.795	4.49
474.15	4.31
474.504	4.19
474.859	4.5
475.213	4.32
475.567	4.22
475.921	4.36
476.275	4.49
476.63	4.38
476.984	4.38
477.338	4.38
477.692	4.4
478.045	4.61
478.399	4.64
478.753	4.39
479.107	4.44
479.461	4.33
479.814	4.51
480.168	4.35
480.521	4.3
480.875	4.44
481.228	4.5
481.582	4.34
481.935	4.32
482.289	4.37
482.642	4.35
482.995	4.37
483.348	4.49
483.701	4.36
484.055	4.44
484.408	4.35
484.761	4.39
485.114	4.16
485.466	4.15
485.819	4.11
486.172	4.11
486.525	4.11
486.878	4.09
487.23	4.16
487.583	4.23
487.936	4.29
488.288	4.36
488.641	4.33
488.993	4.27
489.345	4.28
489.698	4.23
490.05	4.27
490.402	4.24
490.754	4.21
491.107	4.21
491.459	4.35
491.811	4.29
492.163	4.4
492.515	4.41
492.866	4.43
493.218	4.43
493.57	4.38
493.922	4.32
494.274	4.27
494.625	4.32
494.977	4.39
495.328	4.5
495.68	4.48
496.031	4.56
496.383	4.59
496.734	4.57
497.086	4.55
497.437	4.5
497.788	4.59
498.139	4.65
498.49	4.62
498.842	4.45
499.193	4.53
499.544	4.57
499.894	4.47
500.245	4.6
500.596	4.55
500.947	4.62
501.298	4.63
501.648	4.56
501.999	4.7
502.35	4.74
502.7	4.79
503.051	4.64
503.401	4.82
503.752	4.69
504.102	4.58
504.452	4.59
504.803	4.64
505.153	4.63
505.503	4.64
505.853	4.76
506.203	4.72
506.553	4.64
506.903	4.78
507.253	4.65
507.603	4.71
507.953	4.73
508.303	4.71
508.652	4.68
509.002	4.79
509.352	4.68
509.701	4.8
510.051	4.72
510.4	4.68
510.75	4.73
511.099	4.66
511.449	4.71
511.798	4.81
512.147	4.81
512.496	4.7
512.846	4.78
513.195	4.8
513.544	4.84
513.893	4.77
514.242	4.73
514.591	4.88
514.939	4.88
515.288	4.82
515.637	4.76
515.986	4.77
516.334	4.99
516.683	4.79
517.032	4.96
517.38	4.96
517.729	4.94
518.077	4.9
518.426	4.87
518.774	4.88
519.122	5.04
519.47	4.95
519.819	4.91
520.167	4.87
520.515	4.81
520.863	4.83
521.211	4.76
521.559	4.82
521.907	4.93
522.255	4.98
522.602	5.01
522.95	4.96
523.298	4.97
523.645	5.04
523.993	4.92
524.341	5.03
524.688	5
525.036	5.11
525.383	5.03
525.73	5.18
526.078	5.07
526.425	5.12
526.772	5.13
527.119	5.15
527.466	5.05
527.814	5.06
528.161	5
528.508	5
528.854	5
529.201	5.08
529.548	5.04
529.895	4.95
530.242	4.98
530.588	4.94
530.935	4.87
531.282	4.88
531.628	4.91
531.975	4.9
532.321	4.94
532.667	5.04
533.014	5.16
533.36	5.16
533.706	5.16
534.052	5.2
534.399	5.26
534.745	5.24
535.091	5.13
535.437	5.15
535.783	4.99
536.129	5.14
536.474	5.17
536.82	5.13
537.166	5.33
537.512	5.27
537.857	5.4
538.203	5.43
538.549	5.27
538.894	5.25
539.239	5.33
539.585	5.27
539.93	5.51
540.276	5.48
540.621	5.49
540.966	5.43
541.311	5.5
541.656	5.39
542.001	5.5
542.346	5.53
542.691	5.6
543.036	5.45
543.381	5.39
543.726	5.33
544.071	5.36
544.415	5.39
544.76	5.37
545.105	5.3
545.449	5.38
545.794	5.57
546.138	5.52
546.483	5.55
546.827	5.52
547.171	5.62
547.516	5.77
547.86	5.76
548.204	5.69
548.548	5.71
548.892	5.8
549.236	5.67
549.58	5.75
549.924	5.77
550.268	5.85
550.612	5.76
550.956	5.85
551.3	6.01
551.643	5.96
551.987	5.99
552.33	6.17
552.674	5.92
553.017	6.02
553.361	5.97
553.704	6.02
554.048	6.01
554.391	6.14
554.734	6.04
555.077	6.06
555.42	6.09
555.764	6.12
556.107	6.1
556.45	6.02
556.793	6.11
557.135	6.16
557.478	6.2
557.821	6.35
558.164	6.28
558.507	6.34
558.849	6.2
559.192	6.4
559.534	6.4
559.877	6.46
560.219	6.38
560.562	6.4
560.904	6.28
561.246	6.47
561.589	6.33
561.931	6.47
562.273	6.37
562.615	6.42
562.957	6.29
563.299	6.56
563.641	6.53
563.983	6.64
564.325	6.61
564.667	6.66
565.008	6.48
565.35	6.67
565.692	6.59
566.033	6.61
566.375	6.72
566.716	6.66
567.058	6.86
567.399	6.65
567.741	6.86
568.082	6.68
568.423	6.77
568.764	6.97
569.105	6.69
569.447	6.7
569.788	6.63
570.129	6.85
570.47	7.01
570.811	6.93
571.151	6.95
571.492	6.84
571.833	6.85
572.174	6.93
572.514	7.1
572.855	7.09
573.195	6.93
573.536	7.02
573.876	7
574.217	6.94
574.557	6.99
574.898	7.11
575.238	6.89
575.578	7.21
575.918	7.11
576.258	7.11
576.598	7.22
576.938	7.23
577.278	7.2
577.618	7.26
577.958	7.25
578.298	7.33
578.638	7.24
578.977	7.42
579.317	7.37
579.657	7.24
579.996	7.56
580.336	7.49
580.675	7.58
581.014	7.41
581.354	7.59
581.693	7.63
582.032	7.49
582.372	7.67
582.711	7.65
583.05	7.6
583.389	7.69
583.728	7.57
584.067	7.78
584.406	7.73
584.745	7.75
585.083	7.91
585.422	7.94
585.761	7.79
586.1	7.69
586.438	7.7
586.777	7.88
587.115	8.16
587.454	7.93
587.792	8.03
588.13	8.32
588.469	8.05
588.807	8.15
589.145	8.21
589.483	8.32
589.821	8.36
590.159	8.23
590.497	8.33
590.835	8.33
591.173	8.08
591.511	8.29
591.849	8.29
592.187	8.32
592.524	8.48
592.862	8.18
593.2	8.44
593.537	8.25
593.875	8.37
594.212	8.47
594.55	8.78
594.887	8.38
595.224	8.67
595.561	8.69
595.899	8.86
596.236	9.04
596.573	8.71
596.91	8.84
597.247	8.71
597.584	8.68
597.921	8.8
598.258	8.87
598.594	8.69
598.931	8.71
599.268	8.77
599.604	8.78
599.941	8.81
600.277	8.73
600.614	8.94
600.95	8.96
601.287	9.01
601.623	8.93
601.959	8.74
602.296	9.08
602.632	8.92
602.968	9.27
603.304	9.33
603.64	8.93
603.976	9.33
604.312	9.31
604.648	9.28
604.984	9.23
605.319	9.33
605.655	9.03
605.991	9.44
606.326	9.52
606.662	9.34
606.998	9.26
607.333	9.38
607.668	9.29
608.004	9.39
608.339	9.38
608.674	9.58
609.01	9.7
609.345	9.78
609.68	9.7
610.015	9.68
610.35	9.84
610.685	9.9
611.02	9.69
611.355	9.97
611.689	9.89
612.024	9.79
612.359	9.85
612.694	9.84
613.028	9.78
613.363	9.82
613.697	9.87
614.032	10
614.366	10.13
614.7	10.05
615.035	10.34
615.369	9.93
615.703	10.09
616.037	10.38
616.371	10.37
616.705	10.46
617.039	10.12
617.373	10.31
617.707	10.2
618.041	10.49
618.375	10.51
618.709	10.28
619.042	10.57
619.376	10.57
619.71	10.45
620.043	10.46
620.377	10.51
620.71	10.25
621.043	10.78
621.377	10.59
621.71	10.59
622.043	10.52
622.376	10.95
622.709	10.92
623.043	10.83
623.376	11.05
623.709	11.08
624.041	10.71
624.374	11.05
624.707	10.91
625.04	10.91
625.373	10.51
625.705	10.93
626.038	10.74
626.37	11.33
626.703	11.35
627.035	11.24
627.368	11.26
627.7	11.26
628.032	11.33
628.365	11.5
628.697	11.41
629.029	11.11
629.361	11.07
629.693	11.4
630.025	11.29
630.357	11.04
630.689	11.61
631.021	11.41
631.353	11.29
631.684	11.38
632.016	11.78
632.348	11.76
632.679	11.98
633.011	11.54
633.342	11.63
633.674	12.02
634.005	11.52
634.336	11.79
634.668	12.18
634.999	11.92
635.33	11.9
635.661	11.89
635.992	11.71
636.323	11.8
636.654	11.99
636.985	11.75
637.316	12.01
637.647	11.87
637.977	11.67
638.308	12.27
638.639	11.89
638.969	12.18
639.3	12.02
639.63	12.31
639.961	11.98
640.291	11.96
640.622	12.32
640.952	12.42
641.282	13.05
641.612	12.37
641.943	12.43
642.273	12.34
642.603	12.89
642.933	12.46
643.263	12.08
643.592	12.73
643.922	12.81
644.252	12.69
644.582	13.02
644.911	12.75
645.241	12.93
645.571	12.73
645.9	12.91
646.23	13.39
646.559	12.7
646.888	13.06
647.218	13.01
647.547	12.82
647.876	13.09
648.205	12.78
648.534	13.44
648.863	13.37
649.192	13.03
649.521	13.25
649.85	13.61
650.179	13.42
650.508	12.97
650.837	13.47
651.165	13.44
651.494	12.99
651.822	13.33
652.151	13.01
652.479	13.22
652.808	13.44
653.136	14.08
653.465	13.35
653.793	13.53
654.121	13.61
654.449	13.28
654.777	13.55
655.105	13.47
655.433	13.62
655.761	13.98
656.089	13.94
656.417	13.91
656.745	13.9
657.073	13.95
657.4	14.22
657.728	14.06
658.056	14.55
658.383	14.04
658.711	14.37
659.038	13.76
659.365	13.79
659.693	13.87
660.02	14.55
660.347	14.21
660.674	14.25
661.001	14.15
661.329	14.22
661.656	14.26
661.982	14.27
662.309	14.45
662.636	14.62
662.963	14.38
663.29	14.82
663.616	14.3
663.943	14.97
664.27	14.26
664.596	14.71
664.923	14.46
665.249	14.73
665.576	14.37
665.902	14.63
666.228	14.69
666.554	14.44
666.881	15.2
667.207	15.14
667.533	14.8
667.859	14.61
668.185	15.05
668.511	15.19
668.837	14.68
669.162	14.94
669.488	15.11
669.814	15.1
670.139	15.1
670.465	15.5
670.791	15.87
671.116	15.21
671.442	15.27
671.767	14.73
672.092	16.11
672.418	15.38
672.743	15.69
673.068	15.97
673.393	15.46
673.718	15.84
674.043	15.42
674.368	15.82
674.693	15.73
675.018	15.12
675.343	15.78
675.667	15.53
675.992	15.69
676.317	16.61
676.641	16.06
676.966	16.03
677.29	15.09
677.615	16.06
677.939	16.43
678.264	16
678.588	16.24
678.912	15.88
679.236	16.06
679.56	16.18
679.885	15.98
680.209	16.55
680.532	15.93
680.856	16.28
681.18	16.06
681.504	16.66
681.828	16.26
682.152	15.67
682.475	16.78
682.799	16.24
683.122	16.44
683.446	16.5
683.769	17.25
684.093	16.92
684.416	16.84
684.739	16.39
685.062	17.1
685.386	16.4
685.709	16.48
686.032	16.28
686.355	16.14
686.678	17.31
687.001	17.03
687.324	17.44
687.646	17.34
687.969	17.19
688.292	16.81
688.614	17.77
688.937	16.61
689.26	16.17
689.582	17.36
689.904	17.43
690.227	17.35
690.549	17.11
690.871	17.42
691.194	17.14
691.516	16.88
691.838	17.48
692.16	17.37
692.482	17.21
692.804	16.72
693.126	16.39
693.448	18.36
693.769	16.82
694.091	17.67
694.413	17.4
694.735	17.6
695.056	17.98
695.378	17.69
695.699	17.32
696.021	17.45
696.342	17.99
696.663	17.16
696.984	17.43
697.306	17.74
697.627	16.91
697.948	18.07
698.269	17.8
698.59	17.41
698.911	17.93
699.232	17.57
699.553	18.38
699.873	18.03
700.194	17.89
700.515	18.05
700.835	18.5
701.156	18.99
701.477	18.39
701.797	18.39
702.117	18.2
702.438	18.15
702.758	17.46
703.078	19.13
703.398	19.45
703.719	18.15
704.039	18.4
704.359	18.1
704.679	17.51
704.999	19.57
705.319	18.46
705.638	18.61
705.958	19.45
706.278	19.65
706.597	19.61
706.917	19.35
707.237	18.7
707.556	18.38
707.876	18.21
708.195	19.63
708.514	19.24
708.834	18.92
709.153	19.61
709.472	19.51
709.791	18.37
710.11	19.8
710.429	19.49
710.748	20.11
711.067	19.81
711.386	19.57
711.705	19.72
712.023	19.94
712.342	20.25
712.661	19.25
712.979	19.98
713.298	20.44
713.616	20.05
713.935	20.6
714.253	19.15
714.572	20.51
714.89	20.49
715.208	20.56
715.526	18.53
715.844	20.56
716.162	19.22
716.48	20.85
716.798	19.68
717.116	19.96
717.434	20.08
717.752	20.17
718.069	19.73
718.387	20.92
718.705	19.96
719.022	19.54
719.34	20.29
719.657	19.38
719.975	20.78
720.292	19.69
720.609	20.45
720.927	19.72
721.244	20.54
721.561	20.66
721.878	20.59
722.195	21.18
722.512	21.38
722.829	21.3
723.146	21.52
723.463	21.11
723.779	20.72
724.096	20.39
724.413	22.94
724.729	22.34
725.046	20.1
725.362	21.77
725.679	21.7
725.995	21.13
726.311	19.91
726.628	21.75
726.944	20.79
727.26	20.29
727.576	20.09
727.892	20.74
728.208	20.87
728.524	23.06
728.84	20
729.156	21.89
729.472	21.72
729.787	21.52
730.103	20.5
730.419	23.21
730.734	22.2
731.05	20.62
731.365	21.45
731.681	21.11
731.996	22.3
732.311	22.69
732.626	21.02
732.942	22.63
733.257	21.71
733.572	21.25
733.887	21.42
734.202	22.87
734.517	22.49
734.832	22.93
735.146	22.91
735.461	22.87
735.776	21.15
736.091	20.41
736.405	21.51
736.72	21.47
737.034	22.35
737.349	21.09
737.663	21.36
737.977	22.93
738.292	21.43
738.606	21.88
738.92	21.36
739.234	21.84
739.548	22.89
739.862	22.13
740.176	23.58
740.49	22.38
740.804	22.31
741.117	24.39
741.431	23.51
741.745	22.22
742.058	22.42
742.372	22.19
742.685	22.22
742.999	23.64
743.312	24.69
743.626	23.06
743.939	22.49
744.252	23.63
744.565	22.26
744.878	23.71
745.191	25.05
745.505	22.32
745.817	22.83
746.13	24.08
746.443	24.04
746.756	24.73
747.069	22.8
747.381	21.89
747.694	23.66
748.007	23.5
748.319	23.49
748.632	23.86
748.944	23.79
749.256	25.02
749.569	22.74
749.881	24.42
750.193	23.81
750.505	23.87
750.817	24.41
751.129	25.13
751.441	24.76
751.753	24.23
752.065	26.26
752.377	23.65
752.689	23.61
753	24.91
753.312	25.04
753.624	24.29
753.935	24.42
754.247	24.84
754.558	24.7
754.869	23.58
755.181	24.04
755.492	24.62
755.803	27.97
756.114	26
756.425	26.33
756.736	24.34
757.047	25.68
757.358	26.06
757.669	24.18
757.98	23.32
758.291	25.6
758.601	24.97
758.912	23.11
759.223	28.04
759.533	25.5
759.844	26.87
760.154	24.14
760.464	24.76
760.775	25.16
761.085	26.12
761.395	26.56
761.705	23.28
762.016	24.82
762.326	24.21
762.636	25.45
762.945	25.71
763.255	24.36
763.565	26.32
763.875	23.05
764.185	26.39
764.494	26.24
764.804	23.54
765.113	24.7
765.423	25.38
765.732	26.83
766.042	26.86
766.351	24.85
766.66	26.64
766.97	24.85
767.279	25.06
767.588	25.46
767.897	25.82
768.206	24.74
768.515	25.83
768.824	25.02
769.133	26.75
769.441	26.35
769.75	27.37
770.059	27.76
770.367	24.85
770.676	28.21
770.984	25.88
771.293	27.31
771.601	27.97
771.91	26.62
772.218	26.18
772.526	27.06
772.834	28.48
773.142	25.68
773.45	27.16
773.758	26
774.066	27.98
774.374	27.42
774.682	24.62
774.99	28.39
775.298	24.5
775.605	25.53
775.913	29.12
776.22	27.03
776.528	26.95
776.835	24.97
777.143	25.15
777.45	29.08
777.757	26.6
778.065	27.76
778.372	25.51
778.679	27.48
778.986	29.62
779.293	22.86
779.6	26.5
779.907	25.95
780.214	31.87
780.52	24.04
780.827	28.17
781.134	27.08
781.44	28.34
781.747	28.42
782.053	29.8
782.36	28.04
782.666	27.79
782.973	29.61
783.279	27.39
783.585	28.33
783.891	28.94
784.197	29.78
784.503	26.94
784.809	25.61
785.115	28.12
785.421	34.2
785.727	31.55
786.033	26.6
786.339	27.8
786.644	32.54
786.95	27.98
787.255	29.2
787.561	30.6
787.866	29.69
788.172	30.33
788.477	30.7
788.782	29.58
789.088	26.45
789.393	28.02
789.698	29.18
790.003	32.64
790.308	26.96
790.613	28.86
790.918	27.8
791.223	27.99
791.527	26.01
791.832	26.85
792.137	29.8
792.441	34.87
792.746	24.73
793.05	29.74
793.355	32.59
793.659	29.51
793.963	29.76
794.268	26.62
794.572	33.97
794.876	28.48
795.18	29.82
795.484	28.68
795.788	29.44
796.092	29.5
796.396	30.2
796.7	31.21
797.004	26.9
797.307	28.31
797.611	29.47
797.915	28.91
798.218	27.8
798.522	28.91
798.825	28.45
799.128	30.31
799.432	28.32
799.735	30.37
800.038	31.4
800.341	31.79
800.644	30.8
800.947	31.43
801.25	32.65
801.553	29.26
801.856	36.83
802.159	29
802.462	25.38
802.764	29.07
803.067	36.22
803.37	33.86
803.672	29.75
803.975	27.25
804.277	31.13
804.579	32.11
804.882	30.7
805.184	34.12
805.486	27.3
805.788	31.43
806.09	33.03
806.392	31.58
806.694	35.35
806.996	30.43
807.298	29.53
807.6	36.06
807.902	28.31
808.203	24.55
808.505	29.33
808.807	33.37
809.108	31.52
809.409	32.04
809.711	29.84
810.012	27.94
810.313	28.76
810.615	31.14
810.916	27.57
811.217	32.1
811.518	32.18
811.819	32.9
812.12	35.24
812.421	33.95
812.722	28.62
813.023	29.93
813.323	31.33
813.624	35.08
813.925	35.34
814.225	33.98
814.526	30.56
814.826	32.08
815.126	36.82
815.427	30.99
815.727	29.99
816.027	28.3
816.327	38.83
816.627	32.62
816.927	37.81
817.227	36.52
817.527	33.48
817.827	29.08
818.127	28.33
818.427	31.71
818.727	30.72
819.026	32.27
819.326	31.45
819.625	36.63
819.925	36.53
820.224	31.97
820.524	34.91
820.823	34.62
821.122	32.17
821.421	34.92
821.72	33.75
822.019	32.9
822.318	32.67
822.617	30.19
822.916	30.31
823.215	32.31
823.514	31.15
823.813	34.13
824.111	35.61
824.41	36.42
824.709	32.94
825.007	33.6
825.306	32.62
825.604	32.91
825.902	33.15
826.201	32.22
826.499	33
826.797	33.42
827.095	33.86
827.393	34.62
827.691	32.24
827.989	32.9
828.287	31.08
828.585	32.98
828.882	32.52
829.18	31.75
829.478	33.08
829.775	33.24
830.073	31.87
830.37	33.19
830.668	32.38
830.965	33.38
831.263	33.94
831.56	31.87
831.857	33.62
832.154	34.41
832.451	35.01
832.748	33.1
833.045	36.19
833.342	33.03
833.639	36.4
833.936	35.56
834.232	33.06
834.529	38.24
834.826	32.31
835.122	33.99
835.419	27.89
835.715	36.16
836.012	34.9
836.308	35.23
836.604	35.77
836.901	31.08
837.197	38.22
837.493	35.42
837.789	33.15
838.085	31.26
838.381	35.82
838.677	35.22
838.972	33.78
839.268	35.45
839.564	38.3
839.86	34.87
840.155	34.37
840.451	27.73
840.746	39.96
841.042	36.05
841.337	36.09
841.632	36.91
841.928	38.98
842.223	35.76
842.518	40
842.813	38.71
843.108	29.59
843.403	35.02
843.698	40.43
843.993	31.9
844.287	43.91
844.582	31.04
844.877	30.62
845.171	40.95
845.466	43.12
845.761	24.72
846.055	27.26
846.349	32.4
846.644	38.12
846.938	40.25
847.232	36.17
847.526	35.37
847.82	46.73
848.114	56.49
848.408	46.19
848.702	43.04
848.996	29
849.29	21.86
849.584	37.14
849.877	48.01
850.171	33.62
850.465	41.32
850.758	27.6
851.052	29.2
851.345	50.82
851.638	46.73
851.932	48.7
852.225	44.14
852.518	39.64
852.811	46.24
853.104	29.64
853.397	44.87
853.69	48.56
853.983	31.75
854.276	20.3
854.569	46.93
854.861	21.67
855.154	42.36
855.447	36.6
855.739	46.71
856.032	24.48
856.324	47.66
856.616	44.58
856.909	49.93
857.201	35.57
857.493	40.11
857.785	51.38
858.077	32.37
858.369	33.33
858.661	36.2
858.953	44.68
859.245	38.99
859.537	53.24
859.829	41.47
860.12	48.97
860.412	20.27
860.703	26.55
860.995	25.75
861.286	24.87
861.578	47.69
861.869	44.04
862.16	52.75
862.452	32.45
862.743	55.56
863.034	63.82
863.325	35.4
863.616	28.26
863.907	43.82
864.198	36.03
864.488	30.53
864.779	34.51
865.07	28.52
865.36	19.18
865.651	54.5
865.941	18.01
866.232	32.94
866.522	50.67
866.813	41
867.103	38.31
867.393	39.49
867.683	50.07
867.973	46.01
868.263	24.59
868.553	24.96
868.843	50.68
869.133	28.88
869.423	43.23
869.713	33.39
870.002	42.14
870.292	27.15
870.582	43.75
870.871	20.12
871.161	35.74
871.45	11.82
871.739	22.79
872.029	28.88
872.318	39.06
872.607	52.79
872.896	18.19
873.185	45.95
873.474	27.16
873.763	12.43
874.052	16.6
874.341	48.79
874.63	10.97
874.918	44.12
875.207	58.91
875.496	37.71
875.784	42.13
876.073	42.39
876.361	52.79
876.649	47.69
876.938	41.26
877.226	29.41
877.514	11.07
877.802	25.44
878.09	45.23
878.378	49.23
878.666	45.33
878.954	40.77
879.242	34.55
879.53	41.72
879.817	22.5
880.105	22.28
880.392	38.43
880.68	44.17
880.967	52.28
881.255	61.1
881.542	36.71
881.83	75.52
882.117	12.13
882.404	64.59
882.691	53.84
882.978	65.32
883.265	32.95
883.552	53.22
883.839	26.44
884.126	52.08
884.413	31.45
884.699	47.24
884.986	47.21
885.273	37.47
885.559	37.47
885.846	37.47
