Data from 0112_crown_Reflection__0__195.txt Node

Date: Fri Sep 22 22:25:47 CDT 2023
User: ToomeyLab
Spectrometer: FLMS14357
Trigger mode: 0
Integration Time (sec): 1.000000E-2
Scans to average: 100
Electric dark correction enabled: true
Nonlinearity correction enabled: false
Boxcar width: 0
XAxis mode: Wavelengths
Number of Pixels in Spectrum: 2048
>>>>>Begin Spectral Data<<<<<
189.047	232.03
189.435	232.03
189.823	232.03
190.211	171.54
190.599	168.66
190.987	-25.14
191.375	25.86
191.763	-149.66
192.151	92.79
192.538	165.33
192.926	267.68
193.314	52.83
193.702	946.19
194.089	62.6
194.477	9.19
194.864	-22.19
195.252	-60.23
195.639	-606.87
196.027	6941.46
196.414	-69.28
196.801	288.75
197.189	-25.87
197.576	1541.52
197.963	-49.86
198.351	-68.03
198.738	14.48
199.125	-67.71
199.512	4.67
199.899	27.29
200.286	-39.77
200.673	-6.22
201.06	-30.26
201.447	24.05
201.833	-40.75
202.22	44.35
202.607	32.95
202.994	55.86
203.38	34.57
203.767	-24.64
204.154	29.56
204.54	15.21
204.927	-8.01
205.313	8.84
205.699	31.38
206.086	16.19
206.472	43.78
206.858	17.55
207.245	-7.61
207.631	14.57
208.017	1.53
208.403	-3.71
208.789	45.75
209.175	38.85
209.561	39.31
209.947	26.33
210.333	29.5
210.719	19.36
211.105	41.07
211.491	4.77
211.876	33.92
212.262	6.79
212.648	26.03
213.034	-12.87
213.419	-0.36
213.805	25.12
214.19	22.57
214.576	20.77
214.961	5.7
215.346	-11.8
215.732	-2.29
216.117	-7.63
216.502	31.05
216.888	4.73
217.273	6.28
217.658	-2.21
218.043	11.11
218.428	22.64
218.813	-49.84
219.198	-13.5
219.583	7.09
219.968	-10.72
220.353	27.35
220.738	-22.96
221.122	-2.41
221.507	17.13
221.892	-17.81
222.276	-15.05
222.661	-62.85
223.046	7.3
223.43	15.52
223.815	4.56
224.199	0.09
224.583	16.09
224.968	-0.35
225.352	-0.95
225.736	-3.06
226.121	2.1
226.505	0.65
226.889	3.73
227.273	3.1
227.657	7.81
228.041	-3.5
228.425	3.83
228.809	1.46
229.193	1.13
229.577	4.55
229.961	1.79
230.344	3.43
230.728	0.03
231.112	1.67
231.495	-0.02
231.879	1.1
232.263	1.24
232.646	0.24
233.03	0.18
233.413	1.34
233.797	1.7
234.18	1.28
234.563	4.53
234.946	2.28
235.33	-1.12
235.713	-1.64
236.096	-1.11
236.479	0.32
236.862	2.79
237.245	-1.05
237.628	1.24
238.011	2.12
238.394	0.52
238.777	0.77
239.16	0.59
239.543	1.5
239.925	0.28
240.308	2.08
240.691	2.85
241.073	3.97
241.456	0.49
241.838	0.35
242.221	0.36
242.603	1.61
242.986	1.62
243.368	0.15
243.75	0.73
244.133	1.84
244.515	0.76
244.897	0.51
245.279	0.94
245.661	0.76
246.043	0.78
246.425	-0.64
246.807	1.05
247.189	-0.68
247.571	0.75
247.953	1.58
248.335	1.29
248.717	1.19
249.098	0.98
249.48	0.89
249.862	0.79
250.243	1.24
250.625	0.95
251.006	0.77
251.388	1.33
251.769	1.29
252.151	0.72
252.532	0.53
252.913	0.82
253.295	2.01
253.676	1.8
254.057	1.26
254.438	1.73
254.819	0.88
255.2	1.21
255.581	1.2
255.962	1.95
256.343	-0.18
256.724	-0.3
257.105	0.99
257.486	1.59
257.867	1.16
258.247	1.84
258.628	1.88
259.009	1.16
259.389	0.2
259.77	1.01
260.15	1.48
260.531	0.74
260.911	1.03
261.292	1.28
261.672	0.58
262.052	0.99
262.432	0.96
262.813	0.98
263.193	0.44
263.573	1.19
263.953	1.47
264.333	1.47
264.713	0.77
265.093	1
265.473	0.95
265.853	0.93
266.233	1.68
266.612	0.12
266.992	1.23
267.372	0.95
267.752	0.79
268.131	0.58
268.511	0.77
268.89	0.86
269.27	0.77
269.649	1.49
270.029	0.79
270.408	0.55
270.787	0.76
271.167	1.09
271.546	0.59
271.925	0.8
272.304	0.86
272.683	1.37
273.062	1.21
273.441	1.35
273.82	1.04
274.199	0.99
274.578	1.17
274.957	0.8
275.336	0.97
275.715	1
276.093	0.61
276.472	0.45
276.851	0.98
277.229	0.1
277.608	0.86
277.986	0.73
278.365	0.81
278.743	0.4
279.122	0.99
279.5	1.04
279.878	0.66
280.257	1.45
280.635	0.83
281.013	0.78
281.391	0.18
281.769	0.98
282.147	0.92
282.525	0.62
282.903	0.59
283.281	1.05
283.659	1
284.037	0.34
284.415	1.03
284.792	0.89
285.17	1.41
285.548	1.49
285.925	0.86
286.303	0.84
286.68	0.83
287.058	0.5
287.435	1.03
287.813	0.7
288.19	0.8
288.567	1
288.945	0.61
289.322	0.53
289.699	0.98
290.076	1.02
290.453	0.13
290.83	0.74
291.207	1.06
291.584	0.66
291.961	0.74
292.338	1.12
292.715	1.23
293.092	0.49
293.469	0.89
293.845	0.69
294.222	1.13
294.599	0.8
294.975	0.64
295.352	1.1
295.728	1.04
296.105	0.66
296.481	0.79
296.858	1.08
297.234	0.42
297.61	0.52
297.986	1.06
298.363	0.48
298.739	0.54
299.115	0.92
299.491	1.15
299.867	1.05
300.243	0.6
300.619	0.85
300.995	0.55
301.371	1.38
301.746	1.23
302.122	0.55
302.498	0.56
302.874	0.69
303.249	0.77
303.625	0.26
304	1.06
304.376	1.12
304.751	1.1
305.127	1.17
305.502	1.55
305.878	0.82
306.253	1.35
306.628	0.53
307.003	0.93
307.378	0.83
307.754	0.63
308.129	0.76
308.504	0.89
308.879	0.89
309.254	1.32
309.629	1.13
310.003	0.87
310.378	1.32
310.753	1.12
311.128	0.78
311.502	1.07
311.877	0.68
312.252	0.77
312.626	0.67
313.001	1.08
313.375	0.84
313.75	1.39
314.124	1.29
314.498	0.73
314.873	0.68
315.247	1.41
315.621	1.1
315.995	1.11
316.369	1.2
316.743	1.07
317.117	1.11
317.491	1.16
317.865	0.6
318.239	0.58
318.613	0.86
318.987	1.02
319.361	0.47
319.734	0.58
320.108	1.08
320.482	0.84
320.855	0.97
321.229	1.26
321.602	1.33
321.976	0.74
322.349	1.12
322.723	0.86
323.096	0.91
323.469	1.06
323.843	0.35
324.216	0.72
324.589	1.07
324.962	0.34
325.335	0.83
325.708	0.99
326.081	1.26
326.454	0.68
326.827	0.72
327.2	0.71
327.573	1.15
327.945	1.1
328.318	1.13
328.691	1
329.063	0.72
329.436	1.01
329.809	1.1
330.181	1.33
330.553	0.55
330.926	0.99
331.298	1.31
331.671	0.85
332.043	0.04
332.415	0.99
332.787	1.37
333.159	1.13
333.532	0.96
333.904	0.85
334.276	0.56
334.648	0.56
335.02	0.94
335.391	1.26
335.763	0.71
336.135	1.1
336.507	0.81
336.879	1
337.25	0.88
337.622	1.21
337.993	1.17
338.365	1.22
338.736	1.2
339.108	0.69
339.479	0.49
339.851	0.54
340.222	0.65
340.593	0.99
340.964	0.98
341.336	0.71
341.707	0.72
342.078	0.97
342.449	0.85
342.82	0.69
343.191	0.61
343.562	1.11
343.933	1.14
344.303	0.86
344.674	1.27
345.045	0.59
345.416	1.35
345.786	0.78
346.157	1.16
346.527	1.03
346.898	0.48
347.268	0.73
347.639	0.91
348.009	0.93
348.38	1.11
348.75	1.34
349.12	1.02
349.49	1.22
349.861	0.82
350.231	1.18
350.601	1.12
350.971	1.33
351.341	1
351.711	0.69
352.081	0.78
352.45	0.78
352.82	1.24
353.19	1.13
353.56	0.83
353.929	0.74
354.299	0.77
354.669	0.81
355.038	0.53
355.408	0.86
355.777	1.17
356.147	0.95
356.516	1.02
356.885	0.68
357.254	1.17
357.624	0.58
357.993	0.83
358.362	1
358.731	0.93
359.1	0.92
359.469	0.94
359.838	0.63
360.207	0.61
360.576	0.7
360.945	0.86
361.314	0.9
361.682	1.23
362.051	0.93
362.42	0.91
362.788	0.55
363.157	0.93
363.525	0.83
363.894	0.96
364.262	0.77
364.631	0.75
364.999	0.69
365.367	1.08
365.735	0.76
366.104	0.93
366.472	0.73
366.84	0.54
367.208	1.15
367.576	1.08
367.944	0.79
368.312	1.13
368.68	0.68
369.048	1.24
369.416	0.75
369.783	0.39
370.151	0.62
370.519	0.79
370.886	1.1
371.254	0.68
371.621	0.69
371.989	0.95
372.356	0.6
372.724	1.09
373.091	0.99
373.458	0.94
373.826	1.02
374.193	1.27
374.56	0.99
374.927	1.02
375.294	0.92
375.661	0.82
376.028	0.75
376.395	1
376.762	0.94
377.129	0.9
377.496	1.26
377.863	1.11
378.229	0.81
378.596	0.91
378.963	1.31
379.329	0.81
379.696	1.11
380.062	0.67
380.429	0.98
380.795	1.08
381.161	0.93
381.528	0.7
381.894	0.62
382.26	0.75
382.626	0.9
382.993	1.1
383.359	0.64
383.725	0.85
384.091	1.05
384.457	0.66
384.823	0.89
385.188	1.03
385.554	0.92
385.92	1.24
386.286	0.98
386.651	0.94
387.017	0.92
387.383	0.82
387.748	0.8
388.114	0.93
388.479	0.86
388.845	0.43
389.21	0.63
389.575	1.08
389.94	0.73
390.306	1.26
390.671	1.23
391.036	0.69
391.401	0.75
391.766	1.04
392.131	0.81
392.496	1
392.861	0.85
393.226	1.08
393.591	1.03
393.956	1
394.32	1.03
394.685	0.86
395.05	1
395.414	1.11
395.779	0.97
396.143	1.01
396.508	0.94
396.872	0.79
397.236	1.04
397.601	0.72
397.965	1.14
398.329	1
398.694	0.85
399.058	0.97
399.422	0.91
399.786	0.87
400.15	0.84
400.514	0.66
400.878	0.67
401.242	1.12
401.605	0.82
401.969	0.55
402.333	0.96
402.697	0.71
403.06	1.12
403.424	0.91
403.787	0.72
404.151	0.93
404.514	1.03
404.878	1.07
405.241	1.23
405.604	0.85
405.968	1.03
406.331	1.09
406.694	1.1
407.057	0.86
407.42	0.94
407.783	1.02
408.146	0.82
408.509	0.73
408.872	0.95
409.235	0.83
409.598	0.73
409.961	1.15
410.323	0.96
410.686	1.06
411.049	0.91
411.411	1.11
411.774	0.86
412.136	0.97
412.499	0.81
412.861	1.09
413.223	1.09
413.586	1.01
413.948	0.96
414.31	0.98
414.672	0.86
415.035	0.81
415.397	1.19
415.759	1.21
416.121	0.74
416.483	0.94
416.845	0.86
417.206	0.79
417.568	0.73
417.93	1.04
418.292	0.85
418.653	0.83
419.015	0.74
419.377	0.76
419.738	1.13
420.1	0.92
420.461	0.99
420.822	0.95
421.184	0.95
421.545	0.91
421.906	0.9
422.267	0.83
422.629	0.88
422.99	0.88
423.351	0.94
423.712	0.87
424.073	0.95
424.434	0.98
424.795	0.81
425.155	0.89
425.516	0.88
425.877	0.92
426.238	0.83
426.598	0.87
426.959	0.89
427.32	0.92
427.68	0.86
428.041	0.85
428.401	0.94
428.761	1
429.122	0.99
429.482	0.98
429.842	0.91
430.202	0.82
430.563	1.05
430.923	1.06
431.283	0.99
431.643	1.05
432.003	1
432.363	1.19
432.722	1.02
433.082	0.92
433.442	0.98
433.802	1.12
434.161	0.95
434.521	0.97
434.881	1.09
435.24	0.96
435.6	0.8
435.959	0.8
436.319	0.89
436.678	1.05
437.037	0.88
437.396	0.82
437.756	1.04
438.115	0.92
438.474	0.96
438.833	1.02
439.192	0.93
439.551	0.84
439.91	1.06
440.269	1.04
440.628	0.75
440.987	0.94
441.345	0.97
441.704	1.09
442.063	0.87
442.421	0.94
442.78	1.04
443.138	0.88
443.497	0.97
443.855	0.96
444.214	0.78
444.572	0.93
444.93	0.87
445.288	1.06
445.647	1.05
446.005	0.76
446.363	0.82
446.721	0.98
447.079	0.88
447.437	0.98
447.795	1.03
448.153	0.82
448.51	0.97
448.868	0.84
449.226	0.96
449.584	0.94
449.941	0.81
450.299	0.99
450.656	0.93
451.014	1.01
451.371	0.91
451.729	0.99
452.086	0.87
452.443	1.04
452.801	1.04
453.158	0.9
453.515	1.05
453.872	1.05
454.229	0.98
454.586	1.04
454.943	0.95
455.3	1.05
455.657	0.92
456.014	0.97
456.371	1.05
456.727	1.07
457.084	0.97
457.441	0.94
457.797	1.11
458.154	0.89
458.51	0.89
458.867	0.89
459.223	0.93
459.58	0.89
459.936	0.96
460.292	0.97
460.648	1.06
461.005	0.95
461.361	1
461.717	0.77
462.073	0.89
462.429	0.84
462.785	0.88
463.141	0.99
463.496	1.03
463.852	0.91
464.208	0.84
464.564	0.99
464.919	0.81
465.275	1.15
465.631	1.03
465.986	1.01
466.342	0.96
466.697	1.11
467.052	0.75
467.408	1.1
467.763	0.88
468.118	1.21
468.473	0.91
468.829	0.92
469.184	0.83
469.539	1.01
469.894	1.01
470.249	0.96
470.603	0.83
470.958	0.97
471.313	0.92
471.668	1.02
472.023	0.97
472.377	0.93
472.732	1
473.086	1.25
473.441	0.79
473.795	1.08
474.15	0.82
474.504	0.93
474.859	0.94
475.213	0.77
475.567	0.92
475.921	1.12
476.275	0.99
476.63	0.89
476.984	1.03
477.338	0.97
477.692	0.9
478.045	1.11
478.399	1.01
478.753	0.99
479.107	0.95
479.461	0.84
479.814	1.02
480.168	1.09
480.521	1.1
480.875	1.11
481.228	0.97
481.582	0.78
481.935	0.92
482.289	0.94
482.642	0.93
482.995	0.98
483.348	0.93
483.701	1.02
484.055	1.02
484.408	0.96
484.761	1.01
485.114	0.93
485.466	0.85
485.819	0.92
486.172	0.87
486.525	0.9
486.878	0.9
487.23	0.93
487.583	0.94
487.936	0.92
488.288	0.99
488.641	0.91
488.993	0.89
489.345	0.95
489.698	0.92
490.05	0.93
490.402	0.9
490.754	0.89
491.107	0.91
491.459	0.96
491.811	0.92
492.163	0.95
492.515	1
492.866	0.97
493.218	1
493.57	0.98
493.922	0.95
494.274	0.94
494.625	0.96
494.977	1.01
495.328	1.05
495.68	1.01
496.031	0.92
496.383	1.03
496.734	0.9
497.086	0.98
497.437	0.95
497.788	0.99
498.139	1.05
498.49	1.15
498.842	0.96
499.193	0.9
499.544	1.11
499.894	0.95
500.245	0.98
500.596	1.04
500.947	1.01
501.298	1.05
501.648	1
501.999	1.08
502.35	0.92
502.7	1.08
503.051	0.99
503.401	1.08
503.752	1.04
504.102	1.03
504.452	1.05
504.803	1.05
505.153	0.97
505.503	0.91
505.853	1.06
506.203	0.95
506.553	1.08
506.903	1.02
507.253	0.95
507.603	1.11
507.953	1.1
508.303	0.99
508.652	1.12
509.002	0.99
509.352	0.93
509.701	1.07
510.051	1.18
510.4	0.99
510.75	1.05
511.099	0.91
511.449	0.95
511.798	1.01
512.147	1.08
512.496	1.03
512.846	0.96
513.195	1.13
513.544	1.09
513.893	1.03
514.242	0.96
514.591	1.04
514.939	1.14
515.288	0.94
515.637	1.05
515.986	0.98
516.334	0.96
516.683	1.07
517.032	1.11
517.38	1
517.729	0.99
518.077	1.13
518.426	1.07
518.774	0.96
519.122	1.06
519.47	0.97
519.819	1.05
520.167	1.03
520.515	1.04
520.863	1.03
521.211	0.94
521.559	1.02
521.907	1.02
522.255	1.05
522.602	0.96
522.95	0.97
523.298	0.99
523.645	1.07
523.993	1.02
524.341	1.03
524.688	1.06
525.036	1.1
525.383	0.96
525.73	1.1
526.078	1.09
526.425	0.98
526.772	1.18
527.119	0.97
527.466	0.89
527.814	0.97
528.161	0.94
528.508	0.99
528.854	1.02
529.201	1.05
529.548	0.97
529.895	1.03
530.242	0.96
530.588	0.94
530.935	0.89
531.282	0.93
531.628	0.97
531.975	0.94
532.321	0.99
532.667	1.01
533.014	1.03
533.36	1.01
533.706	0.99
534.052	1.09
534.399	1.14
534.745	1.02
535.091	0.93
535.437	0.94
535.783	0.92
536.129	0.98
536.474	1.03
536.82	0.97
537.166	1.1
537.512	1.06
537.857	1.01
538.203	1.13
538.549	1
538.894	0.95
539.239	0.98
539.585	1.05
539.93	1.09
540.276	0.98
540.621	1.02
540.966	0.98
541.311	1.11
541.656	0.97
542.001	1.02
542.346	1.12
542.691	1.16
543.036	1.1
543.381	0.99
543.726	0.96
544.071	0.98
544.415	0.92
544.76	0.95
545.105	0.95
545.449	0.93
545.794	1.03
546.138	1.04
546.483	0.96
546.827	1.04
547.171	1.03
547.516	1.06
547.86	1.07
548.204	1
548.548	1.07
548.892	1.13
549.236	0.97
549.58	1.08
549.924	1.08
550.268	1.09
550.612	1.01
550.956	1.07
551.3	1.25
551.643	1.17
551.987	1.07
552.33	1.18
552.674	0.93
553.017	0.95
553.361	1.04
553.704	1.06
554.048	1.14
554.391	1.04
554.734	1.22
555.077	1.08
555.42	0.97
555.764	1.11
556.107	1.07
556.45	1.15
556.793	1.09
557.135	1.14
557.478	0.92
557.821	1.15
558.164	1.23
558.507	1.19
558.849	0.94
559.192	1.11
559.534	1.28
559.877	1.08
560.219	0.9
560.562	1.22
560.904	1.23
561.246	1.26
561.589	1.12
561.931	1.1
562.273	1.01
562.615	1.17
562.957	1.11
563.299	1.09
563.641	1.31
563.983	1.15
564.325	1.21
564.667	1.33
565.008	1.08
565.35	0.87
565.692	1.12
566.033	1.25
566.375	1.01
566.716	1.03
567.058	1.08
567.399	1.14
567.741	1.29
568.082	1.04
568.423	1.14
568.764	1.27
569.105	0.96
569.447	1.1
569.788	0.91
570.129	1.08
570.47	1.28
570.811	1.11
571.151	1.15
571.492	1.02
571.833	1.11
572.174	1.16
572.514	1
572.855	0.98
573.195	0.97
573.536	1.15
573.876	0.94
574.217	0.96
574.557	1.02
574.898	1.14
575.238	0.99
575.578	1.15
575.918	1.09
576.258	0.96
576.598	1.14
576.938	1.05
577.278	1.28
577.618	0.93
577.958	1.19
578.298	1.22
578.638	1.06
578.977	0.96
579.317	1.16
579.657	1.16
579.996	1.42
580.336	1.34
580.675	1.13
581.014	0.92
581.354	0.94
581.693	1.18
582.032	1.22
582.372	1.15
582.711	1.1
583.05	1.05
583.389	1.11
583.728	1.01
584.067	1.15
584.406	1.13
584.745	1.19
585.083	1.4
585.422	1.48
585.761	1.1
586.1	1.08
586.438	1.08
586.777	1.32
587.115	1.26
587.454	0.98
587.792	1.37
588.13	1.07
588.469	1.23
588.807	1.33
589.145	1.19
589.483	1.39
589.821	1.16
590.159	1.09
590.497	1.38
590.835	1.27
591.173	0.93
591.511	1.15
591.849	1.4
592.187	1.08
592.524	1.29
592.862	1.09
593.2	0.98
593.537	0.98
593.875	1.13
594.212	1.22
594.55	1.37
594.887	1.13
595.224	1.13
595.561	1.28
595.899	1.33
596.236	1.31
596.573	1.32
596.91	1.07
597.247	1.11
597.584	1.31
597.921	1.32
598.258	1.3
598.594	1.28
598.931	1.09
599.268	1.08
599.604	1.47
599.941	1.33
600.277	1.19
600.614	1.08
600.95	1.25
601.287	1.13
601.623	1.08
601.959	1.41
602.296	1.32
602.632	0.88
602.968	1.37
603.304	1.26
603.64	1.18
603.976	1.37
604.312	1.24
604.648	1.22
604.984	1.19
605.319	1.21
605.655	1.31
605.991	1.26
606.326	1.24
606.662	1.13
606.998	1.18
607.333	1.32
607.668	1.11
608.004	1.44
608.339	1.02
608.674	1.24
609.01	1.2
609.345	1.22
609.68	1.35
610.015	1.32
610.35	1.16
610.685	1.5
611.02	1.24
611.355	1.42
611.689	1.33
612.024	1.29
612.359	1.24
612.694	1.13
613.028	1.06
613.363	1.11
613.697	1.21
614.032	1.31
614.366	1.22
614.7	1.11
615.035	1.08
615.369	1.06
615.703	0.99
616.037	1.28
616.371	1.39
616.705	1.5
617.039	1.36
617.373	0.95
617.707	1.24
618.041	1.43
618.375	1.18
618.709	1.27
619.042	1.34
619.376	1.72
619.71	1.25
620.043	0.88
620.377	1
620.71	1.22
621.043	1.4
621.377	1.14
621.71	1.16
622.043	1.33
622.376	1.72
622.709	1.33
623.043	1.59
623.376	1.51
623.709	1.52
624.041	1.23
624.374	1.13
624.707	1.47
625.04	1.15
625.373	0.94
625.705	1.15
626.038	1.24
626.37	1.32
626.703	1.15
627.035	1.35
627.368	1.27
627.7	1.82
628.032	1.48
628.365	1.52
628.697	1.53
629.029	1.53
629.361	1.26
629.693	1.32
630.025	1.26
630.357	1.11
630.689	1.38
631.021	1.2
631.353	1.04
631.684	1.09
632.016	1.5
632.348	1.49
632.679	1
633.011	1.14
633.342	1.3
633.674	1.71
634.005	1.07
634.336	1.3
634.668	1.59
634.999	1.17
635.33	1.42
635.661	1.37
635.992	1.16
636.323	1.03
636.654	1.32
636.985	1.04
637.316	1.25
637.647	1.5
637.977	1.09
638.308	1.77
638.639	1.18
638.969	1.24
639.3	1.31
639.63	1.5
639.961	1.24
640.291	1.28
640.622	1.71
640.952	1.16
641.282	1.38
641.612	1.23
641.943	1.52
642.273	0.89
642.603	1.3
642.933	1.18
643.263	0.9
643.592	0.94
643.922	1.31
644.252	1.39
644.582	1.63
644.911	1.35
645.241	1.8
645.571	1.41
645.9	1.28
646.23	1.74
646.559	1.05
646.888	1.76
647.218	1.54
647.547	1.22
647.876	1.52
648.205	1.14
648.534	1.76
648.863	1.32
649.192	0.82
649.521	1.58
649.85	1.67
650.179	1.6
650.508	1.34
650.837	1.51
651.165	1.26
651.494	1.27
651.822	1.25
652.151	1.37
652.479	1.51
652.808	1.23
653.136	1.59
653.465	1.19
653.793	0.9
654.121	1.26
654.449	1.01
654.777	1.44
655.105	1.7
655.433	1.45
655.761	1.88
656.089	1.63
656.417	1.29
656.745	1.4
657.073	0.98
657.4	1.83
657.728	1.52
658.056	1.44
658.383	1.47
658.711	1.61
659.038	1.35
659.365	1.43
659.693	1.02
660.02	1.75
660.347	1.45
660.674	1.31
661.001	1.02
661.329	1.38
661.656	1.42
661.982	1.21
662.309	1.8
662.636	1.35
662.963	1.32
663.29	1.38
663.616	1.41
663.943	1.65
664.27	1.31
664.596	1.01
664.923	1.16
665.249	1.23
665.576	1.02
665.902	1.62
666.228	1.29
666.554	0.72
666.881	1.77
667.207	0.96
667.533	1.06
667.859	1.65
668.185	1.26
668.511	1.87
668.837	1.13
669.162	1.45
669.488	1.67
669.814	0.95
670.139	1.48
670.465	2.15
670.791	1.54
671.116	1.27
671.442	1.87
671.767	0.63
672.092	1.47
672.418	2.06
672.743	1.42
673.068	1.6
673.393	1.25
673.718	1.72
674.043	1.34
674.368	1.69
674.693	0.92
675.018	1.22
675.343	1.44
675.667	1.52
675.992	1.42
676.317	1.5
676.641	1.23
676.966	1.46
677.29	0.69
677.615	1.81
677.939	1.44
678.264	1.44
678.588	2.05
678.912	1.33
679.236	1.62
679.56	1.37
679.885	1.55
680.209	2.34
680.532	1.32
680.856	1.55
681.18	1.88
681.504	1.63
681.828	1.33
682.152	1.17
682.475	1.74
682.799	1.72
683.122	1.43
683.446	1.6
683.769	1.36
684.093	1.65
684.416	1.28
684.739	1.94
685.062	2.22
685.386	1.46
685.709	1.69
686.032	2.02
686.355	1.87
686.678	2.1
687.001	1.08
687.324	1.71
687.646	1.72
687.969	2.59
688.292	2.01
688.614	2.35
688.937	1.71
689.26	1.33
689.582	1.64
689.904	1.98
690.227	2.48
690.549	1.96
690.871	0.92
691.194	1.35
691.516	2.36
691.838	1.32
692.16	1.12
692.482	1.92
692.804	0.97
693.126	0.95
693.448	2.17
693.769	1.16
694.091	1.87
694.413	2.1
694.735	1.93
695.056	1.93
695.378	2.41
695.699	1.22
696.021	1.29
696.342	2.23
696.663	1.4
696.984	2.34
697.306	2.15
697.627	1.08
697.948	1.41
698.269	2.08
698.59	1
698.911	1.97
699.232	0.96
699.553	0.9
699.873	2.06
700.194	1.6
700.515	1.09
700.835	1.71
701.156	2.04
701.477	1.54
701.797	1.12
702.117	1.68
702.438	1.94
702.758	1.24
703.078	1.7
703.398	2.01
703.719	1.79
704.039	1.99
704.359	1.31
704.679	0.48
704.999	2.65
705.319	1.12
705.638	0.8
705.958	2.12
706.278	2.74
706.597	1.34
706.917	2.18
707.237	1
707.556	1.11
707.876	1.48
708.195	2.27
708.514	1.4
708.834	0.86
709.153	1.95
709.472	1.64
709.791	1.74
710.11	2.18
710.429	2.39
710.748	2.66
711.067	1.19
711.386	2.5
711.705	2.05
712.023	1.98
712.342	2.93
712.661	2.1
712.979	1.63
713.298	2.57
713.616	1.56
713.935	2.11
714.253	2.66
714.572	1.84
714.89	2.07
715.208	2.61
715.526	0.88
715.844	2.45
716.162	0.83
716.48	1.73
716.798	0.79
717.116	2.02
717.434	1.63
717.752	1.5
718.069	1.88
718.387	2.87
718.705	1.69
719.022	1.93
719.34	2.05
719.657	0.56
719.975	2.49
720.292	1.78
720.609	1.35
720.927	2.02
721.244	2.43
721.561	2.66
721.878	2.04
722.195	2.56
722.512	1.62
722.829	1.89
723.146	2.54
723.463	0.79
723.779	1.61
724.096	0.69
724.413	3.35
724.729	2.2
725.046	1.56
725.362	2.06
725.679	1.31
725.995	3.25
726.311	0.98
726.628	1.84
726.944	0.53
727.26	1.6
727.576	1.85
727.892	0.31
728.208	2.7
728.524	2.81
728.84	1.35
729.156	0.93
729.472	3.06
729.787	1.21
730.103	1.94
730.419	1.74
730.734	1.79
731.05	1.41
731.365	1.5
731.681	1.99
731.996	2.46
732.311	2.11
732.626	1.15
732.942	1.46
733.257	1.76
733.572	1.16
733.887	1.35
734.202	1.7
734.517	1.93
734.832	2.4
735.146	3.22
735.461	2.46
735.776	1.51
736.091	1.13
736.405	2.04
736.72	2.67
737.034	1.04
737.349	0.45
737.663	1.9
737.977	2.24
738.292	1.23
738.606	1.78
738.92	0.48
739.234	1.76
739.548	1.18
739.862	1.18
740.176	2.18
740.49	0.56
740.804	2.36
741.117	2.18
741.431	0.47
741.745	2.03
742.058	2.87
742.372	0.1
742.685	1.22
742.999	1.26
743.312	3.07
743.626	2.23
743.939	0.68
744.252	2.54
744.565	1.51
744.878	2.05
745.191	1.8
745.505	1.89
745.817	0.67
746.13	3.04
746.443	3.94
746.756	3.04
747.069	2.84
747.381	-0.79
747.694	1.63
748.007	3.23
748.319	3.21
748.632	1.69
748.944	4.16
749.256	2.19
749.569	1.97
749.881	3.69
750.193	2.89
750.505	4.55
750.817	4.2
751.129	1.74
751.441	3.72
751.753	2.54
752.065	3.99
752.377	2.94
752.689	3.01
753	2.71
753.312	2.06
753.624	2.55
753.935	3.2
754.247	3.05
754.558	1.96
754.869	2.75
755.181	2.52
755.492	3.3
755.803	6.55
756.114	3.97
756.425	4.79
756.736	2.12
757.047	1.22
757.358	2.7
757.669	0.45
757.98	1.61
758.291	2.86
758.601	1.2
758.912	4.01
759.223	4.91
759.533	3.2
759.844	4.41
760.154	1.36
760.464	1.77
760.775	2.35
761.085	5.34
761.395	2.38
761.705	3.36
762.016	2.48
762.326	3.32
762.636	2.65
762.945	1.33
763.255	3.6
763.565	3.1
763.875	1.25
764.185	2.91
764.494	2.57
764.804	2.67
765.113	1.36
765.423	2.46
765.732	2.45
766.042	3.07
766.351	2.41
766.66	2.9
766.97	2.59
767.279	3.05
767.588	2.85
767.897	2.1
768.206	2.87
768.515	0.32
768.824	2.65
769.133	1.73
769.441	3.11
769.75	5.08
770.059	5.13
770.367	1.65
770.676	3.81
770.984	0.38
771.293	1.8
771.601	3.16
771.91	5.03
772.218	2.37
772.526	4.19
772.834	2.08
773.142	3.59
773.45	4.3
773.758	1.73
774.066	3.97
774.374	2.06
774.682	-1.42
774.99	4.73
775.298	2.24
775.605	3.97
775.913	6
776.22	2.7
776.528	2.96
776.835	1.85
777.143	5
777.45	4.24
777.757	1.24
778.065	2.05
778.372	2.68
778.679	5.12
778.986	3.21
779.293	1.49
779.6	2.2
779.907	-0.09
780.214	6.93
780.52	1.44
780.827	5.06
781.134	3.89
781.44	2.06
781.747	3.56
782.053	3.31
782.36	2.21
782.666	2.35
782.973	6
783.279	0.56
783.585	4.05
783.891	2.71
784.197	2.5
784.503	1.3
784.809	1.87
785.115	1.8
785.421	5.36
785.727	2.44
786.033	4.02
786.339	1.56
786.644	8.22
786.95	-2.25
787.255	3.38
787.561	4.04
787.866	2.59
788.172	4.46
788.477	1.74
788.782	-0.38
789.088	7.09
789.393	1.44
789.698	2.15
790.003	4.18
790.308	0.4
790.613	2.85
790.918	5.08
791.223	3.27
791.527	-2.46
791.832	3.5
792.137	2.93
792.441	5.48
792.746	1.32
793.05	5.27
793.355	7.72
793.659	2.99
793.963	4.82
794.268	3.9
794.572	3.91
794.876	3.52
795.18	0.69
795.484	-1.76
795.788	-0.49
796.092	2.87
796.396	8.2
796.7	6.77
797.004	3.57
797.307	-1.05
797.611	1.67
797.915	1.73
798.218	6.03
798.522	5.1
798.825	4.18
799.128	3.88
799.432	2.68
799.735	2.41
800.038	3.38
800.341	2.99
800.644	6.82
800.947	6.35
801.25	5.3
801.553	8.1
801.856	10.94
802.159	3.6
802.462	3.78
802.764	3.37
803.067	3.22
803.37	6.51
803.672	2.95
803.975	4.82
804.277	8.37
804.579	1.89
804.882	4.27
805.184	10.04
805.486	5.85
805.788	5.85
806.09	8.54
806.392	0.24
806.694	1.41
806.996	-1.08
807.298	2.29
807.6	5
807.902	3.58
808.203	3.01
808.505	4.5
808.807	5.78
809.108	5.81
809.409	6.26
809.711	7.55
810.012	6.81
810.313	-2.04
810.615	3.92
810.916	1.12
811.217	4.66
811.518	10.4
811.819	3.44
812.12	1.69
812.421	4.35
812.722	2.34
813.023	0.23
813.323	-1.83
813.624	5.73
813.925	7.03
814.225	4.11
814.526	7.11
814.826	5.8
815.126	2
815.427	6.6
815.727	1.74
816.027	2.7
816.327	4.23
816.627	8.98
816.927	9.94
817.227	3.42
817.527	1.76
817.827	-0.75
818.127	-3.68
818.427	9.17
818.727	5.52
819.026	8.61
819.326	2.66
819.625	1.57
819.925	6.79
820.224	4.37
820.524	-2.28
820.823	6.5
821.122	-0.81
821.421	9.33
821.72	10.08
822.019	4.47
822.318	3.91
822.617	5.85
822.916	9.75
823.215	1.52
823.514	-0.35
823.813	5.39
824.111	5.69
824.41	2.99
824.709	3.45
825.007	2.92
825.306	2.42
825.604	3.11
825.902	4.12
826.201	3.2
826.499	2.64
826.797	2.68
827.095	4.15
827.393	2.76
827.691	3.24
827.989	2.35
828.287	2.88
828.585	3.89
828.882	4.56
829.18	3.71
829.478	2.57
829.775	0.74
830.073	-0.28
830.37	2.28
830.668	3.99
830.965	5.23
831.263	0.39
831.56	2.27
831.857	3.47
832.154	2.39
832.451	3.53
832.748	3.99
833.045	5.36
833.342	3.7
833.639	5.04
833.936	5.52
834.232	2.97
834.529	8.15
834.826	-1.13
835.122	5.12
835.419	0.6
835.715	4.24
836.012	3.72
836.308	7.76
836.604	5.82
836.901	4.46
837.197	5
837.493	4.78
837.789	4.74
838.085	-0.83
838.381	3.36
838.677	1.47
838.972	4.94
839.268	4.61
839.564	10.1
839.86	1.65
840.155	-4.16
840.451	6.48
840.746	5.64
841.042	8.91
841.337	8.18
841.632	6.99
841.928	16.99
842.223	11.48
842.518	8.87
842.813	14.43
843.108	6.58
843.403	10.89
843.698	9.52
843.993	-0.9
844.287	10.72
844.582	-7.37
844.877	-5.45
845.171	8.54
845.466	7.67
845.761	-0.34
846.055	3.58
846.349	-0.24
846.644	4.82
846.938	2.63
847.232	2.39
847.526	-7.96
847.82	-0.64
848.114	-7.58
848.408	-0.92
848.702	18.4
848.996	0.09
849.29	10.31
849.584	8.07
849.877	21.43
850.171	8.34
850.465	6.98
850.758	-4.34
851.052	1.53
851.345	19.56
851.638	2.43
851.932	27.67
852.225	15.65
852.518	25.82
852.811	-1.35
853.104	28.17
853.397	5.89
853.69	7.73
853.983	17.97
854.276	3.78
854.569	-2.09
854.861	-7.94
855.154	9.43
855.447	11.93
855.739	-7.34
856.032	10.45
856.324	5.4
856.616	0.38
856.909	-8.17
857.201	-3.04
857.493	-10.35
857.785	9.23
858.077	21.9
858.369	5.87
858.661	34.95
858.953	-5.05
859.245	10.26
859.537	-1.86
859.829	0.26
860.12	-12.68
860.412	19.42
860.703	-23.33
860.995	-17.96
861.286	7.26
861.578	7.88
861.869	0.58
862.16	13.03
862.452	-31.93
862.743	17.57
863.034	37.12
863.325	15.01
863.616	15.44
863.907	17.87
864.198	-2.54
864.488	9.36
864.779	-12.6
865.07	-15.65
865.36	13.56
865.651	30.42
865.941	-18.77
866.232	-3.61
866.522	30.13
866.813	24.17
867.103	-0.35
867.393	2.66
867.683	9.11
867.973	-7.4
868.263	1.38
868.553	-28.74
868.843	-1.3
869.133	22.93
869.423	5.63
869.713	-9.21
870.002	22.64
870.292	1.32
870.582	15.65
870.871	0.79
871.161	2.06
871.45	7.31
871.739	11.38
872.029	0.36
872.318	10.76
872.607	-5.66
872.896	20.15
873.185	23
873.474	13.09
873.763	3.19
874.052	12.8
874.341	26.29
874.63	10.63
874.918	-9.11
875.207	16.56
875.496	31.78
875.784	-26.04
876.073	-3.23
876.361	-9.28
876.649	-1.68
876.938	35.29
877.226	-11.88
877.514	20.26
877.802	-12.94
878.09	23.01
878.378	12.79
878.666	10.87
878.954	24.87
879.242	34.65
879.53	12.11
879.817	10.94
880.105	-23.3
880.392	16.47
880.68	-2.54
880.967	15.8
881.255	20.48
881.542	-17.26
881.83	26.15
882.117	-11.64
882.404	42.43
882.691	-0.32
882.978	8.68
883.265	-21.25
883.552	15.3
883.839	-15.51
884.126	23.38
884.413	-21.12
884.699	11.7
884.986	8.85
885.273	3.7
885.559	3.7
885.846	3.7
