Data from 0112_forehead_Reflection__0__200.txt Node

Date: Fri Sep 22 22:26:54 CDT 2023
User: ToomeyLab
Spectrometer: FLMS14357
Trigger mode: 0
Integration Time (sec): 1.000000E-2
Scans to average: 100
Electric dark correction enabled: true
Nonlinearity correction enabled: false
Boxcar width: 0
XAxis mode: Wavelengths
Number of Pixels in Spectrum: 2048
>>>>>Begin Spectral Data<<<<<
189.047	-716.76
189.435	-716.76
189.823	-716.76
190.211	535.7
190.599	79.98
190.987	3502.19
191.375	71.07
191.763	-21.37
192.151	186.75
192.538	573.15
192.926	164.44
193.314	120.21
193.702	-317.83
194.089	50.17
194.477	61.94
194.864	2.68
195.252	359.77
195.639	-219.13
196.027	6534.15
196.414	131.49
196.801	-357.23
197.189	12.3
197.576	1574.69
197.963	13.19
198.351	-0.46
198.738	11.44
199.125	67.22
199.512	21.47
199.899	49.22
200.286	20.97
200.673	55.35
201.06	36.77
201.447	62.91
201.833	-7.43
202.22	34.5
202.607	60.28
202.994	53.55
203.38	16.21
203.767	35.69
204.154	27.34
204.54	47.22
204.927	50.6
205.313	46.57
205.699	66.34
206.086	60.05
206.472	53.01
206.858	37.41
207.245	23.36
207.631	19.92
208.017	24.2
208.403	26.27
208.789	58.15
209.175	63.2
209.561	63.75
209.947	34.78
210.333	32.7
210.719	1.61
211.105	55.04
211.491	21.35
211.876	51.39
212.262	50.57
212.648	117.64
213.034	27.07
213.419	20.87
213.805	-6.01
214.19	31.38
214.576	28.2
214.961	0.91
215.346	51.78
215.732	44.31
216.117	33.89
216.502	20.9
216.888	15.89
217.273	39.42
217.658	26.77
218.043	19.53
218.428	51.84
218.813	9.53
219.198	10.31
219.583	26.32
219.968	28.31
220.353	61.06
220.738	46.6
221.122	15.47
221.507	18.81
221.892	18.86
222.276	10.44
222.661	-15.22
223.046	47.24
223.43	35.79
223.815	12.75
224.199	11.64
224.583	24.67
224.968	18.33
225.352	7.49
225.736	9.54
226.121	18.79
226.505	17.31
226.889	14.13
227.273	11.77
227.657	-0.17
228.041	6.4
228.425	11.69
228.809	9.96
229.193	7.8
229.577	7.38
229.961	6.23
230.344	5.07
230.728	4.93
231.112	4.02
231.495	3.48
231.879	3.67
232.263	3.36
232.646	4.58
233.03	4.94
233.413	4.69
233.797	4.11
234.18	4.14
234.563	6.27
234.946	4.13
235.33	3.5
235.713	1.98
236.096	4.48
236.479	2.84
236.862	5.9
237.245	4.85
237.628	5.53
238.011	5.54
238.394	4.34
238.777	4.7
239.16	4.66
239.543	4.59
239.925	4.04
240.308	3.37
240.691	5.59
241.073	6.29
241.456	4.59
241.838	3.45
242.221	2.98
242.603	3.9
242.986	4.02
243.368	3.06
243.75	3.89
244.133	4.6
244.515	2.77
244.897	3.12
245.279	3.54
245.661	3.8
246.043	3.58
246.425	3.39
246.807	4.69
247.189	3.8
247.571	4.17
247.953	4.03
248.335	3.38
248.717	3.61
249.098	3.42
249.48	3.1
249.862	3.29
250.243	3.49
250.625	3.56
251.006	3.29
251.388	4.09
251.769	4.7
252.151	3.26
252.532	4.05
252.913	3.96
253.295	5.18
253.676	4.16
254.057	4.01
254.438	3.7
254.819	3.48
255.2	3.77
255.581	3.71
255.962	4.57
256.343	3.41
256.724	2.97
257.105	3.63
257.486	4.47
257.867	3.1
258.247	4.34
258.628	4.05
259.009	4.03
259.389	4.16
259.77	3.45
260.15	4.77
260.531	3.21
260.911	3.3
261.292	3.28
261.672	3.04
262.052	3.09
262.432	3.32
262.813	3.14
263.193	3.32
263.573	3.81
263.953	3.26
264.333	3.45
264.713	4.23
265.093	3.81
265.473	3.75
265.853	2.63
266.233	3.32
266.612	3.47
266.992	4.3
267.372	4.03
267.752	3.49
268.131	3.29
268.511	2.82
268.89	3.87
269.27	3.31
269.649	3.57
270.029	3.61
270.408	3.09
270.787	3.32
271.167	3.48
271.546	2.76
271.925	3.35
272.304	3.33
272.683	4.08
273.062	3.76
273.441	3.33
273.82	3.44
274.199	3.14
274.578	3.4
274.957	2.76
275.336	3
275.715	2.66
276.093	2.82
276.472	3.27
276.851	3.45
277.229	2.94
277.608	3.76
277.986	3.67
278.365	3.41
278.743	3.01
279.122	3.36
279.5	3.81
279.878	2.8
280.257	3.91
280.635	3.09
281.013	3.61
281.391	2.98
281.769	3.15
282.147	3.29
282.525	3.06
282.903	3.42
283.281	3.37
283.659	3.02
284.037	3.18
284.415	3.01
284.792	3.27
285.17	3.41
285.548	4.08
285.925	3.73
286.303	3.33
286.68	2.61
287.058	3.07
287.435	3.29
287.813	3.04
288.19	2.56
288.567	3.37
288.945	3.09
289.322	2.71
289.699	3.22
290.076	3.53
290.453	2.98
290.83	2.84
291.207	3.42
291.584	3
291.961	2.68
292.338	3.32
292.715	3.52
293.092	2.84
293.469	3.58
293.845	3.26
294.222	3.76
294.599	3.56
294.975	3.98
295.352	3.78
295.728	3.61
296.105	3.46
296.481	3.54
296.858	3.59
297.234	3.49
297.61	3.37
297.986	3.74
298.363	3.52
298.739	3.56
299.115	3.82
299.491	3.87
299.867	3.93
300.243	3.43
300.619	3.42
300.995	3.5
301.371	3.87
301.746	3.98
302.122	3.94
302.498	4.12
302.874	3.43
303.249	3.47
303.625	3.67
304	4.14
304.376	4.05
304.751	4.08
305.127	4.33
305.502	4.12
305.878	4.6
306.253	3.73
306.628	3.77
307.003	4.3
307.378	4.34
307.754	4.34
308.129	4.29
308.504	4.26
308.879	4.07
309.254	4.67
309.629	4.18
310.003	4.52
310.378	4.95
310.753	5.02
311.128	4.46
311.502	4.93
311.877	3.86
312.252	4.55
312.626	4.69
313.001	4.99
313.375	4.51
313.75	5.05
314.124	5.23
314.498	4.54
314.873	4.89
315.247	5.04
315.621	5.14
315.995	5.03
316.369	5.31
316.743	5.28
317.117	5.72
317.491	5.58
317.865	4.98
318.239	4.65
318.613	5.58
318.987	5.37
319.361	4.9
319.734	5.31
320.108	5.55
320.482	5.11
320.855	5.44
321.229	6.06
321.602	5.8
321.976	5.18
322.349	5.53
322.723	5.97
323.096	5.57
323.469	5.51
323.843	5.74
324.216	5.84
324.589	5.68
324.962	6.01
325.335	5.56
325.708	5.56
326.081	5.72
326.454	5.53
326.827	5.36
327.2	5.75
327.573	6.22
327.945	5.91
328.318	6.27
328.691	6.17
329.063	6.09
329.436	6.32
329.809	6.23
330.181	6.16
330.553	5.9
330.926	6.1
331.298	6.41
331.671	6.57
332.043	5.33
332.415	5.65
332.787	6.5
333.159	6.04
333.532	6
333.904	5.81
334.276	6.01
334.648	5.99
335.02	6.33
335.391	6.26
335.763	6.48
336.135	6.62
336.507	6.75
336.879	6.75
337.25	6.84
337.622	7.26
337.993	6.8
338.365	6.77
338.736	6.92
339.108	6.7
339.479	6.7
339.851	6.39
340.222	6.67
340.593	6.42
340.964	6.16
341.336	6.52
341.707	6.43
342.078	6.96
342.449	7.36
342.82	6.91
343.191	6.41
343.562	7.07
343.933	6.76
344.303	6.97
344.674	7.81
345.045	7.16
345.416	6.9
345.786	6.91
346.157	7.78
346.527	7.28
346.898	7.26
347.268	6.89
347.639	7.2
348.009	6.94
348.38	7.44
348.75	7.89
349.12	7.49
349.49	7.42
349.861	7.41
350.231	7.72
350.601	7.39
350.971	7.88
351.341	7.58
351.711	7.67
352.081	7.22
352.45	7.68
352.82	7.79
353.19	7.7
353.56	7.69
353.929	7.63
354.299	7.84
354.669	7.6
355.038	7.39
355.408	7.8
355.777	8.47
356.147	7.85
356.516	8.18
356.885	7.93
357.254	8.22
357.624	7.6
357.993	8.06
358.362	7.98
358.731	7.9
359.1	7.76
359.469	8.41
359.838	7.73
360.207	7.92
360.576	8.21
360.945	8.03
361.314	8.62
361.682	8.55
362.051	8.19
362.42	8.54
362.788	8.36
363.157	8.69
363.525	8.58
363.894	8.6
364.262	8.46
364.631	8.41
364.999	8.29
365.367	8.86
365.735	8.6
366.104	8.84
366.472	8.86
366.84	8.46
367.208	9.32
367.576	9.02
367.944	8.94
368.312	8.96
368.68	9.02
369.048	9.18
369.416	9.12
369.783	8.98
370.151	8.97
370.519	9.21
370.886	9.22
371.254	9.85
371.621	9.33
371.989	9.59
372.356	9.16
372.724	9.7
373.091	9.51
373.458	9.34
373.826	9.63
374.193	9.81
374.56	9.85
374.927	9.67
375.294	9.74
375.661	9.76
376.028	10.09
376.395	10.07
376.762	9.93
377.129	10.34
377.496	10.09
377.863	10.14
378.229	10.09
378.596	9.94
378.963	10.45
379.329	10.24
379.696	10.42
380.062	9.99
380.429	10.29
380.795	10.49
381.161	10.26
381.528	10.44
381.894	10.19
382.26	10.54
382.626	10.54
382.993	10.56
383.359	10.33
383.725	10.47
384.091	10.66
384.457	10.97
384.823	10.73
385.188	10.97
385.554	11.2
385.92	11.07
386.286	10.72
386.651	10.84
387.017	10.95
387.383	11.04
387.748	10.9
388.114	11.04
388.479	11.17
388.845	10.72
389.21	11.15
389.575	11.34
389.94	11.3
390.306	11.55
390.671	11.81
391.036	11.08
391.401	11.41
391.766	11.27
392.131	11.51
392.496	11.49
392.861	11.7
393.226	11.85
393.591	11.73
393.956	11.76
394.32	11.84
394.685	11.79
395.05	12.05
395.414	12.07
395.779	12
396.143	11.93
396.508	11.85
396.872	12.07
397.236	12.08
397.601	12.12
397.965	12.17
398.329	12.2
398.694	12.31
399.058	12.51
399.422	12.58
399.786	12.44
400.15	12.64
400.514	12.28
400.878	12.59
401.242	12.47
401.605	12.75
401.969	12.37
402.333	12.82
402.697	12.59
403.06	12.65
403.424	12.94
403.787	13.09
404.151	13.07
404.514	12.99
404.878	13
405.241	13.36
405.604	13.25
405.968	13.23
406.331	13.04
406.694	13.1
407.057	12.9
407.42	13.17
407.783	13.36
408.146	13.35
408.509	13.36
408.872	13.24
409.235	13.39
409.598	13.57
409.961	13.83
410.323	13.76
410.686	13.76
411.049	13.74
411.411	13.97
411.774	13.66
412.136	13.85
412.499	13.82
412.861	13.86
413.223	13.89
413.586	13.96
413.948	14.25
414.31	14.04
414.672	14.19
415.035	14.06
415.397	14.44
415.759	14.59
416.121	14.36
416.483	14.4
416.845	14.21
417.206	14.43
417.568	14.49
417.93	14.35
418.292	14.36
418.653	14.56
419.015	14.53
419.377	14.43
419.738	14.51
420.1	14.65
420.461	14.5
420.822	14.49
421.184	14.57
421.545	14.66
421.906	14.62
422.267	14.55
422.629	14.72
422.99	14.64
423.351	14.69
423.712	14.4
424.073	14.66
424.434	14.82
424.795	14.84
425.155	14.99
425.516	15.03
425.877	14.94
426.238	14.9
426.598	14.9
426.959	15.11
427.32	15.13
427.68	15.14
428.041	15.24
428.401	15.36
428.761	15.5
429.122	15.62
429.482	15.7
429.842	15.55
430.202	15.63
430.563	15.97
430.923	16.08
431.283	16.07
431.643	15.99
432.003	16.04
432.363	16.2
432.722	16.09
433.082	16.35
433.442	16.23
433.802	16.37
434.161	16.4
434.521	16.41
434.881	16.59
435.24	16.39
435.6	16.2
435.959	16.21
436.319	16.38
436.678	16.57
437.037	16.58
437.396	16.67
437.756	16.7
438.115	16.79
438.474	16.88
438.833	16.91
439.192	17.05
439.551	17.06
439.91	17.11
440.269	16.95
440.628	16.91
440.987	16.89
441.345	17.07
441.704	17.17
442.063	17.12
442.421	17.02
442.78	17.11
443.138	17.07
443.497	17.08
443.855	17.29
444.214	17.28
444.572	17.49
444.93	17.51
445.288	17.64
445.647	17.68
446.005	17.65
446.363	17.48
446.721	17.85
447.079	17.55
447.437	17.63
447.795	17.65
448.153	17.53
448.51	17.56
448.868	17.52
449.226	17.7
449.584	17.64
449.941	17.68
450.299	17.93
450.656	18.09
451.014	18.21
451.371	18.11
451.729	18.3
452.086	18.29
452.443	18.69
452.801	18.42
453.158	18.62
453.515	18.58
453.872	18.67
454.229	18.71
454.586	18.95
454.943	18.65
455.3	18.76
455.657	18.73
456.014	18.93
456.371	18.84
456.727	19.01
457.084	18.92
457.441	18.88
457.797	19.03
458.154	19.21
458.51	19.3
458.867	19.24
459.223	19.21
459.58	19.5
459.936	19.32
460.292	19.39
460.648	19.59
461.005	19.37
461.361	19.48
461.717	19.09
462.073	19.19
462.429	19.07
462.785	19.2
463.141	19.37
463.496	19.67
463.852	19.61
464.208	19.96
464.564	19.94
464.919	20.07
465.275	20.03
465.631	20.32
465.986	20.16
466.342	20.32
466.697	20.43
467.052	20.41
467.408	20.32
467.763	20.37
468.118	20.5
468.473	20.45
468.829	20.57
469.184	20.61
469.539	20.69
469.894	20.69
470.249	20.72
470.603	20.66
470.958	20.76
471.313	20.99
471.668	20.95
472.023	20.98
472.377	21.04
472.732	20.89
473.086	21.27
473.441	21.05
473.795	21.3
474.15	21.15
474.504	21.31
474.859	21.55
475.213	21.4
475.567	21.37
475.921	21.36
476.275	21.57
476.63	21.6
476.984	21.6
477.338	21.67
477.692	21.63
478.045	21.96
478.399	21.86
478.753	21.75
479.107	22.04
479.461	21.85
479.814	21.97
480.168	22.04
480.521	21.92
480.875	21.95
481.228	22.05
481.582	21.93
481.935	22.2
482.289	22.17
482.642	22.11
482.995	22.15
483.348	22.31
483.701	22.03
484.055	22.18
484.408	22.15
484.761	22
485.114	21.87
485.466	21.81
485.819	21.3
486.172	21.29
486.525	21.27
486.878	21.25
487.23	21.32
487.583	21.6
487.936	21.82
488.288	22.06
488.641	22.19
488.993	22.09
489.345	22.09
489.698	21.9
490.05	21.87
490.402	21.87
490.754	21.98
491.107	22.04
491.459	22.26
491.811	22.34
492.163	22.57
492.515	22.9
492.866	22.95
493.218	22.91
493.57	22.75
493.922	22.48
494.274	22.48
494.625	22.42
494.977	22.66
495.328	22.93
495.68	23.23
496.031	23.45
496.383	23.77
496.734	23.86
497.086	23.9
497.437	24.08
497.788	24.2
498.139	24.2
498.49	24.17
498.842	23.96
499.193	23.95
499.544	24.03
499.894	23.92
500.245	24.12
500.596	24.24
500.947	24.28
501.298	24.24
501.648	24.55
501.999	24.46
502.35	24.66
502.7	24.7
503.051	24.81
503.401	24.89
503.752	24.95
504.102	25.13
504.452	25.2
504.803	25.08
505.153	25.04
505.503	25.07
505.853	25.28
506.203	25.03
506.553	25.24
506.903	25.04
507.253	25.23
507.603	25.23
507.953	25.27
508.303	25.44
508.652	25.27
509.002	25.39
509.352	25.51
509.701	25.48
510.051	25.52
510.4	25.52
510.75	25.42
511.099	25.32
511.449	25.43
511.798	25.57
512.147	25.59
512.496	25.6
512.846	25.63
513.195	25.92
513.544	25.73
513.893	25.85
514.242	25.86
514.591	25.84
514.939	26.06
515.288	25.76
515.637	25.83
515.986	26.02
516.334	26.15
516.683	26.33
517.032	26.45
517.38	26.44
517.729	26.42
518.077	26.56
518.426	26.53
518.774	26.54
519.122	26.57
519.47	26.5
519.819	26.57
520.167	26.34
520.515	26.17
520.863	26.31
521.211	26.18
521.559	26.31
521.907	26.25
522.255	26.51
522.602	26.59
522.95	26.65
523.298	26.84
523.645	26.9
523.993	26.96
524.341	27.07
524.688	27.18
525.036	27.2
525.383	27.27
525.73	27.41
526.078	27.35
526.425	27.3
526.772	27.48
527.119	27.29
527.466	27.11
527.814	27.13
528.161	27
528.508	26.87
528.854	26.89
529.201	27
529.548	27.08
529.895	27.02
530.242	27.04
530.588	26.69
530.935	26.52
531.282	26.51
531.628	26.5
531.975	26.41
532.321	26.61
532.667	26.89
533.014	27.21
533.36	27.42
533.706	27.48
534.052	27.72
534.399	27.75
534.745	27.69
535.091	27.68
535.437	27.4
535.783	27.34
536.129	27.35
536.474	27.42
536.82	27.64
537.166	27.7
537.512	27.97
537.857	28.17
538.203	28.29
538.549	28.32
538.894	28.09
539.239	28.05
539.585	28.09
539.93	28.25
540.276	28.6
540.621	28.64
540.966	28.81
541.311	28.94
541.656	28.82
542.001	29.09
542.346	28.99
542.691	29.02
543.036	28.67
543.381	28.3
543.726	28.2
544.071	28.22
544.415	28.14
544.76	28.02
545.105	28.45
545.449	28.4
545.794	28.74
546.138	28.87
546.483	28.96
546.827	29
547.171	29.19
547.516	29.41
547.86	29.58
548.204	29.5
548.548	29.37
548.892	29.6
549.236	29.45
549.58	29.53
549.924	29.58
550.268	29.77
550.612	29.84
550.956	29.97
551.3	30.16
551.643	30.14
551.987	30.5
552.33	30.62
552.674	30.87
553.017	30.43
553.361	30.49
553.704	30.61
554.048	30.66
554.391	30.83
554.734	30.85
555.077	30.52
555.42	30.54
555.764	30.73
556.107	30.68
556.45	30.67
556.793	30.69
557.135	31.05
557.478	30.84
557.821	30.98
558.164	31.26
558.507	31.23
558.849	31.03
559.192	31.34
559.534	31.37
559.877	31.4
560.219	31.31
560.562	31.5
560.904	31.75
561.246	31.61
561.589	31.25
561.931	31.52
562.273	31.5
562.615	31.58
562.957	31.69
563.299	31.63
563.641	31.75
563.983	31.76
564.325	31.61
564.667	31.76
565.008	31.85
565.35	31.95
565.692	32.01
566.033	31.93
566.375	32.32
566.716	32.33
567.058	32.16
567.399	32.09
567.741	32.02
568.082	32.02
568.423	31.94
568.764	32.07
569.105	31.92
569.447	31.98
569.788	32.12
570.129	32.18
570.47	32.34
570.811	32.33
571.151	32.48
571.492	32.41
571.833	32.35
572.174	32.3
572.514	32.6
572.855	32.6
573.195	32.58
573.536	32.63
573.876	32.49
574.217	32.44
574.557	32.7
574.898	32.35
575.238	32.55
575.578	32.78
575.918	32.59
576.258	32.69
576.598	32.93
576.938	32.97
577.278	32.76
577.618	32.87
577.958	32.9
578.298	33.13
578.638	32.93
578.977	33.04
579.317	33.24
579.657	33.23
579.996	33.33
580.336	33.41
580.675	33.81
581.014	33.33
581.354	33.65
581.693	33.89
582.032	33.53
582.372	33.71
582.711	33.97
583.05	33.83
583.389	33.99
583.728	33.97
584.067	34.01
584.406	33.67
584.745	34.27
585.083	34.37
585.422	34.41
585.761	34.36
586.1	34.33
586.438	34.42
586.777	34.38
587.115	34.62
587.454	34.49
587.792	34.46
588.13	34.55
588.469	34.36
588.807	34.51
589.145	34.56
589.483	34.95
589.821	34.46
590.159	34.4
590.497	34.76
590.835	34.71
591.173	34.52
591.511	34.8
591.849	34.74
592.187	34.77
592.524	34.9
592.862	34.47
593.2	34.98
593.537	34.61
593.875	34.96
594.212	34.85
594.55	35.02
594.887	34.95
595.224	35.23
595.561	35.39
595.899	35.11
596.236	35.43
596.573	35.48
596.91	35.22
597.247	35.24
597.584	35.36
597.921	35.43
598.258	35.46
598.594	35.36
598.931	35.15
599.268	35.11
599.604	35.2
599.941	34.89
600.277	34.94
600.614	34.77
600.95	35.32
601.287	35.6
601.623	35.66
601.959	35.48
602.296	35.87
602.632	35.85
602.968	36.19
603.304	35.78
603.64	35.81
603.976	35.81
604.312	36.21
604.648	36.24
604.984	35.76
605.319	35.91
605.655	35.55
605.991	35.82
606.326	35.83
606.662	35.51
606.998	35.66
607.333	35.67
607.668	35.61
608.004	35.98
608.339	35.44
608.674	35.82
609.01	36.03
609.345	36.06
609.68	36.44
610.015	36.49
610.35	36.34
610.685	36.28
611.02	36.7
611.355	36.31
611.689	36.45
612.024	36.11
612.359	36.4
612.694	36.26
613.028	36.55
613.363	36.22
613.697	36.46
614.032	36.3
614.366	36.64
614.7	36.86
615.035	36.88
615.369	36.99
615.703	36.84
616.037	37.2
616.371	37.2
616.705	37.14
617.039	37.09
617.373	37.34
617.707	36.92
618.041	37.19
618.375	37.21
618.709	37.12
619.042	37.57
619.376	37.66
619.71	37.57
620.043	37.51
620.377	37.66
620.71	37.54
621.043	37.89
621.377	37.34
621.71	37.5
622.043	37.47
622.376	37.6
622.709	37.78
623.043	38.13
623.376	37.28
623.709	37.94
624.041	37.96
624.374	37.92
624.707	38.16
625.04	38.09
625.373	38.07
625.705	38.19
626.038	37.5
626.37	38.2
626.703	38.14
627.035	37.94
627.368	37.73
627.7	38.68
628.032	38.51
628.365	38.48
628.697	38.52
629.029	37.93
629.361	38.16
629.693	38.15
630.025	38.2
630.357	38.01
630.689	38.36
631.021	38.05
631.353	38.27
631.684	38.41
632.016	37.91
632.348	38.82
632.679	38.55
633.011	38.98
633.342	38.69
633.674	39.35
634.005	38.63
634.336	39.05
634.668	39.05
634.999	38.99
635.33	38.67
635.661	38.65
635.992	38.73
636.323	39.16
636.654	39.05
636.985	38.57
637.316	38.68
637.647	39.01
637.977	38.82
638.308	39.2
638.639	39.37
638.969	39.13
639.3	38.92
639.63	39.05
639.961	39.12
640.291	39.07
640.622	39.34
640.952	38.78
641.282	39.38
641.612	39.31
641.943	39.51
642.273	39.31
642.603	39.51
642.933	39.56
643.263	39.32
643.592	39.55
643.922	39.83
644.252	39.51
644.582	39.6
644.911	39.82
645.241	39.47
645.571	40.23
645.9	39.89
646.23	39.64
646.559	39.88
646.888	40.42
647.218	40.26
647.547	39.99
647.876	40.24
648.205	40.12
648.534	40.28
648.863	40.09
649.192	39.76
649.521	39.88
649.85	40.29
650.179	40.52
650.508	40.38
650.837	40.42
651.165	40.37
651.494	40.39
651.822	40.41
652.151	39.86
652.479	40.46
652.808	40.3
653.136	40.36
653.465	40.33
653.793	40.18
654.121	40.71
654.449	40.42
654.777	40.86
655.105	40.67
655.433	40.82
655.761	40.88
656.089	40.83
656.417	40.55
656.745	40.77
657.073	40.82
657.4	41.18
657.728	40.84
658.056	40.93
658.383	41.16
658.711	40.41
659.038	41.2
659.365	41.09
659.693	40.83
660.02	41.03
660.347	40.7
660.674	40.89
661.001	40.55
661.329	40.86
661.656	40.96
661.982	40.96
662.309	41.1
662.636	40.88
662.963	41.2
663.29	41.48
663.616	41.2
663.943	41.26
664.27	41.5
664.596	40.85
664.923	41.31
665.249	41.86
665.576	41.68
665.902	41.17
666.228	42.49
666.554	41.18
666.881	41.28
667.207	41.69
667.533	41.36
667.859	41.74
668.185	41.99
668.511	41.51
668.837	41.53
669.162	41.46
669.488	42.17
669.814	41.45
670.139	41.95
670.465	42.47
670.791	41.78
671.116	42.07
671.442	41.74
671.767	41.99
672.092	42.09
672.418	41.9
672.743	42.12
673.068	41.81
673.393	42.26
673.718	42.26
674.043	41.93
674.368	42.38
674.693	42.13
675.018	41.49
675.343	42.16
675.667	42.7
675.992	42.22
676.317	42.64
676.641	42.1
676.966	43.17
677.29	42.19
677.615	42.51
677.939	42.91
678.264	42.43
678.588	42.72
678.912	42.64
679.236	42.5
679.56	42.93
679.885	42.33
680.209	42.87
680.532	43.06
680.856	42.52
681.18	43.37
681.504	42.99
681.828	42.97
682.152	41.81
682.475	43.14
682.799	42.71
683.122	42.34
683.446	42.97
683.769	42.64
684.093	42.25
684.416	42.95
684.739	43.3
685.062	43.21
685.386	42.47
685.709	43.08
686.032	43.18
686.355	42.95
686.678	43.61
687.001	43.22
687.324	43.92
687.646	43.28
687.969	43.76
688.292	43.06
688.614	43.22
688.937	43.17
689.26	43.07
689.582	43.39
689.904	44.08
690.227	43.3
690.549	44.26
690.871	42.95
691.194	43.05
691.516	43.29
691.838	43.95
692.16	43.53
692.482	43.19
692.804	42.35
693.126	42.23
693.448	44.13
693.769	43.92
694.091	44.3
694.413	43.72
694.735	44.02
695.056	43.8
695.378	43.11
695.699	43.43
696.021	43.41
696.342	44.07
696.663	43.01
696.984	43.44
697.306	43.6
697.627	42.57
697.948	44.05
698.269	44.41
698.59	44.66
698.911	43.6
699.232	44.3
699.553	44.76
699.873	44.09
700.194	43.89
700.515	44.49
700.835	44.07
701.156	44.54
701.477	44.26
701.797	44.01
702.117	44.15
702.438	43.86
702.758	44.02
703.078	43.54
703.398	43.88
703.719	43.47
704.039	44.86
704.359	44.62
704.679	44.12
704.999	44.39
705.319	45.15
705.638	44.39
705.958	44.47
706.278	44.78
706.597	44.64
706.917	45.58
707.237	45.55
707.556	45.13
707.876	44.14
708.195	46.34
708.514	44.77
708.834	43.98
709.153	45.47
709.472	44.7
709.791	44.35
710.11	44.32
710.429	45.75
710.748	45.22
711.067	45.23
711.386	45.3
711.705	44.89
712.023	45.05
712.342	44.81
712.661	45.25
712.979	44.87
713.298	45.48
713.616	45.05
713.935	46.95
714.253	44.81
714.572	44.08
714.89	46.11
715.208	44.89
715.526	45.02
715.844	44.98
716.162	44.5
716.48	45.14
716.798	44.53
717.116	44.45
717.434	46.02
717.752	45.6
718.069	44.85
718.387	45.19
718.705	45.28
719.022	44.82
719.34	45.64
719.657	46
719.975	46.86
720.292	44.94
720.609	45.83
720.927	46.57
721.244	45.27
721.561	45.67
721.878	46.02
722.195	45.13
722.512	45.88
722.829	46.06
723.146	45.12
723.463	47.05
723.779	45.6
724.096	45.65
724.413	46.94
724.729	47.28
725.046	46.44
725.362	46.21
725.679	46.03
725.995	45.68
726.311	44.01
726.628	45.45
726.944	46.32
727.26	46.02
727.576	44.41
727.892	45.55
728.208	46.52
728.524	47.61
728.84	46.21
729.156	46.33
729.472	47.49
729.787	46.18
730.103	46.94
730.419	46.83
730.734	46.13
731.05	45.08
731.365	47.11
731.681	44.33
731.996	46.86
732.311	46.41
732.626	45.41
732.942	47
733.257	47.23
733.572	45.89
733.887	46.53
734.202	48.21
734.517	47.5
734.832	47.04
735.146	46.36
735.461	46.23
735.776	45.46
736.091	46.54
736.405	45.79
736.72	48.09
737.034	45.86
737.349	46.3
737.663	46.53
737.977	46.3
738.292	47.5
738.606	47.25
738.92	47.4
739.234	47.18
739.548	47.14
739.862	45.79
740.176	47.81
740.49	46.84
740.804	45.33
741.117	48.65
741.431	47.05
741.745	47.36
742.058	45.15
742.372	46.58
742.685	46.95
742.999	47.68
743.312	48.66
743.626	47.82
743.939	45.84
744.252	45.87
744.565	46.7
744.878	48.26
745.191	47.2
745.505	46.19
745.817	47.78
746.13	50
746.443	47.95
746.756	46.87
747.069	47.92
747.381	46.28
747.694	46.8
748.007	47.65
748.319	47.51
748.632	47.54
748.944	48.89
749.256	48.17
749.569	45.72
749.881	46.73
750.193	45.58
750.505	48.09
750.817	49.2
751.129	49.89
751.441	48.65
751.753	47.48
752.065	48.65
752.377	47.68
752.689	48.98
753	47.69
753.312	48.3
753.624	48.18
753.935	48.52
754.247	47.88
754.558	48.35
754.869	48.36
755.181	46.66
755.492	48.82
755.803	51.37
756.114	46.53
756.425	49.85
756.736	48.77
757.047	47.15
757.358	47.03
757.669	47.1
757.98	46.42
758.291	47.02
758.601	48.62
758.912	48.93
759.223	48.16
759.533	46.15
759.844	50.46
760.154	48.24
760.464	47.11
760.775	46.92
761.085	48.3
761.395	48.76
761.705	47.55
762.016	47.75
762.326	48.21
762.636	46.52
762.945	49.8
763.255	49.2
763.565	47.55
763.875	47.07
764.185	48.97
764.494	49.39
764.804	47.83
765.113	46.51
765.423	48.49
765.732	48.58
766.042	48.66
766.351	49.2
766.66	48.21
766.97	47.77
767.279	47.46
767.588	47.1
767.897	47.63
768.206	47.05
768.515	47.24
768.824	48.9
769.133	48.18
769.441	48.28
769.75	50.46
770.059	51.95
770.367	47.75
770.676	49.05
770.984	47.5
771.293	47.28
771.601	49.5
771.91	46.44
772.218	47.33
772.526	48.34
772.834	49.19
773.142	48.99
773.45	49.84
773.758	49.56
774.066	49.54
774.374	47.5
774.682	49.75
774.99	49.34
775.298	49.12
775.605	50.81
775.913	52.37
776.22	48.46
776.528	51.38
776.835	53.34
777.143	47.55
777.45	50.01
777.757	49.03
778.065	51.37
778.372	51.56
778.679	48.66
778.986	51.12
779.293	46.67
779.6	47.64
779.907	49.43
780.214	49.4
780.52	43.5
780.827	49.15
781.134	51.49
781.44	48.53
781.747	49.38
782.053	49.89
782.36	50.27
782.666	50.61
782.973	53.69
783.279	46.82
783.585	49.12
783.891	49.94
784.197	51.55
784.503	47.96
784.809	50.89
785.115	53.01
785.421	52.27
785.727	50.27
786.033	50.07
786.339	48.14
786.644	50.61
786.95	48.42
787.255	51.37
787.561	49.84
787.866	49.03
788.172	50.78
788.477	51.66
788.782	47.96
789.088	47.77
789.393	43.85
789.698	51.43
790.003	47.95
790.308	50.19
790.613	47.93
790.918	51.33
791.223	49.77
791.527	47.16
791.832	46.56
792.137	49.53
792.441	50.26
792.746	50.78
793.05	49.25
793.355	50.65
793.659	50.24
793.963	49.93
794.268	49.67
794.572	51.13
794.876	53.9
795.18	51.75
795.484	50.78
795.788	49.99
796.092	49.65
796.396	52.18
796.7	53.36
797.004	49.4
797.307	46.18
797.611	47.21
797.915	50.74
798.218	51.24
798.522	49.47
798.825	50.61
799.128	49.68
799.432	48.95
799.735	49.26
800.038	51.71
800.341	52.56
800.644	50.25
800.947	50.57
801.25	51.84
801.553	50.46
801.856	53.96
802.159	47.25
802.462	45.94
802.764	54.13
803.067	55.05
803.37	50.22
803.672	50.19
803.975	46.38
804.277	51.07
804.579	51.18
804.882	50.27
805.184	51.71
805.486	51.47
805.788	52.78
806.09	50.59
806.392	54.82
806.694	49.64
806.996	50.47
807.298	53.47
807.6	54.01
807.902	50.96
808.203	48.02
808.505	44.55
808.807	54.2
809.108	52.15
809.409	51.93
809.711	50.92
810.012	54.02
810.313	47.7
810.615	48.81
810.916	50.4
811.217	49.61
811.518	50.08
811.819	49.73
812.12	51.27
812.421	53.84
812.722	46.93
813.023	49.1
813.323	55.33
813.624	53.08
813.925	52.68
814.225	51.46
814.526	52.87
814.826	50.7
815.126	51.98
815.427	54.09
815.727	51.29
816.027	48.62
816.327	51.06
816.627	55.13
816.927	55.76
817.227	48.34
817.527	50.98
817.827	46.04
818.127	56.42
818.427	50.35
818.727	50.67
819.026	49.96
819.326	45.1
819.625	49.92
819.925	59.42
820.224	51.36
820.524	50.18
820.823	48.62
821.122	47.88
821.421	51.09
821.72	55.56
822.019	51.89
822.318	52.04
822.617	51.52
822.916	52.87
823.215	49.08
823.514	47.65
823.813	53.07
824.111	51.32
824.41	51
824.709	51.66
825.007	53.82
825.306	51.94
825.604	51.86
825.902	50.82
826.201	50.86
826.499	51.17
826.797	50.12
827.095	51.12
827.393	51.45
827.691	49.64
827.989	50.59
828.287	49.35
828.585	50.74
828.882	49.18
829.18	50.69
829.478	49.54
829.775	51.31
830.073	50
830.37	52.4
830.668	52.54
830.965	51.08
831.263	50.61
831.56	49.85
831.857	51.46
832.154	50.17
832.451	51.54
832.748	51.45
833.045	49.03
833.342	49.9
833.639	52.52
833.936	52.7
834.232	47.33
834.529	59.85
834.826	50.39
835.122	51.99
835.419	48.82
835.715	54.46
836.012	53.34
836.308	59.95
836.604	56.51
836.901	49.03
837.197	55.55
837.493	52.27
837.789	49.8
838.085	47.7
838.381	52.55
838.677	49.22
838.972	51.82
839.268	51.57
839.564	50.29
839.86	51.08
840.155	47.74
840.451	54.55
840.746	51.76
841.042	53.39
841.337	50.14
841.632	48.96
841.928	64.82
842.223	60.75
842.518	54.15
842.813	57.71
843.108	47.72
843.403	51.53
843.698	50.99
843.993	57.09
844.287	50.81
844.582	53.22
844.877	44.53
845.171	53.89
845.466	48.76
845.761	47.83
846.055	46.32
846.349	52.23
846.644	51.75
846.938	62.29
847.232	42.02
847.526	49.83
847.82	50.22
848.114	45.67
848.408	51.95
848.702	62.35
848.996	51.59
849.29	46.14
849.584	55.63
849.877	67.06
850.171	56.99
850.465	45.06
850.758	58.6
851.052	61.68
851.345	61
851.638	47.25
851.932	64.51
852.225	61.33
852.518	63.58
852.811	75.43
853.104	58.18
853.397	63.64
853.69	41.43
853.983	45.09
854.276	39.47
854.569	60.79
854.861	43.03
855.154	26.97
855.447	33.38
855.739	53.27
856.032	87.87
856.324	71.77
856.616	54.4
856.909	54.18
857.201	72.99
857.493	42.26
857.785	59.04
858.077	62.78
858.369	41.95
858.661	65.45
858.953	67.89
859.245	54.34
859.537	55.72
859.829	42.61
860.12	51.9
860.412	50.86
860.703	55.68
860.995	62.95
861.286	38.95
861.578	54.17
861.869	50.2
862.16	62.38
862.452	48.05
862.743	60.19
863.034	84.8
863.325	54.71
863.616	51.05
863.907	68.44
864.198	63.37
864.488	40.27
864.779	33.37
865.07	39.61
865.36	64.19
865.651	88.29
865.941	59.69
866.232	94.62
866.522	83
866.813	60.07
867.103	61.82
867.393	31.59
867.683	41.18
867.973	55.61
868.263	69.46
868.553	29.7
868.843	40.11
869.133	57.9
869.423	39.4
869.713	34.47
870.002	67.09
870.292	44.61
870.582	47.76
870.871	57.9
871.161	59.86
871.45	51.86
871.739	34.28
872.029	36.01
872.318	58.33
872.607	83.01
872.896	70.72
873.185	66.14
873.474	53.08
873.763	53.79
874.052	66.85
874.341	64.21
874.63	58.21
874.918	48.78
875.207	64.1
875.496	57.99
875.784	9.01
876.073	60.51
876.361	80.95
876.649	53.54
876.938	54.37
877.226	50.41
877.514	66.4
877.802	38.91
878.09	50.91
878.378	53.13
878.666	51.93
878.954	36.03
879.242	63.95
879.53	61.14
879.817	52.46
880.105	51.08
880.392	39.55
880.68	57.51
880.967	74.97
881.255	79.36
881.542	53.45
881.83	79.62
882.117	31.75
882.404	65.19
882.691	58.25
882.978	35.41
883.265	73.27
883.552	62.01
883.839	44.24
884.126	69.83
884.413	54.49
884.699	56.79
884.986	53.06
885.273	45.22
885.559	45.22
885.846	45.22
