Data from 0430_chest_Reflection__3__95.txt Node

Date: Tue Dec 12 18:57:05 CST 2023
User: ToomeyLab
Spectrometer: FLMS14357
Trigger mode: 0
Integration Time (sec): 1.000000E-2
Scans to average: 100
Electric dark correction enabled: true
Nonlinearity correction enabled: false
Boxcar width: 0
XAxis mode: Wavelengths
Number of Pixels in Spectrum: 2048
>>>>>Begin Spectral Data<<<<<
189.047	-312.39
189.435	-312.39
189.823	-312.39
190.211	-65.96
190.599	26.95
190.987	99.39
191.375	40.57
191.763	-296.49
192.151	-13.08
192.538	-106.7
192.926	538.08
193.314	341.83
193.702	115.37
194.089	288.09
194.477	75.74
194.864	-105.08
195.252	13.54
195.639	-176.19
196.027	15.37
196.414	-2293.38
196.801	25.97
197.189	-78.13
197.576	109.21
197.963	11.99
198.351	20.66
198.738	46.67
199.125	-10.31
199.512	-21.21
199.899	-3.38
200.286	11.94
200.673	-32.39
201.06	43.43
201.447	-57.24
201.833	32.01
202.22	10.04
202.607	-395.32
202.994	34.3
203.38	12.15
203.767	2.8
204.154	2.05
204.54	49.29
204.927	6.83
205.313	20.07
205.699	-10.37
206.086	-4.52
206.472	7.65
206.858	26.91
207.245	9.46
207.631	-8.4
208.017	6.84
208.403	-25.61
208.789	9.48
209.175	-52.73
209.561	18.25
209.947	13.58
210.333	4.09
210.719	-19.41
211.105	19.78
211.491	24.09
211.876	20.45
212.262	35.1
212.648	-28.11
213.034	-65.93
213.419	7.02
213.805	2.29
214.19	23.42
214.576	31.4
214.961	-6.01
215.346	-7.88
215.732	25.78
216.117	7.68
216.502	-40.63
216.888	-34.46
217.273	-12.25
217.658	-37.93
218.043	-17.64
218.428	20.01
218.813	37.93
219.198	-14.76
219.583	3.75
219.968	10.95
220.353	1.49
220.738	2.49
221.122	-14.38
221.507	-24.67
221.892	-0.65
222.276	9.87
222.661	18.26
223.046	1.38
223.43	0.5
223.815	-5.32
224.199	3.6
224.583	7.08
224.968	16.06
225.352	6.4
225.736	6.9
226.121	6.71
226.505	-5.2
226.889	5.82
227.273	1.7
227.657	7.27
228.041	6.62
228.425	5.19
228.809	3.56
229.193	0.39
229.577	4.71
229.961	3.3
230.344	5.22
230.728	5.49
231.112	5.01
231.495	5.05
231.879	5.55
232.263	4.82
232.646	5.33
233.03	6.47
233.413	5.57
233.797	4.75
234.18	2.78
234.563	5.51
234.946	5.49
235.33	5.64
235.713	7.34
236.096	2.82
236.479	5.06
236.862	2.52
237.245	6.53
237.628	4.86
238.011	6
238.394	3.62
238.777	5.43
239.16	6.41
239.543	5.09
239.925	5.15
240.308	6.62
240.691	4
241.073	3.38
241.456	5.81
241.838	5.76
242.221	6.26
242.603	5.69
242.986	5.45
243.368	5.69
243.75	4.78
244.133	4.8
244.515	5.39
244.897	5.44
245.279	5.99
245.661	4.69
246.043	4.21
246.425	5.38
246.807	4.63
247.189	4.4
247.571	5.26
247.953	4.82
248.335	4.7
248.717	5.02
249.098	4.85
249.48	5
249.862	5.1
250.243	4.43
250.625	5.34
251.006	4.58
251.388	5.34
251.769	4.81
252.151	3.99
252.532	5.2
252.913	5.72
253.295	5.33
253.676	4.48
254.057	4.3
254.438	4.98
254.819	4.45
255.2	4.3
255.581	5.14
255.962	4.45
256.343	3.69
256.724	3.99
257.105	5.71
257.486	4.39
257.867	3.24
258.247	3.58
258.628	4.93
259.009	4.44
259.389	3.85
259.77	4.43
260.15	4.49
260.531	4.99
260.911	4.89
261.292	4.18
261.672	4.46
262.052	4.57
262.432	4.61
262.813	4.45
263.193	4.01
263.573	4.4
263.953	4.91
264.333	5.28
264.713	5.46
265.093	4.91
265.473	4.41
265.853	4.39
266.233	4.4
266.612	4.29
266.992	4.22
267.372	4.63
267.752	5.17
268.131	3.66
268.511	4.02
268.89	4.03
269.27	4.07
269.649	3.9
270.029	4.56
270.408	4.7
270.787	3.94
271.167	4.5
271.546	4.47
271.925	5.16
272.304	5.07
272.683	3.38
273.062	3.84
273.441	4.51
273.82	3.94
274.199	4.07
274.578	4.4
274.957	4.06
275.336	4.4
275.715	4.48
276.093	4.06
276.472	4.72
276.851	4.69
277.229	5.11
277.608	4.81
277.986	3.93
278.365	4.2
278.743	3.95
279.122	4.05
279.5	3.9
279.878	3.13
280.257	3.97
280.635	3.97
281.013	3.72
281.391	4.01
281.769	4.66
282.147	3.94
282.525	4.23
282.903	4.51
283.281	4.62
283.659	3.92
284.037	4.4
284.415	3.73
284.792	3.93
285.17	3.89
285.548	4.19
285.925	4.06
286.303	4.18
286.68	4.19
287.058	4.2
287.435	4.35
287.813	3.62
288.19	4.22
288.567	4.11
288.945	4.19
289.322	3.9
289.699	4.02
290.076	4.22
290.453	4.62
290.83	4.09
291.207	4.42
291.584	4.33
291.961	4.4
292.338	4.26
292.715	4.26
293.092	4.11
293.469	3.9
293.845	4.1
294.222	4.27
294.599	4.08
294.975	4.5
295.352	4.14
295.728	4.23
296.105	4.57
296.481	4.65
296.858	4.43
297.234	4.11
297.61	3.98
297.986	4.36
298.363	4.38
298.739	4.11
299.115	3.99
299.491	4.02
299.867	4.15
300.243	3.74
300.619	4.04
300.995	4.89
301.371	4.28
301.746	4.31
302.122	5.09
302.498	4.37
302.874	4.14
303.249	4.72
303.625	3.6
304	4.26
304.376	4.34
304.751	4.43
305.127	3.84
305.502	4.42
305.878	3.96
306.253	4.43
306.628	4.23
307.003	4.34
307.378	3.68
307.754	3.95
308.129	3.62
308.504	5.07
308.879	4.46
309.254	4.26
309.629	4.4
310.003	4.73
310.378	4.53
310.753	4.31
311.128	4.8
311.502	3.75
311.877	3.95
312.252	3.81
312.626	4.27
313.001	3.96
313.375	3.68
313.75	4.12
314.124	4.75
314.498	4.32
314.873	3.61
315.247	4.76
315.621	4.36
315.995	4.95
316.369	3.85
316.743	3.91
317.117	3.53
317.491	4.08
317.865	4.73
318.239	3.9
318.613	4.66
318.987	4.08
319.361	3.97
319.734	4.61
320.108	4.05
320.482	4.42
320.855	4.04
321.229	4.59
321.602	4.28
321.976	4.94
322.349	4.52
322.723	4.09
323.096	4.37
323.469	4.46
323.843	5.07
324.216	4.3
324.589	4.5
324.962	4.53
325.335	4.41
325.708	4.12
326.081	4.35
326.454	3.84
326.827	4.9
327.2	4.25
327.573	3.89
327.945	4.67
328.318	4.59
328.691	4.21
329.063	4.65
329.436	4.54
329.809	4.14
330.181	4.09
330.553	4.81
330.926	4.36
331.298	3.97
331.671	4.29
332.043	4.5
332.415	4.81
332.787	3.72
333.159	4.35
333.532	4.28
333.904	4.45
334.276	4.74
334.648	4.05
335.02	3.92
335.391	4.45
335.763	4.22
336.135	4.3
336.507	4.69
336.879	4.46
337.25	4.09
337.622	3.62
337.993	4.14
338.365	4.05
338.736	4.35
339.108	4.35
339.479	4.93
339.851	4.16
340.222	4.07
340.593	4.45
340.964	4.48
341.336	4.49
341.707	4.21
342.078	3.94
342.449	4.13
342.82	4.68
343.191	4.26
343.562	4.03
343.933	4.77
344.303	4.47
344.674	4.43
345.045	4.36
345.416	4.37
345.786	3.6
346.157	4.55
346.527	4.6
346.898	4.5
347.268	4.1
347.639	4.21
348.009	4.54
348.38	4.1
348.75	4.58
349.12	4.38
349.49	4.27
349.861	4.72
350.231	4.68
350.601	4.64
350.971	4.27
351.341	4.27
351.711	4.69
352.081	4.55
352.45	4.46
352.82	4.38
353.19	4.42
353.56	4.07
353.929	4.18
354.299	4.05
354.669	4.03
355.038	4.2
355.408	4.27
355.777	4.62
356.147	3.79
356.516	4.22
356.885	4.42
357.254	4.35
357.624	4.2
357.993	3.91
358.362	4.5
358.731	4.32
359.1	4.12
359.469	4.7
359.838	4.51
360.207	4.19
360.576	4.77
360.945	4.01
361.314	4.33
361.682	4.62
362.051	4.72
362.42	4.74
362.788	4.41
363.157	4.72
363.525	4.54
363.894	4.37
364.262	4.47
364.631	4.05
364.999	4.57
365.367	4.4
365.735	4.29
366.104	4.22
366.472	4.26
366.84	4.53
367.208	4.42
367.576	4.61
367.944	4.64
368.312	4.48
368.68	4.34
369.048	4.55
369.416	4.56
369.783	4.85
370.151	4.72
370.519	3.97
370.886	4.28
371.254	4.57
371.621	4.57
371.989	4.03
372.356	4.39
372.724	4.4
373.091	4.62
373.458	4.34
373.826	4.39
374.193	4.24
374.56	4.74
374.927	4.54
375.294	4.33
375.661	4.89
376.028	4.79
376.395	4.62
376.762	4.78
377.129	4.83
377.496	4.49
377.863	4.58
378.229	4.5
378.596	4.63
378.963	4.66
379.329	4.25
379.696	4.35
380.062	4.65
380.429	4.39
380.795	4.77
381.161	4.32
381.528	4.39
381.894	4.7
382.26	4.54
382.626	4.69
382.993	5.02
383.359	4.33
383.725	4.49
384.091	4.42
384.457	4.59
384.823	4.83
385.188	4.31
385.554	4.44
385.92	4.36
386.286	4.64
386.651	4.69
387.017	5.07
387.383	4.59
387.748	4.68
388.114	4.47
388.479	4.92
388.845	4.64
389.21	4.51
389.575	4.4
389.94	4.59
390.306	4.74
390.671	4.42
391.036	4.94
391.401	4.44
391.766	4.45
392.131	4.73
392.496	4.43
392.861	4.48
393.226	4.8
393.591	4.65
393.956	4.47
394.32	4.65
394.685	4.58
395.05	4.59
395.414	4.63
395.779	4.38
396.143	4.67
396.508	4.72
396.872	4.64
397.236	4.79
397.601	4.78
397.965	4.47
398.329	4.66
398.694	4.54
399.058	4.63
399.422	4.79
399.786	4.55
400.15	4.46
400.514	4.6
400.878	4.68
401.242	4.66
401.605	4.83
401.969	4.67
402.333	4.66
402.697	4.51
403.06	4.53
403.424	4.66
403.787	4.21
404.151	4.79
404.514	4.35
404.878	4.73
405.241	4.87
405.604	4.27
405.968	4.53
406.331	4.84
406.694	4.7
407.057	4.49
407.42	4.6
407.783	4.54
408.146	4.59
408.509	4.7
408.872	4.63
409.235	4.75
409.598	4.72
409.961	4.73
410.323	4.48
410.686	4.81
411.049	4.74
411.411	4.71
411.774	4.55
412.136	4.66
412.499	4.66
412.861	4.61
413.223	4.91
413.586	4.7
413.948	4.76
414.31	4.67
414.672	4.91
415.035	4.66
415.397	4.79
415.759	4.6
416.121	4.66
416.483	4.76
416.845	4.59
417.206	4.6
417.568	4.64
417.93	4.75
418.292	4.56
418.653	4.8
419.015	4.43
419.377	4.66
419.738	4.72
420.1	4.59
420.461	4.59
420.822	4.74
421.184	4.53
421.545	4.84
421.906	4.62
422.267	4.53
422.629	4.64
422.99	4.59
423.351	4.53
423.712	4.59
424.073	4.58
424.434	4.57
424.795	4.72
425.155	4.51
425.516	4.45
425.877	4.54
426.238	4.7
426.598	4.49
426.959	4.58
427.32	4.62
427.68	4.59
428.041	4.6
428.401	4.7
428.761	4.78
429.122	4.84
429.482	4.91
429.842	4.86
430.202	4.62
430.563	4.77
430.923	4.78
431.283	4.66
431.643	4.83
432.003	4.72
432.363	4.86
432.722	4.64
433.082	4.56
433.442	4.77
433.802	4.9
434.161	4.83
434.521	4.66
434.881	4.75
435.24	4.73
435.6	4.77
435.959	4.79
436.319	4.8
436.678	4.93
437.037	4.72
437.396	4.64
437.756	4.77
438.115	4.69
438.474	4.84
438.833	4.7
439.192	4.81
439.551	4.63
439.91	4.74
440.269	4.62
440.628	4.6
440.987	4.59
441.345	4.85
441.704	4.73
442.063	4.69
442.421	4.75
442.78	4.63
443.138	4.6
443.497	4.78
443.855	4.73
444.214	4.69
444.572	4.79
444.93	4.79
445.288	4.6
445.647	4.91
446.005	4.65
446.363	4.57
446.721	4.83
447.079	4.74
447.437	4.61
447.795	4.81
448.153	4.7
448.51	4.8
448.868	4.71
449.226	4.67
449.584	4.73
449.941	4.77
450.299	4.78
450.656	4.65
451.014	4.86
451.371	4.73
451.729	4.74
452.086	4.86
452.443	4.95
452.801	4.91
453.158	4.82
453.515	4.84
453.872	4.84
454.229	4.94
454.586	4.67
454.943	4.77
455.3	4.77
455.657	4.82
456.014	4.99
456.371	4.84
456.727	4.92
457.084	4.78
457.441	4.84
457.797	4.68
458.154	4.8
458.51	4.76
458.867	4.97
459.223	4.83
459.58	4.89
459.936	4.74
460.292	4.88
460.648	4.88
461.005	4.78
461.361	4.71
461.717	4.8
462.073	4.73
462.429	4.77
462.785	4.75
463.141	4.77
463.496	4.72
463.852	5.06
464.208	4.84
464.564	4.96
464.919	5
465.275	4.95
465.631	4.89
465.986	4.94
466.342	4.71
466.697	4.95
467.052	5.06
467.408	4.91
467.763	5.11
468.118	4.97
468.473	4.84
468.829	4.81
469.184	4.77
469.539	4.94
469.894	4.88
470.249	4.81
470.603	4.87
470.958	4.85
471.313	4.95
471.668	5
472.023	5
472.377	4.89
472.732	4.94
473.086	5.03
473.441	4.94
473.795	4.98
474.15	4.96
474.504	4.95
474.859	4.89
475.213	4.77
475.567	4.94
475.921	4.93
476.275	4.8
476.63	4.96
476.984	5.1
477.338	4.82
477.692	4.95
478.045	5.08
478.399	4.9
478.753	4.85
479.107	4.88
479.461	5.09
479.814	4.89
480.168	4.8
480.521	4.75
480.875	4.91
481.228	5.05
481.582	4.98
481.935	4.93
482.289	5.01
482.642	5.08
482.995	4.91
483.348	4.83
483.701	5.04
484.055	4.86
484.408	4.89
484.761	4.73
485.114	4.75
485.466	4.64
485.819	4.58
486.172	4.62
486.525	4.72
486.878	4.71
487.23	4.74
487.583	4.77
487.936	4.9
488.288	4.85
488.641	4.81
488.993	4.66
489.345	4.71
489.698	4.7
490.05	4.74
490.402	4.8
490.754	4.79
491.107	4.84
491.459	4.92
491.811	5.05
492.163	4.87
492.515	4.96
492.866	4.84
493.218	4.84
493.57	4.8
493.922	4.75
494.274	4.78
494.625	4.95
494.977	4.98
495.328	5.11
495.68	4.88
496.031	5.19
496.383	4.9
496.734	5.03
497.086	4.89
497.437	5.08
497.788	5.19
498.139	5.03
498.49	5.16
498.842	5.09
499.193	5.08
499.544	5.02
499.894	5.08
500.245	5.12
500.596	4.98
500.947	5.15
501.298	5.19
501.648	5.21
501.999	5.04
502.35	5.13
502.7	5.05
503.051	5.13
503.401	5.08
503.752	5.26
504.102	5.17
504.452	5.28
504.803	5.24
505.153	5.19
505.503	5.22
505.853	5.12
506.203	5.14
506.553	5.22
506.903	5.24
507.253	5.18
507.603	5.13
507.953	5.21
508.303	5.3
508.652	5.27
509.002	5.17
509.352	5.13
509.701	5.14
510.051	5.23
510.4	5.17
510.75	5.19
511.099	5.05
511.449	5.14
511.798	5.09
512.147	5.2
512.496	5.28
512.846	5.25
513.195	5.05
513.544	5.26
513.893	5.32
514.242	5.16
514.591	5.19
514.939	5.31
515.288	5.23
515.637	5.13
515.986	5.29
516.334	5.37
516.683	5.24
517.032	5.26
517.38	5.29
517.729	5.52
518.077	5.26
518.426	5.44
518.774	5.31
519.122	5.31
519.47	5.24
519.819	5.2
520.167	5.2
520.515	5.24
520.863	5.18
521.211	5.13
521.559	5.18
521.907	5.29
522.255	5.29
522.602	5.38
522.95	5.27
523.298	5.45
523.645	5.46
523.993	5.47
524.341	5.41
524.688	5.29
525.036	5.42
525.383	5.46
525.73	5.41
526.078	5.37
526.425	5.54
526.772	5.23
527.119	5.32
527.466	5.34
527.814	5.31
528.161	5.34
528.508	5.38
528.854	5.38
529.201	5.4
529.548	5.37
529.895	5.22
530.242	5.15
530.588	5.11
530.935	5.22
531.282	5.21
531.628	5.27
531.975	5.32
532.321	5.33
532.667	5.38
533.014	5.37
533.36	5.48
533.706	5.39
534.052	5.46
534.399	5.46
534.745	5.4
535.091	5.34
535.437	5.39
535.783	5.39
536.129	5.45
536.474	5.5
536.82	5.49
537.166	5.59
537.512	5.56
537.857	5.6
538.203	5.59
538.549	5.49
538.894	5.6
539.239	5.52
539.585	5.57
539.93	5.71
540.276	5.65
540.621	5.78
540.966	5.68
541.311	5.66
541.656	5.78
542.001	5.74
542.346	5.7
542.691	5.6
543.036	5.55
543.381	5.49
543.726	5.57
544.071	5.52
544.415	5.58
544.76	5.67
545.105	5.68
545.449	5.74
545.794	5.82
546.138	5.63
546.483	5.82
546.827	5.87
547.171	5.88
547.516	5.87
547.86	6.02
548.204	5.93
548.548	5.96
548.892	5.89
549.236	5.89
549.58	6
549.924	6.04
550.268	6.05
550.612	5.85
550.956	6.08
551.3	6.12
551.643	6.04
551.987	6.21
552.33	6.18
552.674	6.21
553.017	6.22
553.361	6.38
553.704	6.06
554.048	6.22
554.391	6.1
554.734	6.21
555.077	6.21
555.42	6.02
555.764	6.17
556.107	6.25
556.45	6.17
556.793	6.13
557.135	6.21
557.478	6.37
557.821	6.27
558.164	6.25
558.507	6.43
558.849	6.28
559.192	6.4
559.534	6.35
559.877	6.32
560.219	6.43
560.562	6.37
560.904	6.47
561.246	6.52
561.589	6.49
561.931	6.38
562.273	6.36
562.615	6.36
562.957	6.46
563.299	6.54
563.641	6.51
563.983	6.54
564.325	6.57
564.667	6.6
565.008	6.33
565.35	6.57
565.692	6.57
566.033	6.62
566.375	6.55
566.716	6.4
567.058	6.65
567.399	6.82
567.741	6.69
568.082	6.51
568.423	6.62
568.764	6.67
569.105	6.62
569.447	6.83
569.788	6.73
570.129	6.7
570.47	6.7
570.811	6.7
571.151	6.77
571.492	6.98
571.833	6.87
572.174	6.74
572.514	6.92
572.855	7.07
573.195	6.84
573.536	6.78
573.876	6.92
574.217	7
574.557	6.85
574.898	6.98
575.238	7.04
575.578	6.82
575.918	7.1
576.258	6.92
576.598	6.96
576.938	6.91
577.278	7.14
577.618	7.25
577.958	7.09
578.298	7.19
578.638	7.19
578.977	7.16
579.317	7.17
579.657	7.18
579.996	7.55
580.336	7.15
580.675	7.33
581.014	7.3
581.354	7.28
581.693	7.29
582.032	7.49
582.372	7.5
582.711	7.42
583.05	7.49
583.389	7.62
583.728	7.34
584.067	7.68
584.406	7.6
584.745	7.52
585.083	7.51
585.422	7.73
585.761	7.79
586.1	7.66
586.438	7.86
586.777	7.72
587.115	7.44
587.454	7.93
587.792	7.84
588.13	7.82
588.469	8.2
588.807	7.66
589.145	7.72
589.483	7.73
589.821	7.95
590.159	8.1
590.497	7.67
590.835	7.86
591.173	7.9
591.511	8
591.849	7.74
592.187	8.15
592.524	7.95
592.862	7.89
593.2	7.93
593.537	8
593.875	8.07
594.212	8.19
594.55	8.31
594.887	8.6
595.224	7.92
595.561	8.25
595.899	8.01
596.236	8.28
596.573	8.44
596.91	8.57
597.247	8.21
597.584	8.52
597.921	8.48
598.258	8.33
598.594	8.55
598.931	8.45
599.268	8.38
599.604	8.31
599.941	8.29
600.277	8.32
600.614	8.64
600.95	8.53
601.287	8.61
601.623	8.48
601.959	8.57
602.296	8.96
602.632	8.48
602.968	8.77
603.304	8.66
603.64	8.6
603.976	8.55
604.312	8.71
604.648	8.8
604.984	8.61
605.319	8.67
605.655	8.65
605.991	8.8
606.326	8.51
606.662	9
606.998	8.71
607.333	8.79
607.668	9
608.004	8.99
608.339	9.04
608.674	8.89
609.01	9.01
609.345	9.16
609.68	9.13
610.015	8.99
610.35	9.31
610.685	9.5
611.02	9
611.355	9.09
611.689	9.14
612.024	9.09
612.359	9.43
612.694	9.28
613.028	9.16
613.363	9.37
613.697	9.45
614.032	9.44
614.366	9.21
614.7	9.41
615.035	9.7
615.369	9.36
615.703	9.26
616.037	9.57
616.371	9.42
616.705	9.62
617.039	9.31
617.373	9.44
617.707	9.81
618.041	9.78
618.375	9.61
618.709	9.55
619.042	9.47
619.376	9.56
619.71	9.77
620.043	9.81
620.377	9.42
620.71	9.72
621.043	9.8
621.377	9.44
621.71	9.98
622.043	10.24
622.376	10.01
622.709	10.22
623.043	9.95
623.376	10.42
623.709	10.24
624.041	10.06
624.374	9.93
624.707	10.16
625.04	10.13
625.373	10.45
625.705	10.4
626.038	10.51
626.37	10.31
626.703	10.43
627.035	10.44
627.368	10.61
627.7	10.32
628.032	10.45
628.365	10.5
628.697	10.39
629.029	10.24
629.361	10.49
629.693	10.56
630.025	10.36
630.357	10.84
630.689	10.58
631.021	10.46
631.353	10.83
631.684	10.63
632.016	10.65
632.348	10.74
632.679	10.56
633.011	10.8
633.342	10.89
633.674	10.89
634.005	10.89
634.336	11.21
634.668	10.96
634.999	11.37
635.33	10.94
635.661	10.97
635.992	11.09
636.323	11.15
636.654	11.54
636.985	11.23
637.316	11.18
637.647	11.02
637.977	11.19
638.308	11.68
638.639	11.13
638.969	11.11
639.3	10.97
639.63	11.79
639.961	11.39
640.291	11.17
640.622	11.42
640.952	11.75
641.282	11.83
641.612	11.55
641.943	11.41
642.273	11.69
642.603	11.75
642.933	11.69
643.263	11.67
643.592	11.55
643.922	11.98
644.252	12.27
644.582	11.61
644.911	11.39
645.241	11.91
645.571	12.21
645.9	11.49
646.23	11.67
646.559	12.46
646.888	11.98
647.218	11.99
647.547	11.63
647.876	11.91
648.205	12.01
648.534	11.99
648.863	12.18
649.192	12.4
649.521	12.67
649.85	11.71
650.179	12.03
650.508	12.55
650.837	12.2
651.165	12.15
651.494	12.3
651.822	12.16
652.151	12.49
652.479	12.65
652.808	12.68
653.136	12.57
653.465	12.01
653.793	12.25
654.121	12.68
654.449	12.53
654.777	12.51
655.105	12.69
655.433	12.77
655.761	12.68
656.089	12.61
656.417	13.1
656.745	12.55
657.073	12.64
657.4	12.96
657.728	12.79
658.056	13.18
658.383	13.1
658.711	13.12
659.038	13.03
659.365	12.59
659.693	13.18
660.02	13.05
660.347	13.08
660.674	13.13
661.001	13.12
661.329	13.29
661.656	13.27
661.982	13.41
662.309	13.59
662.636	13.48
662.963	13.28
663.29	13.64
663.616	13.38
663.943	13.56
664.27	14
664.596	13.74
664.923	14.66
665.249	13.43
665.576	13.26
665.902	13.5
666.228	13.74
666.554	13.22
666.881	13.47
667.207	13.47
667.533	13.95
667.859	13.23
668.185	13.8
668.511	13.7
668.837	13.96
669.162	14.13
669.488	13.44
669.814	13.82
670.139	13.74
670.465	13.52
670.791	14
671.116	14.37
671.442	13.62
671.767	14.28
672.092	14.12
672.418	14.34
672.743	14.3
673.068	13.89
673.393	14.13
673.718	14.23
674.043	14.65
674.368	13.79
674.693	14.11
675.018	14.03
675.343	13.87
675.667	14.45
675.992	14.4
676.317	13.66
676.641	14.9
676.966	14.16
677.29	14.4
677.615	14.73
677.939	14.79
678.264	15.56
678.588	15.05
678.912	14.51
679.236	14.91
679.56	14.36
679.885	15.15
680.209	14.82
680.532	14.84
680.856	14.95
681.18	14.65
681.504	14.38
681.828	14.99
682.152	14.55
682.475	15.6
682.799	15.64
683.122	14.93
683.446	15.19
683.769	15.77
684.093	14.66
684.416	14.68
684.739	15.89
685.062	14.92
685.386	15.44
685.709	15.35
686.032	14.88
686.355	14.8
686.678	15.82
687.001	15.58
687.324	15.65
687.646	16.6
687.969	15.55
688.292	15.76
688.614	15.73
688.937	15.67
689.26	16.12
689.582	15.7
689.904	14.89
690.227	15.57
690.549	15.86
690.871	16.2
691.194	15.81
691.516	16.43
691.838	16.1
692.16	15.93
692.482	15.33
692.804	15.71
693.126	16.35
693.448	16.58
693.769	15.48
694.091	16.97
694.413	16.69
694.735	16.03
695.056	15.78
695.378	16.26
695.699	16.89
696.021	15.65
696.342	16.76
696.663	16.33
696.984	16.18
697.306	16.08
697.627	15.74
697.948	16.64
698.269	16.78
698.59	17.32
698.911	16.82
699.232	15.76
699.553	16.67
699.873	17.26
700.194	17.21
700.515	16.7
700.835	16.33
701.156	16.92
701.477	17.13
701.797	16.77
702.117	16.41
702.438	17.29
702.758	16.67
703.078	17.61
703.398	16.63
703.719	17.09
704.039	17.17
704.359	17.17
704.679	17.14
704.999	17.49
705.319	16.82
705.638	17.6
705.958	16.78
706.278	17.81
706.597	17.3
706.917	17.18
707.237	17.03
707.556	18.31
707.876	17.98
708.195	17.39
708.514	16.67
708.834	18.63
709.153	17.78
709.472	17.45
709.791	17.63
710.11	18.15
710.429	17.68
710.748	17.11
711.067	18.19
711.386	18.37
711.705	18.93
712.023	18.53
712.342	18.16
712.661	17.99
712.979	17.94
713.298	18.49
713.616	18.27
713.935	17.53
714.253	17.95
714.572	16.84
714.89	17.85
715.208	18.51
715.526	18.67
715.844	18.74
716.162	17.91
716.48	18.41
716.798	18.5
717.116	18.8
717.434	19.27
717.752	17.48
718.069	18.83
718.387	18.92
718.705	19.07
719.022	19.64
719.34	18.15
719.657	18.78
719.975	19.21
720.292	19.57
720.609	18.73
720.927	18.57
721.244	18.74
721.561	18.84
721.878	18.6
722.195	17.28
722.512	19.71
722.829	19.74
723.146	18.8
723.463	20
723.779	19.6
724.096	20.07
724.413	19.62
724.729	18.34
725.046	19.46
725.362	18.9
725.679	18.34
725.995	20.04
726.311	19.28
726.628	18.85
726.944	19.09
727.26	20.57
727.576	20.12
727.892	18.86
728.208	19.77
728.524	17.9
728.84	21.19
729.156	20.11
729.472	20.39
729.787	19.03
730.103	21.4
730.419	18.83
730.734	19.08
731.05	19.97
731.365	19.89
731.681	20.7
731.996	19.92
732.311	19.94
732.626	19.61
732.942	20.14
733.257	20.56
733.572	21.65
733.887	20.64
734.202	20.3
734.517	18.86
734.832	20.19
735.146	21.82
735.461	21.49
735.776	20.21
736.091	19.1
736.405	20.58
736.72	19.98
737.034	20.88
737.349	20.75
737.663	20.8
737.977	20.15
738.292	19.3
738.606	18.89
738.92	20.4
739.234	20.33
739.548	23.2
739.862	22.49
740.176	19.3
740.49	21.01
740.804	20.51
741.117	20.81
741.431	20.47
741.745	22.56
742.058	21.62
742.372	20.31
742.685	20.7
742.999	20.98
743.312	21.18
743.626	20.8
743.939	22.49
744.252	21.23
744.565	22.26
744.878	22.1
745.191	19.76
745.505	20.51
745.817	22.65
746.13	22.06
746.443	19.77
746.756	21.13
747.069	21.66
747.381	19.18
747.694	21.53
748.007	20.16
748.319	24.09
748.632	22.01
748.944	20.45
749.256	21.09
749.569	22.23
749.881	20.88
750.193	20.9
750.505	22.02
750.817	19.79
751.129	20.83
751.441	22.47
751.753	23.23
752.065	21.44
752.377	23.03
752.689	22.82
753	22.95
753.312	22.65
753.624	22.98
753.935	22.76
754.247	22.82
754.558	21.88
754.869	21.83
755.181	22.58
755.492	22.45
755.803	22.83
756.114	23.48
756.425	24.41
756.736	23.97
757.047	22.41
757.358	22.93
757.669	23.93
757.98	24.52
758.291	23.06
758.601	22.96
758.912	24.14
759.223	21.06
759.533	22.28
759.844	23.31
760.154	24.5
760.464	24.27
760.775	23.92
761.085	21.48
761.395	21.89
761.705	22.11
762.016	22.82
762.326	22.9
762.636	24.6
762.945	24.65
763.255	22.62
763.565	22.51
763.875	24.99
764.185	24.15
764.494	24.79
764.804	22.57
765.113	25.33
765.423	23.86
765.732	23.82
766.042	23.4
766.351	24.46
766.66	22.63
766.97	24.16
767.279	21.58
767.588	24.2
767.897	23.24
768.206	25.03
768.515	24.79
768.824	24.68
769.133	25.37
769.441	24.52
769.75	21.16
770.059	23.64
770.367	21.7
770.676	25.73
770.984	23.07
771.293	26.82
771.601	22.89
771.91	25.19
772.218	24.23
772.526	24.66
772.834	24.27
773.142	24.05
773.45	24.35
773.758	24.17
774.066	23.04
774.374	22.08
774.682	25.4
774.99	22.67
775.298	26.97
775.605	26.02
775.913	23.37
776.22	23.74
776.528	23.45
776.835	25.68
777.143	26.73
777.45	25.99
777.757	24.73
778.065	25.66
778.372	26.14
778.679	20.2
778.986	25.69
779.293	28.6
779.6	24.07
779.907	23.76
780.214	25
780.52	24.02
780.827	26.39
781.134	27.7
781.44	27.02
781.747	22.72
782.053	28.25
782.36	26.23
782.666	22.87
782.973	29.07
783.279	23.99
783.585	23.22
783.891	30.66
784.197	27.37
784.503	23.2
784.809	24.52
785.115	27.18
785.421	26.26
785.727	23.91
786.033	24.81
786.339	27.96
786.644	25.1
786.95	30.07
787.255	23.69
787.561	22.82
787.866	24.5
788.172	22.97
788.477	27.88
788.782	23.81
789.088	25.02
789.393	25.59
789.698	26.65
790.003	27.47
790.308	27.59
790.613	27.65
790.918	25.5
791.223	28.47
791.527	26.36
791.832	26.31
792.137	22.32
792.441	26.04
792.746	26.87
793.05	28.61
793.355	28.81
793.659	26.36
793.963	27.29
794.268	27.21
794.572	26.55
794.876	25.65
795.18	23.04
795.484	23.67
795.788	28.24
796.092	23.44
796.396	24.13
796.7	25.84
797.004	30.47
797.307	23.28
797.611	24.61
797.915	28.26
798.218	29.44
798.522	24.86
798.825	29.93
799.128	27.16
799.432	26.07
799.735	28.83
800.038	29.33
800.341	31.45
800.644	24.56
800.947	30.47
801.25	28.26
801.553	24.87
801.856	24.3
802.159	28.37
802.462	29.35
802.764	30.16
803.067	25.1
803.37	32.21
803.672	27.29
803.975	25.8
804.277	28.16
804.579	23.8
804.882	28.31
805.184	24.84
805.486	24.32
805.788	22.44
806.09	27.33
806.392	26.41
806.694	27.06
806.996	20.09
807.298	25
807.6	24.55
807.902	28.55
808.203	26.81
808.505	29.57
808.807	24.04
809.108	24.29
809.409	37.74
809.711	32.2
810.012	27.38
810.313	29.2
810.615	33.66
810.916	27.01
811.217	24.32
811.518	20.16
811.819	33.77
812.12	25.43
812.421	27.04
812.722	29.11
813.023	20.64
813.323	31.8
813.624	29.97
813.925	29.3
814.225	25.26
814.526	24.83
814.826	35.45
815.126	19.74
815.427	23.24
815.727	25.15
816.027	27.74
816.327	29.19
816.627	38.4
816.927	33.34
817.227	27.06
817.527	23.38
817.827	26.16
818.127	33.46
818.427	25.26
818.727	23.96
819.026	24.61
819.326	28.61
819.625	26.37
819.925	32.23
820.224	28.93
820.524	31.06
820.823	30.43
821.122	31.45
821.421	22.54
821.72	24.89
822.019	23.37
822.318	22.95
822.617	30.1
822.916	27.35
823.215	29.4
823.514	33.06
823.813	30.98
824.111	31.42
824.41	30.44
824.709	31.86
825.007	31.81
825.306	31.89
825.604	31.33
825.902	32.22
826.201	32.13
826.499	32.32
826.797	32.64
827.095	30.74
827.393	32.17
827.691	31.35
827.989	31.58
828.287	31.13
828.585	31.86
828.882	29.67
829.18	32.93
829.478	32.11
829.775	29.04
830.073	31.59
830.37	34.67
830.668	33.09
830.965	35.08
831.263	31.59
831.56	31.9
831.857	30.87
832.154	28.75
832.451	28.76
832.748	33.85
833.045	30.29
833.342	29.4
833.639	30.69
833.936	27
834.232	35.32
834.529	32.35
834.826	34.87
835.122	34.96
835.419	39.03
835.715	33.46
836.012	26.25
836.308	28.95
836.604	35.08
836.901	32.87
837.197	35.3
837.493	34.36
837.789	33.42
838.085	37.46
838.381	30.21
838.677	30.39
838.972	37.93
839.268	23.82
839.564	33.2
839.86	30.79
840.155	30.7
840.451	19.98
840.746	42.25
841.042	28.07
841.337	33.66
841.632	20.48
841.928	37.24
842.223	36.48
842.518	39.06
842.813	31.65
843.108	20.67
843.403	24.17
843.698	27.47
843.993	36.29
844.287	25
844.582	26.03
844.877	27.38
845.171	35.97
845.466	42.07
845.761	29.87
846.055	34.09
846.349	32.44
846.644	39.01
846.938	32.61
847.232	32.12
847.526	18.5
847.82	27.94
848.114	46.41
848.408	10.19
848.702	49.52
848.996	47.48
849.29	42.22
849.584	27.82
849.877	26.47
850.171	31.87
850.465	29.04
850.758	29.05
851.052	17.39
851.345	24.71
851.638	18.74
851.932	36.11
852.225	-8.26
852.518	34.76
852.811	49.64
853.104	25.03
853.397	33.29
853.69	17.91
853.983	46.17
854.276	23.8
854.569	29.4
854.861	44.22
855.154	29.81
855.447	9.17
855.739	30.03
856.032	23.02
856.324	38.09
856.616	54.26
856.909	28.06
857.201	42.98
857.493	23.15
857.785	54.39
858.077	27.1
858.369	23.86
858.661	35.92
858.953	40.48
859.245	3.6
859.537	34.98
859.829	38.01
860.12	33.02
860.412	6.85
860.703	15.6
860.995	31.41
861.286	46.51
861.578	23.39
861.869	24.71
862.16	17.21
862.452	26.66
862.743	21.49
863.034	63.75
863.325	41.78
863.616	42.03
863.907	42.21
864.198	-0.78
864.488	31.27
864.779	34.61
865.07	7.66
865.36	46.05
865.651	8.69
865.941	10.61
866.232	22.14
866.522	51.11
866.813	32.84
867.103	31.19
867.393	36.89
867.683	36.95
867.973	54.09
868.263	10.04
868.553	38.19
868.843	-0.82
869.133	0.16
869.423	52.13
869.713	20.37
870.002	-17.24
870.292	40.38
870.582	42.28
870.871	34.49
871.161	53.53
871.45	37.05
871.739	40.67
872.029	31.69
872.318	53.68
872.607	0.03
872.896	32.97
873.185	10.42
873.474	32.69
873.763	70.23
874.052	58.15
874.341	54.71
874.63	26.92
874.918	-4.81
875.207	25.45
875.496	44.69
875.784	21.65
876.073	6.25
876.361	36.44
876.649	16.92
876.938	69.91
877.226	48.63
877.514	12.86
877.802	27.34
878.09	31.84
878.378	22.38
878.666	12.87
878.954	37.4
879.242	26.02
879.53	43.53
879.817	1.27
880.105	25.72
880.392	49.57
880.68	31.28
880.967	32.68
881.255	23.56
881.542	39.12
881.83	40.86
882.117	25.78
882.404	48.58
882.691	-0.96
882.978	24.69
883.265	14.48
883.552	28.02
883.839	36.6
884.126	56.29
884.413	38.34
884.699	33.06
884.986	35.59
885.273	35.82
885.559	35.82
885.846	35.82
