Data from 0430_forehead_Reflection__1__103.txt Node

Date: Tue Dec 12 19:00:38 CST 2023
User: ToomeyLab
Spectrometer: FLMS14357
Trigger mode: 0
Integration Time (sec): 1.000000E-2
Scans to average: 100
Electric dark correction enabled: true
Nonlinearity correction enabled: false
Boxcar width: 0
XAxis mode: Wavelengths
Number of Pixels in Spectrum: 2048
>>>>>Begin Spectral Data<<<<<
189.047	-531.1
189.435	-531.1
189.823	-531.1
190.211	93.02
190.599	25.51
190.987	58.31
191.375	247.46
191.763	-4.8
192.151	109.77
192.538	-199.23
192.926	141.68
193.314	441.12
193.702	118.97
194.089	134.04
194.477	9.84
194.864	98.55
195.252	50.74
195.639	-1789.52
196.027	24.26
196.414	-1478.81
196.801	78.61
197.189	551.94
197.576	85.66
197.963	30.65
198.351	59.55
198.738	35.38
199.125	85.9
199.512	14.73
199.899	76.54
200.286	15.87
200.673	-24.65
201.06	-9.5
201.447	-113.4
201.833	25.09
202.22	34.37
202.607	-153.37
202.994	101.9
203.38	49.65
203.767	14.85
204.154	34.67
204.54	48.53
204.927	37.57
205.313	37.03
205.699	33.38
206.086	-34.92
206.472	57.22
206.858	14.68
207.245	54.62
207.631	67.6
208.017	7.25
208.403	-1.16
208.789	35.82
209.175	-30.03
209.561	30.77
209.947	3.8
210.333	34.01
210.719	27.58
211.105	75.63
211.491	49.89
211.876	10.61
212.262	20.21
212.648	18.45
213.034	-3.8
213.419	47.18
213.805	7.8
214.19	16.33
214.576	25.88
214.961	20.19
215.346	64.54
215.732	39.98
216.117	55.56
216.502	2.06
216.888	-3.53
217.273	26.67
217.658	-10.52
218.043	24.58
218.428	16.77
218.813	23.18
219.198	-12.5
219.583	24.11
219.968	36.94
220.353	4.78
220.738	35.84
221.122	36.52
221.507	33.12
221.892	9.25
222.276	13.18
222.661	14.04
223.046	2.07
223.43	14.71
223.815	10.21
224.199	6.98
224.583	11.37
224.968	14.94
225.352	9.03
225.736	11.26
226.121	8.67
226.505	8.52
226.889	14.95
227.273	6.73
227.657	12.11
228.041	8.89
228.425	9.82
228.809	5.3
229.193	6.5
229.577	7.91
229.961	5.37
230.344	6.6
230.728	6.75
231.112	7.22
231.495	6.49
231.879	6.85
232.263	4.16
232.646	4.04
233.03	7.26
233.413	5.37
233.797	3.37
234.18	5.85
234.563	4.94
234.946	8.28
235.33	7.46
235.713	8.17
236.096	4.5
236.479	7.31
236.862	7.43
237.245	7.97
237.628	6.28
238.011	7.37
238.394	6.27
238.777	7.79
239.16	7.84
239.543	7.36
239.925	5.57
240.308	6.42
240.691	5.79
241.073	7.84
241.456	6.85
241.838	6.97
242.221	6.55
242.603	7.27
242.986	5.31
243.368	6.37
243.75	6.79
244.133	6.7
244.515	6.82
244.897	6.73
245.279	7.11
245.661	6.51
246.043	7.34
246.425	7.55
246.807	6.63
247.189	7.71
247.571	6.44
247.953	6.7
248.335	6.77
248.717	6.64
249.098	6.44
249.48	6.34
249.862	6.66
250.243	6.56
250.625	7.36
251.006	6.83
251.388	6.74
251.769	7.48
252.151	7.05
252.532	7.62
252.913	7.16
253.295	7.59
253.676	6.2
254.057	6.31
254.438	7.18
254.819	6.42
255.2	5.69
255.581	7.58
255.962	5.81
256.343	6.79
256.724	8.05
257.105	8.55
257.486	7.25
257.867	5.87
258.247	6.97
258.628	6.81
259.009	6.15
259.389	7.23
259.77	6.79
260.15	6.82
260.531	6.77
260.911	6.91
261.292	6.33
261.672	6.23
262.052	6.24
262.432	6.71
262.813	6.4
263.193	6.73
263.573	7.61
263.953	7.59
264.333	7.72
264.713	6.7
265.093	7.35
265.473	6.66
265.853	6.17
266.233	6.52
266.612	5.96
266.992	6.42
267.372	7.28
267.752	7.41
268.131	6.46
268.511	6.43
268.89	5.91
269.27	5.92
269.649	6.1
270.029	6.21
270.408	6.85
270.787	7.1
271.167	6.61
271.546	6.86
271.925	7.09
272.304	6.84
272.683	5.56
273.062	6.36
273.441	7
273.82	6.43
274.199	6.27
274.578	6.19
274.957	6.22
275.336	6.48
275.715	6.79
276.093	6.34
276.472	7.02
276.851	6.43
277.229	6.31
277.608	6.98
277.986	5.44
278.365	6.48
278.743	5.98
279.122	6.85
279.5	6.58
279.878	5.88
280.257	6.28
280.635	6.01
281.013	6.05
281.391	7.04
281.769	6.74
282.147	6.91
282.525	6.18
282.903	5.8
283.281	6.44
283.659	6.87
284.037	6.92
284.415	6.43
284.792	6.76
285.17	6.59
285.548	6.83
285.925	6.18
286.303	6.25
286.68	6.85
287.058	6.75
287.435	6.41
287.813	5.98
288.19	6.36
288.567	6.54
288.945	6.49
289.322	6.45
289.699	6.73
290.076	6.83
290.453	6.99
290.83	6.53
291.207	7.39
291.584	7.25
291.961	6.95
292.338	6.82
292.715	6.93
293.092	6.81
293.469	6.91
293.845	7.09
294.222	6.91
294.599	7.18
294.975	7.09
295.352	7.45
295.728	7.69
296.105	7.03
296.481	7.97
296.858	7.95
297.234	7.62
297.61	7.83
297.986	7.71
298.363	7.85
298.739	7.61
299.115	7.56
299.491	7.71
299.867	7.69
300.243	7.75
300.619	8.3
300.995	8.1
301.371	8.46
301.746	8.23
302.122	8.58
302.498	7.98
302.874	8.51
303.249	9.38
303.625	8.24
304	8.75
304.376	8.74
304.751	9.05
305.127	8.42
305.502	8.93
305.878	8.64
306.253	8.43
306.628	8.93
307.003	9.33
307.378	9.42
307.754	8.94
308.129	9
308.504	10.2
308.879	8.78
309.254	9.67
309.629	9.16
310.003	9.42
310.378	9.87
310.753	10
311.128	9.8
311.502	9.09
311.877	9.04
312.252	9.4
312.626	9.71
313.001	9.58
313.375	9.35
313.75	9.92
314.124	10.34
314.498	9.68
314.873	10.01
315.247	10.19
315.621	9.9
315.995	10.74
316.369	10.58
316.743	9.86
317.117	9.84
317.491	10.11
317.865	10.74
318.239	10.5
318.613	11.08
318.987	11.22
319.361	9.92
319.734	11.24
320.108	11.3
320.482	11.33
320.855	10.51
321.229	10.94
321.602	11.03
321.976	11.13
322.349	12.1
322.723	11.74
323.096	11.53
323.469	11.91
323.843	12.21
324.216	11.3
324.589	11.59
324.962	12
325.335	11.63
325.708	12.16
326.081	12.05
326.454	11.47
326.827	11.97
327.2	12.11
327.573	10.82
327.945	11.99
328.318	12.54
328.691	11.55
329.063	12.04
329.436	12.24
329.809	11.84
330.181	11.54
330.553	12.27
330.926	11.72
331.298	11.97
331.671	12.48
332.043	11.99
332.415	12.87
332.787	12.13
333.159	12.57
333.532	13.09
333.904	12.24
334.276	12.81
334.648	12.36
335.02	12.02
335.391	12.67
335.763	12.12
336.135	12.83
336.507	13.19
336.879	13.07
337.25	12.68
337.622	12.96
337.993	12.94
338.365	13.1
338.736	13.08
339.108	12.96
339.479	13.1
339.851	12.79
340.222	12.96
340.593	12.61
340.964	12.96
341.336	12.98
341.707	13.37
342.078	12.85
342.449	13.12
342.82	13.21
343.191	13.17
343.562	13.55
343.933	13.43
344.303	13.39
344.674	13.9
345.045	13.8
345.416	14.18
345.786	13.2
346.157	13.54
346.527	14.01
346.898	13.29
347.268	13.47
347.639	13.89
348.009	13.68
348.38	13.92
348.75	14.3
349.12	14.31
349.49	14.24
349.861	14.49
350.231	14.23
350.601	14.33
350.971	14.52
351.341	14.32
351.711	14.75
352.081	14.31
352.45	14.28
352.82	14.47
353.19	14.79
353.56	14.36
353.929	14.31
354.299	14.28
354.669	14.7
355.038	14.26
355.408	14.21
355.777	14.98
356.147	14.58
356.516	14.63
356.885	14.51
357.254	15.29
357.624	14.33
357.993	14.54
358.362	14.92
358.731	15.28
359.1	14.74
359.469	15.16
359.838	15.02
360.207	14.98
360.576	15.16
360.945	14.8
361.314	15.4
361.682	15.55
362.051	15.59
362.42	15.62
362.788	15.04
363.157	15.73
363.525	15.51
363.894	15.14
364.262	15.29
364.631	15.44
364.999	15.42
365.367	15.69
365.735	15.6
366.104	15.88
366.472	15.26
366.84	15.81
367.208	15.88
367.576	16.03
367.944	16.23
368.312	15.99
368.68	15.98
369.048	16.14
369.416	16.29
369.783	16.05
370.151	16.17
370.519	16.05
370.886	16.37
371.254	16.14
371.621	16.53
371.989	16.06
372.356	16.15
372.724	16.56
373.091	16.75
373.458	16.02
373.826	16.55
374.193	16.63
374.56	16.54
374.927	16.56
375.294	16.65
375.661	16.83
376.028	16.87
376.395	17.15
376.762	17.15
377.129	17
377.496	16.98
377.863	16.8
378.229	17.16
378.596	16.84
378.963	16.93
379.329	16.82
379.696	16.9
380.062	17.35
380.429	17.17
380.795	17.14
381.161	16.81
381.528	17.39
381.894	17.29
382.26	17.12
382.626	17.17
382.993	17.63
383.359	17.23
383.725	17.31
384.091	17.44
384.457	17.51
384.823	17.74
385.188	17.43
385.554	17.76
385.92	17.54
386.286	17.66
386.651	17.85
387.017	18
387.383	17.8
387.748	17.78
388.114	17.97
388.479	18.05
388.845	18.13
389.21	17.87
389.575	17.73
389.94	17.96
390.306	18.26
390.671	18.15
391.036	18.3
391.401	18.18
391.766	18.1
392.131	18.31
392.496	18.11
392.861	17.81
393.226	18.67
393.591	18.14
393.956	18.2
394.32	18.23
394.685	18.42
395.05	18.36
395.414	18.18
395.779	18.16
396.143	18.31
396.508	18.2
396.872	18.33
397.236	18.45
397.601	18.51
397.965	18.33
398.329	18.62
398.694	18.27
399.058	18.83
399.422	18.42
399.786	18.54
400.15	18.54
400.514	18.77
400.878	18.61
401.242	18.6
401.605	18.79
401.969	18.66
402.333	18.61
402.697	18.62
403.06	18.38
403.424	19
403.787	18.78
404.151	18.82
404.514	18.69
404.878	18.72
405.241	18.64
405.604	18.45
405.968	18.52
406.331	18.64
406.694	18.87
407.057	18.63
407.42	18.87
407.783	18.92
408.146	18.75
408.509	18.7
408.872	19.06
409.235	19.1
409.598	19.03
409.961	18.9
410.323	19.01
410.686	18.99
411.049	19.11
411.411	18.85
411.774	19.11
412.136	19.26
412.499	19.34
412.861	18.95
413.223	19.39
413.586	19.19
413.948	19.08
414.31	19.55
414.672	19.41
415.035	19.07
415.397	19.22
415.759	19.21
416.121	19.46
416.483	19.44
416.845	19.45
417.206	19.64
417.568	19.33
417.93	19.61
418.292	19.44
418.653	19.38
419.015	19.57
419.377	19.23
419.738	19.38
420.1	19.54
420.461	19.38
420.822	19.49
421.184	19.43
421.545	19.77
421.906	19.64
422.267	19.63
422.629	19.51
422.99	19.62
423.351	19.62
423.712	19.79
424.073	19.89
424.434	19.99
424.795	20.33
425.155	20.02
425.516	20.06
425.877	20.19
426.238	20.15
426.598	20.19
426.959	20.29
427.32	20.4
427.68	20.67
428.041	20.93
428.401	20.94
428.761	20.93
429.122	21.32
429.482	21.45
429.842	21.28
430.202	21.63
430.563	21.59
430.923	21.62
431.283	21.52
431.643	21.9
432.003	21.63
432.363	21.85
432.722	21.91
433.082	21.88
433.442	22.03
433.802	22.11
434.161	22
434.521	21.89
434.881	21.92
435.24	22.23
435.6	22.18
435.959	22.19
436.319	22.48
436.678	22.68
437.037	22.49
437.396	22.7
437.756	22.64
438.115	22.66
438.474	22.9
438.833	23.1
439.192	23.11
439.551	23.05
439.91	22.76
440.269	23.17
440.628	23.05
440.987	22.86
441.345	23.1
441.704	23.12
442.063	23.15
442.421	23.33
442.78	23.16
443.138	23.38
443.497	23.43
443.855	23.4
444.214	23.77
444.572	23.71
444.93	24.08
445.288	23.89
445.647	24.18
446.005	24.01
446.363	23.81
446.721	23.97
447.079	24.03
447.437	23.77
447.795	23.93
448.153	23.84
448.51	23.89
448.868	23.95
449.226	24.16
449.584	24.2
449.941	24.42
450.299	24.73
450.656	24.75
451.014	25
451.371	24.87
451.729	24.94
452.086	24.94
452.443	25.25
452.801	25.23
453.158	25.45
453.515	25.38
453.872	25.26
454.229	25.33
454.586	25.23
454.943	25.36
455.3	25.52
455.657	25.64
456.014	25.81
456.371	25.76
456.727	25.71
457.084	25.85
457.441	25.85
457.797	26.08
458.154	25.99
458.51	26.25
458.867	26.44
459.223	26.18
459.58	26.24
459.936	26.16
460.292	26.33
460.648	26.24
461.005	26.15
461.361	26.09
461.717	26.05
462.073	26.09
462.429	26.37
462.785	26.48
463.141	26.41
463.496	26.79
463.852	27.01
464.208	26.98
464.564	27.21
464.919	27.42
465.275	27.32
465.631	27.33
465.986	27.37
466.342	27.25
466.697	27.32
467.052	27.67
467.408	27.44
467.763	27.82
468.118	27.68
468.473	27.71
468.829	27.78
469.184	27.55
469.539	27.86
469.894	28
470.249	27.98
470.603	28.07
470.958	27.96
471.313	28.18
471.668	28.02
472.023	28.27
472.377	28.16
472.732	28.3
473.086	28.46
473.441	28.75
473.795	28.61
474.15	28.66
474.504	28.34
474.859	28.59
475.213	28.67
475.567	28.61
475.921	29.04
476.275	28.72
476.63	29
476.984	28.95
477.338	28.96
477.692	29.28
478.045	29.26
478.399	29.08
478.753	29.19
479.107	29.08
479.461	29.48
479.814	29.21
480.168	29.2
480.521	29.32
480.875	29.26
481.228	29.63
481.582	29.42
481.935	29.65
482.289	29.7
482.642	29.66
482.995	29.59
483.348	29.64
483.701	29.74
484.055	29.59
484.408	29.58
484.761	29.31
485.114	29.03
485.466	28.64
485.819	28.65
486.172	28.78
486.525	29.01
486.878	29.05
487.23	29.42
487.583	29.67
487.936	29.78
488.288	29.65
488.641	29.52
488.993	29.47
489.345	29.38
489.698	29.29
490.05	29.56
490.402	29.74
490.754	30.01
491.107	30.18
491.459	30.47
491.811	30.78
492.163	30.73
492.515	30.85
492.866	30.58
493.218	30.27
493.57	30.22
493.922	30.26
494.274	30.5
494.625	30.82
494.977	30.98
495.328	31.29
495.68	31.43
496.031	31.79
496.383	31.64
496.734	31.64
497.086	31.55
497.437	31.92
497.788	31.94
498.139	31.9
498.49	31.78
498.842	31.85
499.193	31.86
499.544	31.87
499.894	31.92
500.245	32.06
500.596	32.14
500.947	32.11
501.298	32.58
501.648	32.47
501.999	32.45
502.35	32.52
502.7	32.54
503.051	32.71
503.401	32.63
503.752	33
504.102	32.83
504.452	33.31
504.803	33
505.153	33.15
505.503	32.99
505.853	33.17
506.203	33.17
506.553	33.12
506.903	33.01
507.253	33.24
507.603	33.31
507.953	33.32
508.303	33.6
508.652	33.44
509.002	33.35
509.352	33.53
509.701	33.36
510.051	33.45
510.4	33.46
510.75	33.43
511.099	33.36
511.449	33.54
511.798	33.59
512.147	33.73
512.496	33.74
512.846	33.82
513.195	33.84
513.544	33.97
513.893	33.99
514.242	34.09
514.591	33.9
514.939	34.07
515.288	34.1
515.637	34.15
515.986	34.43
516.334	34.54
516.683	34.41
517.032	34.44
517.38	34.62
517.729	34.67
518.077	34.62
518.426	34.74
518.774	34.58
519.122	34.79
519.47	34.71
519.819	34.44
520.167	34.26
520.515	34.12
520.863	34.17
521.211	34.35
521.559	34.32
521.907	34.65
522.255	34.78
522.602	35.06
522.95	35.01
523.298	35.14
523.645	35.29
523.993	35.43
524.341	35.32
524.688	35.33
525.036	35.57
525.383	35.43
525.73	35.67
526.078	35.51
526.425	35.39
526.772	35.59
527.119	35.09
527.466	35.16
527.814	35.1
528.161	35.27
528.508	35.23
528.854	35.33
529.201	35.3
529.548	35.36
529.895	34.98
530.242	34.48
530.588	34.58
530.935	34.7
531.282	34.77
531.628	34.97
531.975	35.2
532.321	35.37
532.667	35.58
533.014	35.69
533.36	35.99
533.706	35.86
534.052	36
534.399	35.91
534.745	35.59
535.091	35.48
535.437	35.53
535.783	35.73
536.129	35.83
536.474	36.09
536.82	36.34
537.166	36.65
537.512	36.7
537.857	36.62
538.203	36.67
538.549	36.37
538.894	36.41
539.239	36.56
539.585	36.82
539.93	36.94
540.276	36.97
540.621	37.35
540.966	37.25
541.311	37.42
541.656	37.51
542.001	37.53
542.346	36.98
542.691	36.75
543.036	36.53
543.381	36.42
543.726	36.69
544.071	36.69
544.415	36.87
544.76	37.11
545.105	37.19
545.449	37.18
545.794	37.49
546.138	37.66
546.483	37.87
546.827	37.99
547.171	37.91
547.516	37.87
547.86	37.94
548.204	38.21
548.548	38.29
548.892	38.02
549.236	38.16
549.58	38.37
549.924	38.44
550.268	38.57
550.612	38.79
550.956	38.86
551.3	38.94
551.643	39.21
551.987	39.38
552.33	39.2
552.674	39.15
553.017	39.35
553.361	39.27
553.704	39.52
554.048	39.22
554.391	39.17
554.734	39.23
555.077	39.28
555.42	39.19
555.764	39.56
556.107	39.69
556.45	39.7
556.793	39.62
557.135	39.88
557.478	40.21
557.821	40.12
558.164	40.11
558.507	40.26
558.849	40.32
559.192	40.25
559.534	40.3
559.877	40.42
560.219	40.29
560.562	40.22
560.904	40.49
561.246	40.35
561.589	40.56
561.931	40.63
562.273	40.69
562.615	40.66
562.957	40.82
563.299	40.67
563.641	40.93
563.983	40.85
564.325	40.96
564.667	40.78
565.008	41.13
565.35	41.23
565.692	41.18
566.033	41.14
566.375	41.3
566.716	41.01
567.058	41.09
567.399	41.18
567.741	41.24
568.082	41.02
568.423	41.19
568.764	41.13
569.105	41.3
569.447	41.72
569.788	41.47
570.129	41.75
570.47	41.79
570.811	41.68
571.151	41.68
571.492	41.94
571.833	41.72
572.174	42.03
572.514	41.9
572.855	41.91
573.195	41.83
573.536	41.83
573.876	41.77
574.217	41.86
574.557	42
574.898	42.17
575.238	42.25
575.578	42.31
575.918	42.26
576.258	42.49
576.598	42.56
576.938	42.53
577.278	42.61
577.618	42.78
577.958	42.78
578.298	42.94
578.638	42.81
578.977	42.96
579.317	42.8
579.657	43.3
579.996	43.55
580.336	43.38
580.675	43.52
581.014	43.78
581.354	43.66
581.693	43.56
582.032	43.58
582.372	44.02
582.711	43.59
583.05	44.25
583.389	43.83
583.728	44.14
584.067	44.03
584.406	44.06
584.745	44.55
585.083	43.98
585.422	44.48
585.761	44.25
586.1	44.28
586.438	44.82
586.777	44.66
587.115	44.22
587.454	44.68
587.792	44.72
588.13	44.93
588.469	44.65
588.807	44.76
589.145	44.59
589.483	44.9
589.821	44.92
590.159	44.89
590.497	45.07
590.835	44.8
591.173	45.23
591.511	45.19
591.849	45.11
592.187	45.08
592.524	45.43
592.862	45.14
593.2	45.33
593.537	45.09
593.875	45.24
594.212	45.81
594.55	45.61
594.887	45.62
595.224	45.81
595.561	45.83
595.899	45.72
596.236	45.73
596.573	45.66
596.91	45.99
597.247	45.63
597.584	46.13
597.921	46.01
598.258	45.86
598.594	45.77
598.931	45.8
599.268	45.69
599.604	46.03
599.941	46.14
600.277	46.19
600.614	46.37
600.95	46.57
601.287	46.5
601.623	46.85
601.959	46.35
602.296	46.87
602.632	46.7
602.968	46.76
603.304	46.46
603.64	46.77
603.976	46.8
604.312	46.85
604.648	47.04
604.984	46.81
605.319	46.85
605.655	46.86
605.991	47.1
606.326	46.61
606.662	47.08
606.998	46.79
607.333	47.17
607.668	47.01
608.004	47.38
608.339	47.52
608.674	47.64
609.01	48.04
609.345	47.69
609.68	48.28
610.015	47.93
610.35	47.89
610.685	47.89
611.02	47.74
611.355	47.74
611.689	47.69
612.024	47.9
612.359	48.01
612.694	48.46
613.028	47.91
613.363	47.91
613.697	48.54
614.032	48.66
614.366	48.86
614.7	48.75
615.035	49.08
615.369	48.76
615.703	49.16
616.037	48.47
616.371	48.68
616.705	49.03
617.039	49.37
617.373	49.26
617.707	48.76
618.041	49.21
618.375	49.07
618.709	49.61
619.042	49.01
619.376	49.46
619.71	49.44
620.043	49.53
620.377	49.37
620.71	49.4
621.043	49.31
621.377	49.53
621.71	49.65
622.043	49.58
622.376	50.04
622.709	50.15
623.043	49.74
623.376	50.04
623.709	49.96
624.041	49.94
624.374	50.29
624.707	50
625.04	50.47
625.373	50.73
625.705	50.4
626.038	51.08
626.37	50.53
626.703	50.76
627.035	50.7
627.368	50.99
627.7	50.52
628.032	50.72
628.365	50.52
628.697	50.76
629.029	50.5
629.361	50.79
629.693	50.85
630.025	50.65
630.357	51.24
630.689	50.92
631.021	51.17
631.353	51.46
631.684	51.01
632.016	51.23
632.348	51.26
632.679	51.34
633.011	51.41
633.342	51.51
633.674	51.71
634.005	52.2
634.336	51.93
634.668	51.88
634.999	51.47
635.33	51.61
635.661	51.65
635.992	51.88
636.323	51.68
636.654	51.72
636.985	52.05
637.316	52.07
637.647	52.14
637.977	51.66
638.308	52.39
638.639	52.27
638.969	52.15
639.3	52.77
639.63	52.81
639.961	52.71
640.291	53.13
640.622	53.07
640.952	52.98
641.282	52.46
641.612	52.61
641.943	53.19
642.273	53.37
642.603	53.55
642.933	53.44
643.263	52.79
643.592	53.68
643.922	53.43
644.252	52.88
644.582	52.66
644.911	53.09
645.241	53.11
645.571	53.58
645.9	53.52
646.23	53.22
646.559	53.99
646.888	53.05
647.218	53.87
647.547	54.47
647.876	53.58
648.205	53.33
648.534	54.33
648.863	54.32
649.192	54.54
649.521	54.35
649.85	53.59
650.179	54.48
650.508	53.89
650.837	54.08
651.165	54.17
651.494	54.13
651.822	54.33
652.151	54.35
652.479	54.31
652.808	53.71
653.136	54.5
653.465	54.26
653.793	54.75
654.121	54.67
654.449	54.32
654.777	54.46
655.105	54.96
655.433	54.72
655.761	55.14
656.089	54.89
656.417	55.31
656.745	55.09
657.073	55.25
657.4	54.68
657.728	54.25
658.056	55.21
658.383	55.16
658.711	54.74
659.038	55.59
659.365	55.38
659.693	55.41
660.02	55.42
660.347	54.85
660.674	55.55
661.001	55.77
661.329	55.32
661.656	55.58
661.982	55.78
662.309	55.97
662.636	55.92
662.963	55.96
663.29	56.15
663.616	55.75
663.943	56.16
664.27	55.76
664.596	57.08
664.923	56.66
665.249	55.96
665.576	56.85
665.902	56.81
666.228	55.82
666.554	56.31
666.881	56.98
667.207	56.51
667.533	56.02
667.859	56.91
668.185	56.99
668.511	56.78
668.837	56.93
669.162	56.73
669.488	56.49
669.814	56.67
670.139	56.97
670.465	56.11
670.791	56.84
671.116	56.74
671.442	56.66
671.767	57.79
672.092	57.23
672.418	57.69
672.743	56.36
673.068	57.41
673.393	56.86
673.718	57.04
674.043	57.43
674.368	58.12
674.693	57.3
675.018	57.2
675.343	57.03
675.667	57.56
675.992	57.59
676.317	57.38
676.641	58.14
676.966	57.56
677.29	56.84
677.615	58.71
677.939	58
678.264	57.88
678.588	57.54
678.912	57.95
679.236	57.72
679.56	58.25
679.885	58.15
680.209	57.79
680.532	58.29
680.856	58.94
681.18	58.8
681.504	58.24
681.828	58.4
682.152	57.88
682.475	58.93
682.799	58.55
683.122	58.38
683.446	58.23
683.769	59.36
684.093	58.62
684.416	59.11
684.739	58.76
685.062	58.47
685.386	59.11
685.709	58.14
686.032	58.75
686.355	58.9
686.678	59.33
687.001	59.63
687.324	58.16
687.646	59.19
687.969	59.99
688.292	58.77
688.614	59.23
688.937	59.49
689.26	58.79
689.582	59.31
689.904	58.58
690.227	59.17
690.549	59.71
690.871	60.37
691.194	59.15
691.516	59.53
691.838	58.86
692.16	59.25
692.482	59.17
692.804	59.79
693.126	59.57
693.448	59.35
693.769	59.91
694.091	59.83
694.413	59.63
694.735	60.18
695.056	59.16
695.378	59.3
695.699	60.43
696.021	59.7
696.342	59.78
696.663	59.76
696.984	61.24
697.306	59.94
697.627	59.97
697.948	59.63
698.269	60.05
698.59	60.18
698.911	60.03
699.232	60.56
699.553	60.4
699.873	60.53
700.194	60.66
700.515	60.72
700.835	60.31
701.156	60.13
701.477	60.2
701.797	60.36
702.117	60.54
702.438	60.94
702.758	60.75
703.078	61.12
703.398	60.14
703.719	60.08
704.039	62.08
704.359	60.33
704.679	62.07
704.999	61.24
705.319	61.07
705.638	60.22
705.958	61.21
706.278	62.3
706.597	60.82
706.917	60.71
707.237	61.15
707.556	61.67
707.876	62.75
708.195	62.77
708.514	62.3
708.834	61.96
709.153	61.61
709.472	62.34
709.791	63.25
710.11	61.29
710.429	61.63
710.748	61.86
711.067	61.22
711.386	62.34
711.705	61.9
712.023	62.29
712.342	62.09
712.661	61.43
712.979	63.06
713.298	62.85
713.616	61.69
713.935	61.87
714.253	61.65
714.572	60.92
714.89	60.54
715.208	61.56
715.526	61.8
715.844	62.64
716.162	63.35
716.48	61.73
716.798	61.27
717.116	62.58
717.434	63.06
717.752	61.46
718.069	63.49
718.387	61.83
718.705	62.28
719.022	63.6
719.34	61.52
719.657	63.19
719.975	62.62
720.292	62.28
720.609	62.26
720.927	61.95
721.244	62.61
721.561	62.68
721.878	61.47
722.195	61.95
722.512	63.2
722.829	63.65
723.146	62.91
723.463	63.34
723.779	64.21
724.096	64.5
724.413	64.07
724.729	62.38
725.046	63.06
725.362	62.96
725.679	63.15
725.995	62.53
726.311	63.43
726.628	63.83
726.944	62.76
727.26	64.13
727.576	63.66
727.892	62.74
728.208	63.43
728.524	63.12
728.84	63.7
729.156	62.38
729.472	63.93
729.787	62.79
730.103	64
730.419	62.64
730.734	62.62
731.05	62.82
731.365	64.66
731.681	65.13
731.996	64.58
732.311	64.32
732.626	63.66
732.942	63.5
733.257	64.23
733.572	62.84
733.887	63.86
734.202	63.76
734.517	63.74
734.832	63.82
735.146	65.51
735.461	63.31
735.776	64.9
736.091	64.27
736.405	64.43
736.72	63.92
737.034	64.16
737.349	65.54
737.663	64.69
737.977	66.25
738.292	63.9
738.606	63.36
738.92	65.61
739.234	64.65
739.548	66.07
739.862	66.1
740.176	63
740.49	64.86
740.804	64.15
741.117	63.72
741.431	64.22
741.745	66.14
742.058	64.75
742.372	64.09
742.685	64.93
742.999	65.46
743.312	64.29
743.626	65.7
743.939	66.75
744.252	63.62
744.565	64.93
744.878	65.11
745.191	65.98
745.505	64.09
745.817	64.09
746.13	67.07
746.443	65.81
746.756	65.41
747.069	65.65
747.381	63.85
747.694	65.04
748.007	66.54
748.319	66.07
748.632	63.5
748.944	64.28
749.256	63.67
749.569	65.01
749.881	65.22
750.193	65.11
750.505	64.97
750.817	65.48
751.129	65.81
751.441	65.6
751.753	65.68
752.065	64.27
752.377	66.19
752.689	68.17
753	65.48
753.312	66.06
753.624	66.96
753.935	66.46
754.247	67.2
754.558	65.82
754.869	65.19
755.181	65.07
755.492	65.32
755.803	66.26
756.114	65.82
756.425	67.33
756.736	66.39
757.047	65.35
757.358	66
757.669	65.79
757.98	66.17
758.291	63.87
758.601	66.62
758.912	66.35
759.223	65.08
759.533	66.04
759.844	63.63
760.154	65.81
760.464	65.1
760.775	65.2
761.085	66.23
761.395	66.78
761.705	67.13
762.016	65.98
762.326	66.37
762.636	63.73
762.945	67.06
763.255	67.32
763.565	66.59
763.875	69.83
764.185	67.34
764.494	68.61
764.804	65.82
765.113	65.4
765.423	67.02
765.732	67
766.042	67.94
766.351	65.43
766.66	65.97
766.97	66.89
767.279	66.21
767.588	67.89
767.897	65.96
768.206	66.94
768.515	66.85
768.824	67.04
769.133	69.95
769.441	67.79
769.75	64.54
770.059	67.25
770.367	66.2
770.676	68.52
770.984	66.82
771.293	67.72
771.601	65.83
771.91	68.02
772.218	66.93
772.526	67.44
772.834	67.42
773.142	68.66
773.45	64.97
773.758	65.77
774.066	67.52
774.374	67.18
774.682	67.2
774.99	66.98
775.298	66.86
775.605	67.7
775.913	68.66
776.22	69.53
776.528	67
776.835	67.34
777.143	65.13
777.45	71.29
777.757	67.71
778.065	66.8
778.372	67.55
778.679	68.12
778.986	64.87
779.293	68.07
779.6	65.7
779.907	66.24
780.214	69.23
780.52	64.92
780.827	71.89
781.134	68.46
781.44	68.78
781.747	64.59
782.053	66.57
782.36	67.53
782.666	66.56
782.973	73.86
783.279	66.08
783.585	68.05
783.891	70.42
784.197	69.01
784.503	67.97
784.809	64.16
785.115	70.03
785.421	69.97
785.727	69.16
786.033	65.37
786.339	67.44
786.644	68.01
786.95	74.35
787.255	65.38
787.561	64.48
787.866	66
788.172	65.45
788.477	69.31
788.782	66.95
789.088	69.7
789.393	71.07
789.698	71.52
790.003	68.62
790.308	71.73
790.613	68.71
790.918	66.72
791.223	66.45
791.527	68.42
791.832	69.49
792.137	64.39
792.441	67.18
792.746	68.45
793.05	68.86
793.355	71.78
793.659	68.21
793.963	71.75
794.268	70.92
794.572	70.6
794.876	63.71
795.18	67.81
795.484	74.53
795.788	73.76
796.092	66.96
796.396	69.19
796.7	69.19
797.004	70.27
797.307	65.51
797.611	67.61
797.915	65.55
798.218	76.07
798.522	73.06
798.825	66.48
799.128	70.87
799.432	65.25
799.735	68.36
800.038	66.55
800.341	69.77
800.644	61.88
800.947	66.72
801.25	66.37
801.553	67.31
801.856	69.33
802.159	75.19
802.462	66.09
802.764	69.63
803.067	73.31
803.37	65.76
803.672	68.71
803.975	70.87
804.277	68.23
804.579	65.34
804.882	67.89
805.184	71.79
805.486	70.14
805.788	64.51
806.09	66.76
806.392	70.95
806.694	70.01
806.996	64.45
807.298	70.55
807.6	67.89
807.902	57.94
808.203	75.79
808.505	71.35
808.807	68.32
809.108	72.33
809.409	74.17
809.711	68.58
810.012	70.74
810.313	70.79
810.615	74.49
810.916	74.69
811.217	65.9
811.518	67.83
811.819	71.12
812.12	63.97
812.421	73.41
812.722	71.96
813.023	70.01
813.323	74.7
813.624	74.64
813.925	69.82
814.225	78.57
814.526	68.45
814.826	71.2
815.126	71.89
815.427	71.16
815.727	66.49
816.027	67.53
816.327	77.32
816.627	76.13
816.927	72.55
817.227	77.79
817.527	76.83
817.827	76.02
818.127	74.22
818.427	64.97
818.727	69.12
819.026	71.15
819.326	68.41
819.625	67.25
819.925	72.71
820.224	60.75
820.524	72.76
820.823	69.56
821.122	70.9
821.421	71.19
821.72	72.59
822.019	67.7
822.318	63.27
822.617	74.45
822.916	70.15
823.215	70.3
823.514	69.71
823.813	68.94
824.111	73.99
824.41	68.48
824.709	73.81
825.007	71.74
825.306	71.9
825.604	71.14
825.902	71.23
826.201	70.91
826.499	70.82
826.797	72.1
827.095	72.44
827.393	70.62
827.691	72.26
827.989	69.98
828.287	70.64
828.585	73.13
828.882	71.3
829.18	71.32
829.478	71.75
829.775	69.53
830.073	70.44
830.37	74.53
830.668	73.73
830.965	70.66
831.263	72.12
831.56	75.69
831.857	69.17
832.154	70.33
832.451	69.47
832.748	71.81
833.045	71.09
833.342	74.74
833.639	70.43
833.936	75.26
834.232	72.81
834.529	64.69
834.826	71.02
835.122	68.62
835.419	73.89
835.715	63.97
836.012	70.64
836.308	79.73
836.604	71.49
836.901	70.32
837.197	72.99
837.493	72.21
837.789	72.21
838.085	74.51
838.381	72.4
838.677	72.78
838.972	74.78
839.268	66.78
839.564	67.09
839.86	70.64
840.155	71.14
840.451	67.94
840.746	78.32
841.042	67.64
841.337	65.23
841.632	75
841.928	74.3
842.223	74.5
842.518	73.62
842.813	78.31
843.108	71.96
843.403	72.67
843.698	74.2
843.993	71.34
844.287	65.13
844.582	61.49
844.877	71.95
845.171	82.85
845.466	69.6
845.761	64.52
846.055	68.12
846.349	62.72
846.644	72.85
846.938	70.01
847.232	84.08
847.526	59.14
847.82	73.17
848.114	77.76
848.408	69.13
848.702	91.9
848.996	67.38
849.29	74.21
849.584	78.77
849.877	68.28
850.171	58.1
850.465	85.68
850.758	72.01
851.052	60.46
851.345	85.27
851.638	58.43
851.932	55.84
852.225	42.85
852.518	71.46
852.811	69.65
853.104	58.55
853.397	84.52
853.69	59.47
853.983	58.1
854.276	61.5
854.569	58.38
854.861	71.94
855.154	73.31
855.447	81.81
855.739	55.7
856.032	64.79
856.324	57.23
856.616	55.82
856.909	42.34
857.201	47.27
857.493	38.58
857.785	91.56
858.077	64.74
858.369	49.2
858.661	82.53
858.953	79.08
859.245	65.88
859.537	112.72
859.829	63.65
860.12	52.79
860.412	44.57
860.703	66.25
860.995	82.14
861.286	54.56
861.578	62.62
861.869	45.47
862.16	53.95
862.452	74.09
862.743	55.23
863.034	70.7
863.325	82.2
863.616	70.73
863.907	63.63
864.198	49.37
864.488	58.54
864.779	75.15
865.07	54.71
865.36	59.75
865.651	38.73
865.941	70.02
866.232	47.44
866.522	62.58
866.813	103.41
867.103	62.79
867.393	67.97
867.683	87.86
867.973	74.75
868.263	58.42
868.553	74.83
868.843	30.24
869.133	49
869.423	2.17
869.713	71.18
870.002	59.46
870.292	75.23
870.582	90.64
870.871	75.28
871.161	82.33
871.45	78.5
871.739	59.12
872.029	41.33
872.318	55.02
872.607	60.06
872.896	68.4
873.185	37.44
873.474	108.4
873.763	57.44
874.052	48.28
874.341	123.34
874.63	91.72
874.918	59.82
875.207	80.44
875.496	79.39
875.784	53.17
876.073	61.54
876.361	58.15
876.649	54.57
876.938	72.9
877.226	69.53
877.514	75.82
877.802	57.07
878.09	82.42
878.378	33.89
878.666	44.76
878.954	67.9
879.242	62.96
879.53	68.51
879.817	65.35
880.105	65.49
880.392	93.84
880.68	62.88
880.967	70.84
881.255	35.34
881.542	94.36
881.83	71.5
882.117	78.47
882.404	73.89
882.691	87.61
882.978	46.31
883.265	54.39
883.552	47.38
883.839	61.5
884.126	86.73
884.413	59.59
884.699	72.98
884.986	68.14
885.273	72.6
885.559	72.6
885.846	72.6
