Data from 0430_chest_Reflection__2__94.txt Node

Date: Tue Dec 12 18:56:52 CST 2023
User: ToomeyLab
Spectrometer: FLMS14357
Trigger mode: 0
Integration Time (sec): 1.000000E-2
Scans to average: 100
Electric dark correction enabled: true
Nonlinearity correction enabled: false
Boxcar width: 0
XAxis mode: Wavelengths
Number of Pixels in Spectrum: 2048
>>>>>Begin Spectral Data<<<<<
189.047	-454.87
189.435	-454.87
189.823	-454.87
190.211	-12.33
190.599	7.32
190.987	177.46
191.375	85.27
191.763	0.23
192.151	68.47
192.538	176.27
192.926	331.2
193.314	90.76
193.702	179.96
194.089	-189.11
194.477	-288.63
194.864	97.21
195.252	56.3
195.639	-3171.43
196.027	0.66
196.414	1919.21
196.801	-18.97
197.189	1243.28
197.576	15.72
197.963	-6.78
198.351	13.87
198.738	3.45
199.125	34.09
199.512	5.69
199.899	36.9
200.286	4.91
200.673	-5.31
201.06	-16.64
201.447	-79.59
201.833	-12.19
202.22	1.81
202.607	-284.73
202.994	46.01
203.38	28.68
203.767	36.63
204.154	3.68
204.54	38.06
204.927	37.05
205.313	8.12
205.699	0.49
206.086	-10.52
206.472	47.69
206.858	-3.56
207.245	8.33
207.631	-18.62
208.017	25.02
208.403	-44.21
208.789	11.15
209.175	-16.12
209.561	0.09
209.947	0.58
210.333	28.28
210.719	-3.01
211.105	5.16
211.491	23.86
211.876	32.42
212.262	56.52
212.648	-6.59
213.034	-30.07
213.419	8.54
213.805	31.77
214.19	26.08
214.576	6.92
214.961	33.58
215.346	-15.39
215.732	34.74
216.117	-15.56
216.502	-26.86
216.888	0.81
217.273	-54.79
217.658	-57.81
218.043	4.76
218.428	15.57
218.813	7.41
219.198	-34.36
219.583	-2.45
219.968	0.18
220.353	4.44
220.738	34.13
221.122	-3
221.507	-23.84
221.892	-11.14
222.276	19.69
222.661	-9.38
223.046	-13.27
223.43	6.01
223.815	-8.34
224.199	11.8
224.583	3.28
224.968	8.52
225.352	-0.91
225.736	11.36
226.121	-7.45
226.505	-3.7
226.889	1.15
227.273	4.98
227.657	12.9
228.041	7.79
228.425	0.23
228.809	3.66
229.193	5.11
229.577	4.27
229.961	3.82
230.344	5.92
230.728	6.19
231.112	5.51
231.495	5.3
231.879	6.79
232.263	3.93
232.646	5.36
233.03	6.26
233.413	3.66
233.797	3.79
234.18	2.31
234.563	3.98
234.946	6.08
235.33	6.77
235.713	3.67
236.096	4.09
236.479	3.95
236.862	5.48
237.245	5.42
237.628	5.23
238.011	5.65
238.394	4.3
238.777	5.34
239.16	5.1
239.543	6.67
239.925	5.85
240.308	4.46
240.691	4.37
241.073	6.69
241.456	4.11
241.838	5.72
242.221	6.23
242.603	5.15
242.986	4.71
243.368	5.82
243.75	4.61
244.133	4.97
244.515	5.25
244.897	5.22
245.279	6.11
245.661	5.35
246.043	5.64
246.425	5.02
246.807	4.7
247.189	4.95
247.571	4.87
247.953	4.36
248.335	4.95
248.717	4.92
249.098	4.92
249.48	5.02
249.862	4.7
250.243	4.83
250.625	5.19
251.006	4.76
251.388	4.99
251.769	5.4
252.151	5.51
252.532	4.59
252.913	5.43
253.295	5.02
253.676	4.29
254.057	4.35
254.438	5.33
254.819	4.69
255.2	4.56
255.581	5.82
255.962	4.36
256.343	4.47
256.724	5.44
257.105	4.86
257.486	4.79
257.867	4.8
258.247	4.51
258.628	4.93
259.009	3.99
259.389	5.2
259.77	4.66
260.15	4.26
260.531	5.3
260.911	4.82
261.292	4.54
261.672	4.75
262.052	4.59
262.432	4.81
262.813	4.31
263.193	4.42
263.573	4.66
263.953	5.81
264.333	5.47
264.713	4.65
265.093	5.13
265.473	5.47
265.853	3.31
266.233	4.19
266.612	4.27
266.992	4.91
267.372	5.13
267.752	5.43
268.131	4.19
268.511	3.88
268.89	3.67
269.27	4.18
269.649	4.59
270.029	3.97
270.408	4.91
270.787	4.21
271.167	4.87
271.546	4.73
271.925	5.19
272.304	4.78
272.683	3.69
273.062	4.43
273.441	4.19
273.82	3.72
274.199	4.46
274.578	4.79
274.957	3.93
275.336	4.75
275.715	4.89
276.093	3.87
276.472	4.83
276.851	5.32
277.229	3.52
277.608	4.91
277.986	4.04
278.365	4.56
278.743	4.08
279.122	4.71
279.5	4.3
279.878	4.08
280.257	4.5
280.635	4.42
281.013	4.2
281.391	4.25
281.769	3.88
282.147	4.41
282.525	3.58
282.903	4.07
283.281	4.91
283.659	3.88
284.037	4.42
284.415	4.26
284.792	4.77
285.17	4.04
285.548	4.17
285.925	4.42
286.303	4.06
286.68	4.22
287.058	4.55
287.435	4.09
287.813	3.76
288.19	4.27
288.567	4.06
288.945	4.51
289.322	3.88
289.699	4.11
290.076	4.2
290.453	4.51
290.83	3.72
291.207	4.24
291.584	4.13
291.961	4.44
292.338	3.93
292.715	4.29
293.092	4.1
293.469	4.52
293.845	4.14
294.222	3.94
294.599	4.67
294.975	3.75
295.352	4.76
295.728	4.63
296.105	4.5
296.481	4.5
296.858	4.73
297.234	4.89
297.61	4.28
297.986	4.52
298.363	4.43
298.739	4.4
299.115	4.25
299.491	4.16
299.867	4.34
300.243	4.3
300.619	4.01
300.995	4.4
301.371	4.36
301.746	4.6
302.122	5.5
302.498	4.47
302.874	4.55
303.249	5.03
303.625	4.23
304	4.66
304.376	4.73
304.751	4.51
305.127	3.75
305.502	4.25
305.878	3.82
306.253	4.51
306.628	4.17
307.003	4.23
307.378	4.86
307.754	4.53
308.129	4.49
308.504	5.44
308.879	3.92
309.254	4.68
309.629	4.11
310.003	4.39
310.378	4.38
310.753	4.66
311.128	4.71
311.502	4.29
311.877	4.18
312.252	3.52
312.626	4.36
313.001	4.29
313.375	4.32
313.75	4.66
314.124	4.51
314.498	4.3
314.873	4.28
315.247	4.43
315.621	4.31
315.995	5.11
316.369	4.29
316.743	4.05
317.117	4.02
317.491	4.44
317.865	4.65
318.239	4.4
318.613	4.24
318.987	5
319.361	4.29
319.734	3.92
320.108	4.82
320.482	4.65
320.855	4.18
321.229	4.62
321.602	4.82
321.976	4.84
322.349	4.6
322.723	4.42
323.096	4.59
323.469	4.25
323.843	5.09
324.216	4.17
324.589	4.05
324.962	5.06
325.335	5.11
325.708	4.57
326.081	4.45
326.454	4.52
326.827	4.93
327.2	4.75
327.573	4.58
327.945	4.71
328.318	5.15
328.691	3.92
329.063	4.95
329.436	4.68
329.809	4.74
330.181	4.37
330.553	4.42
330.926	4.61
331.298	4.65
331.671	4.62
332.043	4.3
332.415	4.64
332.787	4.73
333.159	5.17
333.532	4.73
333.904	4.76
334.276	4.92
334.648	4.36
335.02	4.53
335.391	4.39
335.763	4.47
336.135	4.61
336.507	5.46
336.879	4.63
337.25	4.32
337.622	4.38
337.993	4.29
338.365	3.87
338.736	4.74
339.108	4.38
339.479	4.91
339.851	4.05
340.222	4.25
340.593	4.39
340.964	4.7
341.336	4.43
341.707	4.09
342.078	4.26
342.449	4.38
342.82	4.72
343.191	4.44
343.562	4.85
343.933	5.17
344.303	4.48
344.674	5.01
345.045	4.74
345.416	4.5
345.786	4.41
346.157	4.26
346.527	4.84
346.898	4.27
347.268	4.54
347.639	4.86
348.009	4.34
348.38	4.47
348.75	5.07
349.12	4.93
349.49	4.53
349.861	5.25
350.231	4.88
350.601	4.58
350.971	4.87
351.341	4.55
351.711	4.68
352.081	4.53
352.45	3.99
352.82	4.97
353.19	4.49
353.56	4.11
353.929	4.08
354.299	4.45
354.669	4.49
355.038	4.04
355.408	4.5
355.777	5.12
356.147	4.54
356.516	4.42
356.885	4.8
357.254	4.72
357.624	4.3
357.993	4.63
358.362	4.72
358.731	4.77
359.1	4.19
359.469	4.73
359.838	4.62
360.207	4.39
360.576	5.01
360.945	4.56
361.314	4.85
361.682	4.83
362.051	5.02
362.42	4.79
362.788	4.65
363.157	5.05
363.525	4.62
363.894	4.71
364.262	4.86
364.631	4.34
364.999	4.69
365.367	5.16
365.735	4.31
366.104	4.87
366.472	4.67
366.84	4.5
367.208	4.7
367.576	4.5
367.944	4.75
368.312	4.28
368.68	4.59
369.048	4.54
369.416	4.86
369.783	4.77
370.151	4.84
370.519	4.15
370.886	4.76
371.254	4.62
371.621	5.15
371.989	4.48
372.356	4.84
372.724	4.64
373.091	4.84
373.458	4.86
373.826	4.91
374.193	4.48
374.56	4.87
374.927	4.31
375.294	4.89
375.661	4.97
376.028	4.92
376.395	5.24
376.762	5.26
377.129	4.88
377.496	4.49
377.863	5.22
378.229	4.81
378.596	4.61
378.963	4.81
379.329	4.65
379.696	4.67
380.062	5.01
380.429	4.82
380.795	4.68
381.161	4.89
381.528	4.85
381.894	5.23
382.26	4.71
382.626	4.93
382.993	4.64
383.359	4.79
383.725	4.91
384.091	4.74
384.457	4.82
384.823	4.95
385.188	4.84
385.554	4.79
385.92	4.99
386.286	4.87
386.651	4.89
387.017	5.09
387.383	4.96
387.748	4.92
388.114	4.91
388.479	5
388.845	4.91
389.21	4.62
389.575	4.69
389.94	5.02
390.306	4.98
390.671	4.78
391.036	5.02
391.401	4.74
391.766	4.89
392.131	4.95
392.496	4.8
392.861	4.83
393.226	5.18
393.591	4.8
393.956	4.79
394.32	5.11
394.685	5.01
395.05	4.68
395.414	4.94
395.779	4.94
396.143	4.99
396.508	4.96
396.872	4.91
397.236	4.93
397.601	5.11
397.965	4.74
398.329	5.06
398.694	4.79
399.058	5.17
399.422	5.03
399.786	4.89
400.15	4.91
400.514	5.27
400.878	5.19
401.242	4.76
401.605	4.98
401.969	4.76
402.333	5.08
402.697	4.91
403.06	4.81
403.424	5
403.787	4.87
404.151	5.13
404.514	4.66
404.878	4.81
405.241	4.92
405.604	4.86
405.968	5.09
406.331	5.19
406.694	5.07
407.057	5.03
407.42	4.82
407.783	4.99
408.146	4.9
408.509	4.9
408.872	4.84
409.235	4.77
409.598	4.8
409.961	4.96
410.323	5.12
410.686	4.94
411.049	5
411.411	5.16
411.774	5.11
412.136	5.22
412.499	5.19
412.861	5.06
413.223	5.18
413.586	4.95
413.948	5.14
414.31	5.04
414.672	5.25
415.035	5.01
415.397	4.96
415.759	5.08
416.121	4.99
416.483	5.11
416.845	4.96
417.206	5.27
417.568	4.95
417.93	5.05
418.292	5.01
418.653	5.05
419.015	5.06
419.377	5.08
419.738	4.99
420.1	5.01
420.461	4.86
420.822	5.08
421.184	5.02
421.545	5.17
421.906	4.93
422.267	4.85
422.629	4.97
422.99	4.94
423.351	4.92
423.712	4.96
424.073	5
424.434	5.06
424.795	5.07
425.155	4.96
425.516	4.86
425.877	4.88
426.238	4.92
426.598	4.79
426.959	4.95
427.32	5.04
427.68	4.97
428.041	5.03
428.401	5.1
428.761	5.07
429.122	5.26
429.482	5.19
429.842	5.07
430.202	4.98
430.563	5.25
430.923	5.02
431.283	5.07
431.643	5.14
432.003	5.12
432.363	5.17
432.722	4.94
433.082	5.16
433.442	5.16
433.802	5.19
434.161	5.24
434.521	5.14
434.881	5.12
435.24	5.1
435.6	5.06
435.959	5.27
436.319	5.16
436.678	5.35
437.037	5.04
437.396	4.96
437.756	5.01
438.115	5.12
438.474	5.17
438.833	5.3
439.192	5.34
439.551	5.14
439.91	5.05
440.269	5.07
440.628	5.05
440.987	4.99
441.345	5.09
441.704	5.03
442.063	5.12
442.421	5.07
442.78	5.18
443.138	5.12
443.497	5.09
443.855	5.21
444.214	5.13
444.572	5.24
444.93	5.26
445.288	5.04
445.647	5.31
446.005	5.09
446.363	4.99
446.721	5.16
447.079	5.24
447.437	5.06
447.795	5.2
448.153	5.1
448.51	5.08
448.868	5.13
449.226	5.2
449.584	5.13
449.941	5.12
450.299	5.17
450.656	5.18
451.014	5.36
451.371	5.24
451.729	5.21
452.086	5.17
452.443	5.53
452.801	5.41
453.158	5.18
453.515	5.29
453.872	5.28
454.229	5.44
454.586	5.16
454.943	5.21
455.3	5.15
455.657	5.31
456.014	5.38
456.371	5.13
456.727	5.27
457.084	5.29
457.441	5.26
457.797	5.29
458.154	5.27
458.51	5.38
458.867	5.56
459.223	5.35
459.58	5.3
459.936	5.17
460.292	5.38
460.648	5.23
461.005	5.23
461.361	5.26
461.717	5.2
462.073	5.06
462.429	5.29
462.785	5.14
463.141	5.26
463.496	5.33
463.852	5.52
464.208	5.48
464.564	5.31
464.919	5.59
465.275	5.3
465.631	5.41
465.986	5.29
466.342	5.29
466.697	5.32
467.052	5.51
467.408	5.48
467.763	5.58
468.118	5.25
468.473	5.45
468.829	5.41
469.184	5.14
469.539	5.32
469.894	5.43
470.249	5.3
470.603	5.49
470.958	5.38
471.313	5.46
471.668	5.41
472.023	5.35
472.377	5.4
472.732	5.47
473.086	5.38
473.441	5.49
473.795	5.54
474.15	5.5
474.504	5.22
474.859	5.45
475.213	5.27
475.567	5.6
475.921	5.47
476.275	5.12
476.63	5.37
476.984	5.52
477.338	5.39
477.692	5.37
478.045	5.54
478.399	5.49
478.753	5.54
479.107	5.47
479.461	5.46
479.814	5.56
480.168	5.39
480.521	5.31
480.875	5.55
481.228	5.46
481.582	5.55
481.935	5.58
482.289	5.46
482.642	5.55
482.995	5.42
483.348	5.46
483.701	5.58
484.055	5.32
484.408	5.26
484.761	5.33
485.114	5.22
485.466	5.12
485.819	5.12
486.172	5.1
486.525	5.14
486.878	5.15
487.23	5.26
487.583	5.23
487.936	5.36
488.288	5.21
488.641	5.34
488.993	5.25
489.345	5.25
489.698	5.23
490.05	5.26
490.402	5.25
490.754	5.29
491.107	5.3
491.459	5.41
491.811	5.53
492.163	5.47
492.515	5.5
492.866	5.42
493.218	5.32
493.57	5.23
493.922	5.21
494.274	5.31
494.625	5.36
494.977	5.53
495.328	5.52
495.68	5.55
496.031	5.67
496.383	5.61
496.734	5.5
497.086	5.53
497.437	5.76
497.788	5.63
498.139	5.6
498.49	5.65
498.842	5.57
499.193	5.62
499.544	5.65
499.894	5.49
500.245	5.6
500.596	5.56
500.947	5.53
501.298	5.71
501.648	5.75
501.999	5.58
502.35	5.63
502.7	5.65
503.051	5.76
503.401	5.63
503.752	5.72
504.102	5.65
504.452	5.69
504.803	5.63
505.153	5.69
505.503	5.8
505.853	5.86
506.203	5.71
506.553	5.58
506.903	5.7
507.253	5.73
507.603	5.81
507.953	5.74
508.303	5.87
508.652	5.79
509.002	5.81
509.352	5.85
509.701	5.78
510.051	5.71
510.4	5.67
510.75	5.68
511.099	5.66
511.449	5.71
511.798	5.8
512.147	5.76
512.496	5.85
512.846	5.74
513.195	5.77
513.544	5.91
513.893	5.71
514.242	5.9
514.591	5.82
514.939	5.75
515.288	5.81
515.637	5.89
515.986	5.78
516.334	5.95
516.683	5.87
517.032	5.8
517.38	5.73
517.729	6.07
518.077	5.83
518.426	5.94
518.774	5.92
519.122	5.94
519.47	5.81
519.819	5.81
520.167	5.85
520.515	5.85
520.863	5.85
521.211	5.77
521.559	5.92
521.907	5.92
522.255	6.09
522.602	6.01
522.95	6.01
523.298	6.01
523.645	6.09
523.993	6.17
524.341	6.04
524.688	5.9
525.036	6.08
525.383	6.14
525.73	5.93
526.078	6.07
526.425	6.01
526.772	6.02
527.119	6
527.466	6.08
527.814	5.96
528.161	6.12
528.508	6.06
528.854	6.03
529.201	6.01
529.548	6.07
529.895	5.97
530.242	5.85
530.588	5.84
530.935	5.88
531.282	5.87
531.628	5.98
531.975	5.91
532.321	6.05
532.667	6.1
533.014	6.06
533.36	6.16
533.706	6.11
534.052	6.06
534.399	6.16
534.745	6.13
535.091	6.03
535.437	6.09
535.783	6.06
536.129	6.14
536.474	6.19
536.82	6.16
537.166	6.31
537.512	6.31
537.857	6.31
538.203	6.34
538.549	6.28
538.894	6.34
539.239	6.23
539.585	6.37
539.93	6.4
540.276	6.33
540.621	6.44
540.966	6.32
541.311	6.57
541.656	6.51
542.001	6.49
542.346	6.4
542.691	6.39
543.036	6.21
543.381	6.18
543.726	6.27
544.071	6.25
544.415	6.32
544.76	6.4
545.105	6.44
545.449	6.55
545.794	6.48
546.138	6.33
546.483	6.57
546.827	6.53
547.171	6.66
547.516	6.64
547.86	6.62
548.204	6.66
548.548	6.61
548.892	6.62
549.236	6.64
549.58	6.72
549.924	6.63
550.268	6.8
550.612	6.77
550.956	6.91
551.3	6.95
551.643	6.82
551.987	7.09
552.33	6.96
552.674	7.12
553.017	6.96
553.361	7.07
553.704	7.03
554.048	7.08
554.391	7.06
554.734	6.95
555.077	7.15
555.42	6.87
555.764	7.12
556.107	7.1
556.45	6.96
556.793	6.89
557.135	7.05
557.478	7.25
557.821	7.01
558.164	7.28
558.507	7.18
558.849	7.08
559.192	7.29
559.534	7.27
559.877	7.35
560.219	7.27
560.562	7.37
560.904	7.3
561.246	7.32
561.589	7.3
561.931	7.28
562.273	7.22
562.615	7.28
562.957	7.48
563.299	7.54
563.641	7.39
563.983	7.39
564.325	7.48
564.667	7.55
565.008	7.29
565.35	7.33
565.692	7.6
566.033	7.54
566.375	7.46
566.716	7.57
567.058	7.68
567.399	7.46
567.741	7.64
568.082	7.48
568.423	7.44
568.764	7.61
569.105	7.54
569.447	7.77
569.788	7.68
570.129	7.41
570.47	7.79
570.811	7.88
571.151	7.71
571.492	7.87
571.833	7.97
572.174	7.92
572.514	7.89
572.855	7.83
573.195	7.92
573.536	7.8
573.876	7.84
574.217	8.12
574.557	7.88
574.898	7.88
575.238	7.99
575.578	7.95
575.918	8.01
576.258	8.01
576.598	8.1
576.938	8.12
577.278	8.19
577.618	8.2
577.958	8.23
578.298	8.31
578.638	8.08
578.977	8.13
579.317	8.21
579.657	8.32
579.996	8.23
580.336	8.23
580.675	8.32
581.014	8.37
581.354	8.22
581.693	8.38
582.032	8.3
582.372	8.66
582.711	8.45
583.05	8.61
583.389	8.35
583.728	8.58
584.067	8.76
584.406	8.62
584.745	8.81
585.083	8.58
585.422	8.66
585.761	9.09
586.1	8.78
586.438	9.02
586.777	8.74
587.115	8.66
587.454	9.01
587.792	8.74
588.13	9.05
588.469	8.92
588.807	8.57
589.145	8.87
589.483	9.01
589.821	9.15
590.159	9.09
590.497	9.13
590.835	9
591.173	9.06
591.511	9.18
591.849	9.12
592.187	9
592.524	9.09
592.862	9.06
593.2	9.2
593.537	8.92
593.875	9.17
594.212	9.31
594.55	9.17
594.887	9.67
595.224	9.33
595.561	9.37
595.899	9.54
596.236	9.48
596.573	9.36
596.91	9.52
597.247	9.39
597.584	9.57
597.921	9.61
598.258	9.63
598.594	9.56
598.931	9.38
599.268	9.39
599.604	9.4
599.941	9.24
600.277	9.61
600.614	9.71
600.95	9.79
601.287	9.71
601.623	9.84
601.959	9.59
602.296	10.02
602.632	9.95
602.968	9.74
603.304	9.89
603.64	10.01
603.976	9.71
604.312	9.96
604.648	10.08
604.984	9.87
605.319	9.92
605.655	9.9
605.991	10.07
606.326	9.93
606.662	10.06
606.998	9.96
607.333	10.02
607.668	10.2
608.004	10.14
608.339	10.25
608.674	10.34
609.01	10.23
609.345	10.36
609.68	10.34
610.015	10.06
610.35	10.44
610.685	10.47
611.02	10.36
611.355	10.32
611.689	10.44
612.024	10.5
612.359	10.43
612.694	10.47
613.028	10.32
613.363	10.52
613.697	10.79
614.032	10.85
614.366	11.15
614.7	10.68
615.035	10.52
615.369	10.48
615.703	10.96
616.037	10.58
616.371	10.67
616.705	10.62
617.039	10.93
617.373	10.84
617.707	10.65
618.041	10.99
618.375	10.52
618.709	11.05
619.042	11.17
619.376	11.03
619.71	10.69
620.043	10.88
620.377	10.84
620.71	10.8
621.043	10.81
621.377	10.91
621.71	11.3
622.043	11.46
622.376	11.8
622.709	11.49
623.043	11.33
623.376	11.48
623.709	11.6
624.041	11.4
624.374	11.18
624.707	11.42
625.04	11.59
625.373	11.92
625.705	11.7
626.038	11.6
626.37	11.44
626.703	11.4
627.035	11.56
627.368	11.68
627.7	11.48
628.032	11.4
628.365	11.69
628.697	11.83
629.029	11.94
629.361	11.6
629.693	11.37
630.025	11.66
630.357	11.86
630.689	11.44
631.021	12.03
631.353	12.16
631.684	11.92
632.016	11.87
632.348	12.01
632.679	11.62
633.011	12.07
633.342	12.06
633.674	12.4
634.005	12.27
634.336	12.64
634.668	12.5
634.999	12.15
635.33	12.12
635.661	12.29
635.992	12.25
636.323	12.34
636.654	12.49
636.985	12.77
637.316	12.43
637.647	12.37
637.977	12.31
638.308	12.72
638.639	12.72
638.969	12.62
639.3	12.73
639.63	12.73
639.961	12.55
640.291	12.57
640.622	12.49
640.952	12.52
641.282	12.67
641.612	13.22
641.943	12.69
642.273	13.39
642.603	13.08
642.933	13.12
643.263	12.55
643.592	13
643.922	13.59
644.252	13.49
644.582	12.92
644.911	13.24
645.241	12.62
645.571	13.5
645.9	12.88
646.23	12.87
646.559	13.57
646.888	13.06
647.218	13.39
647.547	13.2
647.876	13.49
648.205	13.4
648.534	13.46
648.863	13
649.192	13.99
649.521	14.1
649.85	13.11
650.179	14
650.508	13.95
650.837	13.42
651.165	13.12
651.494	13.27
651.822	13.66
652.151	13.92
652.479	13.89
652.808	13.31
653.136	13.65
653.465	14.07
653.793	13.74
654.121	14.44
654.449	13.85
654.777	13.91
655.105	13.93
655.433	13.74
655.761	13.87
656.089	13.72
656.417	14.35
656.745	14.11
657.073	13.21
657.4	13.99
657.728	13.93
658.056	14.6
658.383	13.71
658.711	14.17
659.038	13.91
659.365	14.73
659.693	14.04
660.02	13.89
660.347	14.04
660.674	14.29
661.001	14.44
661.329	14.35
661.656	14.32
661.982	14.3
662.309	14.56
662.636	14.27
662.963	14.66
663.29	14.57
663.616	14.74
663.943	14.85
664.27	15.13
664.596	14.36
664.923	15.3
665.249	14.22
665.576	14.63
665.902	14.65
666.228	14.84
666.554	14.63
666.881	15.08
667.207	15.32
667.533	14.94
667.859	15.4
668.185	14.84
668.511	15.26
668.837	15.27
669.162	15.31
669.488	14.96
669.814	15.25
670.139	14.88
670.465	15.07
670.791	15.06
671.116	14.98
671.442	15.61
671.767	16.07
672.092	15.41
672.418	15.12
672.743	15.46
673.068	15.11
673.393	15.25
673.718	15.7
674.043	15.41
674.368	14.97
674.693	14.25
675.018	15.61
675.343	15.61
675.667	15.93
675.992	15.82
676.317	14.45
676.641	15.29
676.966	15.7
677.29	15.48
677.615	15.88
677.939	15.98
678.264	15.99
678.588	15.61
678.912	16.17
679.236	15.37
679.56	16.85
679.885	16.37
680.209	16.07
680.532	16.62
680.856	16.41
681.18	16.32
681.504	15.98
681.828	16.06
682.152	15.88
682.475	16.67
682.799	16.72
683.122	16.28
683.446	16.17
683.769	16.84
684.093	15.94
684.416	16.5
684.739	16.7
685.062	16.57
685.386	16.38
685.709	16.59
686.032	17.01
686.355	16.66
686.678	16.27
687.001	16.54
687.324	16.25
687.646	17.52
687.969	16.96
688.292	16.82
688.614	16.57
688.937	16.58
689.26	17.27
689.582	17.02
689.904	16.14
690.227	17.04
690.549	17.23
690.871	16.85
691.194	17.11
691.516	17.1
691.838	16.63
692.16	16.87
692.482	17.06
692.804	17.09
693.126	17.54
693.448	16.77
693.769	17.48
694.091	17.77
694.413	17.63
694.735	17.83
695.056	17.2
695.378	17.08
695.699	17.18
696.021	16.92
696.342	17.3
696.663	16.89
696.984	17.06
697.306	17.97
697.627	17.31
697.948	17.55
698.269	17.76
698.59	18.37
698.911	18.08
699.232	16.82
699.553	17.51
699.873	18.28
700.194	17.95
700.515	17.8
700.835	17.68
701.156	17.96
701.477	18.45
701.797	17.75
702.117	17.95
702.438	18.23
702.758	17.15
703.078	18.96
703.398	17.86
703.719	17.14
704.039	17.51
704.359	16.93
704.679	18.79
704.999	18.79
705.319	17.16
705.638	19.18
705.958	17.66
706.278	18.8
706.597	17.99
706.917	17.91
707.237	17.19
707.556	19.94
707.876	18.49
708.195	18.95
708.514	19.33
708.834	19
709.153	19.4
709.472	18.69
709.791	19.29
710.11	19.8
710.429	17.8
710.748	17.66
711.067	18.75
711.386	18.25
711.705	19.25
712.023	20.12
712.342	18.75
712.661	19.5
712.979	19.41
713.298	18.63
713.616	19.52
713.935	18.87
714.253	18.73
714.572	18.93
714.89	19.29
715.208	19.4
715.526	19.64
715.844	18.7
716.162	19.77
716.48	19.14
716.798	19.62
717.116	19.83
717.434	19.25
717.752	19.19
718.069	19.47
718.387	19.67
718.705	19.65
719.022	19.56
719.34	20.4
719.657	20.16
719.975	19.92
720.292	20.81
720.609	20.37
720.927	17.8
721.244	19
721.561	20.36
721.878	20.36
722.195	19.66
722.512	19.2
722.829	19.52
723.146	20.97
723.463	20.43
723.779	19.83
724.096	20.05
724.413	20.1
724.729	19.58
725.046	20.19
725.362	18.84
725.679	19.37
725.995	20.53
726.311	19.52
726.628	21.04
726.944	19.03
727.26	21.41
727.576	19.5
727.892	19.89
728.208	19.29
728.524	19.43
728.84	21.18
729.156	20.41
729.472	21.69
729.787	20.18
730.103	21.24
730.419	20.14
730.734	19.69
731.05	21.41
731.365	21.2
731.681	20.54
731.996	20.16
732.311	20.75
732.626	21.42
732.942	20.21
733.257	20.59
733.572	20.85
733.887	21.49
734.202	22.57
734.517	21.42
734.832	22.71
735.146	21.89
735.461	21.71
735.776	21.11
736.091	20.4
736.405	20.46
736.72	20.74
737.034	21.14
737.349	21.65
737.663	21.92
737.977	21.25
738.292	21.34
738.606	20.52
738.92	21.63
739.234	21.81
739.548	23.21
739.862	22.53
740.176	20.57
740.49	22.14
740.804	21.31
741.117	20.32
741.431	22.99
741.745	22.91
742.058	21.84
742.372	21.22
742.685	22.32
742.999	19.9
743.312	21.79
743.626	23.71
743.939	23.25
744.252	22.45
744.565	22.56
744.878	22.04
745.191	21.05
745.505	20.92
745.817	23.8
746.13	22.39
746.443	22.31
746.756	22.11
747.069	23.06
747.381	20.86
747.694	22.87
748.007	22.97
748.319	23.12
748.632	21.68
748.944	20.64
749.256	23.08
749.569	20.96
749.881	23.02
750.193	23.71
750.505	23.74
750.817	22.12
751.129	21.98
751.441	23.69
751.753	22.52
752.065	21.16
752.377	21.77
752.689	21.29
753	22.22
753.312	23.06
753.624	23.27
753.935	24.25
754.247	23.04
754.558	22.81
754.869	22.13
755.181	22.03
755.492	24.57
755.803	23.92
756.114	23.56
756.425	24.07
756.736	23.26
757.047	23.41
757.358	24.46
757.669	24.09
757.98	24.58
758.291	21.95
758.601	23.42
758.912	21.45
759.223	22.47
759.533	21.87
759.844	24.1
760.154	26.06
760.464	23.47
760.775	25.01
761.085	20.02
761.395	23.94
761.705	23.36
762.016	24.04
762.326	23.66
762.636	24.53
762.945	25.61
763.255	23.15
763.565	24.98
763.875	26.54
764.185	24.06
764.494	23.82
764.804	21.79
765.113	24.01
765.423	24.8
765.732	24.86
766.042	24.61
766.351	24.77
766.66	23.77
766.97	23.84
767.279	23.5
767.588	23.08
767.897	24.76
768.206	24.02
768.515	25.01
768.824	24.95
769.133	24.8
769.441	26.01
769.75	22.22
770.059	24.33
770.367	23.41
770.676	25.28
770.984	26.43
771.293	26.55
771.601	22.28
771.91	23.84
772.218	23.71
772.526	23.18
772.834	25.97
773.142	25.98
773.45	25.67
773.758	24.87
774.066	24.8
774.374	23.64
774.682	24.58
774.99	23.47
775.298	25.99
775.605	26.35
775.913	26.15
776.22	26.33
776.528	22.59
776.835	25.27
777.143	26.57
777.45	21.97
777.757	24.22
778.065	23.88
778.372	28.6
778.679	22.25
778.986	24.84
779.293	26.61
779.6	25.16
779.907	26.42
780.214	24.31
780.52	23.13
780.827	25.63
781.134	26.6
781.44	26.72
781.747	22.26
782.053	26.04
782.36	22.64
782.666	25.17
782.973	23.44
783.279	24.46
783.585	23.96
783.891	26.01
784.197	29.53
784.503	23.35
784.809	25.92
785.115	29.03
785.421	29.19
785.727	26.89
786.033	23.33
786.339	24.57
786.644	26.6
786.95	28.17
787.255	24.02
787.561	22.75
787.866	28.34
788.172	22.83
788.477	26.22
788.782	25.02
789.088	29.02
789.393	24.82
789.698	22.19
790.003	24.61
790.308	24.95
790.613	22.73
790.918	28.06
791.223	28.38
791.527	26.02
791.832	28.73
792.137	24.82
792.441	27.71
792.746	29.18
793.05	31.81
793.355	28.44
793.659	28.52
793.963	29.04
794.268	23.7
794.572	29.12
794.876	20.9
795.18	25.05
795.484	26.9
795.788	29.61
796.092	23.43
796.396	24.35
796.7	24.56
797.004	29.75
797.307	21.77
797.611	25.03
797.915	24.3
798.218	28.95
798.522	23.55
798.825	29.06
799.128	29
799.432	25.9
799.735	23.82
800.038	32.09
800.341	30.82
800.644	28.58
800.947	26.63
801.25	24.15
801.553	22.76
801.856	27.83
802.159	29.74
802.462	30.68
802.764	26.31
803.067	27.38
803.37	28.8
803.672	21.01
803.975	24.4
804.277	24.95
804.579	23.58
804.882	26.97
805.184	30.35
805.486	24.9
805.788	27.67
806.09	28.83
806.392	27.89
806.694	26.67
806.996	27.12
807.298	28.86
807.6	23.89
807.902	26.13
808.203	23
808.505	28.76
808.807	28.28
809.108	30.45
809.409	32.44
809.711	22.17
810.012	22.44
810.313	28.95
810.615	25.2
810.916	25.87
811.217	26.14
811.518	21.42
811.819	27.76
812.12	21.71
812.421	29.37
812.722	27.27
813.023	24.91
813.323	32.92
813.624	30.65
813.925	28.5
814.225	21
814.526	24.27
814.826	32.28
815.126	25.11
815.427	22.48
815.727	24.48
816.027	28.03
816.327	27.4
816.627	28.22
816.927	39.03
817.227	27.73
817.527	32.43
817.827	25.47
818.127	33.72
818.427	23.8
818.727	30.11
819.026	25.36
819.326	31.15
819.625	23.79
819.925	29.66
820.224	25.76
820.524	27.19
820.823	32.86
821.122	26.25
821.421	26.66
821.72	27.58
822.019	21.84
822.318	23.61
822.617	28.56
822.916	27.74
823.215	29.11
823.514	29.23
823.813	27.14
824.111	31.77
824.41	30.44
824.709	29.45
825.007	29.83
825.306	29.87
825.604	29.26
825.902	29.48
826.201	29.75
826.499	28.34
826.797	28.69
827.095	30.31
827.393	28.67
827.691	30.19
827.989	27.55
828.287	27.09
828.585	31.76
828.882	29.24
829.18	31.64
829.478	28.87
829.775	31.07
830.073	29.11
830.37	31.33
830.668	29.92
830.965	28.95
831.263	30.71
831.56	30.81
831.857	30.49
832.154	34.21
832.451	28.54
832.748	30.34
833.045	29.46
833.342	32.95
833.639	29.48
833.936	32.98
834.232	28.39
834.529	27.41
834.826	33.94
835.122	31.03
835.419	35
835.715	30.73
836.012	30.43
836.308	27.57
836.604	31.73
836.901	31.66
837.197	35.05
837.493	31.19
837.789	33.16
838.085	32.9
838.381	30.05
838.677	26.43
838.972	32.76
839.268	25.6
839.564	33.49
839.86	29.77
840.155	31.34
840.451	30.22
840.746	39
841.042	23.4
841.337	26.16
841.632	16.98
841.928	37.78
842.223	36.12
842.518	33.85
842.813	35.93
843.108	24.07
843.403	25.49
843.698	34.1
843.993	25.21
844.287	32.01
844.582	26.73
844.877	40.12
845.171	32.3
845.466	20.38
845.761	21.98
846.055	24.48
846.349	30.38
846.644	27.6
846.938	21.35
847.232	31.62
847.526	24.89
847.82	39.6
848.114	47.41
848.408	19.16
848.702	37.7
848.996	37.62
849.29	38.62
849.584	23.51
849.877	36.04
850.171	14.36
850.465	25.35
850.758	28.37
851.052	14.86
851.345	16.54
851.638	37.04
851.932	12.77
852.225	2.4
852.518	39.97
852.811	45.21
853.104	18.16
853.397	15.23
853.69	8.22
853.983	44.85
854.276	17.84
854.569	26.79
854.861	30.19
855.154	43.12
855.447	38.81
855.739	37.4
856.032	21.32
856.324	-0.23
856.616	36.99
856.909	19.91
857.201	32.41
857.493	9.57
857.785	42.33
858.077	35.52
858.369	22.04
858.661	14.74
858.953	50.63
859.245	32.59
859.537	18.61
859.829	28.65
860.12	24.6
860.412	14.46
860.703	10.15
860.995	29.24
861.286	34.13
861.578	30.52
861.869	36.82
862.16	10
862.452	21.58
862.743	3.96
863.034	53.84
863.325	35
863.616	26.52
863.907	57.22
864.198	35.22
864.488	41.64
864.779	33.55
865.07	20.29
865.36	36.65
865.651	27.35
865.941	-10.12
866.232	20.03
866.522	54.43
866.813	20.62
867.103	48.86
867.393	2.09
867.683	2.14
867.973	24.35
868.263	30
868.553	33.26
868.843	18.16
869.133	2.9
869.423	26.25
869.713	35.06
870.002	5.3
870.292	34.83
870.582	8.78
870.871	16.77
871.161	45.14
871.45	33.38
871.739	38.75
872.029	1.51
872.318	36.63
872.607	21.71
872.896	14.54
873.185	37.6
873.474	23.8
873.763	29.44
874.052	31.12
874.341	49.92
874.63	54.64
874.918	-11.02
875.207	17.41
875.496	35.88
875.784	25.14
876.073	21.87
876.361	46.56
876.649	48.31
876.938	44.29
877.226	-3
877.514	-72.58
877.802	25.23
878.09	4.14
878.378	16.99
878.666	51.5
878.954	61.16
879.242	32.86
879.53	29.37
879.817	6.54
880.105	23
880.392	43.09
880.68	39.54
880.967	44.58
881.255	25.57
881.542	53.46
881.83	32.88
882.117	29.42
882.404	20.86
882.691	17.67
882.978	-0.01
883.265	12.17
883.552	30.53
883.839	32.17
884.126	38.5
884.413	31.04
884.699	43.36
884.986	27.47
885.273	34.58
885.559	34.58
885.846	34.58
