Data from 0430_crown_Reflection__0__97.txt Node

Date: Tue Dec 12 18:58:15 CST 2023
User: ToomeyLab
Spectrometer: FLMS14357
Trigger mode: 0
Integration Time (sec): 1.000000E-2
Scans to average: 100
Electric dark correction enabled: true
Nonlinearity correction enabled: false
Boxcar width: 0
XAxis mode: Wavelengths
Number of Pixels in Spectrum: 2048
>>>>>Begin Spectral Data<<<<<
189.047	-32.49
189.435	-32.49
189.823	-32.49
190.211	211.29
190.599	55.62
190.987	84
191.375	31.78
191.763	-241.52
192.151	-2.09
192.538	-244.45
192.926	241.62
193.314	-17.77
193.702	206.16
194.089	117.02
194.477	-99.43
194.864	95.1
195.252	34.67
195.639	2332.38
196.027	53.11
196.414	-1102.65
196.801	113.67
197.189	426.2
197.576	56.66
197.963	36.72
198.351	22
198.738	21.13
199.125	41.76
199.512	-19.26
199.899	72.01
200.286	1.6
200.673	8.73
201.06	35.83
201.447	-106.97
201.833	-58.18
202.22	24.32
202.607	-267.3
202.994	55.13
203.38	49.57
203.767	-1.93
204.154	12.68
204.54	41.16
204.927	-23.67
205.313	28.96
205.699	-9.15
206.086	-10.06
206.472	42.51
206.858	-26.11
207.245	12.12
207.631	38.13
208.017	25.45
208.403	-0.54
208.789	27.08
209.175	22.69
209.561	4.01
209.947	-26.12
210.333	-6.46
210.719	1.35
211.105	-7.94
211.491	11.89
211.876	24.3
212.262	8.02
212.648	-30.17
213.034	-2.13
213.419	-11.3
213.805	20.28
214.19	28.56
214.576	19.73
214.961	-2.5
215.346	1
215.732	19.36
216.117	-21.74
216.502	-31.45
216.888	-27.85
217.273	-31.74
217.658	-62.85
218.043	-12.04
218.428	15.59
218.813	0.3
219.198	-123.88
219.583	22.17
219.968	-17.54
220.353	-19.44
220.738	18.3
221.122	2.79
221.507	-27.49
221.892	0.5
222.276	5.51
222.661	0.64
223.046	-8.51
223.43	-5.29
223.815	-17.68
224.199	-0.79
224.583	-11.07
224.968	-2.65
225.352	-16.63
225.736	4.84
226.121	-1.06
226.505	-2.1
226.889	0.3
227.273	-4.1
227.657	5.38
228.041	3.44
228.425	-3.8
228.809	-5.44
229.193	0.24
229.577	0.71
229.961	-0.27
230.344	1.73
230.728	2.09
231.112	1.82
231.495	1.34
231.879	3.26
232.263	1.13
232.646	0.99
233.03	1.93
233.413	1.38
233.797	1.46
234.18	2.16
234.563	-1.06
234.946	4.47
235.33	1.12
235.713	1.17
236.096	-0.54
236.479	1.24
236.862	1.68
237.245	1.29
237.628	0.63
238.011	3.89
238.394	0.54
238.777	1.84
239.16	3.26
239.543	0.76
239.925	3.01
240.308	1.49
240.691	1.28
241.073	1.62
241.456	0.42
241.838	1.55
242.221	3.28
242.603	2.58
242.986	1.53
243.368	2.39
243.75	1.39
244.133	1.26
244.515	2.07
244.897	1.26
245.279	3
245.661	1.05
246.043	0.67
246.425	1.19
246.807	0.09
247.189	2.32
247.571	0.39
247.953	1.38
248.335	1.77
248.717	1.35
249.098	1.63
249.48	1.34
249.862	1.18
250.243	1.24
250.625	1.92
251.006	1.35
251.388	1.68
251.769	1.46
252.151	1.2
252.532	1.63
252.913	2.8
253.295	2.11
253.676	1.58
254.057	0.95
254.438	2.08
254.819	1.13
255.2	0.86
255.581	0.98
255.962	0.27
256.343	2.01
256.724	1.83
257.105	1.05
257.486	0.46
257.867	0.9
258.247	1.55
258.628	1.62
259.009	0.78
259.389	1.04
259.77	0.91
260.15	1.7
260.531	1.88
260.911	1.54
261.292	1.08
261.672	1.31
262.052	1.48
262.432	1.47
262.813	1.4
263.193	1.76
263.573	1.65
263.953	2.15
264.333	2.41
264.713	1.78
265.093	1.34
265.473	1.95
265.853	1.2
266.233	0.9
266.612	1.32
266.992	1.65
267.372	2
267.752	2.25
268.131	0.66
268.511	1.18
268.89	0.97
269.27	1.22
269.649	1.26
270.029	0.89
270.408	1.55
270.787	0.74
271.167	1.38
271.546	1.19
271.925	2.06
272.304	1.96
272.683	1.05
273.062	1.35
273.441	1.7
273.82	1.12
274.199	1.47
274.578	1.82
274.957	1.42
275.336	1.4
275.715	1.74
276.093	0.66
276.472	1.78
276.851	1.57
277.229	1.24
277.608	1.4
277.986	0.59
278.365	1.63
278.743	1.56
279.122	1.82
279.5	1.03
279.878	0.5
280.257	0.89
280.635	0.82
281.013	1.1
281.391	1.62
281.769	1.76
282.147	1.55
282.525	1.35
282.903	0.95
283.281	1.12
283.659	1.44
284.037	2.05
284.415	1.39
284.792	1.55
285.17	0.63
285.548	1.56
285.925	1.57
286.303	1.08
286.68	1.61
287.058	1.61
287.435	1.42
287.813	1.17
288.19	1.59
288.567	1.4
288.945	1.44
289.322	0.9
289.699	1.38
290.076	1.13
290.453	1.56
290.83	1.45
291.207	1.74
291.584	1.77
291.961	1.26
292.338	1.14
292.715	1.51
293.092	1.6
293.469	1.67
293.845	1.75
294.222	1.14
294.599	1.66
294.975	1.38
295.352	1.73
295.728	1.47
296.105	1.31
296.481	2.12
296.858	1.84
297.234	1.71
297.61	1.25
297.986	1.8
298.363	1.5
298.739	1.17
299.115	1.22
299.491	1.42
299.867	1.68
300.243	1.17
300.619	1.81
300.995	1.77
301.371	2.04
301.746	2.11
302.122	1.85
302.498	2.13
302.874	1.52
303.249	2.65
303.625	1.25
304	1.76
304.376	1.22
304.751	2.05
305.127	1.25
305.502	1.83
305.878	1.58
306.253	1.36
306.628	1.63
307.003	1.34
307.378	1.3
307.754	1.76
308.129	1.14
308.504	2.64
308.879	1.61
309.254	1.88
309.629	1.36
310.003	2.08
310.378	2.17
310.753	1.97
311.128	1.9
311.502	1.39
311.877	1.17
312.252	1.37
312.626	1.57
313.001	1.84
313.375	1.23
313.75	1.71
314.124	1.43
314.498	1.69
314.873	1.28
315.247	1.85
315.621	1.23
315.995	2
316.369	1.52
316.743	0.98
317.117	1.54
317.491	1.63
317.865	2.14
318.239	1.32
318.613	2.01
318.987	2.05
319.361	1.24
319.734	1.86
320.108	1.91
320.482	1.71
320.855	1.57
321.229	1.68
321.602	2.09
321.976	2.08
322.349	1.68
322.723	1.2
323.096	1.63
323.469	0.94
323.843	2.24
324.216	1.96
324.589	1.95
324.962	2.01
325.335	2.02
325.708	1.93
326.081	1.68
326.454	1.95
326.827	1.97
327.2	1.95
327.573	1.02
327.945	2.14
328.318	1.87
328.691	1.55
329.063	2.16
329.436	1.99
329.809	2.14
330.181	0.93
330.553	1.72
330.926	2.19
331.298	1.53
331.671	1.9
332.043	1.45
332.415	2.28
332.787	2.03
333.159	1.76
333.532	2.22
333.904	1.74
334.276	2.29
334.648	1.81
335.02	1.61
335.391	1.58
335.763	1.85
336.135	2.56
336.507	2.47
336.879	1.88
337.25	2.3
337.622	1.36
337.993	1.82
338.365	1.09
338.736	1.73
339.108	1.32
339.479	1.98
339.851	1.59
340.222	1.24
340.593	1.91
340.964	1.87
341.336	1.96
341.707	1.62
342.078	1.41
342.449	1.43
342.82	1.84
343.191	1.61
343.562	2.11
343.933	2.15
344.303	1.85
344.674	1.81
345.045	1.79
345.416	1.61
345.786	1.72
346.157	1.58
346.527	2.14
346.898	1.26
347.268	1.76
347.639	1.87
348.009	1.97
348.38	1.62
348.75	2
349.12	1.67
349.49	1.29
349.861	1.98
350.231	1.7
350.601	2.19
350.971	1.64
351.341	1.79
351.711	2.48
352.081	1.71
352.45	2.09
352.82	1.82
353.19	1.92
353.56	1.54
353.929	1.5
354.299	1.41
354.669	1.77
355.038	1.7
355.408	1.89
355.777	2.03
356.147	1.52
356.516	2.11
356.885	1.53
357.254	1.62
357.624	1.62
357.993	1.79
358.362	2.22
358.731	2.12
359.1	1.78
359.469	2.02
359.838	1.83
360.207	1.77
360.576	1.87
360.945	1.63
361.314	1.68
361.682	2.07
362.051	2.19
362.42	2.17
362.788	1.72
363.157	2.18
363.525	2.16
363.894	1.69
364.262	1.81
364.631	1.63
364.999	2.16
365.367	2.18
365.735	1.52
366.104	1.75
366.472	1.79
366.84	1.66
367.208	1.51
367.576	2.04
367.944	2.23
368.312	1.79
368.68	2.1
369.048	1.87
369.416	2.2
369.783	2.1
370.151	1.87
370.519	1.83
370.886	2.05
371.254	1.59
371.621	2.35
371.989	1.68
372.356	1.67
372.724	1.46
373.091	1.82
373.458	1.77
373.826	1.95
374.193	1.75
374.56	2.17
374.927	1.98
375.294	2.07
375.661	2.2
376.028	2.35
376.395	2.35
376.762	2.15
377.129	2.12
377.496	2.31
377.863	2.18
378.229	1.9
378.596	1.66
378.963	1.98
379.329	1.81
379.696	1.6
380.062	2.2
380.429	2.08
380.795	2.31
381.161	1.86
381.528	1.93
381.894	1.94
382.26	1.75
382.626	1.92
382.993	2
383.359	1.98
383.725	2.06
384.091	2.06
384.457	1.93
384.823	1.87
385.188	1.83
385.554	1.97
385.92	1.98
386.286	1.86
386.651	2.25
387.017	2.23
387.383	2.04
387.748	2.02
388.114	2.26
388.479	2.23
388.845	1.71
389.21	2.1
389.575	1.78
389.94	1.94
390.306	1.96
390.671	1.97
391.036	2.1
391.401	1.84
391.766	1.97
392.131	2.18
392.496	1.85
392.861	2.17
393.226	1.9
393.591	1.88
393.956	2.03
394.32	2.19
394.685	1.96
395.05	2.04
395.414	2
395.779	2.12
396.143	2.09
396.508	1.99
396.872	2.16
397.236	1.91
397.601	2.22
397.965	1.97
398.329	2.04
398.694	1.79
399.058	2.19
399.422	1.94
399.786	2.12
400.15	1.86
400.514	2.24
400.878	2.05
401.242	1.93
401.605	1.99
401.969	2.15
402.333	2.15
402.697	2.09
403.06	1.73
403.424	2.39
403.787	1.97
404.151	2.13
404.514	1.93
404.878	1.91
405.241	2.18
405.604	1.91
405.968	2.04
406.331	2.15
406.694	2.25
407.057	2.04
407.42	2.06
407.783	1.81
408.146	2.04
408.509	2.09
408.872	2.08
409.235	2.05
409.598	1.97
409.961	1.84
410.323	2.03
410.686	2.18
411.049	2.34
411.411	2.35
411.774	2.13
412.136	2.34
412.499	1.97
412.861	2.08
413.223	2.48
413.586	2
413.948	2.14
414.31	2.24
414.672	2.24
415.035	2.04
415.397	2.02
415.759	2.09
416.121	2.13
416.483	2.03
416.845	2.04
417.206	2.28
417.568	1.93
417.93	2.15
418.292	1.99
418.653	2.23
419.015	2.06
419.377	2.17
419.738	2.03
420.1	2.05
420.461	2.11
420.822	2.12
421.184	2.14
421.545	2.3
421.906	2.05
422.267	1.94
422.629	2.07
422.99	2.1
423.351	1.96
423.712	2.08
424.073	2.06
424.434	2.07
424.795	2.09
425.155	1.96
425.516	1.92
425.877	2.03
426.238	2.03
426.598	2.06
426.959	2.07
427.32	2.11
427.68	2.12
428.041	2.09
428.401	2.17
428.761	2.26
429.122	2.22
429.482	2.36
429.842	2.18
430.202	2.09
430.563	2.24
430.923	2.36
431.283	2.06
431.643	2.06
432.003	2.15
432.363	2.14
432.722	2.12
433.082	2.18
433.442	2.16
433.802	2.14
434.161	2.18
434.521	2.25
434.881	2.12
435.24	2.25
435.6	2.19
435.959	2.17
436.319	2.19
436.678	2.31
437.037	2.11
437.396	2.11
437.756	2.25
438.115	2.25
438.474	1.98
438.833	2.3
439.192	2.26
439.551	2.19
439.91	2
440.269	2.09
440.628	2
440.987	2.03
441.345	2.18
441.704	2.08
442.063	2.2
442.421	2.17
442.78	2.2
443.138	2.05
443.497	2.26
443.855	2.16
444.214	2.11
444.572	2.15
444.93	2.21
445.288	2.05
445.647	2.25
446.005	2.1
446.363	1.97
446.721	2.05
447.079	2.19
447.437	1.99
447.795	2.19
448.153	2.05
448.51	2.11
448.868	2.12
449.226	2.17
449.584	2.09
449.941	2.14
450.299	2.1
450.656	2.17
451.014	2.21
451.371	2.16
451.729	2.28
452.086	2.15
452.443	2.3
452.801	2.23
453.158	2.21
453.515	2.16
453.872	2.16
454.229	2.2
454.586	2.1
454.943	2.12
455.3	2.14
455.657	2.18
456.014	2.19
456.371	2.27
456.727	2.16
457.084	2.09
457.441	2.21
457.797	2.16
458.154	2.36
458.51	2.18
458.867	2.42
459.223	2.24
459.58	2.18
459.936	1.97
460.292	2.27
460.648	2.16
461.005	2.19
461.361	2.07
461.717	2.25
462.073	2.08
462.429	2.16
462.785	2.11
463.141	2.09
463.496	2.1
463.852	2.31
464.208	2.19
464.564	2.2
464.919	2.33
465.275	2.26
465.631	2.42
465.986	2.14
466.342	2.05
466.697	2.12
467.052	2.3
467.408	2.22
467.763	2.27
468.118	2.39
468.473	2.22
468.829	2.42
469.184	2.22
469.539	2.34
469.894	2.37
470.249	2.1
470.603	2.21
470.958	2.03
471.313	2.51
471.668	2.28
472.023	2.2
472.377	2.16
472.732	2.22
473.086	2
473.441	2.55
473.795	2.21
474.15	2.13
474.504	2.14
474.859	2.26
475.213	2.1
475.567	2.35
475.921	2.22
476.275	1.97
476.63	2.24
476.984	2.36
477.338	2.14
477.692	2.25
478.045	2.31
478.399	2.23
478.753	2.3
479.107	2.19
479.461	2.27
479.814	2.29
480.168	2.15
480.521	2.03
480.875	2.14
481.228	2.33
481.582	2.21
481.935	2.25
482.289	2.32
482.642	2.34
482.995	2.27
483.348	2.22
483.701	2.44
484.055	2.22
484.408	2.14
484.761	2.18
485.114	2.13
485.466	2.05
485.819	2.06
486.172	2.02
486.525	2.1
486.878	2.12
487.23	2.09
487.583	2.12
487.936	2.19
488.288	2.12
488.641	2.11
488.993	2.13
489.345	2.13
489.698	2.07
490.05	2.12
490.402	2.13
490.754	2.11
491.107	2.09
491.459	2.2
491.811	2.2
492.163	2.11
492.515	2.22
492.866	2.1
493.218	2.12
493.57	2.11
493.922	2.07
494.274	2.18
494.625	2.27
494.977	2.28
495.328	2.38
495.68	2.22
496.031	2.27
496.383	2.25
496.734	2.34
497.086	2.17
497.437	2.23
497.788	2.25
498.139	2.21
498.49	2.33
498.842	2.15
499.193	2.23
499.544	2.27
499.894	2.28
500.245	2.35
500.596	2.28
500.947	2.27
501.298	2.37
501.648	2.31
501.999	2.29
502.35	2.28
502.7	2.32
503.051	2.27
503.401	2.24
503.752	2.45
504.102	2.24
504.452	2.37
504.803	2.31
505.153	2.39
505.503	2.29
505.853	2.33
506.203	2.35
506.553	2.34
506.903	2.39
507.253	2.25
507.603	2.25
507.953	2.38
508.303	2.32
508.652	2.35
509.002	2.41
509.352	2.32
509.701	2.46
510.051	2.32
510.4	2.4
510.75	2.28
511.099	2.22
511.449	2.39
511.798	2.27
512.147	2.38
512.496	2.31
512.846	2.28
513.195	2.22
513.544	2.34
513.893	2.39
514.242	2.22
514.591	2.26
514.939	2.31
515.288	2.2
515.637	2.22
515.986	2.24
516.334	2.43
516.683	2.28
517.032	2.32
517.38	2.22
517.729	2.45
518.077	2.19
518.426	2.49
518.774	2.18
519.122	2.18
519.47	2.33
519.819	2.17
520.167	2.25
520.515	2.15
520.863	2.28
521.211	2.21
521.559	2.32
521.907	2.23
522.255	2.29
522.602	2.31
522.95	2.43
523.298	2.36
523.645	2.38
523.993	2.41
524.341	2.32
524.688	2.32
525.036	2.35
525.383	2.19
525.73	2.21
526.078	2.3
526.425	2.24
526.772	2.33
527.119	2.31
527.466	2.31
527.814	2.21
528.161	2.29
528.508	2.32
528.854	2.28
529.201	2.23
529.548	2.24
529.895	2.19
530.242	2.2
530.588	2.16
530.935	2.19
531.282	2.24
531.628	2.26
531.975	2.21
532.321	2.22
532.667	2.17
533.014	2.2
533.36	2.21
533.706	2.18
534.052	2.35
534.399	2.33
534.745	2.22
535.091	2.21
535.437	2.27
535.783	2.23
536.129	2.24
536.474	2.29
536.82	2.36
537.166	2.35
537.512	2.38
537.857	2.36
538.203	2.34
538.549	2.28
538.894	2.24
539.239	2.35
539.585	2.24
539.93	2.29
540.276	2.29
540.621	2.3
540.966	2.44
541.311	2.35
541.656	2.39
542.001	2.33
542.346	2.26
542.691	2.31
543.036	2.21
543.381	2.15
543.726	2.2
544.071	2.25
544.415	2.2
544.76	2.28
545.105	2.3
545.449	2.33
545.794	2.37
546.138	2.17
546.483	2.32
546.827	2.3
547.171	2.32
547.516	2.37
547.86	2.24
548.204	2.36
548.548	2.29
548.892	2.27
549.236	2.35
549.58	2.39
549.924	2.29
550.268	2.42
550.612	2.3
550.956	2.35
551.3	2.57
551.643	2.33
551.987	2.55
552.33	2.48
552.674	2.39
553.017	2.54
553.361	2.53
553.704	2.34
554.048	2.42
554.391	2.42
554.734	2.31
555.077	2.58
555.42	2.27
555.764	2.66
556.107	2.41
556.45	2.29
556.793	2.4
557.135	2.49
557.478	2.5
557.821	2.28
558.164	2.5
558.507	2.42
558.849	2.46
559.192	2.38
559.534	2.47
559.877	2.46
560.219	2.56
560.562	2.41
560.904	2.48
561.246	2.42
561.589	2.53
561.931	2.49
562.273	2.25
562.615	2.2
562.957	2.38
563.299	2.5
563.641	2.63
563.983	2.45
564.325	2.42
564.667	2.48
565.008	2.26
565.35	2.36
565.692	2.5
566.033	2.5
566.375	2.39
566.716	2.26
567.058	2.52
567.399	2.67
567.741	2.48
568.082	2.41
568.423	2.37
568.764	2.5
569.105	2.45
569.447	2.51
569.788	2.45
570.129	2.3
570.47	2.42
570.811	2.4
571.151	2.61
571.492	2.54
571.833	2.45
572.174	2.53
572.514	2.33
572.855	2.44
573.195	2.36
573.536	2.29
573.876	2.41
574.217	2.43
574.557	2.23
574.898	2.49
575.238	2.55
575.578	2.5
575.918	2.32
576.258	2.31
576.598	2.39
576.938	2.48
577.278	2.45
577.618	2.62
577.958	2.42
578.298	2.4
578.638	2.45
578.977	2.46
579.317	2.55
579.657	2.33
579.996	2.48
580.336	2.62
580.675	2.47
581.014	2.47
581.354	2.34
581.693	2.53
582.032	2.3
582.372	2.6
582.711	2.46
583.05	2.56
583.389	2.46
583.728	2.26
584.067	2.39
584.406	2.49
584.745	2.78
585.083	2.24
585.422	2.79
585.761	2.81
586.1	2.71
586.438	2.81
586.777	2.55
587.115	2.49
587.454	2.68
587.792	2.28
588.13	2.61
588.469	2.52
588.807	2.46
589.145	2.53
589.483	2.39
589.821	2.59
590.159	2.61
590.497	2.41
590.835	2.41
591.173	2.46
591.511	2.31
591.849	2.41
592.187	2.48
592.524	2.47
592.862	2.26
593.2	2.43
593.537	2.14
593.875	2.65
594.212	2.57
594.55	2.53
594.887	2.72
595.224	2.41
595.561	2.88
595.899	2.17
596.236	2.62
596.573	2.52
596.91	2.73
597.247	2.56
597.584	2.63
597.921	2.2
598.258	2.55
598.594	2.68
598.931	2.47
599.268	2.46
599.604	2.57
599.941	2.52
600.277	2.45
600.614	2.5
600.95	2.71
601.287	2.32
601.623	2.56
601.959	2.44
602.296	2.8
602.632	2.24
602.968	2.53
603.304	2.37
603.64	2.64
603.976	2.43
604.312	2.56
604.648	2.41
604.984	2.59
605.319	2.42
605.655	2.47
605.991	2.49
606.326	2.47
606.662	2.46
606.998	2.42
607.333	2.66
607.668	2.43
608.004	2.5
608.339	2.78
608.674	2.56
609.01	2.47
609.345	2.6
609.68	2.69
610.015	2.44
610.35	2.52
610.685	2.67
611.02	2.56
611.355	2.47
611.689	2.47
612.024	2.36
612.359	2.79
612.694	2.62
613.028	2.68
613.363	2.47
613.697	2.62
614.032	2.53
614.366	2.78
614.7	2.28
615.035	2.75
615.369	2.22
615.703	2.77
616.037	2.49
616.371	2.48
616.705	2.49
617.039	2.63
617.373	2.67
617.707	2.57
618.041	2.91
618.375	2.38
618.709	2.59
619.042	2.61
619.376	2.33
619.71	2.49
620.043	2.69
620.377	2.58
620.71	2.52
621.043	2.43
621.377	2.2
621.71	2.43
622.043	2.75
622.376	2.74
622.709	2.65
623.043	2.47
623.376	2.9
623.709	2.44
624.041	2.7
624.374	2.67
624.707	2.47
625.04	2.65
625.373	2.91
625.705	2.86
626.038	2.82
626.37	2.92
626.703	2.73
627.035	2.35
627.368	2.97
627.7	2.82
628.032	2.32
628.365	2.61
628.697	2.75
629.029	2.37
629.361	2.43
629.693	2.31
630.025	2.34
630.357	2.6
630.689	2.55
631.021	2.9
631.353	3.16
631.684	2.32
632.016	2.58
632.348	2.72
632.679	2.5
633.011	3.24
633.342	2.56
633.674	2.72
634.005	2.46
634.336	2.51
634.668	2.7
634.999	2.88
635.33	2.39
635.661	2.59
635.992	2.66
636.323	2.28
636.654	2.59
636.985	2.94
637.316	2.69
637.647	2.57
637.977	2.63
638.308	2.99
638.639	2.44
638.969	2.25
639.3	2.77
639.63	3.24
639.961	2.51
640.291	2.11
640.622	2.39
640.952	2.83
641.282	2.29
641.612	2.95
641.943	2.76
642.273	2.71
642.603	2.88
642.933	3.06
643.263	2.3
643.592	3.07
643.922	2.88
644.252	2.84
644.582	2.35
644.911	3.01
645.241	2.07
645.571	2.97
645.9	2.58
646.23	2.53
646.559	3.02
646.888	2.5
647.218	2.59
647.547	2.43
647.876	2.65
648.205	2.5
648.534	3.12
648.863	2.41
649.192	2.87
649.521	3.39
649.85	2.17
650.179	2.93
650.508	2.9
650.837	2.52
651.165	2.57
651.494	2.57
651.822	2.47
652.151	2.79
652.479	2.99
652.808	2.8
653.136	3
653.465	2.85
653.793	2.69
654.121	3.23
654.449	2.51
654.777	3.15
655.105	2.71
655.433	2.83
655.761	2.63
656.089	2.63
656.417	2.96
656.745	2.56
657.073	2.35
657.4	2.72
657.728	1.9
658.056	2.86
658.383	2.19
658.711	2.61
659.038	2.45
659.365	2.82
659.693	2.58
660.02	2.31
660.347	2.94
660.674	3.04
661.001	2.79
661.329	2.68
661.656	2.52
661.982	2.49
662.309	2.81
662.636	2.9
662.963	2.6
663.29	2.5
663.616	2.62
663.943	3.4
664.27	3.02
664.596	2.88
664.923	3.39
665.249	2.5
665.576	2.76
665.902	2.95
666.228	3.35
666.554	2.48
666.881	1.99
667.207	2.9
667.533	3.25
667.859	2.88
668.185	2.57
668.511	3.03
668.837	2.73
669.162	3.31
669.488	2.82
669.814	2.94
670.139	2.37
670.465	2.64
670.791	2.8
671.116	2.76
671.442	2.53
671.767	2.61
672.092	3.2
672.418	2.62
672.743	2.98
673.068	2.23
673.393	2.88
673.718	3.08
674.043	2.83
674.368	2.19
674.693	2.03
675.018	2.67
675.343	2.12
675.667	2.83
675.992	2.73
676.317	2.64
676.641	2.22
676.966	3.22
677.29	2.38
677.615	2.66
677.939	2.56
678.264	2.95
678.588	2.9
678.912	3.25
679.236	2.75
679.56	2.72
679.885	2.99
680.209	3.31
680.532	3.26
680.856	2.07
681.18	2.59
681.504	2.63
681.828	3
682.152	2.76
682.475	3.18
682.799	2.82
683.122	3.24
683.446	2.82
683.769	3.48
684.093	2.45
684.416	2.99
684.739	3.24
685.062	2.59
685.386	3.44
685.709	3.24
686.032	2.31
686.355	2.52
686.678	3.3
687.001	3.15
687.324	3.03
687.646	2.99
687.969	2.27
688.292	2.95
688.614	2.84
688.937	2.49
689.26	2.85
689.582	2.25
689.904	1.72
690.227	2.25
690.549	3.18
690.871	2.81
691.194	2.73
691.516	3.2
691.838	2.54
692.16	2.62
692.482	2.1
692.804	2.83
693.126	2.92
693.448	2.85
693.769	2.7
694.091	3.7
694.413	3.21
694.735	2.41
695.056	2.02
695.378	2.52
695.699	3.48
696.021	2.05
696.342	2.24
696.663	2.94
696.984	1.83
697.306	2.22
697.627	2.22
697.948	3.09
698.269	2.63
698.59	3.27
698.911	3.25
699.232	2.62
699.553	2.73
699.873	3.87
700.194	2.94
700.515	3.44
700.835	2.83
701.156	2.86
701.477	3.63
701.797	2.77
702.117	2.78
702.438	2.82
702.758	1.71
703.078	3.09
703.398	2.71
703.719	2.49
704.039	2.85
704.359	2.22
704.679	4.21
704.999	3.23
705.319	2.61
705.638	3.77
705.958	2.33
706.278	4.89
706.597	3.05
706.917	4.13
707.237	2.71
707.556	3.59
707.876	2.67
708.195	3.35
708.514	3.52
708.834	2.6
709.153	2.79
709.472	3.08
709.791	3.46
710.11	3
710.429	2.5
710.748	1.6
711.067	3.46
711.386	2.13
711.705	3.35
712.023	3.33
712.342	3.22
712.661	2.78
712.979	4.23
713.298	2.84
713.616	3.65
713.935	3.2
714.253	3.16
714.572	2.92
714.89	2.99
715.208	2.42
715.526	2.04
715.844	2.97
716.162	2.68
716.48	2.41
716.798	2.85
717.116	3.33
717.434	2.79
717.752	2.24
718.069	2.52
718.387	2.75
718.705	2.83
719.022	3.57
719.34	2.95
719.657	4.48
719.975	3.16
720.292	3.5
720.609	2.46
720.927	2.6
721.244	2.37
721.561	3.84
721.878	3.47
722.195	2.42
722.512	3.18
722.829	3.52
723.146	2.26
723.463	3.06
723.779	3.35
724.096	2.63
724.413	3.42
724.729	3
725.046	3.73
725.362	1.92
725.679	1.34
725.995	2.48
726.311	3.93
726.628	3.25
726.944	2.62
727.26	2.53
727.576	2.2
727.892	2.06
728.208	1.78
728.524	2.18
728.84	3.48
729.156	3.01
729.472	3.3
729.787	2.01
730.103	4.87
730.419	1.5
730.734	1.29
731.05	4.3
731.365	3.29
731.681	4.1
731.996	3.01
732.311	3.58
732.626	2.93
732.942	1.59
733.257	3.01
733.572	3.37
733.887	4.19
734.202	3.68
734.517	2.59
734.832	3.72
735.146	3.9
735.461	4.79
735.776	2.79
736.091	2.83
736.405	3.91
736.72	2.12
737.034	3.22
737.349	2.13
737.663	3.39
737.977	2.34
738.292	4.11
738.606	2.6
738.92	2.42
739.234	3.86
739.548	4.12
739.862	3
740.176	1.85
740.49	3.72
740.804	2.57
741.117	3.46
741.431	4.59
741.745	5.17
742.058	2.3
742.372	3.6
742.685	3.87
742.999	3.7
743.312	3.67
743.626	2.17
743.939	4.69
744.252	4.26
744.565	3.73
744.878	3.92
745.191	4.05
745.505	3.03
745.817	6.98
746.13	4.4
746.443	3.09
746.756	3.02
747.069	4.1
747.381	0.45
747.694	3.44
748.007	3.05
748.319	3.47
748.632	3.34
748.944	0.59
749.256	3.37
749.569	3.33
749.881	3.16
750.193	1.2
750.505	2.75
750.817	2.39
751.129	1.61
751.441	4.58
751.753	5.74
752.065	2.25
752.377	3.67
752.689	3.56
753	2.72
753.312	3.35
753.624	4.2
753.935	3.03
754.247	4.32
754.558	3.93
754.869	2.93
755.181	4.91
755.492	4.29
755.803	3.25
756.114	1.87
756.425	4.26
756.736	4.24
757.047	2.47
757.358	2.09
757.669	3.86
757.98	2.6
758.291	2.29
758.601	4.16
758.912	3.12
759.223	3.1
759.533	5
759.844	3.15
760.154	4.86
760.464	1.39
760.775	5.33
761.085	2.52
761.395	3.79
761.705	4.89
762.016	3.77
762.326	3.13
762.636	1.75
762.945	4.44
763.255	4.82
763.565	2.14
763.875	1.76
764.185	4.08
764.494	2.98
764.804	1.58
765.113	4.24
765.423	4.59
765.732	2.64
766.042	3.39
766.351	4.73
766.66	2.31
766.97	3.98
767.279	1.25
767.588	3.82
767.897	4.26
768.206	4.12
768.515	5.56
768.824	3.83
769.133	3.87
769.441	3.25
769.75	1.35
770.059	3.57
770.367	1.71
770.676	2.89
770.984	3.33
771.293	1.14
771.601	0.52
771.91	2.4
772.218	5.43
772.526	-0.27
772.834	3.35
773.142	3.39
773.45	2
773.758	1.89
774.066	4.64
774.374	0.96
774.682	2.85
774.99	-0.26
775.298	4.39
775.605	2
775.913	4.4
776.22	4.23
776.528	0.45
776.835	2.1
777.143	5.47
777.45	-0.13
777.757	0.39
778.065	2.65
778.372	5.2
778.679	0.59
778.986	3.82
779.293	3.29
779.6	2.03
779.907	0.85
780.214	5.45
780.52	6.03
780.827	2.97
781.134	3.6
781.44	9.02
781.747	-2.66
782.053	5.65
782.36	2.32
782.666	2.31
782.973	-0.26
783.279	0.47
783.585	0.33
783.891	8.52
784.197	8.87
784.503	2.79
784.809	4.3
785.115	5.39
785.421	4.44
785.727	0.12
786.033	0.34
786.339	4.34
786.644	0.63
786.95	8.16
787.255	6.43
787.561	1.64
787.866	4.94
788.172	3.71
788.477	1.49
788.782	0.57
789.088	4.6
789.393	1.31
789.698	4.86
790.003	0.28
790.308	5.9
790.613	3.45
790.918	0.83
791.223	7.3
791.527	6.93
791.832	4.36
792.137	1.33
792.441	4.55
792.746	1.86
793.05	7.43
793.355	3.76
793.659	3.56
793.963	5.1
794.268	1.5
794.572	5.61
794.876	4.32
795.18	2.17
795.484	3.13
795.788	6.85
796.092	-1.32
796.396	4.08
796.7	1.44
797.004	8.1
797.307	0.26
797.611	-0.36
797.915	2.58
798.218	2.86
798.522	-1.11
798.825	3.92
799.128	1.26
799.432	2.92
799.735	1.67
800.038	5.28
800.341	6.83
800.644	1.26
800.947	4.93
801.25	2.95
801.553	1.24
801.856	-0.47
802.159	7.84
802.462	6.41
802.764	0.79
803.067	3.09
803.37	-3.67
803.672	0.69
803.975	-3.45
804.277	4.99
804.579	-2.67
804.882	0.76
805.184	2.13
805.486	2.03
805.788	2
806.09	-0.98
806.392	6.2
806.694	5.59
806.996	-0.84
807.298	2.84
807.6	7.14
807.902	0.39
808.203	4.12
808.505	5.23
808.807	4.51
809.108	0.57
809.409	0.58
809.711	-1.85
810.012	2.78
810.313	1.88
810.615	7.66
810.916	3.75
811.217	3.22
811.518	4.39
811.819	0.75
812.12	3.31
812.421	3.34
812.722	3.68
813.023	4.9
813.323	6.31
813.624	5.12
813.925	7.45
814.225	-2.81
814.526	9.13
814.826	10.63
815.126	1.15
815.427	5.59
815.727	-2.51
816.027	11.21
816.327	2.98
816.627	8.11
816.927	8.28
817.227	5.09
817.527	5.28
817.827	6.02
818.127	6.05
818.427	-0.41
818.727	-1.8
819.026	6.45
819.326	2.12
819.625	3.41
819.925	7.61
820.224	3.36
820.524	-0.94
820.823	8.56
821.122	3.07
821.421	3.49
821.72	6.68
822.019	-3.41
822.318	-0.37
822.617	2.24
822.916	-3.16
823.215	4.01
823.514	5.48
823.813	4.96
824.111	5.43
824.41	4.16
824.709	2.92
825.007	4.5
825.306	3.94
825.604	4.52
825.902	4.28
826.201	5.73
826.499	4.09
826.797	5.39
827.095	6.55
827.393	5.35
827.691	5.15
827.989	2.54
828.287	4.54
828.585	3.89
828.882	4.8
829.18	5.97
829.478	5.38
829.775	4.44
830.073	1.32
830.37	5.05
830.668	4.98
830.965	6.16
831.263	5.18
831.56	4.96
831.857	-1.84
832.154	4.57
832.451	0.55
832.748	4.18
833.045	1.97
833.342	3.67
833.639	4.12
833.936	7.1
834.232	6.14
834.529	6.84
834.826	5.42
835.122	6.7
835.419	3.92
835.715	7.75
836.012	1.87
836.308	3.56
836.604	7.66
836.901	5.76
837.197	5.02
837.493	4.65
837.789	4.87
838.085	5.86
838.381	4.38
838.677	3.01
838.972	5.47
839.268	-5.5
839.564	6.36
839.86	3.48
840.155	9.17
840.451	-1.92
840.746	9.07
841.042	-9.33
841.337	-1.59
841.632	-3.27
841.928	8.9
842.223	4.31
842.518	14.09
842.813	10.73
843.108	0.77
843.403	-2.87
843.698	4.57
843.993	0.98
844.287	-1.95
844.582	0.12
844.877	5.46
845.171	-8.49
845.466	2.59
845.761	0.26
846.055	-1.05
846.349	8.5
846.644	9.73
846.938	12.62
847.232	12.15
847.526	6.43
847.82	1.03
848.114	17.1
848.408	19.49
848.702	-3.36
848.996	18.12
849.29	5.71
849.584	11.39
849.877	-11.94
850.171	4.97
850.465	-1.89
850.758	-9.22
851.052	1.41
851.345	-6.1
851.638	20.29
851.932	-7.34
852.225	-30.02
852.518	-3.27
852.811	1.99
853.104	0.56
853.397	6.44
853.69	-13.87
853.983	-2.56
854.276	16.54
854.569	15.02
854.861	9.59
855.154	15.88
855.447	0.67
855.739	19.13
856.032	-5.86
856.324	26.39
856.616	14.06
856.909	5.44
857.201	5.17
857.493	-14.32
857.785	20.94
858.077	-9.74
858.369	0.42
858.661	22.68
858.953	10.04
859.245	-20.48
859.537	-2.77
859.829	-16.62
860.12	2.27
860.412	-28.95
860.703	13.73
860.995	6.31
861.286	19.26
861.578	-1.03
861.869	-0.16
862.16	-11.32
862.452	-17.83
862.743	0.01
863.034	38.73
863.325	5.74
863.616	-21.37
863.907	15.7
864.198	1.23
864.488	8.08
864.779	-11.27
865.07	-45.18
865.36	15.64
865.651	-28.91
865.941	-28.16
866.232	-11.18
866.522	-27.92
866.813	-22.09
867.103	13.07
867.393	7.44
867.683	-4.01
867.973	22.76
868.263	-13.03
868.553	8.32
868.843	-24.76
869.133	-19.55
869.423	-4.23
869.713	-18.36
870.002	-54.66
870.292	7.92
870.582	-13.08
870.871	-9.81
871.161	2.7
871.45	14.31
871.739	20.16
872.029	-41.7
872.318	6.11
872.607	3.72
872.896	-2.99
873.185	-21.45
873.474	-8.29
873.763	3.46
874.052	3.24
874.341	9.3
874.63	25.46
874.918	-10.41
875.207	4.73
875.496	7.45
875.784	15.26
876.073	-0.84
876.361	32.69
876.649	7.37
876.938	13.75
877.226	5.44
877.514	-90.01
877.802	16.75
878.09	5.44
878.378	23.22
878.666	27.69
878.954	5.15
879.242	9.43
879.53	-1.32
879.817	6.56
880.105	20.9
880.392	-2.3
880.68	9.25
880.967	18.07
881.255	-2.27
881.542	-39.19
881.83	11.86
882.117	17.51
882.404	-8.84
882.691	-43.6
882.978	-40.97
883.265	-18.22
883.552	10.07
883.839	1.68
884.126	7.48
884.413	9.19
884.699	10.25
884.986	0.91
885.273	3.63
885.559	3.63
885.846	3.63
