Data from 0430_forehead_Reflection__4__106.txt Node

Date: Tue Dec 12 19:01:09 CST 2023
User: ToomeyLab
Spectrometer: FLMS14357
Trigger mode: 0
Integration Time (sec): 1.000000E-2
Scans to average: 100
Electric dark correction enabled: true
Nonlinearity correction enabled: false
Boxcar width: 0
XAxis mode: Wavelengths
Number of Pixels in Spectrum: 2048
>>>>>Begin Spectral Data<<<<<
189.047	623.89
189.435	623.89
189.823	623.89
190.211	52.86
190.599	27.82
190.987	66.71
191.375	153.75
191.763	360.12
192.151	141.14
192.538	20.73
192.926	242.15
193.314	38.27
193.702	131.82
194.089	-225.45
194.477	-81.85
194.864	96.37
195.252	147.17
195.639	-4212.38
196.027	-33.78
196.414	-3788.74
196.801	124.56
197.189	-508.66
197.576	70.02
197.963	-7.4
198.351	62.19
198.738	61.57
199.125	119.46
199.512	16.89
199.899	81.19
200.286	49.46
200.673	-9.64
201.06	69.84
201.447	-73.71
201.833	82.63
202.22	48.7
202.607	-235.63
202.994	58.82
203.38	81.49
203.767	47.63
204.154	48.76
204.54	40.05
204.927	12.62
205.313	48.9
205.699	32.75
206.086	-28.21
206.472	34.67
206.858	26.71
207.245	25.34
207.631	62.14
208.017	21.75
208.403	-5.69
208.789	1.68
209.175	5.46
209.561	17.46
209.947	47.3
210.333	50.99
210.719	24.99
211.105	9.78
211.491	28.22
211.876	15.31
212.262	31.89
212.648	29.05
213.034	26.26
213.419	7.88
213.805	10.25
214.19	37.56
214.576	13.75
214.961	15.39
215.346	1.93
215.732	32.74
216.117	5.68
216.502	44.9
216.888	-3.94
217.273	-8.99
217.658	-38.39
218.043	11.78
218.428	19.62
218.813	7.68
219.198	-51.15
219.583	30.8
219.968	26.23
220.353	12.77
220.738	27.61
221.122	5.47
221.507	13.83
221.892	8.82
222.276	4.67
222.661	0.73
223.046	8.07
223.43	10.47
223.815	12.77
224.199	18.24
224.583	8.63
224.968	10.92
225.352	3.9
225.736	10.1
226.121	-6.47
226.505	13.33
226.889	10.51
227.273	1.28
227.657	14.06
228.041	5.88
228.425	7.34
228.809	7.68
229.193	4.14
229.577	6.97
229.961	4.47
230.344	6.47
230.728	7.39
231.112	6.77
231.495	6.85
231.879	7.86
232.263	6.36
232.646	6.9
233.03	8.83
233.413	7.04
233.797	5.89
234.18	3.48
234.563	5.91
234.946	7.03
235.33	8.62
235.713	7.45
236.096	6.92
236.479	7.33
236.862	8.21
237.245	10.1
237.628	6.03
238.011	8.77
238.394	5.18
238.777	8.74
239.16	7.17
239.543	8.31
239.925	8.73
240.308	8.8
240.691	8.95
241.073	8.33
241.456	8.96
241.838	6.38
242.221	7.4
242.603	7.72
242.986	6.82
243.368	7.56
243.75	6.46
244.133	7.24
244.515	7.35
244.897	7.06
245.279	8.58
245.661	7.48
246.043	7
246.425	7.98
246.807	7.21
247.189	7.94
247.571	7.12
247.953	7.53
248.335	7.18
248.717	6.9
249.098	7.03
249.48	6.96
249.862	7
250.243	7.21
250.625	7.45
251.006	7.68
251.388	7.93
251.769	7.18
252.151	7.55
252.532	8.03
252.913	7.22
253.295	7.44
253.676	6.75
254.057	6.9
254.438	7.65
254.819	7.58
255.2	7.3
255.581	7.13
255.962	7.85
256.343	7.4
256.724	7.26
257.105	7.99
257.486	6.36
257.867	7.33
258.247	6.98
258.628	7.9
259.009	6.09
259.389	6.91
259.77	6.75
260.15	7.26
260.531	7.34
260.911	7.12
261.292	6.42
261.672	6.71
262.052	7
262.432	6.88
262.813	7.3
263.193	7.72
263.573	8.19
263.953	8.13
264.333	8.22
264.713	7.3
265.093	7.5
265.473	7.69
265.853	6.37
266.233	6.97
266.612	6.97
266.992	6.44
267.372	8.42
267.752	7.74
268.131	6.14
268.511	7.34
268.89	6.5
269.27	6.63
269.649	6.94
270.029	6.58
270.408	7.23
270.787	7.05
271.167	7.32
271.546	7.25
271.925	7.67
272.304	7.24
272.683	6.03
273.062	6.62
273.441	7.28
273.82	6.01
274.199	7.5
274.578	7.05
274.957	6.85
275.336	6.95
275.715	7.21
276.093	6.12
276.472	7
276.851	7.19
277.229	6.51
277.608	6.86
277.986	6.57
278.365	6.95
278.743	7.82
279.122	7.12
279.5	6.58
279.878	6.04
280.257	7.15
280.635	6.57
281.013	7
281.391	7.24
281.769	7.19
282.147	7
282.525	6.56
282.903	6.64
283.281	7.2
283.659	6.81
284.037	7.2
284.415	6.86
284.792	6.81
285.17	6.51
285.548	7.17
285.925	7.08
286.303	7.14
286.68	6.81
287.058	7.33
287.435	6.88
287.813	6.8
288.19	7.12
288.567	7.02
288.945	7.24
289.322	6.88
289.699	7.15
290.076	7.23
290.453	7.3
290.83	7.2
291.207	7.75
291.584	7.58
291.961	7.55
292.338	7.65
292.715	7.47
293.092	7.4
293.469	8
293.845	8.24
294.222	8.37
294.599	8.23
294.975	8.16
295.352	8.17
295.728	8.26
296.105	8.54
296.481	8.71
296.858	8.19
297.234	8.48
297.61	8.23
297.986	8.54
298.363	9.17
298.739	8.26
299.115	8.12
299.491	8.4
299.867	8.83
300.243	8.8
300.619	8.77
300.995	9.24
301.371	9.29
301.746	9.03
302.122	9.85
302.498	9.2
302.874	9.47
303.249	9.97
303.625	8.88
304	9.82
304.376	9.99
304.751	9.93
305.127	10.09
305.502	9.88
305.878	9.62
306.253	9.68
306.628	9.9
307.003	10.3
307.378	10.47
307.754	10.86
308.129	10.16
308.504	11.12
308.879	10.25
309.254	10.69
309.629	10.67
310.003	10.43
310.378	11.08
310.753	10.98
311.128	10.83
311.502	10.37
311.877	10.52
312.252	10.69
312.626	11.04
313.001	11.01
313.375	10.81
313.75	11.45
314.124	11.79
314.498	11.82
314.873	11.27
315.247	11.36
315.621	12.23
315.995	12.51
316.369	12.55
316.743	11.79
317.117	11.98
317.491	12.65
317.865	12.63
318.239	11.94
318.613	12.9
318.987	13.24
319.361	12.78
319.734	12.75
320.108	13.38
320.482	12.61
320.855	12.3
321.229	12.94
321.602	13.54
321.976	13.38
322.349	13.32
322.723	13.15
323.096	13.17
323.469	13.57
323.843	14.39
324.216	13.67
324.589	14.18
324.962	13.86
325.335	14
325.708	13.83
326.081	13.8
326.454	14.07
326.827	14.43
327.2	14.16
327.573	13.95
327.945	14.22
328.318	14.43
328.691	14.06
329.063	15.01
329.436	14.39
329.809	14.67
330.181	14.32
330.553	14.59
330.926	15.18
331.298	14.47
331.671	14.55
332.043	15.01
332.415	14.78
332.787	14.73
333.159	15.37
333.532	15.16
333.904	14.85
334.276	15.69
334.648	15.39
335.02	14.78
335.391	15.61
335.763	16.06
336.135	16.22
336.507	15.49
336.879	15.18
337.25	16.07
337.622	15.42
337.993	15.62
338.365	15.48
338.736	15.9
339.108	15.9
339.479	16.11
339.851	15.89
340.222	15.69
340.593	16.19
340.964	16.39
341.336	16.46
341.707	15.74
342.078	16.31
342.449	16.17
342.82	16.63
343.191	16.54
343.562	16.44
343.933	16.68
344.303	16.53
344.674	16.67
345.045	17.18
345.416	17.21
345.786	16.72
346.157	16.8
346.527	17.13
346.898	16.54
347.268	16.84
347.639	17.12
348.009	16.89
348.38	16.53
348.75	17.31
349.12	17.59
349.49	17.31
349.861	18.07
350.231	17.47
350.601	17.97
350.971	17.93
351.341	17.38
351.711	17.65
352.081	17.55
352.45	17.51
352.82	18.14
353.19	18.19
353.56	18.4
353.929	17.98
354.299	17.92
354.669	18.07
355.038	17.47
355.408	17.82
355.777	18.54
356.147	17.91
356.516	18.26
356.885	18.3
357.254	18.53
357.624	17.99
357.993	18.16
358.362	18.84
358.731	18.77
359.1	18.22
359.469	18.63
359.838	18.48
360.207	18.85
360.576	18.8
360.945	19.01
361.314	19.1
361.682	19
362.051	19.05
362.42	18.93
362.788	18.96
363.157	19.34
363.525	19.22
363.894	19.01
364.262	19.05
364.631	19.24
364.999	19.79
365.367	19.82
365.735	19.35
366.104	19.64
366.472	19.52
366.84	19.54
367.208	19.8
367.576	19.57
367.944	19.83
368.312	19.68
368.68	19.92
369.048	20.18
369.416	20.33
369.783	20.02
370.151	20.13
370.519	19.87
370.886	19.95
371.254	20.35
371.621	20.65
371.989	20.44
372.356	20.39
372.724	20.39
373.091	20.37
373.458	20.43
373.826	20.8
374.193	20.19
374.56	21.01
374.927	20.88
375.294	20.42
375.661	21.13
376.028	21.29
376.395	21.17
376.762	21.16
377.129	21.09
377.496	21.14
377.863	21
378.229	21.13
378.596	20.81
378.963	21.56
379.329	21.21
379.696	21.16
380.062	21.51
380.429	21.46
380.795	21.61
381.161	21.69
381.528	21.73
381.894	21.82
382.26	21.58
382.626	21.54
382.993	22.15
383.359	21.49
383.725	21.78
384.091	22.36
384.457	21.93
384.823	22.22
385.188	22.33
385.554	22.32
385.92	22.14
386.286	22.32
386.651	22.4
387.017	22.48
387.383	22.24
387.748	21.94
388.114	22.15
388.479	23.04
388.845	22.32
389.21	22.36
389.575	22.71
389.94	22.79
390.306	22.5
390.671	22.75
391.036	22.59
391.401	22.85
391.766	22.64
392.131	22.68
392.496	22.92
392.861	23.1
393.226	22.99
393.591	22.74
393.956	22.91
394.32	23.04
394.685	23.38
395.05	23.06
395.414	22.95
395.779	23.21
396.143	23.05
396.508	23.08
396.872	22.98
397.236	23.13
397.601	23.21
397.965	23.4
398.329	23.5
398.694	23.56
399.058	23.49
399.422	23.58
399.786	23.55
400.15	23.68
400.514	23.76
400.878	23.69
401.242	23.59
401.605	23.68
401.969	23.72
402.333	23.51
402.697	23.89
403.06	23.88
403.424	24.01
403.787	23.86
404.151	23.99
404.514	23.97
404.878	24.04
405.241	24.05
405.604	23.92
405.968	23.73
406.331	24.21
406.694	24.12
407.057	23.56
407.42	24.12
407.783	24.07
408.146	24.1
408.509	24.16
408.872	24.4
409.235	24.06
409.598	24.33
409.961	24.45
410.323	24.23
410.686	24.5
411.049	24.62
411.411	24.47
411.774	24.75
412.136	24.43
412.499	24.57
412.861	24.44
413.223	24.89
413.586	24.64
413.948	24.85
414.31	24.68
414.672	25.01
415.035	24.67
415.397	24.59
415.759	24.77
416.121	24.99
416.483	24.9
416.845	24.91
417.206	24.95
417.568	24.86
417.93	24.92
418.292	24.9
418.653	24.87
419.015	25.12
419.377	25.02
419.738	25.21
420.1	25.03
420.461	25.05
420.822	25.16
421.184	25.02
421.545	25.32
421.906	25.22
422.267	25.14
422.629	25.23
422.99	25.14
423.351	25.29
423.712	25.54
424.073	25.48
424.434	25.67
424.795	25.8
425.155	25.6
425.516	25.7
425.877	25.67
426.238	25.75
426.598	25.88
426.959	25.9
427.32	26.08
427.68	26.27
428.041	26.46
428.401	26.57
428.761	26.73
429.122	26.98
429.482	26.93
429.842	27.1
430.202	27.31
430.563	27.37
430.923	27.52
431.283	27.41
431.643	27.74
432.003	27.42
432.363	27.49
432.722	27.65
433.082	27.67
433.442	27.97
433.802	27.94
434.161	27.67
434.521	27.82
434.881	27.69
435.24	27.83
435.6	27.86
435.959	28.26
436.319	28.16
436.678	28.49
437.037	28.27
437.396	28.57
437.756	28.51
438.115	28.57
438.474	28.65
438.833	28.84
439.192	28.98
439.551	29
439.91	28.71
440.269	28.86
440.628	28.65
440.987	28.79
441.345	29
441.704	28.95
442.063	28.89
442.421	28.94
442.78	28.97
443.138	29.16
443.497	29.24
443.855	29.42
444.214	29.52
444.572	29.86
444.93	29.84
445.288	29.71
445.647	29.93
446.005	29.8
446.363	29.8
446.721	29.81
447.079	29.77
447.437	29.64
447.795	29.62
448.153	29.73
448.51	29.7
448.868	29.75
449.226	30.05
449.584	30.04
449.941	30.24
450.299	30.25
450.656	30.43
451.014	30.7
451.371	30.78
451.729	30.91
452.086	30.84
452.443	31.09
452.801	31.18
453.158	31.02
453.515	31.47
453.872	31.2
454.229	31.27
454.586	31.25
454.943	31.31
455.3	31.37
455.657	31.42
456.014	31.57
456.371	31.85
456.727	31.5
457.084	31.68
457.441	31.79
457.797	31.87
458.154	31.97
458.51	32.14
458.867	32.54
459.223	32.41
459.58	32.11
459.936	32.05
460.292	32.41
460.648	32.06
461.005	31.98
461.361	31.92
461.717	31.74
462.073	31.84
462.429	32.17
462.785	32.36
463.141	32.59
463.496	32.63
463.852	32.92
464.208	32.66
464.564	33.07
464.919	33.19
465.275	33.21
465.631	33.38
465.986	33.34
466.342	33.26
466.697	33.65
467.052	33.58
467.408	33.65
467.763	33.62
468.118	33.5
468.473	33.62
468.829	33.68
469.184	33.74
469.539	33.8
469.894	34.03
470.249	33.93
470.603	34.1
470.958	34.05
471.313	34.11
471.668	34.25
472.023	34.34
472.377	34.33
472.732	34.42
473.086	34.3
473.441	34.64
473.795	34.87
474.15	34.56
474.504	34.46
474.859	34.55
475.213	34.71
475.567	34.85
475.921	34.89
476.275	34.66
476.63	34.99
476.984	35.41
477.338	35.03
477.692	35.17
478.045	35.29
478.399	35.21
478.753	35.08
479.107	35.18
479.461	35.39
479.814	35.19
480.168	35.29
480.521	35.42
480.875	35.41
481.228	35.55
481.582	35.59
481.935	35.66
482.289	35.55
482.642	35.67
482.995	35.72
483.348	35.59
483.701	35.58
484.055	35.58
484.408	35.36
484.761	35.28
485.114	34.99
485.466	34.49
485.819	34.46
486.172	34.76
486.525	34.96
486.878	35.02
487.23	35.3
487.583	35.68
487.936	35.77
488.288	35.74
488.641	35.46
488.993	35.35
489.345	35.25
489.698	35.3
490.05	35.4
490.402	35.7
490.754	35.98
491.107	36.1
491.459	36.32
491.811	36.54
492.163	36.66
492.515	36.68
492.866	36.3
493.218	36.04
493.57	35.95
493.922	36.12
494.274	36.54
494.625	36.8
494.977	36.92
495.328	37.38
495.68	37.48
496.031	37.68
496.383	37.87
496.734	37.65
497.086	37.6
497.437	38.03
497.788	38.03
498.139	37.88
498.49	37.85
498.842	37.63
499.193	37.87
499.544	37.69
499.894	37.84
500.245	38.03
500.596	38.24
500.947	38.12
501.298	38.51
501.648	38.59
501.999	38.58
502.35	38.52
502.7	38.51
503.051	38.76
503.401	38.75
503.752	39.02
504.102	38.83
504.452	39.1
504.803	39.2
505.153	39.07
505.503	39.1
505.853	38.91
506.203	39.06
506.553	39.06
506.903	39.15
507.253	38.96
507.603	39.3
507.953	39.29
508.303	39.57
508.652	39.51
509.002	39.38
509.352	39.56
509.701	39.33
510.051	39.33
510.4	39.2
510.75	39.42
511.099	39.47
511.449	39.54
511.798	39.49
512.147	39.71
512.496	39.95
512.846	39.87
513.195	39.95
513.544	40.01
513.893	39.91
514.242	40.01
514.591	39.94
514.939	40.1
515.288	40.39
515.637	40.19
515.986	40.38
516.334	40.42
516.683	40.36
517.032	40.45
517.38	40.45
517.729	40.77
518.077	40.66
518.426	40.71
518.774	40.68
519.122	40.41
519.47	40.54
519.819	40.19
520.167	40.15
520.515	40.05
520.863	40
521.211	40.47
521.559	40.61
521.907	40.53
522.255	40.85
522.602	40.91
522.95	40.96
523.298	41.18
523.645	41.35
523.993	41.46
524.341	41.34
524.688	41.25
525.036	41.41
525.383	41.42
525.73	41.55
526.078	41.56
526.425	41.6
526.772	41.35
527.119	41.07
527.466	40.87
527.814	41.06
528.161	41.22
528.508	41.24
528.854	41.26
529.201	41.09
529.548	41.23
529.895	40.96
530.242	40.38
530.588	40.57
530.935	40.7
531.282	40.78
531.628	41.06
531.975	41.2
532.321	41.36
532.667	41.5
533.014	41.6
533.36	41.82
533.706	41.81
534.052	42.02
534.399	41.91
534.745	41.54
535.091	41.34
535.437	41.47
535.783	41.76
536.129	41.88
536.474	42.28
536.82	42.3
537.166	42.53
537.512	42.45
537.857	42.46
538.203	42.4
538.549	42.28
538.894	42.44
539.239	42.56
539.585	42.82
539.93	43.05
540.276	43.01
540.621	43.36
540.966	43.35
541.311	43.32
541.656	43.36
542.001	43.29
542.346	43.07
542.691	42.73
543.036	42.31
543.381	42.27
543.726	42.59
544.071	42.76
544.415	42.99
544.76	43.09
545.105	43.08
545.449	43.24
545.794	43.47
546.138	43.62
546.483	43.69
546.827	43.79
547.171	43.98
547.516	43.96
547.86	44.12
548.204	44.1
548.548	44.05
548.892	43.99
549.236	43.99
549.58	44.13
549.924	44.65
550.268	44.62
550.612	44.77
550.956	44.97
551.3	45.03
551.643	45.13
551.987	45.39
552.33	45.11
552.674	45.41
553.017	45.34
553.361	45.3
553.704	45.38
554.048	45.48
554.391	45.19
554.734	45.17
555.077	45.35
555.42	45.15
555.764	45.5
556.107	45.58
556.45	45.55
556.793	45.66
557.135	45.73
557.478	45.99
557.821	45.92
558.164	45.8
558.507	46.22
558.849	46.51
559.192	46.04
559.534	46.05
559.877	46.21
560.219	46.18
560.562	46.44
560.904	46.59
561.246	46.73
561.589	46.52
561.931	46.51
562.273	46.7
562.615	46.53
562.957	46.68
563.299	46.37
563.641	46.74
563.983	46.79
564.325	46.74
564.667	46.47
565.008	46.63
565.35	46.8
565.692	46.96
566.033	46.97
566.375	47.09
566.716	47.05
567.058	46.88
567.399	47.02
567.741	46.66
568.082	46.81
568.423	46.76
568.764	46.89
569.105	47.07
569.447	47.5
569.788	47.08
570.129	47.2
570.47	47.47
570.811	47.56
571.151	47.67
571.492	47.86
571.833	47.57
572.174	47.65
572.514	47.81
572.855	47.75
573.195	47.5
573.536	47.39
573.876	47.57
574.217	47.71
574.557	47.66
574.898	47.92
575.238	48.02
575.578	48.02
575.918	48.09
576.258	48.11
576.598	47.89
576.938	47.93
577.278	48.07
577.618	48.28
577.958	48.35
578.298	48.8
578.638	48.44
578.977	48.57
579.317	48.71
579.657	48.74
579.996	48.97
580.336	49.16
580.675	49.24
581.014	49.29
581.354	49.11
581.693	49.06
582.032	49.14
582.372	49.53
582.711	49.53
583.05	49.54
583.389	49.29
583.728	49.49
584.067	49.57
584.406	49.43
584.745	49.8
585.083	49.96
585.422	49.79
585.761	49.84
586.1	49.94
586.438	50.28
586.777	50.18
587.115	49.92
587.454	49.94
587.792	50.14
588.13	50.33
588.469	50.19
588.807	50.45
589.145	50.03
589.483	50.66
589.821	50.59
590.159	50.23
590.497	50.3
590.835	50.53
591.173	50.59
591.511	50.72
591.849	50.48
592.187	50.54
592.524	50.46
592.862	50.53
593.2	50.52
593.537	50.81
593.875	50.82
594.212	50.97
594.55	51.17
594.887	51.4
595.224	51.2
595.561	51.12
595.899	50.73
596.236	51.03
596.573	51.2
596.91	51.06
597.247	51.24
597.584	51.54
597.921	51.09
598.258	51.14
598.594	51.05
598.931	51.1
599.268	50.92
599.604	51.13
599.941	51.14
600.277	51.43
600.614	51.42
600.95	52.29
601.287	51.86
601.623	52.11
601.959	52.03
602.296	51.9
602.632	51.84
602.968	51.79
603.304	51.71
603.64	52.35
603.976	52.16
604.312	52.05
604.648	52.27
604.984	52.09
605.319	52
605.655	52.02
605.991	51.95
606.326	51.84
606.662	52.33
606.998	52.06
607.333	52.19
607.668	52.2
608.004	52.73
608.339	52.45
608.674	52.8
609.01	52.89
609.345	52.83
609.68	53.1
610.015	52.79
610.35	53.2
610.685	53.16
611.02	52.88
611.355	52.34
611.689	52.62
612.024	52.64
612.359	53.22
612.694	53.08
613.028	53.06
613.363	52.96
613.697	53.42
614.032	53.82
614.366	53.72
614.7	53.65
615.035	53.79
615.369	53.73
615.703	54.62
616.037	53.6
616.371	54.19
616.705	54.17
617.039	54
617.373	54.07
617.707	53.95
618.041	54.33
618.375	54.15
618.709	54.23
619.042	54.13
619.376	54.35
619.71	54.5
620.043	54.44
620.377	54.3
620.71	54.44
621.043	54.51
621.377	54.42
621.71	55.01
622.043	54.47
622.376	54.7
622.709	54.92
623.043	54.57
623.376	55.36
623.709	55.13
624.041	55.2
624.374	54.91
624.707	55.17
625.04	55.1
625.373	55.23
625.705	55.82
626.038	55.36
626.37	54.92
626.703	55.48
627.035	55.71
627.368	56.01
627.7	55.54
628.032	55.47
628.365	55.18
628.697	55.42
629.029	55.37
629.361	55.04
629.693	55.15
630.025	55.36
630.357	56.08
630.689	55.42
631.021	55.83
631.353	56.49
631.684	55.83
632.016	56.15
632.348	55.94
632.679	55.51
633.011	55.91
633.342	56.14
633.674	55.96
634.005	56.6
634.336	56.51
634.668	56.35
634.999	56.18
635.33	56.03
635.661	56.36
635.992	56.88
636.323	56.61
636.654	56.65
636.985	57.05
637.316	56.6
637.647	56.83
637.977	56.25
638.308	56.92
638.639	56.82
638.969	57.2
639.3	56.96
639.63	57.29
639.961	57.29
640.291	57.09
640.622	57.24
640.952	57.49
641.282	57.02
641.612	57.52
641.943	57.68
642.273	57.28
642.603	58.08
642.933	58.11
643.263	57.07
643.592	57.85
643.922	58.04
644.252	57.57
644.582	57.08
644.911	57.18
645.241	57.86
645.571	58.22
645.9	57.65
646.23	57.34
646.559	58.26
646.888	57.44
647.218	58.32
647.547	57.97
647.876	58.21
648.205	58.04
648.534	58.43
648.863	58.24
649.192	58.59
649.521	58.51
649.85	58.21
650.179	58.93
650.508	58.37
650.837	58.31
651.165	58.36
651.494	58.46
651.822	58.64
652.151	58.23
652.479	58.79
652.808	58.34
653.136	59.01
653.465	58.52
653.793	58.67
654.121	58.87
654.449	58.58
654.777	58.82
655.105	59.54
655.433	59.07
655.761	59.42
656.089	59.19
656.417	59.02
656.745	59.66
657.073	59.09
657.4	58.8
657.728	58.71
658.056	59.31
658.383	59.28
658.711	59.41
659.038	59.33
659.365	59.2
659.693	59.47
660.02	59.4
660.347	59.45
660.674	58.85
661.001	59.72
661.329	59.31
661.656	59.44
661.982	60.09
662.309	59.69
662.636	60.04
662.963	60.03
663.29	60.12
663.616	59.58
663.943	60.27
664.27	60.34
664.596	59.98
664.923	60.3
665.249	59.82
665.576	60.03
665.902	60.49
666.228	59.72
666.554	60.69
666.881	60.28
667.207	60.56
667.533	60.16
667.859	60.35
668.185	61.3
668.511	61.08
668.837	60.51
669.162	60.66
669.488	59.97
669.814	60.23
670.139	61
670.465	60.47
670.791	60.48
671.116	59.83
671.442	61.13
671.767	61.24
672.092	61.07
672.418	60.96
672.743	61.07
673.068	60.76
673.393	61.18
673.718	60.48
674.043	61.15
674.368	61.07
674.693	60.74
675.018	60.69
675.343	61.21
675.667	61.63
675.992	61.51
676.317	61.02
676.641	62.15
676.966	61.18
677.29	61.2
677.615	62.67
677.939	61.71
678.264	61.93
678.588	61.73
678.912	61.91
679.236	61.85
679.56	61.88
679.885	61.48
680.209	61.41
680.532	61.91
680.856	61.83
681.18	62.01
681.504	61.68
681.828	61.98
682.152	61.61
682.475	62.3
682.799	62.64
683.122	62.21
683.446	62.3
683.769	63.02
684.093	62.18
684.416	61.5
684.739	62.5
685.062	61.75
685.386	61.85
685.709	63.02
686.032	61.75
686.355	61.87
686.678	63.26
687.001	62.95
687.324	62.7
687.646	62.9
687.969	64.02
688.292	62.47
688.614	62.78
688.937	61.81
689.26	63.06
689.582	62.52
689.904	62.95
690.227	62.83
690.549	63.23
690.871	63.14
691.194	62.42
691.516	63.13
691.838	63.77
692.16	62.69
692.482	63.33
692.804	63.19
693.126	63.06
693.448	64.04
693.769	63.71
694.091	63.62
694.413	64.05
694.735	63.33
695.056	63.41
695.378	63.54
695.699	63.24
696.021	63.5
696.342	64.05
696.663	63.19
696.984	63.27
697.306	63.49
697.627	62.24
697.948	63.12
698.269	64.72
698.59	64.24
698.911	64.88
699.232	63.95
699.553	64.44
699.873	64.4
700.194	63.44
700.515	63.84
700.835	62.78
701.156	64.22
701.477	63.58
701.797	63.79
702.117	64.66
702.438	64.48
702.758	63.65
703.078	64.5
703.398	63.89
703.719	64.11
704.039	64.98
704.359	63.6
704.679	64.91
704.999	64.51
705.319	65.29
705.638	64.39
705.958	64.09
706.278	65.01
706.597	64.71
706.917	65.14
707.237	64.37
707.556	64.82
707.876	65.31
708.195	66.41
708.514	64.05
708.834	64.47
709.153	65.1
709.472	65.03
709.791	65.41
710.11	65.76
710.429	65.34
710.748	64.36
711.067	63.87
711.386	65.51
711.705	65.26
712.023	65.62
712.342	64.67
712.661	64.54
712.979	65.59
713.298	65.49
713.616	66.34
713.935	65.73
714.253	64.72
714.572	64.02
714.89	65.39
715.208	63.66
715.526	65.03
715.844	64.99
716.162	66.11
716.48	64.67
716.798	64.74
717.116	65.25
717.434	66.14
717.752	64.18
718.069	65.06
718.387	65.27
718.705	66.25
719.022	66.11
719.34	65.93
719.657	66.24
719.975	65.36
720.292	66.89
720.609	66.14
720.927	65.42
721.244	67.14
721.561	65.96
721.878	64.7
722.195	64.29
722.512	66.51
722.829	65.45
723.146	66.29
723.463	66.9
723.779	66.3
724.096	67.36
724.413	66.79
724.729	66
725.046	66.92
725.362	66.89
725.679	67.04
725.995	67.57
726.311	66.81
726.628	67.52
726.944	65.35
727.26	65.55
727.576	66.03
727.892	66.7
728.208	67.92
728.524	64.92
728.84	66.15
729.156	67.26
729.472	65.66
729.787	65.46
730.103	66.99
730.419	64.82
730.734	66.29
731.05	67.42
731.365	68.35
731.681	66.83
731.996	65.08
732.311	66.62
732.626	66.68
732.942	66.86
733.257	66.76
733.572	66.12
733.887	66.94
734.202	66.79
734.517	66.5
734.832	66.8
735.146	67.44
735.461	66.96
735.776	67.41
736.091	67.68
736.405	66.79
736.72	66.44
737.034	67.47
737.349	67.69
737.663	65.92
737.977	68.45
738.292	67.76
738.606	64.61
738.92	67.27
739.234	66.98
739.548	68.81
739.862	68.42
740.176	67.27
740.49	70
740.804	66.99
741.117	67.27
741.431	68.62
741.745	69.88
742.058	68.2
742.372	67.49
742.685	69.11
742.999	67.92
743.312	67.7
743.626	68.77
743.939	69.79
744.252	66.24
744.565	67.65
744.878	68.02
745.191	67.22
745.505	67.03
745.817	70.52
746.13	69.24
746.443	69.07
746.756	66.77
747.069	70.2
747.381	68.06
747.694	68.93
748.007	68.72
748.319	68.01
748.632	67.18
748.944	67.74
749.256	66.61
749.569	67.69
749.881	72.32
750.193	69.1
750.505	68.43
750.817	70.14
751.129	65.92
751.441	69.02
751.753	67.11
752.065	68.83
752.377	68.11
752.689	69.97
753	68.85
753.312	69.51
753.624	69.36
753.935	69.57
754.247	68.5
754.558	69.25
754.869	68.83
755.181	68.72
755.492	69.87
755.803	70.73
756.114	69.1
756.425	69.4
756.736	70.09
757.047	68.25
757.358	68.2
757.669	68.95
757.98	69.38
758.291	67.45
758.601	70.12
758.912	68.86
759.223	69.99
759.533	71.54
759.844	67.04
760.154	68.77
760.464	67.11
760.775	68.74
761.085	69.11
761.395	67.34
761.705	70.09
762.016	69.39
762.326	70.42
762.636	69.23
762.945	71.75
763.255	70.09
763.565	69.33
763.875	72.09
764.185	70.06
764.494	72.3
764.804	68.74
765.113	68.85
765.423	72.53
765.732	69.02
766.042	70.4
766.351	71.63
766.66	69.71
766.97	69.59
767.279	68.45
767.588	69.49
767.897	72.34
768.206	70.44
768.515	69.29
768.824	70.24
769.133	70.44
769.441	70.59
769.75	71.3
770.059	69.61
770.367	67.14
770.676	70.2
770.984	69.35
771.293	69.91
771.601	70.95
771.91	68.87
772.218	69.61
772.526	72.95
772.834	70.72
773.142	71.33
773.45	69.45
773.758	71.41
774.066	70.74
774.374	66.85
774.682	74.18
774.99	68.95
775.298	70.2
775.605	70.77
775.913	71.64
776.22	71.58
776.528	67.35
776.835	72.22
777.143	73.44
777.45	75.07
777.757	68.66
778.065	66.94
778.372	70.59
778.679	72.1
778.986	68.06
779.293	70.47
779.6	70.22
779.907	69.04
780.214	73.91
780.52	71.83
780.827	72.84
781.134	70.98
781.44	73.08
781.747	71.23
782.053	71.85
782.36	70.56
782.666	68.99
782.973	73.45
783.279	70.91
783.585	75.56
783.891	72.46
784.197	69.66
784.503	72.99
784.809	71.9
785.115	67.82
785.421	67.87
785.727	73.01
786.033	68.27
786.339	70.89
786.644	74.55
786.95	75.76
787.255	73.68
787.561	72.99
787.866	70.72
788.172	70.43
788.477	70.77
788.782	72.66
789.088	71.75
789.393	72.31
789.698	72.38
790.003	71.74
790.308	74.83
790.613	72.88
790.918	70.56
791.223	72.84
791.527	70.51
791.832	72.13
792.137	66.53
792.441	73.51
792.746	70.44
793.05	70.4
793.355	69.36
793.659	70.59
793.963	71.58
794.268	72.2
794.572	72.06
794.876	72.46
795.18	70.09
795.484	77.36
795.788	74.24
796.092	74.62
796.396	70.74
796.7	71.85
797.004	73
797.307	69.73
797.611	72.02
797.915	74.49
798.218	75.97
798.522	73.37
798.825	72.84
799.128	73.86
799.432	67.66
799.735	74.59
800.038	70.24
800.341	73.44
800.644	69.3
800.947	73.17
801.25	68.04
801.553	67.76
801.856	74.2
802.159	79.11
802.462	76.98
802.764	72.75
803.067	76.14
803.37	69.53
803.672	67.36
803.975	68.99
804.277	72.81
804.579	74.28
804.882	70.22
805.184	75.85
805.486	68.35
805.788	75.49
806.09	75.39
806.392	68.78
806.694	72.06
806.996	71.27
807.298	75.92
807.6	74.45
807.902	70.56
808.203	78.24
808.505	78
808.807	73.52
809.108	74.83
809.409	75.35
809.711	63.48
810.012	71.41
810.313	78.59
810.615	75.62
810.916	78.23
811.217	70.13
811.518	73.29
811.819	75.97
812.12	74.94
812.421	76.58
812.722	69.01
813.023	72.31
813.323	74.45
813.624	78.95
813.925	78.11
814.225	74.17
814.526	75.4
814.826	80.03
815.126	75.49
815.427	73.85
815.727	76.47
816.027	77.02
816.327	77.56
816.627	75.78
816.927	76.11
817.227	75.64
817.527	79.86
817.827	79.42
818.127	72.77
818.427	64.14
818.727	72.4
819.026	67.62
819.326	72.96
819.625	72.04
819.925	76.97
820.224	68.07
820.524	73.33
820.823	72.76
821.122	73.79
821.421	70.08
821.72	71.65
822.019	73.89
822.318	66.52
822.617	75.79
822.916	77.64
823.215	73.44
823.514	76.44
823.813	74.26
824.111	76.88
824.41	76.37
824.709	75.48
825.007	74.09
825.306	74.48
825.604	74.31
825.902	75.87
826.201	76.53
826.499	75.87
826.797	75.29
827.095	76.07
827.393	77.22
827.691	76.14
827.989	75.11
828.287	76.14
828.585	75.06
828.882	75.03
829.18	76.6
829.478	73.34
829.775	76.07
830.073	76.96
830.37	75.93
830.668	77.26
830.965	76.65
831.263	79.37
831.56	79
831.857	73.35
832.154	74.38
832.451	78.76
832.748	83.14
833.045	75.56
833.342	75.37
833.639	72.43
833.936	75.06
834.232	75.51
834.529	69.17
834.826	71.79
835.122	73.71
835.419	76.16
835.715	72.42
836.012	75.08
836.308	76.9
836.604	71.46
836.901	75.48
837.197	77.74
837.493	76.42
837.789	76.83
838.085	75.35
838.381	77.84
838.677	76.71
838.972	80.15
839.268	73.74
839.564	75.23
839.86	73.77
840.155	75.46
840.451	71.47
840.746	71.72
841.042	79.02
841.337	72.59
841.632	65.88
841.928	80.57
842.223	76.95
842.518	74.05
842.813	84.53
843.108	77.69
843.403	70.66
843.698	75.43
843.993	76.89
844.287	66.35
844.582	69.89
844.877	91.74
845.171	86.58
845.466	83.61
845.761	69.81
846.055	67.73
846.349	62.6
846.644	62.12
846.938	82.52
847.232	75.33
847.526	65.51
847.82	88.26
848.114	84.28
848.408	55.63
848.702	95.47
848.996	84.31
849.29	84.49
849.584	67.57
849.877	82.51
850.171	65.1
850.465	70.11
850.758	64.04
851.052	58.48
851.345	71.14
851.638	79.21
851.932	76.3
852.225	64.41
852.518	61.1
852.811	88.48
853.104	63.66
853.397	61.22
853.69	44.1
853.983	69.15
854.276	57.94
854.569	89.07
854.861	70.7
855.154	70.71
855.447	73.11
855.739	60.9
856.032	58.99
856.324	79.99
856.616	100.15
856.909	83.48
857.201	80.77
857.493	28.77
857.785	74.61
858.077	88.06
858.369	51.94
858.661	98.97
858.953	74.72
859.245	84.86
859.537	96.65
859.829	64.58
860.12	67.69
860.412	49.44
860.703	60.69
860.995	84.43
861.286	84.32
861.578	77.84
861.869	101.11
862.16	62.42
862.452	83.05
862.743	66.36
863.034	97.44
863.325	87.53
863.616	63.66
863.907	61.45
864.198	70.1
864.488	51.28
864.779	84.87
865.07	23.19
865.36	53.61
865.651	22.66
865.941	66.5
866.232	62.24
866.522	72.07
866.813	73.04
867.103	67.89
867.393	62.37
867.683	62.9
867.973	68.94
868.263	96.24
868.553	68.12
868.843	77.5
869.133	41.66
869.423	84.67
869.713	64.93
870.002	79.35
870.292	66.97
870.582	55.38
870.871	57.43
871.161	59.59
871.45	70.67
871.739	84.23
872.029	63.79
872.318	52.78
872.607	65.57
872.896	66.74
873.185	46.96
873.474	67.68
873.763	84.76
874.052	71.94
874.341	119.34
874.63	81.93
874.918	49.28
875.207	52.9
875.496	91.65
875.784	46.87
876.073	63.61
876.361	72.04
876.649	76.09
876.938	52.43
877.226	76.24
877.514	142.1
877.802	83.26
878.09	48.15
878.378	45.83
878.666	70.58
878.954	62.75
879.242	79.29
879.53	55.89
879.817	58.14
880.105	54.9
880.392	93.07
880.68	51.13
880.967	65.49
881.255	57.04
881.542	38.51
881.83	84.52
882.117	74.95
882.404	87.8
882.691	72.17
882.978	54.33
883.265	68.33
883.552	71.06
883.839	81.1
884.126	66.04
884.413	69.26
884.699	76.53
884.986	71.14
885.273	82.45
885.559	82.45
885.846	82.45
