Data from 0430_chest_Reflection__4__96.txt Node

Date: Tue Dec 12 18:57:15 CST 2023
User: ToomeyLab
Spectrometer: FLMS14357
Trigger mode: 0
Integration Time (sec): 1.000000E-2
Scans to average: 100
Electric dark correction enabled: true
Nonlinearity correction enabled: false
Boxcar width: 0
XAxis mode: Wavelengths
Number of Pixels in Spectrum: 2048
>>>>>Begin Spectral Data<<<<<
189.047	325.03
189.435	325.03
189.823	325.03
190.211	-2.35
190.599	45.6
190.987	143.06
191.375	-142.89
191.763	-67.95
192.151	94.47
192.538	3.7
192.926	141.42
193.314	-41.73
193.702	57.32
194.089	248.77
194.477	-393.22
194.864	82.49
195.252	78.19
195.639	-482.86
196.027	137.43
196.414	-321.19
196.801	78.71
197.189	294.08
197.576	123.63
197.963	5.21
198.351	-3.99
198.738	17.92
199.125	39.29
199.512	-10.59
199.899	33.52
200.286	-3.72
200.673	-3.67
201.06	-12.97
201.447	-41.55
201.833	10.27
202.22	-17.38
202.607	-210.33
202.994	10.2
203.38	20.75
203.767	-18.75
204.154	10.29
204.54	38.58
204.927	28.79
205.313	28.86
205.699	-19.79
206.086	-67.71
206.472	28.7
206.858	14.33
207.245	1.21
207.631	26.71
208.017	20
208.403	-28.51
208.789	13.11
209.175	-38.04
209.561	13.74
209.947	-16.88
210.333	35.2
210.719	-12.9
211.105	-33.13
211.491	34.05
211.876	24.91
212.262	12.5
212.648	-14.85
213.034	-19.33
213.419	6.37
213.805	1.76
214.19	9.05
214.576	12.9
214.961	31.54
215.346	-20.79
215.732	21.26
216.117	-15.02
216.502	-50.61
216.888	-52.09
217.273	-18.3
217.658	-31.3
218.043	-18.2
218.428	26.42
218.813	-24.93
219.198	-27.73
219.583	8.26
219.968	18.33
220.353	-15.69
220.738	15.79
221.122	7.96
221.507	-24.61
221.892	-10.06
222.276	-1.43
222.661	7.37
223.046	-11.83
223.43	-2.97
223.815	-3.25
224.199	12.24
224.583	6.26
224.968	4.52
225.352	1.19
225.736	6.16
226.121	-0.13
226.505	6.18
226.889	-2.23
227.273	-4
227.657	10.1
228.041	3.93
228.425	0.55
228.809	3.15
229.193	0.14
229.577	3.34
229.961	1.67
230.344	2.57
230.728	4.2
231.112	2.8
231.495	2.14
231.879	4.24
232.263	1.68
232.646	2.13
233.03	3.05
233.413	2.93
233.797	2.53
234.18	1.87
234.563	2.94
234.946	3.38
235.33	6.25
235.713	3.68
236.096	2
236.479	4.87
236.862	5.5
237.245	3.71
237.628	3.23
238.011	2.98
238.394	2.31
238.777	2.39
239.16	3.32
239.543	3.72
239.925	2.79
240.308	4.14
240.691	2.34
241.073	4.01
241.456	3.6
241.838	3.05
242.221	5.16
242.603	3.34
242.986	2.12
243.368	3.03
243.75	2.88
244.133	2.89
244.515	3.18
244.897	3.35
245.279	3.71
245.661	2.72
246.043	3.68
246.425	3.46
246.807	2.46
247.189	2.79
247.571	3.56
247.953	3
248.335	3.29
248.717	3.41
249.098	3.16
249.48	3.16
249.862	3.07
250.243	2.88
250.625	3.53
251.006	3.31
251.388	3.48
251.769	2.52
252.151	1.85
252.532	5.29
252.913	4.24
253.295	4.07
253.676	2.44
254.057	2.43
254.438	3.22
254.819	3.09
255.2	3.18
255.581	3.24
255.962	2.27
256.343	3.33
256.724	3.12
257.105	3.73
257.486	2.27
257.867	3.12
258.247	2.48
258.628	2.96
259.009	1.67
259.389	3.24
259.77	3.08
260.15	3.41
260.531	3.55
260.911	3.28
261.292	2.71
261.672	2.68
262.052	2.81
262.432	2.88
262.813	2.65
263.193	2.92
263.573	2.61
263.953	2.99
264.333	3.4
264.713	3.35
265.093	2.79
265.473	3.8
265.853	2.75
266.233	2
266.612	3.28
266.992	3.23
267.372	3.63
267.752	3.66
268.131	2.25
268.511	2.57
268.89	2.04
269.27	2.19
269.649	2.67
270.029	2.28
270.408	3.3
270.787	2.28
271.167	2.69
271.546	3.28
271.925	3.55
272.304	3.21
272.683	2.19
273.062	3.01
273.441	2.6
273.82	2.11
274.199	3.25
274.578	2.99
274.957	2.46
275.336	2.65
275.715	3.4
276.093	2.43
276.472	2.93
276.851	3.43
277.229	2.18
277.608	2.5
277.986	2.3
278.365	2.83
278.743	2.66
279.122	3.32
279.5	2.53
279.878	2.27
280.257	2.46
280.635	3.09
281.013	2.71
281.391	2.68
281.769	2.79
282.147	2.36
282.525	2.26
282.903	2.82
283.281	2.37
283.659	2.98
284.037	2.98
284.415	2.5
284.792	2.94
285.17	2.61
285.548	2.94
285.925	2.98
286.303	2.45
286.68	2.6
287.058	2.92
287.435	2.84
287.813	2.55
288.19	2.9
288.567	2.71
288.945	2.8
289.322	1.94
289.699	2.68
290.076	2.37
290.453	2.87
290.83	2.51
291.207	2.95
291.584	3.08
291.961	2.7
292.338	3.12
292.715	2.47
293.092	2.93
293.469	2.89
293.845	2.97
294.222	2.68
294.599	3.09
294.975	2.3
295.352	2.55
295.728	3.36
296.105	2.87
296.481	2.94
296.858	2.99
297.234	2.93
297.61	2.97
297.986	2.52
298.363	2.9
298.739	3.01
299.115	2.85
299.491	3.05
299.867	2.73
300.243	2.68
300.619	3.01
300.995	3.21
301.371	3.32
301.746	2.76
302.122	3.47
302.498	2.46
302.874	3.09
303.249	3.43
303.625	2.65
304	2.97
304.376	3.35
304.751	3.47
305.127	2.87
305.502	3.08
305.878	3
306.253	2.78
306.628	3.19
307.003	3.32
307.378	2.48
307.754	2.82
308.129	2.92
308.504	3.61
308.879	2.99
309.254	2.97
309.629	3.48
310.003	3.04
310.378	3.52
310.753	3.74
311.128	3.7
311.502	2.84
311.877	2.88
312.252	2.69
312.626	3.21
313.001	2.92
313.375	3.03
313.75	3.21
314.124	3.67
314.498	3.06
314.873	2.43
315.247	4.14
315.621	3.14
315.995	3.41
316.369	3.11
316.743	2.94
317.117	2.65
317.491	2.98
317.865	3.29
318.239	3.35
318.613	3.47
318.987	3.61
319.361	2.45
319.734	3.07
320.108	3.24
320.482	2.78
320.855	2.84
321.229	3.63
321.602	3.56
321.976	3.25
322.349	3.57
322.723	3.04
323.096	2.83
323.469	3.3
323.843	3.92
324.216	3.62
324.589	3.4
324.962	3.37
325.335	3.47
325.708	3.62
326.081	3.3
326.454	3.24
326.827	3.72
327.2	3.37
327.573	3.14
327.945	3.96
328.318	3.47
328.691	2.58
329.063	3.6
329.436	4.01
329.809	3.21
330.181	3.01
330.553	3.28
330.926	3.56
331.298	3.24
331.671	3.26
332.043	3.46
332.415	3.53
332.787	3.36
333.159	3.66
333.532	3.9
333.904	2.95
334.276	4.43
334.648	3.42
335.02	3.17
335.391	3.49
335.763	3.24
336.135	3.83
336.507	3.85
336.879	3.2
337.25	3.63
337.622	3.29
337.993	3.38
338.365	3.05
338.736	3.9
339.108	3.16
339.479	4.02
339.851	2.8
340.222	2.45
340.593	3.58
340.964	3.49
341.336	3.8
341.707	2.85
342.078	3.16
342.449	2.85
342.82	3.57
343.191	3.68
343.562	3.85
343.933	3.7
344.303	3.32
344.674	3.32
345.045	3.27
345.416	3.43
345.786	2.69
346.157	3.16
346.527	3.73
346.898	3.54
347.268	3.37
347.639	3.81
348.009	3.54
348.38	3.24
348.75	3.59
349.12	3.51
349.49	3.12
349.861	3.92
350.231	3.37
350.601	3.95
350.971	3.52
351.341	3.22
351.711	3.99
352.081	3.45
352.45	3.36
352.82	3.81
353.19	3.22
353.56	3.29
353.929	3.2
354.299	3.32
354.669	3.05
355.038	2.93
355.408	3.41
355.777	3.88
356.147	2.94
356.516	3.69
356.885	3.58
357.254	3.52
357.624	3.43
357.993	3.47
358.362	3.61
358.731	3.53
359.1	3.29
359.469	3.35
359.838	3.28
360.207	3.42
360.576	3.57
360.945	3.11
361.314	3.68
361.682	3.56
362.051	3.7
362.42	3.6
362.788	3.44
363.157	3.79
363.525	3.43
363.894	3.38
364.262	3.32
364.631	3.25
364.999	3.49
365.367	3.69
365.735	3.47
366.104	3.38
366.472	3.18
366.84	3.69
367.208	3.8
367.576	3.74
367.944	3.64
368.312	3.41
368.68	3.68
369.048	3.8
369.416	3.56
369.783	3.52
370.151	3.33
370.519	3.15
370.886	3.74
371.254	3.41
371.621	3.91
371.989	3.47
372.356	3.59
372.724	3.7
373.091	3.38
373.458	3.54
373.826	3.35
374.193	3.18
374.56	3.58
374.927	3.23
375.294	3.62
375.661	3.82
376.028	3.81
376.395	3.73
376.762	3.93
377.129	3.71
377.496	3.57
377.863	3.37
378.229	3.79
378.596	3.34
378.963	3.72
379.329	3.48
379.696	3.58
380.062	3.7
380.429	3.75
380.795	3.71
381.161	3.65
381.528	3.75
381.894	3.73
382.26	3.62
382.626	3.48
382.993	3.91
383.359	3.81
383.725	3.43
384.091	3.71
384.457	3.31
384.823	3.64
385.188	3.5
385.554	3.56
385.92	3.5
386.286	3.72
386.651	3.88
387.017	3.98
387.383	3.75
387.748	3.6
388.114	3.68
388.479	3.99
388.845	3.86
389.21	3.82
389.575	3.5
389.94	3.81
390.306	3.79
390.671	3.49
391.036	3.72
391.401	3.65
391.766	3.71
392.131	3.83
392.496	3.59
392.861	3.33
393.226	3.9
393.591	3.66
393.956	3.67
394.32	3.88
394.685	3.84
395.05	3.61
395.414	3.55
395.779	3.62
396.143	3.98
396.508	3.51
396.872	3.42
397.236	3.77
397.601	3.73
397.965	3.86
398.329	4.05
398.694	3.86
399.058	4.05
399.422	3.33
399.786	3.56
400.15	3.47
400.514	3.95
400.878	3.78
401.242	3.8
401.605	3.77
401.969	3.62
402.333	3.89
402.697	3.75
403.06	3.54
403.424	3.86
403.787	3.64
404.151	3.95
404.514	3.47
404.878	3.65
405.241	3.73
405.604	3.53
405.968	3.86
406.331	3.79
406.694	3.94
407.057	3.71
407.42	3.72
407.783	3.79
408.146	3.56
408.509	3.75
408.872	3.9
409.235	3.77
409.598	3.77
409.961	4.07
410.323	3.7
410.686	3.82
411.049	3.96
411.411	3.75
411.774	3.73
412.136	3.67
412.499	3.86
412.861	3.68
413.223	3.93
413.586	3.84
413.948	3.62
414.31	3.84
414.672	3.86
415.035	3.79
415.397	3.87
415.759	3.96
416.121	3.65
416.483	3.78
416.845	3.72
417.206	3.89
417.568	3.69
417.93	4.04
418.292	3.79
418.653	3.67
419.015	3.86
419.377	3.74
419.738	3.84
420.1	3.73
420.461	3.9
420.822	3.82
421.184	3.76
421.545	3.96
421.906	3.71
422.267	3.65
422.629	3.68
422.99	3.79
423.351	3.66
423.712	3.79
424.073	3.72
424.434	3.82
424.795	3.82
425.155	3.66
425.516	3.68
425.877	3.75
426.238	3.84
426.598	3.77
426.959	3.81
427.32	3.76
427.68	3.81
428.041	3.9
428.401	3.69
428.761	3.88
429.122	4.05
429.482	4.08
429.842	3.94
430.202	3.79
430.563	3.76
430.923	3.97
431.283	3.78
431.643	3.85
432.003	3.92
432.363	4
432.722	3.98
433.082	3.77
433.442	3.83
433.802	3.94
434.161	3.83
434.521	3.86
434.881	3.94
435.24	4.13
435.6	3.93
435.959	3.94
436.319	4.05
436.678	4.12
437.037	3.97
437.396	3.78
437.756	4.07
438.115	3.96
438.474	3.79
438.833	3.97
439.192	3.97
439.551	3.91
439.91	3.86
440.269	3.8
440.628	3.82
440.987	3.84
441.345	4.09
441.704	3.9
442.063	3.89
442.421	3.9
442.78	3.91
443.138	3.86
443.497	4.01
443.855	4
444.214	4.04
444.572	4.09
444.93	3.96
445.288	3.74
445.647	4
446.005	3.86
446.363	3.66
446.721	3.92
447.079	4.02
447.437	3.76
447.795	4.02
448.153	3.98
448.51	3.9
448.868	4.01
449.226	3.97
449.584	3.93
449.941	3.95
450.299	3.99
450.656	3.98
451.014	3.95
451.371	3.94
451.729	3.98
452.086	4
452.443	4.18
452.801	4.03
453.158	4.03
453.515	4.1
453.872	4.01
454.229	4.02
454.586	3.87
454.943	4.02
455.3	4.07
455.657	4.09
456.014	4.27
456.371	4.26
456.727	4.06
457.084	4.18
457.441	4.08
457.797	4.2
458.154	3.97
458.51	4.01
458.867	4.12
459.223	4.16
459.58	4
459.936	3.98
460.292	3.99
460.648	4.01
461.005	4.01
461.361	3.96
461.717	3.99
462.073	4.03
462.429	4.01
462.785	3.97
463.141	4.18
463.496	4.01
463.852	4.25
464.208	4.16
464.564	4.25
464.919	4.23
465.275	4.21
465.631	4.38
465.986	4.17
466.342	4.06
466.697	4.17
467.052	4.33
467.408	4.15
467.763	4.15
468.118	4.13
468.473	4.13
468.829	4.27
469.184	3.97
469.539	4.3
469.894	4.24
470.249	4.31
470.603	4.11
470.958	4.28
471.313	4.38
471.668	4.24
472.023	4.24
472.377	4.21
472.732	4.24
473.086	4.23
473.441	4.3
473.795	4.28
474.15	4.27
474.504	4.12
474.859	4.35
475.213	3.95
475.567	4.37
475.921	4.29
476.275	4.09
476.63	4.39
476.984	4.44
477.338	4.23
477.692	4.22
478.045	4.3
478.399	4.11
478.753	4.12
479.107	4.27
479.461	4.25
479.814	4.24
480.168	4.18
480.521	4.23
480.875	4.28
481.228	4.3
481.582	4.37
481.935	4.2
482.289	4.33
482.642	4.37
482.995	4.3
483.348	4.38
483.701	4.32
484.055	4.16
484.408	4.13
484.761	4.19
485.114	4.11
485.466	3.99
485.819	4.01
486.172	4
486.525	4.07
486.878	4.1
487.23	4.15
487.583	4.21
487.936	4.22
488.288	4.12
488.641	4.16
488.993	4.12
489.345	4.13
489.698	4.16
490.05	4.13
490.402	4.13
490.754	4.12
491.107	4.24
491.459	4.26
491.811	4.34
492.163	4.28
492.515	4.35
492.866	4.18
493.218	4.19
493.57	4.2
493.922	4.13
494.274	4.22
494.625	4.33
494.977	4.46
495.328	4.39
495.68	4.33
496.031	4.46
496.383	4.42
496.734	4.46
497.086	4.35
497.437	4.39
497.788	4.47
498.139	4.43
498.49	4.48
498.842	4.46
499.193	4.47
499.544	4.48
499.894	4.36
500.245	4.55
500.596	4.56
500.947	4.39
501.298	4.64
501.648	4.48
501.999	4.48
502.35	4.54
502.7	4.61
503.051	4.5
503.401	4.68
503.752	4.64
504.102	4.53
504.452	4.51
504.803	4.5
505.153	4.66
505.503	4.63
505.853	4.66
506.203	4.5
506.553	4.56
506.903	4.58
507.253	4.51
507.603	4.63
507.953	4.61
508.303	4.75
508.652	4.55
509.002	4.72
509.352	4.7
509.701	4.72
510.051	4.66
510.4	4.57
510.75	4.5
511.099	4.54
511.449	4.69
511.798	4.59
512.147	4.72
512.496	4.76
512.846	4.63
513.195	4.63
513.544	4.67
513.893	4.66
514.242	4.68
514.591	4.68
514.939	4.68
515.288	4.62
515.637	4.58
515.986	4.75
516.334	4.8
516.683	4.65
517.032	4.8
517.38	4.76
517.729	4.8
518.077	4.82
518.426	4.87
518.774	4.83
519.122	4.82
519.47	4.81
519.819	4.76
520.167	4.72
520.515	4.73
520.863	4.78
521.211	4.71
521.559	4.81
521.907	4.8
522.255	4.83
522.602	4.8
522.95	4.85
523.298	4.9
523.645	5.04
523.993	5.07
524.341	5
524.688	4.86
525.036	5.02
525.383	4.88
525.73	4.94
526.078	4.95
526.425	4.95
526.772	4.9
527.119	4.93
527.466	4.88
527.814	4.81
528.161	4.94
528.508	4.98
528.854	4.92
529.201	4.91
529.548	4.83
529.895	4.86
530.242	4.79
530.588	4.75
530.935	4.78
531.282	4.83
531.628	4.91
531.975	4.86
532.321	4.87
532.667	4.95
533.014	5.05
533.36	5.07
533.706	5.07
534.052	5.08
534.399	5.04
534.745	5.01
535.091	4.89
535.437	4.99
535.783	5.05
536.129	5.14
536.474	5.04
536.82	5.09
537.166	5.29
537.512	5.2
537.857	5.23
538.203	5.17
538.549	5.19
538.894	5.25
539.239	5.11
539.585	5.31
539.93	5.3
540.276	5.25
540.621	5.22
540.966	5.37
541.311	5.33
541.656	5.42
542.001	5.33
542.346	5.36
542.691	5.24
543.036	5.15
543.381	5.11
543.726	5.21
544.071	5.27
544.415	5.27
544.76	5.25
545.105	5.42
545.449	5.34
545.794	5.5
546.138	5.38
546.483	5.56
546.827	5.49
547.171	5.43
547.516	5.57
547.86	5.55
548.204	5.56
548.548	5.43
548.892	5.56
549.236	5.56
549.58	5.64
549.924	5.59
550.268	5.75
550.612	5.59
550.956	5.66
551.3	5.9
551.643	5.73
551.987	5.98
552.33	5.9
552.674	5.75
553.017	5.87
553.361	5.87
553.704	5.67
554.048	5.86
554.391	5.96
554.734	5.79
555.077	6.03
555.42	5.83
555.764	5.98
556.107	5.97
556.45	5.72
556.793	5.94
557.135	5.94
557.478	5.97
557.821	6.04
558.164	6.02
558.507	6
558.849	6.01
559.192	6.04
559.534	6.06
559.877	6.05
560.219	6.12
560.562	6.13
560.904	6.29
561.246	6.2
561.589	6.07
561.931	6.17
562.273	6.07
562.615	6.27
562.957	6.42
563.299	6.28
563.641	6.44
563.983	6.35
564.325	6.49
564.667	6.28
565.008	6.19
565.35	6.34
565.692	6.37
566.033	6.44
566.375	6.32
566.716	6.44
567.058	6.45
567.399	6.46
567.741	6.56
568.082	6.32
568.423	6.46
568.764	6.42
569.105	6.44
569.447	6.63
569.788	6.46
570.129	6.55
570.47	6.72
570.811	6.62
571.151	6.82
571.492	6.76
571.833	6.66
572.174	6.76
572.514	6.74
572.855	6.73
573.195	6.78
573.536	6.71
573.876	6.79
574.217	6.86
574.557	6.76
574.898	6.86
575.238	6.86
575.578	6.85
575.918	6.73
576.258	6.95
576.598	6.87
576.938	6.91
577.278	6.96
577.618	7.11
577.958	7.2
578.298	7.1
578.638	7.12
578.977	7.21
579.317	7.03
579.657	7.06
579.996	7.11
580.336	7.11
580.675	7.12
581.014	7.25
581.354	7.4
581.693	7.12
582.032	7.23
582.372	7.52
582.711	7.41
583.05	7.51
583.389	7.31
583.728	7.62
584.067	7.58
584.406	7.52
584.745	7.63
585.083	7.29
585.422	7.65
585.761	7.71
586.1	7.27
586.438	7.67
586.777	7.81
587.115	7.5
587.454	8.05
587.792	7.59
588.13	7.73
588.469	7.64
588.807	7.68
589.145	7.76
589.483	8.04
589.821	8.1
590.159	7.75
590.497	7.85
590.835	7.89
591.173	8.09
591.511	8
591.849	7.81
592.187	7.78
592.524	7.99
592.862	7.76
593.2	7.76
593.537	7.76
593.875	8.36
594.212	8.34
594.55	8.09
594.887	8.37
595.224	8.37
595.561	8.23
595.899	8.05
596.236	8.32
596.573	8.24
596.91	8.37
597.247	8.28
597.584	8.34
597.921	8.41
598.258	8.48
598.594	8.48
598.931	8.48
599.268	8.28
599.604	8.31
599.941	8.37
600.277	8.68
600.614	8.64
600.95	8.7
601.287	8.61
601.623	8.83
601.959	8.59
602.296	8.79
602.632	8.64
602.968	8.72
603.304	8.49
603.64	8.66
603.976	8.55
604.312	8.81
604.648	8.71
604.984	8.81
605.319	8.84
605.655	8.89
605.991	8.88
606.326	8.78
606.662	9.05
606.998	8.79
607.333	9.13
607.668	8.98
608.004	9.12
608.339	9.26
608.674	9.32
609.01	9.31
609.345	9.56
609.68	9.29
610.015	9.2
610.35	9.19
610.685	9.37
611.02	9.22
611.355	9.32
611.689	9.28
612.024	9.12
612.359	9.45
612.694	9.21
613.028	9.46
613.363	9.29
613.697	9.7
614.032	9.59
614.366	9.75
614.7	9.55
615.035	9.81
615.369	10
615.703	9.66
616.037	9.37
616.371	9.63
616.705	9.66
617.039	9.74
617.373	10.08
617.707	9.82
618.041	9.91
618.375	9.99
618.709	9.83
619.042	9.83
619.376	9.35
619.71	9.75
620.043	9.83
620.377	9.79
620.71	10.1
621.043	9.91
621.377	9.51
621.71	10.23
622.043	10.32
622.376	10.59
622.709	10.29
623.043	10.18
623.376	10.42
623.709	10.56
624.041	10.74
624.374	10.35
624.707	10.09
625.04	10.53
625.373	10.54
625.705	10.54
626.038	10.45
626.37	10.18
626.703	10.8
627.035	10.51
627.368	10.72
627.7	10.71
628.032	10.71
628.365	10.65
628.697	10.72
629.029	10.62
629.361	10.7
629.693	10.69
630.025	10.34
630.357	10.83
630.689	10.76
631.021	11.17
631.353	11.32
631.684	11.31
632.016	10.78
632.348	10.99
632.679	10.7
633.011	11.39
633.342	11.24
633.674	11.08
634.005	11.47
634.336	11.17
634.668	11.06
634.999	11.3
635.33	11.52
635.661	11.4
635.992	11.7
636.323	11.15
636.654	11.47
636.985	11.58
637.316	11.27
637.647	11.3
637.977	11.39
638.308	11.64
638.639	11.52
638.969	11.58
639.3	11.51
639.63	12.05
639.961	11.89
640.291	11.64
640.622	12.12
640.952	12.37
641.282	11.78
641.612	12.34
641.943	11.76
642.273	11.66
642.603	12.28
642.933	11.91
643.263	11.89
643.592	12.13
643.922	12.04
644.252	12.51
644.582	11.33
644.911	12.28
645.241	12.07
645.571	12.63
645.9	12.01
646.23	11.62
646.559	12.36
646.888	12.47
647.218	12.47
647.547	12.54
647.876	12.38
648.205	12.21
648.534	12.98
648.863	12.3
649.192	12.76
649.521	13.05
649.85	12.54
650.179	12.1
650.508	12.95
650.837	12.23
651.165	12.39
651.494	12.76
651.822	12.57
652.151	12.34
652.479	13.53
652.808	12.83
653.136	13.16
653.465	12.65
653.793	12.95
654.121	13.03
654.449	12.91
654.777	12.91
655.105	13.11
655.433	13.03
655.761	13.33
656.089	12.96
656.417	13.31
656.745	13.3
657.073	12.71
657.4	13.22
657.728	12.82
658.056	13
658.383	13.45
658.711	13.17
659.038	13.36
659.365	13.67
659.693	13.48
660.02	13.76
660.347	13.55
660.674	13.51
661.001	13.61
661.329	13.29
661.656	13.42
661.982	13.55
662.309	13.86
662.636	13.61
662.963	13.74
663.29	13.49
663.616	13.5
663.943	14.08
664.27	14.61
664.596	13.42
664.923	14.54
665.249	13.64
665.576	13.55
665.902	13.87
666.228	14.03
666.554	13.48
666.881	13.3
667.207	14.26
667.533	14.52
667.859	14.1
668.185	14.22
668.511	14.16
668.837	13.75
669.162	14.93
669.488	13.93
669.814	14.13
670.139	14.34
670.465	14.1
670.791	14.26
671.116	14.86
671.442	14.22
671.767	14.71
672.092	15.04
672.418	14.52
672.743	14.92
673.068	14.39
673.393	14.89
673.718	15
674.043	15.46
674.368	14.1
674.693	13.55
675.018	14.94
675.343	14.8
675.667	15
675.992	15.05
676.317	14.83
676.641	15.04
676.966	15.16
677.29	15.06
677.615	15.44
677.939	15.01
678.264	15.07
678.588	15.13
678.912	15.53
679.236	14.77
679.56	15.46
679.885	15.13
680.209	15.67
680.532	15.28
680.856	15.16
681.18	15.57
681.504	15.37
681.828	15.46
682.152	15.21
682.475	15.7
682.799	15.68
683.122	15.27
683.446	16.17
683.769	16.34
684.093	15.37
684.416	15.81
684.739	16.16
685.062	15.79
685.386	15.84
685.709	16.09
686.032	15.49
686.355	16
686.678	15.93
687.001	15.49
687.324	15.85
687.646	16.25
687.969	15.56
688.292	16.07
688.614	16.22
688.937	16.83
689.26	15.7
689.582	15.65
689.904	15.28
690.227	15.59
690.549	15.97
690.871	16.48
691.194	16.82
691.516	16.34
691.838	15.43
692.16	16.47
692.482	16.19
692.804	16.62
693.126	17.12
693.448	17.1
693.769	16.16
694.091	16.45
694.413	17.46
694.735	16.26
695.056	16.41
695.378	17.02
695.699	16.77
696.021	15.82
696.342	16.38
696.663	17.32
696.984	17.12
697.306	17.05
697.627	16.49
697.948	17.17
698.269	17.12
698.59	17.78
698.911	17.4
699.232	16.39
699.553	17.43
699.873	17.51
700.194	16.85
700.515	17.35
700.835	16.48
701.156	16.88
701.477	17.59
701.797	17.45
702.117	16.92
702.438	18.01
702.758	17.27
703.078	18.45
703.398	17.05
703.719	17.36
704.039	17.62
704.359	17.55
704.679	18.4
704.999	18.18
705.319	16.74
705.638	18.61
705.958	17.22
706.278	18.66
706.597	17.68
706.917	17.71
707.237	17.84
707.556	19.53
707.876	18.37
708.195	18.98
708.514	18.55
708.834	18.72
709.153	19
709.472	19.1
709.791	18.12
710.11	18.17
710.429	18.04
710.748	16.73
711.067	18.79
711.386	18.08
711.705	19.44
712.023	18.2
712.342	18.94
712.661	17.56
712.979	19.17
713.298	19.04
713.616	18.24
713.935	17.99
714.253	18.63
714.572	17.89
714.89	18.51
715.208	18.87
715.526	18.35
715.844	18.68
716.162	19.75
716.48	18.44
716.798	19.05
717.116	20.11
717.434	18.85
717.752	18.8
718.069	19.51
718.387	19.04
718.705	18.31
719.022	19.49
719.34	19.99
719.657	19.24
719.975	19.69
720.292	20.23
720.609	20.55
720.927	19.42
721.244	18.7
721.561	19.04
721.878	19.09
722.195	18.97
722.512	18.64
722.829	19.31
723.146	19.82
723.463	18.93
723.779	20.69
724.096	19.17
724.413	19.78
724.729	18.46
725.046	19.35
725.362	20.05
725.679	19.19
725.995	21.14
726.311	19.2
726.628	20.14
726.944	20.17
727.26	19.26
727.576	20.28
727.892	19.63
728.208	19.43
728.524	20.54
728.84	20.17
729.156	19.7
729.472	19.95
729.787	19.17
730.103	20.25
730.419	18.95
730.734	20.25
731.05	21.39
731.365	20.86
731.681	20.47
731.996	20.66
732.311	20
732.626	21.13
732.942	20.08
733.257	20.51
733.572	21.17
733.887	21.9
734.202	21.85
734.517	20.03
734.832	20.76
735.146	22.41
735.461	21.93
735.776	20.34
736.091	19.95
736.405	19.87
736.72	20.51
737.034	21.46
737.349	20.32
737.663	20.28
737.977	20.64
738.292	21.37
738.606	20.1
738.92	20.31
739.234	21.56
739.548	21.54
739.862	20.57
740.176	20.3
740.49	21.84
740.804	21.25
741.117	21.22
741.431	23.13
741.745	22.2
742.058	20.5
742.372	22.06
742.685	21.14
742.999	20.52
743.312	21.75
743.626	21.95
743.939	22.59
744.252	22.77
744.565	20.92
744.878	21.89
745.191	22.86
745.505	22.19
745.817	23.45
746.13	22.58
746.443	22.69
746.756	22.21
747.069	22.55
747.381	21.98
747.694	22.06
748.007	21.86
748.319	22.88
748.632	22.35
748.944	20.06
749.256	21.51
749.569	22.89
749.881	21.18
750.193	22.31
750.505	22.93
750.817	20.61
751.129	23.29
751.441	23.61
751.753	24.21
752.065	20.44
752.377	23.59
752.689	24.73
753	21.67
753.312	23.27
753.624	22.29
753.935	23.68
754.247	21.89
754.558	25.32
754.869	21.54
755.181	23.28
755.492	22.84
755.803	21.94
756.114	23.49
756.425	23.36
756.736	23.8
757.047	22.78
757.358	21.03
757.669	22.3
757.98	23.96
758.291	22.1
758.601	23.83
758.912	24.5
759.223	24.09
759.533	24.32
759.844	21.95
760.154	24.13
760.464	21.52
760.775	21.98
761.085	23.25
761.395	23.22
761.705	25.29
762.016	22.84
762.326	22.53
762.636	23.24
762.945	24.39
763.255	25.38
763.565	22.18
763.875	26.93
764.185	24.33
764.494	23.34
764.804	22.87
765.113	25
765.423	24.58
765.732	22.91
766.042	25.52
766.351	25.16
766.66	23.61
766.97	24.5
767.279	23.45
767.588	24.19
767.897	25.42
768.206	25.69
768.515	25.13
768.824	24.37
769.133	24.81
769.441	22.83
769.75	22.61
770.059	21.44
770.367	23.6
770.676	25.71
770.984	23.19
771.293	25.34
771.601	24.03
771.91	24.88
772.218	25.35
772.526	22.09
772.834	23.39
773.142	24.09
773.45	23.38
773.758	25.44
774.066	26.1
774.374	23.77
774.682	23.39
774.99	18.9
775.298	23.46
775.605	26.32
775.913	25.06
776.22	25.02
776.528	24.78
776.835	25.02
777.143	24.71
777.45	22.74
777.757	25.72
778.065	26.09
778.372	25.73
778.679	24.35
778.986	23.45
779.293	24.19
779.6	23.51
779.907	24.31
780.214	25.56
780.52	24.64
780.827	26.15
781.134	21.17
781.44	28.16
781.747	20.29
782.053	26.71
782.36	21.82
782.666	24.09
782.973	24.4
783.279	23.5
783.585	24.48
783.891	27.49
784.197	27.6
784.503	25.03
784.809	24.65
785.115	28.04
785.421	27.24
785.727	22.96
786.033	26.43
786.339	26.34
786.644	23.94
786.95	33.02
787.255	29.62
787.561	25.71
787.866	28.67
788.172	23.88
788.477	24.64
788.782	26.8
789.088	25.36
789.393	25.07
789.698	25.25
790.003	22.72
790.308	29.96
790.613	25.16
790.918	26.58
791.223	26.71
791.527	26.93
791.832	28.87
792.137	26.16
792.441	27.95
792.746	21.99
793.05	27.9
793.355	30.95
793.659	28.38
793.963	26.17
794.268	22.84
794.572	27.75
794.876	24.38
795.18	22.82
795.484	25.83
795.788	30.95
796.092	18.79
796.396	24.64
796.7	23.58
797.004	26.82
797.307	23.46
797.611	20.55
797.915	29.1
798.218	22.09
798.522	29.73
798.825	30.64
799.128	28.51
799.432	23.39
799.735	25.37
800.038	26.99
800.341	31.13
800.644	22.19
800.947	29.12
801.25	24.01
801.553	23.3
801.856	25.58
802.159	30.68
802.462	25.86
802.764	30.98
803.067	23.67
803.37	23.26
803.672	23.01
803.975	20.64
804.277	29.87
804.579	20.49
804.882	24.71
805.184	31.62
805.486	27.62
805.788	22.4
806.09	29.56
806.392	28.78
806.694	23.58
806.996	23.71
807.298	23.84
807.6	28.03
807.902	27.51
808.203	29.78
808.505	28.22
808.807	25.61
809.108	22.05
809.409	28.75
809.711	25.34
810.012	31.29
810.313	28.76
810.615	28.28
810.916	28.42
811.217	22.27
811.518	22.27
811.819	29.17
812.12	30.36
812.421	29.21
812.722	28.94
813.023	27.94
813.323	26.45
813.624	28.46
813.925	38.37
814.225	27.66
814.526	27.69
814.826	33.85
815.126	26.18
815.427	34.34
815.727	16.24
816.027	28.99
816.327	27.52
816.627	31.18
816.927	29.99
817.227	30.28
817.527	29.54
817.827	27.72
818.127	30.2
818.427	25.74
818.727	18.02
819.026	22.14
819.326	29.02
819.625	26.05
819.925	33.09
820.224	19.21
820.524	29.81
820.823	31.49
821.122	28.36
821.421	29.34
821.72	31.27
822.019	23.1
822.318	25.38
822.617	32.44
822.916	29.15
823.215	31.89
823.514	29.01
823.813	31.52
824.111	27.81
824.41	29.12
824.709	30.99
825.007	31.06
825.306	31.39
825.604	30.83
825.902	31.11
826.201	31.3
826.499	30.38
826.797	31.53
827.095	31.83
827.393	32.36
827.691	30.67
827.989	31.1
828.287	30.29
828.585	33.7
828.882	29.66
829.18	31.72
829.478	32.96
829.775	32.71
830.073	31.81
830.37	33.41
830.668	31.85
830.965	33.47
831.263	30.9
831.56	31.15
831.857	27.16
832.154	29.6
832.451	29.43
832.748	28.08
833.045	32.07
833.342	29.43
833.639	28.13
833.936	29.62
834.232	29.85
834.529	25.05
834.826	30.55
835.122	28.28
835.419	35.43
835.715	30.25
836.012	29.32
836.308	30.07
836.604	33.17
836.901	31.83
837.197	35.86
837.493	32.4
837.789	29.88
838.085	32.86
838.381	30.9
838.677	33.69
838.972	33.42
839.268	23.77
839.564	27.07
839.86	31.28
840.155	33.38
840.451	34.73
840.746	31.32
841.042	22.17
841.337	29.9
841.632	30.89
841.928	32.12
842.223	37.08
842.518	23.35
842.813	31.41
843.108	21.64
843.403	23.3
843.698	28.37
843.993	36.58
844.287	25.38
844.582	32.2
844.877	28.23
845.171	33.19
845.466	26.13
845.761	35.72
846.055	32.28
846.349	41.13
846.644	30.7
846.938	31.72
847.232	27.46
847.526	23.89
847.82	26.39
848.114	50.96
848.408	27.02
848.702	57.29
848.996	34.68
849.29	36.81
849.584	20.26
849.877	26.3
850.171	26
850.465	33.45
850.758	23.86
851.052	11.36
851.345	20.95
851.638	29.97
851.932	16.5
852.225	10.89
852.518	37.25
852.811	41.21
853.104	30.2
853.397	44.63
853.69	25.66
853.983	35.32
854.276	33.09
854.569	29.06
854.861	23.87
855.154	34.19
855.447	13.13
855.739	34.23
856.032	26.67
856.324	41.99
856.616	33.39
856.909	27.69
857.201	44.26
857.493	-7.92
857.785	50.32
858.077	29.18
858.369	18.03
858.661	21.67
858.953	39.7
859.245	-11.46
859.537	19.47
859.829	20.61
860.12	0.95
860.412	-28.81
860.703	30.62
860.995	29.44
861.286	23.18
861.578	26.01
861.869	14.49
862.16	24.13
862.452	6.9
862.743	7.97
863.034	44.81
863.325	43.68
863.616	33.54
863.907	65.24
864.198	11.09
864.488	31.45
864.779	38.91
865.07	9.21
865.36	42.45
865.651	1.25
865.941	5.26
866.232	10.18
866.522	32.66
866.813	19.69
867.103	31.92
867.393	12.37
867.683	26.75
867.973	39.64
868.263	18.2
868.553	35.41
868.843	11.82
869.133	-12.39
869.423	38.4
869.713	13.03
870.002	9.16
870.292	41.4
870.582	5.67
870.871	23.59
871.161	52.05
871.45	32.92
871.739	34.97
872.029	37.63
872.318	41.45
872.607	26.65
872.896	23.23
873.185	-22.99
873.474	13.11
873.763	29.59
874.052	22.77
874.341	43.91
874.63	60.02
874.918	19.84
875.207	-2.33
875.496	48.49
875.784	15.16
876.073	46.24
876.361	61.4
876.649	30.89
876.938	52.31
877.226	13.78
877.514	-24.56
877.802	18.92
878.09	33.71
878.378	32.21
878.666	30.5
878.954	21.74
879.242	49.13
879.53	24.29
879.817	21.13
880.105	28.84
880.392	33.91
880.68	22.29
880.967	40.97
881.255	15.81
881.542	49.88
881.83	37.5
882.117	23.79
882.404	43.09
882.691	26.06
882.978	-6.91
883.265	30.18
883.552	64.06
883.839	50.84
884.126	35.95
884.413	19.39
884.699	39.29
884.986	32.74
885.273	30.27
885.559	30.27
885.846	30.27
