Data from 0023_crown_Reflection__4__55.txt Node

Date: Thu Oct 20 20:45:34 CDT 2022
User: ToomeyLab
Spectrometer: FLMS14357
Trigger mode: 0
Integration Time (sec): 1.000000E-2
Scans to average: 100
Electric dark correction enabled: true
Nonlinearity correction enabled: false
Boxcar width: 0
XAxis mode: Wavelengths
Number of Pixels in Spectrum: 2048
>>>>>Begin Spectral Data<<<<<
189.047	287.93
189.435	287.93
189.823	287.93
190.211	267.47
190.599	308.27
190.987	-377.39
191.375	-1115.63
191.763	585.85
192.151	-57.8
192.538	266.98
192.926	-165.54
193.314	81.87
193.702	80.96
194.089	-171.02
194.477	-18.58
194.864	-90.77
195.252	37.88
195.639	47.19
196.027	157.45
196.414	-166.46
196.801	486.74
197.189	-159.49
197.576	-63.7
197.963	-593.75
198.351	25.02
198.738	-6.8
199.125	53.28
199.512	-5.68
199.899	25.94
200.286	42.34
200.673	18
201.06	16.39
201.447	27.11
201.833	-0.53
202.22	14.92
202.607	40.61
202.994	42.15
203.38	24.89
203.767	43.2
204.154	-8.38
204.54	32.99
204.927	27.77
205.313	23.61
205.699	24.58
206.086	36.17
206.472	23.9
206.858	22.16
207.245	30.57
207.631	3.23
208.017	5.09
208.403	-7.31
208.789	6.56
209.175	47.9
209.561	6.85
209.947	37.42
210.333	24.8
210.719	6.56
211.105	24.09
211.491	2.45
211.876	16.38
212.262	21.12
212.648	3.48
213.034	19.16
213.419	21.89
213.805	-5.14
214.19	21.21
214.576	8.42
214.961	1.95
215.346	-3.15
215.732	14.78
216.117	8.7
216.502	34.52
216.888	35.51
217.273	26.68
217.658	13.94
218.043	-13.57
218.428	0.59
218.813	-0.32
219.198	23.92
219.583	23
219.968	22.35
220.353	12.24
220.738	10.78
221.122	6.43
221.507	3.81
221.892	16.88
222.276	11.27
222.661	2.95
223.046	12.2
223.43	14.03
223.815	-0.09
224.199	5.63
224.583	6.84
224.968	10.07
225.352	2.59
225.736	7.01
226.121	9.41
226.505	5.04
226.889	6.69
227.273	6.72
227.657	4.34
228.041	4.82
228.425	3.8
228.809	1.78
229.193	3.74
229.577	4.7
229.961	3.5
230.344	3.94
230.728	4.55
231.112	3.56
231.495	3.53
231.879	4.44
232.263	4.44
232.646	3.54
233.03	2.13
233.413	3.8
233.797	3.02
234.18	1.88
234.563	3.15
234.946	3.57
235.33	4.79
235.713	4.23
236.096	3.07
236.479	2.02
236.862	4.57
237.245	3.04
237.628	2.65
238.011	3.72
238.394	4.3
238.777	3.85
239.16	4.4
239.543	2.89
239.925	4.78
240.308	4.41
240.691	3.28
241.073	3.93
241.456	3.4
241.838	3.41
242.221	4.09
242.603	4.24
242.986	3.28
243.368	3.03
243.75	3.46
244.133	3.53
244.515	3.21
244.897	3.22
245.279	2.46
245.661	3.39
246.043	2.83
246.425	2.55
246.807	2.94
247.189	2.8
247.571	2.95
247.953	3.17
248.335	3.17
248.717	3.09
249.098	3.13
249.48	2.96
249.862	3.38
250.243	3.02
250.625	3.16
251.006	3.05
251.388	4.03
251.769	3.42
252.151	4.02
252.532	2.68
252.913	2.96
253.295	3.13
253.676	3.17
254.057	3.53
254.438	3.9
254.819	4.02
255.2	2.94
255.581	3.92
255.962	2.32
256.343	4.05
256.724	3.92
257.105	3.03
257.486	3.15
257.867	3.14
258.247	3.08
258.628	3.11
259.009	3.21
259.389	2.67
259.77	3.15
260.15	3.11
260.531	3.44
260.911	2.54
261.292	2.91
261.672	3.05
262.052	3.18
262.432	3.16
262.813	3.35
263.193	2.98
263.573	2.71
263.953	3.38
264.333	3.03
264.713	3.31
265.093	3.62
265.473	3.41
265.853	3.46
266.233	3.24
266.612	2.64
266.992	3.43
267.372	3.18
267.752	3.12
268.131	2.72
268.511	2.85
268.89	3.02
269.27	3
269.649	2.83
270.029	3.58
270.408	2.98
270.787	3.19
271.167	3.2
271.546	2.91
271.925	3.11
272.304	2.78
272.683	3.31
273.062	3.21
273.441	3.13
273.82	2.94
274.199	3.15
274.578	2.99
274.957	3.33
275.336	2.92
275.715	3.08
276.093	3.38
276.472	3.33
276.851	3.01
277.229	2.44
277.608	2.63
277.986	2.77
278.365	2.76
278.743	3.26
279.122	3.34
279.5	2.76
279.878	3.12
280.257	3.19
280.635	3.23
281.013	3.04
281.391	3.15
281.769	2.86
282.147	3.48
282.525	2.84
282.903	3.46
283.281	2.74
283.659	2.78
284.037	2.74
284.415	2.85
284.792	2.96
285.17	2.54
285.548	2.75
285.925	2.99
286.303	3.03
286.68	2.97
287.058	2.85
287.435	2.69
287.813	2.72
288.19	3.15
288.567	2.77
288.945	3.24
289.322	2.37
289.699	3.12
290.076	3.02
290.453	2.87
290.83	2.96
291.207	3.29
291.584	2.29
291.961	2.77
292.338	2.77
292.715	2.53
293.092	3.35
293.469	3.25
293.845	3.35
294.222	2.92
294.599	3.5
294.975	2.87
295.352	3.23
295.728	3.37
296.105	3
296.481	3.31
296.858	3.22
297.234	2.95
297.61	2.67
297.986	2.79
298.363	3.01
298.739	3.17
299.115	3.03
299.491	2.94
299.867	2.72
300.243	2.78
300.619	2.96
300.995	2.88
301.371	2.29
301.746	2.75
302.122	2.59
302.498	3.56
302.874	2.87
303.249	3.31
303.625	3.01
304	2.96
304.376	3.03
304.751	2.75
305.127	2.16
305.502	3.12
305.878	2.77
306.253	3.1
306.628	2.99
307.003	3.14
307.378	3.01
307.754	2.83
308.129	2.95
308.504	2.6
308.879	3.09
309.254	3.07
309.629	3.32
310.003	3.12
310.378	3.35
310.753	2.87
311.128	2.68
311.502	3.08
311.877	2.83
312.252	2.5
312.626	2.67
313.001	3.12
313.375	3.19
313.75	3.15
314.124	2.82
314.498	2.99
314.873	2.82
315.247	3.1
315.621	3.35
315.995	3.14
316.369	3.07
316.743	3.56
317.117	3.28
317.491	2.46
317.865	3.25
318.239	2.82
318.613	3.67
318.987	3.08
319.361	2.93
319.734	3.59
320.108	3.46
320.482	2.8
320.855	3.09
321.229	3.34
321.602	3.37
321.976	3.3
322.349	2.94
322.723	3.54
323.096	2.77
323.469	3.13
323.843	3.24
324.216	3.28
324.589	2.91
324.962	3.67
325.335	2.92
325.708	3.14
326.081	3.33
326.454	2.99
326.827	3.13
327.2	3.36
327.573	2.81
327.945	3.15
328.318	2.83
328.691	2.85
329.063	2.76
329.436	2.57
329.809	3.03
330.181	3.49
330.553	2.87
330.926	2.93
331.298	2.72
331.671	3.13
332.043	2.87
332.415	3.5
332.787	3.24
333.159	2.98
333.532	2.99
333.904	2.5
334.276	3.25
334.648	2.86
335.02	2.84
335.391	3.38
335.763	2.68
336.135	3.02
336.507	3.42
336.879	3.05
337.25	3.46
337.622	2.78
337.993	3.08
338.365	2.72
338.736	3.3
339.108	2.83
339.479	3.04
339.851	3.33
340.222	2.4
340.593	2.45
340.964	3.23
341.336	3.39
341.707	2.69
342.078	3.32
342.449	3.12
342.82	2.92
343.191	3.2
343.562	3.13
343.933	3.02
344.303	2.95
344.674	2.72
345.045	2.99
345.416	2.99
345.786	3.43
346.157	3.01
346.527	2.88
346.898	2.71
347.268	3.2
347.639	3.01
348.009	3.05
348.38	3.13
348.75	2.89
349.12	2.83
349.49	3.43
349.861	3.25
350.231	2.54
350.601	2.9
350.971	2.95
351.341	3.07
351.711	3.04
352.081	3.17
352.45	3.1
352.82	2.98
353.19	3.05
353.56	2.74
353.929	3.32
354.299	2.65
354.669	2.94
355.038	3.14
355.408	2.89
355.777	2.66
356.147	2.79
356.516	3.04
356.885	3.2
357.254	3.12
357.624	3.01
357.993	2.84
358.362	3.13
358.731	3.04
359.1	3.02
359.469	2.94
359.838	3.06
360.207	3.24
360.576	2.82
360.945	2.74
361.314	3.13
361.682	2.94
362.051	2.88
362.42	2.83
362.788	3.12
363.157	2.91
363.525	2.88
363.894	3.03
364.262	2.89
364.631	2.91
364.999	2.76
365.367	2.62
365.735	3.03
366.104	3.05
366.472	2.77
366.84	2.96
367.208	3.22
367.576	2.89
367.944	3.33
368.312	3.33
368.68	3.4
369.048	2.75
369.416	3.05
369.783	3.07
370.151	3.25
370.519	3.46
370.886	3.08
371.254	3.1
371.621	2.92
371.989	2.75
372.356	3.18
372.724	3.13
373.091	3.26
373.458	2.75
373.826	3.16
374.193	3.14
374.56	3.4
374.927	3.23
375.294	3.01
375.661	3.19
376.028	3.06
376.395	2.99
376.762	2.73
377.129	3.08
377.496	2.89
377.863	3.46
378.229	2.88
378.596	2.9
378.963	2.99
379.329	2.86
379.696	3.52
380.062	3.24
380.429	3.1
380.795	3
381.161	3.1
381.528	3.05
381.894	2.83
382.26	3.12
382.626	3.16
382.993	3.08
383.359	3.16
383.725	3.11
384.091	2.85
384.457	2.92
384.823	2.97
385.188	2.9
385.554	3.11
385.92	3.09
386.286	3.42
386.651	2.87
387.017	2.9
387.383	2.97
387.748	2.77
388.114	2.71
388.479	3.25
388.845	3.16
389.21	2.94
389.575	3.05
389.94	3.44
390.306	2.81
390.671	2.83
391.036	2.97
391.401	2.95
391.766	3.04
392.131	3.11
392.496	3.06
392.861	3.12
393.226	3.02
393.591	2.8
393.956	2.87
394.32	2.88
394.685	2.91
395.05	2.59
395.414	3.06
395.779	3.02
396.143	3.08
396.508	2.96
396.872	2.7
397.236	3.33
397.601	3.11
397.965	3.28
398.329	2.74
398.694	3.14
399.058	3.08
399.422	3.02
399.786	3.19
400.15	2.81
400.514	2.88
400.878	3.11
401.242	3.15
401.605	3.07
401.969	3.06
402.333	3.05
402.697	3.24
403.06	2.75
403.424	3.05
403.787	2.98
404.151	2.93
404.514	2.79
404.878	3.06
405.241	3
405.604	3.11
405.968	2.89
406.331	2.99
406.694	2.97
407.057	2.86
407.42	3
407.783	2.86
408.146	2.99
408.509	3.11
408.872	3.11
409.235	3.13
409.598	3
409.961	2.92
410.323	3.1
410.686	2.99
411.049	3.01
411.411	3.02
411.774	3.19
412.136	3.12
412.499	2.94
412.861	2.93
413.223	3.01
413.586	3.18
413.948	2.98
414.31	3.14
414.672	3.12
415.035	3.3
415.397	2.98
415.759	3.09
416.121	3.05
416.483	3.19
416.845	3.25
417.206	3.02
417.568	2.97
417.93	2.74
418.292	3.11
418.653	2.9
419.015	2.92
419.377	3.06
419.738	3.03
420.1	2.79
420.461	3.06
420.822	3.18
421.184	2.98
421.545	2.94
421.906	2.85
422.267	2.89
422.629	3
422.99	2.92
423.351	2.98
423.712	2.85
424.073	2.91
424.434	2.96
424.795	2.98
425.155	2.93
425.516	2.8
425.877	2.93
426.238	3
426.598	2.74
426.959	2.98
427.32	3.03
427.68	2.94
428.041	2.97
428.401	3.08
428.761	3.16
429.122	3.1
429.482	2.98
429.842	3.06
430.202	3.14
430.563	3.09
430.923	2.96
431.283	3.09
431.643	3.03
432.003	3.16
432.363	2.98
432.722	3.16
433.082	3.12
433.442	3.25
433.802	3.05
434.161	3.05
434.521	3.17
434.881	3.14
435.24	3.07
435.6	3.01
435.959	3.02
436.319	3.05
436.678	3.08
437.037	3.14
437.396	3.11
437.756	3.03
438.115	3.04
438.474	3.09
438.833	3.09
439.192	2.97
439.551	3.04
439.91	3.14
440.269	3.05
440.628	3
440.987	3.06
441.345	3.11
441.704	3.08
442.063	3.04
442.421	3.04
442.78	3.1
443.138	3.16
443.497	3.06
443.855	3.13
444.214	3.06
444.572	3.08
444.93	3.12
445.288	3.09
445.647	2.92
446.005	3.07
446.363	3.1
446.721	3.08
447.079	2.97
447.437	3.02
447.795	3
448.153	3.03
448.51	3.09
448.868	2.96
449.226	3.15
449.584	3.1
449.941	3.07
450.299	3.11
450.656	3.12
451.014	3.08
451.371	3.22
451.729	3.12
452.086	2.99
452.443	3.09
452.801	3.11
453.158	3.1
453.515	3.16
453.872	3.08
454.229	3.24
454.586	3.24
454.943	3.23
455.3	3.09
455.657	3.17
456.014	3.2
456.371	3.12
456.727	3.08
457.084	3.17
457.441	3.08
457.797	3.24
458.154	3.22
458.51	3.15
458.867	3.17
459.223	3.17
459.58	3.23
459.936	3.18
460.292	3.07
460.648	3.13
461.005	3.01
461.361	2.94
461.717	3.07
462.073	3.11
462.429	3.17
462.785	3.16
463.141	3.14
463.496	3.05
463.852	3.24
464.208	3.18
464.564	3.28
464.919	3.34
465.275	3.07
465.631	3.1
465.986	3.2
466.342	3.16
466.697	3.12
467.052	3.24
467.408	3.14
467.763	3.31
468.118	3.16
468.473	2.97
468.829	3.17
469.184	3.17
469.539	3.14
469.894	3.18
470.249	3.05
470.603	3.29
470.958	3.25
471.313	3.37
471.668	3.14
472.023	3.19
472.377	3.2
472.732	3.16
473.086	3.15
473.441	3.12
473.795	3.21
474.15	3.08
474.504	3.28
474.859	3.23
475.213	3.15
475.567	3.28
475.921	3.19
476.275	3.1
476.63	3.31
476.984	3.16
477.338	3.24
477.692	3.33
478.045	3.24
478.399	3.25
478.753	3.16
479.107	3.26
479.461	3.13
479.814	3.1
480.168	3.11
480.521	3.08
480.875	3.12
481.228	3.29
481.582	3.12
481.935	3.2
482.289	3.14
482.642	3.19
482.995	3.2
483.348	3.15
483.701	3.08
484.055	3.09
484.408	2.96
484.761	2.97
485.114	2.86
485.466	2.89
485.819	2.94
486.172	3.06
486.525	3.11
486.878	3.1
487.23	3.09
487.583	3.09
487.936	3.02
488.288	3.07
488.641	3.03
488.993	3.01
489.345	3.01
489.698	3.07
490.05	3.13
490.402	3.14
490.754	3.14
491.107	3.14
491.459	3.19
491.811	3.27
492.163	3.18
492.515	3.07
492.866	3.02
493.218	3.02
493.57	3.05
493.922	3.2
494.274	3.23
494.625	3.22
494.977	3.24
495.328	3.25
495.68	3.27
496.031	3.28
496.383	3.14
496.734	3.27
497.086	3.13
497.437	3.2
497.788	3.22
498.139	3.13
498.49	3.18
498.842	3.12
499.193	3.12
499.544	3.26
499.894	3.19
500.245	3.2
500.596	3.18
500.947	3.31
501.298	3.29
501.648	3.32
501.999	3.3
502.35	3.32
502.7	3.33
503.051	3.43
503.401	3.26
503.752	3.22
504.102	3.26
504.452	3.3
504.803	3.32
505.153	3.24
505.503	3.3
505.853	3.22
506.203	3.25
506.553	3.28
506.903	3.37
507.253	3.3
507.603	3.35
507.953	3.26
508.303	3.43
508.652	3.24
509.002	3.28
509.352	3.34
509.701	3.3
510.051	3.32
510.4	3.27
510.75	3.25
511.099	3.14
511.449	3.31
511.798	3.27
512.147	3.27
512.496	3.26
512.846	3.28
513.195	3.26
513.544	3.3
513.893	3.31
514.242	3.28
514.591	3.22
514.939	3.28
515.288	3.47
515.637	3.35
515.986	3.47
516.334	3.33
516.683	3.23
517.032	3.37
517.38	3.27
517.729	3.49
518.077	3.33
518.426	3.27
518.774	3.32
519.122	3.25
519.47	3.31
519.819	3.24
520.167	3.25
520.515	3.27
520.863	3.3
521.211	3.29
521.559	3.45
521.907	3.33
522.255	3.31
522.602	3.28
522.95	3.2
523.298	3.32
523.645	3.3
523.993	3.41
524.341	3.35
524.688	3.36
525.036	3.49
525.383	3.34
525.73	3.3
526.078	3.3
526.425	3.26
526.772	3.31
527.119	3.26
527.466	3.25
527.814	3.28
528.161	3.36
528.508	3.26
528.854	3.35
529.201	3.17
529.548	3.2
529.895	3.1
530.242	3.09
530.588	3.16
530.935	3.18
531.282	3.21
531.628	3.24
531.975	3.3
532.321	3.35
532.667	3.26
533.014	3.23
533.36	3.27
533.706	3.29
534.052	3.23
534.399	3.26
534.745	3.19
535.091	3.18
535.437	3.27
535.783	3.33
536.129	3.32
536.474	3.33
536.82	3.37
537.166	3.37
537.512	3.29
537.857	3.31
538.203	3.36
538.549	3.26
538.894	3.31
539.239	3.39
539.585	3.34
539.93	3.35
540.276	3.46
540.621	3.45
540.966	3.46
541.311	3.36
541.656	3.35
542.001	3.27
542.346	3.25
542.691	3.15
543.036	3.17
543.381	3.23
543.726	3.31
544.071	3.3
544.415	3.26
544.76	3.3
545.105	3.4
545.449	3.41
545.794	3.44
546.138	3.41
546.483	3.47
546.827	3.28
547.171	3.28
547.516	3.42
547.86	3.44
548.204	3.39
548.548	3.38
548.892	3.51
549.236	3.4
549.58	3.47
549.924	3.42
550.268	3.49
550.612	3.6
550.956	3.45
551.3	3.41
551.643	3.5
551.987	3.49
552.33	3.58
552.674	3.5
553.017	3.4
553.361	3.48
553.704	3.56
554.048	3.48
554.391	3.58
554.734	3.47
555.077	3.62
555.42	3.44
555.764	3.53
556.107	3.55
556.45	3.62
556.793	3.54
557.135	3.57
557.478	3.51
557.821	3.54
558.164	3.47
558.507	3.64
558.849	3.45
559.192	3.61
559.534	3.68
559.877	3.68
560.219	3.57
560.562	3.59
560.904	3.73
561.246	3.3
561.589	3.63
561.931	3.6
562.273	3.43
562.615	3.62
562.957	3.72
563.299	3.68
563.641	3.54
563.983	3.66
564.325	3.57
564.667	3.69
565.008	3.46
565.35	3.59
565.692	3.37
566.033	3.59
566.375	3.58
566.716	3.52
567.058	3.41
567.399	3.73
567.741	3.6
568.082	3.47
568.423	3.61
568.764	3.51
569.105	3.59
569.447	3.7
569.788	3.56
570.129	3.56
570.47	3.72
570.811	3.62
571.151	3.46
571.492	3.66
571.833	3.78
572.174	3.68
572.514	3.58
572.855	3.64
573.195	3.6
573.536	3.48
573.876	3.43
574.217	3.48
574.557	3.53
574.898	3.62
575.238	3.71
575.578	3.69
575.918	3.66
576.258	3.76
576.598	3.53
576.938	3.63
577.278	3.68
577.618	3.62
577.958	3.76
578.298	3.73
578.638	3.64
578.977	3.58
579.317	3.42
579.657	3.69
579.996	3.68
580.336	3.57
580.675	3.5
581.014	3.94
581.354	3.78
581.693	3.62
582.032	3.8
582.372	3.71
582.711	3.83
583.05	3.87
583.389	3.72
583.728	3.71
584.067	3.72
584.406	3.59
584.745	3.85
585.083	3.75
585.422	3.76
585.761	3.85
586.1	3.77
586.438	3.74
586.777	3.79
587.115	3.92
587.454	3.92
587.792	3.59
588.13	3.7
588.469	3.74
588.807	3.89
589.145	3.75
589.483	3.53
589.821	3.54
590.159	3.59
590.497	3.66
590.835	3.8
591.173	3.71
591.511	3.97
591.849	3.75
592.187	3.71
592.524	3.68
592.862	3.83
593.2	3.73
593.537	3.91
593.875	3.66
594.212	3.76
594.55	3.69
594.887	3.87
595.224	3.67
595.561	3.88
595.899	3.64
596.236	4.02
596.573	3.67
596.91	3.86
597.247	3.92
597.584	3.83
597.921	3.76
598.258	3.72
598.594	3.69
598.931	3.73
599.268	3.7
599.604	3.64
599.941	3.71
600.277	3.71
600.614	3.68
600.95	3.87
601.287	3.76
601.623	3.88
601.959	3.77
602.296	3.91
602.632	3.66
602.968	4.02
603.304	3.74
603.64	3.83
603.976	3.9
604.312	3.89
604.648	3.6
604.984	3.7
605.319	3.64
605.655	3.58
605.991	3.73
606.326	3.74
606.662	3.59
606.998	3.78
607.333	3.68
607.668	3.94
608.004	3.92
608.339	3.77
608.674	4.04
609.01	3.85
609.345	3.7
609.68	4
610.015	3.94
610.35	4.07
610.685	3.76
611.02	4.02
611.355	3.81
611.689	3.83
612.024	3.82
612.359	3.71
612.694	3.81
613.028	4.06
613.363	3.8
613.697	4.15
614.032	4.09
614.366	4.11
614.7	4.34
615.035	3.86
615.369	3.9
615.703	3.77
616.037	3.83
616.371	3.71
616.705	4.22
617.039	3.91
617.373	4.29
617.707	3.98
618.041	3.99
618.375	3.77
618.709	4.11
619.042	3.73
619.376	3.97
619.71	3.67
620.043	4.17
620.377	4.09
620.71	4.11
621.043	4.24
621.377	3.71
621.71	4.07
622.043	3.92
622.376	4.27
622.709	4.27
623.043	4.16
623.376	4.25
623.709	3.97
624.041	3.6
624.374	4.14
624.707	4.14
625.04	3.94
625.373	4.15
625.705	4.02
626.038	4.03
626.37	4.11
626.703	4.19
627.035	4.32
627.368	3.9
627.7	4.08
628.032	4.08
628.365	4.03
628.697	3.92
629.029	3.88
629.361	4.15
629.693	3.87
630.025	4.01
630.357	3.87
630.689	4.26
631.021	4.12
631.353	4.07
631.684	4.42
632.016	4.09
632.348	4.17
632.679	3.9
633.011	3.78
633.342	4.34
633.674	3.75
634.005	4.43
634.336	4.22
634.668	4.11
634.999	4.04
635.33	3.97
635.661	4.34
635.992	4.11
636.323	4.35
636.654	3.82
636.985	4.13
637.316	4.34
637.647	4.07
637.977	3.89
638.308	4.08
638.639	3.65
638.969	3.96
639.3	4.13
639.63	4.19
639.961	4.51
640.291	3.94
640.622	4.09
640.952	4.23
641.282	4.49
641.612	4.12
641.943	4.16
642.273	4.6
642.603	3.83
642.933	4.14
643.263	3.76
643.592	4.01
643.922	4.56
644.252	4.22
644.582	4.23
644.911	3.82
645.241	4.65
645.571	4.49
645.9	4.37
646.23	3.85
646.559	3.95
646.888	4.01
647.218	4.11
647.547	4.29
647.876	4.51
648.205	4.43
648.534	4.25
648.863	4.19
649.192	4.23
649.521	4.65
649.85	4.45
650.179	4.5
650.508	4.25
650.837	4.19
651.165	4.41
651.494	4.5
651.822	4.38
652.151	3.98
652.479	4.33
652.808	4.82
653.136	4.63
653.465	4.05
653.793	4.51
654.121	4.35
654.449	4.1
654.777	4.08
655.105	4.24
655.433	4.48
655.761	3.89
656.089	4.37
656.417	4.17
656.745	3.87
657.073	4.53
657.4	4.27
657.728	4.73
658.056	4.04
658.383	4.49
658.711	4.64
659.038	4.29
659.365	4.46
659.693	4.05
660.02	4.21
660.347	4.39
660.674	4.05
661.001	4.22
661.329	4.17
661.656	4.47
661.982	4.02
662.309	4.18
662.636	3.87
662.963	4.15
663.29	3.8
663.616	4.42
663.943	4.05
664.27	4.58
664.596	4.01
664.923	4.45
665.249	4.68
665.576	4.25
665.902	4.37
666.228	5.08
666.554	3.84
666.881	4.24
667.207	5.05
667.533	4.59
667.859	4.8
668.185	4.63
668.511	4.07
668.837	4.23
669.162	4.89
669.488	4.66
669.814	4.13
670.139	4.42
670.465	4.61
670.791	4.02
671.116	4.75
671.442	4.7
671.767	4.51
672.092	4.58
672.418	4.27
672.743	4.52
673.068	4.34
673.393	4.31
673.718	4.72
674.043	4.67
674.368	4.28
674.693	4.37
675.018	4.78
675.343	4.16
675.667	4.39
675.992	4.18
676.317	4.33
676.641	3.7
676.966	5.29
677.29	4.87
677.615	4.38
677.939	4.89
678.264	5.08
678.588	4.91
678.912	4.57
679.236	4.95
679.56	4.22
679.885	4.46
680.209	4.45
680.532	4.17
680.856	4.38
681.18	4.43
681.504	4.29
681.828	4.94
682.152	4.46
682.475	4.54
682.799	4.31
683.122	4.48
683.446	4.69
683.769	4.21
684.093	4.96
684.416	4.82
684.739	4.82
685.062	4.97
685.386	4.72
685.709	4.98
686.032	5.19
686.355	5.27
686.678	4.39
687.001	4.74
687.324	4.6
687.646	4.78
687.969	4.39
688.292	4.36
688.614	4.82
688.937	4
689.26	4.62
689.582	4.32
689.904	4.55
690.227	4.78
690.549	4.35
690.871	4.75
691.194	4.8
691.516	5.07
691.838	5.2
692.16	5.1
692.482	4.85
692.804	4.86
693.126	5.21
693.448	5.36
693.769	5.41
694.091	5.04
694.413	4.26
694.735	4.84
695.056	4.74
695.378	4.64
695.699	4.35
696.021	5.03
696.342	4.69
696.663	4.55
696.984	5.95
697.306	4.99
697.627	4.98
697.948	4.48
698.269	4.84
698.59	4.33
698.911	3.51
699.232	4.17
699.553	4.43
699.873	4.33
700.194	4.9
700.515	5.07
700.835	4.52
701.156	5.13
701.477	5.03
701.797	4.71
702.117	4.5
702.438	4.41
702.758	4.65
703.078	4.31
703.398	5.1
703.719	5.22
704.039	4.51
704.359	4.75
704.679	4.3
704.999	3.94
705.319	5.58
705.638	5.46
705.958	5.12
706.278	4.88
706.597	4.8
706.917	5.13
707.237	4.49
707.556	3.71
707.876	5.2
708.195	5.23
708.514	4.61
708.834	5.39
709.153	5.49
709.472	6.17
709.791	5.73
710.11	5.07
710.429	4.84
710.748	5.08
711.067	4.3
711.386	5.23
711.705	4.75
712.023	6.02
712.342	4.73
712.661	4.71
712.979	5.13
713.298	5.18
713.616	4.98
713.935	4.79
714.253	5.16
714.572	5.54
714.89	5.58
715.208	4.67
715.526	5.11
715.844	5.85
716.162	5.35
716.48	4.55
716.798	4.62
717.116	5.58
717.434	4.85
717.752	4.47
718.069	5.17
718.387	5.1
718.705	5.31
719.022	5.3
719.34	6.16
719.657	5.36
719.975	5.43
720.292	6.39
720.609	3.84
720.927	5.19
721.244	4.64
721.561	5.51
721.878	4.95
722.195	5.48
722.512	6.27
722.829	5.97
723.146	5.35
723.463	4.74
723.779	5.88
724.096	5.92
724.413	6.17
724.729	5.38
725.046	6.37
725.362	6.62
725.679	6.46
725.995	6.46
726.311	6.21
726.628	5.27
726.944	6.71
727.26	6.89
727.576	5.05
727.892	4.23
728.208	5.59
728.524	5.18
728.84	5.71
729.156	6.2
729.472	5.35
729.787	5.22
730.103	5.97
730.419	6.01
730.734	5.49
731.05	5.87
731.365	5.77
731.681	5.75
731.996	5.79
732.311	6.09
732.626	4.6
732.942	7.11
733.257	5.24
733.572	5.49
733.887	5.59
734.202	5.77
734.517	5.35
734.832	6.55
735.146	5.76
735.461	4.87
735.776	5.43
736.091	5.32
736.405	5.04
736.72	5.92
737.034	5.96
737.349	5.09
737.663	6.17
737.977	5.09
738.292	4.57
738.606	5.19
738.92	4.78
739.234	7.39
739.548	6.05
739.862	4.57
740.176	6.78
740.49	5.47
740.804	5.91
741.117	4.93
741.431	5.85
741.745	5.88
742.058	6.4
742.372	8.19
742.685	4.84
742.999	5.65
743.312	5.79
743.626	6.29
743.939	5.99
744.252	4.8
744.565	6.1
744.878	6.41
745.191	6.23
745.505	5.97
745.817	5.09
746.13	6.36
746.443	5.9
746.756	5.81
747.069	5.4
747.381	6.73
747.694	4.78
748.007	5.01
748.319	6.5
748.632	5.92
748.944	5.6
749.256	8.12
749.569	4.69
749.881	7.48
750.193	6.21
750.505	4.89
750.817	5.18
751.129	6.43
751.441	5.7
751.753	4.22
752.065	6.32
752.377	6.58
752.689	5.19
753	5.72
753.312	6.71
753.624	7.17
753.935	6.08
754.247	6.01
754.558	4.74
754.869	7.11
755.181	7.67
755.492	7.11
755.803	8.21
756.114	5.75
756.425	7.76
756.736	6.41
757.047	8.04
757.358	8.03
757.669	7.49
757.98	5.17
758.291	6.58
758.601	5.12
758.912	5.95
759.223	6.15
759.533	8.32
759.844	7.3
760.154	6.83
760.464	4.81
760.775	5.27
761.085	7.49
761.395	5.18
761.705	5.61
762.016	5.72
762.326	5.7
762.636	6.93
762.945	8.06
763.255	6.75
763.565	5.97
763.875	6.42
764.185	5.45
764.494	6.51
764.804	6.78
765.113	6.15
765.423	5.91
765.732	6.1
766.042	6.99
766.351	6.14
766.66	6.65
766.97	6.07
767.279	6.77
767.588	6.8
767.897	6.26
768.206	6.8
768.515	5.4
768.824	9.29
769.133	6.05
769.441	6.02
769.75	5.56
770.059	4.62
770.367	7.51
770.676	9.25
770.984	6.4
771.293	7.46
771.601	7.27
771.91	6.86
772.218	8.16
772.526	7.21
772.834	7.04
773.142	6.69
773.45	7.29
773.758	7.54
774.066	3.86
774.374	8.57
774.682	8.62
774.99	6.33
775.298	6.45
775.605	5.13
775.913	8.01
776.22	8.92
776.528	5.32
776.835	7.8
777.143	6.18
777.45	5.5
777.757	8.18
778.065	3.77
778.372	8.6
778.679	3.83
778.986	7.8
779.293	5.88
779.6	7.85
779.907	8.83
780.214	9.87
780.52	4.99
780.827	7.51
781.134	4.96
781.44	5.09
781.747	7.03
782.053	8.57
782.36	5.44
782.666	7.35
782.973	6.93
783.279	8.74
783.585	7.87
783.891	6.52
784.197	10.09
784.503	5.26
784.809	6.54
785.115	8.4
785.421	10.93
785.727	6.38
786.033	4.43
786.339	8.11
786.644	4.5
786.95	10.66
787.255	8.17
787.561	4.41
787.866	7.95
788.172	3.77
788.477	7.65
788.782	6.94
789.088	9.44
789.393	6.12
789.698	9.87
790.003	7.92
790.308	1.6
790.613	9.9
790.918	9.83
791.223	8.52
791.527	5.95
791.832	8.13
792.137	8.59
792.441	7.09
792.746	6.74
793.05	5.07
793.355	11.3
793.659	10.72
793.963	5.21
794.268	2.05
794.572	9.2
794.876	7.85
795.18	7.63
795.484	9.35
795.788	3.79
796.092	3.64
796.396	7.92
796.7	13.19
797.004	5.09
797.307	3.93
797.611	9.56
797.915	7.91
798.218	6.2
798.522	8.81
798.825	10.58
799.128	7.22
799.432	10.36
799.735	10.14
800.038	6.45
800.341	11.34
800.644	10.34
800.947	10.21
801.25	15.46
801.553	10.2
801.856	9.79
802.159	5.84
802.462	7.55
802.764	7.41
803.067	3.72
803.37	7.55
803.672	11.21
803.975	9.18
804.277	7.28
804.579	4.61
804.882	10.92
805.184	9.99
805.486	6.84
805.788	7.54
806.09	8.18
806.392	6.16
806.694	6.17
806.996	10.13
807.298	7.51
807.6	9.91
807.902	7.98
808.203	10.09
808.505	8.33
808.807	7.96
809.108	10.7
809.409	10.2
809.711	8.74
810.012	9.6
810.313	10.12
810.615	12.63
810.916	11.36
811.217	9.49
811.518	10.98
811.819	6.36
812.12	7.21
812.421	4.44
812.722	8.55
813.023	8.88
813.323	9.07
813.624	15.14
813.925	14.5
814.225	12.38
814.526	12.26
814.826	9.68
815.126	14.22
815.427	6.15
815.727	7.98
816.027	8.57
816.327	7.85
816.627	9.03
816.927	10.14
817.227	3.71
817.527	8.56
817.827	5.52
818.127	0.12
818.427	7.37
818.727	4.67
819.026	8.79
819.326	10.53
819.625	4.85
819.925	9.6
820.224	9.73
820.524	3.89
820.823	11.45
821.122	8.7
821.421	6.11
821.72	7.36
822.019	10.67
822.318	8.33
822.617	7.92
822.916	6.91
823.215	10.62
823.514	7.7
823.813	8.2
824.111	7.32
824.41	7.15
824.709	8.75
825.007	7.74
825.306	7.62
825.604	7.42
825.902	7.66
826.201	7.52
826.499	7.02
826.797	8.2
827.095	7.1
827.393	7.56
827.691	6.28
827.989	7.1
828.287	6.82
828.585	6.44
828.882	9.78
829.18	5.2
829.478	8.4
829.775	7.85
830.073	7.37
830.37	7.21
830.668	7.21
830.965	8.79
831.263	7.93
831.56	7.13
831.857	6.96
832.154	10.14
832.451	8.7
832.748	7.59
833.045	10.04
833.342	9.91
833.639	9.34
833.936	9.98
834.232	8.39
834.529	5.45
834.826	7.05
835.122	7.95
835.419	7.94
835.715	10.57
836.012	9.55
836.308	8.61
836.604	8.68
836.901	8.36
837.197	7.08
837.493	11.72
837.789	5.56
838.085	9.5
838.381	10.57
838.677	11.81
838.972	11.44
839.268	10.18
839.564	8.3
839.86	8.55
840.155	9.72
840.451	7.59
840.746	8.9
841.042	12.69
841.337	13.35
841.632	5.47
841.928	5.12
842.223	4.49
842.518	15.87
842.813	12.5
843.108	13.22
843.403	12.15
843.698	9.34
843.993	16.23
844.287	11.64
844.582	18.18
844.877	11.93
845.171	10.4
845.466	8.85
845.761	14.67
846.055	20.53
846.349	12.21
846.644	19.53
846.938	10.2
847.232	26.17
847.526	14.39
847.82	18.82
848.114	13
848.408	18.77
848.702	15.63
848.996	22.07
849.29	12.77
849.584	1.64
849.877	6.49
850.171	5.36
850.465	21.75
850.758	21.3
851.052	6
851.345	28.8
851.638	-3.22
851.932	14.82
852.225	13.98
852.518	28.01
852.811	18.06
853.104	21.7
853.397	12.97
853.69	8.66
853.983	18.36
854.276	18.09
854.569	-0.75
854.861	38.53
855.154	36.83
855.447	9.63
855.739	9.58
856.032	10.99
856.324	4.72
856.616	19.42
856.909	13.37
857.201	26
857.493	18.12
857.785	19.55
858.077	26.41
858.369	16.77
858.661	13.29
858.953	13.03
859.245	18.9
859.537	14.08
859.829	24.9
860.12	12.15
860.412	18.05
860.703	24.02
860.995	20.82
861.286	19.92
861.578	6.2
861.869	29.99
862.16	38.73
862.452	17.42
862.743	23.52
863.034	14.07
863.325	7.32
863.616	20.04
863.907	18.98
864.198	5.35
864.488	6.06
864.779	16.82
865.07	26.87
865.36	-5.96
865.651	-7.77
865.941	16.76
866.232	21.47
866.522	41.43
866.813	24.9
867.103	34.12
867.393	26.36
867.683	3.46
867.973	25.52
868.263	13.12
868.553	22.02
868.843	20.28
869.133	22.23
869.423	21.38
869.713	31.75
870.002	28.75
870.292	26.41
870.582	31.39
870.871	1.93
871.161	12.11
871.45	14.2
871.739	-14.51
872.029	20.06
872.318	5.62
872.607	5.75
872.896	27.58
873.185	9.79
873.474	27.09
873.763	15.17
874.052	30.48
874.341	45.73
874.63	25.93
874.918	21.36
875.207	11.84
875.496	10.35
875.784	29.05
876.073	10.17
876.361	31.9
876.649	17.9
876.938	9.99
877.226	27.09
877.514	5.38
877.802	13.88
878.09	21.34
878.378	32.1
878.666	1.54
878.954	-32.46
879.242	10.36
879.53	10.14
879.817	18.61
880.105	37.55
880.392	18.91
880.68	4.27
880.967	40
881.255	22.54
881.542	9.87
881.83	35.52
882.117	52.85
882.404	8.34
882.691	7.87
882.978	7.74
883.265	11.88
883.552	18.55
883.839	10.4
884.126	17.08
884.413	4.5
884.699	18.97
884.986	12.8
885.273	13.52
885.559	13.52
885.846	13.52
