Data from 0023_crown_Reflection__3__54.txt Node

Date: Thu Oct 20 20:45:24 CDT 2022
User: ToomeyLab
Spectrometer: FLMS14357
Trigger mode: 0
Integration Time (sec): 1.000000E-2
Scans to average: 100
Electric dark correction enabled: true
Nonlinearity correction enabled: false
Boxcar width: 0
XAxis mode: Wavelengths
Number of Pixels in Spectrum: 2048
>>>>>Begin Spectral Data<<<<<
189.047	359.73
189.435	359.73
189.823	359.73
190.211	382.46
190.599	120.73
190.987	98.8
191.375	64.06
191.763	-147.7
192.151	-24.98
192.538	-220.18
192.926	67.34
193.314	-42.76
193.702	48.45
194.089	-26.85
194.477	-43.95
194.864	124.16
195.252	41.99
195.639	82.44
196.027	63.11
196.414	5.35
196.801	-750.19
197.189	-269.35
197.576	38.64
197.963	-225.62
198.351	20.06
198.738	15.15
199.125	36.46
199.512	-11.75
199.899	65.08
200.286	6.89
200.673	25.09
201.06	40.6
201.447	33.68
201.833	7.02
202.22	-4.7
202.607	31.84
202.994	23.15
203.38	-14.29
203.767	14.38
204.154	5.56
204.54	16.43
204.927	33.17
205.313	38.61
205.699	-1.5
206.086	45.66
206.472	31.3
206.858	44.4
207.245	27.08
207.631	-26.77
208.017	16.85
208.403	38.77
208.789	28.86
209.175	30.68
209.561	21.74
209.947	38.37
210.333	20.19
210.719	7.39
211.105	-12.28
211.491	-6.21
211.876	12.99
212.262	-15.23
212.648	-20.26
213.034	33.69
213.419	29.12
213.805	11.63
214.19	19.5
214.576	25.13
214.961	-0.52
215.346	7.33
215.732	1.55
216.117	39.41
216.502	19.83
216.888	19.46
217.273	31.91
217.658	26.44
218.043	-22.27
218.428	5.94
218.813	-4.08
219.198	10.98
219.583	27.18
219.968	11.55
220.353	-22.61
220.738	4.37
221.122	-1.41
221.507	2.72
221.892	-3.82
222.276	10.09
222.661	1.43
223.046	6.97
223.43	6.98
223.815	-10.55
224.199	0.63
224.583	1.53
224.968	5.47
225.352	4.75
225.736	3.37
226.121	11.12
226.505	6.03
226.889	8.84
227.273	-0.78
227.657	5.87
228.041	5.97
228.425	1.72
228.809	5.84
229.193	3.2
229.577	2.96
229.961	2.3
230.344	2.64
230.728	3.5
231.112	2.55
231.495	2.51
231.879	3.61
232.263	2.92
232.646	3.38
233.03	2.41
233.413	2.47
233.797	4.39
234.18	0.78
234.563	2.43
234.946	4.8
235.33	2.73
235.713	4.55
236.096	2.01
236.479	2.24
236.862	3.39
237.245	2.87
237.628	1.25
238.011	2.16
238.394	2.92
238.777	1.88
239.16	2.83
239.543	1.93
239.925	2.3
240.308	3.03
240.691	1.84
241.073	2.69
241.456	2.38
241.838	2.04
242.221	3.82
242.603	2.43
242.986	2.68
243.368	2.27
243.75	2.54
244.133	2.66
244.515	2.78
244.897	2.25
245.279	2.63
245.661	2.23
246.043	2.44
246.425	2.4
246.807	3.1
247.189	2.41
247.571	2
247.953	2.22
248.335	2.22
248.717	2.3
249.098	2.28
249.48	2.07
249.862	2.19
250.243	2.2
250.625	2.54
251.006	2.81
251.388	2.7
251.769	2.05
252.151	2.67
252.532	2.44
252.913	2.44
253.295	1.97
253.676	1.8
254.057	2.17
254.438	2.47
254.819	3.11
255.2	2
255.581	1.81
255.962	3.24
256.343	3.52
256.724	3.16
257.105	2.39
257.486	2.76
257.867	2.36
258.247	1.89
258.628	1.82
259.009	2.03
259.389	2.14
259.77	2.4
260.15	2.36
260.531	2.12
260.911	1.9
261.292	2.08
261.672	2.25
262.052	2.37
262.432	2.64
262.813	2.37
263.193	2.55
263.573	1.98
263.953	2.18
264.333	2.34
264.713	1.62
265.093	2.56
265.473	2.5
265.853	3.03
266.233	2.13
266.612	2.5
266.992	2.65
267.372	2.22
267.752	2.54
268.131	1.55
268.511	2.12
268.89	1.99
269.27	2.56
269.649	2.74
270.029	2.47
270.408	1.57
270.787	1.96
271.167	2.27
271.546	2.12
271.925	2.3
272.304	2.41
272.683	2.28
273.062	2.36
273.441	2.45
273.82	2.01
274.199	2.3
274.578	2.56
274.957	2.78
275.336	2.17
275.715	1.45
276.093	1.93
276.472	2.17
276.851	2.52
277.229	2.11
277.608	2.1
277.986	1.92
278.365	2.2
278.743	2.32
279.122	2.67
279.5	1.96
279.878	2.56
280.257	2.3
280.635	2.49
281.013	1.83
281.391	2.26
281.769	2.55
282.147	2.14
282.525	2.12
282.903	2.28
283.281	2.19
283.659	2.1
284.037	1.91
284.415	2.07
284.792	2.02
285.17	2.14
285.548	1.84
285.925	2.37
286.303	2.21
286.68	2.26
287.058	2.38
287.435	2.29
287.813	2.23
288.19	2.21
288.567	1.68
288.945	2.49
289.322	1.73
289.699	2.43
290.076	2.35
290.453	1.95
290.83	2.06
291.207	2.44
291.584	1.55
291.961	2.24
292.338	2
292.715	1.77
293.092	2.71
293.469	2.51
293.845	2.12
294.222	1.88
294.599	2.31
294.975	2.46
295.352	2.76
295.728	2.52
296.105	2.06
296.481	2.38
296.858	2.45
297.234	2.16
297.61	1.98
297.986	2.05
298.363	2.23
298.739	2.42
299.115	2.07
299.491	2.59
299.867	2.07
300.243	2.14
300.619	2.61
300.995	2.37
301.371	2.1
301.746	2.13
302.122	1.99
302.498	2.58
302.874	2.57
303.249	2.49
303.625	2.35
304	2.47
304.376	2.37
304.751	1.91
305.127	1.72
305.502	2.09
305.878	2.04
306.253	2.11
306.628	2.19
307.003	2.38
307.378	2.6
307.754	2.43
308.129	2.08
308.504	1.99
308.879	2.45
309.254	2.13
309.629	2.8
310.003	2.7
310.378	2.59
310.753	2.15
311.128	1.97
311.502	2.47
311.877	2.37
312.252	2.38
312.626	1.82
313.001	2.3
313.375	2.16
313.75	2.26
314.124	2.49
314.498	2.22
314.873	2.48
315.247	2.62
315.621	2.44
315.995	2.37
316.369	2.18
316.743	2.67
317.117	1.92
317.491	2.47
317.865	2.6
318.239	2.62
318.613	2.67
318.987	2.43
319.361	2.52
319.734	2.09
320.108	2.45
320.482	1.78
320.855	2.54
321.229	2.56
321.602	2.77
321.976	2.22
322.349	2.54
322.723	2.68
323.096	1.82
323.469	2.37
323.843	2.52
324.216	2.59
324.589	2.27
324.962	2.61
325.335	2.04
325.708	2.49
326.081	2.63
326.454	2.47
326.827	2.54
327.2	2.69
327.573	2.43
327.945	2.24
328.318	2.26
328.691	2.23
329.063	1.47
329.436	1.67
329.809	2.29
330.181	2.49
330.553	2.26
330.926	2.15
331.298	1.62
331.671	3.14
332.043	2.47
332.415	2.61
332.787	3.16
333.159	2.07
333.532	2.08
333.904	2.11
334.276	2.5
334.648	2.6
335.02	2.47
335.391	2.16
335.763	2.2
336.135	2.02
336.507	3.07
336.879	2.56
337.25	2.28
337.622	2.21
337.993	2.22
338.365	2.13
338.736	2.61
339.108	2.24
339.479	2.25
339.851	2.87
340.222	2.12
340.593	2.45
340.964	2.61
341.336	2.59
341.707	2.92
342.078	2.24
342.449	2.72
342.82	2.06
343.191	2.62
343.562	2.31
343.933	2.46
344.303	2.41
344.674	1.95
345.045	2.09
345.416	2.29
345.786	2.56
346.157	2.07
346.527	1.8
346.898	2.4
347.268	2.22
347.639	2.31
348.009	2.26
348.38	2.46
348.75	2.39
349.12	2.26
349.49	2.39
349.861	2.39
350.231	2.24
350.601	2.48
350.971	2.35
351.341	2.18
351.711	2.35
352.081	2.83
352.45	2.41
352.82	1.88
353.19	2.39
353.56	1.96
353.929	2.38
354.299	2.35
354.669	2.77
355.038	2.46
355.408	2.17
355.777	2.14
356.147	2.51
356.516	2.7
356.885	2.64
357.254	2.54
357.624	2.09
357.993	1.78
358.362	2.56
358.731	2.37
359.1	2.33
359.469	2.46
359.838	2.48
360.207	2.64
360.576	2.2
360.945	2.34
361.314	2.76
361.682	2.3
362.051	2.45
362.42	2.1
362.788	2
363.157	2.22
363.525	2.35
363.894	2.34
364.262	2.31
364.631	2.48
364.999	2.45
365.367	2.09
365.735	2.25
366.104	2.4
366.472	2.38
366.84	2.41
367.208	2.37
367.576	2.42
367.944	2.46
368.312	2.63
368.68	2.64
369.048	2.27
369.416	2.32
369.783	2.45
370.151	2.62
370.519	2.69
370.886	2.43
371.254	2.48
371.621	2.1
371.989	1.88
372.356	2.39
372.724	2.39
373.091	2.71
373.458	2.3
373.826	2.73
374.193	2.3
374.56	2.62
374.927	2.51
375.294	2.34
375.661	2.66
376.028	2.62
376.395	2.44
376.762	2.21
377.129	2.7
377.496	2.25
377.863	2.43
378.229	2.17
378.596	2.51
378.963	2.26
379.329	2.52
379.696	2.51
380.062	2.46
380.429	2.13
380.795	2.26
381.161	2.39
381.528	2.32
381.894	2.3
382.26	2.25
382.626	2.15
382.993	2.54
383.359	2.71
383.725	2.53
384.091	2.12
384.457	2.29
384.823	2.16
385.188	2.47
385.554	2.37
385.92	2.41
386.286	2.62
386.651	2.37
387.017	2.26
387.383	2.34
387.748	2.37
388.114	2.72
388.479	2.65
388.845	2.49
389.21	2.26
389.575	2.19
389.94	2.67
390.306	2.42
390.671	2.16
391.036	2.44
391.401	2.36
391.766	2.66
392.131	2.3
392.496	2.31
392.861	2.59
393.226	2.39
393.591	2.35
393.956	2.44
394.32	2.18
394.685	2.5
395.05	2.1
395.414	2.45
395.779	2.34
396.143	2.35
396.508	2.49
396.872	2.21
397.236	2.53
397.601	2.5
397.965	2.28
398.329	2.44
398.694	2.53
399.058	2.62
399.422	2.39
399.786	2.59
400.15	2.15
400.514	2.45
400.878	2.45
401.242	2.72
401.605	2.43
401.969	2.25
402.333	2.23
402.697	2.37
403.06	2.25
403.424	2.47
403.787	2.31
404.151	2.37
404.514	2.39
404.878	2.28
405.241	2.32
405.604	2.79
405.968	2.35
406.331	2.39
406.694	2.44
407.057	2.36
407.42	2.21
407.783	2.28
408.146	2.34
408.509	2.47
408.872	2.41
409.235	2.29
409.598	2.45
409.961	2.22
410.323	2.21
410.686	2.41
411.049	2.14
411.411	2.54
411.774	2.46
412.136	2.4
412.499	2.38
412.861	2.49
413.223	2.48
413.586	2.62
413.948	2.47
414.31	2.33
414.672	2.42
415.035	2.41
415.397	2.41
415.759	2.33
416.121	2.1
416.483	2.62
416.845	2.44
417.206	2.31
417.568	2.37
417.93	2.08
418.292	2.37
418.653	2.27
419.015	2.44
419.377	2.22
419.738	2.35
420.1	2.28
420.461	2.33
420.822	2.37
421.184	2.27
421.545	2.27
421.906	2.33
422.267	2.28
422.629	2.32
422.99	2.25
423.351	2.33
423.712	2.35
424.073	2.27
424.434	2.29
424.795	2.35
425.155	2.24
425.516	2.21
425.877	2.25
426.238	2.36
426.598	2.24
426.959	2.39
427.32	2.41
427.68	2.21
428.041	2.4
428.401	2.37
428.761	2.47
429.122	2.51
429.482	2.6
429.842	2.53
430.202	2.49
430.563	2.42
430.923	2.46
431.283	2.56
431.643	2.32
432.003	2.64
432.363	2.36
432.722	2.5
433.082	2.58
433.442	2.48
433.802	2.4
434.161	2.48
434.521	2.55
434.881	2.43
435.24	2.32
435.6	2.49
435.959	2.42
436.319	2.47
436.678	2.26
437.037	2.49
437.396	2.5
437.756	2.51
438.115	2.34
438.474	2.39
438.833	2.33
439.192	2.32
439.551	2.39
439.91	2.42
440.269	2.46
440.628	2.47
440.987	2.39
441.345	2.39
441.704	2.5
442.063	2.35
442.421	2.31
442.78	2.45
443.138	2.52
443.497	2.4
443.855	2.61
444.214	2.36
444.572	2.39
444.93	2.44
445.288	2.44
445.647	2.3
446.005	2.48
446.363	2.46
446.721	2.37
447.079	2.32
447.437	2.4
447.795	2.37
448.153	2.29
448.51	2.43
448.868	2.33
449.226	2.37
449.584	2.44
449.941	2.46
450.299	2.42
450.656	2.41
451.014	2.46
451.371	2.54
451.729	2.59
452.086	2.41
452.443	2.49
452.801	2.58
453.158	2.47
453.515	2.51
453.872	2.42
454.229	2.54
454.586	2.51
454.943	2.52
455.3	2.48
455.657	2.46
456.014	2.54
456.371	2.61
456.727	2.4
457.084	2.64
457.441	2.39
457.797	2.66
458.154	2.52
458.51	2.45
458.867	2.44
459.223	2.51
459.58	2.48
459.936	2.48
460.292	2.43
460.648	2.45
461.005	2.39
461.361	2.28
461.717	2.36
462.073	2.38
462.429	2.57
462.785	2.44
463.141	2.61
463.496	2.47
463.852	2.63
464.208	2.67
464.564	2.57
464.919	2.72
465.275	2.32
465.631	2.42
465.986	2.51
466.342	2.46
466.697	2.46
467.052	2.5
467.408	2.38
467.763	2.5
468.118	2.57
468.473	2.47
468.829	2.53
469.184	2.39
469.539	2.45
469.894	2.5
470.249	2.5
470.603	2.53
470.958	2.59
471.313	2.47
471.668	2.3
472.023	2.55
472.377	2.62
472.732	2.46
473.086	2.47
473.441	2.5
473.795	2.65
474.15	2.46
474.504	2.48
474.859	2.6
475.213	2.58
475.567	2.52
475.921	2.48
476.275	2.53
476.63	2.49
476.984	2.54
477.338	2.5
477.692	2.55
478.045	2.59
478.399	2.59
478.753	2.47
479.107	2.46
479.461	2.42
479.814	2.45
480.168	2.47
480.521	2.4
480.875	2.46
481.228	2.54
481.582	2.41
481.935	2.46
482.289	2.43
482.642	2.46
482.995	2.39
483.348	2.43
483.701	2.45
484.055	2.47
484.408	2.31
484.761	2.31
485.114	2.21
485.466	2.2
485.819	2.29
486.172	2.38
486.525	2.47
486.878	2.46
487.23	2.49
487.583	2.45
487.936	2.35
488.288	2.31
488.641	2.3
488.993	2.32
489.345	2.29
489.698	2.37
490.05	2.42
490.402	2.46
490.754	2.49
491.107	2.47
491.459	2.57
491.811	2.54
492.163	2.47
492.515	2.35
492.866	2.29
493.218	2.32
493.57	2.38
493.922	2.48
494.274	2.56
494.625	2.48
494.977	2.57
495.328	2.59
495.68	2.56
496.031	2.65
496.383	2.61
496.734	2.52
497.086	2.56
497.437	2.53
497.788	2.53
498.139	2.48
498.49	2.42
498.842	2.47
499.193	2.42
499.544	2.59
499.894	2.59
500.245	2.49
500.596	2.44
500.947	2.69
501.298	2.48
501.648	2.66
501.999	2.51
502.35	2.6
502.7	2.67
503.051	2.69
503.401	2.63
503.752	2.49
504.102	2.52
504.452	2.67
504.803	2.6
505.153	2.44
505.503	2.54
505.853	2.46
506.203	2.56
506.553	2.49
506.903	2.49
507.253	2.56
507.603	2.64
507.953	2.61
508.303	2.73
508.652	2.6
509.002	2.57
509.352	2.51
509.701	2.53
510.051	2.47
510.4	2.52
510.75	2.46
511.099	2.48
511.449	2.59
511.798	2.59
512.147	2.49
512.496	2.53
512.846	2.57
513.195	2.51
513.544	2.61
513.893	2.57
514.242	2.57
514.591	2.56
514.939	2.61
515.288	2.58
515.637	2.55
515.986	2.58
516.334	2.51
516.683	2.51
517.032	2.59
517.38	2.67
517.729	2.66
518.077	2.55
518.426	2.53
518.774	2.62
519.122	2.42
519.47	2.55
519.819	2.46
520.167	2.46
520.515	2.56
520.863	2.58
521.211	2.61
521.559	2.71
521.907	2.55
522.255	2.64
522.602	2.63
522.95	2.45
523.298	2.51
523.645	2.53
523.993	2.62
524.341	2.68
524.688	2.6
525.036	2.59
525.383	2.61
525.73	2.54
526.078	2.55
526.425	2.56
526.772	2.54
527.119	2.5
527.466	2.54
527.814	2.53
528.161	2.68
528.508	2.5
528.854	2.63
529.201	2.48
529.548	2.39
529.895	2.36
530.242	2.34
530.588	2.4
530.935	2.45
531.282	2.57
531.628	2.55
531.975	2.63
532.321	2.62
532.667	2.49
533.014	2.58
533.36	2.54
533.706	2.57
534.052	2.42
534.399	2.42
534.745	2.4
535.091	2.47
535.437	2.52
535.783	2.56
536.129	2.57
536.474	2.59
536.82	2.56
537.166	2.66
537.512	2.6
537.857	2.52
538.203	2.56
538.549	2.54
538.894	2.55
539.239	2.62
539.585	2.59
539.93	2.59
540.276	2.62
540.621	2.61
540.966	2.67
541.311	2.64
541.656	2.73
542.001	2.48
542.346	2.49
542.691	2.4
543.036	2.45
543.381	2.49
543.726	2.61
544.071	2.57
544.415	2.58
544.76	2.57
545.105	2.58
545.449	2.59
545.794	2.71
546.138	2.78
546.483	2.62
546.827	2.57
547.171	2.55
547.516	2.64
547.86	2.58
548.204	2.6
548.548	2.71
548.892	2.71
549.236	2.86
549.58	2.72
549.924	2.74
550.268	2.77
550.612	2.67
550.956	2.63
551.3	2.77
551.643	2.6
551.987	2.66
552.33	2.91
552.674	2.73
553.017	2.68
553.361	2.88
553.704	2.74
554.048	2.67
554.391	2.79
554.734	2.66
555.077	2.65
555.42	2.71
555.764	2.82
556.107	2.81
556.45	2.85
556.793	2.76
557.135	2.78
557.478	2.87
557.821	2.7
558.164	2.71
558.507	2.87
558.849	2.9
559.192	2.84
559.534	2.81
559.877	2.66
560.219	2.85
560.562	2.76
560.904	2.81
561.246	2.58
561.589	2.71
561.931	2.85
562.273	2.69
562.615	2.85
562.957	2.98
563.299	2.81
563.641	2.72
563.983	2.85
564.325	2.7
564.667	2.8
565.008	2.82
565.35	2.77
565.692	2.88
566.033	2.84
566.375	2.55
566.716	2.57
567.058	2.61
567.399	2.84
567.741	2.76
568.082	2.61
568.423	2.85
568.764	2.76
569.105	2.82
569.447	2.92
569.788	2.82
570.129	2.82
570.47	2.95
570.811	2.8
571.151	2.81
571.492	2.88
571.833	2.92
572.174	2.85
572.514	2.67
572.855	2.95
573.195	2.76
573.536	2.7
573.876	2.8
574.217	2.61
574.557	2.85
574.898	2.98
575.238	2.98
575.578	3.03
575.918	2.85
576.258	2.9
576.598	2.78
576.938	2.79
577.278	2.77
577.618	2.82
577.958	2.92
578.298	3.03
578.638	2.83
578.977	2.68
579.317	2.59
579.657	2.76
579.996	2.88
580.336	2.54
580.675	2.74
581.014	2.98
581.354	3.01
581.693	2.82
582.032	2.89
582.372	2.7
582.711	2.68
583.05	2.9
583.389	2.96
583.728	2.91
584.067	2.94
584.406	2.88
584.745	3.06
585.083	2.89
585.422	2.74
585.761	3.02
586.1	2.82
586.438	2.8
586.777	2.85
587.115	3.05
587.454	3.17
587.792	2.95
588.13	2.88
588.469	2.93
588.807	2.77
589.145	3.06
589.483	2.86
589.821	2.8
590.159	2.87
590.497	2.99
590.835	2.87
591.173	2.91
591.511	3.03
591.849	2.97
592.187	2.81
592.524	3.02
592.862	2.85
593.2	2.78
593.537	2.78
593.875	2.85
594.212	2.89
594.55	3
594.887	3.01
595.224	2.68
595.561	3.09
595.899	3.02
596.236	3.02
596.573	2.75
596.91	3.15
597.247	3
597.584	2.95
597.921	2.95
598.258	2.91
598.594	2.94
598.931	2.99
599.268	2.91
599.604	2.77
599.941	3.13
600.277	2.78
600.614	2.75
600.95	3.07
601.287	2.99
601.623	3.19
601.959	2.95
602.296	2.7
602.632	2.81
602.968	2.84
603.304	2.74
603.64	3.2
603.976	3.05
604.312	2.95
604.648	2.89
604.984	2.98
605.319	3
605.655	2.84
605.991	2.77
606.326	2.79
606.662	2.86
606.998	2.93
607.333	2.81
607.668	3.3
608.004	2.89
608.339	3.05
608.674	2.93
609.01	3.1
609.345	3
609.68	3.02
610.015	3.04
610.35	3.24
610.685	2.83
611.02	3
611.355	2.87
611.689	3.07
612.024	3.11
612.359	2.91
612.694	3.25
613.028	3.09
613.363	2.66
613.697	3.33
614.032	3
614.366	3.25
614.7	3.22
615.035	3.02
615.369	2.92
615.703	3.29
616.037	3.37
616.371	3.05
616.705	3.45
617.039	3.39
617.373	3.3
617.707	3.24
618.041	3.11
618.375	2.79
618.709	3.26
619.042	2.81
619.376	2.94
619.71	3.05
620.043	2.99
620.377	3.53
620.71	3.11
621.043	3.43
621.377	3.18
621.71	3.08
622.043	3.04
622.376	3.02
622.709	3.17
623.043	3.54
623.376	3.02
623.709	3.15
624.041	2.98
624.374	3.13
624.707	3.17
625.04	3.32
625.373	3.32
625.705	3.06
626.038	3.16
626.37	3.42
626.703	3.08
627.035	3.31
627.368	2.93
627.7	3.08
628.032	3.29
628.365	3.14
628.697	2.58
629.029	2.99
629.361	3.24
629.693	3.11
630.025	3.12
630.357	3.24
630.689	3.25
631.021	3.03
631.353	3.2
631.684	3.23
632.016	3.28
632.348	3.09
632.679	3.44
633.011	2.93
633.342	3.19
633.674	3.04
634.005	3.29
634.336	3.38
634.668	3.33
634.999	2.95
635.33	2.64
635.661	3.47
635.992	2.97
636.323	3.34
636.654	2.94
636.985	3.13
637.316	3.3
637.647	3.1
637.977	3.21
638.308	3
638.639	2.9
638.969	3.15
639.3	2.93
639.63	3.47
639.961	3.39
640.291	3.3
640.622	3.02
640.952	3.24
641.282	3.51
641.612	3.26
641.943	3.36
642.273	3.68
642.603	3.11
642.933	3.33
643.263	2.79
643.592	3.11
643.922	3.3
644.252	3.09
644.582	3.26
644.911	3.14
645.241	3.63
645.571	3.37
645.9	3.29
646.23	3.54
646.559	3.35
646.888	3.32
647.218	3.09
647.547	3.79
647.876	3.31
648.205	3.96
648.534	2.8
648.863	3.44
649.192	3.19
649.521	3.91
649.85	3.48
650.179	3.06
650.508	3.03
650.837	3.17
651.165	3.14
651.494	3.58
651.822	3.15
652.151	2.98
652.479	3.13
652.808	3.53
653.136	3.35
653.465	3.25
653.793	3.16
654.121	3.61
654.449	3.66
654.777	2.86
655.105	3.21
655.433	3.15
655.761	3.69
656.089	3.51
656.417	3.36
656.745	2.97
657.073	3.54
657.4	3.28
657.728	3.61
658.056	3.52
658.383	3.99
658.711	3.86
659.038	3.71
659.365	3.4
659.693	3.14
660.02	3.15
660.347	3.53
660.674	2.9
661.001	3.33
661.329	3.38
661.656	3.25
661.982	3.04
662.309	3.26
662.636	3.42
662.963	3.02
663.29	3.68
663.616	4
663.943	3.35
664.27	3.62
664.596	3.3
664.923	3.73
665.249	3.56
665.576	3.39
665.902	3.51
666.228	3.85
666.554	3.28
666.881	2.82
667.207	3.86
667.533	3.33
667.859	3.41
668.185	3.7
668.511	3.41
668.837	3.6
669.162	3.46
669.488	3.46
669.814	3.87
670.139	3.49
670.465	3.33
670.791	2.98
671.116	4.06
671.442	3.74
671.767	3.78
672.092	3.33
672.418	3.24
672.743	3.56
673.068	3.32
673.393	2.96
673.718	3.46
674.043	3.88
674.368	3.67
674.693	3.39
675.018	3.41
675.343	3.58
675.667	4.19
675.992	3.48
676.317	3.49
676.641	3.27
676.966	4.01
677.29	3.57
677.615	3.2
677.939	4.07
678.264	3.41
678.588	3.72
678.912	3.37
679.236	4.16
679.56	3.4
679.885	3.33
680.209	4.02
680.532	2.91
680.856	3.44
681.18	3.12
681.504	3.48
681.828	3.78
682.152	3.06
682.475	3.33
682.799	3.23
683.122	4.19
683.446	3.91
683.769	3.43
684.093	3.72
684.416	4.11
684.739	3.67
685.062	3.89
685.386	3.65
685.709	3.9
686.032	4.07
686.355	4.14
686.678	3.39
687.001	4.4
687.324	4.08
687.646	4.04
687.969	3.78
688.292	2.97
688.614	3.83
688.937	2.87
689.26	3.42
689.582	3.37
689.904	4.09
690.227	4.04
690.549	3.58
690.871	3.13
691.194	3.61
691.516	4.31
691.838	3.48
692.16	3.8
692.482	4.13
692.804	3.83
693.126	5.01
693.448	4.18
693.769	4.35
694.091	4.52
694.413	3.61
694.735	3.79
695.056	3.32
695.378	3.53
695.699	3.85
696.021	3.9
696.342	3.77
696.663	3.55
696.984	4.2
697.306	4.38
697.627	3.78
697.948	4.38
698.269	3.28
698.59	3.24
698.911	2.47
699.232	2.85
699.553	3.67
699.873	3.35
700.194	3.86
700.515	3.72
700.835	3.86
701.156	4.01
701.477	3.87
701.797	3.98
702.117	3.71
702.438	3.95
702.758	4.07
703.078	4.15
703.398	4.57
703.719	4.05
704.039	3.02
704.359	4.78
704.679	3.19
704.999	3.51
705.319	4.03
705.638	4.79
705.958	3.21
706.278	4.75
706.597	3.64
706.917	4.45
707.237	3.49
707.556	3.57
707.876	4.04
708.195	4.13
708.514	3.95
708.834	4.44
709.153	3.99
709.472	4.9
709.791	4.37
710.11	4.41
710.429	3.08
710.748	3.81
711.067	3.65
711.386	3.45
711.705	3.82
712.023	4.82
712.342	3.97
712.661	3.76
712.979	4.22
713.298	4.19
713.616	3.73
713.935	2.81
714.253	3.87
714.572	5.1
714.89	4.72
715.208	3.65
715.526	4.03
715.844	4.49
716.162	5.23
716.48	3.46
716.798	3.96
717.116	3.69
717.434	3.52
717.752	3.56
718.069	4.44
718.387	4.62
718.705	4.1
719.022	3.69
719.34	4.98
719.657	4
719.975	4.15
720.292	4.46
720.609	2.89
720.927	4.65
721.244	3.46
721.561	4.54
721.878	4.15
722.195	4.58
722.512	4.26
722.829	5.02
723.146	4.59
723.463	4.9
723.779	3.93
724.096	4.34
724.413	4.36
724.729	4.68
725.046	3.85
725.362	5.31
725.679	4.68
725.995	4.35
726.311	6.05
726.628	4.95
726.944	4.7
727.26	5.22
727.576	5.07
727.892	3.69
728.208	3.72
728.524	3.69
728.84	4.69
729.156	4.73
729.472	4.38
729.787	4.5
730.103	5.02
730.419	4.58
730.734	4.1
731.05	3.86
731.365	4.15
731.681	4.06
731.996	4.94
732.311	4.22
732.626	4.69
732.942	5.07
733.257	3.18
733.572	4.96
733.887	4.93
734.202	4.9
734.517	3.94
734.832	4.26
735.146	4.83
735.461	4.07
735.776	5.02
736.091	4.42
736.405	4.66
736.72	4.86
737.034	5.01
737.349	3.46
737.663	4.32
737.977	4.77
738.292	4.18
738.606	5.23
738.92	2.83
739.234	5.39
739.548	4.76
739.862	3.69
740.176	4.81
740.49	5.31
740.804	4.54
741.117	4.14
741.431	5.85
741.745	3.79
742.058	6.03
742.372	4.49
742.685	3.61
742.999	2.84
743.312	3.29
743.626	4.39
743.939	4.53
744.252	5.31
744.565	3.9
744.878	5.36
745.191	4.57
745.505	5.43
745.817	3.24
746.13	6.49
746.443	5.77
746.756	6.21
747.069	3.24
747.381	4.89
747.694	3.02
748.007	4.03
748.319	4.47
748.632	4.54
748.944	5.46
749.256	5.51
749.569	5.26
749.881	4.99
750.193	4.95
750.505	3.42
750.817	3.83
751.129	4.17
751.441	5.57
751.753	4.19
752.065	4.69
752.377	4.58
752.689	3.07
753	4.29
753.312	5.22
753.624	6.2
753.935	4.56
754.247	4.5
754.558	4.71
754.869	4.56
755.181	5.15
755.492	4.89
755.803	6.9
756.114	3.55
756.425	4.76
756.736	5.03
757.047	7.43
757.358	5.06
757.669	5.44
757.98	3.81
758.291	4.4
758.601	4.06
758.912	4.43
759.223	5.16
759.533	5.58
759.844	4.96
760.154	5.53
760.464	4.44
760.775	5.02
761.085	5.63
761.395	5.21
761.705	6.06
762.016	5.72
762.326	4.52
762.636	4.12
762.945	5.7
763.255	5.04
763.565	4.23
763.875	4.61
764.185	3.1
764.494	5.74
764.804	4.62
765.113	4.93
765.423	5.02
765.732	5.91
766.042	5.12
766.351	4.96
766.66	6.02
766.97	5.38
767.279	5.45
767.588	6.15
767.897	5.37
768.206	5.85
768.515	5.7
768.824	5.88
769.133	5.1
769.441	4.6
769.75	4.18
770.059	5.41
770.367	5.91
770.676	6.59
770.984	5.59
771.293	6.26
771.601	7.21
771.91	5.14
772.218	6.02
772.526	5.21
772.834	5.7
773.142	4.47
773.45	6.3
773.758	6.51
774.066	3.96
774.374	5.61
774.682	7.15
774.99	3.86
775.298	6.43
775.605	6.44
775.913	6.39
776.22	7.36
776.528	5.58
776.835	3.26
777.143	5.53
777.45	7.03
777.757	8.11
778.065	0.54
778.372	6.06
778.679	1.93
778.986	6.62
779.293	2.34
779.6	11.35
779.907	5.66
780.214	7.28
780.52	5.78
780.827	7.98
781.134	2.88
781.44	4.08
781.747	7.27
782.053	4.69
782.36	7.5
782.666	5.23
782.973	6.65
783.279	6.1
783.585	7.24
783.891	6.7
784.197	9.05
784.503	7.98
784.809	6.84
785.115	7.03
785.421	6.48
785.727	6.28
786.033	3.46
786.339	7.53
786.644	2.06
786.95	5.19
787.255	7.81
787.561	8.22
787.866	7.28
788.172	3.6
788.477	5.98
788.782	10.55
789.088	8.13
789.393	6.22
789.698	8.1
790.003	8.17
790.308	1.95
790.613	8.81
790.918	5.53
791.223	7.52
791.527	6.6
791.832	7.39
792.137	6.7
792.441	7.93
792.746	4.07
793.05	5.96
793.355	7.58
793.659	8.84
793.963	4.69
794.268	2.97
794.572	5.84
794.876	3.68
795.18	6.25
795.484	7.78
795.788	5.45
796.092	6.03
796.396	4.75
796.7	7
797.004	5.48
797.307	2.11
797.611	10.85
797.915	8.09
798.218	8.44
798.522	6.31
798.825	3.72
799.128	5.97
799.432	7.44
799.735	8.8
800.038	7.13
800.341	5.74
800.644	7.59
800.947	9.9
801.25	12.68
801.553	8.05
801.856	6.19
802.159	5.2
802.462	5.72
802.764	4.17
803.067	2.3
803.37	8.42
803.672	9.6
803.975	10.42
804.277	6.11
804.579	8.65
804.882	11.1
805.184	4.72
805.486	7.88
805.788	5.52
806.09	9.58
806.392	6.19
806.694	10.76
806.996	6.58
807.298	4.6
807.6	6.11
807.902	6.77
808.203	5.38
808.505	5.82
808.807	5.77
809.108	3.9
809.409	3.7
809.711	8.27
810.012	9.73
810.313	10.97
810.615	8.54
810.916	8.46
811.217	4.73
811.518	10.28
811.819	10.04
812.12	11.64
812.421	6.67
812.722	7.71
813.023	9.01
813.323	3.83
813.624	8.07
813.925	9.49
814.225	7.71
814.526	8.18
814.826	9.14
815.126	10.19
815.427	3.18
815.727	6.73
816.027	1.86
816.327	6.68
816.627	7.89
816.927	7.48
817.227	3.73
817.527	5.27
817.827	2.16
818.127	6.04
818.427	11.94
818.727	10.9
819.026	4.26
819.326	6.34
819.625	5.46
819.925	6.27
820.224	2.84
820.524	5.53
820.823	9.79
821.122	8.31
821.421	6.6
821.72	8.27
822.019	7.84
822.318	7.43
822.617	3.75
822.916	5.99
823.215	7.92
823.514	6.97
823.813	7.54
824.111	6.25
824.41	5.44
824.709	6.57
825.007	6.12
825.306	6.36
825.604	5.73
825.902	6.69
826.201	6.31
826.499	5.82
826.797	6.82
827.095	6.56
827.393	6.69
827.691	5.63
827.989	8.06
828.287	7.02
828.585	4.7
828.882	8.56
829.18	4.48
829.478	6.66
829.775	5.42
830.073	5.8
830.37	7.19
830.668	6.09
830.965	9.08
831.263	6.33
831.56	5.76
831.857	6.44
832.154	3.66
832.451	7.47
832.748	5.22
833.045	11.35
833.342	17.75
833.639	10.32
833.936	8.57
834.232	7.94
834.529	7.21
834.826	6.91
835.122	8.88
835.419	6.98
835.715	4.01
836.012	5.37
836.308	3.47
836.604	6.03
836.901	4.96
837.197	4.82
837.493	8.09
837.789	7.24
838.085	5.65
838.381	8.18
838.677	8.75
838.972	10.85
839.268	2.13
839.564	6.64
839.86	6.58
840.155	12.37
840.451	6.74
840.746	10.04
841.042	10.22
841.337	10.23
841.632	9.25
841.928	13.97
842.223	11.82
842.518	5.37
842.813	11.97
843.108	12.75
843.403	9.16
843.698	14.9
843.993	11.65
844.287	20.38
844.582	8.1
844.877	11.35
845.171	5.09
845.466	7.9
845.761	7.74
846.055	23.36
846.349	8.42
846.644	23.35
846.938	12.21
847.232	28.54
847.526	20.49
847.82	15.42
848.114	11.29
848.408	10.15
848.702	7.77
848.996	20.44
849.29	11.95
849.584	3.85
849.877	3.72
850.171	11.47
850.465	8.06
850.758	22.09
851.052	16.21
851.345	25.81
851.638	4.32
851.932	2.32
852.225	20.36
852.518	5.3
852.811	16.35
853.104	13.38
853.397	-3.75
853.69	0.71
853.983	11.32
854.276	19.47
854.569	8.05
854.861	23.21
855.154	17.09
855.447	11.27
855.739	35.6
856.032	23.34
856.324	16.32
856.616	32.65
856.909	22.11
857.201	18.95
857.493	7.3
857.785	-0.34
858.077	28.49
858.369	-11.83
858.661	8.1
858.953	12.07
859.245	39.25
859.537	27.88
859.829	22.4
860.12	-6.74
860.412	12.99
860.703	18.6
860.995	5.93
861.286	8.67
861.578	9.07
861.869	39.78
862.16	34.12
862.452	-4.94
862.743	14.72
863.034	0.33
863.325	0.39
863.616	20.81
863.907	18.99
864.198	13.87
864.488	0.11
864.779	18.29
865.07	25.77
865.36	8.51
865.651	2.49
865.941	26.36
866.232	1.48
866.522	24.71
866.813	10.98
867.103	14.17
867.393	15.05
867.683	6.09
867.973	28.41
868.263	-15.44
868.553	23
868.843	16.72
869.133	13.4
869.423	11.86
869.713	27.66
870.002	10.53
870.292	19.55
870.582	27.7
870.871	1.28
871.161	9.37
871.45	3.77
871.739	-33.93
872.029	25.23
872.318	34.97
872.607	13.41
872.896	26.83
873.185	21.14
873.474	22.99
873.763	28.79
874.052	43.5
874.341	2.2
874.63	20.31
874.918	38.61
875.207	17.03
875.496	-18.72
875.784	21.93
876.073	6.41
876.361	17.72
876.649	20.54
876.938	-7.51
877.226	12.7
877.514	17.23
877.802	4.28
878.09	-12.66
878.378	9.37
878.666	-8.75
878.954	-15.21
879.242	20.02
879.53	0.41
879.817	11.99
880.105	15.04
880.392	26.99
880.68	-7.22
880.967	-12.42
881.255	36.7
881.542	12.49
881.83	28.76
882.117	-4.95
882.404	0.87
882.691	8.02
882.978	18.94
883.265	0.85
883.552	13.59
883.839	4.95
884.126	4.65
884.413	6.31
884.699	10.06
884.986	6.58
885.273	16.18
885.559	16.18
885.846	16.18
