Data from 0051_crown_Reflection__2__38.txt Node

Date: Fri Dec 16 14:08:27 CST 2022
User: ToomeyLab
Spectrometer: FLMS14357
Trigger mode: 0
Integration Time (sec): 1.000000E-2
Scans to average: 100
Electric dark correction enabled: true
Nonlinearity correction enabled: false
Boxcar width: 0
XAxis mode: Wavelengths
Number of Pixels in Spectrum: 2048
>>>>>Begin Spectral Data<<<<<
189.047	97.93
189.435	97.93
189.823	97.93
190.211	156.63
190.599	-132.36
190.987	-59.13
191.375	-2.23
191.763	112.92
192.151	-44.91
192.538	68.75
192.926	-151.13
193.314	52.75
193.702	156.09
194.089	17.87
194.477	-6.3
194.864	17.7
195.252	23.7
195.639	163.83
196.027	-131.46
196.414	-160.39
196.801	1985.97
197.189	457.08
197.576	54.02
197.963	-112.86
198.351	4.38
198.738	-7.92
199.125	3.29
199.512	7.85
199.899	-15.57
200.286	-11.68
200.673	-8.57
201.06	0.57
201.447	32.3
201.833	-10.23
202.22	31.68
202.607	22.19
202.994	23.19
203.38	-48.68
203.767	-60.4
204.154	-22.05
204.54	16.55
204.927	37.06
205.313	6.93
205.699	-8.2
206.086	-9.61
206.472	6.46
206.858	17.11
207.245	17.93
207.631	9.46
208.017	15.13
208.403	12.26
208.789	16.98
209.175	60.03
209.561	27.97
209.947	4.21
210.333	-5.09
210.719	6.92
211.105	-5.79
211.491	8.49
211.876	-14.73
212.262	-18.63
212.648	-46.53
213.034	-11.54
213.419	-1.64
213.805	12.14
214.19	-21.5
214.576	-11.72
214.961	20.22
215.346	-20.22
215.732	-5.88
216.117	-21.77
216.502	20.77
216.888	-4.43
217.273	5.7
217.658	-20.31
218.043	-0.36
218.428	-29.42
218.813	5.2
219.198	-48.17
219.583	0.52
219.968	15.45
220.353	5.41
220.738	5.54
221.122	6.05
221.507	4.77
221.892	-0.14
222.276	17.41
222.661	-2.75
223.046	-0.46
223.43	1.65
223.815	6.63
224.199	14.55
224.583	3.19
224.968	3.03
225.352	-6.37
225.736	8.48
226.121	-6.52
226.505	6.48
226.889	12.03
227.273	10.31
227.657	4.14
228.041	4.68
228.425	6
228.809	4.67
229.193	3.59
229.577	3.3
229.961	4.08
230.344	4.24
230.728	4.54
231.112	3.92
231.495	2.21
231.879	4.44
232.263	3.43
232.646	2.15
233.03	1.98
233.413	4
233.797	7
234.18	1.75
234.563	1.65
234.946	3.65
235.33	5.06
235.713	3.18
236.096	3.97
236.479	5.78
236.862	3.9
237.245	5.29
237.628	4.71
238.011	4.36
238.394	4.13
238.777	5.13
239.16	3.03
239.543	2.04
239.925	4.08
240.308	4.4
240.691	3.61
241.073	2.89
241.456	2.35
241.838	3.76
242.221	4.43
242.603	3.74
242.986	3.91
243.368	3.46
243.75	3.45
244.133	3.21
244.515	3.62
244.897	3.43
245.279	3.52
245.661	3.54
246.043	4.22
246.425	3.1
246.807	3.15
247.189	3.22
247.571	3.66
247.953	3.27
248.335	3.69
248.717	3.6
249.098	3.76
249.48	3.35
249.862	3.62
250.243	3.4
250.625	2.98
251.006	3.14
251.388	4.15
251.769	3.22
252.151	3.17
252.532	3.7
252.913	3.74
253.295	3.13
253.676	3.53
254.057	3.32
254.438	2.7
254.819	3.91
255.2	3.4
255.581	2.36
255.962	3.57
256.343	3.39
256.724	3.08
257.105	3.33
257.486	3.59
257.867	2.9
258.247	3.2
258.628	4.45
259.009	3.05
259.389	3.92
259.77	3.2
260.15	3.72
260.531	2.9
260.911	3.22
261.292	3.18
261.672	3.35
262.052	3.19
262.432	3.44
262.813	3.31
263.193	2.97
263.573	2.85
263.953	2.77
264.333	3.15
264.713	2.79
265.093	2.83
265.473	4.07
265.853	2.88
266.233	2.78
266.612	3.06
266.992	3.41
267.372	2.95
267.752	2.87
268.131	3.31
268.511	3.86
268.89	3.42
269.27	3.51
269.649	3.06
270.029	3.25
270.408	2.95
270.787	3.15
271.167	3.13
271.546	2.86
271.925	3.12
272.304	3.25
272.683	2.71
273.062	3.19
273.441	3.07
273.82	3.35
274.199	3.12
274.578	2.95
274.957	3.1
275.336	2.8
275.715	3.77
276.093	3.29
276.472	3.31
276.851	3.1
277.229	3.27
277.608	2.61
277.986	3
278.365	2.31
278.743	3.28
279.122	2.49
279.5	2.88
279.878	2.41
280.257	3.06
280.635	2.56
281.013	3.84
281.391	2.73
281.769	2.65
282.147	3.06
282.525	3.15
282.903	2.92
283.281	3.27
283.659	3.26
284.037	3.05
284.415	3.38
284.792	2.86
285.17	2.91
285.548	2.46
285.925	2.69
286.303	2.91
286.68	3.1
287.058	2.82
287.435	2.56
287.813	2.79
288.19	3.2
288.567	2.83
288.945	2.64
289.322	2.68
289.699	3.02
290.076	3.32
290.453	2.68
290.83	2.81
291.207	2.59
291.584	2.7
291.961	2.9
292.338	3
292.715	3
293.092	2.93
293.469	2.71
293.845	2.9
294.222	2.49
294.599	2.93
294.975	2.91
295.352	2.56
295.728	3.15
296.105	2.84
296.481	3.36
296.858	3.07
297.234	2.93
297.61	2.9
297.986	2.8
298.363	2.43
298.739	2.97
299.115	2.5
299.491	2.49
299.867	2.97
300.243	2.78
300.619	2.75
300.995	3.23
301.371	2.83
301.746	2.47
302.122	3.09
302.498	2.67
302.874	3.21
303.249	2.85
303.625	3
304	2.19
304.376	2.95
304.751	2.56
305.127	2.63
305.502	3
305.878	2.54
306.253	2.61
306.628	2.97
307.003	2.39
307.378	2.29
307.754	2.8
308.129	2.33
308.504	2.35
308.879	3
309.254	2.67
309.629	3.24
310.003	3.11
310.378	2.9
310.753	2.85
311.128	2.86
311.502	2.52
311.877	3.03
312.252	2.68
312.626	2.75
313.001	2.43
313.375	3.12
313.75	2.85
314.124	2.88
314.498	2.73
314.873	3.34
315.247	2.59
315.621	3.15
315.995	2.62
316.369	2.56
316.743	2.89
317.117	2.44
317.491	2.93
317.865	2.92
318.239	2.95
318.613	2.45
318.987	3.36
319.361	2.9
319.734	3.1
320.108	3.05
320.482	3.16
320.855	3.01
321.229	2.75
321.602	2.45
321.976	3.07
322.349	2.02
322.723	2.45
323.096	3.14
323.469	1.99
323.843	2.84
324.216	2.02
324.589	3.07
324.962	2.67
325.335	2.92
325.708	3.24
326.081	3.16
326.454	2.79
326.827	2.82
327.2	3.22
327.573	3.15
327.945	3.09
328.318	3.15
328.691	2.98
329.063	2.87
329.436	2.79
329.809	2.32
330.181	2.89
330.553	3.29
330.926	3.16
331.298	2.57
331.671	2.84
332.043	2.92
332.415	3.2
332.787	3.31
333.159	2.8
333.532	3.11
333.904	3.1
334.276	3.37
334.648	3.1
335.02	2.43
335.391	3.06
335.763	2.93
336.135	2.93
336.507	3.02
336.879	2.39
337.25	2.85
337.622	3.11
337.993	3.37
338.365	2.91
338.736	3.11
339.108	2.83
339.479	3.08
339.851	3.27
340.222	3.19
340.593	2.57
340.964	2.79
341.336	2.7
341.707	3.11
342.078	3.02
342.449	3.12
342.82	2.7
343.191	2.94
343.562	3.1
343.933	3.2
344.303	3.34
344.674	3.28
345.045	3.3
345.416	2.97
345.786	2.89
346.157	3
346.527	2.86
346.898	3.02
347.268	3.32
347.639	3
348.009	3.52
348.38	2.53
348.75	3.35
349.12	3.35
349.49	2.88
349.861	3.05
350.231	3.66
350.601	2.76
350.971	3.04
351.341	3.37
351.711	3.35
352.081	3.06
352.45	3.43
352.82	3.31
353.19	2.72
353.56	2.81
353.929	3.05
354.299	2.86
354.669	3.17
355.038	2.88
355.408	3.18
355.777	3.29
356.147	3.24
356.516	3.53
356.885	3.1
357.254	3.22
357.624	2.93
357.993	2.98
358.362	3.17
358.731	3.36
359.1	3.35
359.469	3.22
359.838	3.22
360.207	3.11
360.576	3.23
360.945	3.02
361.314	3.31
361.682	3.01
362.051	3.15
362.42	3.48
362.788	3.11
363.157	2.95
363.525	2.95
363.894	2.96
364.262	3.07
364.631	3.84
364.999	3.19
365.367	3.38
365.735	2.91
366.104	2.94
366.472	3.36
366.84	3.16
367.208	2.82
367.576	3.19
367.944	3.67
368.312	2.77
368.68	3.35
369.048	3.51
369.416	3.06
369.783	3.15
370.151	3.25
370.519	3.05
370.886	3.28
371.254	3.23
371.621	3.43
371.989	3.21
372.356	3.39
372.724	3.44
373.091	3.08
373.458	3
373.826	3.31
374.193	3.68
374.56	3.07
374.927	3.06
375.294	3.44
375.661	3.31
376.028	3.35
376.395	3
376.762	3.35
377.129	3.58
377.496	3.07
377.863	3.59
378.229	3.32
378.596	3.19
378.963	2.95
379.329	3.32
379.696	3.18
380.062	3.37
380.429	3
380.795	3.28
381.161	3.17
381.528	2.74
381.894	3.4
382.26	3.25
382.626	3.13
382.993	3.06
383.359	3.28
383.725	3.42
384.091	3.2
384.457	3.43
384.823	3.26
385.188	3.28
385.554	3.18
385.92	3.4
386.286	3.49
386.651	3.1
387.017	3.38
387.383	3.31
387.748	3.12
388.114	3.49
388.479	3.54
388.845	3.4
389.21	3.41
389.575	3.49
389.94	3.45
390.306	3.43
390.671	3.38
391.036	3.63
391.401	3.6
391.766	3.42
392.131	3.23
392.496	3.44
392.861	3.22
393.226	3.39
393.591	3.27
393.956	3.46
394.32	3.3
394.685	3.5
395.05	3.2
395.414	3.5
395.779	3.48
396.143	3.32
396.508	3.55
396.872	3.84
397.236	2.93
397.601	3.49
397.965	3.4
398.329	3.48
398.694	3
399.058	3.48
399.422	3.33
399.786	3.4
400.15	3.49
400.514	3.33
400.878	3.47
401.242	3.42
401.605	3.36
401.969	3.38
402.333	3.55
402.697	3.52
403.06	3.46
403.424	3.29
403.787	3.61
404.151	3.45
404.514	3.29
404.878	3.52
405.241	3.52
405.604	3.41
405.968	3.42
406.331	3.38
406.694	3.25
407.057	3.7
407.42	3.42
407.783	3.28
408.146	3.39
408.509	3.39
408.872	3.43
409.235	3.52
409.598	3.34
409.961	3.64
410.323	3.36
410.686	3.46
411.049	3.34
411.411	3.55
411.774	3.35
412.136	3.48
412.499	3.28
412.861	3.21
413.223	3.46
413.586	3.42
413.948	3.28
414.31	3.49
414.672	3.36
415.035	3.57
415.397	3.43
415.759	3.48
416.121	3.52
416.483	3.68
416.845	3.47
417.206	3.51
417.568	3.24
417.93	3.33
418.292	3.5
418.653	3.41
419.015	3.38
419.377	3.47
419.738	3.33
420.1	3.39
420.461	3.27
420.822	3.5
421.184	3.3
421.545	3.31
421.906	3.38
422.267	3.24
422.629	3.32
422.99	3.32
423.351	3.43
423.712	3.42
424.073	3.57
424.434	3.31
424.795	3.21
425.155	3.34
425.516	3.28
425.877	3.37
426.238	3.39
426.598	3.47
426.959	3.41
427.32	3.4
427.68	3.45
428.041	3.47
428.401	3.36
428.761	3.47
429.122	3.24
429.482	3.48
429.842	3.52
430.202	3.5
430.563	3.39
430.923	3.41
431.283	3.31
431.643	3.47
432.003	3.34
432.363	3.44
432.722	3.47
433.082	3.38
433.442	3.46
433.802	3.46
434.161	3.25
434.521	3.45
434.881	3.47
435.24	3.43
435.6	3.54
435.959	3.45
436.319	3.29
436.678	3.5
437.037	3.36
437.396	3.47
437.756	3.33
438.115	3.25
438.474	3.38
438.833	3.6
439.192	3.55
439.551	3.5
439.91	3.48
440.269	3.52
440.628	3.32
440.987	3.31
441.345	3.39
441.704	3.39
442.063	3.41
442.421	3.42
442.78	3.3
443.138	3.4
443.497	3.4
443.855	3.29
444.214	3.38
444.572	3.39
444.93	3.52
445.288	3.48
445.647	3.45
446.005	3.28
446.363	3.39
446.721	3.21
447.079	3.27
447.437	3.31
447.795	3.36
448.153	3.36
448.51	3.3
448.868	3.5
449.226	3.45
449.584	3.3
449.941	3.51
450.299	3.41
450.656	3.51
451.014	3.39
451.371	3.5
451.729	3.44
452.086	3.34
452.443	3.44
452.801	3.61
453.158	3.38
453.515	3.4
453.872	3.53
454.229	3.33
454.586	3.44
454.943	3.37
455.3	3.49
455.657	3.33
456.014	3.38
456.371	3.58
456.727	3.32
457.084	3.42
457.441	3.4
457.797	3.36
458.154	3.47
458.51	3.36
458.867	3.27
459.223	3.44
459.58	3.45
459.936	3.35
460.292	3.43
460.648	3.24
461.005	3.28
461.361	3.32
461.717	3.35
462.073	3.44
462.429	3.48
462.785	3.44
463.141	3.47
463.496	3.4
463.852	3.61
464.208	3.42
464.564	3.39
464.919	3.33
465.275	3.42
465.631	3.52
465.986	3.3
466.342	3.46
466.697	3.36
467.052	3.48
467.408	3.33
467.763	3.44
468.118	3.37
468.473	3.58
468.829	3.33
469.184	3.46
469.539	3.33
469.894	3.57
470.249	3.44
470.603	3.36
470.958	3.57
471.313	3.3
471.668	3.41
472.023	3.49
472.377	3.28
472.732	3.45
473.086	3.26
473.441	3.49
473.795	3.62
474.15	3.37
474.504	3.41
474.859	3.52
475.213	3.46
475.567	3.41
475.921	3.54
476.275	3.44
476.63	3.41
476.984	3.52
477.338	3.69
477.692	3.32
478.045	3.41
478.399	3.27
478.753	3.27
479.107	3.37
479.461	3.42
479.814	3.26
480.168	3.4
480.521	3.37
480.875	3.44
481.228	3.5
481.582	3.31
481.935	3.4
482.289	3.28
482.642	3.44
482.995	3.44
483.348	3.35
483.701	3.37
484.055	3.18
484.408	3.21
484.761	3.04
485.114	3.03
485.466	3.08
485.819	3.21
486.172	3.34
486.525	3.36
486.878	3.32
487.23	3.39
487.583	3.29
487.936	3.31
488.288	3.2
488.641	3.16
488.993	3.12
489.345	3.18
489.698	3.28
490.05	3.3
490.402	3.41
490.754	3.43
491.107	3.37
491.459	3.34
491.811	3.35
492.163	3.32
492.515	3.19
492.866	3.09
493.218	3.14
493.57	3.29
493.922	3.33
494.274	3.42
494.625	3.41
494.977	3.37
495.328	3.52
495.68	3.59
496.031	3.37
496.383	3.43
496.734	3.53
497.086	3.27
497.437	3.37
497.788	3.33
498.139	3.39
498.49	3.45
498.842	3.35
499.193	3.4
499.544	3.41
499.894	3.39
500.245	3.39
500.596	3.35
500.947	3.47
501.298	3.35
501.648	3.4
501.999	3.52
502.35	3.49
502.7	3.48
503.051	3.45
503.401	3.44
503.752	3.53
504.102	3.29
504.452	3.24
504.803	3.32
505.153	3.46
505.503	3.42
505.853	3.4
506.203	3.36
506.553	3.44
506.903	3.4
507.253	3.44
507.603	3.43
507.953	3.47
508.303	3.47
508.652	3.38
509.002	3.39
509.352	3.33
509.701	3.37
510.051	3.44
510.4	3.43
510.75	3.38
511.099	3.31
511.449	3.39
511.798	3.5
512.147	3.4
512.496	3.52
512.846	3.39
513.195	3.37
513.544	3.33
513.893	3.3
514.242	3.45
514.591	3.38
514.939	3.34
515.288	3.41
515.637	3.51
515.986	3.33
516.334	3.49
516.683	3.46
517.032	3.31
517.38	3.46
517.729	3.33
518.077	3.47
518.426	3.27
518.774	3.37
519.122	3.37
519.47	3.33
519.819	3.28
520.167	3.3
520.515	3.32
520.863	3.45
521.211	3.38
521.559	3.42
521.907	3.43
522.255	3.35
522.602	3.4
522.95	3.49
523.298	3.43
523.645	3.35
523.993	3.61
524.341	3.45
524.688	3.38
525.036	3.54
525.383	3.46
525.73	3.38
526.078	3.35
526.425	3.39
526.772	3.14
527.119	3.27
527.466	3.3
527.814	3.33
528.161	3.38
528.508	3.37
528.854	3.22
529.201	3.19
529.548	3.13
529.895	3.09
530.242	3.11
530.588	3.22
530.935	3.29
531.282	3.39
531.628	3.37
531.975	3.3
532.321	3.38
532.667	3.43
533.014	3.32
533.36	3.29
533.706	3.34
534.052	3.24
534.399	3.18
534.745	3.17
535.091	3.25
535.437	3.38
535.783	3.47
536.129	3.43
536.474	3.45
536.82	3.36
537.166	3.41
537.512	3.32
537.857	3.26
538.203	3.25
538.549	3.36
538.894	3.3
539.239	3.41
539.585	3.45
539.93	3.4
540.276	3.36
540.621	3.27
540.966	3.35
541.311	3.31
541.656	3.3
542.001	3.26
542.346	3.2
542.691	3.14
543.036	3.17
543.381	3.24
543.726	3.37
544.071	3.41
544.415	3.33
544.76	3.31
545.105	3.36
545.449	3.38
545.794	3.41
546.138	3.5
546.483	3.35
546.827	3.3
547.171	3.3
547.516	3.43
547.86	3.27
548.204	3.25
548.548	3.35
548.892	3.39
549.236	3.42
549.58	3.43
549.924	3.52
550.268	3.53
550.612	3.47
550.956	3.38
551.3	3.52
551.643	3.51
551.987	3.37
552.33	3.36
552.674	3.44
553.017	3.53
553.361	3.43
553.704	3.33
554.048	3.47
554.391	3.42
554.734	3.41
555.077	3.38
555.42	3.35
555.764	3.42
556.107	3.38
556.45	3.49
556.793	3.58
557.135	3.52
557.478	3.56
557.821	3.4
558.164	3.33
558.507	3.31
558.849	3.46
559.192	3.47
559.534	3.49
559.877	3.57
560.219	3.57
560.562	3.47
560.904	3.46
561.246	3.6
561.589	3.43
561.931	3.55
562.273	3.43
562.615	3.45
562.957	3.47
563.299	3.38
563.641	3.55
563.983	3.55
564.325	3.42
564.667	3.42
565.008	3.24
565.35	3.5
565.692	3.46
566.033	3.59
566.375	3.24
566.716	3.35
567.058	3.46
567.399	3.36
567.741	3.41
568.082	3.33
568.423	3.42
568.764	3.45
569.105	3.47
569.447	3.35
569.788	3.45
570.129	3.35
570.47	3.48
570.811	3.52
571.151	3.46
571.492	3.58
571.833	3.49
572.174	3.32
572.514	3.39
572.855	3.46
573.195	3.24
573.536	3.32
573.876	3.41
574.217	3.47
574.557	3.49
574.898	3.32
575.238	3.32
575.578	3.51
575.918	3.34
576.258	3.46
576.598	3.39
576.938	3.52
577.278	3.34
577.618	3.36
577.958	3.48
578.298	3.43
578.638	3.4
578.977	3.57
579.317	3.49
579.657	3.38
579.996	3.31
580.336	3.43
580.675	3.44
581.014	3.51
581.354	3.49
581.693	3.49
582.032	3.32
582.372	3.55
582.711	3.42
583.05	3.52
583.389	3.48
583.728	3.47
584.067	3.44
584.406	3.56
584.745	3.33
585.083	3.61
585.422	3.42
585.761	3.59
586.1	3.33
586.438	3.31
586.777	3.45
587.115	3.53
587.454	3.5
587.792	3.35
588.13	3.56
588.469	3.64
588.807	3.4
589.145	3.52
589.483	3.18
589.821	3.39
590.159	3.46
590.497	3.17
590.835	3.58
591.173	3.45
591.511	3.46
591.849	3.43
592.187	3.31
592.524	3.36
592.862	3.27
593.2	3.52
593.537	3.46
593.875	3.51
594.212	3.47
594.55	3.4
594.887	3.43
595.224	3.32
595.561	3.62
595.899	3.39
596.236	3.54
596.573	3.31
596.91	3.59
597.247	3.29
597.584	3.42
597.921	3.36
598.258	3.44
598.594	3.14
598.931	3.33
599.268	3.41
599.604	3.55
599.941	3.47
600.277	3.57
600.614	3.58
600.95	3.65
601.287	3.69
601.623	3.48
601.959	3.41
602.296	3.64
602.632	3.74
602.968	3.57
603.304	3.43
603.64	3.34
603.976	3.25
604.312	3.55
604.648	3.45
604.984	3.3
605.319	3.33
605.655	3.5
605.991	3.25
606.326	3.19
606.662	3.3
606.998	3.36
607.333	3.42
607.668	3.67
608.004	3.29
608.339	3.35
608.674	3.51
609.01	3.59
609.345	3.81
609.68	3.51
610.015	3.53
610.35	3.4
610.685	3.34
611.02	3.45
611.355	3.5
611.689	3.23
612.024	3.55
612.359	3.58
612.694	3.65
613.028	3.83
613.363	3.33
613.697	3.51
614.032	3.55
614.366	3.28
614.7	3.63
615.035	3.04
615.369	3.43
615.703	3.74
616.037	3.32
616.371	3.53
616.705	3.45
617.039	3.53
617.373	3.45
617.707	3.43
618.041	3.44
618.375	3.32
618.709	3.56
619.042	3.61
619.376	3.39
619.71	3.4
620.043	3.23
620.377	3.67
620.71	3.62
621.043	3.45
621.377	3.25
621.71	3.57
622.043	3.45
622.376	3.18
622.709	3.59
623.043	3.77
623.376	3.83
623.709	3.56
624.041	3.54
624.374	3.53
624.707	3.52
625.04	3.81
625.373	3.49
625.705	3.77
626.038	3.55
626.37	3.68
626.703	3.48
627.035	3.36
627.368	3.48
627.7	3.41
628.032	3.52
628.365	3.27
628.697	3.41
629.029	3.8
629.361	3.37
629.693	3.49
630.025	3.58
630.357	3.5
630.689	3.74
631.021	3.45
631.353	4.07
631.684	3.55
632.016	3.24
632.348	3.67
632.679	3.42
633.011	3.12
633.342	3.04
633.674	3.53
634.005	3.61
634.336	3.32
634.668	3.51
634.999	3.74
635.33	3.46
635.661	3.44
635.992	3.34
636.323	3.58
636.654	3.55
636.985	3.34
637.316	3.38
637.647	3.57
637.977	3.41
638.308	3.31
638.639	3.24
638.969	3.64
639.3	3.43
639.63	3.47
639.961	3.06
640.291	3.93
640.622	3.66
640.952	3.56
641.282	3.05
641.612	3.4
641.943	3.63
642.273	3.48
642.603	3.92
642.933	3.45
643.263	3.63
643.592	3.13
643.922	3.99
644.252	3.73
644.582	3.56
644.911	3.34
645.241	3.17
645.571	3.9
645.9	3.97
646.23	3.33
646.559	3.86
646.888	3.57
647.218	3.52
647.547	3.4
647.876	3.65
648.205	3.39
648.534	3.33
648.863	3.4
649.192	3.37
649.521	3.34
649.85	3.92
650.179	3.5
650.508	3.85
650.837	3.25
651.165	4
651.494	3.19
651.822	3.72
652.151	4.07
652.479	4.19
652.808	3.55
653.136	3.43
653.465	3.47
653.793	3.81
654.121	3.88
654.449	3.76
654.777	3.4
655.105	3.76
655.433	4.12
655.761	3.29
656.089	3.96
656.417	3.28
656.745	4.2
657.073	4.05
657.4	3.78
657.728	3.6
658.056	3.38
658.383	3.44
658.711	3.25
659.038	3.94
659.365	3.68
659.693	3.59
660.02	3.31
660.347	3.61
660.674	3.42
661.001	3.12
661.329	3.26
661.656	3.34
661.982	3.6
662.309	3.76
662.636	3.06
662.963	3.64
663.29	3.61
663.616	3.86
663.943	3.79
664.27	3.77
664.596	3.97
664.923	3.85
665.249	3.57
665.576	3.62
665.902	3.69
666.228	3.15
666.554	3.61
666.881	3.78
667.207	3.19
667.533	3.85
667.859	3.1
668.185	3.33
668.511	3.62
668.837	3.01
669.162	3.48
669.488	3.65
669.814	3.9
670.139	3.85
670.465	3.63
670.791	3.81
671.116	3.23
671.442	3.67
671.767	3.38
672.092	3.6
672.418	3.63
672.743	3.51
673.068	3.4
673.393	3.49
673.718	3.41
674.043	4.18
674.368	4.36
674.693	3.96
675.018	3.97
675.343	3.51
675.667	3.31
675.992	2.87
676.317	3.52
676.641	3.24
676.966	4
677.29	3
677.615	3.76
677.939	3.75
678.264	3.9
678.588	4.09
678.912	3.77
679.236	3.24
679.56	3.07
679.885	3.51
680.209	2.8
680.532	3.38
680.856	3.98
681.18	3.54
681.504	3.43
681.828	3.12
682.152	3.26
682.475	3.94
682.799	3.91
683.122	3.62
683.446	3.48
683.769	3.84
684.093	3.6
684.416	3.23
684.739	4.22
685.062	3.47
685.386	3.59
685.709	3.59
686.032	3.64
686.355	3.99
686.678	4.42
687.001	2.74
687.324	3.51
687.646	3.83
687.969	3.22
688.292	4.14
688.614	4.49
688.937	3.57
689.26	3.18
689.582	3.86
689.904	3.92
690.227	3.65
690.549	3.7
690.871	3.73
691.194	3.66
691.516	3.4
691.838	3.46
692.16	4.14
692.482	3.74
692.804	3.55
693.126	3.32
693.448	3.75
693.769	3.28
694.091	4.38
694.413	4.57
694.735	3.5
695.056	4.07
695.378	4.6
695.699	4.73
696.021	4.29
696.342	3.76
696.663	4.19
696.984	4.11
697.306	3.5
697.627	3.15
697.948	4.09
698.269	3.61
698.59	4.28
698.911	3.35
699.232	4.72
699.553	3.39
699.873	3.62
700.194	3.98
700.515	3.56
700.835	4.32
701.156	3.69
701.477	3.95
701.797	4.23
702.117	4.28
702.438	4.04
702.758	3.71
703.078	4.21
703.398	3.85
703.719	2.65
704.039	4.43
704.359	3.83
704.679	3.41
704.999	3.72
705.319	4.39
705.638	4.66
705.958	4.28
706.278	3.43
706.597	4.59
706.917	3.88
707.237	4.6
707.556	4
707.876	4.36
708.195	3.67
708.514	3.51
708.834	4.27
709.153	4.65
709.472	4.5
709.791	4.16
710.11	4.06
710.429	3.36
710.748	4.06
711.067	4.66
711.386	5.41
711.705	4.33
712.023	4.01
712.342	3.66
712.661	4.8
712.979	5.18
713.298	3.99
713.616	4.94
713.935	3.67
714.253	4.5
714.572	3.13
714.89	3.67
715.208	4.58
715.526	3.54
715.844	3.58
716.162	3.73
716.48	3.47
716.798	4.54
717.116	4.56
717.434	4.88
717.752	3.34
718.069	4.09
718.387	4.19
718.705	3.11
719.022	4.29
719.34	3.96
719.657	3.74
719.975	3.75
720.292	4.08
720.609	4.56
720.927	4.79
721.244	5.49
721.561	3.81
721.878	5.31
722.195	4.36
722.512	3.84
722.829	3.78
723.146	4.39
723.463	4.04
723.779	3.03
724.096	4.4
724.413	3.6
724.729	5.29
725.046	4.34
725.362	3.82
725.679	5.42
725.995	4.31
726.311	3.82
726.628	3.58
726.944	4.65
727.26	3.18
727.576	4.43
727.892	3.57
728.208	4.14
728.524	3.8
728.84	4.22
729.156	4.58
729.472	6.05
729.787	4.71
730.103	4.13
730.419	4.35
730.734	4.65
731.05	3.97
731.365	4.91
731.681	3.89
731.996	3.2
732.311	4.99
732.626	4.48
732.942	3.8
733.257	5.28
733.572	4.71
733.887	4.3
734.202	5.45
734.517	4.11
734.832	4.65
735.146	3.5
735.461	4.35
735.776	5.58
736.091	5.02
736.405	4.3
736.72	5
737.034	3.37
737.349	3.93
737.663	3.79
737.977	5.08
738.292	4.73
738.606	4.85
738.92	5.56
739.234	5.56
739.548	5.53
739.862	4.83
740.176	4.82
740.49	5.98
740.804	4.29
741.117	4.07
741.431	3.1
741.745	4.88
742.058	3.42
742.372	3.12
742.685	3.31
742.999	4.33
743.312	4
743.626	2.94
743.939	4.25
744.252	3.77
744.565	4.83
744.878	5.1
745.191	4.47
745.505	3.32
745.817	4.08
746.13	3.45
746.443	4.26
746.756	2.96
747.069	5.97
747.381	5.17
747.694	3.25
748.007	6.16
748.319	6.13
748.632	2.95
748.944	3.85
749.256	6.36
749.569	4.34
749.881	2.93
750.193	4.51
750.505	4.97
750.817	3.39
751.129	5.1
751.441	4.27
751.753	4.2
752.065	4.34
752.377	4.82
752.689	5.17
753	4.04
753.312	4.22
753.624	4.79
753.935	3.02
754.247	4.42
754.558	5.82
754.869	6.06
755.181	6.05
755.492	6.17
755.803	4.77
756.114	4.12
756.425	4.3
756.736	2.74
757.047	6.68
757.358	5.45
757.669	5.8
757.98	3.35
758.291	5.76
758.601	4.16
758.912	3.21
759.223	5.64
759.533	6.55
759.844	3.5
760.154	3.7
760.464	4.4
760.775	6.29
761.085	3.79
761.395	5.49
761.705	5.91
762.016	3.62
762.326	3.15
762.636	3.69
762.945	3.72
763.255	7.4
763.565	4.68
763.875	5.69
764.185	4.56
764.494	3.34
764.804	4.77
765.113	4.68
765.423	4.82
765.732	5.03
766.042	5.33
766.351	4.3
766.66	4.18
766.97	4.47
767.279	6.58
767.588	5.9
767.897	5.08
768.206	4.3
768.515	4.2
768.824	4.09
769.133	3.83
769.441	6.27
769.75	4.53
770.059	3.71
770.367	2.4
770.676	5.08
770.984	5.82
771.293	4.47
771.601	3
771.91	5.94
772.218	2.73
772.526	5.86
772.834	5.43
773.142	3.66
773.45	0.82
773.758	4.87
774.066	3.08
774.374	2.13
774.682	3.58
774.99	5.22
775.298	4.22
775.605	4.78
775.913	6.17
776.22	3.26
776.528	1.47
776.835	4.4
777.143	7.82
777.45	5
777.757	4.24
778.065	8.14
778.372	5.19
778.679	6.46
778.986	5.19
779.293	6.41
779.6	3.31
779.907	4.22
780.214	3.39
780.52	9.19
780.827	7.56
781.134	5.03
781.44	1.24
781.747	5.46
782.053	7
782.36	4.86
782.666	4.74
782.973	6.57
783.279	2.87
783.585	5.72
783.891	6.31
784.197	3.58
784.503	9.16
784.809	4.39
785.115	-0.46
785.421	5.49
785.727	4.14
786.033	1.9
786.339	6.61
786.644	4.19
786.95	8.3
787.255	7.43
787.561	3.73
787.866	4.99
788.172	1.58
788.477	5.51
788.782	2.98
789.088	8.24
789.393	4.43
789.698	4.12
790.003	6.8
790.308	6.82
790.613	5.98
790.918	4.36
791.223	5.92
791.527	7.99
791.832	5.43
792.137	5
792.441	5.32
792.746	3.77
793.05	7.45
793.355	8.05
793.659	6.49
793.963	6.75
794.268	1.45
794.572	9.69
794.876	6.1
795.18	0.42
795.484	3.67
795.788	4.15
796.092	2.37
796.396	5.31
796.7	6.26
797.004	6.74
797.307	4.47
797.611	3.91
797.915	6.55
798.218	4.63
798.522	2.86
798.825	7.67
799.128	6.85
799.432	7.97
799.735	3.08
800.038	1.24
800.341	2.99
800.644	6.84
800.947	7.36
801.25	4.78
801.553	3.76
801.856	3.24
802.159	0.83
802.462	2.92
802.764	2.77
803.067	0.06
803.37	4.6
803.672	4.29
803.975	5.46
804.277	9.97
804.579	5.49
804.882	0.7
805.184	1.97
805.486	2.54
805.788	8.19
806.09	1.24
806.392	5.41
806.694	4.85
806.996	6.95
807.298	4.53
807.6	6.28
807.902	6.8
808.203	5.93
808.505	4.19
808.807	9.51
809.108	2.37
809.409	7.64
809.711	4.25
810.012	5.09
810.313	8.95
810.615	6.3
810.916	5.68
811.217	6.89
811.518	8.97
811.819	1.86
812.12	4.06
812.421	6.03
812.722	5.39
813.023	7.9
813.323	11.68
813.624	6.53
813.925	7.45
814.225	5.34
814.526	9.81
814.826	8.79
815.126	11.36
815.427	8.32
815.727	7.99
816.027	5.61
816.327	-0.76
816.627	-0.29
816.927	0.37
817.227	3.07
817.527	1
817.827	9.38
818.127	4.32
818.427	-2.08
818.727	7.9
819.026	9.25
819.326	9.79
819.625	3.24
819.925	8.94
820.224	4.71
820.524	4.6
820.823	2.77
821.122	2.56
821.421	3.47
821.72	5.81
822.019	3.49
822.318	8.15
822.617	5.62
822.916	3.46
823.215	5.25
823.514	4.3
823.813	6.15
824.111	6.02
824.41	5.46
824.709	6.85
825.007	5.87
825.306	6.05
825.604	7.71
825.902	6.28
826.201	6.37
826.499	5.82
826.797	7.07
827.095	5.4
827.393	6.37
827.691	7.63
827.989	7.52
828.287	8.77
828.585	4.87
828.882	7.11
829.18	5.4
829.478	6.03
829.775	8.6
830.073	6.8
830.37	7.17
830.668	7.07
830.965	5.07
831.263	6.69
831.56	10.37
831.857	10.36
832.154	6.9
832.451	9.77
832.748	6.46
833.045	11.76
833.342	9.57
833.639	4.07
833.936	1.3
834.232	6.64
834.529	8.32
834.826	0.62
835.122	9.9
835.419	2.36
835.715	1.32
836.012	4.93
836.308	9.94
836.604	5.06
836.901	10.59
837.197	7.31
837.493	2.92
837.789	5.33
838.085	6.28
838.381	4.8
838.677	6.61
838.972	5.12
839.268	6.83
839.564	5.88
839.86	1.89
840.155	11.61
840.451	2.23
840.746	5.93
841.042	-6.8
841.337	0.04
841.632	14.7
841.928	10.54
842.223	3.27
842.518	9.28
842.813	6.14
843.108	0.58
843.403	8.1
843.698	8.05
843.993	-1.05
844.287	8.13
844.582	9.78
844.877	16.86
845.171	6.59
845.466	-2.49
845.761	3.9
846.055	5.43
846.349	-5.33
846.644	7.71
846.938	-10.93
847.232	-5.42
847.526	5.12
847.82	1.54
848.114	-2.82
848.408	7.01
848.702	13.39
848.996	-3.35
849.29	10.7
849.584	4.93
849.877	22.67
850.171	-2.02
850.465	-0.04
850.758	-11.73
851.052	21.27
851.345	8.51
851.638	7.91
851.932	7.91
852.225	0.18
852.518	17.43
852.811	5.67
853.104	2.17
853.397	3.11
853.69	15.8
853.983	6.92
854.276	-2.46
854.569	4.49
854.861	-4.19
855.154	15.52
855.447	5.33
855.739	10.26
856.032	3.17
856.324	-6.22
856.616	18.15
856.909	23.09
857.201	14.62
857.493	21.85
857.785	6.22
858.077	8.15
858.369	9.93
858.661	15.94
858.953	7.75
859.245	-2.71
859.537	21.5
859.829	20.42
860.12	7.9
860.412	-2.23
860.703	17.07
860.995	14.49
861.286	10.38
861.578	-1.39
861.869	-7.88
862.16	10.02
862.452	10.86
862.743	33.96
863.034	28.24
863.325	10.03
863.616	16.33
863.907	12.92
864.198	29.55
864.488	-10.53
864.779	-3.91
865.07	11.16
865.36	8.2
865.651	5.61
865.941	15.75
866.232	7.33
866.522	10.24
866.813	23.31
867.103	4.25
867.393	-21.6
867.683	4.94
867.973	-18.53
868.263	11.2
868.553	10.02
868.843	-18.35
869.133	16.01
869.423	5.46
869.713	21.81
870.002	-1.44
870.292	-23.52
870.582	-0.19
870.871	10.59
871.161	-3.29
871.45	14.47
871.739	-27.54
872.029	0.6
872.318	16.44
872.607	25.4
872.896	16.92
873.185	24.66
873.474	8.67
873.763	6.21
874.052	8.67
874.341	-62.21
874.63	5.7
874.918	4.4
875.207	10.1
875.496	25.07
875.784	10.06
876.073	6.18
876.361	-10.21
876.649	9.75
876.938	21.9
877.226	3.1
877.514	-17.6
877.802	18.46
878.09	-21
878.378	8.74
878.666	-4.46
878.954	15.66
879.242	2.12
879.53	-9.92
879.817	-3.13
880.105	-12.8
880.392	-1.17
880.68	-2.54
880.967	21.97
881.255	6.88
881.542	10.02
881.83	3.53
882.117	26.47
882.404	6.89
882.691	-1.67
882.978	-11.7
883.265	7.13
883.552	6.07
883.839	10.86
884.126	8.72
884.413	7.5
884.699	11.7
884.986	8.72
885.273	3.64
885.559	3.64
885.846	3.64
