Data from 0051_forehead_Reflection__2__43.txt Node

Date: Fri Dec 16 14:09:38 CST 2022
User: ToomeyLab
Spectrometer: FLMS14357
Trigger mode: 0
Integration Time (sec): 1.000000E-2
Scans to average: 100
Electric dark correction enabled: true
Nonlinearity correction enabled: false
Boxcar width: 0
XAxis mode: Wavelengths
Number of Pixels in Spectrum: 2048
>>>>>Begin Spectral Data<<<<<
189.047	51.56
189.435	51.56
189.823	51.56
190.211	-10.01
190.599	-45.56
190.987	-69.3
191.375	86.15
191.763	128.35
192.151	137.72
192.538	25.71
192.926	-124.33
193.314	50.64
193.702	-18.23
194.089	115.21
194.477	-9.62
194.864	-41.56
195.252	29.83
195.639	113.12
196.027	373.71
196.414	245.36
196.801	1515.38
197.189	1390.2
197.576	16.56
197.963	70.37
198.351	13.6
198.738	-14.41
199.125	24.31
199.512	-7.89
199.899	3.58
200.286	-17.54
200.673	47.02
201.06	45.74
201.447	35.89
201.833	8.68
202.22	38.11
202.607	5.25
202.994	39.62
203.38	11.83
203.767	4.05
204.154	-7.53
204.54	40.63
204.927	18.3
205.313	58.08
205.699	5
206.086	21.51
206.472	-3.18
206.858	2.14
207.245	8.1
207.631	25.47
208.017	34.8
208.403	28.96
208.789	17.08
209.175	23.68
209.561	17.37
209.947	15.74
210.333	31.71
210.719	14.02
211.105	-2.75
211.491	20.17
211.876	13.69
212.262	20.2
212.648	13.53
213.034	32.63
213.419	39.27
213.805	7.95
214.19	-6.37
214.576	-13.93
214.961	15.86
215.346	10.62
215.732	3.45
216.117	10.88
216.502	22.92
216.888	-6.71
217.273	13.1
217.658	-9.65
218.043	-2.37
218.428	10.08
218.813	0.17
219.198	4.12
219.583	3.07
219.968	24.68
220.353	8.13
220.738	5.99
221.122	12.56
221.507	13.29
221.892	14.71
222.276	16.84
222.661	5.69
223.046	6.28
223.43	7.61
223.815	12
224.199	11.43
224.583	14.54
224.968	10.14
225.352	7.06
225.736	10.25
226.121	-4.74
226.505	7.02
226.889	10.66
227.273	5.54
227.657	0.56
228.041	5.15
228.425	3.42
228.809	2.23
229.193	1.78
229.577	2.4
229.961	3.42
230.344	2.52
230.728	3.21
231.112	2.44
231.495	3.55
231.879	4.08
232.263	2.35
232.646	1.52
233.03	1.3
233.413	2.11
233.797	4.91
234.18	3.26
234.563	2.76
234.946	3.22
235.33	2.76
235.713	2.69
236.096	3.28
236.479	3.49
236.862	6.15
237.245	4.57
237.628	4.31
238.011	3.2
238.394	5.25
238.777	4.32
239.16	1.23
239.543	2.24
239.925	2.38
240.308	3.44
240.691	4.14
241.073	2.4
241.456	2.81
241.838	3.45
242.221	2.98
242.603	2.95
242.986	3.92
243.368	2.65
243.75	2.54
244.133	2.61
244.515	3.22
244.897	2.89
245.279	2.8
245.661	2.71
246.043	4.07
246.425	3.1
246.807	3.64
247.189	2.69
247.571	2.86
247.953	2.94
248.335	3.06
248.717	2.85
249.098	2.78
249.48	2.74
249.862	3.46
250.243	2.77
250.625	3.03
251.006	4.12
251.388	4.03
251.769	3.69
252.151	4.07
252.532	3.62
252.913	3.27
253.295	3.18
253.676	2.97
254.057	2.73
254.438	2.56
254.819	3.21
255.2	3.47
255.581	2.81
255.962	3.66
256.343	3.78
256.724	2.63
257.105	3.27
257.486	3.31
257.867	1.31
258.247	3.4
258.628	3.49
259.009	2.7
259.389	3.47
259.77	2.48
260.15	3.47
260.531	3.16
260.911	2.92
261.292	2.78
261.672	2.75
262.052	2.71
262.432	2.47
262.813	3.15
263.193	2.25
263.573	3.05
263.953	2.82
264.333	2.73
264.713	2.52
265.093	3.15
265.473	3.73
265.853	2.69
266.233	3.17
266.612	3.57
266.992	2.59
267.372	3.13
267.752	2.87
268.131	3.01
268.511	2.9
268.89	3.47
269.27	3.13
269.649	2.98
270.029	3.15
270.408	2.99
270.787	2.74
271.167	2.96
271.546	2.33
271.925	2.65
272.304	3.43
272.683	2.66
273.062	3.04
273.441	3.51
273.82	2.86
274.199	3.06
274.578	2.68
274.957	2.77
275.336	2.54
275.715	2.55
276.093	3.15
276.472	3.23
276.851	3.35
277.229	3.44
277.608	2.47
277.986	3.04
278.365	2.73
278.743	2.76
279.122	2.31
279.5	2.54
279.878	2.48
280.257	3.13
280.635	2.56
281.013	3.4
281.391	2.75
281.769	2.75
282.147	2.86
282.525	3.06
282.903	3.17
283.281	2.54
283.659	2.9
284.037	2.74
284.415	2.78
284.792	2.96
285.17	2.56
285.548	2.49
285.925	2.58
286.303	2.78
286.68	3
287.058	2.44
287.435	2.71
287.813	2.98
288.19	3.36
288.567	2.57
288.945	2.9
289.322	2.84
289.699	2.54
290.076	3.17
290.453	3.07
290.83	2.77
291.207	2.85
291.584	2.6
291.961	3.04
292.338	3.11
292.715	2.91
293.092	2.84
293.469	3.59
293.845	3.11
294.222	2.58
294.599	3.6
294.975	3.26
295.352	3.03
295.728	3.29
296.105	2.95
296.481	3.61
296.858	3.52
297.234	3.28
297.61	3.27
297.986	3.02
298.363	3.01
298.739	3.42
299.115	2.93
299.491	3.21
299.867	3.41
300.243	3.25
300.619	3.15
300.995	3.35
301.371	3.31
301.746	3.37
302.122	3.56
302.498	3.61
302.874	3.68
303.249	4.14
303.625	3.46
304	3.12
304.376	4.1
304.751	3.78
305.127	3.62
305.502	4.19
305.878	3.49
306.253	3.85
306.628	4.05
307.003	3.58
307.378	3.73
307.754	3.73
308.129	3.48
308.504	3.64
308.879	4.14
309.254	4.3
309.629	4.06
310.003	4.46
310.378	4.49
310.753	3.98
311.128	3.76
311.502	4.12
311.877	4.23
312.252	4.29
312.626	3.92
313.001	4.33
313.375	4.19
313.75	4.34
314.124	4.73
314.498	4.48
314.873	4.57
315.247	4.57
315.621	4.92
315.995	4.43
316.369	4.8
316.743	4.74
317.117	4.91
317.491	4.85
317.865	4.29
318.239	5.44
318.613	4.41
318.987	4.98
319.361	4.9
319.734	4.91
320.108	5.05
320.482	5.08
320.855	5.45
321.229	5.26
321.602	5.13
321.976	5.16
322.349	4.43
322.723	4.71
323.096	5.16
323.469	5.13
323.843	5.4
324.216	4.97
324.589	5.5
324.962	5.55
325.335	5.4
325.708	6.05
326.081	5.9
326.454	5.49
326.827	5.72
327.2	5.82
327.573	5.79
327.945	5.51
328.318	5.84
328.691	5.9
329.063	5.87
329.436	5.45
329.809	5.07
330.181	5.91
330.553	5.83
330.926	5.93
331.298	5.63
331.671	5.63
332.043	6.24
332.415	6.07
332.787	6.31
333.159	5.71
333.532	5.91
333.904	5.56
334.276	6.16
334.648	5.99
335.02	5.61
335.391	6.33
335.763	6.02
336.135	6.24
336.507	6.22
336.879	6.62
337.25	6.33
337.622	6.37
337.993	6.78
338.365	6.74
338.736	6.11
339.108	6.03
339.479	6.33
339.851	6.57
340.222	6.91
340.593	5.99
340.964	6.44
341.336	6.48
341.707	6.4
342.078	6.61
342.449	6.72
342.82	6.79
343.191	6.33
343.562	6.56
343.933	6.7
344.303	6.68
344.674	7.09
345.045	7.2
345.416	6.66
345.786	6.72
346.157	6.91
346.527	6.88
346.898	6.89
347.268	6.74
347.639	6.59
348.009	7.04
348.38	6.78
348.75	6.93
349.12	6.92
349.49	7.01
349.861	7.39
350.231	7.18
350.601	7.14
350.971	7.23
351.341	7.03
351.711	7.14
352.081	7.04
352.45	7.05
352.82	7.11
353.19	7.13
353.56	7.19
353.929	7.11
354.299	7.1
354.669	7.18
355.038	7.41
355.408	8.05
355.777	7.69
356.147	7.64
356.516	7.83
356.885	7.32
357.254	7.43
357.624	7.51
357.993	7.5
358.362	7.88
358.731	7.71
359.1	7.91
359.469	7.56
359.838	7.54
360.207	7.9
360.576	7.97
360.945	7.62
361.314	7.92
361.682	8
362.051	7.86
362.42	8.02
362.788	7.88
363.157	7.85
363.525	7.94
363.894	7.57
364.262	7.7
364.631	8.74
364.999	7.89
365.367	8.36
365.735	7.87
366.104	7.93
366.472	8.14
366.84	8.4
367.208	8.21
367.576	8.4
367.944	8.57
368.312	8.54
368.68	8.19
369.048	8.59
369.416	8.49
369.783	8.49
370.151	8.9
370.519	8.4
370.886	8.34
371.254	8.59
371.621	8.18
371.989	8.66
372.356	8.58
372.724	8.71
373.091	8.64
373.458	8.78
373.826	8.89
374.193	9.46
374.56	8.9
374.927	8.52
375.294	8.88
375.661	9.12
376.028	8.99
376.395	8.59
376.762	9.14
377.129	9.36
377.496	9.26
377.863	9
378.229	9.18
378.596	9.14
378.963	8.95
379.329	9
379.696	9.21
380.062	9.66
380.429	9.08
380.795	9.06
381.161	9.39
381.528	9.18
381.894	9.37
382.26	9.43
382.626	9.53
382.993	9.4
383.359	9.53
383.725	9.99
384.091	9.59
384.457	9.77
384.823	9.73
385.188	9.72
385.554	9.88
385.92	10.23
386.286	9.84
386.651	9.82
387.017	9.88
387.383	9.86
387.748	9.72
388.114	10.15
388.479	9.87
388.845	9.92
389.21	10.01
389.575	10.08
389.94	10.1
390.306	10
390.671	10
391.036	10.41
391.401	10.57
391.766	10.47
392.131	10.45
392.496	10.32
392.861	10.16
393.226	10.38
393.591	10.48
393.956	10.29
394.32	10.26
394.685	10.43
395.05	10.37
395.414	10.45
395.779	10.43
396.143	10.49
396.508	10.56
396.872	10.49
397.236	10.54
397.601	11.26
397.965	10.45
398.329	10.9
398.694	10.7
399.058	10.99
399.422	11.02
399.786	11.01
400.15	11.06
400.514	10.95
400.878	10.9
401.242	11.14
401.605	11.29
401.969	11.18
402.333	11.17
402.697	11.17
403.06	11.26
403.424	11.3
403.787	11.3
404.151	11.15
404.514	11.42
404.878	11.42
405.241	11.45
405.604	11.33
405.968	11.33
406.331	11.67
406.694	11.6
407.057	11.51
407.42	11.57
407.783	11.67
408.146	11.51
408.509	11.54
408.872	11.56
409.235	11.91
409.598	12
409.961	12.03
410.323	11.81
410.686	11.86
411.049	11.9
411.411	11.92
411.774	11.73
412.136	11.9
412.499	11.98
412.861	11.84
413.223	12.23
413.586	11.82
413.948	12
414.31	12.35
414.672	12.01
415.035	12.2
415.397	12.45
415.759	12.36
416.121	12.56
416.483	12.49
416.845	12.38
417.206	12.48
417.568	12.51
417.93	12.4
418.292	12.33
418.653	12.45
419.015	12.43
419.377	12.46
419.738	12.45
420.1	12.25
420.461	12.32
420.822	12.5
421.184	12.49
421.545	12.44
421.906	12.47
422.267	12.37
422.629	12.38
422.99	12.47
423.351	12.68
423.712	12.64
424.073	12.92
424.434	12.57
424.795	12.73
425.155	12.69
425.516	12.66
425.877	12.73
426.238	12.61
426.598	12.85
426.959	12.87
427.32	12.98
427.68	13.14
428.041	13.07
428.401	13.27
428.761	13.29
429.122	13.2
429.482	13.2
429.842	13.44
430.202	13.45
430.563	13.36
430.923	13.44
431.283	13.53
431.643	13.58
432.003	13.83
432.363	13.75
432.722	13.58
433.082	13.67
433.442	13.58
433.802	13.72
434.161	13.64
434.521	13.63
434.881	13.62
435.24	13.59
435.6	13.79
435.959	13.78
436.319	13.99
436.678	13.84
437.037	13.89
437.396	13.91
437.756	14.12
438.115	14.04
438.474	14.15
438.833	14.25
439.192	14.35
439.551	14.26
439.91	14.21
440.269	14.26
440.628	14.13
440.987	14.07
441.345	14.09
441.704	14.19
442.063	14.24
442.421	14.24
442.78	14.21
443.138	14.44
443.497	14.52
443.855	14.52
444.214	14.53
444.572	14.46
444.93	14.57
445.288	14.69
445.647	14.58
446.005	14.59
446.363	14.6
446.721	14.51
447.079	14.48
447.437	14.53
447.795	14.47
448.153	14.57
448.51	14.6
448.868	14.81
449.226	14.82
449.584	14.9
449.941	15.08
450.299	15.09
450.656	15.25
451.014	15.18
451.371	15.3
451.729	15.34
452.086	15.27
452.443	15.29
452.801	15.37
453.158	15.32
453.515	15.33
453.872	15.57
454.229	15.43
454.586	15.5
454.943	15.72
455.3	15.73
455.657	15.6
456.014	15.88
456.371	15.89
456.727	15.77
457.084	15.88
457.441	15.82
457.797	16.02
458.154	16.14
458.51	15.74
458.867	15.94
459.223	16.04
459.58	16.04
459.936	16.03
460.292	15.98
460.648	15.95
461.005	15.58
461.361	15.65
461.717	15.95
462.073	15.97
462.429	16.16
462.785	16.2
463.141	16.39
463.496	16.39
463.852	16.56
464.208	16.54
464.564	16.64
464.919	16.39
465.275	16.67
465.631	16.73
465.986	16.73
466.342	16.84
466.697	16.8
467.052	17.04
467.408	16.83
467.763	16.68
468.118	16.89
468.473	16.97
468.829	17
469.184	17.1
469.539	17
469.894	17.14
470.249	17.13
470.603	17.27
470.958	17.32
471.313	17.06
471.668	17.42
472.023	17.34
472.377	17.31
472.732	17.49
473.086	17.41
473.441	17.56
473.795	17.55
474.15	17.52
474.504	17.69
474.859	17.54
475.213	17.65
475.567	17.74
475.921	18.02
476.275	17.92
476.63	17.69
476.984	17.89
477.338	17.93
477.692	18.01
478.045	17.84
478.399	17.81
478.753	17.97
479.107	18.06
479.461	18.08
479.814	17.91
480.168	18.08
480.521	18.18
480.875	18.28
481.228	18.39
481.582	18.02
481.935	18.29
482.289	18.02
482.642	18.04
482.995	18.03
483.348	18.07
483.701	18.01
484.055	17.91
484.408	17.61
484.761	17.24
485.114	17.16
485.466	17.25
485.819	17.48
486.172	17.79
486.525	17.92
486.878	18.05
487.23	18.2
487.583	18.21
487.936	18.09
488.288	17.95
488.641	17.88
488.993	17.84
489.345	17.92
489.698	18.11
490.05	18.16
490.402	18.42
490.754	18.7
491.107	18.82
491.459	18.85
491.811	18.89
492.163	18.84
492.515	18.47
492.866	18.17
493.218	18.31
493.57	18.59
493.922	18.78
494.274	19.05
494.625	19.3
494.977	19.44
495.328	19.69
495.68	19.84
496.031	19.72
496.383	19.69
496.734	19.76
497.086	19.79
497.437	19.67
497.788	19.62
498.139	19.45
498.49	19.58
498.842	19.75
499.193	19.77
499.544	19.96
499.894	20.04
500.245	19.98
500.596	20.16
500.947	20.11
501.298	20.21
501.648	20.43
501.999	20.47
502.35	20.49
502.7	20.61
503.051	20.71
503.401	20.73
503.752	20.67
504.102	20.67
504.452	20.78
504.803	20.6
505.153	20.81
505.503	20.86
505.853	20.7
506.203	20.76
506.553	20.76
506.903	20.85
507.253	20.99
507.603	21
507.953	21.02
508.303	20.98
508.652	21.01
509.002	21.13
509.352	21.04
509.701	20.98
510.051	21.04
510.4	20.97
510.75	21.11
511.099	21.11
511.449	21.14
511.798	21.37
512.147	21.36
512.496	21.4
512.846	21.27
513.195	21.5
513.544	21.44
513.893	21.31
514.242	21.58
514.591	21.66
514.939	21.72
515.288	21.62
515.637	21.79
515.986	21.85
516.334	22.04
516.683	22.03
517.032	21.94
517.38	22.03
517.729	21.85
518.077	22.07
518.426	21.91
518.774	21.95
519.122	21.76
519.47	21.75
519.819	21.74
520.167	21.76
520.515	21.87
520.863	22.08
521.211	22.17
521.559	22.34
521.907	22.33
522.255	22.42
522.602	22.49
522.95	22.59
523.298	22.7
523.645	22.71
523.993	22.65
524.341	22.82
524.688	22.82
525.036	22.78
525.383	22.83
525.73	22.75
526.078	22.75
526.425	22.63
526.772	22.36
527.119	22.36
527.466	22.42
527.814	22.55
528.161	22.65
528.508	22.64
528.854	22.57
529.201	22.25
529.548	21.94
529.895	21.88
530.242	22.04
530.588	22.36
530.935	22.54
531.282	22.71
531.628	22.87
531.975	23
532.321	23.15
532.667	23.24
533.014	23.21
533.36	23.3
533.706	23.21
534.052	23.14
534.399	22.74
534.745	22.72
535.091	22.86
535.437	23.2
535.783	23.41
536.129	23.71
536.474	23.73
536.82	23.79
537.166	23.88
537.512	23.68
537.857	23.43
538.203	23.47
538.549	23.78
538.894	23.98
539.239	24.25
539.585	24.32
539.93	24.5
540.276	24.47
540.621	24.6
540.966	24.46
541.311	24.4
541.656	24.16
542.001	24.09
542.346	23.64
542.691	23.39
543.036	23.6
543.381	23.85
543.726	24.11
544.071	24.19
544.415	24.3
544.76	24.29
545.105	24.55
545.449	24.58
545.794	24.78
546.138	25.03
546.483	24.88
546.827	24.89
547.171	24.98
547.516	25.05
547.86	24.88
548.204	24.93
548.548	24.92
548.892	25.23
549.236	25.37
549.58	25.55
549.924	25.78
550.268	25.75
550.612	26.04
550.956	25.71
551.3	25.92
551.643	26.1
551.987	26.06
552.33	26.12
552.674	26.22
553.017	26.19
553.361	26.32
553.704	25.96
554.048	26.15
554.391	25.93
554.734	26.08
555.077	26.1
555.42	26.37
555.764	26.35
556.107	26.47
556.45	26.57
556.793	26.59
557.135	26.72
557.478	26.79
557.821	26.65
558.164	26.86
558.507	26.88
558.849	26.85
559.192	27.01
559.534	27.01
559.877	27.21
560.219	27.25
560.562	27.03
560.904	26.84
561.246	27.02
561.589	27.35
561.931	27.13
562.273	27.29
562.615	27.21
562.957	27.25
563.299	27.35
563.641	27.39
563.983	27.53
564.325	27.37
564.667	27.39
565.008	27.52
565.35	27.7
565.692	27.61
566.033	27.67
566.375	27.56
566.716	27.55
567.058	27.5
567.399	27.51
567.741	27.51
568.082	27.5
568.423	27.62
568.764	27.88
569.105	27.91
569.447	27.86
569.788	28.15
570.129	27.95
570.47	27.94
570.811	28.14
571.151	28.3
571.492	28.14
571.833	28.41
572.174	28
572.514	28.05
572.855	28.22
573.195	28.03
573.536	27.96
573.876	28.09
574.217	28.32
574.557	28.33
574.898	28.32
575.238	28.51
575.578	28.52
575.918	28.42
576.258	28.52
576.598	28.38
576.938	28.63
577.278	28.57
577.618	28.55
577.958	28.82
578.298	28.99
578.638	28.9
578.977	29.02
579.317	28.99
579.657	29.25
579.996	29.1
580.336	29.19
580.675	29.39
581.014	29.3
581.354	29.49
581.693	29.56
582.032	29.65
582.372	29.74
582.711	29.53
583.05	29.61
583.389	29.74
583.728	29.96
584.067	29.85
584.406	30.01
584.745	30.11
585.083	30.2
585.422	29.94
585.761	30.21
586.1	30
586.438	30.12
586.777	30.33
587.115	30.06
587.454	30.18
587.792	30.25
588.13	30.63
588.469	30.69
588.807	30.58
589.145	30.59
589.483	30.35
589.821	30.59
590.159	30.51
590.497	30.38
590.835	30.46
591.173	30.6
591.511	30.57
591.849	30.73
592.187	30.71
592.524	30.58
592.862	30.85
593.2	30.79
593.537	30.77
593.875	30.82
594.212	31.02
594.55	31.06
594.887	30.86
595.224	30.84
595.561	30.76
595.899	30.83
596.236	30.92
596.573	30.76
596.91	31.24
597.247	31.06
597.584	31.03
597.921	30.51
598.258	30.76
598.594	30.43
598.931	30.87
599.268	31
599.604	31.1
599.941	31.37
600.277	31.43
600.614	31.61
600.95	31.82
601.287	32.11
601.623	31.8
601.959	31.69
602.296	31.48
602.632	31.89
602.968	31.62
603.304	31.72
603.64	31.69
603.976	31.84
604.312	31.76
604.648	31.66
604.984	31.51
605.319	31.55
605.655	31.63
605.991	31.37
606.326	31.58
606.662	31.54
606.998	31.51
607.333	31.9
607.668	31.97
608.004	32.14
608.339	32.27
608.674	32.12
609.01	32.55
609.345	32.58
609.68	32.63
610.015	32.42
610.35	32.25
610.685	31.79
611.02	32.22
611.355	32.14
611.689	32.55
612.024	32.7
612.359	32.8
612.694	32.81
613.028	33
613.363	32.9
613.697	32.76
614.032	33.1
614.366	32.85
614.7	33.17
615.035	32.85
615.369	32.85
615.703	33.52
616.037	33.05
616.371	33.31
616.705	32.99
617.039	33.42
617.373	33.01
617.707	33.35
618.041	33.66
618.375	33.22
618.709	33.51
619.042	33.7
619.376	33.2
619.71	33.68
620.043	33.41
620.377	34.05
620.71	33.77
621.043	33.79
621.377	33.63
621.71	34.31
622.043	33.86
622.376	33.79
622.709	34.05
623.043	33.58
623.376	33.75
623.709	34.12
624.041	34.08
624.374	34.03
624.707	33.86
625.04	34.12
625.373	33.79
625.705	34.08
626.038	33.97
626.37	33.99
626.703	34.24
627.035	34.21
627.368	34.58
627.7	34.12
628.032	34.04
628.365	33.92
628.697	33.99
629.029	34.38
629.361	34.07
629.693	34.36
630.025	34.09
630.357	34.51
630.689	35
631.021	34.36
631.353	34.53
631.684	34.85
632.016	34.55
632.348	34.93
632.679	34.84
633.011	34.73
633.342	35.04
633.674	34.83
634.005	34.87
634.336	35.1
634.668	35.03
634.999	35.01
635.33	34.99
635.661	34.83
635.992	35.11
636.323	34.77
636.654	35.07
636.985	35.32
637.316	35.14
637.647	35.42
637.977	35.3
638.308	34.92
638.639	35.13
638.969	35.05
639.3	35.71
639.63	35.26
639.961	35.29
640.291	35.54
640.622	35.84
640.952	35.46
641.282	35.36
641.612	35.58
641.943	35.93
642.273	35.5
642.603	35.42
642.933	35.97
643.263	36.28
643.592	35.83
643.922	36.39
644.252	35.74
644.582	36.42
644.911	36.05
645.241	35.9
645.571	36.14
645.9	36.25
646.23	36.11
646.559	35.75
646.888	36.13
647.218	36.03
647.547	36.91
647.876	36.58
648.205	35.94
648.534	36.13
648.863	36.59
649.192	36.22
649.521	36.12
649.85	36.52
650.179	36.45
650.508	36.46
650.837	36.32
651.165	36.56
651.494	36.94
651.822	36.49
652.151	36.94
652.479	36.75
652.808	36.52
653.136	36.13
653.465	36.61
653.793	36.75
654.121	36.61
654.449	36.78
654.777	37.12
655.105	36.67
655.433	37.01
655.761	36.68
656.089	36.68
656.417	36.56
656.745	36.99
657.073	37.34
657.4	37.42
657.728	36.95
658.056	36.99
658.383	37.21
658.711	37.14
659.038	37.21
659.365	37.2
659.693	37.11
660.02	36.9
660.347	36.86
660.674	36.68
661.001	36.67
661.329	36.66
661.656	37.04
661.982	37.45
662.309	37.31
662.636	37.09
662.963	37.02
663.29	37.54
663.616	37.62
663.943	37.32
664.27	37.77
664.596	37.77
664.923	37.98
665.249	37.9
665.576	38.19
665.902	37.95
666.228	37.46
666.554	37.58
666.881	38.35
667.207	37.85
667.533	38.15
667.859	37.88
668.185	37.49
668.511	37.97
668.837	37.64
669.162	38.16
669.488	38.07
669.814	38.01
670.139	38.36
670.465	38.01
670.791	38.28
671.116	37.58
671.442	38.04
671.767	38.21
672.092	39
672.418	38.41
672.743	38.43
673.068	38.38
673.393	38.84
673.718	37.91
674.043	39.1
674.368	38.65
674.693	38.96
675.018	38.95
675.343	38.31
675.667	38.69
675.992	38.39
676.317	38.9
676.641	38.51
676.966	39.53
677.29	38.91
677.615	38.29
677.939	38.22
678.264	38.99
678.588	38.96
678.912	39.01
679.236	38.62
679.56	38.76
679.885	38.57
680.209	38.25
680.532	38.91
680.856	39.11
681.18	38.83
681.504	38.83
681.828	38.7
682.152	38.5
682.475	38.85
682.799	38.7
683.122	39.6
683.446	39.52
683.769	39.33
684.093	39.31
684.416	39.27
684.739	40.03
685.062	38.76
685.386	38.81
685.709	39.31
686.032	38.74
686.355	39.83
686.678	39.85
687.001	38.61
687.324	39.02
687.646	39.48
687.969	39.02
688.292	40.39
688.614	40.14
688.937	38.88
689.26	39.16
689.582	39.58
689.904	39.86
690.227	39.4
690.549	39.96
690.871	39.51
691.194	39.34
691.516	39.48
691.838	39.62
692.16	39.5
692.482	39.31
692.804	40.06
693.126	39.35
693.448	39.81
693.769	41.22
694.091	40.52
694.413	40.1
694.735	39.22
695.056	39.89
695.378	40.01
695.699	40.32
696.021	39.85
696.342	40.3
696.663	39.84
696.984	40.04
697.306	40.15
697.627	39.86
697.948	39.9
698.269	40.35
698.59	39.99
698.911	40.34
699.232	39.98
699.553	40.28
699.873	40.47
700.194	40.03
700.515	39.89
700.835	40.46
701.156	40.23
701.477	40.78
701.797	40.91
702.117	40.25
702.438	40.81
702.758	40.64
703.078	40.49
703.398	41.12
703.719	40.5
704.039	41.26
704.359	40.03
704.679	41.16
704.999	41.33
705.319	40.5
705.638	40.72
705.958	40.85
706.278	40.64
706.597	41.2
706.917	40.73
707.237	40.65
707.556	41.12
707.876	40.52
708.195	41.24
708.514	41.13
708.834	41.53
709.153	41.47
709.472	41.11
709.791	40.72
710.11	39.99
710.429	40.92
710.748	41.34
711.067	40.99
711.386	41.84
711.705	41.52
712.023	40.17
712.342	40.54
712.661	41.08
712.979	40.38
713.298	41.28
713.616	42.27
713.935	41.61
714.253	40.97
714.572	40.56
714.89	41.2
715.208	42.08
715.526	41.19
715.844	41.84
716.162	40.87
716.48	40.92
716.798	42.27
717.116	41.96
717.434	41.13
717.752	41.3
718.069	40.4
718.387	41.04
718.705	41.64
719.022	41.85
719.34	40.8
719.657	42.15
719.975	42.06
720.292	41.98
720.609	41.35
720.927	42.15
721.244	41.21
721.561	42.63
721.878	41.57
722.195	42.67
722.512	42.56
722.829	42.84
723.146	42.42
723.463	41.73
723.779	40.83
724.096	41.77
724.413	43.89
724.729	42.52
725.046	43.08
725.362	42.36
725.679	44.14
725.995	42.2
726.311	41.05
726.628	41.66
726.944	42.5
727.26	41.71
727.576	43.99
727.892	42.62
728.208	41.09
728.524	41.24
728.84	41.25
729.156	41.43
729.472	43.88
729.787	42.73
730.103	42.48
730.419	42.71
730.734	42.6
731.05	42.21
731.365	41.9
731.681	42.46
731.996	42.42
732.311	43.2
732.626	43.35
732.942	43.73
733.257	42.56
733.572	43.04
733.887	42.81
734.202	43.46
734.517	43.08
734.832	42.59
735.146	41.21
735.461	41.43
735.776	41.72
736.091	42.12
736.405	42.69
736.72	42.68
737.034	43
737.349	41.66
737.663	43.2
737.977	42.91
738.292	43.94
738.606	42.94
738.92	43.82
739.234	44.16
739.548	42.68
739.862	43.89
740.176	42.69
740.49	44
740.804	43.12
741.117	43.61
741.431	42.06
741.745	41.45
742.058	42.33
742.372	43.38
742.685	41.86
742.999	43.18
743.312	42.68
743.626	44.01
743.939	43.3
744.252	43.21
744.565	44.3
744.878	44
745.191	43.73
745.505	41.61
745.817	43.54
746.13	42.76
746.443	44.3
746.756	43.58
747.069	43.16
747.381	44.85
747.694	42.21
748.007	45.02
748.319	45.57
748.632	44.63
748.944	43.77
749.256	44.91
749.569	42.57
749.881	42.81
750.193	44.66
750.505	44.94
750.817	42.92
751.129	43.89
751.441	42.89
751.753	44.05
752.065	43.1
752.377	43.94
752.689	45.32
753	43.67
753.312	43
753.624	44.09
753.935	44.6
754.247	44.99
754.558	43.95
754.869	44.28
755.181	44.31
755.492	45.1
755.803	43.61
756.114	44.92
756.425	44.02
756.736	45.58
757.047	44.86
757.358	45.92
757.669	44.92
757.98	44.68
758.291	44.26
758.601	43.41
758.912	43.12
759.223	42.67
759.533	45.59
759.844	43.68
760.154	44.57
760.464	43.32
760.775	45.89
761.085	44.28
761.395	44.67
761.705	44.59
762.016	44.3
762.326	44.89
762.636	44.92
762.945	42.73
763.255	44.16
763.565	44.57
763.875	43.36
764.185	43.23
764.494	44.78
764.804	44.02
765.113	44.19
765.423	45.53
765.732	44.42
766.042	44.43
766.351	44.55
766.66	44.79
766.97	45.25
767.279	44.85
767.588	48.13
767.897	45.13
768.206	45.73
768.515	46.75
768.824	46.9
769.133	44.68
769.441	44.79
769.75	45.52
770.059	44.27
770.367	44.73
770.676	45.02
770.984	46.09
771.293	42.05
771.601	42.8
771.91	45.13
772.218	44.73
772.526	45.16
772.834	44.24
773.142	44.09
773.45	43.96
773.758	46.03
774.066	43.81
774.374	45.78
774.682	45.35
774.99	45.2
775.298	45.37
775.605	48.41
775.913	44.25
776.22	43.7
776.528	45.25
776.835	43.96
777.143	45.98
777.45	52.83
777.757	45.56
778.065	47.19
778.372	43.46
778.679	48.14
778.986	45.84
779.293	41.98
779.6	44.56
779.907	49.46
780.214	44.75
780.52	49.67
780.827	45.67
781.134	44.11
781.44	42.7
781.747	43.28
782.053	45.2
782.36	44.88
782.666	44.95
782.973	45.97
783.279	47.21
783.585	47.88
783.891	45.24
784.197	46.36
784.503	44.92
784.809	47.86
785.115	44.52
785.421	46.02
785.727	44
786.033	43.08
786.339	49.48
786.644	44.79
786.95	47.71
787.255	47.9
787.561	44.56
787.866	43.19
788.172	44.48
788.477	45.84
788.782	45.52
789.088	44.51
789.393	43.48
789.698	45.77
790.003	46.22
790.308	45.38
790.613	45.54
790.918	51.08
791.223	46.21
791.527	45.96
791.832	45.66
792.137	46.97
792.441	49.33
792.746	45.46
793.05	46.36
793.355	49.52
793.659	49.37
793.963	48.17
794.268	41.13
794.572	48.93
794.876	49.25
795.18	44.59
795.484	47.96
795.788	52.54
796.092	47.44
796.396	48.89
796.7	44.58
797.004	45.38
797.307	44.41
797.611	46.41
797.915	42.64
798.218	48.88
798.522	40.1
798.825	45.88
799.128	44.41
799.432	49.56
799.735	44.47
800.038	42.8
800.341	45.98
800.644	46.76
800.947	44.83
801.25	42.13
801.553	50.36
801.856	46.15
802.159	45.37
802.462	45.73
802.764	46.4
803.067	45.47
803.37	49.54
803.672	44.39
803.975	46.84
804.277	46.93
804.579	46.1
804.882	42.22
805.184	43.54
805.486	49.34
805.788	48.61
806.09	43.26
806.392	49.47
806.694	45.82
806.996	44.93
807.298	43.81
807.6	46.11
807.902	50.11
808.203	46.49
808.505	47.46
808.807	44.85
809.108	50.37
809.409	44.01
809.711	48.82
810.012	49.02
810.313	49.49
810.615	45.98
810.916	43.1
811.217	52.56
811.518	51.79
811.819	41.55
812.12	48.54
812.421	39.98
812.722	39.24
813.023	48.4
813.323	50.95
813.624	48.2
813.925	46.27
814.225	50.89
814.526	47.17
814.826	46.81
815.126	47.15
815.427	46.06
815.727	48.03
816.027	48.71
816.327	44.2
816.627	48.41
816.927	46.97
817.227	50.6
817.527	42.44
817.827	55.37
818.127	48.46
818.427	41.56
818.727	47.22
819.026	48.65
819.326	51.87
819.625	47.43
819.925	42.48
820.224	48.34
820.524	51.23
820.823	41.45
821.122	47.87
821.421	44.56
821.72	48.55
822.019	46.01
822.318	47.29
822.617	50.23
822.916	49.35
823.215	49.17
823.514	45.87
823.813	48.66
824.111	49.04
824.41	48.77
824.709	49.12
825.007	49
825.306	47.97
825.604	49.13
825.902	49.95
826.201	50.08
826.499	50.21
826.797	49.46
827.095	48.86
827.393	49.51
827.691	51.21
827.989	53.49
828.287	52.47
828.585	46.38
828.882	49.91
829.18	47.21
829.478	47.54
829.775	48.9
830.073	49.87
830.37	48.75
830.668	50.16
830.965	49.93
831.263	50.64
831.56	50.93
831.857	47.91
832.154	51.86
832.451	50.04
832.748	47.11
833.045	50.61
833.342	46.74
833.639	51.66
833.936	50.65
834.232	46.13
834.529	47.09
834.826	47.59
835.122	52.29
835.419	45.68
835.715	47.93
836.012	48.48
836.308	49.76
836.604	47.87
836.901	53.95
837.197	50.86
837.493	47.3
837.789	50.03
838.085	45.49
838.381	48.44
838.677	49.49
838.972	46.82
839.268	48.55
839.564	52.48
839.86	44.83
840.155	49.17
840.451	47.25
840.746	49.06
841.042	50.46
841.337	46.18
841.632	47.6
841.928	45.6
842.223	47.97
842.518	47.03
842.813	47.99
843.108	47.65
843.403	48.87
843.698	51.63
843.993	51.45
844.287	55.85
844.582	50.48
844.877	50.05
845.171	51.36
845.466	52.65
845.761	54.05
846.055	39.34
846.349	35.51
846.644	38.88
846.938	48.1
847.232	45.12
847.526	57.89
847.82	34.18
848.114	48.3
848.408	61.31
848.702	51.03
848.996	54.39
849.29	51.53
849.584	38.42
849.877	45.94
850.171	57.16
850.465	39.21
850.758	54.18
851.052	50.84
851.345	53.17
851.638	47.98
851.932	56.56
852.225	35.18
852.518	46.13
852.811	36.22
853.104	44.89
853.397	36.26
853.69	56.95
853.983	32.49
854.276	36.22
854.569	55.46
854.861	62.56
855.154	35.68
855.447	29.12
855.739	77.96
856.032	40.77
856.324	43.6
856.616	80.14
856.909	55.09
857.201	44.43
857.493	46.4
857.785	32.46
858.077	38.51
858.369	56.93
858.661	63.92
858.953	39.59
859.245	41.89
859.537	44.6
859.829	47.33
860.12	40.53
860.412	45.89
860.703	48.88
860.995	73.45
861.286	67.79
861.578	48.89
861.869	52.08
862.16	32.57
862.452	43.58
862.743	70.29
863.034	45.16
863.325	19
863.616	52.4
863.907	60.92
864.198	57.17
864.488	30.05
864.779	42.61
865.07	51.29
865.36	58.03
865.651	46.39
865.941	43.86
866.232	55.62
866.522	70.24
866.813	56.52
867.103	32.06
867.393	68.53
867.683	49.67
867.973	40.49
868.263	33.36
868.553	37.75
868.843	33.53
869.133	37.43
869.423	52.47
869.713	40.91
870.002	30.9
870.292	32.43
870.582	50.85
870.871	33.7
871.161	36.92
871.45	70.67
871.739	56.86
872.029	43.49
872.318	57.02
872.607	42.53
872.896	67.69
873.185	50.45
873.474	52.38
873.763	57.63
874.052	45.5
874.341	37.97
874.63	53.87
874.918	41.01
875.207	48.75
875.496	77.59
875.784	44.35
876.073	43.58
876.361	45.68
876.649	63.56
876.938	58.67
877.226	56.95
877.514	2.77
877.802	57.26
878.09	50.73
878.378	59.92
878.666	60.86
878.954	31.85
879.242	48.09
879.53	39.54
879.817	37.58
880.105	43.46
880.392	48.35
880.68	57.62
880.967	56.6
881.255	50.65
881.542	54.85
881.83	33.98
882.117	40.53
882.404	71.09
882.691	33.17
882.978	9.61
883.265	59.92
883.552	52.15
883.839	37.6
884.126	44.8
884.413	56.07
884.699	50.88
884.986	48.2
885.273	44.97
885.559	44.97
885.846	44.97
