Data from 0051_forehead_Reflection__1__42.txt Node

Date: Fri Dec 16 14:09:23 CST 2022
User: ToomeyLab
Spectrometer: FLMS14357
Trigger mode: 0
Integration Time (sec): 1.000000E-2
Scans to average: 100
Electric dark correction enabled: true
Nonlinearity correction enabled: false
Boxcar width: 0
XAxis mode: Wavelengths
Number of Pixels in Spectrum: 2048
>>>>>Begin Spectral Data<<<<<
189.047	59.66
189.435	59.66
189.823	59.66
190.211	143.12
190.599	-39.13
190.987	-72.75
191.375	265.05
191.763	67.67
192.151	1211.17
192.538	17.24
192.926	8.08
193.314	79.92
193.702	184.07
194.089	29.57
194.477	113.2
194.864	80.3
195.252	14.81
195.639	166.59
196.027	73.82
196.414	47.97
196.801	310.86
197.189	1488.18
197.576	200.21
197.963	-153.98
198.351	39.84
198.738	0.11
199.125	39.25
199.512	12.25
199.899	-9.14
200.286	0.26
200.673	59.77
201.06	68.06
201.447	93.2
201.833	36.8
202.22	42.79
202.607	12.81
202.994	9.5
203.38	21.26
203.767	29.94
204.154	4.99
204.54	22.08
204.927	67.63
205.313	46.95
205.699	4.84
206.086	27.38
206.472	20.31
206.858	29.66
207.245	31.58
207.631	26.54
208.017	34.23
208.403	38.22
208.789	26.25
209.175	49.05
209.561	-0.1
209.947	47.64
210.333	10.59
210.719	6.77
211.105	21.48
211.491	17.85
211.876	4.67
212.262	7.12
212.648	17.9
213.034	12.03
213.419	29.4
213.805	17.44
214.19	22.82
214.576	32.16
214.961	-8.5
215.346	22.31
215.732	25.39
216.117	-1.35
216.502	29.72
216.888	30.45
217.273	21.99
217.658	22.73
218.043	34.62
218.428	26.6
218.813	13.42
219.198	19.58
219.583	22.12
219.968	25.78
220.353	34.38
220.738	-7.13
221.122	10.46
221.507	21.9
221.892	13.47
222.276	19.13
222.661	10.88
223.046	16.05
223.43	2.18
223.815	12.63
224.199	11.75
224.583	18.5
224.968	20.05
225.352	5.41
225.736	10.69
226.121	1.47
226.505	8.72
226.889	7.74
227.273	4.64
227.657	7.24
228.041	6.22
228.425	7.46
228.809	6.99
229.193	3.2
229.577	3.83
229.961	4.77
230.344	3.69
230.728	4.38
231.112	4.43
231.495	3.47
231.879	5.1
232.263	2.83
232.646	4.65
233.03	4.85
233.413	3.22
233.797	5.88
234.18	2.72
234.563	5.52
234.946	3.38
235.33	3.87
235.713	5.22
236.096	4.32
236.479	5.34
236.862	3.87
237.245	4.8
237.628	5.05
238.011	2.73
238.394	6.93
238.777	4.94
239.16	4.44
239.543	3.51
239.925	5.26
240.308	4.68
240.691	5.07
241.073	4.41
241.456	3.48
241.838	3.81
242.221	4.44
242.603	4.48
242.986	4.85
243.368	3.6
243.75	3.67
244.133	3.88
244.515	3.82
244.897	3.56
245.279	4.43
245.661	4.23
246.043	4.05
246.425	3.96
246.807	3.86
247.189	4.24
247.571	3.89
247.953	3.74
248.335	4
248.717	3.99
249.098	3.72
249.48	3.8
249.862	4.18
250.243	3.99
250.625	4.21
251.006	4.36
251.388	4.79
251.769	3.72
252.151	4.38
252.532	4.62
252.913	3.7
253.295	4.47
253.676	4.13
254.057	3.7
254.438	3.93
254.819	5.28
255.2	4.82
255.581	4.97
255.962	4.22
256.343	5.62
256.724	2.85
257.105	4.7
257.486	3.95
257.867	3.05
258.247	4.96
258.628	4.88
259.009	4.28
259.389	4.5
259.77	4.19
260.15	4.7
260.531	4.11
260.911	3.79
261.292	3.78
261.672	3.77
262.052	3.73
262.432	4.02
262.813	4.42
263.193	4.32
263.573	4.19
263.953	3.8
264.333	4.14
264.713	4.1
265.093	3.35
265.473	4.15
265.853	4.2
266.233	4.64
266.612	4.31
266.992	3.78
267.372	4.43
267.752	3.57
268.131	3.93
268.511	3.81
268.89	4.37
269.27	3.64
269.649	4.23
270.029	4.24
270.408	3.91
270.787	4.35
271.167	4.04
271.546	3.69
271.925	4.36
272.304	3.98
272.683	3.82
273.062	3.67
273.441	3.94
273.82	3.76
274.199	3.9
274.578	3.57
274.957	3.73
275.336	3.89
275.715	4.31
276.093	3.89
276.472	4.3
276.851	4.4
277.229	4.42
277.608	3.79
277.986	4.15
278.365	3.42
278.743	4.21
279.122	3.42
279.5	3.41
279.878	3.73
280.257	3.58
280.635	3.41
281.013	3.9
281.391	3.33
281.769	3.42
282.147	4.3
282.525	3.66
282.903	3.65
283.281	3.67
283.659	3.89
284.037	3.8
284.415	4.02
284.792	4.06
285.17	3.59
285.548	3.54
285.925	3.47
286.303	3.66
286.68	3.59
287.058	3.5
287.435	3.58
287.813	3.63
288.19	3.91
288.567	3.61
288.945	3.96
289.322	3.69
289.699	3.86
290.076	4.15
290.453	3.89
290.83	4.4
291.207	3.77
291.584	3.52
291.961	4.16
292.338	3.72
292.715	4.09
293.092	4.1
293.469	4.29
293.845	4.4
294.222	4.32
294.599	4.46
294.975	4.77
295.352	4.4
295.728	4.24
296.105	4.23
296.481	4.45
296.858	4.3
297.234	4.26
297.61	4.39
297.986	4.24
298.363	4.01
298.739	4.26
299.115	3.92
299.491	4.66
299.867	4.74
300.243	4.43
300.619	3.92
300.995	4.9
301.371	5.02
301.746	4.65
302.122	4.99
302.498	4.96
302.874	4.73
303.249	4.59
303.625	4.75
304	4.47
304.376	4.9
304.751	5.02
305.127	4.65
305.502	5.35
305.878	4.85
306.253	4.78
306.628	5.36
307.003	5.23
307.378	5.09
307.754	5.24
308.129	4.87
308.504	5.21
308.879	5.36
309.254	5.7
309.629	5.1
310.003	5.72
310.378	5.18
310.753	5.47
311.128	5.49
311.502	5.43
311.877	5.58
312.252	5.58
312.626	5.21
313.001	5.5
313.375	5.73
313.75	5.25
314.124	5.86
314.498	5.6
314.873	5.23
315.247	5.66
315.621	6.44
315.995	6.24
316.369	6.26
316.743	6.5
317.117	6.38
317.491	6.12
317.865	5.73
318.239	6.41
318.613	6.37
318.987	6.48
319.361	6.21
319.734	6.61
320.108	6.35
320.482	6.49
320.855	6.54
321.229	7.44
321.602	6.63
321.976	7.16
322.349	6.21
322.723	6.01
323.096	6.45
323.469	6.4
323.843	6.99
324.216	6.5
324.589	7.85
324.962	7.19
325.335	6.67
325.708	7.15
326.081	7.28
326.454	7.23
326.827	6.96
327.2	7.34
327.573	7.37
327.945	7.57
328.318	7.33
328.691	7.55
329.063	7.32
329.436	7.22
329.809	7.3
330.181	7.36
330.553	7.62
330.926	7.3
331.298	7.49
331.671	7.94
332.043	7.84
332.415	8.07
332.787	7.96
333.159	7.26
333.532	7.94
333.904	7.75
334.276	8.01
334.648	7.73
335.02	8
335.391	7.79
335.763	7.74
336.135	7.81
336.507	8.24
336.879	8.27
337.25	7.99
337.622	7.82
337.993	8.51
338.365	8.48
338.736	8.29
339.108	8.23
339.479	8.51
339.851	8.61
340.222	8.29
340.593	8.11
340.964	8.25
341.336	8.14
341.707	8.22
342.078	8.28
342.449	9.01
342.82	8.64
343.191	8.2
343.562	8.48
343.933	8.67
344.303	8.84
344.674	8.72
345.045	8.97
345.416	8.55
345.786	8.49
346.157	8.78
346.527	8.75
346.898	9.45
347.268	8.48
347.639	8.93
348.009	9.15
348.38	9.13
348.75	9.39
349.12	9.29
349.49	9.08
349.861	9.78
350.231	9.57
350.601	9.32
350.971	9.11
351.341	9.02
351.711	9.41
352.081	9.38
352.45	9.26
352.82	9.42
353.19	9.27
353.56	9.07
353.929	9.5
354.299	9.23
354.669	9.5
355.038	9.67
355.408	9.92
355.777	9.34
356.147	10.05
356.516	10.11
356.885	9.66
357.254	9.77
357.624	9.99
357.993	9.68
358.362	10.17
358.731	9.92
359.1	10.02
359.469	9.94
359.838	9.7
360.207	9.91
360.576	10.06
360.945	10.08
361.314	10.34
361.682	9.99
362.051	9.94
362.42	10.33
362.788	10.2
363.157	10.08
363.525	10.02
363.894	9.91
364.262	10.2
364.631	11.13
364.999	10.4
365.367	10.56
365.735	10.36
366.104	10.27
366.472	10.68
366.84	10.57
367.208	10.52
367.576	10.88
367.944	10.82
368.312	10.29
368.68	10.86
369.048	11.02
369.416	10.98
369.783	10.77
370.151	10.98
370.519	10.95
370.886	10.86
371.254	11.26
371.621	11.21
371.989	11.49
372.356	11.05
372.724	11.16
373.091	11.21
373.458	11.38
373.826	11.49
374.193	11.71
374.56	11.12
374.927	11.31
375.294	11.76
375.661	11.77
376.028	11.7
376.395	11.76
376.762	11.91
377.129	11.92
377.496	11.66
377.863	11.64
378.229	11.64
378.596	11.64
378.963	11.61
379.329	11.82
379.696	12.08
380.062	12.03
380.429	12.11
380.795	11.65
381.161	12.28
381.528	11.64
381.894	12.08
382.26	12.01
382.626	12.24
382.993	12.29
383.359	12.16
383.725	12.43
384.091	12.51
384.457	12.41
384.823	12.44
385.188	12.54
385.554	12.26
385.92	12.72
386.286	12.94
386.651	12.58
387.017	12.52
387.383	12.64
387.748	12.58
388.114	12.88
388.479	12.9
388.845	12.75
389.21	12.95
389.575	13.1
389.94	12.87
390.306	13.28
390.671	12.94
391.036	12.99
391.401	13.2
391.766	13.37
392.131	13.21
392.496	13.32
392.861	13.14
393.226	13.33
393.591	13.21
393.956	13.32
394.32	13.36
394.685	13.34
395.05	13.38
395.414	13.42
395.779	13.35
396.143	13.56
396.508	13.6
396.872	13.78
397.236	13.24
397.601	14.08
397.965	13.48
398.329	13.9
398.694	13.71
399.058	13.98
399.422	14.04
399.786	13.9
400.15	14.01
400.514	14.09
400.878	14.02
401.242	14.45
401.605	14.3
401.969	14.11
402.333	14.05
402.697	14.39
403.06	14.26
403.424	14.22
403.787	14.56
404.151	14.37
404.514	14.4
404.878	14.42
405.241	14.47
405.604	14.67
405.968	14.6
406.331	14.68
406.694	14.7
407.057	14.87
407.42	14.75
407.783	14.98
408.146	14.74
408.509	14.86
408.872	14.72
409.235	14.82
409.598	15.05
409.961	14.95
410.323	14.99
410.686	15.13
411.049	15.04
411.411	15.09
411.774	15.16
412.136	15.36
412.499	15.28
412.861	15.14
413.223	15.49
413.586	15.25
413.948	15.38
414.31	15.46
414.672	15.45
415.035	15.76
415.397	15.46
415.759	15.68
416.121	15.72
416.483	15.84
416.845	15.76
417.206	15.6
417.568	15.64
417.93	15.49
418.292	15.7
418.653	15.78
419.015	15.6
419.377	15.74
419.738	15.74
420.1	15.63
420.461	15.62
420.822	15.79
421.184	15.93
421.545	15.83
421.906	15.71
422.267	15.65
422.629	15.83
422.99	15.83
423.351	16.05
423.712	16.13
424.073	16.21
424.434	15.99
424.795	15.93
425.155	15.99
425.516	16.02
425.877	16.17
426.238	16.09
426.598	16.27
426.959	16.3
427.32	16.59
427.68	16.64
428.041	16.83
428.401	16.71
428.761	16.76
429.122	16.87
429.482	16.72
429.842	16.85
430.202	17.19
430.563	17.09
430.923	16.96
431.283	17.07
431.643	17.19
432.003	17.13
432.363	17.39
432.722	17.26
433.082	17.39
433.442	17.28
433.802	17.4
434.161	17.24
434.521	17.38
434.881	17.45
435.24	17.33
435.6	17.53
435.959	17.62
436.319	17.63
436.678	17.64
437.037	17.81
437.396	17.61
437.756	17.83
438.115	17.81
438.474	17.81
438.833	17.87
439.192	18.03
439.551	18.21
439.91	18.08
440.269	18.11
440.628	17.78
440.987	17.8
441.345	17.91
441.704	18.09
442.063	17.94
442.421	18.04
442.78	18.09
443.138	18.33
443.497	18.35
443.855	18.23
444.214	18.32
444.572	18.47
444.93	18.41
445.288	18.55
445.647	18.6
446.005	18.46
446.363	18.49
446.721	18.36
447.079	18.42
447.437	18.36
447.795	18.41
448.153	18.5
448.51	18.49
448.868	18.75
449.226	18.71
449.584	18.75
449.941	18.95
450.299	19.07
450.656	19.07
451.014	19.15
451.371	19.11
451.729	19.21
452.086	19.34
452.443	19.3
452.801	19.48
453.158	19.32
453.515	19.4
453.872	19.51
454.229	19.49
454.586	19.45
454.943	19.52
455.3	19.78
455.657	19.67
456.014	19.66
456.371	19.94
456.727	19.84
457.084	19.96
457.441	19.76
457.797	20.15
458.154	20.1
458.51	20.07
458.867	20.05
459.223	20.13
459.58	20.16
459.936	20.25
460.292	20
460.648	19.96
461.005	19.66
461.361	19.77
461.717	19.95
462.073	20.29
462.429	20.46
462.785	20.41
463.141	20.64
463.496	20.52
463.852	20.74
464.208	20.77
464.564	20.87
464.919	20.74
465.275	20.94
465.631	20.96
465.986	20.87
466.342	21.02
466.697	21.01
467.052	21.15
467.408	21.18
467.763	21.09
468.118	21.05
468.473	21.16
468.829	21.34
469.184	21.34
469.539	21.32
469.894	21.43
470.249	21.48
470.603	21.65
470.958	21.63
471.313	21.39
471.668	21.68
472.023	21.73
472.377	21.49
472.732	21.82
473.086	21.69
473.441	21.94
473.795	21.9
474.15	21.92
474.504	22.03
474.859	22.09
475.213	21.97
475.567	22.02
475.921	22.36
476.275	22.15
476.63	22.09
476.984	22.3
477.338	22.26
477.692	22.17
478.045	22.17
478.399	22.37
478.753	22.11
479.107	22.41
479.461	22.51
479.814	22.35
480.168	22.51
480.521	22.56
480.875	22.66
481.228	22.73
481.582	22.49
481.935	22.61
482.289	22.55
482.642	22.65
482.995	22.53
483.348	22.5
483.701	22.35
484.055	22.24
484.408	21.97
484.761	21.54
485.114	21.56
485.466	21.68
485.819	21.96
486.172	22.19
486.525	22.52
486.878	22.59
487.23	22.64
487.583	22.6
487.936	22.58
488.288	22.27
488.641	22.33
488.993	22.27
489.345	22.48
489.698	22.61
490.05	22.69
490.402	23
490.754	23.14
491.107	23.29
491.459	23.34
491.811	23.49
492.163	23.23
492.515	23.04
492.866	22.74
493.218	22.83
493.57	23.11
493.922	23.45
494.274	23.64
494.625	23.89
494.977	23.98
495.328	24.3
495.68	24.42
496.031	24.41
496.383	24.57
496.734	24.38
497.086	24.35
497.437	24.48
497.788	24.3
498.139	24.42
498.49	24.28
498.842	24.48
499.193	24.41
499.544	24.61
499.894	24.61
500.245	24.67
500.596	24.98
500.947	24.93
501.298	24.78
501.648	24.98
501.999	25.19
502.35	25.12
502.7	25.33
503.051	25.44
503.401	25.42
503.752	25.46
504.102	25.55
504.452	25.48
504.803	25.43
505.153	25.46
505.503	25.59
505.853	25.5
506.203	25.5
506.553	25.81
506.903	25.66
507.253	25.79
507.603	25.79
507.953	26.06
508.303	25.8
508.652	25.94
509.002	25.72
509.352	25.94
509.701	25.96
510.051	25.91
510.4	25.96
510.75	26.08
511.099	25.99
511.449	26.05
511.798	26.22
512.147	26.12
512.496	26.29
512.846	26.35
513.195	26.35
513.544	26.23
513.893	26.38
514.242	26.51
514.591	26.54
514.939	26.44
515.288	26.76
515.637	26.74
515.986	26.7
516.334	27.03
516.683	26.94
517.032	26.83
517.38	27
517.729	27.11
518.077	27.26
518.426	26.86
518.774	26.76
519.122	26.87
519.47	26.66
519.819	26.71
520.167	26.66
520.515	26.77
520.863	26.98
521.211	27.15
521.559	27.27
521.907	27.25
522.255	27.55
522.602	27.65
522.95	27.62
523.298	27.7
523.645	27.67
523.993	27.83
524.341	27.87
524.688	27.94
525.036	27.91
525.383	27.96
525.73	27.88
526.078	27.98
526.425	27.76
526.772	27.49
527.119	27.3
527.466	27.45
527.814	27.68
528.161	27.69
528.508	27.7
528.854	27.72
529.201	27.48
529.548	27.16
529.895	27
530.242	27.24
530.588	27.55
530.935	27.71
531.282	27.9
531.628	28.1
531.975	28.19
532.321	28.23
532.667	28.49
533.014	28.42
533.36	28.56
533.706	28.3
534.052	28.26
534.399	27.98
534.745	27.99
535.091	28.2
535.437	28.42
535.783	28.68
536.129	28.87
536.474	29.05
536.82	29.09
537.166	28.97
537.512	28.88
537.857	28.65
538.203	28.87
538.549	29.03
538.894	29.11
539.239	29.4
539.585	29.49
539.93	29.75
540.276	29.75
540.621	29.88
540.966	29.77
541.311	29.71
541.656	29.42
542.001	29.45
542.346	28.94
542.691	28.94
543.036	29.07
543.381	29.19
543.726	29.49
544.071	29.74
544.415	29.73
544.76	29.67
545.105	29.96
545.449	30.02
545.794	30.28
546.138	30.41
546.483	30.31
546.827	30.41
547.171	30.29
547.516	30.64
547.86	30.44
548.204	30.4
548.548	30.54
548.892	30.68
549.236	30.96
549.58	31.13
549.924	31.32
550.268	31.2
550.612	31.17
550.956	31.41
551.3	31.53
551.643	31.5
551.987	31.78
552.33	31.49
552.674	31.88
553.017	31.91
553.361	31.83
553.704	31.45
554.048	31.47
554.391	31.78
554.734	31.76
555.077	31.66
555.42	31.91
555.764	32.05
556.107	32.37
556.45	32.12
556.793	31.92
557.135	32.33
557.478	32.31
557.821	32.42
558.164	32.34
558.507	32.55
558.849	32.69
559.192	32.79
559.534	32.51
559.877	32.77
560.219	32.7
560.562	32.79
560.904	32.89
561.246	32.84
561.589	33.2
561.931	33.11
562.273	33.06
562.615	32.85
562.957	33.06
563.299	33.14
563.641	33.15
563.983	33.13
564.325	33.25
564.667	33.4
565.008	33.41
565.35	33.43
565.692	33.61
566.033	33.61
566.375	33.35
566.716	33.2
567.058	33.11
567.399	33.26
567.741	33.09
568.082	33.4
568.423	33.62
568.764	33.77
569.105	33.78
569.447	33.6
569.788	33.9
570.129	33.74
570.47	34.14
570.811	34.05
571.151	34.15
571.492	33.98
571.833	34.13
572.174	34.15
572.514	33.86
572.855	34.43
573.195	34.13
573.536	34.05
573.876	34.26
574.217	34.24
574.557	34.44
574.898	34.37
575.238	34.56
575.578	34.37
575.918	34.47
576.258	34.54
576.598	34.58
576.938	34.68
577.278	34.66
577.618	34.77
577.958	34.82
578.298	35.22
578.638	35.15
578.977	35.16
579.317	35.14
579.657	35.24
579.996	35.36
580.336	35.27
580.675	35.62
581.014	35.33
581.354	35.52
581.693	35.56
582.032	35.66
582.372	35.83
582.711	36.12
583.05	35.99
583.389	35.91
583.728	36.01
584.067	36.23
584.406	36.48
584.745	36.29
585.083	36.31
585.422	36.29
585.761	36.46
586.1	36.25
586.438	36.33
586.777	36.39
587.115	36.61
587.454	36.2
587.792	36.38
588.13	36.99
588.469	36.71
588.807	36.55
589.145	36.64
589.483	36.23
589.821	36.67
590.159	36.63
590.497	36.69
590.835	36.9
591.173	36.87
591.511	36.79
591.849	36.9
592.187	36.74
592.524	37.11
592.862	37.06
593.2	37.26
593.537	37.05
593.875	37.46
594.212	37.34
594.55	37.27
594.887	37.31
595.224	37.26
595.561	37.56
595.899	37.42
596.236	37.63
596.573	37.35
596.91	37.7
597.247	37.44
597.584	37.46
597.921	37.2
598.258	37.33
598.594	36.95
598.931	37.48
599.268	37.69
599.604	37.65
599.941	37.94
600.277	38.03
600.614	37.95
600.95	38.08
601.287	38.44
601.623	38.36
601.959	37.99
602.296	38.72
602.632	38.3
602.968	38.3
603.304	38.25
603.64	38.02
603.976	38.73
604.312	38.6
604.648	38.44
604.984	38.19
605.319	38.22
605.655	38.18
605.991	38.08
606.326	38
606.662	38.25
606.998	38.42
607.333	38.44
607.668	38.5
608.004	39
608.339	39.18
608.674	38.91
609.01	39.15
609.345	39.22
609.68	39.4
610.015	38.97
610.35	39.09
610.685	38.85
611.02	39.2
611.355	39.28
611.689	38.9
612.024	39.22
612.359	39.45
612.694	39.65
613.028	39.89
613.363	39.38
613.697	39.42
614.032	39.49
614.366	39.41
614.7	39.87
615.035	39.49
615.369	39.92
615.703	40.36
616.037	40.32
616.371	39.78
616.705	40.02
617.039	40.44
617.373	39.91
617.707	40.7
618.041	40.43
618.375	40.47
618.709	40.15
619.042	40.39
619.376	40.43
619.71	40.72
620.043	40.39
620.377	40.74
620.71	40.75
621.043	40.99
621.377	40.9
621.71	40.77
622.043	41.12
622.376	40.55
622.709	41.33
623.043	40.68
623.376	40.71
623.709	41.08
624.041	41.22
624.374	40.8
624.707	41.23
625.04	41.29
625.373	41.24
625.705	41.31
626.038	41.4
626.37	41.32
626.703	41.21
627.035	41.48
627.368	41.45
627.7	41.68
628.032	40.93
628.365	41.19
628.697	41.24
629.029	41.44
629.361	41.65
629.693	41.78
630.025	41.93
630.357	41.86
630.689	41.8
631.021	42.1
631.353	42.07
631.684	42.08
632.016	42.31
632.348	41.93
632.679	42.07
633.011	42.47
633.342	42.46
633.674	41.69
634.005	42.24
634.336	42.66
634.668	42.51
634.999	42.58
635.33	42.56
635.661	42.53
635.992	42.92
636.323	42.44
636.654	42.66
636.985	42.62
637.316	42.8
637.647	42.89
637.977	42.54
638.308	42.61
638.639	43.03
638.969	42.82
639.3	43.13
639.63	42.71
639.961	42.6
640.291	43.34
640.622	43.18
640.952	43.41
641.282	43.52
641.612	42.94
641.943	43.44
642.273	43.25
642.603	43.42
642.933	43.53
643.263	43.64
643.592	43.9
643.922	44.01
644.252	43.77
644.582	44.11
644.911	43.26
645.241	43.16
645.571	43.57
645.9	44.15
646.23	43.59
646.559	43.64
646.888	43.92
647.218	43.86
647.547	44.25
647.876	44.3
648.205	44.4
648.534	44.5
648.863	44.22
649.192	44.23
649.521	43.72
649.85	43.74
650.179	44.37
650.508	44.09
650.837	44.41
651.165	44.54
651.494	44.34
651.822	44.46
652.151	44.91
652.479	44.86
652.808	43.91
653.136	44.73
653.465	44.87
653.793	45.23
654.121	44.83
654.449	44.5
654.777	45.28
655.105	44.91
655.433	45.04
655.761	45.12
656.089	45.09
656.417	44.88
656.745	45.73
657.073	45.49
657.4	45.02
657.728	44.93
658.056	45.03
658.383	45.03
658.711	45.44
659.038	45.13
659.365	45.16
659.693	45.05
660.02	45.15
660.347	44.73
660.674	45.17
661.001	44.4
661.329	45.45
661.656	45.23
661.982	45.55
662.309	45.38
662.636	45.29
662.963	45.64
663.29	45.91
663.616	45.7
663.943	45.41
664.27	45.98
664.596	45.91
664.923	46.46
665.249	46.11
665.576	45.88
665.902	46.16
666.228	45.5
666.554	45.82
666.881	46.75
667.207	46.15
667.533	46.08
667.859	46.05
668.185	46.59
668.511	46.54
668.837	45.95
669.162	46.46
669.488	46.88
669.814	46.77
670.139	46.76
670.465	46.52
670.791	46.67
671.116	46.38
671.442	46.39
671.767	46.88
672.092	46.56
672.418	46.68
672.743	47.54
673.068	46.85
673.393	47.32
673.718	47.12
674.043	46.67
674.368	47.54
674.693	47.43
675.018	46.89
675.343	47.96
675.667	47.19
675.992	47.75
676.317	47.32
676.641	47.25
676.966	47.54
677.29	47.56
677.615	48.4
677.939	47.96
678.264	47.23
678.588	47.39
678.912	48.35
679.236	47.62
679.56	47.48
679.885	47.44
680.209	46.96
680.532	47.83
680.856	47.57
681.18	47.63
681.504	46.88
681.828	47.83
682.152	47.42
682.475	47.81
682.799	47.87
683.122	47.91
683.446	47.68
683.769	48.05
684.093	47.98
684.416	47.99
684.739	48.72
685.062	47.04
685.386	47.88
685.709	47.74
686.032	47.94
686.355	48.08
686.678	48.48
687.001	47.25
687.324	47.62
687.646	48.31
687.969	48.23
688.292	49.14
688.614	49.1
688.937	48.63
689.26	48.69
689.582	47.71
689.904	48.46
690.227	48.82
690.549	48.64
690.871	49.23
691.194	48.58
691.516	48.14
691.838	48.54
692.16	49.47
692.482	48.59
692.804	48.46
693.126	49.18
693.448	49.27
693.769	49.85
694.091	49.47
694.413	49.11
694.735	49.22
695.056	49.09
695.378	48.96
695.699	49.36
696.021	48.82
696.342	49.45
696.663	50.11
696.984	49.97
697.306	48.6
697.627	48.41
697.948	49
698.269	49.09
698.59	49.52
698.911	49.82
699.232	49.5
699.553	49.45
699.873	49.51
700.194	49.21
700.515	49.19
700.835	49.82
701.156	49.36
701.477	50.01
701.797	50.29
702.117	50.13
702.438	50.18
702.758	49.7
703.078	50.05
703.398	49.99
703.719	49.87
704.039	49.89
704.359	50.4
704.679	49.46
704.999	49.65
705.319	49.38
705.638	50.87
705.958	50.76
706.278	50.09
706.597	49.6
706.917	49.52
707.237	50.96
707.556	50.57
707.876	50.34
708.195	49.73
708.514	50.51
708.834	50.95
709.153	50.18
709.472	50.9
709.791	51.07
710.11	50.77
710.429	50.95
710.748	50.93
711.067	50.85
711.386	51.28
711.705	50.53
712.023	50.62
712.342	50.32
712.661	51.43
712.979	51.54
713.298	51.54
713.616	51.57
713.935	51.57
714.253	51.75
714.572	50.99
714.89	50.89
715.208	51.25
715.526	51.6
715.844	51.57
716.162	51.36
716.48	51.48
716.798	51.78
717.116	51.57
717.434	51.18
717.752	51.71
718.069	50.62
718.387	51.41
718.705	52.03
719.022	51.86
719.34	50.88
719.657	52.16
719.975	51.6
720.292	51.56
720.609	51.9
720.927	51.97
721.244	52.73
721.561	50.05
721.878	51.93
722.195	51.57
722.512	52.63
722.829	52.87
723.146	51.82
723.463	51.3
723.779	51.96
724.096	50.76
724.413	51.83
724.729	51.14
725.046	52.35
725.362	51.12
725.679	52.96
725.995	52.39
726.311	51.94
726.628	52.52
726.944	52.47
727.26	51.89
727.576	52.36
727.892	52.3
728.208	51.51
728.524	53.4
728.84	51.37
729.156	53.44
729.472	52.78
729.787	52.59
730.103	53.42
730.419	52.86
730.734	52.68
731.05	52.82
731.365	52.83
731.681	51.43
731.996	52.07
732.311	53.59
732.626	53.16
732.942	53.39
733.257	53.88
733.572	53.47
733.887	53.26
734.202	54.5
734.517	53.86
734.832	53.78
735.146	51.5
735.461	53.21
735.776	53.61
736.091	53.54
736.405	53.36
736.72	53.34
737.034	54.05
737.349	53.25
737.663	53.97
737.977	53.61
738.292	52.51
738.606	54.1
738.92	53.96
739.234	53.26
739.548	52.86
739.862	53.35
740.176	52.41
740.49	53.53
740.804	52.44
741.117	53.3
741.431	52.65
741.745	52.63
742.058	54.83
742.372	52.96
742.685	52.6
742.999	54.51
743.312	53.64
743.626	55.34
743.939	53.68
744.252	52.81
744.565	54.87
744.878	54.99
745.191	53.56
745.505	55.13
745.817	54.66
746.13	56.04
746.443	54.38
746.756	54.01
747.069	54.05
747.381	51.74
747.694	55.03
748.007	54.46
748.319	54.5
748.632	53.02
748.944	54.38
749.256	54.78
749.569	55.63
749.881	55.47
750.193	54.31
750.505	53.17
750.817	53.1
751.129	55.56
751.441	54.33
751.753	54.5
752.065	54.03
752.377	53.59
752.689	55.64
753	52.79
753.312	55.46
753.624	55.27
753.935	53.63
754.247	56.26
754.558	54.7
754.869	56.32
755.181	55.06
755.492	56.56
755.803	53.81
756.114	54.8
756.425	54.5
756.736	55.64
757.047	55.48
757.358	55.16
757.669	55.11
757.98	57.07
758.291	55.77
758.601	53.64
758.912	56.15
759.223	56.24
759.533	55.2
759.844	54.2
760.154	56.04
760.464	54.11
760.775	57.73
761.085	54.47
761.395	55.6
761.705	56.23
762.016	57.49
762.326	55.4
762.636	55.93
762.945	54.82
763.255	54.96
763.565	56.83
763.875	56.51
764.185	55.33
764.494	56.31
764.804	54.23
765.113	54.83
765.423	55.88
765.732	55.17
766.042	55.05
766.351	55.69
766.66	56.6
766.97	55.53
767.279	55.1
767.588	55.88
767.897	57.32
768.206	56.29
768.515	55.01
768.824	56.34
769.133	54.9
769.441	56.93
769.75	54.72
770.059	56.78
770.367	55.82
770.676	56.49
770.984	56.66
771.293	55.59
771.601	54.27
771.91	57.17
772.218	54.18
772.526	57.43
772.834	56.76
773.142	55.3
773.45	54.82
773.758	55.09
774.066	55.02
774.374	56.64
774.682	56.08
774.99	59.7
775.298	54.82
775.605	55.74
775.913	56.92
776.22	55.91
776.528	54.93
776.835	56.6
777.143	58.29
777.45	56.48
777.757	50.49
778.065	58.95
778.372	57.94
778.679	60.59
778.986	54.06
779.293	55.96
779.6	56.75
779.907	56.89
780.214	58.2
780.52	57.3
780.827	56.38
781.134	56.86
781.44	56.47
781.747	54.98
782.053	56.62
782.36	56.93
782.666	54.68
782.973	53.83
783.279	54.18
783.585	59.54
783.891	57
784.197	58.76
784.503	59.24
784.809	60.4
785.115	52.55
785.421	55.89
785.727	58.79
786.033	54
786.339	54.8
786.644	58.04
786.95	57.87
787.255	56.78
787.561	57.99
787.866	50.95
788.172	54.9
788.477	53.96
788.782	54.19
789.088	57.14
789.393	55.07
789.698	53.36
790.003	57.31
790.308	55.67
790.613	54.71
790.918	56.78
791.223	59.05
791.527	56.95
791.832	58.16
792.137	58.21
792.441	58.37
792.746	56.73
793.05	53.7
793.355	61.26
793.659	56.83
793.963	56.62
794.268	55.18
794.572	58.03
794.876	54.7
795.18	58.68
795.484	56.63
795.788	57.8
796.092	57.68
796.396	55.14
796.7	57.03
797.004	61
797.307	55.46
797.611	57.99
797.915	57.25
798.218	57.76
798.522	54.08
798.825	56.4
799.128	55.38
799.432	55.47
799.735	57.92
800.038	53.96
800.341	58.78
800.644	57.89
800.947	62.4
801.25	56.23
801.553	60.07
801.856	52.68
802.159	54
802.462	57.04
802.764	58.37
803.067	59.85
803.37	64.47
803.672	55.4
803.975	59.66
804.277	60.37
804.579	57.68
804.882	57.91
805.184	57.8
805.486	61.2
805.788	62.49
806.09	56.27
806.392	62.86
806.694	59.89
806.996	60.85
807.298	60.3
807.6	58.22
807.902	59.01
808.203	58.14
808.505	52.08
808.807	57.5
809.108	55.89
809.409	61.89
809.711	63.51
810.012	56.36
810.313	59.1
810.615	54.51
810.916	57.85
811.217	62.15
811.518	57.5
811.819	54.37
812.12	54.4
812.421	59.33
812.722	54.46
813.023	59.21
813.323	57.66
813.624	58.4
813.925	55.56
814.225	56.39
814.526	58.03
814.826	57.14
815.126	59.9
815.427	55.73
815.727	59
816.027	60.96
816.327	54.42
816.627	53.84
816.927	55.44
817.227	55.79
817.527	63.02
817.827	55.82
818.127	56.69
818.427	52.24
818.727	60.99
819.026	57.16
819.326	60.82
819.625	60.55
819.925	58.67
820.224	55.84
820.524	58.23
820.823	59.59
821.122	62.32
821.421	61.1
821.72	58.54
822.019	59.24
822.318	63.31
822.617	63.16
822.916	60.82
823.215	60.72
823.514	60.13
823.813	59.62
824.111	59.86
824.41	59.36
824.709	60.2
825.007	60.4
825.306	60
825.604	60.5
825.902	59.9
826.201	60.78
826.499	60.59
826.797	59.8
827.095	57.76
827.393	59.02
827.691	59.13
827.989	58.43
828.287	60.45
828.585	55.97
828.882	60.98
829.18	60.06
829.478	62.07
829.775	60.53
830.073	60.22
830.37	59.62
830.668	57.78
830.965	57.88
831.263	60.36
831.56	60.43
831.857	62.13
832.154	60.71
832.451	58.88
832.748	58.5
833.045	61.11
833.342	56.83
833.639	62.93
833.936	58.12
834.232	63.97
834.529	55.36
834.826	61.08
835.122	58.69
835.419	57.63
835.715	61.46
836.012	57.93
836.308	60.46
836.604	59.11
836.901	63.68
837.197	63
837.493	60.43
837.789	62.28
838.085	58.94
838.381	58.25
838.677	58.23
838.972	59.23
839.268	56.7
839.564	59.96
839.86	58.05
840.155	57.89
840.451	60.44
840.746	61.16
841.042	61.74
841.337	61.18
841.632	56.3
841.928	63.09
842.223	56.34
842.518	53.73
842.813	58.44
843.108	62.26
843.403	63.08
843.698	57.31
843.993	59.61
844.287	59.11
844.582	61.33
844.877	61.74
845.171	61.7
845.466	72.69
845.761	52.56
846.055	66.59
846.349	46.66
846.644	63.46
846.938	47.52
847.232	50.92
847.526	61.27
847.82	59.17
848.114	52.03
848.408	73.68
848.702	49.12
848.996	72.23
849.29	71.39
849.584	68.8
849.877	46.45
850.171	59.45
850.465	40.63
850.758	72.77
851.052	61.88
851.345	63.75
851.638	54.09
851.932	70.09
852.225	56.72
852.518	76.6
852.811	69.87
853.104	72.26
853.397	78.94
853.69	59.59
853.983	63.06
854.276	60.39
854.569	61.95
854.861	70.54
855.154	62.1
855.447	56.38
855.739	59.61
856.032	30.98
856.324	58.13
856.616	82.25
856.909	56.66
857.201	43.02
857.493	51.05
857.785	39.93
858.077	64.54
858.369	55.82
858.661	67.1
858.953	45.37
859.245	62.65
859.537	70.62
859.829	76.59
860.12	50.04
860.412	54.5
860.703	63.03
860.995	50.35
861.286	67.66
861.578	43.69
861.869	49.33
862.16	64.7
862.452	65.86
862.743	52.5
863.034	55.41
863.325	50.17
863.616	46.31
863.907	69.42
864.198	64.6
864.488	76.62
864.779	57.77
865.07	60.05
865.36	63.15
865.651	71.3
865.941	53.58
866.232	40.19
866.522	50.9
866.813	66.55
867.103	72.12
867.393	66.55
867.683	72.1
867.973	68.42
868.263	65.09
868.553	80.68
868.843	67.54
869.133	74.38
869.423	73.51
869.713	57.92
870.002	47.7
870.292	53.83
870.582	52
870.871	35.79
871.161	47.77
871.45	58.6
871.739	47.38
872.029	58.77
872.318	72.99
872.607	54.13
872.896	81.26
873.185	67.13
873.474	52.42
873.763	85.25
874.052	72.87
874.341	65.83
874.63	63.06
874.918	64.01
875.207	46.78
875.496	57.64
875.784	80.18
876.073	45.92
876.361	68.18
876.649	76.42
876.938	62.09
877.226	55.76
877.514	43.62
877.802	39.75
878.09	39.82
878.378	61.8
878.666	54.76
878.954	52.18
879.242	78.31
879.53	34.22
879.817	63.69
880.105	42.19
880.392	58.23
880.68	95.15
880.967	67.77
881.255	58.45
881.542	57.7
881.83	58.14
882.117	43.75
882.404	64.52
882.691	69.61
882.978	42.92
883.265	64.35
883.552	64.38
883.839	60.04
884.126	52.9
884.413	59.12
884.699	58.47
884.986	63.1
885.273	64.18
885.559	64.18
885.846	64.18
