Data from 0051_forehead_Reflection__3__44.txt Node

Date: Fri Dec 16 14:09:50 CST 2022
User: ToomeyLab
Spectrometer: FLMS14357
Trigger mode: 0
Integration Time (sec): 1.000000E-2
Scans to average: 100
Electric dark correction enabled: true
Nonlinearity correction enabled: false
Boxcar width: 0
XAxis mode: Wavelengths
Number of Pixels in Spectrum: 2048
>>>>>Begin Spectral Data<<<<<
189.047	31.68
189.435	31.68
189.823	31.68
190.211	434.83
190.599	-132.89
190.987	273.21
191.375	145.09
191.763	15.14
192.151	-722.58
192.538	44.54
192.926	-166.64
193.314	79.93
193.702	47.75
194.089	39.69
194.477	-37.88
194.864	-68.04
195.252	14.79
195.639	154.19
196.027	387.24
196.414	-163.14
196.801	-144.8
197.189	258.79
197.576	116.48
197.963	226.14
198.351	25.21
198.738	9.97
199.125	41.09
199.512	12.82
199.899	-2.65
200.286	12.25
200.673	48.62
201.06	38.83
201.447	75.29
201.833	33.3
202.22	34.43
202.607	16.94
202.994	39.25
203.38	37.37
203.767	19.22
204.154	-5.65
204.54	34.6
204.927	6.42
205.313	41.23
205.699	-11.05
206.086	0.77
206.472	-4.98
206.858	54.06
207.245	33.69
207.631	34.86
208.017	43.08
208.403	30.27
208.789	17.63
209.175	63.43
209.561	57.33
209.947	29.17
210.333	-34.23
210.719	10.91
211.105	2.67
211.491	20.31
211.876	9.1
212.262	-14.45
212.648	35.68
213.034	18.64
213.419	50.19
213.805	33.97
214.19	35.91
214.576	-9.9
214.961	14.11
215.346	-3.62
215.732	10.07
216.117	-16.74
216.502	6.33
216.888	-2.75
217.273	36.73
217.658	26.95
218.043	14.53
218.428	10.22
218.813	13.05
219.198	12.55
219.583	10.53
219.968	13.51
220.353	28.7
220.738	21.33
221.122	3.79
221.507	15.59
221.892	9.85
222.276	14.74
222.661	2.21
223.046	18.34
223.43	7.76
223.815	17.08
224.199	11.72
224.583	10.3
224.968	18.25
225.352	3.45
225.736	8.45
226.121	0.88
226.505	8.04
226.889	11.38
227.273	5.37
227.657	7.19
228.041	6.22
228.425	6.72
228.809	0.81
229.193	1.38
229.577	2.89
229.961	3.74
230.344	3.77
230.728	3.72
231.112	4.04
231.495	4.31
231.879	3.94
232.263	3.52
232.646	2.58
233.03	1.55
233.413	3.11
233.797	4.69
234.18	3.19
234.563	3.1
234.946	3.27
235.33	3.59
235.713	3.87
236.096	4.44
236.479	5.07
236.862	3.7
237.245	4.21
237.628	4.1
238.011	4.59
238.394	5.04
238.777	3.8
239.16	1.85
239.543	3.5
239.925	4.97
240.308	4.73
240.691	4.17
241.073	3.46
241.456	3.66
241.838	3.67
242.221	3.27
242.603	3.34
242.986	4.37
243.368	3.76
243.75	3.08
244.133	3.24
244.515	3.77
244.897	3.59
245.279	3.17
245.661	4.17
246.043	3.29
246.425	3.1
246.807	3.16
247.189	4.08
247.571	3.92
247.953	3.14
248.335	3.49
248.717	3.33
249.098	3.65
249.48	2.9
249.862	3.69
250.243	3.88
250.625	3.38
251.006	3.53
251.388	3.97
251.769	3.77
252.151	4.51
252.532	3.71
252.913	4.06
253.295	3.71
253.676	3.85
254.057	3.4
254.438	3.81
254.819	3.82
255.2	4.29
255.581	2.71
255.962	3.88
256.343	4.12
256.724	5.11
257.105	3.62
257.486	4.02
257.867	3.93
258.247	4.23
258.628	4.81
259.009	3.84
259.389	3.73
259.77	3.74
260.15	4.14
260.531	3.54
260.911	3.22
261.292	3.31
261.672	3.2
262.052	3.55
262.432	3.52
262.813	3.62
263.193	3.52
263.573	3.31
263.953	3.45
264.333	4.04
264.713	3.23
265.093	3.12
265.473	3.98
265.853	3.57
266.233	3.88
266.612	3.25
266.992	3.45
267.372	3.52
267.752	3.37
268.131	3.74
268.511	3.75
268.89	3.6
269.27	3.71
269.649	3.48
270.029	2.85
270.408	3.34
270.787	3.63
271.167	3.29
271.546	2.37
271.925	3.41
272.304	3.51
272.683	3.43
273.062	3.19
273.441	3.64
273.82	3.49
274.199	3.55
274.578	3.15
274.957	3.25
275.336	3.29
275.715	3.63
276.093	3.88
276.472	3.34
276.851	3.11
277.229	3.67
277.608	3.89
277.986	3.62
278.365	3.25
278.743	3.38
279.122	2.87
279.5	3.3
279.878	2.9
280.257	3.6
280.635	3.16
281.013	3.34
281.391	3.25
281.769	2.96
282.147	3.3
282.525	3.62
282.903	3.16
283.281	3.5
283.659	3.42
284.037	3.59
284.415	3.01
284.792	3.51
285.17	3.24
285.548	2.78
285.925	2.98
286.303	3.21
286.68	3.52
287.058	3.01
287.435	2.76
287.813	3.33
288.19	3.65
288.567	3.23
288.945	3.63
289.322	3.3
289.699	3.37
290.076	3.7
290.453	3.28
290.83	3.49
291.207	3.58
291.584	3.25
291.961	3.51
292.338	3.36
292.715	3.44
293.092	3.94
293.469	4
293.845	3.95
294.222	3.79
294.599	3.75
294.975	3.95
295.352	3.45
295.728	3.36
296.105	3.83
296.481	4.03
296.858	4.16
297.234	3.45
297.61	3.87
297.986	4.07
298.363	3.69
298.739	3.89
299.115	3.55
299.491	4.07
299.867	4.1
300.243	4.25
300.619	3.77
300.995	3.74
301.371	4.32
301.746	4.02
302.122	4.43
302.498	4.33
302.874	4.37
303.249	4.37
303.625	3.88
304	4.04
304.376	4.4
304.751	4.75
305.127	4.55
305.502	4.75
305.878	4.7
306.253	4.52
306.628	4.97
307.003	4.93
307.378	4.37
307.754	4.78
308.129	4.33
308.504	4.54
308.879	4.95
309.254	5.08
309.629	4.44
310.003	4.99
310.378	5.02
310.753	4.87
311.128	4.57
311.502	4.76
311.877	5.14
312.252	5.04
312.626	4.74
313.001	4.85
313.375	4.95
313.75	5.06
314.124	5.64
314.498	4.94
314.873	5.12
315.247	4.94
315.621	5.74
315.995	5.54
316.369	5.75
316.743	5.67
317.117	5.34
317.491	5.32
317.865	5.08
318.239	6.25
318.613	5.46
318.987	5.51
319.361	5.84
319.734	6.4
320.108	5.75
320.482	6.33
320.855	6.06
321.229	6.36
321.602	6.16
321.976	6.13
322.349	5.58
322.723	5.99
323.096	5.8
323.469	5.46
323.843	6.16
324.216	5.82
324.589	6.97
324.962	6.46
325.335	6.44
325.708	6.55
326.081	6.88
326.454	6.77
326.827	7.14
327.2	6.89
327.573	6.87
327.945	6.58
328.318	6.71
328.691	6.99
329.063	6.93
329.436	6.77
329.809	6.52
330.181	7.03
330.553	7.13
330.926	7.26
331.298	6.81
331.671	6.99
332.043	7.29
332.415	7.47
332.787	7.49
333.159	6.96
333.532	7.57
333.904	7.68
334.276	7.24
334.648	7.64
335.02	7.41
335.391	7.45
335.763	7.41
336.135	7.83
336.507	7.98
336.879	7.28
337.25	7.23
337.622	7.81
337.993	7.97
338.365	7.93
338.736	8.13
339.108	7.56
339.479	7.48
339.851	7.85
340.222	7.86
340.593	7.31
340.964	7.7
341.336	7.1
341.707	7.61
342.078	7.89
342.449	8.5
342.82	8.09
343.191	7.51
343.562	8.32
343.933	7.82
344.303	8
344.674	7.97
345.045	8.75
345.416	8.22
345.786	7.54
346.157	8.26
346.527	8.18
346.898	8.27
347.268	8.17
347.639	8.15
348.009	8.19
348.38	8.37
348.75	8.52
349.12	8.56
349.49	8.3
349.861	8.48
350.231	9
350.601	8.69
350.971	8.84
351.341	8.48
351.711	8.57
352.081	8.84
352.45	9.09
352.82	8.86
353.19	9
353.56	8.69
353.929	9.07
354.299	9.19
354.669	9.02
355.038	8.97
355.408	9.4
355.777	8.84
356.147	9.07
356.516	9.01
356.885	8.8
357.254	9.14
357.624	9.14
357.993	9.13
358.362	9.44
358.731	9.17
359.1	9.3
359.469	9.5
359.838	9.28
360.207	9.19
360.576	9.58
360.945	9.44
361.314	9.86
361.682	9.33
362.051	9.52
362.42	9.52
362.788	9.23
363.157	9.09
363.525	9.34
363.894	9.37
364.262	9.56
364.631	10.49
364.999	9.57
365.367	10.15
365.735	9.59
366.104	10.02
366.472	9.87
366.84	10.05
367.208	9.75
367.576	9.93
367.944	10.24
368.312	9.91
368.68	10.17
369.048	10.16
369.416	10.29
369.783	10.2
370.151	10.19
370.519	10.31
370.886	10.58
371.254	10.44
371.621	10.44
371.989	10.74
372.356	10.52
372.724	10.36
373.091	10.56
373.458	10.6
373.826	10.54
374.193	11.08
374.56	10.53
374.927	10.95
375.294	10.97
375.661	10.92
376.028	10.83
376.395	10.67
376.762	11.44
377.129	11.33
377.496	11.16
377.863	11.28
378.229	10.96
378.596	10.93
378.963	10.94
379.329	10.84
379.696	11.22
380.062	11.35
380.429	11.38
380.795	11.07
381.161	11.22
381.528	11.23
381.894	11.46
382.26	11.38
382.626	11.36
382.993	11.52
383.359	11.55
383.725	11.6
384.091	11.86
384.457	11.64
384.823	11.75
385.188	11.72
385.554	11.59
385.92	12.13
386.286	12
386.651	12.31
387.017	12.11
387.383	11.91
387.748	11.75
388.114	12.26
388.479	11.92
388.845	12.38
389.21	12.46
389.575	12.24
389.94	12.3
390.306	12.42
390.671	12.3
391.036	12.74
391.401	12.52
391.766	12.84
392.131	12.48
392.496	12.52
392.861	12.29
393.226	12.51
393.591	12.7
393.956	12.76
394.32	12.54
394.685	12.89
395.05	12.83
395.414	12.74
395.779	12.75
396.143	12.9
396.508	13.08
396.872	13.25
397.236	12.98
397.601	13.29
397.965	13.15
398.329	13.27
398.694	13.01
399.058	13.32
399.422	13.22
399.786	13
400.15	13.09
400.514	13.19
400.878	13.39
401.242	13.61
401.605	13.38
401.969	13.58
402.333	13.44
402.697	13.76
403.06	13.74
403.424	13.62
403.787	13.97
404.151	13.62
404.514	13.86
404.878	13.89
405.241	13.87
405.604	13.93
405.968	13.68
406.331	14.13
406.694	14
407.057	14.18
407.42	14.1
407.783	13.99
408.146	14.01
408.509	13.96
408.872	14.4
409.235	14.26
409.598	14.47
409.961	14.57
410.323	14.22
410.686	14.46
411.049	14.37
411.411	14.57
411.774	14.57
412.136	14.59
412.499	14.42
412.861	14.61
413.223	14.81
413.586	14.76
413.948	14.78
414.31	15.22
414.672	14.87
415.035	15
415.397	14.98
415.759	15
416.121	15.2
416.483	15.13
416.845	15.01
417.206	15.29
417.568	15.07
417.93	15.05
418.292	15.2
418.653	15.24
419.015	15.35
419.377	15.18
419.738	15.21
420.1	15.14
420.461	15.18
420.822	15.24
421.184	15.34
421.545	15.16
421.906	15.23
422.267	15.04
422.629	15.22
422.99	15.26
423.351	15.33
423.712	15.43
424.073	15.51
424.434	15.43
424.795	15.52
425.155	15.63
425.516	15.45
425.877	15.5
426.238	15.54
426.598	15.68
426.959	15.73
427.32	15.82
427.68	16.04
428.041	16.12
428.401	16.03
428.761	16.05
429.122	16.25
429.482	16.18
429.842	16.49
430.202	16.33
430.563	16.44
430.923	16.28
431.283	16.47
431.643	16.41
432.003	16.65
432.363	16.7
432.722	16.66
433.082	16.54
433.442	16.73
433.802	16.75
434.161	16.84
434.521	16.78
434.881	16.78
435.24	16.79
435.6	16.83
435.959	16.83
436.319	17.03
436.678	17.04
437.037	17
437.396	17.14
437.756	17.26
438.115	17.15
438.474	17.27
438.833	17.32
439.192	17.54
439.551	17.25
439.91	17.4
440.269	17.52
440.628	17.36
440.987	17.13
441.345	17.35
441.704	17.49
442.063	17.34
442.421	17.43
442.78	17.42
443.138	17.54
443.497	17.53
443.855	17.61
444.214	17.84
444.572	17.8
444.93	18.06
445.288	17.81
445.647	18.03
446.005	17.77
446.363	17.98
446.721	17.75
447.079	17.84
447.437	17.86
447.795	17.79
448.153	17.93
448.51	17.98
448.868	18.06
449.226	18.12
449.584	18.16
449.941	18.4
450.299	18.37
450.656	18.54
451.014	18.5
451.371	18.66
451.729	18.63
452.086	18.63
452.443	18.84
452.801	18.7
453.158	18.84
453.515	18.64
453.872	18.93
454.229	18.85
454.586	19.18
454.943	18.9
455.3	19.13
455.657	19.12
456.014	19.38
456.371	19.23
456.727	19.06
457.084	19.37
457.441	19.24
457.797	19.58
458.154	19.54
458.51	19.33
458.867	19.44
459.223	19.53
459.58	19.63
459.936	19.48
460.292	19.66
460.648	19.31
461.005	19.16
461.361	19.29
461.717	19.4
462.073	19.54
462.429	19.63
462.785	19.77
463.141	19.92
463.496	19.98
463.852	20.16
464.208	20.16
464.564	20.3
464.919	20.1
465.275	20.23
465.631	20.37
465.986	20.27
466.342	20.51
466.697	20.28
467.052	20.76
467.408	20.47
467.763	20.53
468.118	20.51
468.473	20.78
468.829	20.74
469.184	20.94
469.539	20.89
469.894	20.88
470.249	20.82
470.603	21.07
470.958	21.04
471.313	20.97
471.668	21.19
472.023	21.29
472.377	21.12
472.732	21.11
473.086	21.3
473.441	21.37
473.795	21.51
474.15	21.49
474.504	21.47
474.859	21.59
475.213	21.45
475.567	21.46
475.921	21.76
476.275	21.8
476.63	21.75
476.984	21.61
477.338	21.82
477.692	21.76
478.045	21.67
478.399	21.78
478.753	21.76
479.107	21.63
479.461	21.96
479.814	21.9
480.168	22.02
480.521	22
480.875	22.22
481.228	22.15
481.582	22.01
481.935	22.23
482.289	22.06
482.642	22.01
482.995	22.04
483.348	21.91
483.701	21.83
484.055	21.81
484.408	21.61
484.761	21.23
485.114	21.28
485.466	21.29
485.819	21.41
486.172	21.54
486.525	21.71
486.878	21.85
487.23	22.07
487.583	22.08
487.936	22.16
488.288	22.01
488.641	21.93
488.993	21.87
489.345	21.94
489.698	22.12
490.05	22.15
490.402	22.31
490.754	22.53
491.107	22.66
491.459	22.86
491.811	22.88
492.163	22.95
492.515	22.53
492.866	22.39
493.218	22.51
493.57	22.62
493.922	22.79
494.274	23.1
494.625	23.31
494.977	23.3
495.328	23.7
495.68	23.97
496.031	23.9
496.383	23.75
496.734	24.02
497.086	24
497.437	24.08
497.788	23.9
498.139	23.92
498.49	23.95
498.842	24.02
499.193	24.02
499.544	24.08
499.894	24.28
500.245	24.19
500.596	24.46
500.947	24.4
501.298	24.41
501.648	24.65
501.999	24.81
502.35	24.87
502.7	24.84
503.051	24.98
503.401	24.93
503.752	24.85
504.102	24.94
504.452	24.99
504.803	24.85
505.153	25.08
505.503	25.06
505.853	25.14
506.203	25.18
506.553	25.29
506.903	25.16
507.253	25.43
507.603	25.49
507.953	25.62
508.303	25.53
508.652	25.62
509.002	25.55
509.352	25.66
509.701	25.57
510.051	25.52
510.4	25.56
510.75	25.56
511.099	25.63
511.449	25.67
511.798	25.78
512.147	25.93
512.496	25.93
512.846	25.8
513.195	25.9
513.544	25.94
513.893	25.92
514.242	26.16
514.591	26.08
514.939	26.17
515.288	26.31
515.637	26.48
515.986	26.23
516.334	26.51
516.683	26.42
517.032	26.39
517.38	26.47
517.729	26.61
518.077	26.55
518.426	26.46
518.774	26.59
519.122	26.51
519.47	26.44
519.819	26.28
520.167	26.33
520.515	26.49
520.863	26.47
521.211	26.76
521.559	26.78
521.907	26.85
522.255	27.03
522.602	27.12
522.95	27.25
523.298	27.38
523.645	27.18
523.993	27.51
524.341	27.44
524.688	27.5
525.036	27.57
525.383	27.5
525.73	27.47
526.078	27.47
526.425	27.27
526.772	27.11
527.119	27.06
527.466	27.09
527.814	27.16
528.161	27.19
528.508	27.17
528.854	27.28
529.201	26.98
529.548	26.82
529.895	26.7
530.242	26.89
530.588	27.06
530.935	27.03
531.282	27.21
531.628	27.39
531.975	27.53
532.321	27.67
532.667	27.9
533.014	28.02
533.36	28.01
533.706	27.87
534.052	27.75
534.399	27.59
534.745	27.65
535.091	27.71
535.437	27.75
535.783	28.05
536.129	28.08
536.474	28.29
536.82	28.51
537.166	28.79
537.512	28.48
537.857	28.44
538.203	28.39
538.549	28.6
538.894	28.6
539.239	28.85
539.585	28.95
539.93	29.17
540.276	29.25
540.621	29.2
540.966	29.22
541.311	29.28
541.656	29.13
542.001	28.98
542.346	28.63
542.691	28.54
543.036	28.47
543.381	28.72
543.726	28.77
544.071	28.96
544.415	29.09
544.76	29.16
545.105	29.36
545.449	29.41
545.794	29.56
546.138	29.88
546.483	29.8
546.827	29.96
547.171	29.94
547.516	30.11
547.86	29.8
548.204	29.9
548.548	30.1
548.892	30.16
549.236	30.49
549.58	30.37
549.924	30.82
550.268	30.74
550.612	30.86
550.956	30.88
551.3	31.08
551.643	31.15
551.987	31.09
552.33	30.96
552.674	31.25
553.017	31.43
553.361	31.2
553.704	31.15
554.048	31.03
554.391	31.1
554.734	31.19
555.077	31.08
555.42	31.31
555.764	31.43
556.107	31.61
556.45	31.52
556.793	31.74
557.135	31.97
557.478	31.98
557.821	31.75
558.164	32.02
558.507	31.96
558.849	32
559.192	31.96
559.534	31.91
559.877	32.21
560.219	32.27
560.562	32.19
560.904	32.42
561.246	32.5
561.589	32.59
561.931	32.62
562.273	32.33
562.615	32.4
562.957	32.67
563.299	32.38
563.641	32.56
563.983	32.52
564.325	32.7
564.667	32.69
565.008	32.73
565.35	32.87
565.692	32.94
566.033	32.97
566.375	32.79
566.716	32.65
567.058	32.78
567.399	32.63
567.741	32.79
568.082	32.71
568.423	32.71
568.764	32.85
569.105	32.94
569.447	33.32
569.788	33.29
570.129	33.16
570.47	33.32
570.811	33.37
571.151	33.28
571.492	33.29
571.833	33.34
572.174	33.35
572.514	33.3
572.855	33.49
573.195	33.29
573.536	33.16
573.876	33.38
574.217	33.44
574.557	33.53
574.898	33.49
575.238	33.76
575.578	33.72
575.918	33.81
576.258	33.65
576.598	33.75
576.938	33.85
577.278	34.04
577.618	34.03
577.958	34.07
578.298	34.34
578.638	34.29
578.977	34.32
579.317	34.35
579.657	34.67
579.996	34.38
580.336	34.48
580.675	34.59
581.014	34.78
581.354	34.9
581.693	34.85
582.032	34.79
582.372	35.13
582.711	35.14
583.05	35.28
583.389	35.09
583.728	35.46
584.067	35.11
584.406	35.18
584.745	35.18
585.083	35.49
585.422	35.59
585.761	35.37
586.1	35.55
586.438	35.45
586.777	35.44
587.115	35.5
587.454	35.51
587.792	35.3
588.13	35.99
588.469	35.85
588.807	36.19
589.145	35.8
589.483	35.84
589.821	35.64
590.159	35.95
590.497	35.99
590.835	35.95
591.173	35.84
591.511	35.96
591.849	36.01
592.187	36.07
592.524	36.06
592.862	36.18
593.2	36.16
593.537	36.41
593.875	36.28
594.212	36.29
594.55	36.51
594.887	36.75
595.224	36.28
595.561	36.52
595.899	36.45
596.236	36.52
596.573	36.32
596.91	36.33
597.247	36.35
597.584	36.57
597.921	36.3
598.258	36.32
598.594	36.23
598.931	36.26
599.268	36.32
599.604	36.59
599.941	36.74
600.277	36.69
600.614	37.05
600.95	37.15
601.287	37.13
601.623	37.39
601.959	37.28
602.296	37.17
602.632	37.08
602.968	36.99
603.304	36.96
603.64	37.45
603.976	37.04
604.312	37.24
604.648	37.19
604.984	37.1
605.319	37.07
605.655	37.19
605.991	36.82
606.326	36.98
606.662	37.18
606.998	37.47
607.333	37.17
607.668	37.36
608.004	37.58
608.339	37.68
608.674	37.55
609.01	37.84
609.345	37.94
609.68	37.94
610.015	37.66
610.35	38.04
610.685	37.57
611.02	37.77
611.355	38.01
611.689	37.56
612.024	37.9
612.359	38.1
612.694	38.09
613.028	38.42
613.363	38.16
613.697	38.41
614.032	38.36
614.366	38.6
614.7	38.51
615.035	38.79
615.369	38.75
615.703	38.75
616.037	38.46
616.371	38.57
616.705	38.89
617.039	39.04
617.373	38.92
617.707	38.84
618.041	39.27
618.375	38.88
618.709	38.9
619.042	38.7
619.376	39.08
619.71	39.23
620.043	39.27
620.377	39.06
620.71	39.12
621.043	39.36
621.377	39.37
621.71	39.17
622.043	39.66
622.376	39.08
622.709	39.48
623.043	39.36
623.376	39.45
623.709	39.59
624.041	39.78
624.374	39.7
624.707	39.2
625.04	39.67
625.373	39.38
625.705	39.7
626.038	40.06
626.37	39.72
626.703	39.4
627.035	39.76
627.368	39.76
627.7	39.82
628.032	39.46
628.365	39.39
628.697	39.69
629.029	39.97
629.361	39.98
629.693	40.06
630.025	40.06
630.357	40
630.689	40.42
631.021	40.44
631.353	40.51
631.684	40.31
632.016	40.39
632.348	40.34
632.679	40.43
633.011	40.55
633.342	40.69
633.674	40.5
634.005	40.84
634.336	39.99
634.668	40.36
634.999	40.77
635.33	40.68
635.661	40.62
635.992	40.7
636.323	40.79
636.654	41.03
636.985	40.65
637.316	40.59
637.647	40.91
637.977	40.64
638.308	40.8
638.639	40.68
638.969	40.78
639.3	41.17
639.63	41.13
639.961	40.87
640.291	41.62
640.622	41.04
640.952	41.42
641.282	41.8
641.612	41.14
641.943	41.47
642.273	41.44
642.603	41.53
642.933	41.45
643.263	41.57
643.592	41.48
643.922	41.82
644.252	41.6
644.582	42.01
644.911	41.59
645.241	41.47
645.571	41.94
645.9	41.58
646.23	41.59
646.559	41.53
646.888	41.73
647.218	42.25
647.547	41.82
647.876	42.25
648.205	41.99
648.534	41.82
648.863	42.45
649.192	42.32
649.521	42.47
649.85	42.1
650.179	42.22
650.508	42.14
650.837	42.42
651.165	41.76
651.494	41.88
651.822	42.43
652.151	42.6
652.479	42.42
652.808	42.08
653.136	42.19
653.465	42.58
653.793	42.28
654.121	42.09
654.449	42.41
654.777	43.08
655.105	42.82
655.433	42.52
655.761	42.8
656.089	42.76
656.417	42.22
656.745	43.33
657.073	43.09
657.4	42.8
657.728	42.95
658.056	42.37
658.383	42.73
658.711	42.92
659.038	42.96
659.365	42.23
659.693	42.52
660.02	43.13
660.347	42.27
660.674	42.85
661.001	42.56
661.329	43.15
661.656	43
661.982	42.71
662.309	43.11
662.636	42.99
662.963	43.16
663.29	43.11
663.616	43.45
663.943	43
664.27	43.82
664.596	42.97
664.923	43.64
665.249	43.39
665.576	43.46
665.902	43.7
666.228	43.22
666.554	43.78
666.881	44.2
667.207	43.25
667.533	43.9
667.859	43.81
668.185	43.97
668.511	43.42
668.837	43.46
669.162	44.31
669.488	44.46
669.814	43.77
670.139	44.07
670.465	43.87
670.791	44.23
671.116	43.8
671.442	44.03
671.767	44.02
672.092	43.97
672.418	43.9
672.743	44.41
673.068	43.75
673.393	44.24
673.718	44.32
674.043	44.08
674.368	43.94
674.693	44.62
675.018	43.86
675.343	44.35
675.667	44.7
675.992	43.9
676.317	44.16
676.641	44.53
676.966	44.16
677.29	44.66
677.615	44.78
677.939	45.49
678.264	44.23
678.588	45.19
678.912	45.25
679.236	44.48
679.56	44.47
679.885	44.64
680.209	43.88
680.532	44.97
680.856	44.45
681.18	44.54
681.504	44.45
681.828	44.55
682.152	44.32
682.475	44.86
682.799	44.23
683.122	45.24
683.446	44.74
683.769	45.24
684.093	44.99
684.416	44.61
684.739	45.09
685.062	44.98
685.386	45.38
685.709	45.5
686.032	45.03
686.355	45.26
686.678	45.41
687.001	44.21
687.324	45.19
687.646	45.37
687.969	45.07
688.292	45.75
688.614	46.04
688.937	45.31
689.26	45.84
689.582	45.38
689.904	44.93
690.227	45.46
690.549	45.02
690.871	45.42
691.194	45.14
691.516	45.58
691.838	44.83
692.16	45.1
692.482	45.02
692.804	45.27
693.126	45.31
693.448	46.06
693.769	45.86
694.091	45.94
694.413	45.34
694.735	45.8
695.056	45.88
695.378	45.25
695.699	45.99
696.021	45.61
696.342	45.9
696.663	46.32
696.984	45.82
697.306	46.28
697.627	45.27
697.948	46.04
698.269	46.85
698.59	45.58
698.911	45.86
699.232	45.88
699.553	46.02
699.873	45.91
700.194	46.53
700.515	45.7
700.835	46.56
701.156	46.01
701.477	45.95
701.797	46.8
702.117	46.9
702.438	46.17
702.758	46.32
703.078	45.93
703.398	46.71
703.719	45.94
704.039	46.98
704.359	46.74
704.679	45.51
704.999	46.95
705.319	46.7
705.638	46.69
705.958	47.12
706.278	46.62
706.597	46.81
706.917	46.44
707.237	46.95
707.556	46.98
707.876	45.9
708.195	46.3
708.514	46.86
708.834	46.3
709.153	46.26
709.472	47.95
709.791	47.26
710.11	47.4
710.429	46.92
710.748	46.91
711.067	47.53
711.386	47.46
711.705	47.73
712.023	46.5
712.342	46.82
712.661	47.19
712.979	48.02
713.298	47.71
713.616	48.41
713.935	47.4
714.253	47.64
714.572	46.26
714.89	46.68
715.208	48.19
715.526	47.93
715.844	47.66
716.162	47.22
716.48	46.55
716.798	47.47
717.116	48.07
717.434	48.03
717.752	47.61
718.069	46.79
718.387	47.17
718.705	48.13
719.022	47.82
719.34	47.64
719.657	47.17
719.975	47.57
720.292	47.89
720.609	47.34
720.927	47.25
721.244	47.19
721.561	47.23
721.878	47.28
722.195	47.77
722.512	47.52
722.829	47.25
723.146	46.91
723.463	46.43
723.779	46.21
724.096	47.11
724.413	48.17
724.729	48.3
725.046	46.99
725.362	47.42
725.679	48.16
725.995	48.12
726.311	46.36
726.628	47.27
726.944	48.76
727.26	47.72
727.576	49.38
727.892	49.11
728.208	48.1
728.524	48.29
728.84	47.89
729.156	49.01
729.472	48.33
729.787	48.52
730.103	47.61
730.419	47.71
730.734	47.35
731.05	48.85
731.365	47.56
731.681	47.82
731.996	47.86
732.311	49.71
732.626	48.97
732.942	48.23
733.257	48.87
733.572	49.02
733.887	48.9
734.202	50.37
734.517	48.68
734.832	48.6
735.146	47.44
735.461	47.69
735.776	49.05
736.091	48.7
736.405	50.15
736.72	49.22
737.034	48.59
737.349	46.89
737.663	50.65
737.977	48.18
738.292	48.85
738.606	48.88
738.92	49.9
739.234	50.15
739.548	48.86
739.862	48.56
740.176	48.69
740.49	49.73
740.804	48.24
741.117	48.35
741.431	48.96
741.745	48.72
742.058	49.21
742.372	49.96
742.685	46.94
742.999	49.93
743.312	48.59
743.626	49.8
743.939	47.78
744.252	50.11
744.565	49.44
744.878	49.07
745.191	48.58
745.505	48.09
745.817	48.43
746.13	48.73
746.443	49.5
746.756	47.92
747.069	50.18
747.381	48.33
747.694	47.73
748.007	50.69
748.319	51.16
748.632	49.8
748.944	49.3
749.256	49.9
749.569	48.35
749.881	47.96
750.193	49.83
750.505	51.3
750.817	48.52
751.129	50.53
751.441	48.21
751.753	48.74
752.065	50.14
752.377	49.36
752.689	49.47
753	49.83
753.312	48.25
753.624	51.02
753.935	48.53
754.247	51.59
754.558	51.2
754.869	49.87
755.181	51.07
755.492	49.97
755.803	48.54
756.114	49.44
756.425	49.77
756.736	51.52
757.047	49.97
757.358	49.97
757.669	48.53
757.98	51.15
758.291	50.6
758.601	49.65
758.912	49.31
759.223	50.39
759.533	51.26
759.844	51.68
760.154	50.24
760.464	49.93
760.775	51.49
761.085	47.93
761.395	53.25
761.705	50.45
762.016	49.9
762.326	52.61
762.636	50.54
762.945	49.76
763.255	50.13
763.565	50.69
763.875	50.43
764.185	50.46
764.494	49.64
764.804	50.92
765.113	50.23
765.423	51.33
765.732	50.61
766.042	50.74
766.351	51.32
766.66	51.13
766.97	50.47
767.279	50.88
767.588	50.15
767.897	51.28
768.206	51.56
768.515	51.3
768.824	52.19
769.133	49.34
769.441	51.58
769.75	49.53
770.059	50.14
770.367	52.64
770.676	52.6
770.984	54.57
771.293	47.08
771.601	50.04
771.91	51.01
772.218	49.91
772.526	52.33
772.834	53.79
773.142	51.59
773.45	50.48
773.758	49.37
774.066	49.65
774.374	51.2
774.682	48.64
774.99	50.67
775.298	50.35
775.605	50.8
775.913	51.58
776.22	46.94
776.528	52.02
776.835	51.04
777.143	50.61
777.45	50.57
777.757	47.28
778.065	51.76
778.372	51.33
778.679	50.98
778.986	49.83
779.293	48.67
779.6	53.07
779.907	53.02
780.214	52.01
780.52	52.59
780.827	54.11
781.134	51.75
781.44	51.14
781.747	49.63
782.053	52.51
782.36	52.21
782.666	51.38
782.973	48.22
783.279	50.34
783.585	49.43
783.891	49.46
784.197	49.28
784.503	51.66
784.809	51.18
785.115	49.93
785.421	50.22
785.727	49.46
786.033	48.68
786.339	53.77
786.644	50.25
786.95	54.1
787.255	51.85
787.561	49.65
787.866	50.86
788.172	51.39
788.477	51.95
788.782	49.22
789.088	52.98
789.393	48.71
789.698	50.52
790.003	53.8
790.308	52.64
790.613	50.4
790.918	51.81
791.223	50.77
791.527	51.42
791.832	53.11
792.137	52.19
792.441	54.26
792.746	52.48
793.05	53.3
793.355	55.29
793.659	46.96
793.963	49.7
794.268	47.91
794.572	53.41
794.876	53.04
795.18	53.17
795.484	52.1
795.788	57.91
796.092	55.24
796.396	52.21
796.7	51.65
797.004	51.65
797.307	48.64
797.611	53.02
797.915	50.46
798.218	50.72
798.522	47.75
798.825	52.82
799.128	52.22
799.432	52.42
799.735	51.19
800.038	52.03
800.341	50.49
800.644	53.13
800.947	52.27
801.25	52.38
801.553	51.66
801.856	50.46
802.159	49.31
802.462	55.89
802.764	51.07
803.067	50.8
803.37	50.1
803.672	50.29
803.975	52.22
804.277	52.59
804.579	53.25
804.882	50.76
805.184	49.11
805.486	51.48
805.788	52.62
806.09	52.47
806.392	55.66
806.694	51.93
806.996	47.46
807.298	52.45
807.6	53.82
807.902	54.74
808.203	56.28
808.505	52.23
808.807	52.88
809.108	48.89
809.409	52.37
809.711	51.89
810.012	52.93
810.313	51.79
810.615	48.68
810.916	52.12
811.217	55.63
811.518	53.47
811.819	49.29
812.12	52.8
812.421	52.17
812.722	49.22
813.023	52.49
813.323	48.74
813.624	53.66
813.925	54.61
814.225	52.25
814.526	48.91
814.826	50.6
815.126	51.88
815.427	54.62
815.727	57.43
816.027	57.58
816.327	48.98
816.627	47.78
816.927	47.39
817.227	51.65
817.527	48.62
817.827	51.96
818.127	49.53
818.427	48.31
818.727	53.74
819.026	52.91
819.326	60.04
819.625	53.71
819.925	50.69
820.224	47.44
820.524	50.38
820.823	48.25
821.122	49.98
821.421	57.44
821.72	55.17
822.019	47.75
822.318	57.11
822.617	52.91
822.916	50.69
823.215	52.96
823.514	52.19
823.813	53.68
824.111	52.94
824.41	53.04
824.709	54.53
825.007	55.4
825.306	54.33
825.604	53.37
825.902	53.36
826.201	54.52
826.499	53.65
826.797	53.55
827.095	51.52
827.393	53.9
827.691	54.77
827.989	53.4
828.287	54.59
828.585	51.17
828.882	53.23
829.18	51.54
829.478	53.69
829.775	54.2
830.073	55.06
830.37	52.98
830.668	53.91
830.965	52.58
831.263	54.21
831.56	53.41
831.857	55.4
832.154	56.22
832.451	53.01
832.748	52.33
833.045	56.25
833.342	51.13
833.639	57.15
833.936	50.35
834.232	53.39
834.529	55.09
834.826	56.05
835.122	54.46
835.419	50.07
835.715	54.87
836.012	54.23
836.308	55.82
836.604	54.43
836.901	58.69
837.197	52.36
837.493	55.09
837.789	50.77
838.085	49.59
838.381	50.67
838.677	50.4
838.972	52.06
839.268	53.91
839.564	51.54
839.86	57.6
840.155	50.75
840.451	53.08
840.746	55.93
841.042	56.13
841.337	55.46
841.632	55.98
841.928	57.5
842.223	52.84
842.518	52.89
842.813	57.8
843.108	51.62
843.403	55.25
843.698	53.04
843.993	46.89
844.287	50.1
844.582	53.55
844.877	50.76
845.171	50.69
845.466	60.07
845.761	48.39
846.055	57.26
846.349	43.64
846.644	47.43
846.938	47.96
847.232	64.09
847.526	58.04
847.82	49.77
848.114	53.82
848.408	65
848.702	51.16
848.996	60.82
849.29	58.44
849.584	57.61
849.877	55.99
850.171	53.01
850.465	52.05
850.758	40.93
851.052	55.87
851.345	48.77
851.638	45.87
851.932	44.41
852.225	45.52
852.518	67.87
852.811	59.81
853.104	35.47
853.397	54.1
853.69	45.95
853.983	46.83
854.276	28.32
854.569	46.19
854.861	59.7
855.154	55.42
855.447	51.66
855.739	30.79
856.032	33.32
856.324	41.82
856.616	64.25
856.909	46.8
857.201	35.08
857.493	55.26
857.785	62.11
858.077	50.17
858.369	70.34
858.661	57.71
858.953	20.28
859.245	40.47
859.537	60.29
859.829	52.22
860.12	61.03
860.412	54.29
860.703	66.77
860.995	62.4
861.286	49.57
861.578	45.03
861.869	62.51
862.16	47.93
862.452	42.82
862.743	76.57
863.034	57.82
863.325	51.15
863.616	34.16
863.907	69.16
864.198	56.4
864.488	45.99
864.779	36.37
865.07	59.42
865.36	50.24
865.651	62.93
865.941	53.37
866.232	60.47
866.522	61.26
866.813	63.55
867.103	51.4
867.393	44.58
867.683	43.38
867.973	37.92
868.263	30.77
868.553	45.6
868.843	61.01
869.133	46.54
869.423	55.53
869.713	55.61
870.002	11.34
870.292	51.71
870.582	64.88
870.871	52.56
871.161	47.56
871.45	52.58
871.739	39.53
872.029	37.87
872.318	48.24
872.607	56.32
872.896	64.69
873.185	51.33
873.474	29.18
873.763	65.43
874.052	54.81
874.341	15.08
874.63	25.45
874.918	64.4
875.207	47.86
875.496	69.02
875.784	80.4
876.073	71.89
876.361	54.7
876.649	79
876.938	64.17
877.226	42.47
877.514	29.53
877.802	55.71
878.09	46.34
878.378	52.88
878.666	75.98
878.954	49.46
879.242	72.64
879.53	26.01
879.817	39.66
880.105	53
880.392	62.63
880.68	56.35
880.967	70.08
881.255	37.64
881.542	48.28
881.83	39.48
882.117	56.07
882.404	52.45
882.691	34.91
882.978	47.26
883.265	57.23
883.552	44.97
883.839	58.76
884.126	49.81
884.413	54.26
884.699	51.07
884.986	52.85
885.273	50.7
885.559	50.7
885.846	50.7
