Data from 0051_crown_Reflection__1__37.txt Node

Date: Fri Dec 16 14:08:17 CST 2022
User: ToomeyLab
Spectrometer: FLMS14357
Trigger mode: 0
Integration Time (sec): 1.000000E-2
Scans to average: 100
Electric dark correction enabled: true
Nonlinearity correction enabled: false
Boxcar width: 0
XAxis mode: Wavelengths
Number of Pixels in Spectrum: 2048
>>>>>Begin Spectral Data<<<<<
189.047	-2.18
189.435	-2.18
189.823	-2.18
190.211	95.36
190.599	34.37
190.987	150.05
191.375	-140.81
191.763	-78.9
192.151	-171.71
192.538	111.06
192.926	-193.15
193.314	132.94
193.702	126.14
194.089	-3.26
194.477	37.76
194.864	4.94
195.252	-56.37
195.639	115.5
196.027	99.01
196.414	-14.12
196.801	1522.17
197.189	686.16
197.576	-108.81
197.963	64.88
198.351	-7.96
198.738	-7.92
199.125	21.44
199.512	-11.57
199.899	-35.17
200.286	-11.69
200.673	31.55
201.06	22.74
201.447	28.11
201.833	-21.75
202.22	-2.03
202.607	22.18
202.994	15.5
203.38	-21.09
203.767	-84.15
204.154	-41.75
204.54	29.47
204.927	14.05
205.313	21.11
205.699	0.37
206.086	12.74
206.472	-5.36
206.858	-11.07
207.245	25.46
207.631	-21.76
208.017	-0.25
208.403	18.69
208.789	-18
209.175	24.28
209.561	0.51
209.947	-4.41
210.333	0.49
210.719	4.79
211.105	-16.24
211.491	19.48
211.876	10.49
212.262	-26.16
212.648	-44.47
213.034	-28.82
213.419	2.99
213.805	4.36
214.19	13.94
214.576	-4.66
214.961	14.94
215.346	-10.49
215.732	1.41
216.117	-21.05
216.502	-40.23
216.888	-21.99
217.273	16.13
217.658	13.82
218.043	25.29
218.428	29.3
218.813	-24.42
219.198	-31.83
219.583	16.22
219.968	-2.55
220.353	24.19
220.738	7.47
221.122	-3.4
221.507	-1.49
221.892	-4.02
222.276	7.53
222.661	-0.77
223.046	2.97
223.43	-4.52
223.815	6.49
224.199	2.14
224.583	-2.54
224.968	0.81
225.352	0.98
225.736	5.63
226.121	-7.47
226.505	-1.73
226.889	3.13
227.273	5.13
227.657	1.34
228.041	4.73
228.425	2.06
228.809	2.74
229.193	-1.11
229.577	2.56
229.961	2.76
230.344	2.71
230.728	3.09
231.112	2.68
231.495	2.31
231.879	2.05
232.263	1.89
232.646	0.71
233.03	-0.05
233.413	0.31
233.797	4.23
234.18	1.05
234.563	1.7
234.946	1.81
235.33	3.51
235.713	3.69
236.096	2
236.479	4.27
236.862	4.32
237.245	2.53
237.628	3.43
238.011	2.69
238.394	2.61
238.777	3.28
239.16	0.57
239.543	3.33
239.925	3.71
240.308	3.42
240.691	2.4
241.073	2.79
241.456	1.73
241.838	2.89
242.221	2.58
242.603	2.75
242.986	3.17
243.368	2.22
243.75	2.11
244.133	2.56
244.515	2.61
244.897	2.23
245.279	2.07
245.661	1.95
246.043	2.34
246.425	1.57
246.807	1.9
247.189	2.22
247.571	2.7
247.953	2.37
248.335	2.6
248.717	2.35
249.098	2.52
249.48	1.86
249.862	2.61
250.243	2.34
250.625	2.39
251.006	2.5
251.388	2.41
251.769	1.6
252.151	2.31
252.532	2.09
252.913	2.4
253.295	2.61
253.676	2.46
254.057	2.21
254.438	1.91
254.819	2.65
255.2	1.85
255.581	2.73
255.962	1.15
256.343	3.34
256.724	2.3
257.105	2.52
257.486	1.9
257.867	1.35
258.247	2.84
258.628	2.44
259.009	2.86
259.389	2.92
259.77	1.71
260.15	2.71
260.531	2.31
260.911	2.32
261.292	2.19
261.672	2.22
262.052	2.21
262.432	2
262.813	2.65
263.193	2.08
263.573	2.36
263.953	2.62
264.333	2.52
264.713	2.03
265.093	1.51
265.473	3.06
265.853	2.91
266.233	2.2
266.612	2.37
266.992	2.06
267.372	2.12
267.752	2.18
268.131	2.15
268.511	2.65
268.89	2.28
269.27	2.56
269.649	2.12
270.029	2.23
270.408	2.18
270.787	1.91
271.167	2.45
271.546	1.16
271.925	1.64
272.304	1.91
272.683	1.89
273.062	2.5
273.441	2.18
273.82	2.49
274.199	2.23
274.578	1.99
274.957	2.05
275.336	1.99
275.715	2.06
276.093	2.53
276.472	2.21
276.851	2.27
277.229	2.37
277.608	1.55
277.986	1.89
278.365	1.91
278.743	2.36
279.122	1.21
279.5	1.24
279.878	1.25
280.257	2.22
280.635	1.87
281.013	2.71
281.391	1.93
281.769	1.8
282.147	2.49
282.525	2.04
282.903	2.21
283.281	2.23
283.659	2.03
284.037	2.09
284.415	2.35
284.792	2.14
285.17	1.73
285.548	1.73
285.925	2.05
286.303	1.96
286.68	2.08
287.058	1.93
287.435	1.89
287.813	2.06
288.19	2.37
288.567	1.73
288.945	1.85
289.322	1.86
289.699	2.21
290.076	2.42
290.453	1.91
290.83	2.56
291.207	1.89
291.584	1.94
291.961	1.87
292.338	2.25
292.715	2.27
293.092	2.05
293.469	2.52
293.845	1.96
294.222	2.2
294.599	2.45
294.975	2.08
295.352	1.67
295.728	2.01
296.105	1.62
296.481	2.32
296.858	2.41
297.234	1.97
297.61	2.1
297.986	2.15
298.363	1.74
298.739	2.21
299.115	1.63
299.491	1.87
299.867	2.25
300.243	1.92
300.619	1.76
300.995	1.84
301.371	2.34
301.746	1.86
302.122	1.92
302.498	2.14
302.874	2.17
303.249	1.99
303.625	2.22
304	1.88
304.376	1.68
304.751	1.96
305.127	1.97
305.502	2.4
305.878	2.2
306.253	1.7
306.628	1.63
307.003	2.02
307.378	1.76
307.754	1.86
308.129	1.6
308.504	2.31
308.879	1.93
309.254	2.22
309.629	1.84
310.003	2.34
310.378	1.97
310.753	2.12
311.128	2.26
311.502	1.94
311.877	2.06
312.252	1.95
312.626	1.85
313.001	1.85
313.375	2
313.75	2.15
314.124	2.67
314.498	2.15
314.873	1.73
315.247	1.79
315.621	2.19
315.995	2.13
316.369	2.27
316.743	2.05
317.117	1.96
317.491	2.08
317.865	1.42
318.239	2.68
318.613	2.29
318.987	2.27
319.361	1.83
319.734	1.95
320.108	1.8
320.482	1.97
320.855	2.43
321.229	2.58
321.602	1.72
321.976	2.33
322.349	1.56
322.723	1.73
323.096	1.64
323.469	1.95
323.843	2.34
324.216	1.79
324.589	2.6
324.962	2.24
325.335	1.48
325.708	2.15
326.081	2.25
326.454	2.1
326.827	2.54
327.2	2.8
327.573	2.39
327.945	2.24
328.318	2.34
328.691	2.18
329.063	2.32
329.436	2.11
329.809	1.75
330.181	2.29
330.553	2.55
330.926	1.96
331.298	2.14
331.671	2.07
332.043	1.95
332.415	2.29
332.787	2.42
333.159	2.08
333.532	2.24
333.904	2.61
334.276	1.81
334.648	2.14
335.02	2.06
335.391	2.03
335.763	1.51
336.135	2.38
336.507	2.24
336.879	2.33
337.25	2.26
337.622	2.17
337.993	1.89
338.365	2.32
338.736	2.35
339.108	2.08
339.479	2.17
339.851	2.56
340.222	2.51
340.593	1.89
340.964	2.14
341.336	1.57
341.707	2.26
342.078	2.01
342.449	2.55
342.82	2.57
343.191	2.17
343.562	2.17
343.933	1.91
344.303	2.09
344.674	1.92
345.045	2.29
345.416	1.9
345.786	2.27
346.157	2.02
346.527	2.06
346.898	2.48
347.268	2.1
347.639	1.96
348.009	2.47
348.38	2.21
348.75	2.25
349.12	2.31
349.49	2.14
349.861	2.89
350.231	2.72
350.601	1.96
350.971	1.88
351.341	2.57
351.711	2.58
352.081	2.53
352.45	2.26
352.82	2.47
353.19	2.12
353.56	2.34
353.929	2.32
354.299	2.19
354.669	2.66
355.038	2.34
355.408	2.6
355.777	2.28
356.147	2.65
356.516	2.55
356.885	2.15
357.254	2.54
357.624	2.06
357.993	2.27
358.362	2.41
358.731	2.43
359.1	2.53
359.469	2.56
359.838	2.19
360.207	2.1
360.576	2.39
360.945	2.5
361.314	2.4
361.682	2.09
362.051	2.27
362.42	2.62
362.788	2.03
363.157	1.98
363.525	1.98
363.894	2.16
364.262	2.24
364.631	2.98
364.999	1.77
365.367	2.72
365.735	2.15
366.104	2.27
366.472	2.61
366.84	2.24
367.208	2.09
367.576	2.52
367.944	2.72
368.312	1.97
368.68	2.55
369.048	2.53
369.416	2.56
369.783	2.33
370.151	2.43
370.519	2.28
370.886	2.23
371.254	2.17
371.621	2.1
371.989	2.61
372.356	2.19
372.724	2.66
373.091	2.14
373.458	2.16
373.826	2.3
374.193	2.79
374.56	2.1
374.927	1.95
375.294	2.46
375.661	2.46
376.028	2.47
376.395	2.32
376.762	2.36
377.129	2.45
377.496	2.37
377.863	2.79
378.229	2.63
378.596	2.48
378.963	2.22
379.329	2.45
379.696	2.54
380.062	2.76
380.429	2.6
380.795	2.23
381.161	2.12
381.528	2.22
381.894	2.46
382.26	2.16
382.626	2.14
382.993	1.98
383.359	2.3
383.725	2.59
384.091	2.24
384.457	2.52
384.823	2.26
385.188	2.41
385.554	2.24
385.92	2.6
386.286	2.62
386.651	2.1
387.017	2.41
387.383	2.19
387.748	2.16
388.114	2.9
388.479	2.51
388.845	2.55
389.21	2.61
389.575	2.41
389.94	2.44
390.306	2.3
390.671	2.36
391.036	2.32
391.401	2.48
391.766	2.62
392.131	2.6
392.496	2.4
392.861	2.48
393.226	2.47
393.591	2.39
393.956	2.38
394.32	2.36
394.685	2.43
395.05	2.44
395.414	2.54
395.779	2.28
396.143	2.39
396.508	2.56
396.872	2.41
397.236	1.95
397.601	2.6
397.965	2.21
398.329	2.82
398.694	2.43
399.058	2.37
399.422	2.48
399.786	2.51
400.15	2.46
400.514	2.53
400.878	2.36
401.242	2.48
401.605	2.47
401.969	2.34
402.333	2.23
402.697	2.82
403.06	2.31
403.424	2.42
403.787	2.6
404.151	2.46
404.514	2.44
404.878	2.58
405.241	2.55
405.604	2.4
405.968	2.39
406.331	2.57
406.694	2.54
407.057	2.74
407.42	2.44
407.783	2.45
408.146	2.3
408.509	2.46
408.872	2.69
409.235	2.62
409.598	2.54
409.961	2.76
410.323	2.59
410.686	2.33
411.049	2.4
411.411	2.71
411.774	2.54
412.136	2.57
412.499	2.4
412.861	2.34
413.223	2.71
413.586	2.35
413.948	2.54
414.31	2.65
414.672	2.3
415.035	2.7
415.397	2.65
415.759	2.56
416.121	2.81
416.483	2.67
416.845	2.5
417.206	2.55
417.568	2.55
417.93	2.42
418.292	2.43
418.653	2.6
419.015	2.63
419.377	2.71
419.738	2.45
420.1	2.53
420.461	2.42
420.822	2.57
421.184	2.48
421.545	2.47
421.906	2.49
422.267	2.44
422.629	2.56
422.99	2.51
423.351	2.47
423.712	2.5
424.073	2.59
424.434	2.46
424.795	2.41
425.155	2.38
425.516	2.38
425.877	2.48
426.238	2.36
426.598	2.55
426.959	2.42
427.32	2.61
427.68	2.61
428.041	2.5
428.401	2.47
428.761	2.56
429.122	2.6
429.482	2.58
429.842	2.51
430.202	2.41
430.563	2.64
430.923	2.37
431.283	2.59
431.643	2.52
432.003	2.65
432.363	2.73
432.722	2.59
433.082	2.52
433.442	2.57
433.802	2.49
434.161	2.38
434.521	2.54
434.881	2.75
435.24	2.5
435.6	2.45
435.959	2.45
436.319	2.46
436.678	2.59
437.037	2.54
437.396	2.65
437.756	2.49
438.115	2.46
438.474	2.49
438.833	2.63
439.192	2.57
439.551	2.61
439.91	2.63
440.269	2.58
440.628	2.51
440.987	2.36
441.345	2.45
441.704	2.56
442.063	2.45
442.421	2.56
442.78	2.53
443.138	2.45
443.497	2.49
443.855	2.5
444.214	2.49
444.572	2.5
444.93	2.61
445.288	2.46
445.647	2.53
446.005	2.41
446.363	2.53
446.721	2.43
447.079	2.47
447.437	2.45
447.795	2.5
448.153	2.52
448.51	2.47
448.868	2.52
449.226	2.44
449.584	2.42
449.941	2.6
450.299	2.55
450.656	2.44
451.014	2.49
451.371	2.6
451.729	2.44
452.086	2.48
452.443	2.42
452.801	2.58
453.158	2.46
453.515	2.57
453.872	2.67
454.229	2.37
454.586	2.55
454.943	2.37
455.3	2.66
455.657	2.44
456.014	2.5
456.371	2.51
456.727	2.46
457.084	2.51
457.441	2.49
457.797	2.68
458.154	2.54
458.51	2.59
458.867	2.52
459.223	2.68
459.58	2.49
459.936	2.56
460.292	2.59
460.648	2.45
461.005	2.44
461.361	2.42
461.717	2.47
462.073	2.52
462.429	2.56
462.785	2.49
463.141	2.61
463.496	2.54
463.852	2.53
464.208	2.69
464.564	2.44
464.919	2.53
465.275	2.65
465.631	2.48
465.986	2.43
466.342	2.64
466.697	2.6
467.052	2.69
467.408	2.45
467.763	2.58
468.118	2.57
468.473	2.65
468.829	2.46
469.184	2.64
469.539	2.56
469.894	2.6
470.249	2.39
470.603	2.57
470.958	2.57
471.313	2.46
471.668	2.62
472.023	2.68
472.377	2.49
472.732	2.6
473.086	2.35
473.441	2.65
473.795	2.72
474.15	2.45
474.504	2.56
474.859	2.58
475.213	2.52
475.567	2.6
475.921	2.73
476.275	2.63
476.63	2.56
476.984	2.54
477.338	2.82
477.692	2.4
478.045	2.43
478.399	2.67
478.753	2.57
479.107	2.61
479.461	2.58
479.814	2.49
480.168	2.64
480.521	2.62
480.875	2.65
481.228	2.66
481.582	2.51
481.935	2.48
482.289	2.42
482.642	2.57
482.995	2.49
483.348	2.51
483.701	2.55
484.055	2.45
484.408	2.41
484.761	2.35
485.114	2.32
485.466	2.35
485.819	2.36
486.172	2.45
486.525	2.51
486.878	2.5
487.23	2.51
487.583	2.46
487.936	2.45
488.288	2.43
488.641	2.42
488.993	2.34
489.345	2.42
489.698	2.45
490.05	2.49
490.402	2.47
490.754	2.57
491.107	2.58
491.459	2.54
491.811	2.57
492.163	2.55
492.515	2.44
492.866	2.35
493.218	2.38
493.57	2.46
493.922	2.51
494.274	2.62
494.625	2.53
494.977	2.51
495.328	2.65
495.68	2.69
496.031	2.62
496.383	2.62
496.734	2.57
497.086	2.48
497.437	2.62
497.788	2.51
498.139	2.56
498.49	2.62
498.842	2.57
499.193	2.63
499.544	2.65
499.894	2.55
500.245	2.55
500.596	2.61
500.947	2.49
501.298	2.49
501.648	2.51
501.999	2.72
502.35	2.66
502.7	2.58
503.051	2.58
503.401	2.61
503.752	2.59
504.102	2.53
504.452	2.55
504.803	2.36
505.153	2.59
505.503	2.55
505.853	2.61
506.203	2.55
506.553	2.57
506.903	2.57
507.253	2.56
507.603	2.46
507.953	2.74
508.303	2.65
508.652	2.49
509.002	2.6
509.352	2.6
509.701	2.51
510.051	2.57
510.4	2.59
510.75	2.6
511.099	2.55
511.449	2.55
511.798	2.7
512.147	2.49
512.496	2.65
512.846	2.58
513.195	2.59
513.544	2.54
513.893	2.49
514.242	2.62
514.591	2.63
514.939	2.66
515.288	2.65
515.637	2.65
515.986	2.67
516.334	2.72
516.683	2.56
517.032	2.59
517.38	2.6
517.729	2.6
518.077	2.62
518.426	2.49
518.774	2.61
519.122	2.58
519.47	2.58
519.819	2.49
520.167	2.61
520.515	2.53
520.863	2.52
521.211	2.55
521.559	2.58
521.907	2.61
522.255	2.58
522.602	2.65
522.95	2.64
523.298	2.62
523.645	2.67
523.993	2.65
524.341	2.56
524.688	2.63
525.036	2.71
525.383	2.63
525.73	2.68
526.078	2.64
526.425	2.57
526.772	2.47
527.119	2.55
527.466	2.55
527.814	2.5
528.161	2.59
528.508	2.61
528.854	2.45
529.201	2.45
529.548	2.42
529.895	2.43
530.242	2.42
530.588	2.41
530.935	2.49
531.282	2.54
531.628	2.59
531.975	2.6
532.321	2.57
532.667	2.59
533.014	2.63
533.36	2.56
533.706	2.54
534.052	2.46
534.399	2.47
534.745	2.44
535.091	2.46
535.437	2.5
535.783	2.64
536.129	2.56
536.474	2.69
536.82	2.62
537.166	2.57
537.512	2.6
537.857	2.49
538.203	2.59
538.549	2.59
538.894	2.56
539.239	2.68
539.585	2.67
539.93	2.75
540.276	2.59
540.621	2.59
540.966	2.64
541.311	2.57
541.656	2.43
542.001	2.59
542.346	2.49
542.691	2.45
543.036	2.46
543.381	2.52
543.726	2.55
544.071	2.6
544.415	2.55
544.76	2.55
545.105	2.59
545.449	2.57
545.794	2.61
546.138	2.63
546.483	2.61
546.827	2.59
547.171	2.56
547.516	2.68
547.86	2.51
548.204	2.49
548.548	2.64
548.892	2.71
549.236	2.71
549.58	2.74
549.924	2.73
550.268	2.69
550.612	2.68
550.956	2.62
551.3	2.65
551.643	2.73
551.987	2.57
552.33	2.64
552.674	2.69
553.017	2.67
553.361	2.72
553.704	2.66
554.048	2.62
554.391	2.6
554.734	2.76
555.077	2.87
555.42	2.65
555.764	2.79
556.107	2.75
556.45	2.63
556.793	2.94
557.135	2.89
557.478	2.73
557.821	2.64
558.164	2.65
558.507	2.56
558.849	2.64
559.192	2.88
559.534	2.73
559.877	2.83
560.219	2.76
560.562	2.71
560.904	2.63
561.246	2.73
561.589	2.7
561.931	2.81
562.273	2.58
562.615	2.67
562.957	2.64
563.299	2.87
563.641	2.69
563.983	2.64
564.325	2.58
564.667	2.75
565.008	2.66
565.35	2.82
565.692	2.76
566.033	2.74
566.375	2.59
566.716	2.8
567.058	2.79
567.399	2.71
567.741	2.8
568.082	2.63
568.423	2.64
568.764	2.65
569.105	2.66
569.447	2.7
569.788	2.71
570.129	2.8
570.47	2.73
570.811	2.62
571.151	2.84
571.492	2.85
571.833	2.71
572.174	2.75
572.514	2.62
572.855	2.91
573.195	2.54
573.536	2.67
573.876	2.69
574.217	2.76
574.557	2.87
574.898	2.59
575.238	2.68
575.578	2.81
575.918	2.7
576.258	2.72
576.598	2.66
576.938	2.87
577.278	2.65
577.618	2.7
577.958	2.82
578.298	2.74
578.638	2.72
578.977	2.87
579.317	2.93
579.657	2.82
579.996	2.64
580.336	2.86
580.675	2.83
581.014	2.72
581.354	2.87
581.693	2.76
582.032	2.68
582.372	2.77
582.711	2.75
583.05	3
583.389	3
583.728	2.87
584.067	2.91
584.406	3.12
584.745	2.76
585.083	2.93
585.422	2.74
585.761	2.93
586.1	2.88
586.438	2.83
586.777	2.68
587.115	3.03
587.454	2.69
587.792	2.57
588.13	3.05
588.469	3.17
588.807	3.03
589.145	2.95
589.483	2.68
589.821	2.9
590.159	2.94
590.497	2.72
590.835	2.64
591.173	2.78
591.511	2.92
591.849	2.87
592.187	2.97
592.524	2.84
592.862	2.77
593.2	2.91
593.537	2.77
593.875	2.77
594.212	2.76
594.55	2.61
594.887	2.87
595.224	2.75
595.561	2.88
595.899	2.78
596.236	2.81
596.573	2.63
596.91	2.75
597.247	2.76
597.584	2.79
597.921	2.85
598.258	2.8
598.594	2.67
598.931	2.68
599.268	2.86
599.604	3
599.941	2.76
600.277	2.93
600.614	2.9
600.95	2.85
601.287	2.87
601.623	3.01
601.959	2.72
602.296	3.03
602.632	3.02
602.968	2.72
603.304	2.82
603.64	2.84
603.976	2.78
604.312	3
604.648	2.79
604.984	2.67
605.319	2.87
605.655	2.75
605.991	2.73
606.326	2.64
606.662	2.85
606.998	2.76
607.333	2.77
607.668	3.01
608.004	3.12
608.339	2.68
608.674	2.92
609.01	2.88
609.345	2.92
609.68	2.55
610.015	2.96
610.35	2.57
610.685	2.87
611.02	2.9
611.355	2.93
611.689	2.66
612.024	2.99
612.359	2.79
612.694	3.11
613.028	3.27
613.363	2.91
613.697	3.1
614.032	2.92
614.366	2.58
614.7	3.33
615.035	2.92
615.369	2.86
615.703	3.37
616.037	3.08
616.371	3.08
616.705	2.76
617.039	3.32
617.373	3.06
617.707	2.9
618.041	3.15
618.375	2.58
618.709	2.89
619.042	2.84
619.376	2.79
619.71	2.85
620.043	2.77
620.377	2.8
620.71	2.89
621.043	2.65
621.377	2.96
621.71	3.25
622.043	3.2
622.376	2.78
622.709	3.31
623.043	2.96
623.376	3.09
623.709	3.04
624.041	2.74
624.374	3
624.707	2.72
625.04	3.1
625.373	3.24
625.705	3.18
626.038	3.05
626.37	2.81
626.703	2.92
627.035	3.21
627.368	3.1
627.7	3.06
628.032	2.96
628.365	2.68
628.697	2.81
629.029	3.17
629.361	2.88
629.693	3.11
630.025	2.99
630.357	3
630.689	3.31
631.021	3.15
631.353	3.17
631.684	3
632.016	2.77
632.348	3.03
632.679	2.71
633.011	3
633.342	3.17
633.674	3.05
634.005	3.05
634.336	3.02
634.668	3.05
634.999	2.86
635.33	2.69
635.661	3.11
635.992	2.82
636.323	3.18
636.654	2.95
636.985	3.08
637.316	2.97
637.647	3.2
637.977	3.05
638.308	3.04
638.639	3.01
638.969	2.69
639.3	3.02
639.63	2.96
639.961	2.99
640.291	3.36
640.622	3.13
640.952	2.96
641.282	2.95
641.612	3.07
641.943	3.37
642.273	3.37
642.603	3
642.933	3.32
643.263	2.95
643.592	3.04
643.922	3.54
644.252	3.6
644.582	3.11
644.911	3.16
645.241	2.79
645.571	3.33
645.9	3.36
646.23	2.53
646.559	3.1
646.888	2.89
647.218	3.18
647.547	3.24
647.876	3.27
648.205	2.84
648.534	2.85
648.863	3.03
649.192	2.93
649.521	2.58
649.85	3.56
650.179	2.51
650.508	2.95
650.837	2.94
651.165	2.98
651.494	2.89
651.822	3.23
652.151	3.83
652.479	3.45
652.808	2.78
653.136	3.23
653.465	2.98
653.793	3.21
654.121	3.62
654.449	2.89
654.777	3.38
655.105	3.55
655.433	3.33
655.761	2.79
656.089	3.34
656.417	3.16
656.745	3.46
657.073	3.75
657.4	3.4
657.728	3.43
658.056	2.47
658.383	3.06
658.711	2.99
659.038	3.28
659.365	3.48
659.693	3.16
660.02	2.69
660.347	3.27
660.674	2.83
661.001	2.72
661.329	3.02
661.656	3.08
661.982	3.12
662.309	3.28
662.636	2.89
662.963	3.28
663.29	3.3
663.616	3.25
663.943	3.64
664.27	3.75
664.596	3.28
664.923	3.03
665.249	3.09
665.576	2.81
665.902	3.28
666.228	2.81
666.554	2.69
666.881	3.45
667.207	3.08
667.533	3.2
667.859	2.89
668.185	3.54
668.511	2.89
668.837	2.35
669.162	2.91
669.488	3.37
669.814	3.42
670.139	3.95
670.465	3.61
670.791	3.48
671.116	3.28
671.442	3.3
671.767	3.58
672.092	3.57
672.418	3.14
672.743	2.98
673.068	3.26
673.393	3.05
673.718	2.78
674.043	3.47
674.368	3.65
674.693	3.28
675.018	3.4
675.343	3.64
675.667	2.76
675.992	3.1
676.317	3.63
676.641	3.13
676.966	3.59
677.29	3.02
677.615	2.83
677.939	3.41
678.264	3.43
678.588	4.11
678.912	3.98
679.236	2.97
679.56	3.19
679.885	3.7
680.209	2.65
680.532	3.03
680.856	3.88
681.18	3.23
681.504	2.98
681.828	2.68
682.152	3.06
682.475	3.42
682.799	3.51
683.122	3.1
683.446	2.89
683.769	3.18
684.093	3.48
684.416	3.65
684.739	3.98
685.062	3.62
685.386	3.16
685.709	3.36
686.032	3.87
686.355	3.05
686.678	3.06
687.001	3
687.324	2.92
687.646	3.18
687.969	3.67
688.292	3.71
688.614	3.84
688.937	3.44
689.26	3.53
689.582	3.55
689.904	3.85
690.227	3.72
690.549	2.98
690.871	3.38
691.194	3.7
691.516	3.38
691.838	3.15
692.16	3.46
692.482	3.51
692.804	2.66
693.126	3.15
693.448	3.09
693.769	3.65
694.091	3.53
694.413	3.58
694.735	3.02
695.056	4
695.378	3.94
695.699	4.85
696.021	3.34
696.342	3.49
696.663	3.47
696.984	3.4
697.306	3.44
697.627	3.1
697.948	3.44
698.269	2.71
698.59	3.68
698.911	2.86
699.232	3.79
699.553	3.64
699.873	3.67
700.194	3.44
700.515	3.25
700.835	3.46
701.156	3.89
701.477	3.54
701.797	3.65
702.117	3.86
702.438	3.8
702.758	3.57
703.078	2.78
703.398	3.13
703.719	3.6
704.039	3
704.359	3.49
704.679	3.24
704.999	2.91
705.319	2.89
705.638	3.1
705.958	3.1
706.278	3.57
706.597	3.06
706.917	3.72
707.237	3.78
707.556	3.68
707.876	3.03
708.195	3.85
708.514	3.87
708.834	2.94
709.153	4.05
709.472	3.18
709.791	3.99
710.11	3.39
710.429	2.74
710.748	3.29
711.067	4.26
711.386	3.83
711.705	3.3
712.023	3.45
712.342	3.59
712.661	4.03
712.979	4.06
713.298	3.61
713.616	4.15
713.935	3.35
714.253	4.44
714.572	4.28
714.89	3.73
715.208	4.12
715.526	4.08
715.844	2.94
716.162	3.05
716.48	3.55
716.798	4.74
717.116	4.02
717.434	4.41
717.752	3.59
718.069	3
718.387	3.71
718.705	3.82
719.022	4.27
719.34	3.57
719.657	3.88
719.975	3.32
720.292	4.59
720.609	3.82
720.927	3.62
721.244	3.45
721.561	2.98
721.878	4.51
722.195	4.73
722.512	4.48
722.829	3.49
723.146	2.53
723.463	3.17
723.779	3.15
724.096	2.91
724.413	2.87
724.729	4.05
725.046	4.07
725.362	2.03
725.679	4.99
725.995	4.56
726.311	3.19
726.628	3.42
726.944	4.29
727.26	4.08
727.576	3.98
727.892	3.19
728.208	3.81
728.524	4.54
728.84	3.85
729.156	4.43
729.472	4.22
729.787	4.44
730.103	3.84
730.419	4.66
730.734	2.74
731.05	3.87
731.365	4.58
731.681	3.93
731.996	3.32
732.311	3.6
732.626	3.92
732.942	3.77
733.257	4.09
733.572	5.14
733.887	3.14
734.202	4.2
734.517	4.42
734.832	3.92
735.146	3.96
735.461	3.67
735.776	4.49
736.091	5.21
736.405	4.75
736.72	4.02
737.034	3.8
737.349	3.7
737.663	4.08
737.977	3.72
738.292	3.8
738.606	4.94
738.92	4.62
739.234	4.92
739.548	5.63
739.862	3.87
740.176	3.11
740.49	3.83
740.804	4.49
741.117	3.62
741.431	2.43
741.745	4.58
742.058	4
742.372	4.71
742.685	2.29
742.999	4.41
743.312	3.19
743.626	2.43
743.939	4.29
744.252	4.32
744.565	4.26
744.878	2.93
745.191	3.33
745.505	4.02
745.817	4.47
746.13	3.82
746.443	5.86
746.756	3.49
747.069	4.88
747.381	5.45
747.694	0.21
748.007	4.81
748.319	3.41
748.632	3.24
748.944	4.94
749.256	5.87
749.569	2.63
749.881	4.15
750.193	3.51
750.505	5.28
750.817	4.03
751.129	4.19
751.441	5.15
751.753	4.95
752.065	4.76
752.377	3.66
752.689	3.67
753	3.96
753.312	4.21
753.624	4.27
753.935	2.18
754.247	6.04
754.558	6.42
754.869	4.16
755.181	5.12
755.492	6.14
755.803	4.18
756.114	5.84
756.425	4.19
756.736	2.91
757.047	5.57
757.358	5.67
757.669	5.76
757.98	4.28
758.291	5.89
758.601	5.1
758.912	3.61
759.223	5.99
759.533	5.12
759.844	5.68
760.154	5.14
760.464	5.92
760.775	6.21
761.085	4.1
761.395	5.08
761.705	3.78
762.016	5.16
762.326	4.17
762.636	5.46
762.945	3.89
763.255	4.09
763.565	2.48
763.875	4.51
764.185	5.05
764.494	3.96
764.804	4.3
765.113	4.15
765.423	4.76
765.732	4.71
766.042	5.56
766.351	3.52
766.66	5
766.97	3.85
767.279	5.86
767.588	4.9
767.897	4.99
768.206	3.15
768.515	5.42
768.824	3.71
769.133	4.59
769.441	6.38
769.75	5.44
770.059	4.59
770.367	1.2
770.676	5.2
770.984	5.22
771.293	3.47
771.601	5.07
771.91	3.98
772.218	2.2
772.526	5.19
772.834	7.96
773.142	2.58
773.45	1.2
773.758	6.26
774.066	3.86
774.374	4.2
774.682	4.08
774.99	3.87
775.298	4.14
775.605	3.63
775.913	4.89
776.22	4.45
776.528	4.41
776.835	5.24
777.143	6.14
777.45	6.05
777.757	3.68
778.065	5.21
778.372	2.01
778.679	6.42
778.986	2.5
779.293	5.23
779.6	3.88
779.907	3.84
780.214	5.04
780.52	6.92
780.827	5.82
781.134	8.94
781.44	2.48
781.747	7.35
782.053	5.35
782.36	4.89
782.666	5.13
782.973	4.34
783.279	5.33
783.585	1.22
783.891	5.26
784.197	0.61
784.503	4.91
784.809	8.03
785.115	0.88
785.421	7.02
785.727	3.04
786.033	2.77
786.339	8.2
786.644	4.76
786.95	4.89
787.255	5.87
787.561	5.09
787.866	3.22
788.172	6.84
788.477	6.6
788.782	2.21
789.088	5.37
789.393	3.62
789.698	3.21
790.003	2.53
790.308	4.08
790.613	5.35
790.918	5.79
791.223	6.98
791.527	8.4
791.832	6.14
792.137	6.53
792.441	7.17
792.746	3.78
793.05	6.81
793.355	9.76
793.659	2.88
793.963	5.9
794.268	0.63
794.572	7.26
794.876	1.91
795.18	6.23
795.484	4.1
795.788	6.42
796.092	5.65
796.396	2.91
796.7	4.22
797.004	8.8
797.307	5.2
797.611	4.86
797.915	5.17
798.218	9.95
798.522	2.13
798.825	9.07
799.128	7.96
799.432	8.76
799.735	4.57
800.038	6.57
800.341	3.45
800.644	6.94
800.947	7.38
801.25	5.02
801.553	5.16
801.856	1.89
802.159	5.64
802.462	3.9
802.764	3.78
803.067	1.32
803.37	6.47
803.672	3.72
803.975	6.95
804.277	6.28
804.579	8.54
804.882	4.84
805.184	4.4
805.486	4.37
805.788	6.46
806.09	7.38
806.392	8.6
806.694	5.44
806.996	9.47
807.298	4.17
807.6	8.74
807.902	8.68
808.203	5.22
808.505	4.31
808.807	5.18
809.108	2.08
809.409	11.5
809.711	5.56
810.012	3.59
810.313	8.9
810.615	7.16
810.916	9.54
811.217	10.63
811.518	13.62
811.819	1.26
812.12	8.62
812.421	3.57
812.722	0.64
813.023	7.25
813.323	12.49
813.624	12.76
813.925	5.14
814.225	5.43
814.526	6.77
814.826	5.09
815.126	2.48
815.427	9.01
815.727	4.65
816.027	4.97
816.327	1.23
816.627	4.51
816.927	3.23
817.227	5.81
817.527	4.63
817.827	4.55
818.127	10.88
818.427	0
818.727	4.16
819.026	8.09
819.326	9.28
819.625	6.89
819.925	2.76
820.224	6.18
820.524	2.56
820.823	-2.33
821.122	4.03
821.421	3.3
821.72	10.15
822.019	1.99
822.318	6.05
822.617	5.76
822.916	4.78
823.215	6.42
823.514	5.57
823.813	6.14
824.111	7.53
824.41	5.05
824.709	7.29
825.007	6.51
825.306	6.27
825.604	8.03
825.902	7.23
826.201	6.55
826.499	6.95
826.797	6.31
827.095	4.74
827.393	7.04
827.691	6.24
827.989	6.6
828.287	9.42
828.585	5.27
828.882	5.22
829.18	6.98
829.478	5.87
829.775	7.3
830.073	8.49
830.37	6.35
830.668	5.22
830.965	4.26
831.263	7.93
831.56	8.67
831.857	9.55
832.154	10.67
832.451	6.34
832.748	5.07
833.045	11.82
833.342	7.05
833.639	9.26
833.936	7.83
834.232	6.88
834.529	5.7
834.826	8.03
835.122	6.04
835.419	6.93
835.715	3.22
836.012	7.47
836.308	8.56
836.604	3.08
836.901	11.88
837.197	5.24
837.493	7.52
837.789	8.2
838.085	4.17
838.381	7.67
838.677	4.26
838.972	8.01
839.268	3.83
839.564	13.9
839.86	2.53
840.155	7.06
840.451	7.49
840.746	7.34
841.042	6.82
841.337	6.62
841.632	11.91
841.928	12.4
842.223	4.3
842.518	8.53
842.813	8.13
843.108	2.62
843.403	7.34
843.698	2.41
843.993	3.6
844.287	12.77
844.582	2.73
844.877	13.05
845.171	8
845.466	6.85
845.761	6.53
846.055	3.62
846.349	-8.37
846.644	18.79
846.938	-2.62
847.232	-10.9
847.526	13.37
847.82	3.95
848.114	-7.66
848.408	12.17
848.702	2.69
848.996	14.17
849.29	8.48
849.584	-6.5
849.877	16.85
850.171	5.04
850.465	10.16
850.758	-1.53
851.052	11.18
851.345	12.89
851.638	18.34
851.932	0.66
852.225	6.07
852.518	13.74
852.811	4.53
853.104	17.02
853.397	5.05
853.69	-2.23
853.983	6.92
854.276	1.39
854.569	-15.38
854.861	13.95
855.154	11.19
855.447	-6.42
855.739	19.23
856.032	-11.26
856.324	4.73
856.616	11.12
856.909	40.24
857.201	17.2
857.493	19.95
857.785	2.47
858.077	-15.9
858.369	-17.57
858.661	16.04
858.953	5.53
859.245	3.89
859.537	24.13
859.829	12.08
860.12	10.28
860.412	2.63
860.703	2.66
860.995	10.35
861.286	12.08
861.578	-4.06
861.869	-1.26
862.16	18.03
862.452	15.51
862.743	20.22
863.034	-6.83
863.325	16.86
863.616	12
863.907	14.35
864.198	22.37
864.488	-0.68
864.779	1.26
865.07	7.82
865.36	9.48
865.651	5.02
865.941	37.28
866.232	17.43
866.522	20.13
866.813	29.29
867.103	1.72
867.393	-7.75
867.683	34.9
867.973	3.55
868.263	5.87
868.553	23.65
868.843	-28.5
869.133	18.79
869.423	23.06
869.713	17.86
870.002	-30.42
870.292	-6.27
870.582	7.73
870.871	19.52
871.161	9.6
871.45	10.45
871.739	-26.71
872.029	-1.46
872.318	9.37
872.607	17.84
872.896	6.22
873.185	24.78
873.474	2.15
873.763	-1.62
874.052	1.85
874.341	-39.82
874.63	-13.41
874.918	12.53
875.207	29.66
875.496	33.08
875.784	31.78
876.073	-1.54
876.361	16.75
876.649	21.09
876.938	-5.2
877.226	9.13
877.514	-15.88
877.802	3.93
878.09	5.5
878.378	21
878.666	-18.16
878.954	0.5
879.242	19.46
879.53	-14.03
879.817	10.26
880.105	-16.77
880.392	-9.41
880.68	2.22
880.967	20.84
881.255	11.21
881.542	-10.85
881.83	-11.03
882.117	-1.22
882.404	4.36
882.691	-13.67
882.978	-2.73
883.265	23.88
883.552	9.02
883.839	5.98
884.126	8.85
884.413	6.45
884.699	10.13
884.986	6.99
885.273	4.82
885.559	4.82
885.846	4.82
