Data from 815656_chest_Reflection__0__94.txt Node

Date: Fri Sep 16 15:25:39 CDT 2022
User: ToomeyLab
Spectrometer: FLMS14357
Trigger mode: 0
Integration Time (sec): 1.000000E-2
Scans to average: 100
Electric dark correction enabled: true
Nonlinearity correction enabled: false
Boxcar width: 0
XAxis mode: Wavelengths
Number of Pixels in Spectrum: 2048
>>>>>Begin Spectral Data<<<<<
189.047	-176.6
189.435	-176.6
189.823	-176.6
190.211	88.83
190.599	69.33
190.987	306.88
191.375	103.96
191.763	-32.34
192.151	-22.32
192.538	-22.25
192.926	269.21
193.314	131.19
193.702	25.6
194.089	282.77
194.477	89.18
194.864	5.48
195.252	8.39
195.639	-37.63
196.027	-7.31
196.414	573.91
196.801	-44.94
197.189	82.57
197.576	-43.21
197.963	1287.52
198.351	-54.42
198.738	-12.93
199.125	30.21
199.512	271.95
199.899	-17.62
200.286	-64.48
200.673	55.33
201.06	0.3
201.447	12.31
201.833	12.92
202.22	19.27
202.607	-91.11
202.994	27.13
203.38	-12.38
203.767	15.08
204.154	-4
204.54	-1.04
204.927	2.61
205.313	28.98
205.699	48.53
206.086	22.45
206.472	17.05
206.858	19.84
207.245	2.01
207.631	22.91
208.017	27.66
208.403	-7.75
208.789	15.22
209.175	18.64
209.561	2.3
209.947	9.57
210.333	0.13
210.719	3.12
211.105	18.83
211.491	15.17
211.876	39.38
212.262	3.56
212.648	-21.06
213.034	34.2
213.419	38.94
213.805	16.98
214.19	21.32
214.576	0.91
214.961	-1.12
215.346	-81.24
215.732	-21.09
216.117	5.75
216.502	-22.93
216.888	-23.39
217.273	4.75
217.658	20.08
218.043	-125.98
218.428	13.03
218.813	13.18
219.198	-18.02
219.583	-6.81
219.968	2.9
220.353	-13.15
220.738	13.67
221.122	-15.73
221.507	26.23
221.892	-13.34
222.276	17.41
222.661	20.07
223.046	13.82
223.43	9.14
223.815	-18.15
224.199	7.67
224.583	9.48
224.968	1.41
225.352	-3.43
225.736	9.98
226.121	7.15
226.505	11.31
226.889	10.05
227.273	6.35
227.657	4.97
228.041	4.8
228.425	-1.47
228.809	7.53
229.193	6.03
229.577	6.05
229.961	4.61
230.344	5.49
230.728	5.06
231.112	4.73
231.495	4.07
231.879	4
232.263	4.5
232.646	4.51
233.03	4.3
233.413	5.01
233.797	3.47
234.18	5.6
234.563	2.97
234.946	5.54
235.33	5.17
235.713	5.11
236.096	3.73
236.479	4.55
236.862	3.92
237.245	4.6
237.628	5.18
238.011	2.82
238.394	4.41
238.777	5.27
239.16	3.01
239.543	5.61
239.925	3.84
240.308	2.98
240.691	5.69
241.073	5.77
241.456	5.12
241.838	4.5
242.221	4.69
242.603	4.79
242.986	3.54
243.368	3.97
243.75	4.38
244.133	4.87
244.515	4.25
244.897	4.86
245.279	3.92
245.661	4.51
246.043	4.26
246.425	3.88
246.807	5.46
247.189	3.81
247.571	4.27
247.953	4.44
248.335	4.31
248.717	4.51
249.098	4.47
249.48	4.26
249.862	4.36
250.243	4.41
250.625	4.66
251.006	4.2
251.388	4.67
251.769	3.34
252.151	4.34
252.532	3.64
252.913	3.59
253.295	4.17
253.676	4.76
254.057	4.17
254.438	3.35
254.819	3.36
255.2	3.71
255.581	3.95
255.962	4.68
256.343	4.96
256.724	3.41
257.105	3.72
257.486	4.39
257.867	4.55
258.247	4.57
258.628	4.57
259.009	4.59
259.389	4.47
259.77	4.65
260.15	4.1
260.531	4.07
260.911	4.12
261.292	3.99
261.672	4.29
262.052	4.02
262.432	4.08
262.813	4.7
263.193	3.76
263.573	4.49
263.953	4.54
264.333	4.33
264.713	3.76
265.093	4.03
265.473	3.44
265.853	4.22
266.233	4.02
266.612	5.55
266.992	3.09
267.372	4.11
267.752	4.04
268.131	4.18
268.511	4.2
268.89	4.18
269.27	3.88
269.649	3.98
270.029	4.32
270.408	4.43
270.787	3.94
271.167	3.86
271.546	4.33
271.925	4.2
272.304	3.77
272.683	3.31
273.062	4.03
273.441	3.9
273.82	3.93
274.199	4.13
274.578	3.94
274.957	4.46
275.336	4.32
275.715	4.4
276.093	4.23
276.472	3.92
276.851	3.59
277.229	3.82
277.608	4.49
277.986	3.91
278.365	3.24
278.743	3.78
279.122	4.05
279.5	3.61
279.878	3.99
280.257	4.39
280.635	3.84
281.013	3.98
281.391	3.79
281.769	4.26
282.147	3.57
282.525	3.38
282.903	3.79
283.281	3.78
283.659	4.38
284.037	3.62
284.415	4.09
284.792	4.51
285.17	3.93
285.548	4.04
285.925	3.79
286.303	3.88
286.68	3.93
287.058	3.69
287.435	3.65
287.813	4.01
288.19	3.61
288.567	3.65
288.945	4.11
289.322	4.16
289.699	3.83
290.076	3.84
290.453	3.73
290.83	4.04
291.207	3.8
291.584	3.77
291.961	4.03
292.338	4.39
292.715	3.8
293.092	3.67
293.469	3.86
293.845	3.89
294.222	3.88
294.599	3.65
294.975	3.75
295.352	4.29
295.728	3.85
296.105	4.31
296.481	3.61
296.858	3.79
297.234	4.09
297.61	4.42
297.986	4.18
298.363	4.01
298.739	3.43
299.115	3.98
299.491	3.93
299.867	3.84
300.243	3.75
300.619	3.96
300.995	3.81
301.371	4.15
301.746	3.76
302.122	4.13
302.498	3.5
302.874	3.59
303.249	3.94
303.625	3.79
304	3.52
304.376	3.36
304.751	4.04
305.127	3.63
305.502	3.91
305.878	3.82
306.253	4.18
306.628	4.01
307.003	4.22
307.378	4.21
307.754	4.31
308.129	4.19
308.504	4.54
308.879	3.97
309.254	4.03
309.629	4.02
310.003	3.9
310.378	3.13
310.753	3.81
311.128	3.71
311.502	3.51
311.877	3.75
312.252	4.17
312.626	3.79
313.001	3.91
313.375	4.08
313.75	4.09
314.124	3.82
314.498	3.77
314.873	4.33
315.247	3.89
315.621	3.94
315.995	3.62
316.369	3.63
316.743	4.04
317.117	3.89
317.491	3.76
317.865	4.35
318.239	4.2
318.613	3.62
318.987	3.68
319.361	3.63
319.734	3.61
320.108	4.19
320.482	3.7
320.855	3.52
321.229	3.74
321.602	4.22
321.976	3.95
322.349	3.66
322.723	3.37
323.096	3.75
323.469	3.82
323.843	4.53
324.216	3.86
324.589	3.88
324.962	3.32
325.335	4.19
325.708	3.84
326.081	3.97
326.454	4.2
326.827	4.09
327.2	3.84
327.573	3.26
327.945	4.17
328.318	3.75
328.691	3.81
329.063	3.68
329.436	3.61
329.809	2.92
330.181	4.31
330.553	3.53
330.926	3.62
331.298	4.05
331.671	3.66
332.043	3.42
332.415	3.87
332.787	3.69
333.159	4
333.532	4.36
333.904	4.03
334.276	3.8
334.648	3.91
335.02	4.21
335.391	4.71
335.763	3.46
336.135	3.39
336.507	4.02
336.879	4.7
337.25	3.61
337.622	3.97
337.993	4.14
338.365	4.09
338.736	4.38
339.108	4
339.479	3.96
339.851	3.95
340.222	3.8
340.593	3.78
340.964	4.16
341.336	3.95
341.707	3.6
342.078	4.08
342.449	3.86
342.82	4.03
343.191	3.56
343.562	4.36
343.933	4.21
344.303	4.08
344.674	3.58
345.045	4.55
345.416	3.94
345.786	4
346.157	3.88
346.527	4.21
346.898	3.75
347.268	4.25
347.639	3.86
348.009	3.86
348.38	3.99
348.75	3.77
349.12	3.85
349.49	4.21
349.861	4.16
350.231	3.81
350.601	4.24
350.971	4.02
351.341	4.17
351.711	3.88
352.081	3.98
352.45	4.23
352.82	4.31
353.19	4.02
353.56	4.53
353.929	3.88
354.299	3.86
354.669	3.93
355.038	3.85
355.408	3.99
355.777	3.76
356.147	4.03
356.516	4.2
356.885	4.06
357.254	4.05
357.624	3.99
357.993	3.89
358.362	3.62
358.731	4.1
359.1	3.98
359.469	3.98
359.838	4.06
360.207	4.28
360.576	3.95
360.945	3.87
361.314	3.76
361.682	3.85
362.051	4.01
362.42	4.29
362.788	4.21
363.157	3.98
363.525	3.89
363.894	4.09
364.262	3.92
364.631	4.11
364.999	4.03
365.367	4.32
365.735	4.12
366.104	4.25
366.472	4.36
366.84	4.19
367.208	4.31
367.576	3.83
367.944	3.87
368.312	3.96
368.68	4.29
369.048	4.3
369.416	3.96
369.783	4.04
370.151	4.23
370.519	4.09
370.886	4.1
371.254	3.85
371.621	3.89
371.989	4.07
372.356	4.42
372.724	4.12
373.091	4.08
373.458	4.03
373.826	3.74
374.193	4.55
374.56	4.21
374.927	3.84
375.294	4.33
375.661	4.3
376.028	4.3
376.395	3.91
376.762	4.52
377.129	3.99
377.496	4.15
377.863	4.13
378.229	4.35
378.596	3.87
378.963	4.04
379.329	4.12
379.696	4.33
380.062	4.1
380.429	4.13
380.795	3.95
381.161	4.59
381.528	4.42
381.894	3.98
382.26	4.49
382.626	4.45
382.993	4.13
383.359	4.2
383.725	4.26
384.091	4.25
384.457	3.81
384.823	4.16
385.188	4.18
385.554	4.44
385.92	3.96
386.286	4.11
386.651	4.26
387.017	3.99
387.383	3.91
387.748	3.91
388.114	3.98
388.479	4.26
388.845	4.16
389.21	4.22
389.575	4.31
389.94	4.3
390.306	4.3
390.671	3.91
391.036	4.04
391.401	4.2
391.766	4.08
392.131	4.29
392.496	4.09
392.861	4.19
393.226	4.45
393.591	4.28
393.956	4.41
394.32	4.42
394.685	4.08
395.05	4.34
395.414	3.94
395.779	4.3
396.143	4.44
396.508	4.1
396.872	4.03
397.236	4.23
397.601	4.14
397.965	4.05
398.329	4.27
398.694	4.23
399.058	4.36
399.422	4.13
399.786	4.25
400.15	4.11
400.514	4.02
400.878	4.5
401.242	4.4
401.605	4.28
401.969	4.2
402.333	4.31
402.697	4.3
403.06	4.38
403.424	4.18
403.787	4.22
404.151	4.29
404.514	4.46
404.878	4.01
405.241	4.19
405.604	4.48
405.968	4.43
406.331	4.23
406.694	4.2
407.057	4.22
407.42	4.17
407.783	4.48
408.146	4.61
408.509	4.4
408.872	4.31
409.235	4.51
409.598	4.13
409.961	4.51
410.323	4.31
410.686	4.58
411.049	4.2
411.411	4.13
411.774	4.28
412.136	4.28
412.499	4.35
412.861	4.06
413.223	4.37
413.586	4.4
413.948	4.54
414.31	4.46
414.672	4.19
415.035	4.61
415.397	4.1
415.759	4.43
416.121	4.51
416.483	4.35
416.845	4.44
417.206	4.48
417.568	4.58
417.93	4.56
418.292	4.5
418.653	4.14
419.015	4.28
419.377	4.45
419.738	4.44
420.1	4.31
420.461	4.33
420.822	4.22
421.184	4.42
421.545	4.33
421.906	4.28
422.267	4.26
422.629	4.21
422.99	4.25
423.351	4.28
423.712	4.21
424.073	4.3
424.434	4.21
424.795	4.4
425.155	4.3
425.516	4.34
425.877	4.36
426.238	4.28
426.598	4.28
426.959	4.27
427.32	4.36
427.68	4.31
428.041	4.32
428.401	4.43
428.761	4.48
429.122	4.44
429.482	4.29
429.842	4.44
430.202	4.57
430.563	4.54
430.923	4.46
431.283	4.57
431.643	4.49
432.003	4.37
432.363	4.5
432.722	4.61
433.082	4.42
433.442	4.5
433.802	4.48
434.161	4.47
434.521	4.54
434.881	4.44
435.24	4.44
435.6	4.6
435.959	4.53
436.319	4.5
436.678	4.53
437.037	4.33
437.396	4.49
437.756	4.48
438.115	4.44
438.474	4.46
438.833	4.54
439.192	4.41
439.551	4.4
439.91	4.46
440.269	4.57
440.628	4.41
440.987	4.52
441.345	4.61
441.704	4.51
442.063	4.57
442.421	4.48
442.78	4.38
443.138	4.45
443.497	4.57
443.855	4.43
444.214	4.51
444.572	4.61
444.93	4.58
445.288	4.42
445.647	4.42
446.005	4.47
446.363	4.45
446.721	4.63
447.079	4.54
447.437	4.58
447.795	4.5
448.153	4.6
448.51	4.53
448.868	4.43
449.226	4.48
449.584	4.55
449.941	4.51
450.299	4.48
450.656	4.58
451.014	4.53
451.371	4.64
451.729	4.67
452.086	4.61
452.443	4.54
452.801	4.57
453.158	4.61
453.515	4.59
453.872	4.54
454.229	4.53
454.586	4.61
454.943	4.62
455.3	4.64
455.657	4.49
456.014	4.67
456.371	4.57
456.727	4.73
457.084	4.86
457.441	4.53
457.797	4.71
458.154	4.68
458.51	4.66
458.867	4.73
459.223	4.74
459.58	4.79
459.936	4.61
460.292	4.74
460.648	4.55
461.005	4.73
461.361	4.54
461.717	4.61
462.073	4.58
462.429	4.59
462.785	4.63
463.141	4.67
463.496	4.73
463.852	4.7
464.208	4.86
464.564	4.71
464.919	4.74
465.275	4.98
465.631	4.78
465.986	4.64
466.342	4.71
466.697	4.62
467.052	4.81
467.408	4.85
467.763	4.78
468.118	4.75
468.473	4.66
468.829	4.87
469.184	4.6
469.539	4.7
469.894	4.8
470.249	4.94
470.603	4.7
470.958	4.64
471.313	4.83
471.668	4.67
472.023	4.67
472.377	4.83
472.732	4.64
473.086	4.66
473.441	4.55
473.795	4.79
474.15	4.75
474.504	4.94
474.859	4.81
475.213	4.91
475.567	4.72
475.921	4.8
476.275	4.86
476.63	4.91
476.984	4.87
477.338	4.8
477.692	4.78
478.045	4.93
478.399	4.89
478.753	4.85
479.107	4.76
479.461	4.78
479.814	4.74
480.168	4.9
480.521	4.76
480.875	4.89
481.228	5.02
481.582	4.88
481.935	4.91
482.289	4.99
482.642	4.91
482.995	4.77
483.348	4.81
483.701	4.87
484.055	4.72
484.408	4.93
484.761	4.74
485.114	4.64
485.466	4.63
485.819	4.59
486.172	4.57
486.525	4.59
486.878	4.62
487.23	4.66
487.583	4.75
487.936	4.78
488.288	4.78
488.641	4.75
488.993	4.77
489.345	4.67
489.698	4.67
490.05	4.72
490.402	4.7
490.754	4.74
491.107	4.78
491.459	4.86
491.811	4.8
492.163	4.8
492.515	4.81
492.866	4.85
493.218	4.71
493.57	4.73
493.922	4.74
494.274	4.8
494.625	4.78
494.977	4.8
495.328	4.79
495.68	4.83
496.031	5.01
496.383	4.92
496.734	4.94
497.086	4.99
497.437	5.02
497.788	5.06
498.139	4.98
498.49	5.01
498.842	5.13
499.193	5.05
499.544	5.01
499.894	4.98
500.245	5.03
500.596	5.06
500.947	5.08
501.298	5.02
501.648	5.05
501.999	5.08
502.35	5.1
502.7	5.08
503.051	5.22
503.401	5.02
503.752	5.07
504.102	5.19
504.452	5.03
504.803	5.26
505.153	5.17
505.503	5.2
505.853	5.13
506.203	5.11
506.553	5.17
506.903	5.12
507.253	5
507.603	5.21
507.953	5.07
508.303	5.18
508.652	5.08
509.002	5.23
509.352	5.18
509.701	5.15
510.051	5.18
510.4	5.23
510.75	5.12
511.099	5.2
511.449	5.03
511.798	5.14
512.147	5.13
512.496	5.23
512.846	5.24
513.195	5.18
513.544	5.29
513.893	5.2
514.242	5.33
514.591	5.29
514.939	5.36
515.288	5.39
515.637	5.29
515.986	5.27
516.334	5.16
516.683	5.23
517.032	5.32
517.38	5.47
517.729	5.35
518.077	5.37
518.426	5.31
518.774	5.44
519.122	5.39
519.47	5.48
519.819	5.4
520.167	5.31
520.515	5.29
520.863	5.28
521.211	5.32
521.559	5.37
521.907	5.32
522.255	5.33
522.602	5.39
522.95	5.45
523.298	5.52
523.645	5.64
523.993	5.52
524.341	5.54
524.688	5.58
525.036	5.53
525.383	5.64
525.73	5.62
526.078	5.58
526.425	5.53
526.772	5.45
527.119	5.49
527.466	5.53
527.814	5.54
528.161	5.52
528.508	5.52
528.854	5.55
529.201	5.53
529.548	5.48
529.895	5.44
530.242	5.45
530.588	5.45
530.935	5.4
531.282	5.38
531.628	5.45
531.975	5.46
532.321	5.6
532.667	5.57
533.014	5.71
533.36	5.59
533.706	5.71
534.052	5.79
534.399	5.66
534.745	5.72
535.091	5.63
535.437	5.59
535.783	5.69
536.129	5.73
536.474	5.73
536.82	5.7
537.166	5.87
537.512	5.85
537.857	5.77
538.203	5.77
538.549	5.78
538.894	5.79
539.239	5.92
539.585	5.81
539.93	5.77
540.276	6.08
540.621	6.02
540.966	5.99
541.311	5.97
541.656	6.01
542.001	5.96
542.346	5.96
542.691	5.89
543.036	5.85
543.381	5.81
543.726	5.87
544.071	5.87
544.415	5.91
544.76	5.99
545.105	6.08
545.449	6.03
545.794	6.03
546.138	5.98
546.483	6.22
546.827	6.2
547.171	6.28
547.516	6.06
547.86	6.2
548.204	6.18
548.548	6.15
548.892	6.12
549.236	6.22
549.58	6.28
549.924	6.39
550.268	6.36
550.612	6.46
550.956	6.36
551.3	6.32
551.643	6.52
551.987	6.53
552.33	6.36
552.674	6.34
553.017	6.56
553.361	6.62
553.704	6.46
554.048	6.63
554.391	6.67
554.734	6.64
555.077	6.56
555.42	6.63
555.764	6.72
556.107	6.73
556.45	6.56
556.793	6.83
557.135	6.66
557.478	6.67
557.821	6.76
558.164	6.69
558.507	6.83
558.849	6.71
559.192	6.87
559.534	6.99
559.877	6.73
560.219	6.87
560.562	6.81
560.904	7.18
561.246	6.99
561.589	7.05
561.931	6.95
562.273	7.04
562.615	7.08
562.957	7.19
563.299	7.23
563.641	7.16
563.983	7.24
564.325	7.25
564.667	7.06
565.008	7.17
565.35	7.08
565.692	7.3
566.033	7.22
566.375	7.28
566.716	7.18
567.058	7.18
567.399	7.37
567.741	7.27
568.082	7.49
568.423	7.26
568.764	7.2
569.105	7.41
569.447	7.34
569.788	7.45
570.129	7.52
570.47	7.65
570.811	7.55
571.151	7.55
571.492	7.51
571.833	7.5
572.174	7.63
572.514	7.53
572.855	7.61
573.195	7.74
573.536	7.64
573.876	7.72
574.217	7.78
574.557	7.68
574.898	7.67
575.238	7.77
575.578	7.94
575.918	7.88
576.258	7.85
576.598	7.8
576.938	7.95
577.278	7.81
577.618	7.96
577.958	7.91
578.298	7.95
578.638	7.92
578.977	8.19
579.317	8.06
579.657	8.05
579.996	8.15
580.336	8.26
580.675	8.01
581.014	8.27
581.354	8.2
581.693	7.98
582.032	8.3
582.372	8.21
582.711	8.35
583.05	8.43
583.389	8.37
583.728	8.25
584.067	8.45
584.406	8.51
584.745	8.54
585.083	8.56
585.422	8.56
585.761	8.93
586.1	8.19
586.438	8.78
586.777	8.42
587.115	8.66
587.454	8.83
587.792	8.87
588.13	8.87
588.469	8.66
588.807	8.64
589.145	8.79
589.483	8.94
589.821	8.9
590.159	8.82
590.497	8.73
590.835	9.04
591.173	9.25
591.511	8.99
591.849	9.08
592.187	9.08
592.524	9.17
592.862	9.21
593.2	8.95
593.537	9.22
593.875	9.41
594.212	9.28
594.55	9.05
594.887	9.39
595.224	9.22
595.561	9.31
595.899	9.28
596.236	9.48
596.573	9.45
596.91	9.63
597.247	9.42
597.584	9.63
597.921	9.53
598.258	9.48
598.594	9.22
598.931	9.52
599.268	9.7
599.604	9.46
599.941	9.63
600.277	9.67
600.614	9.95
600.95	9.76
601.287	9.94
601.623	9.94
601.959	10.1
602.296	9.79
602.632	9.58
602.968	10.27
603.304	9.8
603.64	10.09
603.976	10.24
604.312	10.2
604.648	10.17
604.984	10.17
605.319	10.2
605.655	10.38
605.991	10.25
606.326	10.25
606.662	10.4
606.998	10.24
607.333	10.46
607.668	10.46
608.004	10.36
608.339	10.42
608.674	10.49
609.01	10.59
609.345	10.63
609.68	10.43
610.015	10.62
610.35	10.75
610.685	10.79
611.02	10.6
611.355	10.83
611.689	10.64
612.024	10.72
612.359	10.8
612.694	10.76
613.028	10.58
613.363	10.76
613.697	11.04
614.032	11.1
614.366	10.71
614.7	11.02
615.035	10.9
615.369	11.12
615.703	11.12
616.037	11.29
616.371	11.14
616.705	11.33
617.039	11.4
617.373	10.88
617.707	11.7
618.041	11.43
618.375	11.37
618.709	11.01
619.042	11.42
619.376	11.34
619.71	11.67
620.043	11.55
620.377	11.58
620.71	11.69
621.043	11.97
621.377	11.75
621.71	11.28
622.043	11.59
622.376	11.89
622.709	11.97
623.043	12.07
623.376	11.86
623.709	11.53
624.041	12.31
624.374	11.97
624.707	11.84
625.04	11.87
625.373	12
625.705	12.36
626.038	12.35
626.37	12.32
626.703	12.08
627.035	12.09
627.368	12.92
627.7	12.77
628.032	12.2
628.365	12.37
628.697	12.44
629.029	12.62
629.361	12.51
629.693	12.76
630.025	12.41
630.357	12.42
630.689	12.37
631.021	12.89
631.353	12.69
631.684	12.62
632.016	12.68
632.348	12.69
632.679	12.84
633.011	12.89
633.342	12.61
633.674	12.87
634.005	13.07
634.336	12.88
634.668	13.23
634.999	12.76
635.33	13.04
635.661	13.01
635.992	13.04
636.323	13.13
636.654	13.28
636.985	13.23
637.316	13.15
637.647	13.2
637.977	13.39
638.308	13.42
638.639	13.51
638.969	13.42
639.3	13.54
639.63	13.43
639.961	13.35
640.291	13.71
640.622	13.37
640.952	14.18
641.282	13.81
641.612	13.92
641.943	13.89
642.273	13.72
642.603	14.04
642.933	14.02
643.263	13.8
643.592	13.7
643.922	13.5
644.252	13.89
644.582	14.17
644.911	13.91
645.241	14.74
645.571	14.31
645.9	13.92
646.23	13.71
646.559	14.11
646.888	14.14
647.218	14.93
647.547	14.64
647.876	14.51
648.205	14.55
648.534	14.55
648.863	14.41
649.192	14.38
649.521	14.17
649.85	14.94
650.179	14.6
650.508	14.52
650.837	14.82
651.165	14.52
651.494	14.85
651.822	14.86
652.151	14.56
652.479	14.8
652.808	15.03
653.136	15.19
653.465	14.72
653.793	14.97
654.121	14.99
654.449	15.37
654.777	15.46
655.105	15.31
655.433	15.27
655.761	15.09
656.089	15
656.417	15.41
656.745	15.05
657.073	15.22
657.4	15.33
657.728	15.55
658.056	14.82
658.383	15.11
658.711	15.81
659.038	15.1
659.365	15.64
659.693	15.13
660.02	15.73
660.347	15.68
660.674	15.69
661.001	15.81
661.329	15.67
661.656	15.48
661.982	15.62
662.309	15.57
662.636	15.7
662.963	15.9
663.29	16.08
663.616	15.87
663.943	15.78
664.27	15.5
664.596	16.02
664.923	15.79
665.249	16.22
665.576	15.77
665.902	16.83
666.228	15.74
666.554	16.45
666.881	16.42
667.207	16.15
667.533	16.19
667.859	16.46
668.185	16.65
668.511	16.66
668.837	16.75
669.162	16.56
669.488	16.89
669.814	16.9
670.139	16.62
670.465	17.03
670.791	16.58
671.116	16.72
671.442	17.07
671.767	17.42
672.092	16.89
672.418	16.49
672.743	16.15
673.068	17.25
673.393	16.72
673.718	17.41
674.043	17.11
674.368	16.94
674.693	17.64
675.018	17.45
675.343	17.53
675.667	17.24
675.992	16.83
676.317	17.23
676.641	17.22
676.966	17.46
677.29	17.32
677.615	17.5
677.939	17.46
678.264	17.77
678.588	17.67
678.912	17.78
679.236	17.98
679.56	18.04
679.885	17.46
680.209	17.58
680.532	18.37
680.856	17.67
681.18	17.7
681.504	17.69
681.828	18.21
682.152	17.71
682.475	18.25
682.799	18.1
683.122	18.35
683.446	18.68
683.769	18.15
684.093	19.01
684.416	18.47
684.739	18.27
685.062	18.54
685.386	18.63
685.709	18.55
686.032	18.57
686.355	18.67
686.678	18.02
687.001	18.04
687.324	17.97
687.646	18.84
687.969	18.89
688.292	19.12
688.614	19.11
688.937	18.39
689.26	19.06
689.582	17.66
689.904	18.91
690.227	19.53
690.549	18.74
690.871	19.41
691.194	18.76
691.516	18.91
691.838	19.81
692.16	19.27
692.482	19.14
692.804	18.94
693.126	19.85
693.448	19.32
693.769	19.48
694.091	19.62
694.413	20.78
694.735	19.79
695.056	19.54
695.378	19.18
695.699	19.18
696.021	19.36
696.342	19.93
696.663	19.76
696.984	19.23
697.306	18.98
697.627	20.81
697.948	19.53
698.269	19.78
698.59	19.06
698.911	20.59
699.232	20.84
699.553	19.69
699.873	19.94
700.194	19.77
700.515	20.14
700.835	20.59
701.156	19.55
701.477	20.44
701.797	20.25
702.117	20.34
702.438	19.38
702.758	19.89
703.078	19.72
703.398	21.3
703.719	19.94
704.039	20.34
704.359	20.94
704.679	21.1
704.999	20.83
705.319	20.82
705.638	20.44
705.958	20.1
706.278	20.53
706.597	21.14
706.917	21.33
707.237	20.83
707.556	20.2
707.876	21.1
708.195	21.27
708.514	21.39
708.834	21.14
709.153	20.63
709.472	20.81
709.791	20.37
710.11	22.21
710.429	21.7
710.748	21.52
711.067	22.87
711.386	21.61
711.705	21.39
712.023	22.58
712.342	21.93
712.661	22.1
712.979	21.85
713.298	22.18
713.616	21.9
713.935	22.43
714.253	20.66
714.572	22.01
714.89	21.86
715.208	21.89
715.526	21.95
715.844	22.07
716.162	22.95
716.48	21.86
716.798	22.05
717.116	21.96
717.434	21.92
717.752	22.64
718.069	21.8
718.387	23.24
718.705	22.68
719.022	22.6
719.34	22.95
719.657	22.4
719.975	22.15
720.292	22.64
720.609	22.98
720.927	22.55
721.244	21.86
721.561	22.74
721.878	21.77
722.195	22.42
722.512	21.45
722.829	22.81
723.146	22.53
723.463	22.78
723.779	22.08
724.096	23.35
724.413	22.94
724.729	21.49
725.046	22.76
725.362	23.09
725.679	22.25
725.995	23.17
726.311	21.8
726.628	23.64
726.944	24.45
727.26	21.73
727.576	23.1
727.892	23.01
728.208	23.8
728.524	23.23
728.84	24.66
729.156	23.14
729.472	23.68
729.787	23.53
730.103	23.95
730.419	23.19
730.734	22.44
731.05	23.56
731.365	23.84
731.681	23.53
731.996	24.87
732.311	24.15
732.626	22.9
732.942	24.86
733.257	23.82
733.572	23.5
733.887	23.33
734.202	24.47
734.517	24.62
734.832	24.06
735.146	25.13
735.461	23.93
735.776	23.98
736.091	23.13
736.405	24.71
736.72	24.54
737.034	25.14
737.349	25.4
737.663	25.27
737.977	25.13
738.292	24.01
738.606	25.23
738.92	23.25
739.234	25.72
739.548	24.12
739.862	24.77
740.176	25.04
740.49	24.69
740.804	25.96
741.117	24.31
741.431	25.8
741.745	26.62
742.058	25.9
742.372	23.77
742.685	25.23
742.999	25.26
743.312	26.54
743.626	25.56
743.939	25.02
744.252	25.44
744.565	25.82
744.878	25.42
745.191	24.64
745.505	24.69
745.817	23.84
746.13	27.23
746.443	24.6
746.756	25.7
747.069	25.63
747.381	25.12
747.694	25.28
748.007	26.5
748.319	25
748.632	25.71
748.944	25.01
749.256	25.55
749.569	26.38
749.881	26.8
750.193	26.31
750.505	26.94
750.817	26.89
751.129	26.6
751.441	27.11
751.753	25.89
752.065	26.41
752.377	25.98
752.689	26.14
753	27.56
753.312	27.22
753.624	26.21
753.935	26.04
754.247	26.25
754.558	28.21
754.869	25.59
755.181	26.92
755.492	27.85
755.803	27.35
756.114	26.76
756.425	26.14
756.736	26.84
757.047	27.88
757.358	26.22
757.669	28.26
757.98	27.48
758.291	26.96
758.601	27.23
758.912	28.73
759.223	26.52
759.533	28.14
759.844	26.47
760.154	26.62
760.464	26.85
760.775	27.7
761.085	28.22
761.395	28.46
761.705	26.08
762.016	28.39
762.326	27.96
762.636	28.96
762.945	27.87
763.255	28.57
763.565	29.5
763.875	28.06
764.185	26.76
764.494	28.99
764.804	28.03
765.113	27.29
765.423	27.24
765.732	28.67
766.042	28.55
766.351	27.52
766.66	27.56
766.97	28.01
767.279	27.33
767.588	27.88
767.897	28.66
768.206	26.96
768.515	28.86
768.824	27.03
769.133	27.96
769.441	28.25
769.75	30.05
770.059	29.85
770.367	29.95
770.676	29.54
770.984	28.16
771.293	31.21
771.601	27.04
771.91	30.55
772.218	28.73
772.526	28.72
772.834	30.72
773.142	29.82
773.45	26.1
773.758	27
774.066	27.41
774.374	27.26
774.682	28.57
774.99	29.3
775.298	29.2
775.605	28.81
775.913	30.04
776.22	29.13
776.528	30.92
776.835	31.48
777.143	28.74
777.45	29.01
777.757	29.11
778.065	27.75
778.372	29.11
778.679	27.26
778.986	29.81
779.293	31.83
779.6	27.93
779.907	30.53
780.214	32.1
780.52	28.46
780.827	31.12
781.134	29.94
781.44	31.99
781.747	31.4
782.053	25.15
782.36	29.41
782.666	30.95
782.973	29.42
783.279	30.62
783.585	28.91
783.891	26.84
784.197	30.6
784.503	33.25
784.809	33.02
785.115	32.41
785.421	29.88
785.727	31.94
786.033	30.55
786.339	32.38
786.644	30.08
786.95	31.28
787.255	24.74
787.561	31.11
787.866	33.26
788.172	27.08
788.477	34.54
788.782	32.5
789.088	28.04
789.393	29.61
789.698	28.18
790.003	29.27
790.308	32.69
790.613	30.76
790.918	32.72
791.223	31.37
791.527	32.73
791.832	34.8
792.137	30.32
792.441	34.09
792.746	30.48
793.05	30.43
793.355	33.65
793.659	34.49
793.963	31.98
794.268	31.27
794.572	28.23
794.876	32.88
795.18	28.42
795.484	29.71
795.788	31.82
796.092	30.58
796.396	32.72
796.7	35.34
797.004	32.51
797.307	31.66
797.611	31.91
797.915	29.76
798.218	35.9
798.522	31.8
798.825	33.03
799.128	28.89
799.432	31.08
799.735	28.06
800.038	28.87
800.341	28.65
800.644	32.87
800.947	34.87
801.25	29.11
801.553	35.17
801.856	31.48
802.159	31.7
802.462	30.89
802.764	27.39
803.067	30.42
803.37	32.96
803.672	30.32
803.975	32.84
804.277	28.6
804.579	28.72
804.882	31.45
805.184	35.69
805.486	31.39
805.788	31.33
806.09	34.27
806.392	32.99
806.694	32.82
806.996	31.95
807.298	32.23
807.6	33.04
807.902	34.06
808.203	32.48
808.505	31.89
808.807	33.46
809.108	39.64
809.409	29.3
809.711	33.19
810.012	34.78
810.313	35.72
810.615	32.69
810.916	32.64
811.217	32.68
811.518	32.08
811.819	34.52
812.12	31.69
812.421	32.92
812.722	35.22
813.023	29.03
813.323	32.04
813.624	32.05
813.925	32.9
814.225	35.74
814.526	38.01
814.826	38.73
815.126	35.69
815.427	35.84
815.727	32.32
816.027	26.01
816.327	38.08
816.627	35.21
816.927	30.91
817.227	27.71
817.527	38.36
817.827	27.35
818.127	34.64
818.427	33.76
818.727	30.2
819.026	37.32
819.326	29.31
819.625	36.42
819.925	30.92
820.224	36.91
820.524	39.44
820.823	32.16
821.122	33.84
821.421	39.27
821.72	37.24
822.019	33.58
822.318	34.48
822.617	33.81
822.916	36.09
823.215	35.26
823.514	36.94
823.813	36.82
824.111	36.08
824.41	36.79
824.709	35.39
825.007	35.02
825.306	35.53
825.604	36.25
825.902	35.31
826.201	34.77
826.499	36.34
826.797	35.32
827.095	34.98
827.393	35.63
827.691	34.93
827.989	35.66
828.287	35.79
828.585	35.86
828.882	35.6
829.18	37.55
829.478	35.55
829.775	36.53
830.073	36.74
830.37	37.89
830.668	35.09
830.965	34.28
831.263	33.27
831.56	36.64
831.857	39.42
832.154	37.25
832.451	35.77
832.748	36.01
833.045	33.33
833.342	35.94
833.639	32.56
833.936	33.39
834.232	39.42
834.529	33.28
834.826	37.35
835.122	35.91
835.419	36.47
835.715	37.02
836.012	33.11
836.308	37.19
836.604	36.15
836.901	37.35
837.197	37.67
837.493	34.13
837.789	38.37
838.085	35.1
838.381	32.55
838.677	35.26
838.972	37.17
839.268	39.86
839.564	35.32
839.86	42.06
840.155	35.67
840.451	37.54
840.746	38.97
841.042	29.92
841.337	30.97
841.632	35.59
841.928	35.93
842.223	29.84
842.518	25.63
842.813	33.78
843.108	31.74
843.403	42.55
843.698	45.11
843.993	35.01
844.287	35.27
844.582	32.55
844.877	32.01
845.171	49.73
845.466	32.58
845.761	33.25
846.055	35.1
846.349	35.89
846.644	26.35
846.938	26
847.232	43.53
847.526	45.22
847.82	38.76
848.114	25.8
848.408	33.23
848.702	39.61
848.996	26.95
849.29	5.6
849.584	40.09
849.877	30.74
850.171	31.21
850.465	38.67
850.758	23.11
851.052	32.69
851.345	30.34
851.638	37.83
851.932	23.79
852.225	38.21
852.518	46.66
852.811	41.9
853.104	40.45
853.397	15.08
853.69	47.1
853.983	29.15
854.276	43.44
854.569	41.03
854.861	39.84
855.154	42.82
855.447	35.37
855.739	54.85
856.032	36.78
856.324	35.86
856.616	24.63
856.909	44.89
857.201	4.79
857.493	29.88
857.785	46.03
858.077	25.34
858.369	27.53
858.661	37.38
858.953	29.14
859.245	32.14
859.537	42.35
859.829	40.24
860.12	29.34
860.412	25.12
860.703	26.53
860.995	27.28
861.286	51.44
861.578	31.92
861.869	37.75
862.16	26.58
862.452	46.18
862.743	12.58
863.034	36.21
863.325	39.02
863.616	64.57
863.907	43
864.198	39.74
864.488	40.76
864.779	37.37
865.07	29.54
865.36	41.58
865.651	35.49
865.941	14.76
866.232	40.48
866.522	27.09
866.813	45.45
867.103	32.46
867.393	30.57
867.683	39.18
867.973	40.62
868.263	19.95
868.553	54.88
868.843	20.98
869.133	35.4
869.423	44.68
869.713	-8.33
870.002	30.62
870.292	17.43
870.582	34.5
870.871	51.33
871.161	31.74
871.45	-4.64
871.739	24.74
872.029	14.17
872.318	48.23
872.607	26.26
872.896	21.62
873.185	50.82
873.474	32.22
873.763	33.95
874.052	40.62
874.341	45.31
874.63	54.79
874.918	66.54
875.207	15.62
875.496	26.04
875.784	51.79
876.073	21.36
876.361	28.87
876.649	29.27
876.938	37.73
877.226	50.81
877.514	26.18
877.802	-2.99
878.09	47.24
878.378	53.02
878.666	76.18
878.954	46.09
879.242	36.39
879.53	44.25
879.817	50.29
880.105	56.18
880.392	40.26
880.68	45.22
880.967	27.52
881.255	31.2
881.542	53.14
881.83	16.72
882.117	64.59
882.404	57.38
882.691	26.4
882.978	51.25
883.265	22.47
883.552	35.86
883.839	34
884.126	32.94
884.413	38.83
884.699	42.02
884.986	41.9
885.273	45.95
885.559	45.95
885.846	45.95
