Data from 0224_forehead_Reflection__2__105.txt Node

Date: Fri Oct 20 21:27:20 CDT 2023
User: ToomeyLab
Spectrometer: FLMS14357
Trigger mode: 0
Integration Time (sec): 1.000000E-2
Scans to average: 100
Electric dark correction enabled: true
Nonlinearity correction enabled: false
Boxcar width: 0
XAxis mode: Wavelengths
Number of Pixels in Spectrum: 2048
>>>>>Begin Spectral Data<<<<<
189.047	91.19
189.435	91.19
189.823	91.19
190.211	130.56
190.599	167.88
190.987	88.84
191.375	196.88
191.763	64.02
192.151	5878.26
192.538	55.69
192.926	-44.82
193.314	78.51
193.702	5452.31
194.089	123.5
194.477	179.65
194.864	-319.48
195.252	139.99
195.639	-3171.93
196.027	-160
196.414	79.24
196.801	337.56
197.189	26.39
197.576	-218.18
197.963	-21.84
198.351	55.88
198.738	37.98
199.125	43.67
199.512	37.04
199.899	32.41
200.286	52.94
200.673	53.7
201.06	63.48
201.447	-8.31
201.833	49.18
202.22	57.7
202.607	37.38
202.994	34.34
203.38	25.45
203.767	72.91
204.154	47.48
204.54	81.14
204.927	30.25
205.313	32.81
205.699	61.81
206.086	45.28
206.472	50.25
206.858	52.5
207.245	11.6
207.631	42.2
208.017	43.57
208.403	37.71
208.789	60.46
209.175	37.26
209.561	42.79
209.947	15.65
210.333	45.49
210.719	2.85
211.105	28.24
211.491	26.9
211.876	25.91
212.262	53.26
212.648	22.89
213.034	43.72
213.419	38.99
213.805	34.03
214.19	23
214.576	43.35
214.961	22.87
215.346	25.8
215.732	23.55
216.117	12.74
216.502	35.62
216.888	34.36
217.273	30.71
217.658	5.73
218.043	27.87
218.428	18.69
218.813	19.06
219.198	4.27
219.583	8.53
219.968	20.3
220.353	30.73
220.738	33
221.122	18.67
221.507	21.85
221.892	31.06
222.276	18.53
222.661	21.6
223.046	17.43
223.43	13.37
223.815	23.78
224.199	19.71
224.583	3.95
224.968	12.78
225.352	17.23
225.736	1.23
226.121	16.29
226.505	14.06
226.889	15.82
227.273	10.02
227.657	18.58
228.041	12.93
228.425	8.79
228.809	11.39
229.193	7.89
229.577	9.08
229.961	6.75
230.344	6.82
230.728	6.22
231.112	6.59
231.495	5.19
231.879	5.53
232.263	7.78
232.646	6.45
233.03	5.4
233.413	6.66
233.797	6.46
234.18	7.37
234.563	7.4
234.946	8.22
235.33	8.83
235.713	7.79
236.096	8.17
236.479	6.81
236.862	6.27
237.245	6.41
237.628	5.73
238.011	6.02
238.394	7.47
238.777	8.39
239.16	9.6
239.543	8.98
239.925	8.91
240.308	8.92
240.691	7.13
241.073	8.64
241.456	8.8
241.838	8.16
242.221	9.53
242.603	6.48
242.986	6.96
243.368	6.26
243.75	5.41
244.133	5.81
244.515	5.48
244.897	6.01
245.279	6.59
245.661	5.36
246.043	6.53
246.425	6.25
246.807	6.72
247.189	6.38
247.571	6.1
247.953	6.73
248.335	6.29
248.717	5.8
249.098	5.4
249.48	5.61
249.862	5.95
250.243	6.16
250.625	6.4
251.006	6.55
251.388	6.26
251.769	6.92
252.151	6.33
252.532	7.98
252.913	6.95
253.295	5.32
253.676	5.76
254.057	6.35
254.438	5.6
254.819	6.08
255.2	6.14
255.581	5.61
255.962	6.03
256.343	7.05
256.724	5.65
257.105	5.82
257.486	6.82
257.867	5.88
258.247	6.71
258.628	6.04
259.009	6.45
259.389	6.18
259.77	5.54
260.15	5.95
260.531	6.62
260.911	6.07
261.292	5.46
261.672	5.9
262.052	5.75
262.432	5.91
262.813	5.73
263.193	6.26
263.573	6.03
263.953	6.6
264.333	6.19
264.713	5.91
265.093	6.28
265.473	6.73
265.853	5.62
266.233	6.04
266.612	5.97
266.992	6.03
267.372	5.88
267.752	5.61
268.131	6.16
268.511	5.5
268.89	5.9
269.27	6.06
269.649	4.89
270.029	5.93
270.408	5.76
270.787	6.33
271.167	5.73
271.546	5.92
271.925	6.68
272.304	6.38
272.683	6.15
273.062	6.44
273.441	5.84
273.82	5.65
274.199	5.86
274.578	6.05
274.957	5.7
275.336	6.02
275.715	6.22
276.093	5.92
276.472	6.07
276.851	5.68
277.229	5.83
277.608	5.42
277.986	5.28
278.365	6.5
278.743	5.4
279.122	5.99
279.5	6.43
279.878	5.62
280.257	6.05
280.635	6.69
281.013	5.89
281.391	6.47
281.769	5.82
282.147	5.76
282.525	6.07
282.903	5.38
283.281	6.1
283.659	5.69
284.037	6.26
284.415	5.34
284.792	5.23
285.17	6.29
285.548	5.61
285.925	5.4
286.303	5.64
286.68	5.47
287.058	6.33
287.435	6.3
287.813	5.48
288.19	5.88
288.567	6.07
288.945	6.09
289.322	6.5
289.699	5.43
290.076	6.56
290.453	5.89
290.83	5.85
291.207	6.73
291.584	5.96
291.961	6.2
292.338	6.24
292.715	6.16
293.092	6.49
293.469	6.48
293.845	6.18
294.222	6.46
294.599	6.77
294.975	7.81
295.352	6.9
295.728	6.72
296.105	6.62
296.481	6.51
296.858	7.16
297.234	6.89
297.61	6.03
297.986	6.49
298.363	7.18
298.739	7
299.115	6.91
299.491	7.2
299.867	7.17
300.243	7.34
300.619	6.89
300.995	6.75
301.371	7.58
301.746	7.43
302.122	7.63
302.498	7.03
302.874	7.73
303.249	7.78
303.625	7.83
304	8.12
304.376	7.63
304.751	7.66
305.127	7.87
305.502	8.27
305.878	8.2
306.253	7.72
306.628	8.07
307.003	8.5
307.378	8.01
307.754	8.13
308.129	8.32
308.504	8.81
308.879	8.54
309.254	9.14
309.629	7.93
310.003	8.16
310.378	8.93
310.753	8.9
311.128	9.05
311.502	8.74
311.877	8.7
312.252	8.67
312.626	9.38
313.001	8.93
313.375	9.15
313.75	8.89
314.124	8.86
314.498	9.24
314.873	8.96
315.247	9.82
315.621	9.33
315.995	9.82
316.369	9.04
316.743	9.56
317.117	9.33
317.491	9.26
317.865	10.05
318.239	10.19
318.613	9.83
318.987	10.1
319.361	10.03
319.734	10.23
320.108	9.99
320.482	10
320.855	10.52
321.229	10.6
321.602	9.9
321.976	10.34
322.349	10.8
322.723	10.39
323.096	10.82
323.469	10.66
323.843	10.28
324.216	10.16
324.589	10.76
324.962	11.31
325.335	10.93
325.708	10.84
326.081	11.18
326.454	10.73
326.827	11.08
327.2	11.15
327.573	11.77
327.945	11.16
328.318	11.09
328.691	11.03
329.063	12.02
329.436	11.2
329.809	10.92
330.181	11.31
330.553	11.73
330.926	11.29
331.298	10.95
331.671	11.51
332.043	11.1
332.415	11.68
332.787	11.79
333.159	11.36
333.532	11.79
333.904	11.72
334.276	11.51
334.648	12.12
335.02	12.38
335.391	11.6
335.763	12.48
336.135	12.01
336.507	11.55
336.879	11.86
337.25	11.9
337.622	12.61
337.993	12.53
338.365	12.31
338.736	12.62
339.108	12.41
339.479	11.64
339.851	12.74
340.222	12.15
340.593	11.87
340.964	12.2
341.336	12.81
341.707	12.65
342.078	12.71
342.449	12.45
342.82	12.5
343.191	12.4
343.562	12.76
343.933	12.71
344.303	12.98
344.674	13.24
345.045	12.75
345.416	13.12
345.786	12.51
346.157	13.04
346.527	13.45
346.898	13.25
347.268	12.98
347.639	13.14
348.009	13.1
348.38	13.09
348.75	13.06
349.12	13.29
349.49	13.56
349.861	13.33
350.231	13.11
350.601	13.66
350.971	13.91
351.341	13.64
351.711	14.3
352.081	13.67
352.45	13.21
352.82	14.14
353.19	13.73
353.56	14.11
353.929	13.61
354.299	13.98
354.669	14.13
355.038	14.21
355.408	14.42
355.777	13.84
356.147	14.01
356.516	14.2
356.885	13.98
357.254	14.29
357.624	14.51
357.993	14.08
358.362	14.37
358.731	14.24
359.1	14.12
359.469	14.48
359.838	14.34
360.207	14.38
360.576	14.56
360.945	14.05
361.314	14.57
361.682	14.5
362.051	14.51
362.42	14.23
362.788	14.76
363.157	14.62
363.525	14.64
363.894	14.74
364.262	14.61
364.631	15.02
364.999	14.9
365.367	15.27
365.735	14.96
366.104	14.92
366.472	15.12
366.84	15.23
367.208	15.28
367.576	15.07
367.944	15.19
368.312	15.3
368.68	15.22
369.048	15.6
369.416	15.93
369.783	15.43
370.151	15.65
370.519	16
370.886	15.42
371.254	15.83
371.621	15.78
371.989	15.61
372.356	15.87
372.724	15.88
373.091	15.61
373.458	16.11
373.826	16.06
374.193	15.84
374.56	16.07
374.927	16.08
375.294	15.99
375.661	16.58
376.028	16.52
376.395	16.94
376.762	16.75
377.129	16.58
377.496	16.69
377.863	16.77
378.229	16.67
378.596	16.55
378.963	16.95
379.329	16.71
379.696	17.02
380.062	16.68
380.429	16.27
380.795	16.53
381.161	16.64
381.528	16.88
381.894	16.98
382.26	16.89
382.626	17.28
382.993	17
383.359	17.46
383.725	17.47
384.091	17.34
384.457	17.07
384.823	17.1
385.188	17.55
385.554	17.39
385.92	17.38
386.286	17.9
386.651	17.12
387.017	17.62
387.383	17.74
387.748	17.68
388.114	17.6
388.479	18.11
388.845	18.02
389.21	17.59
389.575	17.8
389.94	18.05
390.306	17.77
390.671	18.04
391.036	17.83
391.401	18.26
391.766	18.05
392.131	18.05
392.496	18.36
392.861	18.43
393.226	18.14
393.591	18.5
393.956	18.31
394.32	18.55
394.685	18.35
395.05	18.81
395.414	18.83
395.779	18.87
396.143	18.48
396.508	18.63
396.872	18.56
397.236	18.97
397.601	18.89
397.965	18.83
398.329	18.71
398.694	18.87
399.058	18.88
399.422	19.16
399.786	19.25
400.15	19.12
400.514	18.93
400.878	19.3
401.242	19.52
401.605	19.27
401.969	19.27
402.333	19.36
402.697	19.66
403.06	19.72
403.424	19.49
403.787	19.57
404.151	19.72
404.514	19.89
404.878	19.88
405.241	19.97
405.604	19.86
405.968	19.92
406.331	19.62
406.694	19.86
407.057	19.83
407.42	20.19
407.783	20.21
408.146	20.16
408.509	20.27
408.872	20.31
409.235	20.24
409.598	20.42
409.961	20.27
410.323	20.51
410.686	20.29
411.049	20.68
411.411	20.63
411.774	20.64
412.136	20.8
412.499	20.72
412.861	20.48
413.223	21.06
413.586	20.84
413.948	21.06
414.31	21.07
414.672	20.94
415.035	20.98
415.397	21.13
415.759	21.04
416.121	20.98
416.483	21.2
416.845	21.23
417.206	21.14
417.568	21.35
417.93	21.44
418.292	21.16
418.653	21.37
419.015	21.4
419.377	21.32
419.738	21.27
420.1	21.38
420.461	21.27
420.822	21.42
421.184	21.29
421.545	21.52
421.906	21.23
422.267	21.2
422.629	21.39
422.99	21.29
423.351	21.21
423.712	21.38
424.073	21.48
424.434	21.52
424.795	21.74
425.155	21.65
425.516	21.67
425.877	21.75
426.238	21.7
426.598	21.68
426.959	21.68
427.32	21.91
427.68	22.03
428.041	22.18
428.401	22.14
428.761	22.47
429.122	22.34
429.482	22.58
429.842	22.65
430.202	22.64
430.563	22.65
430.923	22.92
431.283	22.84
431.643	23.05
432.003	23
432.363	23.06
432.722	23.09
433.082	23.14
433.442	23.13
433.802	23.23
434.161	23.22
434.521	23.45
434.881	23.15
435.24	23.22
435.6	23.44
435.959	23.25
436.319	23.41
436.678	23.36
437.037	23.44
437.396	23.63
437.756	23.78
438.115	23.51
438.474	23.82
438.833	24.02
439.192	23.61
439.551	23.89
439.91	23.91
440.269	23.97
440.628	24.05
440.987	24.02
441.345	24.05
441.704	24.02
442.063	23.97
442.421	23.98
442.78	23.93
443.138	24.2
443.497	24.06
443.855	24.28
444.214	24.21
444.572	24.53
444.93	24.56
445.288	24.56
445.647	24.82
446.005	24.74
446.363	24.55
446.721	24.77
447.079	24.9
447.437	24.66
447.795	24.57
448.153	24.41
448.51	24.53
448.868	24.49
449.226	24.5
449.584	24.85
449.941	24.75
450.299	25.03
450.656	24.91
451.014	24.93
451.371	25.2
451.729	25.34
452.086	25.58
452.443	25.43
452.801	25.6
453.158	25.76
453.515	25.71
453.872	25.69
454.229	26.05
454.586	25.7
454.943	25.73
455.3	25.74
455.657	25.8
456.014	26.05
456.371	26.05
456.727	26.2
457.084	26.33
457.441	26.43
457.797	26.49
458.154	26.33
458.51	26.39
458.867	26.22
459.223	26.44
459.58	26.65
459.936	26.47
460.292	26.43
460.648	26.55
461.005	26.4
461.361	26.44
461.717	26.39
462.073	26.37
462.429	26.37
462.785	26.52
463.141	26.68
463.496	26.72
463.852	27.08
464.208	27.03
464.564	27.4
464.919	27.2
465.275	27.48
465.631	27.56
465.986	27.56
466.342	27.4
466.697	27.56
467.052	27.63
467.408	27.82
467.763	27.78
468.118	28
468.473	27.69
468.829	27.74
469.184	27.91
469.539	27.78
469.894	27.77
470.249	27.86
470.603	28.09
470.958	28.17
471.313	28.42
471.668	28.45
472.023	28.3
472.377	28.42
472.732	28.18
473.086	28.51
473.441	28.61
473.795	28.68
474.15	28.49
474.504	28.69
474.859	28.59
475.213	28.82
475.567	28.55
475.921	28.9
476.275	28.68
476.63	29.06
476.984	29.13
477.338	29.11
477.692	29.03
478.045	29.28
478.399	29.11
478.753	29.18
479.107	29.24
479.461	29.43
479.814	29.16
480.168	29.33
480.521	29.32
480.875	29.45
481.228	29.42
481.582	29.54
481.935	29.52
482.289	29.72
482.642	29.38
482.995	29.5
483.348	29.53
483.701	29.46
484.055	29.5
484.408	29.31
484.761	29.28
485.114	29
485.466	28.75
485.819	28.72
486.172	28.65
486.525	28.75
486.878	28.84
487.23	28.97
487.583	29.18
487.936	29.38
488.288	29.51
488.641	29.51
488.993	29.36
489.345	29.34
489.698	29.24
490.05	29.43
490.402	29.39
490.754	29.45
491.107	29.74
491.459	29.96
491.811	30.23
492.163	30.28
492.515	30.43
492.866	30.35
493.218	30.21
493.57	30.13
493.922	29.97
494.274	30.05
494.625	30.16
494.977	30.52
495.328	30.72
495.68	31.07
496.031	31.15
496.383	31.37
496.734	31.33
497.086	31.64
497.437	31.58
497.788	31.67
498.139	31.63
498.49	31.71
498.842	31.61
499.193	31.57
499.544	31.69
499.894	31.59
500.245	31.72
500.596	32.04
500.947	31.74
501.298	32.11
501.648	32.08
501.999	32.21
502.35	32.29
502.7	32.63
503.051	32.34
503.401	32.56
503.752	32.55
504.102	32.71
504.452	32.63
504.803	32.86
505.153	32.92
505.503	32.9
505.853	32.83
506.203	33.01
506.553	32.91
506.903	33.05
507.253	33.04
507.603	33.03
507.953	33.13
508.303	33.18
508.652	33.45
509.002	33.27
509.352	33.51
509.701	33.54
510.051	33.43
510.4	33.36
510.75	33.32
511.099	33.2
511.449	33.37
511.798	33.4
512.147	33.46
512.496	33.52
512.846	33.71
513.195	33.83
513.544	33.85
513.893	33.72
514.242	33.74
514.591	33.93
514.939	33.86
515.288	33.94
515.637	34.09
515.986	34.11
516.334	34.11
516.683	34.17
517.032	34.37
517.38	34.54
517.729	34.6
518.077	34.58
518.426	34.75
518.774	34.73
519.122	34.72
519.47	34.71
519.819	34.45
520.167	34.46
520.515	34.41
520.863	34.41
521.211	34.39
521.559	34.55
521.907	34.7
522.255	34.59
522.602	35.04
522.95	35.13
523.298	35.2
523.645	35.46
523.993	35.59
524.341	35.53
524.688	35.74
525.036	35.69
525.383	35.7
525.73	35.51
526.078	35.65
526.425	35.76
526.772	35.68
527.119	35.65
527.466	35.47
527.814	35.42
528.161	35.43
528.508	35.51
528.854	35.37
529.201	35.58
529.548	35.63
529.895	35.55
530.242	35.27
530.588	35.07
530.935	35.07
531.282	35.16
531.628	35.32
531.975	35.42
532.321	35.54
532.667	35.9
533.014	36.17
533.36	36.22
533.706	36.32
534.052	36.42
534.399	36.24
534.745	36.11
535.091	36.29
535.437	36.09
535.783	36.14
536.129	36.37
536.474	36.38
536.82	36.63
537.166	36.6
537.512	36.83
537.857	37.02
538.203	36.91
538.549	37.11
538.894	37.06
539.239	37.01
539.585	37.09
539.93	37.29
540.276	37.44
540.621	37.76
540.966	37.64
541.311	37.91
541.656	37.87
542.001	38.09
542.346	37.8
542.691	37.71
543.036	37.45
543.381	37.23
543.726	37.25
544.071	37.35
544.415	37.39
544.76	37.47
545.105	37.84
545.449	37.93
545.794	38.01
546.138	38.05
546.483	38.28
546.827	38.51
547.171	38.64
547.516	38.65
547.86	38.83
548.204	38.54
548.548	38.77
548.892	38.53
549.236	38.83
549.58	38.96
549.924	39.07
550.268	39.06
550.612	39.41
550.956	39.59
551.3	39.45
551.643	39.76
551.987	39.95
552.33	40.09
552.674	39.89
553.017	40.31
553.361	40.07
553.704	40.4
554.048	40.13
554.391	40.38
554.734	40.32
555.077	40.13
555.42	40.11
555.764	40.12
556.107	40.34
556.45	40.46
556.793	40.39
557.135	40.54
557.478	40.47
557.821	41.18
558.164	40.77
558.507	41.02
558.849	41.01
559.192	41.03
559.534	41.33
559.877	41.26
560.219	41.15
560.562	41.06
560.904	41.04
561.246	41.43
561.589	41.43
561.931	41.38
562.273	41.49
562.615	41.82
562.957	41.71
563.299	41.8
563.641	41.73
563.983	41.66
564.325	41.53
564.667	41.85
565.008	41.88
565.35	42.02
565.692	42.08
566.033	42.28
566.375	42.28
566.716	42.25
567.058	42.34
567.399	42.37
567.741	42.16
568.082	41.99
568.423	42.31
568.764	42.13
569.105	42.33
569.447	42.31
569.788	42.28
570.129	42.59
570.47	42.84
570.811	42.66
571.151	42.7
571.492	43.13
571.833	43.01
572.174	43.28
572.514	42.93
572.855	43
573.195	43.17
573.536	43.07
573.876	43
574.217	43.33
574.557	42.92
574.898	43.11
575.238	43.06
575.578	43.29
575.918	43.59
576.258	43.17
576.598	43.72
576.938	43.9
577.278	43.53
577.618	43.54
577.958	43.72
578.298	43.75
578.638	43.58
578.977	43.85
579.317	43.85
579.657	43.89
579.996	44.15
580.336	44.13
580.675	44.34
581.014	44.55
581.354	44.55
581.693	44.35
582.032	44.61
582.372	44.69
582.711	45.07
583.05	45.39
583.389	44.92
583.728	44.7
584.067	44.93
584.406	45.05
584.745	44.99
585.083	45.36
585.422	45.33
585.761	45.47
586.1	45.14
586.438	45.01
586.777	45.32
587.115	45.63
587.454	45.73
587.792	45.56
588.13	45.6
588.469	45.49
588.807	45.77
589.145	45.72
589.483	46.03
589.821	45.82
590.159	45.84
590.497	46.01
590.835	45.67
591.173	46.01
591.511	46.33
591.849	46.1
592.187	46
592.524	46.25
592.862	46.39
593.2	46.55
593.537	46.34
593.875	46.32
594.212	46.59
594.55	46.4
594.887	46.73
595.224	46.49
595.561	46.9
595.899	46.79
596.236	46.63
596.573	47.02
596.91	47.07
597.247	46.8
597.584	47.3
597.921	47.05
598.258	47.26
598.594	47.25
598.931	46.78
599.268	46.82
599.604	47.21
599.941	46.89
600.277	46.94
600.614	46.89
600.95	47.3
601.287	47.35
601.623	47.64
601.959	48.05
602.296	47.72
602.632	47.61
602.968	47.7
603.304	47.81
603.64	47.79
603.976	48
604.312	47.78
604.648	48.01
604.984	47.98
605.319	48.18
605.655	47.82
605.991	48.05
606.326	47.82
606.662	47.61
606.998	47.86
607.333	47.77
607.668	48.07
608.004	48.12
608.339	48.15
608.674	48.13
609.01	48.5
609.345	48.38
609.68	48.77
610.015	48.43
610.35	48.71
610.685	48.81
611.02	48.58
611.355	48.8
611.689	48.49
612.024	48.98
612.359	48.92
612.694	48.8
613.028	48.77
613.363	49.13
613.697	48.87
614.032	49.51
614.366	49.35
614.7	49.57
615.035	49.7
615.369	49.7
615.703	49.78
616.037	49.92
616.371	49.33
616.705	49.89
617.039	49.61
617.373	50.11
617.707	50.21
618.041	50.28
618.375	50
618.709	50.22
619.042	50.63
619.376	50.1
619.71	50.55
620.043	50.36
620.377	50.47
620.71	50.56
621.043	50.28
621.377	50.5
621.71	50.63
622.043	50.36
622.376	50.99
622.709	50.64
623.043	50.87
623.376	50.96
623.709	51.08
624.041	50.49
624.374	50.97
624.707	50.98
625.04	51.17
625.373	51.27
625.705	51.52
626.038	51.37
626.37	51.01
626.703	51.04
627.035	51.56
627.368	51.66
627.7	51.3
628.032	51.56
628.365	51.76
628.697	51.41
629.029	51.32
629.361	51.2
629.693	51.17
630.025	51.14
630.357	51.21
630.689	51.46
631.021	51.73
631.353	51.56
631.684	51.77
632.016	52.14
632.348	52.33
632.679	52.08
633.011	52.21
633.342	51.95
633.674	51.97
634.005	51.99
634.336	52.26
634.668	52.3
634.999	52.56
635.33	52.56
635.661	52.54
635.992	52.47
636.323	52.73
636.654	52.58
636.985	52.17
637.316	52.49
637.647	52.65
637.977	52.34
638.308	53.09
638.639	52.69
638.969	52.73
639.3	52.81
639.63	52.64
639.961	53.22
640.291	53.06
640.622	53.33
640.952	52.92
641.282	53.34
641.612	53.36
641.943	53.16
642.273	53.53
642.603	53.25
642.933	54.16
643.263	53.62
643.592	53.28
643.922	53.87
644.252	53.8
644.582	54.02
644.911	54.08
645.241	53.74
645.571	54.26
645.9	53.77
646.23	54.11
646.559	53.89
646.888	54
647.218	54.12
647.547	53.98
647.876	54.65
648.205	54.2
648.534	54.23
648.863	53.88
649.192	54.44
649.521	54.85
649.85	54.22
650.179	54.05
650.508	54.35
650.837	54.51
651.165	54.65
651.494	54.65
651.822	55.4
652.151	55.08
652.479	55.16
652.808	55.58
653.136	54.76
653.465	55.05
653.793	54.88
654.121	55.11
654.449	54.84
654.777	55.12
655.105	55.42
655.433	54.73
655.761	55
656.089	55.52
656.417	55.39
656.745	54.97
657.073	55.28
657.4	56.03
657.728	55.58
658.056	55.79
658.383	55.18
658.711	55.42
659.038	55.66
659.365	55.65
659.693	55.59
660.02	55.79
660.347	55.39
660.674	56.12
661.001	55.87
661.329	55.75
661.656	55.3
661.982	55.69
662.309	55.91
662.636	55.76
662.963	56.31
663.29	56.24
663.616	56
663.943	56.14
664.27	56.14
664.596	56.61
664.923	56.33
665.249	56.43
665.576	56.44
665.902	57.4
666.228	56.64
666.554	56.83
666.881	56.9
667.207	56.82
667.533	56.85
667.859	57.01
668.185	57.22
668.511	55.78
668.837	56.97
669.162	57.55
669.488	56.77
669.814	56.47
670.139	56.72
670.465	57.07
670.791	57.58
671.116	57.05
671.442	57.34
671.767	56.59
672.092	58.05
672.418	57.52
672.743	57.33
673.068	57.81
673.393	58.45
673.718	57.24
674.043	57.26
674.368	57.15
674.693	58.01
675.018	58.3
675.343	57.38
675.667	57.66
675.992	58.24
676.317	58.18
676.641	58.27
676.966	58.19
677.29	57.62
677.615	58.34
677.939	58.22
678.264	57.34
678.588	57.41
678.912	57.68
679.236	58.1
679.56	58.42
679.885	58.56
680.209	57.82
680.532	57.19
680.856	58.02
681.18	57.95
681.504	58.04
681.828	57.96
682.152	57.92
682.475	58.74
682.799	57.75
683.122	58.64
683.446	58.56
683.769	58.76
684.093	58.29
684.416	58.61
684.739	58.9
685.062	58.24
685.386	58.42
685.709	59.21
686.032	59.57
686.355	59.39
686.678	58.55
687.001	59.6
687.324	58.15
687.646	58.63
687.969	58.93
688.292	58.98
688.614	58.43
688.937	59.19
689.26	59.12
689.582	59.56
689.904	59.35
690.227	58.88
690.549	58.58
690.871	60.39
691.194	59.66
691.516	60.18
691.838	59.47
692.16	59.43
692.482	60.04
692.804	59.91
693.126	58.94
693.448	59.54
693.769	59.32
694.091	59.91
694.413	59.03
694.735	60.35
695.056	60.06
695.378	60.33
695.699	60.53
696.021	60.64
696.342	60.44
696.663	59.54
696.984	59.98
697.306	59.77
697.627	60.05
697.948	60.14
698.269	60.47
698.59	60.27
698.911	60.86
699.232	60.22
699.553	59.93
699.873	60.37
700.194	60.94
700.515	60.11
700.835	61.25
701.156	60.41
701.477	60.19
701.797	60.46
702.117	60.32
702.438	60.77
702.758	59.32
703.078	60.18
703.398	61.25
703.719	60.67
704.039	60.31
704.359	60.41
704.679	61.49
704.999	60.89
705.319	61.91
705.638	61.56
705.958	60.66
706.278	61.35
706.597	62.04
706.917	61.1
707.237	62.2
707.556	60.44
707.876	61.53
708.195	61.03
708.514	60.63
708.834	61.52
709.153	61.01
709.472	61.63
709.791	63
710.11	62.19
710.429	61.06
710.748	61.34
711.067	62.19
711.386	59.87
711.705	61.56
712.023	63.04
712.342	62.04
712.661	62.01
712.979	62.4
713.298	62.44
713.616	61.4
713.935	62.7
714.253	61.09
714.572	61.37
714.89	62.07
715.208	61.9
715.526	63.09
715.844	61.66
716.162	61.79
716.48	61.35
716.798	62.87
717.116	62.12
717.434	62.4
717.752	63.03
718.069	62.36
718.387	61.82
718.705	62.71
719.022	63.42
719.34	62.05
719.657	62.4
719.975	63.07
720.292	61.58
720.609	62.73
720.927	63.15
721.244	62.75
721.561	62.52
721.878	62.61
722.195	62.44
722.512	63.15
722.829	62.78
723.146	62.45
723.463	61.76
723.779	62.42
724.096	63.29
724.413	63.42
724.729	63.19
725.046	63.48
725.362	63.8
725.679	63.14
725.995	63.47
726.311	63.8
726.628	61.61
726.944	63.89
727.26	64.57
727.576	63.17
727.892	62.9
728.208	62.21
728.524	64.17
728.84	63.06
729.156	62.98
729.472	63.66
729.787	62.95
730.103	64.88
730.419	63.99
730.734	63.08
731.05	64.02
731.365	65.21
731.681	62.62
731.996	63.64
732.311	64
732.626	63.1
732.942	63.62
733.257	63.71
733.572	64.63
733.887	64.31
734.202	65.58
734.517	64.14
734.832	65.19
735.146	64.44
735.461	65.53
735.776	63.11
736.091	64.37
736.405	63.98
736.72	64
737.034	64.31
737.349	64.89
737.663	64.72
737.977	65.4
738.292	64.29
738.606	62.58
738.92	63.8
739.234	63.55
739.548	65.02
739.862	64.48
740.176	65.42
740.49	64.99
740.804	65.05
741.117	64.93
741.431	63.78
741.745	65.91
742.058	66.3
742.372	66.17
742.685	64.74
742.999	65.39
743.312	64.22
743.626	64.57
743.939	67.17
744.252	63.86
744.565	66.22
744.878	64.18
745.191	68.61
745.505	65.95
745.817	65.46
746.13	63.5
746.443	65.15
746.756	65.62
747.069	65.52
747.381	64.22
747.694	68.4
748.007	66.2
748.319	65.08
748.632	64.94
748.944	66.81
749.256	66.92
749.569	63.82
749.881	65.5
750.193	64.56
750.505	65.51
750.817	65.31
751.129	63.17
751.441	63.59
751.753	64.96
752.065	66.88
752.377	67.84
752.689	64.23
753	67.3
753.312	65.34
753.624	65.86
753.935	65.42
754.247	65.58
754.558	65.82
754.869	66.59
755.181	66.47
755.492	67.5
755.803	65.91
756.114	66.64
756.425	66.04
756.736	66.55
757.047	66.42
757.358	65.96
757.669	63.75
757.98	66.34
758.291	66.11
758.601	65.84
758.912	64.89
759.223	64.72
759.533	68.19
759.844	66.87
760.154	65.2
760.464	67.03
760.775	66.76
761.085	65.22
761.395	66.23
761.705	67.17
762.016	66.56
762.326	66.73
762.636	67.58
762.945	66.24
763.255	66.76
763.565	67.06
763.875	67.64
764.185	65.26
764.494	66.43
764.804	66.93
765.113	67.17
765.423	67.9
765.732	66.76
766.042	67.38
766.351	67.54
766.66	66.95
766.97	66.27
767.279	68.5
767.588	65.51
767.897	68.04
768.206	66.57
768.515	67.22
768.824	67.07
769.133	67.93
769.441	66.6
769.75	69.36
770.059	67.78
770.367	70.31
770.676	67.47
770.984	65.66
771.293	68.28
771.601	65.66
771.91	66.18
772.218	67.73
772.526	67.34
772.834	67.9
773.142	66.9
773.45	66.51
773.758	69
774.066	66.49
774.374	69.44
774.682	66.77
774.99	65.58
775.298	66.65
775.605	68.5
775.913	65.71
776.22	65.06
776.528	68.53
776.835	69.03
777.143	65.52
777.45	67.69
777.757	65.96
778.065	67.21
778.372	69.98
778.679	69.66
778.986	70.04
779.293	69.04
779.6	70.34
779.907	67.46
780.214	69.55
780.52	68.88
780.827	67.43
781.134	68.48
781.44	69.14
781.747	69.51
782.053	68.29
782.36	70.12
782.666	66
782.973	68.18
783.279	67.76
783.585	66.2
783.891	64.99
784.197	67.36
784.503	65.92
784.809	65.65
785.115	67.91
785.421	67.94
785.727	70.15
786.033	70.72
786.339	66.08
786.644	66.72
786.95	69.8
787.255	65.26
787.561	70.07
787.866	68.79
788.172	71.83
788.477	65.82
788.782	68.18
789.088	68.98
789.393	69.14
789.698	65.2
790.003	66.69
790.308	70.83
790.613	66.77
790.918	73.04
791.223	72
791.527	69.6
791.832	69.75
792.137	68.59
792.441	71.2
792.746	70.29
793.05	68.44
793.355	67.38
793.659	68.02
793.963	68.33
794.268	71.84
794.572	68.42
794.876	66.87
795.18	64.39
795.484	65.4
795.788	68.72
796.092	67.75
796.396	68.54
796.7	68.28
797.004	69.93
797.307	71.12
797.611	67.63
797.915	69.26
798.218	68.92
798.522	68.08
798.825	70.69
799.128	67.69
799.432	75.24
799.735	71.91
800.038	69.03
800.341	67.21
800.644	70.23
800.947	69.24
801.25	66.91
801.553	67.01
801.856	70.88
802.159	72.18
802.462	68.29
802.764	65.4
803.067	67.91
803.37	73.61
803.672	65.69
803.975	72.35
804.277	67.29
804.579	69.15
804.882	70.77
805.184	66.45
805.486	70.21
805.788	71.93
806.09	69.39
806.392	74.05
806.694	68.19
806.996	72.65
807.298	65.47
807.6	69.15
807.902	72.97
808.203	71.23
808.505	71.71
808.807	72.94
809.108	72.01
809.409	72.2
809.711	66.57
810.012	69.68
810.313	68.91
810.615	68.82
810.916	68.2
811.217	73.14
811.518	70.72
811.819	66.32
812.12	71.39
812.421	68.97
812.722	70.83
813.023	75.62
813.323	69.94
813.624	66.6
813.925	66.54
814.225	75.3
814.526	69.97
814.826	66.62
815.126	74.13
815.427	72.18
815.727	73.69
816.027	72.09
816.327	75.12
816.627	69.91
816.927	72.47
817.227	68.02
817.527	70.3
817.827	71.18
818.127	62.75
818.427	69.94
818.727	67.4
819.026	78.12
819.326	67.7
819.625	65.93
819.925	72.3
820.224	71.99
820.524	70.88
820.823	72.63
821.122	68.71
821.421	68.67
821.72	76.01
822.019	71.99
822.318	69.3
822.617	68.3
822.916	68.82
823.215	66.2
823.514	72.97
823.813	70.13
824.111	69.15
824.41	70.7
824.709	73.53
825.007	72.81
825.306	72.51
825.604	73.82
825.902	73.07
826.201	72.09
826.499	72.16
826.797	71.51
827.095	71.34
827.393	71.41
827.691	71.66
827.989	72.46
828.287	72.77
828.585	72.87
828.882	71.57
829.18	73.79
829.478	72.28
829.775	71.5
830.073	72.85
830.37	73.77
830.668	71.28
830.965	74.16
831.263	74.63
831.56	73.81
831.857	71.63
832.154	71.88
832.451	72.32
832.748	72.47
833.045	73.76
833.342	69.09
833.639	71.45
833.936	71.32
834.232	74.11
834.529	73.37
834.826	71.59
835.122	67.31
835.419	72.02
835.715	70.53
836.012	69.52
836.308	72.1
836.604	73.35
836.901	73.06
837.197	71.69
837.493	75.34
837.789	68.82
838.085	72.97
838.381	71.32
838.677	72.94
838.972	71.35
839.268	72.74
839.564	71.86
839.86	70.83
840.155	74.74
840.451	72.4
840.746	80.94
841.042	75.59
841.337	76.16
841.632	72.91
841.928	68.78
842.223	67.59
842.518	64.4
842.813	64.55
843.108	70.4
843.403	69.72
843.698	80.54
843.993	74.23
844.287	65.87
844.582	70.45
844.877	71.66
845.171	75.89
845.466	61.41
845.761	62.47
846.055	68.14
846.349	75.81
846.644	69.77
846.938	68.85
847.232	74.56
847.526	68.61
847.82	64.68
848.114	72.64
848.408	66.3
848.702	53.77
848.996	60.22
849.29	74.32
849.584	63.57
849.877	80.9
850.171	84.01
850.465	50.53
850.758	66.27
851.052	70.11
851.345	70.02
851.638	66.2
851.932	67.82
852.225	61.81
852.518	77.26
852.811	63.61
853.104	79.05
853.397	82.73
853.69	71.71
853.983	66.46
854.276	47.57
854.569	61.12
854.861	61.06
855.154	68.9
855.447	84.88
855.739	71.82
856.032	60.1
856.324	66.18
856.616	87.47
856.909	71.96
857.201	70.43
857.493	75.67
857.785	76.23
858.077	73.55
858.369	83.37
858.661	63.88
858.953	72.34
859.245	58.93
859.537	79.3
859.829	79.54
860.12	86.43
860.412	77.25
860.703	76.14
860.995	68.81
861.286	68.86
861.578	79.24
861.869	73.86
862.16	51.59
862.452	54.33
862.743	57.78
863.034	47.91
863.325	78.55
863.616	64.69
863.907	78.84
864.198	70.94
864.488	76.47
864.779	89.24
865.07	60.96
865.36	55.22
865.651	56.07
865.941	61.61
866.232	61.94
866.522	68.91
866.813	76.58
867.103	49.8
867.393	85.87
867.683	57.22
867.973	77.42
868.263	87.01
868.553	69.81
868.843	52.66
869.133	80.66
869.423	55.23
869.713	72.05
870.002	74.38
870.292	84.45
870.582	77.11
870.871	50.46
871.161	68.46
871.45	53.91
871.739	62.54
872.029	68.06
872.318	73.97
872.607	76.38
872.896	63.9
873.185	93.07
873.474	84.38
873.763	77.27
874.052	68.3
874.341	61.05
874.63	85.99
874.918	90.47
875.207	57.16
875.496	35.26
875.784	50.06
876.073	50.84
876.361	82.3
876.649	88.09
876.938	68.17
877.226	59.69
877.514	70.41
877.802	43
878.09	79.56
878.378	65.06
878.666	43.06
878.954	73.83
879.242	88.58
879.53	79.51
879.817	84.48
880.105	68.94
880.392	67.01
880.68	70.4
880.967	55.79
881.255	67.66
881.542	66.19
881.83	91.03
882.117	72.04
882.404	78.99
882.691	70.58
882.978	57.53
883.265	68.74
883.552	76.14
883.839	54.88
884.126	79.86
884.413	83.5
884.699	62
884.986	64.55
885.273	75.83
885.559	75.83
885.846	75.83
