Data from 0399_forehead_Reflection__0__210.txt Node

Date: Fri Dec 15 18:19:56 CST 2023
User: ToomeyLab
Spectrometer: FLMS14357
Trigger mode: 0
Integration Time (sec): 1.000000E-2
Scans to average: 100
Electric dark correction enabled: true
Nonlinearity correction enabled: false
Boxcar width: 0
XAxis mode: Wavelengths
Number of Pixels in Spectrum: 2048
>>>>>Begin Spectral Data<<<<<
189.047	635.12
189.435	635.12
189.823	635.12
190.211	256.81
190.599	610.48
190.987	134.31
191.375	102.72
191.763	-96.19
192.151	-136.23
192.538	71.84
192.926	491.1
193.314	92.95
193.702	864.04
194.089	27.43
194.477	-46.16
194.864	-47.79
195.252	86.53
195.639	62.23
196.027	118.21
196.414	39.04
196.801	291.87
197.189	20.22
197.576	277.98
197.963	-87.32
198.351	-57.51
198.738	3.08
199.125	38.31
199.512	-31.6
199.899	35.73
200.286	-12.38
200.673	-1.15
201.06	30.12
201.447	5.82
201.833	0.05
202.22	63.92
202.607	37.52
202.994	0.06
203.38	-3.44
203.767	32.86
204.154	13.66
204.54	57
204.927	6.87
205.313	28.34
205.699	40.11
206.086	40.75
206.472	7.77
206.858	17.36
207.245	3.89
207.631	36.42
208.017	-4.43
208.403	36.18
208.789	13.22
209.175	19.53
209.561	26.48
209.947	-7.73
210.333	27.8
210.719	20.52
211.105	47
211.491	-4.91
211.876	25.11
212.262	36.01
212.648	30.73
213.034	38.53
213.419	-5.07
213.805	4.86
214.19	-24.87
214.576	13.21
214.961	-49.37
215.346	-58.52
215.732	23.71
216.117	34.69
216.502	-6.52
216.888	23
217.273	13.41
217.658	-5.91
218.043	5.7
218.428	1.22
218.813	-5.41
219.198	-6.97
219.583	26.57
219.968	28.36
220.353	-13.78
220.738	23.63
221.122	-28.4
221.507	21.9
221.892	-26.03
222.276	-17.98
222.661	14.34
223.046	19.34
223.43	16.28
223.815	-3.59
224.199	11.12
224.583	5.32
224.968	7.98
225.352	13.59
225.736	-0.53
226.121	-0.94
226.505	6.6
226.889	17.07
227.273	5.28
227.657	13.14
228.041	3.79
228.425	6.46
228.809	10.71
229.193	5.82
229.577	5.99
229.961	4.51
230.344	4.77
230.728	4.61
231.112	5.33
231.495	5.39
231.879	4.82
232.263	5.6
232.646	5.09
233.03	6.19
233.413	3.96
233.797	4.04
234.18	5.89
234.563	2.73
234.946	3.51
235.33	7.57
235.713	6.05
236.096	3.7
236.479	7.48
236.862	2.6
237.245	7.82
237.628	3.87
238.011	6.32
238.394	6.02
238.777	4.13
239.16	3.88
239.543	5.76
239.925	7.47
240.308	4.62
240.691	5.34
241.073	5.37
241.456	3.92
241.838	4.91
242.221	4.02
242.603	5.83
242.986	5.23
243.368	5.18
243.75	3.92
244.133	4.33
244.515	4.8
244.897	4.96
245.279	4.83
245.661	4.33
246.043	3.13
246.425	3.05
246.807	5.59
247.189	4.63
247.571	4.52
247.953	4.64
248.335	4.16
248.717	4.84
249.098	4.46
249.48	4.78
249.862	4.22
250.243	4.62
250.625	4.83
251.006	4.58
251.388	3.32
251.769	4.6
252.151	5.55
252.532	5.61
252.913	4.42
253.295	3.86
253.676	4.29
254.057	4.87
254.438	4.76
254.819	4.37
255.2	3.81
255.581	4.57
255.962	2.99
256.343	4.93
256.724	4.5
257.105	5.2
257.486	3.16
257.867	3.65
258.247	5.25
258.628	3.67
259.009	3.84
259.389	4.51
259.77	4.32
260.15	3.25
260.531	3.83
260.911	4.96
261.292	4.07
261.672	4.36
262.052	4.41
262.432	4.6
262.813	4.67
263.193	4.62
263.573	4.2
263.953	3.47
264.333	4.25
264.713	4.08
265.093	3.3
265.473	4.47
265.853	4.01
266.233	5.45
266.612	1.64
266.992	3.58
267.372	3.73
267.752	3.53
268.131	4.01
268.511	4.61
268.89	5.3
269.27	4.09
269.649	4.24
270.029	4.5
270.408	4.89
270.787	4.59
271.167	4.48
271.546	4.94
271.925	3.8
272.304	3.77
272.683	5.18
273.062	4.13
273.441	4.54
273.82	3.84
274.199	4.1
274.578	4.08
274.957	3.81
275.336	4.17
275.715	3.77
276.093	3.56
276.472	4.73
276.851	3.64
277.229	4.19
277.608	3.82
277.986	3.83
278.365	4.27
278.743	4.14
279.122	4.22
279.5	4.64
279.878	4.83
280.257	4.22
280.635	3.7
281.013	4.14
281.391	4.98
281.769	4.46
282.147	4.54
282.525	4.82
282.903	3.73
283.281	4.06
283.659	4.34
284.037	4.11
284.415	4.7
284.792	4.47
285.17	3.54
285.548	3.67
285.925	4.6
286.303	4.36
286.68	4.16
287.058	4.09
287.435	4.04
287.813	4.22
288.19	4.29
288.567	3.93
288.945	4.8
289.322	4.08
289.699	4.34
290.076	3.68
290.453	4.78
290.83	4.2
291.207	3.97
291.584	4.41
291.961	4.33
292.338	3.94
292.715	4.67
293.092	4.39
293.469	3.98
293.845	4.69
294.222	4.04
294.599	4.17
294.975	4.39
295.352	4.43
295.728	3.65
296.105	3.94
296.481	4.55
296.858	4.26
297.234	4.11
297.61	4.38
297.986	4.2
298.363	4.49
298.739	4.59
299.115	4.46
299.491	4.18
299.867	4.55
300.243	4.61
300.619	4.3
300.995	4.79
301.371	4.55
301.746	4.17
302.122	5.08
302.498	5.53
302.874	4.83
303.249	4.59
303.625	4.91
304	5.17
304.376	4.55
304.751	4.35
305.127	5.28
305.502	4.43
305.878	4.16
306.253	5
306.628	5.45
307.003	4.72
307.378	5.22
307.754	4.89
308.129	4.28
308.504	5.15
308.879	4.51
309.254	5.49
309.629	5.71
310.003	4.92
310.378	5.32
310.753	5.2
311.128	5.55
311.502	5.49
311.877	5.43
312.252	5.02
312.626	5.16
313.001	5.4
313.375	5.78
313.75	4.83
314.124	5.6
314.498	5.68
314.873	5.37
315.247	5.3
315.621	5.66
315.995	4.96
316.369	5.72
316.743	5.73
317.117	6.52
317.491	5.87
317.865	5.42
318.239	5.84
318.613	6.12
318.987	5.82
319.361	5.23
319.734	6.42
320.108	5.94
320.482	5.94
320.855	6.29
321.229	6.15
321.602	5.46
321.976	6.53
322.349	5.84
322.723	6.21
323.096	6.75
323.469	6.13
323.843	5.98
324.216	6.46
324.589	5.99
324.962	6.72
325.335	6.42
325.708	6.2
326.081	6.18
326.454	6.07
326.827	6.87
327.2	6.02
327.573	6.84
327.945	6.85
328.318	6.21
328.691	5.89
329.063	6.67
329.436	6.64
329.809	6.98
330.181	6.41
330.553	6.56
330.926	6.73
331.298	6.89
331.671	6.97
332.043	7.24
332.415	6.88
332.787	6.97
333.159	8.21
333.532	7.23
333.904	6.79
334.276	6.93
334.648	6.85
335.02	7.09
335.391	6.78
335.763	6.76
336.135	7.33
336.507	7
336.879	7.25
337.25	7.47
337.622	7.46
337.993	7.04
338.365	7.61
338.736	7.81
339.108	7.35
339.479	7.55
339.851	7.44
340.222	7.66
340.593	6.69
340.964	6.66
341.336	8.03
341.707	7.04
342.078	7.65
342.449	7.88
342.82	7.21
343.191	7.56
343.562	7.58
343.933	7.58
344.303	7.75
344.674	7.77
345.045	7.52
345.416	8.3
345.786	7.74
346.157	7.55
346.527	7.19
346.898	7.72
347.268	7.82
347.639	7.96
348.009	8.04
348.38	7.5
348.75	7.83
349.12	7.98
349.49	8.59
349.861	8.13
350.231	7.57
350.601	8.45
350.971	8.92
351.341	8.25
351.711	7.9
352.081	8.39
352.45	8.33
352.82	8.34
353.19	8.37
353.56	8.26
353.929	8.21
354.299	8.04
354.669	7.95
355.038	8.53
355.408	8.03
355.777	8.38
356.147	8.19
356.516	8.43
356.885	8.35
357.254	8.36
357.624	8.89
357.993	8.67
358.362	8.61
358.731	9.03
359.1	8.64
359.469	8.77
359.838	8.95
360.207	8.59
360.576	8.36
360.945	8.6
361.314	9.24
361.682	8.24
362.051	8.81
362.42	8.67
362.788	8.83
363.157	8.93
363.525	9
363.894	9.06
364.262	9.15
364.631	9.04
364.999	9.19
365.367	8.74
365.735	9.69
366.104	9.38
366.472	9.1
366.84	8.93
367.208	9.01
367.576	9.25
367.944	9.09
368.312	9.23
368.68	9.07
369.048	9.29
369.416	9.19
369.783	9.27
370.151	9.64
370.519	10.02
370.886	9.92
371.254	9.55
371.621	10.09
371.989	9.9
372.356	9.48
372.724	9.5
373.091	9.81
373.458	9.54
373.826	9.5
374.193	9.43
374.56	10.17
374.927	9.92
375.294	9.96
375.661	9.68
376.028	9.6
376.395	10.01
376.762	10.14
377.129	9.76
377.496	9.58
377.863	10.13
378.229	10
378.596	10.05
378.963	10.06
379.329	9.72
379.696	10.55
380.062	10.5
380.429	10.39
380.795	9.92
381.161	10.81
381.528	10.47
381.894	10.52
382.26	10.2
382.626	10.22
382.993	10.36
383.359	10.53
383.725	10.56
384.091	10.5
384.457	11.01
384.823	10.42
385.188	10.59
385.554	10.74
385.92	10.7
386.286	10.91
386.651	10.95
387.017	11.03
387.383	10.7
387.748	10.97
388.114	11.09
388.479	10.96
388.845	11.48
389.21	11.07
389.575	11.2
389.94	11.04
390.306	11.4
390.671	11.18
391.036	10.84
391.401	11.05
391.766	11.29
392.131	10.78
392.496	11.44
392.861	11.33
393.226	11.46
393.591	11.49
393.956	11.09
394.32	11.47
394.685	11.27
395.05	11.77
395.414	11.53
395.779	11.25
396.143	11.65
396.508	11.28
396.872	11.77
397.236	11.52
397.601	11.34
397.965	11.82
398.329	11.71
398.694	11.83
399.058	11.83
399.422	11.53
399.786	12.18
400.15	11.92
400.514	11.85
400.878	12.11
401.242	12.07
401.605	12.39
401.969	11.97
402.333	12.28
402.697	12.08
403.06	12.09
403.424	12.13
403.787	12.13
404.151	12.36
404.514	12.3
404.878	12.17
405.241	12.12
405.604	12.36
405.968	12.35
406.331	12.19
406.694	12.46
407.057	12.24
407.42	12.83
407.783	12.22
408.146	12.68
408.509	12.54
408.872	12.15
409.235	12.68
409.598	12.84
409.961	12.65
410.323	12.68
410.686	12.66
411.049	12.63
411.411	12.69
411.774	12.84
412.136	12.54
412.499	12.69
412.861	12.65
413.223	12.78
413.586	12.87
413.948	12.91
414.31	12.87
414.672	12.91
415.035	12.88
415.397	13.16
415.759	12.75
416.121	13.17
416.483	13.18
416.845	13.08
417.206	12.97
417.568	13.21
417.93	13.03
418.292	13.21
418.653	13.26
419.015	13.2
419.377	13.21
419.738	13.28
420.1	13.26
420.461	13.19
420.822	13.36
421.184	13.32
421.545	13.33
421.906	13.2
422.267	13.31
422.629	13.16
422.99	13.21
423.351	13.21
423.712	13.43
424.073	13.45
424.434	13.58
424.795	13.62
425.155	13.62
425.516	13.52
425.877	13.38
426.238	13.64
426.598	13.73
426.959	13.75
427.32	13.93
427.68	13.96
428.041	14.01
428.401	14.2
428.761	14.2
429.122	14.22
429.482	14.31
429.842	14.41
430.202	14.3
430.563	14.44
430.923	14.28
431.283	14.61
431.643	14.38
432.003	14.21
432.363	14.53
432.722	14.61
433.082	14.56
433.442	14.8
433.802	14.63
434.161	14.56
434.521	14.73
434.881	14.81
435.24	14.67
435.6	14.71
435.959	14.73
436.319	14.85
436.678	15.01
437.037	15.01
437.396	15.09
437.756	15.37
438.115	15.04
438.474	15.25
438.833	15.02
439.192	15.05
439.551	15.49
439.91	15.14
440.269	15.11
440.628	15.22
440.987	15.17
441.345	15.12
441.704	15.31
442.063	15.35
442.421	15.2
442.78	15.22
443.138	15.5
443.497	15.39
443.855	15.58
444.214	15.49
444.572	15.6
444.93	15.69
445.288	15.6
445.647	15.9
446.005	15.75
446.363	15.79
446.721	15.82
447.079	15.68
447.437	15.84
447.795	15.84
448.153	15.64
448.51	15.78
448.868	15.88
449.226	15.91
449.584	15.9
449.941	16.11
450.299	16.21
450.656	16.29
451.014	16.29
451.371	16.15
451.729	16.28
452.086	16.55
452.443	16.55
452.801	16.6
453.158	16.63
453.515	16.55
453.872	16.9
454.229	16.48
454.586	16.48
454.943	16.76
455.3	17.02
455.657	16.77
456.014	16.87
456.371	16.82
456.727	16.83
457.084	17.42
457.441	17.06
457.797	16.95
458.154	17.17
458.51	17.2
458.867	17.18
459.223	17.34
459.58	17.17
459.936	16.99
460.292	17.18
460.648	17.09
461.005	17.12
461.361	17.02
461.717	16.99
462.073	17.03
462.429	17.25
462.785	17.6
463.141	17.56
463.496	17.71
463.852	17.76
464.208	17.67
464.564	17.73
464.919	17.68
465.275	17.74
465.631	17.95
465.986	18
466.342	17.81
466.697	17.81
467.052	18.04
467.408	18.15
467.763	18.17
468.118	18.28
468.473	18.04
468.829	18.3
469.184	18.25
469.539	18.29
469.894	18.31
470.249	18.34
470.603	18.55
470.958	18.43
471.313	18.75
471.668	18.51
472.023	18.72
472.377	18.49
472.732	18.8
473.086	18.71
473.441	18.66
473.795	18.93
474.15	18.68
474.504	18.86
474.859	18.82
475.213	18.57
475.567	19.04
475.921	19.18
476.275	19.15
476.63	19.01
476.984	19.17
477.338	19.35
477.692	19.07
478.045	19.17
478.399	19.21
478.753	19.34
479.107	19.32
479.461	19.13
479.814	19.32
480.168	19.2
480.521	19.22
480.875	19.4
481.228	19.36
481.582	19.53
481.935	19.55
482.289	19.63
482.642	19.73
482.995	19.48
483.348	19.32
483.701	19.41
484.055	19.44
484.408	19.24
484.761	19.05
485.114	18.69
485.466	18.29
485.819	18.34
486.172	18.58
486.525	19.03
486.878	19.24
487.23	19.47
487.583	19.54
487.936	19.68
488.288	19.6
488.641	19.46
488.993	19.15
489.345	19.13
489.698	19.16
490.05	19.27
490.402	19.54
490.754	19.78
491.107	19.99
491.459	20.16
491.811	20.22
492.163	20.27
492.515	20.23
492.866	20.17
493.218	19.68
493.57	19.56
493.922	19.77
494.274	20.16
494.625	20.48
494.977	20.67
495.328	21
495.68	21.03
496.031	20.94
496.383	20.92
496.734	21.33
497.086	21.28
497.437	21.14
497.788	21
498.139	21.08
498.49	21
498.842	20.93
499.193	21.22
499.544	21.31
499.894	21.25
500.245	21.39
500.596	21.38
500.947	21.61
501.298	21.59
501.648	21.64
501.999	21.86
502.35	21.84
502.7	21.92
503.051	21.84
503.401	21.82
503.752	21.97
504.102	22.01
504.452	22.03
504.803	22.04
505.153	22.24
505.503	22.1
505.853	22.11
506.203	22.25
506.553	22.03
506.903	22.1
507.253	22.21
507.603	22.47
507.953	22.52
508.303	22.58
508.652	22.49
509.002	22.64
509.352	22.34
509.701	22.37
510.051	22.38
510.4	22.3
510.75	22.43
511.099	22.41
511.449	22.54
511.798	22.48
512.147	22.63
512.496	22.72
512.846	22.76
513.195	22.72
513.544	22.81
513.893	22.96
514.242	22.69
514.591	23.1
514.939	22.98
515.288	22.87
515.637	23.18
515.986	23.17
516.334	23.34
516.683	23.32
517.032	23.37
517.38	23.43
517.729	23.49
518.077	23.49
518.426	23.54
518.774	23.4
519.122	23.22
519.47	23.45
519.819	23.24
520.167	23.23
520.515	22.99
520.863	23.2
521.211	23.33
521.559	23.44
521.907	23.52
522.255	23.78
522.602	23.74
522.95	23.93
523.298	23.9
523.645	24.09
523.993	24.17
524.341	24.34
524.688	24.27
525.036	24.23
525.383	24.15
525.73	24.39
526.078	24.09
526.425	24.24
526.772	24.12
527.119	23.95
527.466	23.77
527.814	23.78
528.161	23.88
528.508	24.2
528.854	24.12
529.201	23.98
529.548	23.89
529.895	23.71
530.242	23.19
530.588	23.02
530.935	23.4
531.282	23.79
531.628	23.94
531.975	24.26
532.321	24.35
532.667	24.59
533.014	24.7
533.36	24.79
533.706	24.67
534.052	24.71
534.399	24.53
534.745	24.27
535.091	24.1
535.437	24.24
535.783	24.68
536.129	24.87
536.474	25.01
536.82	25.17
537.166	25.36
537.512	25.43
537.857	25.17
538.203	25.08
538.549	24.91
538.894	25.1
539.239	25.16
539.585	25.5
539.93	25.69
540.276	25.96
540.621	26.03
540.966	25.85
541.311	25.78
541.656	25.78
542.001	25.7
542.346	25.72
542.691	25.31
543.036	25.03
543.381	24.9
543.726	25.17
544.071	25.57
544.415	25.73
544.76	25.78
545.105	25.84
545.449	25.88
545.794	26.3
546.138	26.32
546.483	26.41
546.827	26.51
547.171	26.41
547.516	26.52
547.86	26.55
548.204	26.44
548.548	26.41
548.892	26.57
549.236	26.65
549.58	26.81
549.924	26.91
550.268	27.24
550.612	27.04
550.956	27.3
551.3	27.64
551.643	27.54
551.987	27.7
552.33	27.43
552.674	27.73
553.017	27.58
553.361	27.63
553.704	27.82
554.048	27.67
554.391	27.55
554.734	27.52
555.077	27.83
555.42	27.6
555.764	27.78
556.107	27.59
556.45	28.02
556.793	28.07
557.135	28.28
557.478	28.45
557.821	28.4
558.164	28.37
558.507	28.32
558.849	28.36
559.192	28.43
559.534	28.79
559.877	28.67
560.219	28.69
560.562	28.81
560.904	28.78
561.246	28.78
561.589	28.89
561.931	28.99
562.273	28.97
562.615	28.98
562.957	29.12
563.299	29.03
563.641	28.73
563.983	28.97
564.325	28.78
564.667	28.85
565.008	29.16
565.35	29.26
565.692	28.97
566.033	29.3
566.375	29.22
566.716	29.28
567.058	29.18
567.399	29.13
567.741	29.07
568.082	29.19
568.423	28.95
568.764	29.26
569.105	29.46
569.447	29.71
569.788	29.55
570.129	29.64
570.47	29.73
570.811	29.89
571.151	29.89
571.492	29.69
571.833	29.71
572.174	29.93
572.514	29.94
572.855	30
573.195	29.89
573.536	29.62
573.876	29.66
574.217	29.71
574.557	29.86
574.898	30.21
575.238	30.16
575.578	30.23
575.918	30.3
576.258	30.35
576.598	30.42
576.938	30.23
577.278	29.99
577.618	30.27
577.958	30.42
578.298	30.58
578.638	30.73
578.977	30.63
579.317	30.8
579.657	31.07
579.996	30.74
580.336	31.26
580.675	30.98
581.014	31.23
581.354	31.42
581.693	31.3
582.032	31.12
582.372	31.15
582.711	31.17
583.05	31.1
583.389	31.19
583.728	31.38
584.067	31.41
584.406	31.6
584.745	31.41
585.083	31.73
585.422	31.59
585.761	31.89
586.1	31.82
586.438	31.73
586.777	31.91
587.115	32.3
587.454	31.97
587.792	31.96
588.13	32.52
588.469	32.1
588.807	32.26
589.145	32.16
589.483	32.07
589.821	32.04
590.159	32.44
590.497	32.5
590.835	32.63
591.173	32.4
591.511	32.39
591.849	32.39
592.187	32.44
592.524	32.51
592.862	32.46
593.2	32.88
593.537	32.49
593.875	32.69
594.212	32.72
594.55	33.05
594.887	32.66
595.224	32.77
595.561	32.82
595.899	32.99
596.236	32.95
596.573	32.94
596.91	32.76
597.247	33
597.584	33.17
597.921	33.15
598.258	32.97
598.594	32.66
598.931	32.85
599.268	32.71
599.604	32.89
599.941	33.11
600.277	33.21
600.614	33.38
600.95	32.99
601.287	33.74
601.623	33.57
601.959	33.46
602.296	33.56
602.632	33.83
602.968	33.65
603.304	34.21
603.64	34.02
603.976	33.95
604.312	33.6
604.648	34.11
604.984	33.66
605.319	33.69
605.655	33.94
605.991	34.01
606.326	33.83
606.662	33.58
606.998	33.51
607.333	33.92
607.668	34
608.004	34.27
608.339	34.5
608.674	34.31
609.01	34.3
609.345	34.36
609.68	34.57
610.015	34.59
610.35	34.15
610.685	34.32
611.02	34.52
611.355	34.47
611.689	34.54
612.024	34.43
612.359	34.45
612.694	34.68
613.028	35.09
613.363	35.15
613.697	34.52
614.032	35.26
614.366	34.64
614.7	35.31
615.035	35.17
615.369	34.81
615.703	35
616.037	35.37
616.371	34.93
616.705	35.07
617.039	35.24
617.373	35.38
617.707	35.41
618.041	35.41
618.375	35.42
618.709	35.63
619.042	35.71
619.376	35.67
619.71	35.54
620.043	35.76
620.377	35.94
620.71	35.42
621.043	36.01
621.377	35.87
621.71	35.96
622.043	36.24
622.376	35.79
622.709	36.04
623.043	35.85
623.376	36.13
623.709	35.92
624.041	36.29
624.374	36.22
624.707	36.51
625.04	36.39
625.373	36.32
625.705	36.22
626.038	36.41
626.37	36.5
626.703	36.04
627.035	36.83
627.368	36.49
627.7	36.91
628.032	36.23
628.365	36.56
628.697	36.38
629.029	36.56
629.361	36.45
629.693	37.01
630.025	36.73
630.357	36.91
630.689	37
631.021	36.76
631.353	36.93
631.684	36.94
632.016	37.04
632.348	37.54
632.679	37.08
633.011	37.42
633.342	37.44
633.674	36.93
634.005	37.48
634.336	37.71
634.668	37.71
634.999	37.48
635.33	37.91
635.661	37.67
635.992	37.13
636.323	37.54
636.654	37.83
636.985	37.06
637.316	37.65
637.647	37.79
637.977	37.92
638.308	38.41
638.639	37.02
638.969	37.51
639.3	37.67
639.63	37.53
639.961	38.31
640.291	38.32
640.622	38.44
640.952	38.1
641.282	38.59
641.612	38.72
641.943	38.14
642.273	38.05
642.603	38.85
642.933	38.21
643.263	38.84
643.592	39.13
643.922	38.56
644.252	38.58
644.582	38.36
644.911	38.34
645.241	38.46
645.571	38.46
645.9	38.69
646.23	38.26
646.559	38.57
646.888	39.02
647.218	38.74
647.547	39.72
647.876	38.92
648.205	38.92
648.534	39.04
648.863	39.25
649.192	39.31
649.521	39.02
649.85	39.03
650.179	38.9
650.508	38.72
650.837	39.3
651.165	39.19
651.494	39.21
651.822	39
652.151	39.06
652.479	39.14
652.808	38.97
653.136	39.25
653.465	39.53
653.793	39.33
654.121	39.61
654.449	40.11
654.777	39.84
655.105	40.25
655.433	39.09
655.761	39.83
656.089	39.64
656.417	40.22
656.745	39.65
657.073	39.59
657.4	40.14
657.728	40.16
658.056	40.55
658.383	39.92
658.711	40.51
659.038	40.22
659.365	40.7
659.693	39.91
660.02	40.49
660.347	40.21
660.674	39.73
661.001	40.26
661.329	39.61
661.656	40.14
661.982	40.09
662.309	40.23
662.636	40.42
662.963	40.73
663.29	40.39
663.616	40.97
663.943	40.53
664.27	39.74
664.596	40.61
664.923	40.77
665.249	40.54
665.576	41.09
665.902	41.29
666.228	40.88
666.554	41.23
666.881	41.36
667.207	41.41
667.533	41.26
667.859	40.97
668.185	41.03
668.511	40.16
668.837	40.55
669.162	41.16
669.488	40.96
669.814	41.55
670.139	41.59
670.465	41.73
670.791	41.43
671.116	42.15
671.442	41.36
671.767	41.52
672.092	41.36
672.418	42.08
672.743	42.36
673.068	41.14
673.393	41.37
673.718	41.65
674.043	42.24
674.368	41.74
674.693	42.68
675.018	42.04
675.343	42.07
675.667	42.09
675.992	41.53
676.317	41.89
676.641	41.85
676.966	41.52
677.29	42.41
677.615	42.36
677.939	41.89
678.264	42.02
678.588	42.32
678.912	41.89
679.236	42.67
679.56	41.21
679.885	41.85
680.209	41.76
680.532	42.5
680.856	43.54
681.18	42.36
681.504	42.4
681.828	42.65
682.152	42.4
682.475	42.09
682.799	42.42
683.122	42.81
683.446	41.88
683.769	42.7
684.093	42.62
684.416	42.83
684.739	42.73
685.062	42.41
685.386	43.18
685.709	42.88
686.032	42.58
686.355	42.65
686.678	42.01
687.001	43.57
687.324	43.61
687.646	43.16
687.969	43.42
688.292	42.58
688.614	43.11
688.937	43.58
689.26	43.34
689.582	42.61
689.904	43.04
690.227	43.81
690.549	43.27
690.871	43.74
691.194	43.03
691.516	43.06
691.838	43.41
692.16	43.31
692.482	43.89
692.804	44.11
693.126	43.64
693.448	44.44
693.769	44.67
694.091	44.08
694.413	43.31
694.735	43
695.056	44.37
695.378	44.25
695.699	43.54
696.021	44.47
696.342	44.03
696.663	44.64
696.984	43.82
697.306	43.75
697.627	44.19
697.948	44.61
698.269	43.96
698.59	43.83
698.911	43.52
699.232	43.21
699.553	45.04
699.873	44.17
700.194	44.21
700.515	43.76
700.835	44.18
701.156	43.57
701.477	44.62
701.797	44.35
702.117	44.56
702.438	44.96
702.758	44.93
703.078	44.77
703.398	43.58
703.719	44.14
704.039	43.53
704.359	45.76
704.679	44.2
704.999	44.84
705.319	44.28
705.638	44.97
705.958	45.12
706.278	45.07
706.597	46.27
706.917	45.07
707.237	44.13
707.556	45.65
707.876	44.76
708.195	45.62
708.514	45.23
708.834	45.49
709.153	45.35
709.472	45.07
709.791	45.61
710.11	44.49
710.429	45.65
710.748	45.79
711.067	45.15
711.386	45.37
711.705	45.16
712.023	45.76
712.342	44.75
712.661	44.86
712.979	45.34
713.298	45.6
713.616	45.81
713.935	45.94
714.253	44.97
714.572	45.85
714.89	46.85
715.208	45.64
715.526	46.7
715.844	46.24
716.162	44.94
716.48	45.88
716.798	44.8
717.116	46.61
717.434	45.24
717.752	44.06
718.069	45.71
718.387	45.49
718.705	46.78
719.022	45.22
719.34	46.4
719.657	45.89
719.975	46.52
720.292	45.76
720.609	46.19
720.927	47.6
721.244	46.24
721.561	46.11
721.878	47.72
722.195	44.59
722.512	45.4
722.829	46.8
723.146	46.45
723.463	46.22
723.779	47.15
724.096	46.42
724.413	47.02
724.729	46.46
725.046	46.37
725.362	47.57
725.679	46.18
725.995	46.24
726.311	46.38
726.628	47.29
726.944	47.22
727.26	46.37
727.576	47.79
727.892	47.36
728.208	44.79
728.524	46.69
728.84	45.45
729.156	46.28
729.472	47.71
729.787	46.27
730.103	47.59
730.419	47.48
730.734	47.4
731.05	45.54
731.365	46.7
731.681	48.64
731.996	47.65
732.311	45.9
732.626	46.87
732.942	46.29
733.257	47.03
733.572	47.04
733.887	46.69
734.202	48.19
734.517	48.91
734.832	47.5
735.146	47.33
735.461	48.31
735.776	47.54
736.091	48.43
736.405	48.18
736.72	47.55
737.034	47.39
737.349	50.85
737.663	48.38
737.977	49.2
738.292	47.36
738.606	47.62
738.92	48.36
739.234	48.22
739.548	47.73
739.862	47.5
740.176	47.98
740.49	48.48
740.804	50.54
741.117	46.91
741.431	49.13
741.745	49.87
742.058	48.48
742.372	46.74
742.685	47.32
742.999	48.93
743.312	48.26
743.626	47.51
743.939	46.78
744.252	48.43
744.565	48.12
744.878	48.93
745.191	47.1
745.505	46.17
745.817	49.07
746.13	48.37
746.443	51.44
746.756	48.9
747.069	47.75
747.381	50.21
747.694	50.01
748.007	47.49
748.319	48.9
748.632	48.26
748.944	46.23
749.256	48.04
749.569	48.53
749.881	49.38
750.193	49.88
750.505	48.47
750.817	50.27
751.129	49.08
751.441	48.11
751.753	48.64
752.065	51.53
752.377	50.24
752.689	51
753	49
753.312	48.27
753.624	51.32
753.935	50.99
754.247	50.88
754.558	47.31
754.869	47.82
755.181	50.49
755.492	49.64
755.803	50.65
756.114	48.81
756.425	48.6
756.736	48.28
757.047	49.19
757.358	49.8
757.669	51.63
757.98	50.85
758.291	50.25
758.601	49.23
758.912	49.27
759.223	50.07
759.533	49.67
759.844	48.62
760.154	47.64
760.464	49.78
760.775	51.28
761.085	48.5
761.395	49.49
761.705	48.95
762.016	48.88
762.326	49.5
762.636	50.3
762.945	48.6
763.255	48.92
763.565	48.62
763.875	50.67
764.185	48.4
764.494	51.3
764.804	51.53
765.113	49.76
765.423	49.42
765.732	51.77
766.042	48.79
766.351	50.74
766.66	51.47
766.97	52.05
767.279	49.4
767.588	50.68
767.897	48.99
768.206	51.31
768.515	49.91
768.824	49.54
769.133	51.42
769.441	50.25
769.75	49.55
770.059	52.76
770.367	49.16
770.676	48.36
770.984	52.19
771.293	49.01
771.601	51.5
771.91	48.32
772.218	51.6
772.526	51.43
772.834	50.03
773.142	47.16
773.45	50.09
773.758	47.21
774.066	52.41
774.374	48.08
774.682	49.06
774.99	49.3
775.298	50.1
775.605	49.13
775.913	48.38
776.22	47.68
776.528	51.42
776.835	54.37
777.143	53.04
777.45	51.84
777.757	50.3
778.065	51.97
778.372	52.03
778.679	49.39
778.986	50.51
779.293	50.73
779.6	51.16
779.907	48.77
780.214	51.07
780.52	46.66
780.827	52.62
781.134	48.64
781.44	53.17
781.747	50.91
782.053	52.96
782.36	49.97
782.666	53.22
782.973	47.55
783.279	52.8
783.585	49.53
783.891	52.65
784.197	55.06
784.503	50.86
784.809	47.27
785.115	53.13
785.421	52.81
785.727	50.57
786.033	50.83
786.339	53.71
786.644	51.15
786.95	49.78
787.255	52.64
787.561	50.43
787.866	47.94
788.172	51.85
788.477	53.64
788.782	53.18
789.088	52.61
789.393	53.85
789.698	51.11
790.003	49.47
790.308	52
790.613	54.78
790.918	53.77
791.223	52.15
791.527	51.68
791.832	52.18
792.137	47.91
792.441	51.27
792.746	52.4
793.05	51.35
793.355	54.34
793.659	52.11
793.963	52.51
794.268	51.21
794.572	50.54
794.876	52.9
795.18	50.51
795.484	52.44
795.788	52.28
796.092	53.53
796.396	53.45
796.7	53.06
797.004	49.11
797.307	48.08
797.611	56.51
797.915	50.56
798.218	52.79
798.522	48.7
798.825	54.39
799.128	54.55
799.432	49.03
799.735	52.48
800.038	55.7
800.341	53
800.644	53.66
800.947	50.94
801.25	51.53
801.553	53.9
801.856	56.62
802.159	48.42
802.462	55.64
802.764	51.96
803.067	51.09
803.37	51.68
803.672	51.93
803.975	47.96
804.277	47.35
804.579	53.65
804.882	49.27
805.184	52.26
805.486	52.82
805.788	53.47
806.09	49
806.392	47.06
806.694	53.15
806.996	49.02
807.298	54.67
807.6	50.55
807.902	50.8
808.203	53.24
808.505	48.91
808.807	53.5
809.108	46.23
809.409	55.83
809.711	55.48
810.012	49.14
810.313	51
810.615	53.5
810.916	50.89
811.217	53.1
811.518	50.9
811.819	52.67
812.12	49.54
812.421	46.3
812.722	50.03
813.023	49.07
813.323	56.5
813.624	54.48
813.925	54.89
814.225	52.31
814.526	58.39
814.826	52.37
815.126	54.96
815.427	51.4
815.727	49.94
816.027	49
816.327	53.8
816.627	39.45
816.927	52.93
817.227	58.07
817.527	42.81
817.827	56.76
818.127	55.42
818.427	54.11
818.727	56.81
819.026	54.31
819.326	53.61
819.625	51.27
819.925	45.52
820.224	55.49
820.524	48.76
820.823	58.52
821.122	50.23
821.421	53.55
821.72	52.44
822.019	53.3
822.318	54.53
822.617	45.96
822.916	52.9
823.215	53.58
823.514	52.75
823.813	52.53
824.111	56.58
824.41	55.83
824.709	54.68
825.007	55.7
825.306	54.79
825.604	55.64
825.902	55.22
826.201	54.28
826.499	55.19
826.797	55.62
827.095	55.57
827.393	54.82
827.691	56.43
827.989	51.96
828.287	54.36
828.585	54.58
828.882	55.63
829.18	58.1
829.478	58.03
829.775	54.4
830.073	58.38
830.37	56.2
830.668	54.32
830.965	56.07
831.263	56.97
831.56	55.76
831.857	54.98
832.154	55.11
832.451	58.34
832.748	54.64
833.045	55.7
833.342	53.41
833.639	51.83
833.936	52.57
834.232	55.87
834.529	52.95
834.826	52.36
835.122	56.86
835.419	53.01
835.715	52.26
836.012	57.28
836.308	52.86
836.604	54.78
836.901	55.51
837.197	55.33
837.493	58.51
837.789	52.46
838.085	58.48
838.381	52.94
838.677	49.63
838.972	57.01
839.268	48.32
839.564	56.82
839.86	51.48
840.155	44.92
840.451	54.88
840.746	57.44
841.042	53.87
841.337	58.14
841.632	49.58
841.928	56.11
842.223	58.21
842.518	47.28
842.813	67.72
843.108	53.89
843.403	62.47
843.698	40.59
843.993	47.61
844.287	57.54
844.582	55.7
844.877	46.98
845.171	63.83
845.466	48.72
845.761	52.91
846.055	50.47
846.349	50.53
846.644	38.4
846.938	51
847.232	34.51
847.526	43.3
847.82	61.93
848.114	63.9
848.408	37.43
848.702	66.54
848.996	56.94
849.29	35.85
849.584	53.38
849.877	47.38
850.171	67.96
850.465	52.46
850.758	62.18
851.052	57.82
851.345	51.23
851.638	39.53
851.932	37.71
852.225	49.22
852.518	38.65
852.811	39.26
853.104	30.67
853.397	49.65
853.69	55.39
853.983	27.37
854.276	41.57
854.569	55.19
854.861	53.34
855.154	61.8
855.447	37.83
855.739	64.78
856.032	52.46
856.324	42.64
856.616	54.74
856.909	42.98
857.201	49.17
857.493	55.17
857.785	18.97
858.077	37.35
858.369	56.3
858.661	41.83
858.953	31.56
859.245	42.85
859.537	51.45
859.829	46.5
860.12	52.41
860.412	33.61
860.703	36.62
860.995	44.91
861.286	64.81
861.578	65.22
861.869	54.04
862.16	37.79
862.452	55.61
862.743	44.54
863.034	43.83
863.325	22.73
863.616	51.16
863.907	44.49
864.198	31.22
864.488	67.6
864.779	62.7
865.07	-3.22
865.36	29.52
865.651	47.19
865.941	39.99
866.232	28.28
866.522	21.64
866.813	65.96
867.103	28.12
867.393	44.87
867.683	71.45
867.973	43.98
868.263	61.93
868.553	62.37
868.843	56.11
869.133	15.49
869.423	47.15
869.713	49.04
870.002	80.99
870.292	65.72
870.582	66.88
870.871	22
871.161	71.85
871.45	47.72
871.739	26.85
872.029	43.06
872.318	56.77
872.607	59.01
872.896	75.78
873.185	37.83
873.474	81.65
873.763	44.3
874.052	39.72
874.341	78.74
874.63	63.07
874.918	49.86
875.207	60.37
875.496	53.65
875.784	59.64
876.073	45.02
876.361	-1.83
876.649	41.09
876.938	19.69
877.226	43.54
877.514	41.47
877.802	27.19
878.09	32.14
878.378	57.1
878.666	69.2
878.954	36.73
879.242	39.67
879.53	61.55
879.817	67.88
880.105	82.29
880.392	30.75
880.68	53.94
880.967	46.42
881.255	62.64
881.542	7.98
881.83	-4.26
882.117	71.84
882.404	44.2
882.691	50.06
882.978	61.07
883.265	48.89
883.552	59.56
883.839	62.03
884.126	68.61
884.413	61.81
884.699	55.04
884.986	49.53
885.273	56.8
885.559	56.8
885.846	56.8
