Data from 0399_forehead_Reflection__1__211.txt Node

Date: Fri Dec 15 18:20:06 CST 2023
User: ToomeyLab
Spectrometer: FLMS14357
Trigger mode: 0
Integration Time (sec): 1.000000E-2
Scans to average: 100
Electric dark correction enabled: true
Nonlinearity correction enabled: false
Boxcar width: 0
XAxis mode: Wavelengths
Number of Pixels in Spectrum: 2048
>>>>>Begin Spectral Data<<<<<
189.047	119.96
189.435	119.96
189.823	119.96
190.211	25.96
190.599	118.13
190.987	66.45
191.375	77.27
191.763	45.63
192.151	-100.87
192.538	93.75
192.926	171.17
193.314	131.61
193.702	785.25
194.089	226.19
194.477	75.68
194.864	-51.09
195.252	103.89
195.639	38.91
196.027	39.48
196.414	45.51
196.801	815.24
197.189	161.09
197.576	11.93
197.963	153.47
198.351	-37.15
198.738	-59.67
199.125	-25.38
199.512	36.36
199.899	19.55
200.286	59.61
200.673	26.15
201.06	35.35
201.447	34.26
201.833	39.72
202.22	57.61
202.607	10.19
202.994	69.33
203.38	17.28
203.767	15.47
204.154	33.33
204.54	6.88
204.927	-0.68
205.313	-49.41
205.699	7.4
206.086	18.45
206.472	17.25
206.858	1.99
207.245	6.49
207.631	45.63
208.017	-28.04
208.403	-14.95
208.789	26.91
209.175	52.56
209.561	11.37
209.947	33.73
210.333	54.32
210.719	47.02
211.105	63.55
211.491	9.91
211.876	37.27
212.262	19.4
212.648	17.24
213.034	7.54
213.419	-7.67
213.805	-14.23
214.19	-26.69
214.576	5.11
214.961	17.76
215.346	-54.74
215.732	4.62
216.117	16.38
216.502	20.83
216.888	6.41
217.273	38.99
217.658	30.74
218.043	17.78
218.428	-0.3
218.813	-17.09
219.198	-13.33
219.583	-10.28
219.968	2.03
220.353	3.72
220.738	39.1
221.122	23.13
221.507	-8.56
221.892	-9.72
222.276	-20.81
222.661	17.34
223.046	9.35
223.43	12.87
223.815	31.58
224.199	-2
224.583	8.29
224.968	-1.18
225.352	16.36
225.736	2.91
226.121	-10.44
226.505	15.22
226.889	16.27
227.273	-0.35
227.657	14.1
228.041	3.42
228.425	4.39
228.809	7.83
229.193	5.08
229.577	6.52
229.961	5.11
230.344	3.32
230.728	3.33
231.112	3.26
231.495	3.86
231.879	3.14
232.263	4.88
232.646	4.81
233.03	3.88
233.413	2.65
233.797	2.85
234.18	4.06
234.563	3.61
234.946	2.29
235.33	5.62
235.713	4.31
236.096	3.14
236.479	5.16
236.862	1.85
237.245	3.86
237.628	2.65
238.011	5.37
238.394	4.98
238.777	5.13
239.16	2.59
239.543	3.57
239.925	5.14
240.308	3.71
240.691	4.83
241.073	4.04
241.456	2.78
241.838	2.89
242.221	3.47
242.603	4.01
242.986	2.91
243.368	4.02
243.75	2.75
244.133	2.75
244.515	3.08
244.897	3.5
245.279	3
245.661	2.97
246.043	0.81
246.425	3.3
246.807	5.01
247.189	3.44
247.571	3.67
247.953	3.13
248.335	3.26
248.717	3.06
249.098	3.15
249.48	2.95
249.862	2.9
250.243	3.17
250.625	3.09
251.006	3.31
251.388	2.47
251.769	2.93
252.151	4.82
252.532	2.61
252.913	2.29
253.295	2.37
253.676	3.75
254.057	3.2
254.438	3.15
254.819	2.93
255.2	3.28
255.581	3.28
255.962	2.62
256.343	3.59
256.724	3.01
257.105	3.02
257.486	3.16
257.867	3.09
258.247	3.24
258.628	1.95
259.009	3.13
259.389	3.57
259.77	2.87
260.15	2.6
260.531	3
260.911	3.35
261.292	2.96
261.672	3.09
262.052	3.07
262.432	2.97
262.813	3.12
263.193	3.38
263.573	3.5
263.953	2.52
264.333	3.15
264.713	3.69
265.093	2.55
265.473	2.61
265.853	2.2
266.233	3.52
266.612	2.15
266.992	1.59
267.372	3.66
267.752	2.61
268.131	3.04
268.511	3.19
268.89	2.86
269.27	2.81
269.649	2.47
270.029	2.78
270.408	3.98
270.787	3.52
271.167	3.53
271.546	3.34
271.925	1.71
272.304	2.73
272.683	2.68
273.062	2.57
273.441	3.17
273.82	2.04
274.199	2.93
274.578	3.03
274.957	2.95
275.336	3.13
275.715	2.79
276.093	3.32
276.472	2.87
276.851	2.75
277.229	3.02
277.608	2.57
277.986	3.34
278.365	2.98
278.743	2.69
279.122	3.08
279.5	2.6
279.878	3.23
280.257	3.01
280.635	2.12
281.013	2.42
281.391	3.43
281.769	3.69
282.147	3.74
282.525	3.71
282.903	2.75
283.281	3.24
283.659	3.42
284.037	3.29
284.415	2.93
284.792	2.68
285.17	2.2
285.548	2.75
285.925	2.99
286.303	2.69
286.68	2.35
287.058	2.81
287.435	2.95
287.813	2.84
288.19	2.8
288.567	2.85
288.945	2.96
289.322	2.84
289.699	3.02
290.076	2.5
290.453	2.87
290.83	2.7
291.207	2.75
291.584	3.21
291.961	3.03
292.338	3.01
292.715	3.47
293.092	2.43
293.469	3.09
293.845	2.93
294.222	2.81
294.599	2.59
294.975	3.27
295.352	3.11
295.728	2.53
296.105	3
296.481	3.38
296.858	3.19
297.234	3.13
297.61	3.21
297.986	2.59
298.363	3.21
298.739	3.2
299.115	2.82
299.491	2.89
299.867	2.95
300.243	2.99
300.619	2.92
300.995	3.34
301.371	3.57
301.746	2.66
302.122	3.37
302.498	3.61
302.874	3.17
303.249	2.56
303.625	3.14
304	3.28
304.376	3.28
304.751	2.61
305.127	4.11
305.502	2.81
305.878	2.8
306.253	2.77
306.628	3.22
307.003	3.17
307.378	3.51
307.754	3.45
308.129	3.06
308.504	3.88
308.879	3.15
309.254	3.94
309.629	3.55
310.003	3.14
310.378	4.2
310.753	3.38
311.128	3.31
311.502	3.25
311.877	3.55
312.252	3.08
312.626	3.52
313.001	3.04
313.375	3.84
313.75	3.26
314.124	3.91
314.498	3.32
314.873	3.65
315.247	3.32
315.621	3.7
315.995	3.73
316.369	4.81
316.743	3.42
317.117	3.91
317.491	3.63
317.865	3.56
318.239	3.81
318.613	4.28
318.987	4.53
319.361	3.89
319.734	5.06
320.108	4.32
320.482	4.68
320.855	4.5
321.229	3.87
321.602	4.7
321.976	5.01
322.349	4.2
322.723	4.11
323.096	4.53
323.469	4.15
323.843	4.12
324.216	4.59
324.589	4.33
324.962	4.36
325.335	4.62
325.708	4.71
326.081	4.28
326.454	4.65
326.827	4.44
327.2	4.93
327.573	5.04
327.945	4.7
328.318	4.79
328.691	3.91
329.063	4.46
329.436	4.74
329.809	4.92
330.181	4.95
330.553	5.75
330.926	5.25
331.298	5.2
331.671	4.78
332.043	5.19
332.415	5.58
332.787	5.27
333.159	5.9
333.532	5.46
333.904	5.55
334.276	5.04
334.648	5.8
335.02	5.45
335.391	5.31
335.763	5.31
336.135	5.32
336.507	5.55
336.879	5.34
337.25	5.27
337.622	5.37
337.993	5.66
338.365	5.59
338.736	5.68
339.108	5.37
339.479	5.43
339.851	5.43
340.222	5.61
340.593	5.2
340.964	5.72
341.336	5.93
341.707	5.22
342.078	5.92
342.449	6.61
342.82	5.73
343.191	5.94
343.562	5.92
343.933	5.89
344.303	5.6
344.674	6.17
345.045	6.13
345.416	6.18
345.786	5.09
346.157	6.14
346.527	5.32
346.898	6.07
347.268	6.43
347.639	6.33
348.009	5.8
348.38	5.98
348.75	5.99
349.12	6.39
349.49	6.44
349.861	6.11
350.231	5.73
350.601	6.69
350.971	6.52
351.341	6.65
351.711	6.56
352.081	7.12
352.45	5.95
352.82	6.77
353.19	6.59
353.56	6.33
353.929	7.12
354.299	6.85
354.669	6.45
355.038	6.68
355.408	6.69
355.777	6.66
356.147	6.84
356.516	6.95
356.885	7.16
357.254	6.89
357.624	7.57
357.993	7.43
358.362	6.84
358.731	7.1
359.1	6.59
359.469	6.88
359.838	7.26
360.207	7.08
360.576	6.66
360.945	7.19
361.314	7.28
361.682	7.07
362.051	7.24
362.42	7.44
362.788	7.1
363.157	7.27
363.525	7.32
363.894	7.4
364.262	7.11
364.631	7.41
364.999	7.45
365.367	7.27
365.735	8.35
366.104	7.74
366.472	7.75
366.84	7.33
367.208	7.72
367.576	7.68
367.944	7.78
368.312	7.61
368.68	7.39
369.048	8.27
369.416	8.29
369.783	7.86
370.151	8.43
370.519	8.4
370.886	8.65
371.254	8.14
371.621	8.5
371.989	8.26
372.356	8
372.724	8.69
373.091	8.3
373.458	8.14
373.826	8.53
374.193	8.17
374.56	8.54
374.927	8.73
375.294	8.35
375.661	8.65
376.028	8.39
376.395	8.53
376.762	8.54
377.129	8.83
377.496	9
377.863	8.86
378.229	8.46
378.596	8.97
378.963	8.83
379.329	8.69
379.696	8.85
380.062	9.26
380.429	9.08
380.795	8.96
381.161	8.97
381.528	9.15
381.894	8.99
382.26	8.86
382.626	9.06
382.993	8.98
383.359	9.41
383.725	9.3
384.091	9.53
384.457	9.69
384.823	9.41
385.188	9.6
385.554	9.44
385.92	9.73
386.286	9.75
386.651	10.12
387.017	9.96
387.383	9.79
387.748	9.67
388.114	10.01
388.479	9.84
388.845	9.88
389.21	9.98
389.575	10.05
389.94	9.68
390.306	10.08
390.671	10.4
391.036	9.87
391.401	10.2
391.766	10.17
392.131	10.3
392.496	10.38
392.861	10.26
393.226	10.46
393.591	10.28
393.956	10.12
394.32	10.34
394.685	10.26
395.05	10.22
395.414	10.69
395.779	10.28
396.143	10.3
396.508	10.67
396.872	10.45
397.236	10.82
397.601	10.31
397.965	10.67
398.329	11.01
398.694	11.07
399.058	10.98
399.422	10.72
399.786	11.24
400.15	11.1
400.514	11.16
400.878	10.93
401.242	11.36
401.605	11.44
401.969	11.51
402.333	11.22
402.697	11.18
403.06	11.05
403.424	11.38
403.787	11.15
404.151	11.38
404.514	11.56
404.878	11.29
405.241	11.76
405.604	11.46
405.968	11.48
406.331	11.59
406.694	11.66
407.057	11.53
407.42	11.94
407.783	11.53
408.146	12.09
408.509	11.97
408.872	11.82
409.235	11.84
409.598	12.15
409.961	12.11
410.323	12.05
410.686	12.1
411.049	11.93
411.411	12.26
411.774	11.98
412.136	12.33
412.499	12.2
412.861	12.37
413.223	12.28
413.586	12.54
413.948	12.62
414.31	12.53
414.672	12.36
415.035	12.18
415.397	12.64
415.759	12.43
416.121	12.78
416.483	12.57
416.845	12.5
417.206	12.79
417.568	12.95
417.93	12.72
418.292	12.83
418.653	12.69
419.015	12.93
419.377	12.87
419.738	12.89
420.1	12.78
420.461	12.93
420.822	12.82
421.184	12.73
421.545	12.88
421.906	12.71
422.267	12.95
422.629	12.97
422.99	12.83
423.351	12.8
423.712	12.94
424.073	13
424.434	13.25
424.795	13.26
425.155	13.2
425.516	13.22
425.877	13.24
426.238	13.27
426.598	13.37
426.959	13.44
427.32	13.4
427.68	13.47
428.041	13.57
428.401	13.8
428.761	13.85
429.122	13.89
429.482	13.98
429.842	14.4
430.202	14.12
430.563	14.28
430.923	14.09
431.283	14.2
431.643	14.25
432.003	14.35
432.363	14.52
432.722	14.35
433.082	14.67
433.442	14.67
433.802	14.38
434.161	14.62
434.521	14.53
434.881	14.59
435.24	14.67
435.6	14.48
435.959	14.38
436.319	14.7
436.678	14.72
437.037	14.89
437.396	14.89
437.756	15.11
438.115	14.98
438.474	15.08
438.833	15.06
439.192	15.2
439.551	15.34
439.91	15.1
440.269	15.22
440.628	15.05
440.987	15.17
441.345	15.15
441.704	15.29
442.063	15.29
442.421	15.2
442.78	15.26
443.138	15.27
443.497	15.33
443.855	15.46
444.214	15.65
444.572	15.56
444.93	15.92
445.288	15.71
445.647	15.95
446.005	15.84
446.363	15.96
446.721	16.09
447.079	15.59
447.437	15.86
447.795	15.97
448.153	15.65
448.51	15.77
448.868	16
449.226	15.88
449.584	15.98
449.941	16.1
450.299	16.24
450.656	16.38
451.014	16.35
451.371	16.22
451.729	16.39
452.086	16.71
452.443	16.51
452.801	16.74
453.158	16.71
453.515	16.65
453.872	16.87
454.229	16.63
454.586	16.91
454.943	16.88
455.3	16.96
455.657	16.78
456.014	16.92
456.371	17.11
456.727	17
457.084	17.28
457.441	17.35
457.797	17.31
458.154	17.54
458.51	17.43
458.867	17.52
459.223	17.61
459.58	17.64
459.936	17.68
460.292	17.5
460.648	17.58
461.005	17.54
461.361	17.51
461.717	17.51
462.073	17.31
462.429	17.44
462.785	17.61
463.141	17.61
463.496	17.77
463.852	18.2
464.208	17.94
464.564	18.05
464.919	18.05
465.275	18.14
465.631	18.45
465.986	18.49
466.342	18.47
466.697	18.18
467.052	18.54
467.408	18.62
467.763	18.38
468.118	18.55
468.473	18.58
468.829	18.57
469.184	18.68
469.539	18.92
469.894	18.56
470.249	19.03
470.603	19.1
470.958	19.13
471.313	18.99
471.668	18.99
472.023	18.99
472.377	19.17
472.732	19.24
473.086	19.05
473.441	19.06
473.795	19.47
474.15	19.36
474.504	19.27
474.859	19.55
475.213	19.34
475.567	19.39
475.921	19.38
476.275	19.65
476.63	19.74
476.984	19.77
477.338	19.77
477.692	19.78
478.045	19.82
478.399	19.6
478.753	19.87
479.107	19.66
479.461	19.8
479.814	19.66
480.168	19.9
480.521	19.95
480.875	20.05
481.228	20.11
481.582	20.16
481.935	20.05
482.289	20.19
482.642	20.19
482.995	20.12
483.348	20.15
483.701	20.3
484.055	20.17
484.408	20.01
484.761	19.8
485.114	19.69
485.466	19.33
485.819	19.21
486.172	19.19
486.525	19.16
486.878	19.34
487.23	19.58
487.583	19.75
487.936	20.08
488.288	20.02
488.641	20.01
488.993	19.92
489.345	19.86
489.698	19.77
490.05	19.78
490.402	19.97
490.754	20.16
491.107	20.32
491.459	20.5
491.811	20.7
492.163	20.74
492.515	21.09
492.866	20.83
493.218	20.54
493.57	20.29
493.922	20.36
494.274	20.54
494.625	20.72
494.977	21.02
495.328	21.25
495.68	21.39
496.031	21.78
496.383	21.61
496.734	21.84
497.086	22.2
497.437	22.05
497.788	21.83
498.139	21.74
498.49	21.79
498.842	21.67
499.193	21.83
499.544	22.04
499.894	21.91
500.245	22.07
500.596	21.89
500.947	22.27
501.298	22.12
501.648	22.3
501.999	22.56
502.35	22.53
502.7	22.49
503.051	22.52
503.401	22.53
503.752	22.78
504.102	22.94
504.452	22.77
504.803	22.83
505.153	22.95
505.503	23.06
505.853	23.02
506.203	22.81
506.553	22.86
506.903	23.04
507.253	22.99
507.603	23.22
507.953	23.18
508.303	23.25
508.652	23.29
509.002	23.39
509.352	23.57
509.701	23.43
510.051	23.56
510.4	23.34
510.75	23.31
511.099	23.39
511.449	23.38
511.798	23.11
512.147	23.49
512.496	23.4
512.846	23.74
513.195	23.52
513.544	23.72
513.893	23.84
514.242	23.95
514.591	23.84
514.939	23.8
515.288	23.92
515.637	23.9
515.986	24.15
516.334	24.05
516.683	24.09
517.032	24.32
517.38	24.42
517.729	24.34
518.077	24.43
518.426	24.34
518.774	24.42
519.122	24.41
519.47	24.19
519.819	24.08
520.167	24.15
520.515	23.9
520.863	23.97
521.211	24.06
521.559	24.04
521.907	24.34
522.255	24.39
522.602	24.53
522.95	24.73
523.298	24.81
523.645	24.79
523.993	24.89
524.341	25
524.688	25.08
525.036	24.93
525.383	25.22
525.73	25.34
526.078	25.06
526.425	24.96
526.772	25.2
527.119	24.83
527.466	24.73
527.814	24.7
528.161	24.82
528.508	24.7
528.854	24.79
529.201	24.88
529.548	24.75
529.895	24.63
530.242	24.2
530.588	24.13
530.935	24.24
531.282	24.39
531.628	24.39
531.975	24.62
532.321	24.78
532.667	24.99
533.014	25.28
533.36	25.4
533.706	25.5
534.052	25.48
534.399	25.34
534.745	25.26
535.091	25.09
535.437	25.06
535.783	25.17
536.129	25.32
536.474	25.48
536.82	25.69
537.166	25.83
537.512	25.88
537.857	25.99
538.203	26
538.549	25.84
538.894	25.81
539.239	25.79
539.585	26.1
539.93	26.14
540.276	26.24
540.621	26.56
540.966	26.62
541.311	26.75
541.656	26.68
542.001	26.5
542.346	26.55
542.691	26.07
543.036	25.94
543.381	25.72
543.726	25.81
544.071	25.9
544.415	26.19
544.76	26.27
545.105	26.43
545.449	26.43
545.794	26.63
546.138	26.79
546.483	26.99
546.827	26.96
547.171	26.91
547.516	27.06
547.86	27.13
548.204	27.24
548.548	27.24
548.892	27.12
549.236	27.2
549.58	27.39
549.924	27.37
550.268	27.66
550.612	27.66
550.956	27.96
551.3	27.92
551.643	28.23
551.987	28.5
552.33	28.3
552.674	28.45
553.017	28.22
553.361	28.3
553.704	28.58
554.048	28.3
554.391	28.34
554.734	28.35
555.077	28.37
555.42	28.15
555.764	28.39
556.107	28.44
556.45	28.63
556.793	28.81
557.135	28.91
557.478	29.02
557.821	29.06
558.164	28.83
558.507	29.19
558.849	29.14
559.192	28.87
559.534	29.26
559.877	29.37
560.219	29.22
560.562	29.33
560.904	29.18
561.246	29.6
561.589	29.28
561.931	29.53
562.273	29.39
562.615	29.7
562.957	29.62
563.299	29.21
563.641	29.5
563.983	29.75
564.325	29.61
564.667	29.57
565.008	29.58
565.35	29.62
565.692	29.7
566.033	29.47
566.375	29.75
566.716	30.1
567.058	29.65
567.399	29.83
567.741	29.65
568.082	29.61
568.423	29.45
568.764	29.79
569.105	29.81
569.447	29.89
569.788	29.84
570.129	30.19
570.47	30.22
570.811	30.4
571.151	30.38
571.492	30
571.833	30.46
572.174	30.36
572.514	30.22
572.855	30.33
573.195	30.46
573.536	30.01
573.876	30.21
574.217	30.15
574.557	30.26
574.898	30.44
575.238	30.6
575.578	30.5
575.918	30.52
576.258	30.5
576.598	30.93
576.938	30.56
577.278	30.42
577.618	30.67
577.958	30.69
578.298	30.96
578.638	30.8
578.977	31.01
579.317	31.04
579.657	31.07
579.996	31.44
580.336	31.52
580.675	31.26
581.014	31.35
581.354	31.58
581.693	31.71
582.032	31.28
582.372	31.5
582.711	31.9
583.05	31.66
583.389	31.75
583.728	31.82
584.067	31.93
584.406	32.1
584.745	31.96
585.083	32.35
585.422	32.3
585.761	32
586.1	31.94
586.438	32.12
586.777	32.15
587.115	32.22
587.454	32.24
587.792	31.88
588.13	32.33
588.469	32.09
588.807	32.33
589.145	32.26
589.483	32.34
589.821	32.45
590.159	32.58
590.497	32.75
590.835	32.53
591.173	32.4
591.511	32.68
591.849	32.67
592.187	32.7
592.524	32.62
592.862	32.49
593.2	32.95
593.537	32.44
593.875	32.74
594.212	32.51
594.55	32.97
594.887	33.11
595.224	32.82
595.561	32.86
595.899	33.2
596.236	32.98
596.573	32.96
596.91	32.82
597.247	32.69
597.584	33.21
597.921	32.87
598.258	33.05
598.594	32.93
598.931	32.84
599.268	32.76
599.604	32.9
599.941	33
600.277	33.2
600.614	33.45
600.95	33.19
601.287	33.53
601.623	33.35
601.959	33.63
602.296	33.66
602.632	33.8
602.968	33.88
603.304	33.71
603.64	33.93
603.976	34.25
604.312	33.52
604.648	33.54
604.984	33.7
605.319	33.57
605.655	33.54
605.991	33.63
606.326	33.62
606.662	33.52
606.998	33.55
607.333	33.63
607.668	33.64
608.004	33.75
608.339	33.99
608.674	34.35
609.01	34.11
609.345	34.04
609.68	34.51
610.015	34.04
610.35	34.45
610.685	34.2
611.02	34.18
611.355	34.12
611.689	34.35
612.024	34.19
612.359	34.47
612.694	34.28
613.028	34.77
613.363	34.71
613.697	34.81
614.032	34.26
614.366	34.58
614.7	34.71
615.035	34.96
615.369	34.71
615.703	34.68
616.037	35.16
616.371	34.95
616.705	34.78
617.039	35.22
617.373	35.23
617.707	35.05
618.041	34.78
618.375	35.15
618.709	35.27
619.042	35.17
619.376	35.91
619.71	35.68
620.043	35.08
620.377	35.46
620.71	35.25
621.043	35.22
621.377	35.6
621.71	35.24
622.043	35.54
622.376	35.25
622.709	35.42
623.043	35.39
623.376	35.6
623.709	35.58
624.041	36.07
624.374	35.9
624.707	35.78
625.04	35.92
625.373	35.45
625.705	35.92
626.038	35.83
626.37	35.9
626.703	35.7
627.035	36.01
627.368	35.99
627.7	36.2
628.032	35.83
628.365	36.42
628.697	35.8
629.029	35.85
629.361	35.75
629.693	35.93
630.025	35.94
630.357	36.53
630.689	36.16
631.021	36
631.353	36.62
631.684	36.25
632.016	36.23
632.348	36.74
632.679	36.5
633.011	36.92
633.342	37.12
633.674	36.34
634.005	37.01
634.336	36.77
634.668	36.96
634.999	36.88
635.33	37.23
635.661	36.94
635.992	36.72
636.323	36.93
636.654	37.14
636.985	36.77
637.316	37.35
637.647	36.88
637.977	37.42
638.308	37.58
638.639	36.65
638.969	37.19
639.3	37.13
639.63	37.01
639.961	37.53
640.291	37.36
640.622	37.5
640.952	37.54
641.282	37.59
641.612	37.43
641.943	36.92
642.273	37.76
642.603	37.95
642.933	38.04
643.263	37.76
643.592	37.69
643.922	37.11
644.252	37.64
644.582	37.85
644.911	37.77
645.241	37.94
645.571	37.81
645.9	37.56
646.23	38.08
646.559	38.19
646.888	38.56
647.218	38.27
647.547	38.56
647.876	37.89
648.205	38.12
648.534	37.55
648.863	38.36
649.192	38.19
649.521	37.93
649.85	37.89
650.179	37.97
650.508	37.7
650.837	38.25
651.165	38.66
651.494	38.3
651.822	38.65
652.151	38.67
652.479	38.61
652.808	38.33
653.136	38.59
653.465	37.33
653.793	38.31
654.121	37.99
654.449	38.27
654.777	38.16
655.105	38.69
655.433	38.52
655.761	38.58
656.089	38.6
656.417	38.85
656.745	38.73
657.073	38.51
657.4	39.16
657.728	39.06
658.056	39.25
658.383	38.66
658.711	38.65
659.038	38.66
659.365	39.54
659.693	39.12
660.02	39.17
660.347	38.67
660.674	39.45
661.001	39.2
661.329	38.5
661.656	39.3
661.982	39.13
662.309	39.3
662.636	38.85
662.963	39.3
663.29	39.15
663.616	39.11
663.943	39.2
664.27	39.51
664.596	39.49
664.923	39.12
665.249	39.07
665.576	39.91
665.902	40.2
666.228	38.84
666.554	39.3
666.881	39.95
667.207	40.11
667.533	40.54
667.859	40.27
668.185	39.74
668.511	39.94
668.837	39.42
669.162	40.48
669.488	39.92
669.814	40.06
670.139	40.05
670.465	39.91
670.791	39.78
671.116	40.27
671.442	39.35
671.767	40.24
672.092	40.71
672.418	40.34
672.743	40.4
673.068	39.18
673.393	39.73
673.718	40.26
674.043	40.11
674.368	40.4
674.693	41.13
675.018	40.58
675.343	39.91
675.667	40.23
675.992	40.37
676.317	40.63
676.641	40.21
676.966	40.85
677.29	40.18
677.615	41.26
677.939	40.26
678.264	40.68
678.588	40.84
678.912	40.28
679.236	40.62
679.56	40.24
679.885	40.49
680.209	40.74
680.532	40.45
680.856	41.14
681.18	41.14
681.504	40.59
681.828	41.04
682.152	40.34
682.475	40.58
682.799	40.42
683.122	41.42
683.446	40.28
683.769	41.04
684.093	40.96
684.416	40.96
684.739	40.92
685.062	40.62
685.386	41.46
685.709	40.06
686.032	41.77
686.355	41.91
686.678	41.44
687.001	41.26
687.324	41.41
687.646	41.62
687.969	41.71
688.292	41.14
688.614	41.2
688.937	41.52
689.26	40.95
689.582	41.58
689.904	42.1
690.227	41.62
690.549	41.55
690.871	42.27
691.194	41.82
691.516	41.9
691.838	41.41
692.16	42.42
692.482	42.11
692.804	41.58
693.126	41.86
693.448	41.37
693.769	42.26
694.091	41.54
694.413	40.81
694.735	41.45
695.056	42.29
695.378	43.7
695.699	40.51
696.021	41.84
696.342	41.54
696.663	41.96
696.984	41.93
697.306	42.34
697.627	42.69
697.948	42.66
698.269	43.55
698.59	41.44
698.911	41.33
699.232	41.83
699.553	42.23
699.873	41.5
700.194	43.02
700.515	41.52
700.835	41.4
701.156	41.74
701.477	41.59
701.797	42.28
702.117	42
702.438	42.46
702.758	43.03
703.078	42.59
703.398	42.12
703.719	44.02
704.039	41.9
704.359	42.49
704.679	43.33
704.999	42.53
705.319	42.92
705.638	43.39
705.958	43.02
706.278	42.7
706.597	42.49
706.917	42.51
707.237	43.17
707.556	43.23
707.876	42.21
708.195	43.32
708.514	41.88
708.834	42.67
709.153	43.03
709.472	42.72
709.791	43.28
710.11	43
710.429	43.74
710.748	43.65
711.067	43.03
711.386	42.21
711.705	42.47
712.023	43.16
712.342	43.07
712.661	42.58
712.979	42.72
713.298	42.7
713.616	43.27
713.935	42.93
714.253	42.43
714.572	43.78
714.89	43.63
715.208	44.34
715.526	44.03
715.844	43.78
716.162	42.12
716.48	43.11
716.798	43.52
717.116	43.08
717.434	43.33
717.752	42
718.069	42.82
718.387	42.88
718.705	43.75
719.022	43.54
719.34	43.8
719.657	43.72
719.975	43.74
720.292	43.51
720.609	43.87
720.927	43.58
721.244	44.52
721.561	43.66
721.878	43.97
722.195	42.83
722.512	42.66
722.829	42.12
723.146	44.72
723.463	44.32
723.779	45.39
724.096	43.35
724.413	42.68
724.729	44.03
725.046	43.62
725.362	44.72
725.679	44.77
725.995	44.75
726.311	44.88
726.628	44.08
726.944	46.08
727.26	44.12
727.576	45.31
727.892	44.58
728.208	45.03
728.524	43.45
728.84	42.18
729.156	43.06
729.472	44.48
729.787	44.86
730.103	45.44
730.419	45.4
730.734	44.37
731.05	44.24
731.365	43.44
731.681	46.5
731.996	43.55
732.311	43.23
732.626	45.88
732.942	43.03
733.257	45.85
733.572	44.38
733.887	44
734.202	44.77
734.517	45.09
734.832	44.83
735.146	43.29
735.461	45.16
735.776	43.8
736.091	45.81
736.405	45.01
736.72	44.93
737.034	44.85
737.349	46.26
737.663	45.02
737.977	46.54
738.292	46.05
738.606	45.93
738.92	43.86
739.234	45.05
739.548	43.91
739.862	45.47
740.176	44.87
740.49	45.18
740.804	46.28
741.117	44.52
741.431	44.38
741.745	45.65
742.058	45.14
742.372	44.28
742.685	44.69
742.999	46.9
743.312	44.58
743.626	45.38
743.939	46.95
744.252	45.98
744.565	44.2
744.878	46.07
745.191	45.09
745.505	43.37
745.817	45.99
746.13	46.33
746.443	46.82
746.756	44.2
747.069	44.04
747.381	43.78
747.694	43.5
748.007	43.98
748.319	45.7
748.632	46.51
748.944	45.61
749.256	45.14
749.569	43.72
749.881	46.65
750.193	45.1
750.505	44.47
750.817	45.61
751.129	46.97
751.441	44.91
751.753	46.97
752.065	47.78
752.377	47.29
752.689	46.64
753	45.17
753.312	45.43
753.624	44.89
753.935	45.56
754.247	45.93
754.558	45.27
754.869	43.36
755.181	47.55
755.492	45.11
755.803	44.21
756.114	46.66
756.425	44.26
756.736	44.38
757.047	46.14
757.358	46.16
757.669	45.43
757.98	45.49
758.291	48.33
758.601	45.28
758.912	45.34
759.223	45.63
759.533	44.94
759.844	45.14
760.154	44.45
760.464	47.51
760.775	47
761.085	45.38
761.395	47.23
761.705	45
762.016	46.66
762.326	46.87
762.636	45.67
762.945	44.36
763.255	46.2
763.565	45.16
763.875	46.51
764.185	45.93
764.494	45.27
764.804	46.37
765.113	46.92
765.423	46.88
765.732	45.77
766.042	47.45
766.351	46.33
766.66	46.83
766.97	47.08
767.279	45.08
767.588	46.17
767.897	47.92
768.206	46.66
768.515	46.08
768.824	47.16
769.133	45.77
769.441	47.42
769.75	45.52
770.059	49.02
770.367	43.94
770.676	47.07
770.984	50.57
771.293	43.33
771.601	47.18
771.91	45.89
772.218	48.97
772.526	47.07
772.834	46.66
773.142	45.93
773.45	45.25
773.758	45.93
774.066	46.38
774.374	47.33
774.682	48.03
774.99	47.76
775.298	45.14
775.605	45.92
775.913	45.41
776.22	45.75
776.528	46.63
776.835	48.49
777.143	50.17
777.45	48.75
777.757	48.16
778.065	46.49
778.372	48.05
778.679	45.6
778.986	45.52
779.293	46.49
779.6	49.9
779.907	47.73
780.214	49.55
780.52	47.25
780.827	50.37
781.134	44.37
781.44	49.24
781.747	45.69
782.053	48.19
782.36	45.79
782.666	47.48
782.973	45.48
783.279	45.3
783.585	45.52
783.891	49.75
784.197	47.29
784.503	51.83
784.809	44.07
785.115	51.18
785.421	46.62
785.727	48.99
786.033	49.58
786.339	45.46
786.644	47.86
786.95	47.48
787.255	50.01
787.561	50.15
787.866	44.58
788.172	49.16
788.477	48.82
788.782	51.62
789.088	45.61
789.393	44.85
789.698	45.79
790.003	46.51
790.308	43.95
790.613	46.13
790.918	50.62
791.223	49.19
791.527	47.29
791.832	51.05
792.137	41.97
792.441	46.4
792.746	49.06
793.05	43.9
793.355	48.63
793.659	46.3
793.963	47.12
794.268	44.4
794.572	47.08
794.876	50.26
795.18	46.53
795.484	48.86
795.788	48.15
796.092	46.15
796.396	48.45
796.7	46.84
797.004	53.49
797.307	47.95
797.611	48.3
797.915	44.03
798.218	50.72
798.522	45.4
798.825	49.57
799.128	48.49
799.432	48.22
799.735	51.89
800.038	49.84
800.341	49.62
800.644	47.88
800.947	49.73
801.25	49.82
801.553	48.04
801.856	47.99
802.159	46.51
802.462	44.11
802.764	43.04
803.067	48.46
803.37	50.58
803.672	44.18
803.975	45.23
804.277	50.36
804.579	44.93
804.882	46.08
805.184	51.29
805.486	44.74
805.788	48.14
806.09	50.44
806.392	46.34
806.694	47.43
806.996	51.67
807.298	56.6
807.6	51.59
807.902	45.18
808.203	52.33
808.505	50.76
808.807	49.67
809.108	44.02
809.409	44.26
809.711	48.71
810.012	47.1
810.313	50.06
810.615	50.49
810.916	44.75
811.217	46.24
811.518	48.05
811.819	45.5
812.12	50.15
812.421	38.8
812.722	46.54
813.023	47.04
813.323	50.22
813.624	49.25
813.925	52.14
814.225	44.09
814.526	46.56
814.826	50.2
815.126	50.79
815.427	49.03
815.727	48.58
816.027	48.28
816.327	48.84
816.627	40.81
816.927	45.09
817.227	45.46
817.527	46.2
817.827	53.84
818.127	57
818.427	47.98
818.727	48.79
819.026	46.33
819.326	47.22
819.625	54.08
819.925	48.45
820.224	55.63
820.524	50.93
820.823	46.39
821.122	47.38
821.421	45.7
821.72	46
822.019	48.68
822.318	48.97
822.617	48.15
822.916	54.86
823.215	50.33
823.514	49.15
823.813	44.73
824.111	48.39
824.41	48.41
824.709	49.54
825.007	50.14
825.306	50.28
825.604	49.22
825.902	50.36
826.201	48.47
826.499	49.33
826.797	50.37
827.095	50.91
827.393	49.99
827.691	50.79
827.989	48.71
828.287	50.78
828.585	48.55
828.882	48.77
829.18	50.77
829.478	50.25
829.775	50.51
830.073	48.41
830.37	51.02
830.668	47.96
830.965	51.59
831.263	52.06
831.56	48.64
831.857	45.94
832.154	49.59
832.451	51.55
832.748	50.19
833.045	48
833.342	51.44
833.639	49.32
833.936	46.36
834.232	50.21
834.529	42.37
834.826	51.38
835.122	50.92
835.419	44.59
835.715	47.61
836.012	51.84
836.308	46.11
836.604	48.49
836.901	49.14
837.197	49.59
837.493	51.6
837.789	48.1
838.085	50.17
838.381	47.78
838.677	44.81
838.972	51.01
839.268	48.91
839.564	50.66
839.86	51.57
840.155	43.32
840.451	49.97
840.746	53.33
841.042	49.81
841.337	44.71
841.632	44.8
841.928	51.7
842.223	48.4
842.518	41.57
842.813	62.4
843.108	52.24
843.403	57.07
843.698	42.23
843.993	45.85
844.287	51.4
844.582	54.63
844.877	52.14
845.171	65.77
845.466	43.44
845.761	35.65
846.055	66.92
846.349	56.46
846.644	42.2
846.938	42.41
847.232	46.31
847.526	48.21
847.82	72.94
848.114	52.82
848.408	41.53
848.702	64.19
848.996	41.92
849.29	41.39
849.584	39.33
849.877	40.02
850.171	47.17
850.465	49.87
850.758	73.91
851.052	48.03
851.345	40.24
851.638	45.85
851.932	47.12
852.225	64.28
852.518	44.28
852.811	46.36
853.104	32.98
853.397	46.25
853.69	48.59
853.983	39.84
854.276	46.7
854.569	47.76
854.861	42.2
855.154	62.51
855.447	10.48
855.739	58.58
856.032	49.43
856.324	39.4
856.616	37.43
856.909	45.44
857.201	45.59
857.493	26.6
857.785	44.97
858.077	49.09
858.369	40.88
858.661	50.35
858.953	73.33
859.245	54.01
859.537	32.14
859.829	66.04
860.12	62.71
860.412	19.7
860.703	35.93
860.995	55.19
861.286	56.68
861.578	44.39
861.869	51.49
862.16	64.32
862.452	85.74
862.743	39.07
863.034	47.18
863.325	31.99
863.616	33.53
863.907	36.21
864.198	46.58
864.488	57.35
864.779	43.29
865.07	55.14
865.36	45.67
865.651	50.45
865.941	30.95
866.232	37.39
866.522	24.28
866.813	57.58
867.103	44.71
867.393	53.91
867.683	85.76
867.973	31.81
868.263	62.3
868.553	48.81
868.843	48.87
869.133	29.79
869.423	61.42
869.713	49.73
870.002	56.12
870.292	52.42
870.582	104.18
870.871	43.1
871.161	24.9
871.45	22.14
871.739	50.28
872.029	30.67
872.318	54.05
872.607	77.57
872.896	24.38
873.185	29.62
873.474	26.19
873.763	45.27
874.052	51.46
874.341	58.39
874.63	58.76
874.918	30.89
875.207	41.99
875.496	42.6
875.784	37.05
876.073	35.39
876.361	16.56
876.649	53.99
876.938	23.57
877.226	39.1
877.514	50.56
877.802	57.72
878.09	51.04
878.378	63.3
878.666	40.54
878.954	23.1
879.242	12.09
879.53	70.44
879.817	58.41
880.105	-3.33
880.392	59.33
880.68	58.6
880.967	31.83
881.255	31.2
881.542	43.15
881.83	17.64
882.117	77.08
882.404	30.05
882.691	53.53
882.978	44.14
883.265	32.53
883.552	55.06
883.839	60.21
884.126	54.35
884.413	59.92
884.699	55.48
884.986	48.57
885.273	48.52
885.559	48.52
885.846	48.52
