Data from 0388_forehead_Reflection__4__90.txt Node

Date: Fri Dec 15 16:59:48 CST 2023
User: ToomeyLab
Spectrometer: FLMS14357
Trigger mode: 0
Integration Time (sec): 1.000000E-2
Scans to average: 100
Electric dark correction enabled: true
Nonlinearity correction enabled: false
Boxcar width: 0
XAxis mode: Wavelengths
Number of Pixels in Spectrum: 2048
>>>>>Begin Spectral Data<<<<<
189.047	59.29
189.435	59.29
189.823	59.29
190.211	44.3
190.599	-50.14
190.987	-13.23
191.375	74.3
191.763	-64.65
192.151	-124865937191000
192.538	160.17
192.926	10.66
193.314	282.17
193.702	57.58
194.089	1165.77
194.477	-145.45
194.864	1483.46
195.252	78.36
195.639	52.6
196.027	-121.4
196.414	62.81
196.801	69.91
197.189	109.62
197.576	43.08
197.963	8.2
198.351	9.06
198.738	3.08
199.125	36.02
199.512	71.87
199.899	23.72
200.286	34.32
200.673	64.67
201.06	43.92
201.447	19.69
201.833	53.53
202.22	35.76
202.607	12.78
202.994	11.11
203.38	29.38
203.767	67.85
204.154	30.23
204.54	38.45
204.927	-27.44
205.313	5.71
205.699	6.93
206.086	57.84
206.472	48.38
206.858	65.9
207.245	-28.46
207.631	41.46
208.017	11.88
208.403	34.71
208.789	16.42
209.175	27.74
209.561	15
209.947	50.66
210.333	-2.18
210.719	24.42
211.105	81.08
211.491	-16.61
211.876	12.42
212.262	32.15
212.648	28.25
213.034	34.46
213.419	-3.61
213.805	35.28
214.19	43.97
214.576	12.07
214.961	-10.4
215.346	-32.63
215.732	20.58
216.117	49.62
216.502	9.06
216.888	48.78
217.273	40.71
217.658	37.99
218.043	52.3
218.428	-14.38
218.813	3.15
219.198	-7.19
219.583	20.37
219.968	25.08
220.353	7.72
220.738	25.54
221.122	19.58
221.507	16.27
221.892	-1.11
222.276	2.98
222.661	10.68
223.046	16.39
223.43	26.03
223.815	21.85
224.199	6.4
224.583	6.87
224.968	8.81
225.352	24.11
225.736	3.01
226.121	-7.11
226.505	11.86
226.889	7.79
227.273	8.23
227.657	15.71
228.041	5.12
228.425	1.95
228.809	5.03
229.193	6.38
229.577	4.56
229.961	5.42
230.344	4.22
230.728	3.27
231.112	3.44
231.495	3.71
231.879	2.48
232.263	5.54
232.646	4.64
233.03	5.05
233.413	1.68
233.797	4.87
234.18	4.16
234.563	3.96
234.946	2.35
235.33	3.94
235.713	5.09
236.096	3.86
236.479	5.18
236.862	2.63
237.245	3.86
237.628	3.12
238.011	5.61
238.394	7.11
238.777	5.48
239.16	2.09
239.543	4.32
239.925	6.77
240.308	4.58
240.691	5
241.073	7.19
241.456	3.21
241.838	4.17
242.221	2.95
242.603	4.76
242.986	3.72
243.368	3.34
243.75	4.25
244.133	3.38
244.515	3.41
244.897	3.62
245.279	4.15
245.661	3.36
246.043	2.7
246.425	3.66
246.807	6.06
247.189	4.66
247.571	4.61
247.953	4.28
248.335	3.64
248.717	3.58
249.098	3.29
249.48	3.32
249.862	3.63
250.243	3.55
250.625	3.76
251.006	3.93
251.388	2.85
251.769	3.52
252.151	4.82
252.532	4.34
252.913	4
253.295	4.12
253.676	4.02
254.057	4.42
254.438	4.34
254.819	3.25
255.2	3.38
255.581	3.84
255.962	3.93
256.343	3.65
256.724	2.36
257.105	4.23
257.486	3.56
257.867	5.03
258.247	4.78
258.628	3.95
259.009	2.92
259.389	3.9
259.77	3.27
260.15	3.53
260.531	3.15
260.911	4.12
261.292	3.42
261.672	3.67
262.052	3.48
262.432	3.62
262.813	3.44
263.193	3.56
263.573	3.67
263.953	3.31
264.333	3.57
264.713	4.51
265.093	3.95
265.473	4.39
265.853	3.48
266.233	3.49
266.612	2.04
266.992	2.5
267.372	4.59
267.752	3.91
268.131	3.73
268.511	4.27
268.89	4.45
269.27	3.86
269.649	3.7
270.029	3
270.408	4.27
270.787	4.18
271.167	3.92
271.546	4.23
271.925	3.88
272.304	4.03
272.683	4.35
273.062	3.32
273.441	3.78
273.82	3.14
274.199	3.59
274.578	3.76
274.957	3.67
275.336	3.64
275.715	3.11
276.093	2.96
276.472	4.06
276.851	3.74
277.229	3.8
277.608	3.01
277.986	2.98
278.365	3.73
278.743	3.52
279.122	4.35
279.5	3.41
279.878	3.98
280.257	3.58
280.635	2.67
281.013	3.29
281.391	4.11
281.769	4.52
282.147	4.4
282.525	4.33
282.903	3.69
283.281	4.04
283.659	3.92
284.037	3.58
284.415	3.63
284.792	3.74
285.17	3.39
285.548	3.2
285.925	3.69
286.303	4.09
286.68	3.49
287.058	3.61
287.435	3.79
287.813	3.85
288.19	3.96
288.567	3.87
288.945	3.85
289.322	3.78
289.699	3.44
290.076	3.84
290.453	3.96
290.83	3.54
291.207	4.01
291.584	4
291.961	4.14
292.338	3.64
292.715	4.35
293.092	3.99
293.469	3.56
293.845	4.25
294.222	3.67
294.599	3.5
294.975	3.64
295.352	4.3
295.728	3.68
296.105	3.92
296.481	4.36
296.858	4.3
297.234	3.91
297.61	4.25
297.986	4.05
298.363	4
298.739	4.19
299.115	3.86
299.491	3.9
299.867	4.23
300.243	4.14
300.619	4.12
300.995	4.2
301.371	4.5
301.746	4.26
302.122	4.74
302.498	4.36
302.874	4.8
303.249	4.74
303.625	4.29
304	4.9
304.376	5.08
304.751	3.87
305.127	5.06
305.502	4.8
305.878	3.73
306.253	4.71
306.628	4.91
307.003	4.57
307.378	4.97
307.754	5.07
308.129	4.23
308.504	5.32
308.879	4.54
309.254	5.92
309.629	5.89
310.003	5.23
310.378	6.04
310.753	5.38
311.128	5.52
311.502	5.43
311.877	5.56
312.252	4.96
312.626	5.29
313.001	5.32
313.375	5.41
313.75	5.07
314.124	5.72
314.498	5.6
314.873	5.6
315.247	5.19
315.621	5.5
315.995	5.04
316.369	5.48
316.743	5.3
317.117	6.22
317.491	5.87
317.865	5.7
318.239	5.71
318.613	6.06
318.987	6.37
319.361	5.97
319.734	7.23
320.108	6.64
320.482	6.07
320.855	6.4
321.229	5.83
321.602	5.87
321.976	6.88
322.349	6.24
322.723	6.08
323.096	6.31
323.469	6.27
323.843	6.15
324.216	6.82
324.589	6.7
324.962	6.54
325.335	6.22
325.708	6.97
326.081	6.77
326.454	6.56
326.827	6.48
327.2	6.89
327.573	6.97
327.945	6.9
328.318	6.67
328.691	6.38
329.063	6.74
329.436	6.61
329.809	7.45
330.181	7.27
330.553	7.06
330.926	7.11
331.298	7.7
331.671	7.27
332.043	8.17
332.415	7.46
332.787	7.58
333.159	7.71
333.532	8.15
333.904	7.7
334.276	7.59
334.648	7.18
335.02	7.54
335.391	7.34
335.763	7.68
336.135	7.13
336.507	8.61
336.879	7.47
337.25	7.45
337.622	7.7
337.993	8.21
338.365	8.02
338.736	7.7
339.108	8.59
339.479	7.81
339.851	7.92
340.222	8.23
340.593	8.13
340.964	8.12
341.336	8.86
341.707	7.98
342.078	8.83
342.449	8.45
342.82	8.34
343.191	8.73
343.562	8.52
343.933	8.62
344.303	8.39
344.674	8.59
345.045	8.17
345.416	8.51
345.786	8.64
346.157	9.18
346.527	8.18
346.898	8.39
347.268	8.84
347.639	8.85
348.009	8.92
348.38	8.19
348.75	8.79
349.12	8.54
349.49	9.47
349.861	8.99
350.231	8.95
350.601	9.46
350.971	9
351.341	9.12
351.711	9.27
352.081	9.27
352.45	8.98
352.82	9.44
353.19	8.92
353.56	9.19
353.929	9.57
354.299	9.39
354.669	9.23
355.038	10.13
355.408	9.02
355.777	9.64
356.147	9.89
356.516	10.02
356.885	9.65
357.254	9.66
357.624	10.18
357.993	9.83
358.362	9.25
358.731	9.64
359.1	9.88
359.469	9.97
359.838	10.01
360.207	10.02
360.576	10.01
360.945	9.91
361.314	10.58
361.682	10.44
362.051	9.87
362.42	10.25
362.788	10.27
363.157	10.45
363.525	10.57
363.894	10.57
364.262	10.38
364.631	10.48
364.999	10.66
365.367	10.18
365.735	11.33
366.104	10.61
366.472	10.85
366.84	10.33
367.208	10.7
367.576	10.96
367.944	11.09
368.312	11.22
368.68	11
369.048	11.51
369.416	10.87
369.783	10.95
370.151	11.49
370.519	11.19
370.886	11.49
371.254	10.7
371.621	11.44
371.989	11.42
372.356	11.18
372.724	11.44
373.091	11.17
373.458	11.32
373.826	11.74
374.193	11.37
374.56	11.51
374.927	12.07
375.294	11.65
375.661	11.53
376.028	11.78
376.395	11.64
376.762	11.92
377.129	11.83
377.496	11.89
377.863	12.29
378.229	11.8
378.596	12.19
378.963	12.28
379.329	12.15
379.696	12.3
380.062	12.36
380.429	12.43
380.795	12.4
381.161	12.41
381.528	12.52
381.894	12.46
382.26	12.43
382.626	12.73
382.993	12.31
383.359	12.63
383.725	12.37
384.091	13.03
384.457	13.41
384.823	12.74
385.188	13.09
385.554	12.89
385.92	12.97
386.286	13.01
386.651	13.11
387.017	13.47
387.383	13.18
387.748	13.07
388.114	13.33
388.479	13.09
388.845	13.54
389.21	13.61
389.575	13.38
389.94	13.49
390.306	13.56
390.671	13.84
391.036	13.11
391.401	13.36
391.766	13.75
392.131	13.63
392.496	13.67
392.861	13.83
393.226	13.91
393.591	13.8
393.956	13.54
394.32	13.66
394.685	13.65
395.05	13.78
395.414	14.37
395.779	13.94
396.143	13.85
396.508	14.29
396.872	14.03
397.236	14.19
397.601	14.01
397.965	14.09
398.329	14.21
398.694	14.31
399.058	14.27
399.422	14.08
399.786	14.56
400.15	14.58
400.514	14.63
400.878	14.59
401.242	14.87
401.605	14.74
401.969	15.15
402.333	14.67
402.697	14.82
403.06	14.64
403.424	15.01
403.787	14.72
404.151	15.01
404.514	15.04
404.878	14.98
405.241	15.23
405.604	15.08
405.968	15.19
406.331	15.01
406.694	15.06
407.057	14.98
407.42	15.31
407.783	15.16
408.146	15.25
408.509	15.31
408.872	15.33
409.235	15.41
409.598	15.71
409.961	15.41
410.323	15.53
410.686	15.46
411.049	15.55
411.411	15.74
411.774	15.89
412.136	15.64
412.499	15.68
412.861	15.62
413.223	15.6
413.586	15.82
413.948	15.79
414.31	15.9
414.672	15.72
415.035	15.96
415.397	16.3
415.759	16.2
416.121	16.36
416.483	16.28
416.845	16.14
417.206	16.17
417.568	16.31
417.93	15.93
418.292	16.03
418.653	16.18
419.015	16.45
419.377	16.46
419.738	16.51
420.1	16.19
420.461	16.33
420.822	16.34
421.184	16.27
421.545	16.34
421.906	16.29
422.267	16.44
422.629	16.5
422.99	16.39
423.351	16.19
423.712	16.3
424.073	16.49
424.434	16.38
424.795	16.66
425.155	16.73
425.516	16.63
425.877	16.68
426.238	16.58
426.598	16.79
426.959	16.69
427.32	16.69
427.68	16.79
428.041	17.01
428.401	17.2
428.761	16.99
429.122	17.16
429.482	17.08
429.842	17.24
430.202	17.19
430.563	17.39
430.923	17.24
431.283	17.56
431.643	17.43
432.003	17.37
432.363	17.8
432.722	17.56
433.082	17.84
433.442	17.81
433.802	17.9
434.161	17.77
434.521	17.89
434.881	17.87
435.24	17.8
435.6	17.82
435.959	17.76
436.319	17.73
436.678	17.89
437.037	18
437.396	18.13
437.756	18.01
438.115	17.91
438.474	18.35
438.833	18.25
439.192	18.18
439.551	18.24
439.91	18.24
440.269	18.35
440.628	18.4
440.987	18.43
441.345	18.29
441.704	18.33
442.063	18.34
442.421	18.35
442.78	18.41
443.138	18.22
443.497	18.38
443.855	18.38
444.214	18.71
444.572	18.61
444.93	18.75
445.288	18.91
445.647	18.82
446.005	18.71
446.363	18.82
446.721	19.09
447.079	18.7
447.437	18.83
447.795	18.77
448.153	18.71
448.51	18.79
448.868	18.68
449.226	18.66
449.584	18.66
449.941	18.93
450.299	18.96
450.656	19.08
451.014	19
451.371	19.18
451.729	19.23
452.086	19.42
452.443	19.09
452.801	19.45
453.158	19.64
453.515	19.39
453.872	19.66
454.229	19.41
454.586	19.45
454.943	19.59
455.3	19.39
455.657	19.64
456.014	19.69
456.371	19.87
456.727	19.8
457.084	19.9
457.441	19.89
457.797	19.81
458.154	20.14
458.51	20.19
458.867	20.02
459.223	20.06
459.58	19.9
459.936	20.16
460.292	20.28
460.648	20.14
461.005	20.24
461.361	20.17
461.717	20.02
462.073	19.79
462.429	19.78
462.785	19.74
463.141	20.07
463.496	20.19
463.852	20.32
464.208	20.36
464.564	20.54
464.919	20.55
465.275	20.63
465.631	20.68
465.986	20.63
466.342	20.52
466.697	20.68
467.052	20.74
467.408	20.81
467.763	20.67
468.118	20.83
468.473	20.72
468.829	20.87
469.184	20.75
469.539	21.03
469.894	20.81
470.249	21
470.603	21
470.958	21.29
471.313	21.19
471.668	21.22
472.023	21.2
472.377	21.15
472.732	21.28
473.086	21.14
473.441	21.44
473.795	21.32
474.15	21.32
474.504	21.41
474.859	21.47
475.213	21.32
475.567	21.33
475.921	21.36
476.275	21.51
476.63	21.67
476.984	21.94
477.338	21.65
477.692	21.54
478.045	21.75
478.399	21.74
478.753	21.74
479.107	21.8
479.461	21.72
479.814	21.72
480.168	21.97
480.521	21.68
480.875	21.71
481.228	21.9
481.582	21.86
481.935	21.84
482.289	21.94
482.642	22.04
482.995	21.87
483.348	22.05
483.701	22.01
484.055	21.86
484.408	21.89
484.761	21.85
485.114	21.71
485.466	21.53
485.819	21.47
486.172	21.08
486.525	20.92
486.878	20.87
487.23	21.08
487.583	21.33
487.936	21.62
488.288	21.81
488.641	22
488.993	21.73
489.345	21.76
489.698	21.62
490.05	21.53
490.402	21.54
490.754	21.47
491.107	21.71
491.459	21.76
491.811	22.24
492.163	22.3
492.515	22.44
492.866	22.55
493.218	22.48
493.57	22.26
493.922	22.02
494.274	21.93
494.625	22.03
494.977	22.19
495.328	22.4
495.68	22.73
496.031	22.93
496.383	23.01
496.734	23.23
497.086	23.32
497.437	23.31
497.788	23.14
498.139	23.16
498.49	23.36
498.842	23.13
499.193	23.12
499.544	23.16
499.894	23.2
500.245	23.29
500.596	23.17
500.947	23.27
501.298	23.47
501.648	23.49
501.999	23.53
502.35	23.45
502.7	23.67
503.051	23.56
503.401	23.73
503.752	24.01
504.102	23.7
504.452	23.82
504.803	23.7
505.153	23.93
505.503	23.96
505.853	23.94
506.203	23.99
506.553	23.9
506.903	23.82
507.253	23.84
507.603	23.86
507.953	23.94
508.303	24.1
508.652	24.19
509.002	24.18
509.352	24.33
509.701	24.08
510.051	24.22
510.4	24.18
510.75	24.1
511.099	24.15
511.449	24.05
511.798	24.26
512.147	24.1
512.496	24.19
512.846	24.32
513.195	24.41
513.544	24.36
513.893	24.37
514.242	24.31
514.591	24.5
514.939	24.36
515.288	24.3
515.637	24.5
515.986	24.68
516.334	24.54
516.683	24.8
517.032	24.79
517.38	24.55
517.729	24.85
518.077	24.71
518.426	24.87
518.774	25.04
519.122	24.91
519.47	24.82
519.819	24.67
520.167	24.8
520.515	24.71
520.863	24.69
521.211	24.67
521.559	24.71
521.907	24.6
522.255	24.79
522.602	24.98
522.95	24.87
523.298	24.94
523.645	25.3
523.993	25.02
524.341	25.42
524.688	25.29
525.036	25.35
525.383	25.41
525.73	25.36
526.078	25.38
526.425	25.08
526.772	25.43
527.119	25.33
527.466	25.24
527.814	25.1
528.161	25.22
528.508	25.02
528.854	25.08
529.201	25.13
529.548	25.18
529.895	25.24
530.242	25.07
530.588	25.02
530.935	24.84
531.282	24.6
531.628	24.47
531.975	24.66
532.321	24.8
532.667	25.04
533.014	25.26
533.36	25.37
533.706	25.51
534.052	25.65
534.399	25.53
534.745	25.48
535.091	25.55
535.437	25.4
535.783	25.17
536.129	25.14
536.474	25.27
536.82	25.43
537.166	25.57
537.512	25.85
537.857	25.97
538.203	26.04
538.549	26.01
538.894	25.82
539.239	25.94
539.585	25.71
539.93	26.07
540.276	26.21
540.621	26.22
540.966	26.24
541.311	26.22
541.656	26.46
542.001	26.51
542.346	26.55
542.691	26.32
543.036	26.19
543.381	25.97
543.726	25.82
544.071	25.74
544.415	25.75
544.76	25.86
545.105	26.02
545.449	26.18
545.794	26.32
546.138	26.32
546.483	26.47
546.827	26.63
547.171	26.7
547.516	26.89
547.86	26.6
548.204	26.83
548.548	26.79
548.892	26.94
549.236	26.81
549.58	26.72
549.924	26.81
550.268	26.99
550.612	27.19
550.956	27.26
551.3	27.12
551.643	27.39
551.987	27.44
552.33	27.41
552.674	27.46
553.017	27.52
553.361	27.66
553.704	27.97
554.048	27.46
554.391	27.56
554.734	27.57
555.077	27.57
555.42	27.58
555.764	27.46
556.107	27.47
556.45	27.72
556.793	27.92
557.135	27.84
557.478	27.93
557.821	28.11
558.164	27.79
558.507	28.02
558.849	27.99
559.192	28.03
559.534	27.96
559.877	28.49
560.219	28.13
560.562	28.09
560.904	28.13
561.246	28.13
561.589	28.23
561.931	28.2
562.273	28.22
562.615	28.34
562.957	28.09
563.299	28.11
563.641	28.26
563.983	28.4
564.325	28.1
564.667	28.48
565.008	28.35
565.35	28.34
565.692	28.43
566.033	28.65
566.375	28.62
566.716	28.74
567.058	28.67
567.399	28.47
567.741	28.56
568.082	28.55
568.423	28.59
568.764	28.63
569.105	28.3
569.447	28.69
569.788	28.55
570.129	28.69
570.47	28.72
570.811	28.89
571.151	28.95
571.492	29.03
571.833	28.9
572.174	28.88
572.514	28.78
572.855	28.94
573.195	29.08
573.536	29.03
573.876	28.93
574.217	28.98
574.557	28.92
574.898	28.89
575.238	28.77
575.578	28.84
575.918	29.03
576.258	29.08
576.598	29.24
576.938	29.23
577.278	28.84
577.618	29.13
577.958	28.94
578.298	28.93
578.638	29.09
578.977	29.26
579.317	29.44
579.657	29.42
579.996	29.34
580.336	29.55
580.675	29.45
581.014	29.33
581.354	29.43
581.693	29.68
582.032	29.8
582.372	29.79
582.711	29.8
583.05	29.56
583.389	29.79
583.728	29.57
584.067	30.08
584.406	30.12
584.745	29.7
585.083	29.78
585.422	30.12
585.761	30.1
586.1	29.94
586.438	30.11
586.777	30.03
587.115	30.12
587.454	30
587.792	30.04
588.13	30.14
588.469	30.13
588.807	30.12
589.145	30.12
589.483	30.19
589.821	30.32
590.159	30.19
590.497	30.35
590.835	30.33
591.173	29.99
591.511	30.42
591.849	30.22
592.187	30.26
592.524	30.26
592.862	30.1
593.2	30.46
593.537	30.57
593.875	30.15
594.212	30.28
594.55	30.7
594.887	30.66
595.224	30.51
595.561	30.35
595.899	30.64
596.236	30.8
596.573	30.31
596.91	30.23
597.247	30.48
597.584	30.77
597.921	30.76
598.258	30.37
598.594	30.63
598.931	30.65
599.268	30.58
599.604	30.52
599.941	30.47
600.277	30.68
600.614	30.48
600.95	30.43
601.287	30.52
601.623	30.73
601.959	30.66
602.296	31.1
602.632	31.03
602.968	30.94
603.304	31.14
603.64	30.95
603.976	30.88
604.312	30.96
604.648	30.87
604.984	31
605.319	31.05
605.655	31.11
605.991	30.91
606.326	30.83
606.662	31.06
606.998	30.85
607.333	31.04
607.668	30.95
608.004	31.07
608.339	31.36
608.674	31.13
609.01	31.34
609.345	31.02
609.68	31.46
610.015	31.14
610.35	31.39
610.685	31.48
611.02	31.65
611.355	31.79
611.689	31.59
612.024	31.19
612.359	31.35
612.694	31.3
613.028	31.49
613.363	31.35
613.697	31.82
614.032	31.65
614.366	31.64
614.7	31.83
615.035	31.46
615.369	31.75
615.703	31.67
616.037	31.9
616.371	31.72
616.705	31.7
617.039	31.69
617.373	32.23
617.707	31.78
618.041	31.98
618.375	31.98
618.709	31.93
619.042	31.98
619.376	32.24
619.71	32.11
620.043	31.98
620.377	32.22
620.71	32.06
621.043	32.42
621.377	32.42
621.71	32.1
622.043	31.94
622.376	32.2
622.709	32.29
623.043	31.71
623.376	32.6
623.709	32.38
624.041	32.55
624.374	32.33
624.707	32.28
625.04	32.62
625.373	32.1
625.705	32.19
626.038	32.3
626.37	32.3
626.703	32.6
627.035	32.52
627.368	32.73
627.7	32.41
628.032	32.09
628.365	32.89
628.697	32.52
629.029	32.47
629.361	32.36
629.693	32.5
630.025	32.25
630.357	32.58
630.689	32.23
631.021	32.55
631.353	33.05
631.684	32.94
632.016	32.41
632.348	32.21
632.679	32.98
633.011	32.71
633.342	32.85
633.674	32.57
634.005	33.21
634.336	33.2
634.668	33.11
634.999	33.11
635.33	33.35
635.661	32.71
635.992	32.99
636.323	33.33
636.654	33.35
636.985	33.07
637.316	32.96
637.647	33.32
637.977	33.17
638.308	33.12
638.639	32.49
638.969	33.19
639.3	32.78
639.63	32.97
639.961	33.3
640.291	32.96
640.622	33.1
640.952	32.96
641.282	33.4
641.612	33.51
641.943	33.37
642.273	33.21
642.603	33.81
642.933	33.28
643.263	33.26
643.592	33.74
643.922	33.49
644.252	33.29
644.582	33.59
644.911	32.93
645.241	33.44
645.571	34.01
645.9	32.81
646.23	33.53
646.559	34.14
646.888	33.28
647.218	33.01
647.547	34.02
647.876	33.85
648.205	33.73
648.534	33.7
648.863	33.52
649.192	33.55
649.521	33.48
649.85	33.66
650.179	33.44
650.508	33.56
650.837	33.89
651.165	34.02
651.494	33.69
651.822	34.37
652.151	33.85
652.479	33.47
652.808	33.52
653.136	34.07
653.465	34
653.793	33.52
654.121	33.71
654.449	34.17
654.777	33.8
655.105	33.57
655.433	33.68
655.761	34.28
656.089	34.33
656.417	33.87
656.745	33.81
657.073	34.17
657.4	34.31
657.728	34.05
658.056	33.98
658.383	34.17
658.711	34.21
659.038	34.45
659.365	34.12
659.693	34.55
660.02	34.21
660.347	33.97
660.674	34.14
661.001	34.54
661.329	34
661.656	34.17
661.982	34.04
662.309	34.09
662.636	33.44
662.963	33.88
663.29	33.95
663.616	34.03
663.943	34.09
664.27	34.74
664.596	34.5
664.923	34.13
665.249	34.29
665.576	34.25
665.902	34.95
666.228	34.28
666.554	34.12
666.881	34.27
667.207	34.49
667.533	34.61
667.859	34.72
668.185	34.52
668.511	34.25
668.837	34.21
669.162	34.72
669.488	34.08
669.814	34.95
670.139	34.58
670.465	35.49
670.791	34.36
671.116	35.23
671.442	34.25
671.767	35.31
672.092	34.81
672.418	34.95
672.743	34.66
673.068	34.58
673.393	34.94
673.718	35.3
674.043	34.4
674.368	34.92
674.693	35.37
675.018	34.9
675.343	34.8
675.667	34.82
675.992	35.37
676.317	34.94
676.641	35.89
676.966	35.69
677.29	34.71
677.615	35.65
677.939	35.03
678.264	35.58
678.588	35.73
678.912	35.35
679.236	36.03
679.56	35.01
679.885	36.1
680.209	34.71
680.532	35.12
680.856	35.88
681.18	35.07
681.504	35.12
681.828	35.17
682.152	34.66
682.475	35.44
682.799	34.99
683.122	35.44
683.446	34.76
683.769	35.68
684.093	35.13
684.416	35.91
684.739	35.12
685.062	35.4
685.386	35.15
685.709	35.14
686.032	35.29
686.355	35.89
686.678	35.74
687.001	35.36
687.324	35.64
687.646	35.39
687.969	35.96
688.292	35.16
688.614	35.4
688.937	35.11
689.26	35.47
689.582	35.49
689.904	35.4
690.227	35.25
690.549	36.26
690.871	35.76
691.194	35.5
691.516	35.9
691.838	35.11
692.16	35.43
692.482	35.95
692.804	35.55
693.126	35.59
693.448	36.16
693.769	36.1
694.091	34.87
694.413	35.79
694.735	35.31
695.056	35.6
695.378	35.82
695.699	35.88
696.021	35.32
696.342	35.39
696.663	35.28
696.984	34.83
697.306	35.59
697.627	36.05
697.948	36.21
698.269	36.28
698.59	36.53
698.911	35.77
699.232	36.13
699.553	36.28
699.873	36.08
700.194	36.48
700.515	36.55
700.835	35.78
701.156	36.32
701.477	35.83
701.797	35.39
702.117	35.79
702.438	36.06
702.758	35.7
703.078	35.71
703.398	35.4
703.719	35.64
704.039	36.3
704.359	37.17
704.679	36.73
704.999	36.85
705.319	36.05
705.638	35.88
705.958	35.3
706.278	36.06
706.597	36.31
706.917	36.2
707.237	36.73
707.556	36.65
707.876	36.08
708.195	35.92
708.514	36.12
708.834	35.98
709.153	36.52
709.472	36.51
709.791	36.7
710.11	36.08
710.429	36.43
710.748	36.69
711.067	36.48
711.386	37.37
711.705	36.25
712.023	36.63
712.342	36.49
712.661	36.5
712.979	36.3
713.298	36.67
713.616	36.46
713.935	37.16
714.253	35.31
714.572	36.31
714.89	36.08
715.208	37.53
715.526	36.33
715.844	37.26
716.162	37.3
716.48	37.71
716.798	37.24
717.116	36.76
717.434	37.04
717.752	36.04
718.069	37.29
718.387	36.67
718.705	37.29
719.022	35.76
719.34	35.71
719.657	35.86
719.975	37.52
720.292	37.64
720.609	36.6
720.927	36.88
721.244	38.21
721.561	36.98
721.878	38.16
722.195	36.22
722.512	36.87
722.829	36.8
723.146	37.35
723.463	37.74
723.779	35.87
724.096	36.63
724.413	36.35
724.729	37.12
725.046	36.22
725.362	36.85
725.679	36.33
725.995	35.85
726.311	38.31
726.628	37.04
726.944	37.36
727.26	38.14
727.576	37.73
727.892	37.37
728.208	37.03
728.524	37.94
728.84	36.2
729.156	36.63
729.472	36.67
729.787	38.28
730.103	37.43
730.419	37.43
730.734	37.06
731.05	37.18
731.365	36.05
731.681	36.19
731.996	37.28
732.311	36.56
732.626	38.08
732.942	36.97
733.257	37.37
733.572	38.08
733.887	37.14
734.202	38.08
734.517	37.24
734.832	37.83
735.146	38.57
735.461	37.87
735.776	36.33
736.091	36.34
736.405	38.02
736.72	35.97
737.034	37.67
737.349	38.08
737.663	39.36
737.977	37.32
738.292	37.37
738.606	37.29
738.92	39.06
739.234	38.23
739.548	37.21
739.862	37.73
740.176	36.73
740.49	39.06
740.804	38.81
741.117	37.78
741.431	37.27
741.745	36.93
742.058	39.01
742.372	38.15
742.685	37.84
742.999	36.73
743.312	37.7
743.626	37.54
743.939	35.49
744.252	38.32
744.565	37.24
744.878	37.59
745.191	36.6
745.505	36.42
745.817	38.97
746.13	38.9
746.443	38.52
746.756	38.72
747.069	37.99
747.381	37.86
747.694	35.89
748.007	36.92
748.319	36.32
748.632	38.23
748.944	37
749.256	38.82
749.569	38.34
749.881	36.71
750.193	36.87
750.505	36.53
750.817	37.56
751.129	39.36
751.441	37.21
751.753	38.2
752.065	39.11
752.377	39.25
752.689	38.92
753	38.97
753.312	37.24
753.624	37.85
753.935	38.21
754.247	39.3
754.558	39.55
754.869	38.89
755.181	38.04
755.492	38.96
755.803	39.48
756.114	37.02
756.425	36.26
756.736	35.43
757.047	39.29
757.358	38.52
757.669	36.66
757.98	36.58
758.291	38.95
758.601	38.91
758.912	39.51
759.223	39.09
759.533	38.2
759.844	38.09
760.154	36.09
760.464	38.01
760.775	37.82
761.085	38.7
761.395	39.01
761.705	38.6
762.016	37.18
762.326	38.98
762.636	36.93
762.945	36.96
763.255	38.55
763.565	38.72
763.875	38.38
764.185	37.74
764.494	38.67
764.804	37.76
765.113	38.46
765.423	38.06
765.732	38.74
766.042	37.64
766.351	38.9
766.66	38.78
766.97	38.73
767.279	36.29
767.588	39.08
767.897	39.05
768.206	37.43
768.515	38.79
768.824	38.55
769.133	38.37
769.441	38.15
769.75	37.59
770.059	39.89
770.367	38.8
770.676	40.14
770.984	40.45
771.293	40.65
771.601	39.41
771.91	36.44
772.218	38.45
772.526	41
772.834	37.97
773.142	37.37
773.45	35.67
773.758	38.7
774.066	36.08
774.374	35.5
774.682	38.31
774.99	42.84
775.298	39.05
775.605	39.05
775.913	36.9
776.22	41.47
776.528	37.91
776.835	38.57
777.143	37.15
777.45	36.56
777.757	38.86
778.065	36.82
778.372	33.69
778.679	34.42
778.986	37.88
779.293	37.05
779.6	39.14
779.907	39.29
780.214	38.71
780.52	40.02
780.827	39.56
781.134	39.54
781.44	34.36
781.747	38.16
782.053	36.88
782.36	36.6
782.666	40.92
782.973	37.79
783.279	38.36
783.585	38.26
783.891	41.33
784.197	41.67
784.503	40.71
784.809	38.51
785.115	38.12
785.421	41.29
785.727	38.5
786.033	36.12
786.339	36.13
786.644	37.6
786.95	36.95
787.255	37.1
787.561	42.18
787.866	40.4
788.172	40.14
788.477	36.45
788.782	41.16
789.088	41.46
789.393	38.45
789.698	36.2
790.003	39.86
790.308	36.46
790.613	42.33
790.918	40.76
791.223	41.32
791.527	35.78
791.832	42.95
792.137	38.88
792.441	38.22
792.746	41.39
793.05	38.86
793.355	37.47
793.659	41.16
793.963	37.72
794.268	41.71
794.572	37.31
794.876	36.54
795.18	38.67
795.484	41.11
795.788	43.32
796.092	31.49
796.396	44.12
796.7	34.4
797.004	38.14
797.307	36.38
797.611	39.89
797.915	36.68
798.218	40.98
798.522	40.9
798.825	37.55
799.128	37.9
799.432	37.26
799.735	37.1
800.038	41.02
800.341	39.43
800.644	33.9
800.947	37.18
801.25	37.95
801.553	36.91
801.856	35.88
802.159	38.63
802.462	37.78
802.764	38.49
803.067	36.81
803.37	41.18
803.672	37.19
803.975	36.59
804.277	38
804.579	33.49
804.882	37.8
805.184	37.49
805.486	34.68
805.788	42.42
806.09	41.15
806.392	37.39
806.694	43.44
806.996	38
807.298	40.62
807.6	38.81
807.902	41.83
808.203	35.31
808.505	44.94
808.807	33.57
809.108	38.25
809.409	37.54
809.711	35.68
810.012	32.96
810.313	42.34
810.615	38.95
810.916	35.06
811.217	41.34
811.518	42.5
811.819	44.2
812.12	43.39
812.421	35.21
812.722	38.92
813.023	42.77
813.323	39.51
813.624	36.2
813.925	43.73
814.225	36.15
814.526	42.63
814.826	35.95
815.126	37.34
815.427	38.86
815.727	38.99
816.027	43.8
816.327	36.41
816.627	36.92
816.927	45.29
817.227	38.69
817.527	34.42
817.827	46.65
818.127	33.69
818.427	41.81
818.727	38.72
819.026	34.09
819.326	42.93
819.625	34.41
819.925	43.19
820.224	45.45
820.524	40.6
820.823	44.19
821.122	39.9
821.421	41.94
821.72	37.17
822.019	39.31
822.318	39.31
822.617	36.35
822.916	38.95
823.215	37.05
823.514	37.01
823.813	37.64
824.111	38.11
824.41	41.13
824.709	39.21
825.007	38.58
825.306	40.07
825.604	40.14
825.902	39.6
826.201	39
826.499	38.5
826.797	39.28
827.095	38.21
827.393	38.13
827.691	38.85
827.989	38.31
828.287	39.07
828.585	38.38
828.882	41.46
829.18	37.69
829.478	41.1
829.775	40.94
830.073	39.84
830.37	40.89
830.668	37.65
830.965	41.01
831.263	39.42
831.56	39.74
831.857	37.37
832.154	41.31
832.451	39.47
832.748	41.64
833.045	39.9
833.342	41.93
833.639	38.65
833.936	37.95
834.232	43.18
834.529	38.78
834.826	34.44
835.122	37.69
835.419	43.37
835.715	34.12
836.012	40.06
836.308	36.51
836.604	42
836.901	35.85
837.197	37.16
837.493	39.58
837.789	39.71
838.085	40.72
838.381	43.05
838.677	36.71
838.972	38.87
839.268	38
839.564	38.97
839.86	37.83
840.155	37.02
840.451	34.55
840.746	40.32
841.042	43.81
841.337	42.38
841.632	49.7
841.928	39.32
842.223	36.54
842.518	35.67
842.813	50.44
843.108	31.49
843.403	45.8
843.698	33.91
843.993	39.04
844.287	35.78
844.582	34.82
844.877	39.99
845.171	41.21
845.466	45.66
845.761	41.37
846.055	49.68
846.349	42.84
846.644	35.33
846.938	29.11
847.232	50.59
847.526	34.98
847.82	59.19
848.114	32.31
848.408	40.04
848.702	44.48
848.996	27.38
849.29	37.77
849.584	43.78
849.877	44.87
850.171	45.46
850.465	48.33
850.758	44.12
851.052	57.8
851.345	47.58
851.638	34.98
851.932	22.47
852.225	30.84
852.518	53.25
852.811	48.8
853.104	36.09
853.397	45.8
853.69	39.95
853.983	9.95
854.276	51.71
854.569	35.9
854.861	43.71
855.154	31.99
855.447	4.13
855.739	54.53
856.032	29.32
856.324	39.5
856.616	37.32
856.909	35.64
857.201	49.46
857.493	25.29
857.785	22.57
858.077	49.62
858.369	42.32
858.661	49.74
858.953	42.77
859.245	25.82
859.537	55.41
859.829	54.16
860.12	52.34
860.412	48.27
860.703	53.28
860.995	47.23
861.286	47.36
861.578	30.18
861.869	58.14
862.16	36.78
862.452	73.47
862.743	27.11
863.034	39.73
863.325	41.31
863.616	39.85
863.907	28.46
864.198	25.8
864.488	43.22
864.779	37.81
865.07	50.35
865.36	27.08
865.651	40.46
865.941	38.89
866.232	55.08
866.522	29.85
866.813	20.22
867.103	49.44
867.393	39.89
867.683	53.56
867.973	23.78
868.263	25.15
868.553	54.29
868.843	47.6
869.133	5.01
869.423	61.56
869.713	39.82
870.002	52.49
870.292	37.36
870.582	53.08
870.871	21.1
871.161	38.8
871.45	13.72
871.739	11.33
872.029	27.04
872.318	54.04
872.607	62.15
872.896	21.3
873.185	80.26
873.474	38.84
873.763	38.33
874.052	53.5
874.341	62.11
874.63	34.97
874.918	41.23
875.207	37.5
875.496	54.89
875.784	7.31
876.073	3.11
876.361	5.98
876.649	46.92
876.938	33.95
877.226	68.26
877.514	56.27
877.802	45
878.09	31.33
878.378	46.95
878.666	30.51
878.954	25.11
879.242	21.73
879.53	74.37
879.817	48.67
880.105	31.62
880.392	50.25
880.68	27.22
880.967	34.29
881.255	72.38
881.542	33.44
881.83	10.43
882.117	74.1
882.404	35.3
882.691	27.05
882.978	35.27
883.265	21.73
883.552	30.37
883.839	41.15
884.126	36.31
884.413	46.97
884.699	35.64
884.986	39.89
885.273	39.19
885.559	39.19
885.846	39.19
