Data from 0388_chest_Reflection__0__76.txt Node

Date: Fri Dec 15 16:56:58 CST 2023
User: ToomeyLab
Spectrometer: FLMS14357
Trigger mode: 0
Integration Time (sec): 1.000000E-2
Scans to average: 100
Electric dark correction enabled: true
Nonlinearity correction enabled: false
Boxcar width: 0
XAxis mode: Wavelengths
Number of Pixels in Spectrum: 2048
>>>>>Begin Spectral Data<<<<<
189.047	61.63
189.435	61.63
189.823	61.63
190.211	110.12
190.599	-5.38
190.987	122.36
191.375	-91.97
191.763	-4.93
192.151	258580641584100
192.538	148.31
192.926	-12.23
193.314	75.84
193.702	81.79
194.089	-77.68
194.477	65.82
194.864	737.13
195.252	59.11
195.639	77.8
196.027	-33.98
196.414	91.17
196.801	117.34
197.189	85.93
197.576	-328.2
197.963	67.44
198.351	-15.92
198.738	26.87
199.125	53.55
199.512	-15.86
199.899	46.55
200.286	27.19
200.673	43.65
201.06	7.87
201.447	27.81
201.833	31.75
202.22	13.72
202.607	23.74
202.994	6.18
203.38	20.12
203.767	51.07
204.154	13
204.54	52.07
204.927	27.74
205.313	-9.32
205.699	-4.1
206.086	25.9
206.472	32.18
206.858	47.12
207.245	-20.03
207.631	43.36
208.017	22.43
208.403	19.14
208.789	39.6
209.175	16.97
209.561	39.22
209.947	0.18
210.333	-30.35
210.719	25.99
211.105	40.44
211.491	37.53
211.876	47.13
212.262	15.17
212.648	50.48
213.034	31.22
213.419	26.95
213.805	-6.93
214.19	-5.19
214.576	16.57
214.961	8.35
215.346	-13.08
215.732	42.15
216.117	4.48
216.502	-16.93
216.888	12.92
217.273	11.02
217.658	1.83
218.043	34.82
218.428	-28.41
218.813	-14.64
219.198	-17.48
219.583	9.79
219.968	12.17
220.353	2.7
220.738	21.25
221.122	23.98
221.507	-14.95
221.892	-28.8
222.276	4.66
222.661	-2.25
223.046	15.77
223.43	14.53
223.815	25.65
224.199	3.12
224.583	3.73
224.968	11.82
225.352	22.68
225.736	-0.26
226.121	-3.69
226.505	5.95
226.889	2.82
227.273	7.67
227.657	15.8
228.041	7.95
228.425	1.97
228.809	8.32
229.193	8.38
229.577	3.22
229.961	5.58
230.344	5.23
230.728	6.04
231.112	5.48
231.495	5.15
231.879	5.22
232.263	5.58
232.646	5.2
233.03	5.67
233.413	5.05
233.797	6.09
234.18	5.5
234.563	6.66
234.946	5.31
235.33	7.81
235.713	7.32
236.096	5.79
236.479	6.19
236.862	4.9
237.245	7.08
237.628	5.07
238.011	7.3
238.394	5.85
238.777	6.17
239.16	4.95
239.543	6.72
239.925	5.72
240.308	4.55
240.691	7.15
241.073	5.35
241.456	4.22
241.838	5.49
242.221	4.98
242.603	5.88
242.986	5.29
243.368	5.78
243.75	5.52
244.133	5.12
244.515	5.46
244.897	5.41
245.279	4.76
245.661	4.88
246.043	3.74
246.425	4.5
246.807	5.36
247.189	5.93
247.571	5.55
247.953	5.6
248.335	4.8
248.717	4.86
249.098	4.44
249.48	4.51
249.862	4.75
250.243	4.27
250.625	4.72
251.006	4.91
251.388	4.41
251.769	4.87
252.151	5.74
252.532	4.29
252.913	4.61
253.295	4.56
253.676	4.82
254.057	4.77
254.438	4.48
254.819	4.93
255.2	4.2
255.581	4.55
255.962	4.66
256.343	5.38
256.724	4.93
257.105	5.05
257.486	5.63
257.867	4.86
258.247	4.93
258.628	5.37
259.009	4.4
259.389	5.07
259.77	4.61
260.15	4.48
260.531	3.95
260.911	4.87
261.292	4.54
261.672	4.78
262.052	4.46
262.432	4.62
262.813	4.59
263.193	4.79
263.573	3.67
263.953	3.82
264.333	5.11
264.713	4.28
265.093	4.16
265.473	4.77
265.853	4.98
266.233	4.46
266.612	4
266.992	4.03
267.372	5.35
267.752	4.68
268.131	4.64
268.511	4.8
268.89	4.47
269.27	4.64
269.649	3.81
270.029	4.03
270.408	4.88
270.787	4.82
271.167	4.99
271.546	4.81
271.925	4.1
272.304	4
272.683	5.3
273.062	4.57
273.441	4.33
273.82	4.35
274.199	4.68
274.578	4.22
274.957	4.06
275.336	4.48
275.715	4.32
276.093	4.27
276.472	4.81
276.851	4.29
277.229	4.03
277.608	3.96
277.986	4.44
278.365	4.72
278.743	4.29
279.122	5.2
279.5	4.61
279.878	4.68
280.257	4.18
280.635	4.05
281.013	3.97
281.391	4.93
281.769	4.08
282.147	4.47
282.525	5.09
282.903	5
283.281	4.33
283.659	4.84
284.037	4.87
284.415	4.45
284.792	4.67
285.17	3.43
285.548	4.04
285.925	4
286.303	4.36
286.68	4.04
287.058	4.46
287.435	4.17
287.813	3.88
288.19	3.88
288.567	4.63
288.945	4.38
289.322	4.18
289.699	4.91
290.076	4.68
290.453	4.31
290.83	4.01
291.207	4.35
291.584	4.55
291.961	4.62
292.338	3.88
292.715	4.64
293.092	4.73
293.469	4.52
293.845	4.58
294.222	3.99
294.599	4.52
294.975	4.35
295.352	4.47
295.728	4.41
296.105	4.57
296.481	4.44
296.858	4.41
297.234	4.32
297.61	4.27
297.986	3.92
298.363	4.55
298.739	4.45
299.115	4.22
299.491	4.12
299.867	3.92
300.243	3.96
300.619	3.98
300.995	3.88
301.371	4.8
301.746	4.31
302.122	4.27
302.498	4.2
302.874	4.97
303.249	4.33
303.625	4.68
304	4.28
304.376	4.01
304.751	3.59
305.127	4.85
305.502	3.49
305.878	3.5
306.253	4.05
306.628	4.2
307.003	4.5
307.378	4.34
307.754	4
308.129	3.82
308.504	4.21
308.879	4.41
309.254	5
309.629	4.54
310.003	4.47
310.378	4.6
310.753	4.09
311.128	3.87
311.502	4.57
311.877	4.32
312.252	4.15
312.626	4.13
313.001	4.16
313.375	4.74
313.75	4.13
314.124	4.28
314.498	4.02
314.873	3.87
315.247	3.67
315.621	4.33
315.995	3.66
316.369	3.81
316.743	3.92
317.117	4.15
317.491	4.26
317.865	3.85
318.239	3.96
318.613	4.16
318.987	4.14
319.361	4.24
319.734	4.31
320.108	4.39
320.482	4.31
320.855	5.15
321.229	3.74
321.602	4.22
321.976	4.82
322.349	3.84
322.723	4.42
323.096	5.14
323.469	3.22
323.843	4.3
324.216	4.12
324.589	4.07
324.962	4.65
325.335	4.5
325.708	3.91
326.081	4.11
326.454	4.01
326.827	3.36
327.2	3.69
327.573	4.28
327.945	4.16
328.318	3.86
328.691	3.73
329.063	4.29
329.436	3.98
329.809	4.59
330.181	3.68
330.553	4.5
330.926	4.64
331.298	4.58
331.671	3.86
332.043	4.89
332.415	4.41
332.787	4.23
333.159	4.21
333.532	4.22
333.904	3.74
334.276	4.35
334.648	4.18
335.02	3.94
335.391	4.06
335.763	3.92
336.135	4.06
336.507	4.52
336.879	4.18
337.25	3.91
337.622	4.12
337.993	4.09
338.365	4.24
338.736	4.38
339.108	4.04
339.479	3.7
339.851	4
340.222	4.05
340.593	4.26
340.964	3.9
341.336	4.36
341.707	4.04
342.078	4.59
342.449	4.46
342.82	3.88
343.191	3.79
343.562	4.27
343.933	3.94
344.303	4.21
344.674	4.3
345.045	4.27
345.416	4.19
345.786	3.77
346.157	4.19
346.527	3.89
346.898	3.63
347.268	4.23
347.639	4.02
348.009	4.34
348.38	3.53
348.75	4.16
349.12	4
349.49	4.56
349.861	4.29
350.231	3.7
350.601	4.06
350.971	4.53
351.341	4.06
351.711	3.9
352.081	4.44
352.45	4.03
352.82	4.43
353.19	4.22
353.56	4.05
353.929	4.3
354.299	4.04
354.669	3.44
355.038	4.48
355.408	4.19
355.777	4.58
356.147	4.18
356.516	3.67
356.885	3.78
357.254	3.76
357.624	4.6
357.993	4.53
358.362	3.97
358.731	3.98
359.1	4.16
359.469	4.22
359.838	4.33
360.207	3.95
360.576	4.06
360.945	4.13
361.314	4.51
361.682	3.78
362.051	4.12
362.42	4.4
362.788	3.8
363.157	4.2
363.525	4.22
363.894	4.22
364.262	3.98
364.631	4.13
364.999	4.08
365.367	3.9
365.735	4.85
366.104	4.53
366.472	4.38
366.84	4.09
367.208	3.88
367.576	4.39
367.944	4.45
368.312	3.73
368.68	3.81
369.048	4.51
369.416	4.1
369.783	3.72
370.151	4.44
370.519	4.67
370.886	4.37
371.254	4.1
371.621	4.18
371.989	4.25
372.356	3.63
372.724	4.44
373.091	4.17
373.458	4.31
373.826	4.16
374.193	3.89
374.56	4.29
374.927	4.32
375.294	4.4
375.661	4.16
376.028	4.24
376.395	3.91
376.762	4.42
377.129	4.04
377.496	3.92
377.863	4.28
378.229	3.91
378.596	4.06
378.963	3.88
379.329	3.82
379.696	4.21
380.062	4.11
380.429	4.09
380.795	3.8
381.161	4.09
381.528	4.03
381.894	4.24
382.26	3.98
382.626	4.23
382.993	3.87
383.359	4.44
383.725	3.85
384.091	4.32
384.457	4.79
384.823	4.26
385.188	4.47
385.554	3.82
385.92	4.33
386.286	4.52
386.651	4.14
387.017	4.41
387.383	4.28
387.748	4.25
388.114	4.25
388.479	3.92
388.845	4.15
389.21	4.38
389.575	4.3
389.94	4.31
390.306	4.43
390.671	4.24
391.036	4.23
391.401	3.96
391.766	4.09
392.131	4.11
392.496	4.41
392.861	4.27
393.226	4.13
393.591	4.12
393.956	3.9
394.32	4.28
394.685	4
395.05	4
395.414	4.34
395.779	3.95
396.143	4.33
396.508	4.2
396.872	4.31
397.236	4.15
397.601	4.11
397.965	4.24
398.329	4.03
398.694	4.26
399.058	4.22
399.422	3.83
399.786	4.19
400.15	4.46
400.514	4.26
400.878	4.26
401.242	4.34
401.605	4.28
401.969	4.36
402.333	4.27
402.697	4.22
403.06	4.11
403.424	4.35
403.787	4.35
404.151	4.29
404.514	4.01
404.878	4.12
405.241	4.39
405.604	4.22
405.968	4.33
406.331	4.27
406.694	4.28
407.057	4.19
407.42	4.24
407.783	4.13
408.146	4.46
408.509	4.15
408.872	4.1
409.235	4.33
409.598	4.45
409.961	4.22
410.323	4.44
410.686	4.25
411.049	4.31
411.411	4.3
411.774	4.3
412.136	4.18
412.499	4.17
412.861	4.42
413.223	4.18
413.586	4.24
413.948	4.15
414.31	4.07
414.672	4.22
415.035	4.36
415.397	4.39
415.759	4.23
416.121	4.25
416.483	4.19
416.845	4.21
417.206	4.18
417.568	4.63
417.93	4.05
418.292	4.2
418.653	4.33
419.015	4.17
419.377	4.11
419.738	4.23
420.1	4.16
420.461	4.21
420.822	4.29
421.184	4.11
421.545	4.3
421.906	4.16
422.267	4.11
422.629	4.18
422.99	4.18
423.351	4.04
423.712	4.18
424.073	4.2
424.434	4.1
424.795	4.06
425.155	4.13
425.516	4.18
425.877	4.19
426.238	4.04
426.598	4.25
426.959	4.15
427.32	4.1
427.68	4.12
428.041	4.15
428.401	4.47
428.761	4.28
429.122	4.2
429.482	4.21
429.842	4.28
430.202	4.42
430.563	4.4
430.923	4.26
431.283	4.36
431.643	4.34
432.003	4.33
432.363	4.32
432.722	4.42
433.082	4.48
433.442	4.13
433.802	4.02
434.161	4.19
434.521	4.47
434.881	4.34
435.24	4.15
435.6	4.14
435.959	4.24
436.319	4.31
436.678	4.18
437.037	4.35
437.396	4.28
437.756	4.26
438.115	4.21
438.474	4.33
438.833	4.16
439.192	4.35
439.551	4.27
439.91	4.28
440.269	4.21
440.628	4.14
440.987	4.39
441.345	4.14
441.704	4.31
442.063	4.33
442.421	4.19
442.78	4.17
443.138	4.23
443.497	4.36
443.855	4.25
444.214	4.33
444.572	4.19
444.93	4.3
445.288	4.42
445.647	4.4
446.005	4.22
446.363	4.46
446.721	4.36
447.079	4.17
447.437	4.17
447.795	4.33
448.153	4.27
448.51	4.23
448.868	4.29
449.226	4.27
449.584	4.23
449.941	4.31
450.299	4.28
450.656	4.32
451.014	4.34
451.371	4.25
451.729	4.37
452.086	4.58
452.443	4.3
452.801	4.41
453.158	4.3
453.515	4.24
453.872	4.52
454.229	4.28
454.586	4.29
454.943	4.38
455.3	4.43
455.657	4.51
456.014	4.27
456.371	4.44
456.727	4.31
457.084	4.61
457.441	4.38
457.797	4.34
458.154	4.51
458.51	4.39
458.867	4.4
459.223	4.41
459.58	4.4
459.936	4.65
460.292	4.42
460.648	4.37
461.005	4.38
461.361	4.4
461.717	4.31
462.073	4.19
462.429	4.29
462.785	4.3
463.141	4.34
463.496	4.49
463.852	4.46
464.208	4.43
464.564	4.53
464.919	4.5
465.275	4.29
465.631	4.41
465.986	4.31
466.342	4.47
466.697	4.44
467.052	4.53
467.408	4.52
467.763	4.26
468.118	4.45
468.473	4.48
468.829	4.48
469.184	4.33
469.539	4.55
469.894	4.28
470.249	4.49
470.603	4.44
470.958	4.56
471.313	4.51
471.668	4.57
472.023	4.36
472.377	4.45
472.732	4.44
473.086	4.37
473.441	4.35
473.795	4.63
474.15	4.58
474.504	4.38
474.859	4.5
475.213	4.36
475.567	4.44
475.921	4.23
476.275	4.48
476.63	4.61
476.984	4.53
477.338	4.53
477.692	4.43
478.045	4.32
478.399	4.54
478.753	4.46
479.107	4.46
479.461	4.42
479.814	4.51
480.168	4.41
480.521	4.41
480.875	4.44
481.228	4.38
481.582	4.49
481.935	4.42
482.289	4.57
482.642	4.43
482.995	4.29
483.348	4.34
483.701	4.43
484.055	4.46
484.408	4.48
484.761	4.35
485.114	4.29
485.466	4.22
485.819	4.21
486.172	4.17
486.525	4.18
486.878	4.23
487.23	4.22
487.583	4.27
487.936	4.41
488.288	4.44
488.641	4.45
488.993	4.26
489.345	4.28
489.698	4.24
490.05	4.25
490.402	4.37
490.754	4.32
491.107	4.42
491.459	4.42
491.811	4.36
492.163	4.45
492.515	4.41
492.866	4.5
493.218	4.4
493.57	4.34
493.922	4.31
494.274	4.38
494.625	4.27
494.977	4.47
495.328	4.52
495.68	4.53
496.031	4.65
496.383	4.53
496.734	4.69
497.086	4.65
497.437	4.58
497.788	4.61
498.139	4.59
498.49	4.61
498.842	4.38
499.193	4.54
499.544	4.51
499.894	4.51
500.245	4.54
500.596	4.5
500.947	4.75
501.298	4.56
501.648	4.55
501.999	4.78
502.35	4.57
502.7	4.62
503.051	4.47
503.401	4.59
503.752	4.72
504.102	4.5
504.452	4.64
504.803	4.53
505.153	4.63
505.503	4.7
505.853	4.46
506.203	4.58
506.553	4.66
506.903	4.5
507.253	4.57
507.603	4.51
507.953	4.66
508.303	4.85
508.652	4.57
509.002	4.76
509.352	4.71
509.701	4.64
510.051	4.54
510.4	4.63
510.75	4.68
511.099	4.64
511.449	4.65
511.798	4.72
512.147	4.73
512.496	4.63
512.846	4.69
513.195	4.75
513.544	4.6
513.893	4.75
514.242	4.58
514.591	4.8
514.939	4.63
515.288	4.58
515.637	4.72
515.986	4.68
516.334	4.85
516.683	4.9
517.032	4.7
517.38	4.73
517.729	4.93
518.077	4.71
518.426	4.82
518.774	4.82
519.122	4.91
519.47	4.91
519.819	4.6
520.167	4.73
520.515	4.68
520.863	4.81
521.211	4.77
521.559	4.9
521.907	4.68
522.255	4.64
522.602	4.77
522.95	4.77
523.298	4.79
523.645	4.86
523.993	4.89
524.341	5
524.688	4.91
525.036	4.9
525.383	4.89
525.73	5.06
526.078	4.93
526.425	4.93
526.772	4.91
527.119	4.79
527.466	4.77
527.814	4.81
528.161	4.8
528.508	4.87
528.854	4.85
529.201	4.78
529.548	4.78
529.895	4.84
530.242	4.74
530.588	4.7
530.935	4.71
531.282	4.72
531.628	4.71
531.975	4.81
532.321	4.81
532.667	4.95
533.014	4.93
533.36	4.89
533.706	4.98
534.052	5
534.399	4.91
534.745	4.86
535.091	4.9
535.437	4.88
535.783	4.95
536.129	4.93
536.474	4.92
536.82	4.93
537.166	5.02
537.512	5.11
537.857	5.12
538.203	5.02
538.549	5
538.894	4.99
539.239	5
539.585	5.04
539.93	5.01
540.276	5.23
540.621	5.24
540.966	5.22
541.311	5.18
541.656	5.08
542.001	5.19
542.346	5.24
542.691	5.1
543.036	5.05
543.381	4.98
543.726	5.03
544.071	5.11
544.415	5.11
544.76	5.08
545.105	5.13
545.449	5.21
545.794	5.17
546.138	5.22
546.483	5.24
546.827	5.27
547.171	5.17
547.516	5.39
547.86	5.22
548.204	5.21
548.548	5.23
548.892	5.35
549.236	5.18
549.58	5.36
549.924	5.34
550.268	5.6
550.612	5.46
550.956	5.52
551.3	5.5
551.643	5.46
551.987	5.68
552.33	5.52
552.674	5.41
553.017	5.55
553.361	5.44
553.704	5.76
554.048	5.57
554.391	5.56
554.734	5.48
555.077	5.62
555.42	5.53
555.764	5.55
556.107	5.38
556.45	5.61
556.793	5.47
557.135	5.63
557.478	5.9
557.821	5.74
558.164	5.61
558.507	5.71
558.849	5.6
559.192	5.79
559.534	5.67
559.877	5.75
560.219	5.88
560.562	5.92
560.904	5.81
561.246	5.78
561.589	5.72
561.931	6.1
562.273	5.68
562.615	5.94
562.957	5.92
563.299	5.69
563.641	5.84
563.983	5.99
564.325	5.76
564.667	5.77
565.008	5.76
565.35	5.85
565.692	5.85
566.033	6.05
566.375	6.06
566.716	6.15
567.058	6.02
567.399	5.84
567.741	5.83
568.082	5.98
568.423	6.14
568.764	5.94
569.105	6.15
569.447	6.13
569.788	6.13
570.129	6.19
570.47	6.12
570.811	6.18
571.151	6.22
571.492	6.15
571.833	6.36
572.174	6.31
572.514	6.25
572.855	6.33
573.195	6.32
573.536	6.32
573.876	6.09
574.217	6.15
574.557	6.23
574.898	6.44
575.238	6.37
575.578	6.15
575.918	6.38
576.258	6.41
576.598	6.59
576.938	6.5
577.278	6.55
577.618	6.38
577.958	6.62
578.298	6.53
578.638	6.55
578.977	6.42
579.317	6.4
579.657	6.6
579.996	6.42
580.336	6.53
580.675	6.3
581.014	6.63
581.354	6.76
581.693	6.92
582.032	6.73
582.372	6.68
582.711	6.71
583.05	6.59
583.389	6.74
583.728	6.86
584.067	7.08
584.406	7.04
584.745	6.79
585.083	6.99
585.422	6.92
585.761	6.99
586.1	6.84
586.438	7.04
586.777	7.08
587.115	7.12
587.454	7.04
587.792	7.05
588.13	7.33
588.469	6.96
588.807	7.05
589.145	6.83
589.483	6.99
589.821	7.33
590.159	7.13
590.497	7.24
590.835	7.51
591.173	7.23
591.511	7.49
591.849	7.16
592.187	7.4
592.524	7.31
592.862	7.32
593.2	7.18
593.537	7.59
593.875	7.38
594.212	7.2
594.55	7.31
594.887	7.63
595.224	7.45
595.561	7.31
595.899	7.52
596.236	7.56
596.573	7.61
596.91	7.24
597.247	7.45
597.584	7.64
597.921	7.81
598.258	7.59
598.594	7.46
598.931	7.45
599.268	7.8
599.604	7.67
599.941	7.86
600.277	7.84
600.614	7.65
600.95	7.62
601.287	7.92
601.623	7.86
601.959	7.9
602.296	8.08
602.632	8.07
602.968	7.79
603.304	8.01
603.64	8.03
603.976	7.91
604.312	8.04
604.648	8.03
604.984	8.17
605.319	8.28
605.655	8.23
605.991	8.07
606.326	8.2
606.662	7.96
606.998	8.06
607.333	7.95
607.668	8.16
608.004	8.38
608.339	8.4
608.674	8.53
609.01	8.32
609.345	8.13
609.68	8.44
610.015	8.23
610.35	8.3
610.685	8.55
611.02	8.47
611.355	8.49
611.689	8.38
612.024	8.45
612.359	8.37
612.694	8.72
613.028	8.66
613.363	8.62
613.697	8.81
614.032	8.71
614.366	8.71
614.7	8.95
615.035	8.85
615.369	8.69
615.703	9.05
616.037	8.82
616.371	8.53
616.705	8.82
617.039	8.83
617.373	8.65
617.707	9.02
618.041	9.19
618.375	9.39
618.709	9.04
619.042	8.65
619.376	9.14
619.71	9.32
620.043	9.26
620.377	8.98
620.71	9.37
621.043	8.98
621.377	9.19
621.71	9.17
622.043	9.39
622.376	9.32
622.709	9.22
623.043	9.37
623.376	9.37
623.709	9.51
624.041	9.83
624.374	9.56
624.707	9.2
625.04	9.66
625.373	9.03
625.705	9.54
626.038	9.48
626.37	9.69
626.703	9.23
627.035	9.59
627.368	9.65
627.7	9.63
628.032	9.7
628.365	9.91
628.697	9.75
629.029	9.64
629.361	9.68
629.693	9.92
630.025	9.54
630.357	10.08
630.689	9.98
631.021	9.74
631.353	10.19
631.684	9.68
632.016	9.68
632.348	10.21
632.679	9.94
633.011	10.1
633.342	10.26
633.674	9.96
634.005	10.59
634.336	10.41
634.668	10.57
634.999	10.37
635.33	10.43
635.661	10.28
635.992	10.41
636.323	10.22
636.654	10.51
636.985	10.29
637.316	10.27
637.647	10.2
637.977	10.77
638.308	10.82
638.639	10.22
638.969	10.54
639.3	10.2
639.63	10.18
639.961	10.64
640.291	10.51
640.622	10.93
640.952	10.74
641.282	11.4
641.612	10.87
641.943	10.71
642.273	10.4
642.603	11.3
642.933	10.93
643.263	11.2
643.592	10.42
643.922	11.28
644.252	11.12
644.582	11.27
644.911	11.11
645.241	11.44
645.571	11.05
645.9	10.97
646.23	10.96
646.559	11.23
646.888	10.64
647.218	11.17
647.547	11.25
647.876	10.93
648.205	11.27
648.534	11.36
648.863	11.13
649.192	11.66
649.521	11.07
649.85	10.83
650.179	11.61
650.508	11.17
650.837	11.34
651.165	11.48
651.494	11.24
651.822	11.45
652.151	11.43
652.479	11.95
652.808	11.41
653.136	11.71
653.465	11.53
653.793	11.17
654.121	11.27
654.449	11.78
654.777	11.85
655.105	11.84
655.433	11.37
655.761	11.94
656.089	12.39
656.417	12.37
656.745	11.95
657.073	12.16
657.4	12.99
657.728	12
658.056	12.48
658.383	12.34
658.711	12.16
659.038	12.36
659.365	12.46
659.693	12.26
660.02	12.3
660.347	12.41
660.674	12.6
661.001	12.69
661.329	11.84
661.656	12.37
661.982	12.37
662.309	12.46
662.636	12.4
662.963	13.31
663.29	12.85
663.616	13.28
663.943	12.18
664.27	12.93
664.596	12.91
664.923	12.85
665.249	12.62
665.576	12.94
665.902	13.22
666.228	12.96
666.554	13.04
666.881	12.92
667.207	12.49
667.533	13.33
667.859	13.26
668.185	13.47
668.511	12.37
668.837	12.13
669.162	12.98
669.488	13.14
669.814	13.17
670.139	13.39
670.465	14.01
670.791	12.93
671.116	13.42
671.442	13.13
671.767	13.57
672.092	13.46
672.418	13.63
672.743	13.96
673.068	13.64
673.393	13.51
673.718	13.49
674.043	13.59
674.368	13.7
674.693	14.33
675.018	13.57
675.343	13.57
675.667	13.48
675.992	13.62
676.317	13.87
676.641	14.06
676.966	13.94
677.29	14.3
677.615	14.58
677.939	14.37
678.264	14.22
678.588	14.66
678.912	14.32
679.236	14.54
679.56	13.27
679.885	14.88
680.209	14.12
680.532	14.13
680.856	14.91
681.18	14.21
681.504	13.68
681.828	14.71
682.152	13.92
682.475	14.16
682.799	14.32
683.122	14.61
683.446	14.4
683.769	14.87
684.093	14.27
684.416	14.91
684.739	14.24
685.062	14.48
685.386	14.73
685.709	14.81
686.032	14.7
686.355	15.24
686.678	15.02
687.001	14.62
687.324	14.87
687.646	14.23
687.969	14.22
688.292	14.89
688.614	14.91
688.937	15.94
689.26	15.03
689.582	14.94
689.904	15.34
690.227	15.14
690.549	14.61
690.871	15.88
691.194	15.28
691.516	14.84
691.838	15.85
692.16	14.81
692.482	15.08
692.804	15.89
693.126	14.98
693.448	16.03
693.769	16.03
694.091	15.09
694.413	15.52
694.735	15.4
695.056	15.35
695.378	15.39
695.699	14.77
696.021	14.37
696.342	15.9
696.663	15.21
696.984	15.92
697.306	14.59
697.627	16.85
697.948	16.4
698.269	15.96
698.59	16.08
698.911	15.09
699.232	16.21
699.553	16.75
699.873	16.75
700.194	16.67
700.515	16.5
700.835	15.87
701.156	15.91
701.477	16.4
701.797	15.94
702.117	16.44
702.438	16.45
702.758	16.18
703.078	16.26
703.398	15.73
703.719	15.84
704.039	15.56
704.359	16.97
704.679	16.87
704.999	16.17
705.319	16.54
705.638	16.12
705.958	16.6
706.278	16.49
706.597	16.63
706.917	17.25
707.237	17.53
707.556	16.45
707.876	16.1
708.195	17.1
708.514	16.45
708.834	17.17
709.153	16.5
709.472	18.2
709.791	18.2
710.11	17.23
710.429	17.95
710.748	17.05
711.067	16.11
711.386	17.8
711.705	17.08
712.023	17.69
712.342	16.25
712.661	17.32
712.979	16.41
713.298	17.02
713.616	17.58
713.935	17.41
714.253	17.68
714.572	17.69
714.89	17.3
715.208	18.64
715.526	17.96
715.844	17.53
716.162	17.62
716.48	18.46
716.798	18.37
717.116	17.99
717.434	17.68
717.752	16.72
718.069	18.61
718.387	17.43
718.705	17.98
719.022	16.66
719.34	17.61
719.657	17.37
719.975	19.8
720.292	18.6
720.609	18.25
720.927	18.82
721.244	19.44
721.561	18.23
721.878	20.05
722.195	17.87
722.512	19.02
722.829	19.26
723.146	19.21
723.463	19.71
723.779	17.52
724.096	20.36
724.413	18.49
724.729	18.85
725.046	16.82
725.362	18.98
725.679	18.94
725.995	18.73
726.311	18.54
726.628	18.31
726.944	19.51
727.26	19.41
727.576	20.24
727.892	17.97
728.208	17.56
728.524	18.24
728.84	18.75
729.156	19.04
729.472	18.88
729.787	18.42
730.103	19.71
730.419	18.84
730.734	19.58
731.05	19.92
731.365	19.63
731.681	19.64
731.996	20.29
732.311	19.8
732.626	20.01
732.942	18.43
733.257	19.03
733.572	18.9
733.887	18.9
734.202	19.75
734.517	19.85
734.832	19.42
735.146	19.45
735.461	19.87
735.776	20.51
736.091	20.36
736.405	19.18
736.72	19.53
737.034	20.53
737.349	22.21
737.663	20.41
737.977	20.47
738.292	19.99
738.606	21.03
738.92	22.07
739.234	20.9
739.548	18.8
739.862	19.1
740.176	19.4
740.49	20.87
740.804	21.03
741.117	20.43
741.431	20.25
741.745	19.46
742.058	21.19
742.372	19.58
742.685	20.94
742.999	20.79
743.312	21.13
743.626	20.4
743.939	19.33
744.252	21.51
744.565	20.82
744.878	21.46
745.191	19.96
745.505	21.33
745.817	20.75
746.13	21.91
746.443	20.61
746.756	22.48
747.069	20.28
747.381	21.7
747.694	20.55
748.007	21.37
748.319	19.98
748.632	23.34
748.944	21.75
749.256	22.28
749.569	22.8
749.881	21.7
750.193	22.67
750.505	21.31
750.817	21.5
751.129	22.98
751.441	21.98
751.753	22.85
752.065	21.3
752.377	22.29
752.689	24.47
753	21.58
753.312	20.46
753.624	22.66
753.935	21.54
754.247	23.22
754.558	20.47
754.869	22.86
755.181	22.45
755.492	24.02
755.803	22.98
756.114	22.71
756.425	22.98
756.736	20.67
757.047	25.05
757.358	23.72
757.669	22.97
757.98	22.47
758.291	21.2
758.601	23.96
758.912	21.59
759.223	25
759.533	20.86
759.844	21.93
760.154	23.47
760.464	23.33
760.775	23.3
761.085	24.48
761.395	22.04
761.705	22.59
762.016	21.12
762.326	23.35
762.636	22.41
762.945	22.08
763.255	22.15
763.565	21.43
763.875	24.53
764.185	22.64
764.494	22.93
764.804	22.59
765.113	23.31
765.423	23.48
765.732	22.8
766.042	22.16
766.351	23.15
766.66	23.34
766.97	24.39
767.279	22.93
767.588	23.44
767.897	23.98
768.206	23.37
768.515	22.08
768.824	23.5
769.133	23.22
769.441	22.86
769.75	22.47
770.059	25.17
770.367	24.16
770.676	23.12
770.984	25.03
771.293	24.94
771.601	23.44
771.91	20.95
772.218	22.64
772.526	25.65
772.834	27.51
773.142	22.6
773.45	25.42
773.758	22.61
774.066	24.83
774.374	21.53
774.682	26.57
774.99	26.68
775.298	24.95
775.605	22.06
775.913	21.86
776.22	26.39
776.528	26.63
776.835	22.48
777.143	26.84
777.45	24.3
777.757	28.82
778.065	24.41
778.372	21.32
778.679	23.63
778.986	24.1
779.293	26.91
779.6	22.77
779.907	22.34
780.214	24.24
780.52	27.21
780.827	28.05
781.134	23.86
781.44	21.21
781.747	24.01
782.053	24.85
782.36	28.43
782.666	24.43
782.973	26.09
783.279	27.44
783.585	27.18
783.891	28.33
784.197	24.01
784.503	27.96
784.809	22.73
785.115	25.07
785.421	28.18
785.727	23.7
786.033	23.08
786.339	28.13
786.644	29.87
786.95	27.79
787.255	28.62
787.561	27.33
787.866	25.17
788.172	24.42
788.477	22.04
788.782	26.61
789.088	26.88
789.393	25.69
789.698	25.16
790.003	23.29
790.308	25.53
790.613	23.4
790.918	27.8
791.223	25.43
791.527	24.53
791.832	25.44
792.137	24.9
792.441	25.56
792.746	27.42
793.05	28.58
793.355	25.62
793.659	29.21
793.963	29.73
794.268	25.12
794.572	27.6
794.876	27.56
795.18	26.53
795.484	27.79
795.788	32.14
796.092	25.23
796.396	28.49
796.7	31.14
797.004	28.77
797.307	23.79
797.611	29.9
797.915	29.07
798.218	29.4
798.522	29.69
798.825	25.3
799.128	24.71
799.432	28.54
799.735	26.62
800.038	31.7
800.341	31.93
800.644	33.91
800.947	27.87
801.25	28.68
801.553	24.74
801.856	27.96
802.159	29.76
802.462	25.66
802.764	24.37
803.067	22.55
803.37	26.46
803.672	26.4
803.975	25.23
804.277	30.3
804.579	25.85
804.882	26.04
805.184	31.07
805.486	30.53
805.788	28.59
806.09	28.77
806.392	25.29
806.694	30.07
806.996	29.9
807.298	27.08
807.6	30.55
807.902	27.99
808.203	26.44
808.505	30.03
808.807	30.84
809.108	28.77
809.409	28.55
809.711	30.6
810.012	25.19
810.313	29.19
810.615	25.67
810.916	28.88
811.217	30.59
811.518	22.88
811.819	32.98
812.12	24.07
812.421	31.6
812.722	38.51
813.023	29.1
813.323	23.57
813.624	26.39
813.925	37.02
814.225	21.7
814.526	35.3
814.826	29.98
815.126	34.28
815.427	28.59
815.727	32.28
816.027	32.9
816.327	28.42
816.627	26.21
816.927	35.01
817.227	26.31
817.527	33.22
817.827	33
818.127	30.91
818.427	27.47
818.727	34.6
819.026	24.3
819.326	37.47
819.625	23.56
819.925	30.18
820.224	33.21
820.524	30.47
820.823	33.07
821.122	30.68
821.421	32.92
821.72	25.34
822.019	32.44
822.318	29.51
822.617	26.97
822.916	27.65
823.215	27.95
823.514	30.12
823.813	28.07
824.111	27.88
824.41	30.1
824.709	29.71
825.007	30.55
825.306	30.27
825.604	30.5
825.902	30.67
826.201	30.35
826.499	29.68
826.797	28.84
827.095	30.59
827.393	28.44
827.691	32.71
827.989	28.24
828.287	31.08
828.585	30.76
828.882	27.37
829.18	30.86
829.478	31.95
829.775	32.12
830.073	30.8
830.37	31.29
830.668	27.76
830.965	31.32
831.263	28.88
831.56	31.58
831.857	29.5
832.154	33.26
832.451	30.78
832.748	33.36
833.045	33.71
833.342	31.62
833.639	27.66
833.936	32.5
834.232	31.3
834.529	32.71
834.826	30.64
835.122	28.35
835.419	25.43
835.715	33.35
836.012	32.53
836.308	27.25
836.604	31.07
836.901	26.46
837.197	31.72
837.493	32.57
837.789	29.76
838.085	34.57
838.381	37
838.677	32.72
838.972	33.34
839.268	28.33
839.564	35.17
839.86	30.22
840.155	25.45
840.451	30.65
840.746	32.7
841.042	36.83
841.337	35.35
841.632	26.14
841.928	40.21
842.223	33.44
842.518	25.04
842.813	37.11
843.108	38.47
843.403	37.06
843.698	27.05
843.993	30.17
844.287	33.42
844.582	32.64
844.877	29.42
845.171	38.58
845.466	32.39
845.761	30.31
846.055	26.46
846.349	35.46
846.644	24.49
846.938	32.01
847.232	43.34
847.526	39.54
847.82	37.54
848.114	34.24
848.408	31.74
848.702	57.93
848.996	24.36
849.29	47.27
849.584	49.2
849.877	54
850.171	38.95
850.465	40.59
850.758	31.49
851.052	38.55
851.345	23.37
851.638	35.84
851.932	22.29
852.225	29.82
852.518	31.69
852.811	36.56
853.104	3.38
853.397	28.25
853.69	22.2
853.983	33.35
854.276	52.57
854.569	28.76
854.861	31.07
855.154	35.2
855.447	28.94
855.739	41.05
856.032	37.26
856.324	36.51
856.616	53.79
856.909	35.47
857.201	47.31
857.493	37.1
857.785	35.1
858.077	36.75
858.369	40.98
858.661	20.46
858.953	18.18
859.245	27.44
859.537	50.85
859.829	36.37
860.12	56.59
860.412	48.81
860.703	16.47
860.995	46.59
861.286	40.2
861.578	35.89
861.869	36.12
862.16	21.58
862.452	47.01
862.743	51.81
863.034	31.36
863.325	19.05
863.616	38.47
863.907	10.46
864.198	24.81
864.488	47.81
864.779	46.05
865.07	34.78
865.36	29.15
865.651	37.43
865.941	47.54
866.232	37.65
866.522	23.56
866.813	30.25
867.103	39.06
867.393	32.32
867.683	43.93
867.973	22.53
868.263	34.55
868.553	30.04
868.843	53.72
869.133	24.42
869.423	35.93
869.713	21.79
870.002	34.7
870.292	55.31
870.582	36.9
870.871	34.17
871.161	50.97
871.45	51.85
871.739	32.67
872.029	54.97
872.318	41.87
872.607	64.04
872.896	14.9
873.185	50.36
873.474	34.49
873.763	33.69
874.052	47.66
874.341	58.79
874.63	36.88
874.918	21.53
875.207	34.11
875.496	46.5
875.784	11.73
876.073	-2.03
876.361	8.29
876.649	5.94
876.938	38.15
877.226	33.45
877.514	66.58
877.802	42.83
878.09	40.3
878.378	56.66
878.666	16.25
878.954	25.36
879.242	34.15
879.53	57.13
879.817	58.02
880.105	27.51
880.392	36.66
880.68	38.63
880.967	5.16
881.255	54.44
881.542	32.83
881.83	49.58
882.117	53.23
882.404	-3.1
882.691	25.71
882.978	19.65
883.265	25.85
883.552	32.8
883.839	33.04
884.126	31.67
884.413	43.93
884.699	45.69
884.986	41.97
885.273	33.88
885.559	33.88
885.846	33.88
