Data from 0388_chest_Reflection__1__77.txt Node

Date: Fri Dec 15 16:57:07 CST 2023
User: ToomeyLab
Spectrometer: FLMS14357
Trigger mode: 0
Integration Time (sec): 1.000000E-2
Scans to average: 100
Electric dark correction enabled: true
Nonlinearity correction enabled: false
Boxcar width: 0
XAxis mode: Wavelengths
Number of Pixels in Spectrum: 2048
>>>>>Begin Spectral Data<<<<<
189.047	65.06
189.435	65.06
189.823	65.06
190.211	-12.33
190.599	-1.98
190.987	137.11
191.375	179.9
191.763	-67.03
192.151	-609909472735200
192.538	82.05
192.926	32.86
193.314	276.72
193.702	130.28
194.089	472.92
194.477	-57.18
194.864	227.57
195.252	95.1
195.639	35.81
196.027	-191.34
196.414	117.16
196.801	162.16
197.189	96.01
197.576	-375.37
197.963	-40.87
198.351	-34.46
198.738	50.32
199.125	22.89
199.512	12.4
199.899	24.93
200.286	-12.77
200.673	-4.81
201.06	-4.07
201.447	-8.33
201.833	27.39
202.22	40.4
202.607	6.74
202.994	-1.91
203.38	16.73
203.767	23.46
204.154	24.12
204.54	31.65
204.927	-19.6
205.313	-19.56
205.699	30.23
206.086	34.63
206.472	48.42
206.858	19.7
207.245	-95.41
207.631	-3.69
208.017	11.29
208.403	26.57
208.789	51.8
209.175	4.91
209.561	-1.58
209.947	12.82
210.333	-29.27
210.719	4.18
211.105	37.84
211.491	26.84
211.876	35.57
212.262	5.34
212.648	15.14
213.034	43.82
213.419	-22.58
213.805	-12.68
214.19	-9.06
214.576	-6.93
214.961	3.38
215.346	6.98
215.732	-0.48
216.117	30.89
216.502	8.34
216.888	25.32
217.273	17.28
217.658	0.43
218.043	20.31
218.428	-22.26
218.813	5.36
219.198	-33.92
219.583	21.76
219.968	4.63
220.353	-12.11
220.738	8.28
221.122	9.28
221.507	-0.88
221.892	-18.15
222.276	-11.54
222.661	-11.54
223.046	6.15
223.43	18.68
223.815	8.91
224.199	-3.03
224.583	8.88
224.968	-1.4
225.352	16.25
225.736	12.64
226.121	-10.21
226.505	9.43
226.889	6.75
227.273	6.18
227.657	10.69
228.041	2.86
228.425	2.1
228.809	6.1
229.193	5.77
229.577	4.31
229.961	6.17
230.344	5.01
230.728	4.67
231.112	5.11
231.495	4.99
231.879	4.89
232.263	4.38
232.646	5.46
233.03	3.45
233.413	4
233.797	4.03
234.18	5.33
234.563	9.28
234.946	4.88
235.33	7.89
235.713	5.1
236.096	4.48
236.479	6.69
236.862	3.02
237.245	5.72
237.628	5.27
238.011	5.54
238.394	6.5
238.777	4.35
239.16	4.47
239.543	3.28
239.925	4.62
240.308	5.36
240.691	8.02
241.073	5.3
241.456	4.53
241.838	4.67
242.221	4.51
242.603	6.91
242.986	4.78
243.368	5.94
243.75	5.23
244.133	4.53
244.515	4.98
244.897	5.2
245.279	5.36
245.661	5.14
246.043	4.9
246.425	4.24
246.807	5.97
247.189	4.83
247.571	5.97
247.953	5.39
248.335	5.13
248.717	5.32
249.098	4.96
249.48	5.07
249.862	4.93
250.243	4.98
250.625	5.34
251.006	5.5
251.388	4.82
251.769	5.82
252.151	6.7
252.532	4.91
252.913	4.52
253.295	4.19
253.676	5.46
254.057	4.97
254.438	4.59
254.819	3.91
255.2	4.5
255.581	5.41
255.962	4.05
256.343	5.41
256.724	4.18
257.105	5.66
257.486	3.88
257.867	5.6
258.247	5.14
258.628	4.49
259.009	4.55
259.389	5.97
259.77	4.77
260.15	3.96
260.531	4.49
260.911	5.35
261.292	4.91
261.672	5.03
262.052	4.7
262.432	4.87
262.813	5.06
263.193	4.44
263.573	4.59
263.953	4.99
264.333	4.87
264.713	5.05
265.093	4.58
265.473	4.56
265.853	3.34
266.233	4.64
266.612	3.93
266.992	3.46
267.372	4.72
267.752	4.32
268.131	4.93
268.511	5.39
268.89	5.01
269.27	4.54
269.649	4.14
270.029	4.1
270.408	5.24
270.787	4.65
271.167	5.27
271.546	5.05
271.925	3.86
272.304	4.66
272.683	5.27
273.062	4.23
273.441	4.65
273.82	4.2
274.199	4.76
274.578	4.51
274.957	4.61
275.336	4.12
275.715	3.94
276.093	4.74
276.472	4.81
276.851	3.82
277.229	4.72
277.608	4.08
277.986	4.41
278.365	4.42
278.743	4.31
279.122	3.74
279.5	4.59
279.878	4.66
280.257	4.69
280.635	4.29
281.013	4.53
281.391	4.7
281.769	4.53
282.147	4.99
282.525	4.54
282.903	4.29
283.281	4.23
283.659	4.72
284.037	5.14
284.415	4.52
284.792	4.84
285.17	3.55
285.548	3.51
285.925	3.93
286.303	4.18
286.68	4.16
287.058	4.55
287.435	4.61
287.813	4.43
288.19	4.34
288.567	4.72
288.945	5.05
289.322	4.19
289.699	5.08
290.076	4.26
290.453	4.61
290.83	4.43
291.207	4.15
291.584	4.85
291.961	5.59
292.338	4.29
292.715	4.64
293.092	4.55
293.469	5.02
293.845	5.13
294.222	4.97
294.599	4.61
294.975	4.74
295.352	5.69
295.728	4.39
296.105	4.64
296.481	5.12
296.858	5.67
297.234	4.9
297.61	5.16
297.986	5.18
298.363	5.17
298.739	5.38
299.115	5.14
299.491	5.1
299.867	5.49
300.243	5.47
300.619	4.66
300.995	5.29
301.371	5.36
301.746	5.05
302.122	5.34
302.498	5.45
302.874	5.5
303.249	5.6
303.625	5.39
304	5.96
304.376	4.99
304.751	5.63
305.127	6.47
305.502	5.58
305.878	5.38
306.253	5.41
306.628	6.05
307.003	5.31
307.378	5.89
307.754	5.78
308.129	4.97
308.504	5.13
308.879	4.92
309.254	6.5
309.629	5.71
310.003	6.25
310.378	6.23
310.753	6.05
311.128	6.2
311.502	5.58
311.877	5.93
312.252	5.51
312.626	5.79
313.001	5.74
313.375	6.14
313.75	5.52
314.124	6.32
314.498	5.57
314.873	6
315.247	5.67
315.621	5.71
315.995	5.4
316.369	5.94
316.743	5.38
317.117	5.71
317.491	5.91
317.865	5.99
318.239	5.99
318.613	6.09
318.987	6.31
319.361	6.03
319.734	6.4
320.108	5.69
320.482	6.42
320.855	6.16
321.229	6.29
321.602	6.15
321.976	6.19
322.349	5.73
322.723	5.91
323.096	6.62
323.469	5.74
323.843	6.12
324.216	6.85
324.589	6.01
324.962	6.14
325.335	5.8
325.708	6.04
326.081	5.64
326.454	6.48
326.827	5.76
327.2	5.76
327.573	6.67
327.945	6.62
328.318	6.22
328.691	5.61
329.063	5.85
329.436	6.02
329.809	6.44
330.181	6.14
330.553	5.97
330.926	6.64
331.298	6.39
331.671	5.88
332.043	6.4
332.415	6.43
332.787	6.13
333.159	6.87
333.532	6.31
333.904	6.32
334.276	6.1
334.648	6.46
335.02	5.94
335.391	6.34
335.763	6.82
336.135	5.96
336.507	6.89
336.879	5.97
337.25	6.57
337.622	5.96
337.993	5.86
338.365	6.46
338.736	6.85
339.108	6.67
339.479	6.43
339.851	6.08
340.222	6.23
340.593	6.65
340.964	5.78
341.336	7.01
341.707	5.94
342.078	6.47
342.449	6.91
342.82	6.35
343.191	6.22
343.562	6.69
343.933	6.32
344.303	6.4
344.674	6.37
345.045	6.68
345.416	6.66
345.786	6.02
346.157	6.65
346.527	5.82
346.898	6
347.268	6.73
347.639	6.47
348.009	5.94
348.38	6.65
348.75	6.13
349.12	5.88
349.49	6.65
349.861	6.29
350.231	6.18
350.601	6.41
350.971	6.36
351.341	6.69
351.711	6.16
352.081	6.22
352.45	6.46
352.82	6.65
353.19	6.05
353.56	6.17
353.929	6.46
354.299	6.46
354.669	6.2
355.038	6.41
355.408	6.51
355.777	6.5
356.147	5.81
356.516	6.6
356.885	7
357.254	6.7
357.624	7.1
357.993	6.67
358.362	6.05
358.731	6.11
359.1	6.59
359.469	6.47
359.838	6.48
360.207	6.32
360.576	6.2
360.945	6.56
361.314	6.74
361.682	6.38
362.051	6.34
362.42	6.68
362.788	6.56
363.157	6.66
363.525	6.64
363.894	6.66
364.262	6.61
364.631	6.26
364.999	6.53
365.367	5.94
365.735	7
366.104	6.62
366.472	6.86
366.84	6.73
367.208	5.96
367.576	6.75
367.944	6.72
368.312	6.51
368.68	6.41
369.048	6.54
369.416	6.46
369.783	6.5
370.151	6.72
370.519	6.88
370.886	7.08
371.254	6.69
371.621	6.92
371.989	6.92
372.356	6.3
372.724	6.81
373.091	6.26
373.458	6.63
373.826	6.82
374.193	6.45
374.56	6.53
374.927	6.98
375.294	6.65
375.661	6.79
376.028	6.72
376.395	6.49
376.762	6.98
377.129	6.88
377.496	6.65
377.863	6.99
378.229	6.46
378.596	6.59
378.963	6.64
379.329	6.54
379.696	6.63
380.062	6.66
380.429	6.68
380.795	6.7
381.161	6.42
381.528	7.01
381.894	7.03
382.26	6.68
382.626	7.01
382.993	6.25
383.359	7.02
383.725	6.47
384.091	6.91
384.457	6.78
384.823	6.52
385.188	6.74
385.554	6.56
385.92	7.02
386.286	6.94
386.651	6.98
387.017	6.97
387.383	6.8
387.748	6.66
388.114	6.84
388.479	6.75
388.845	7.25
389.21	6.93
389.575	7.1
389.94	7
390.306	6.75
390.671	7.06
391.036	6.56
391.401	7
391.766	7.08
392.131	7.07
392.496	7.18
392.861	6.94
393.226	7.11
393.591	6.91
393.956	6.75
394.32	6.91
394.685	6.75
395.05	6.85
395.414	6.93
395.779	6.43
396.143	6.82
396.508	7.08
396.872	7.06
397.236	6.94
397.601	6.75
397.965	7
398.329	6.94
398.694	6.99
399.058	7.08
399.422	6.82
399.786	6.95
400.15	6.95
400.514	7.07
400.878	7.02
401.242	7.5
401.605	6.93
401.969	7.07
402.333	7.02
402.697	6.98
403.06	7.24
403.424	7
403.787	6.64
404.151	7.08
404.514	7.37
404.878	6.97
405.241	7.27
405.604	7.18
405.968	7.11
406.331	6.88
406.694	7.05
407.057	7.1
407.42	7.11
407.783	6.79
408.146	7.18
408.509	6.91
408.872	6.94
409.235	6.94
409.598	7.29
409.961	7.13
410.323	7.45
410.686	7.15
411.049	7.12
411.411	7.03
411.774	7.29
412.136	7
412.499	6.91
412.861	7.19
413.223	7.22
413.586	7.24
413.948	7.28
414.31	7.32
414.672	7.28
415.035	7.08
415.397	7.46
415.759	6.93
416.121	7.55
416.483	7.07
416.845	7.11
417.206	7.11
417.568	7.14
417.93	6.9
418.292	7.19
418.653	7.13
419.015	7.22
419.377	7.27
419.738	7.13
420.1	7.08
420.461	7.03
420.822	7.15
421.184	7.1
421.545	7.13
421.906	7.04
422.267	7.02
422.629	7.13
422.99	7.07
423.351	7.03
423.712	7.05
424.073	7.12
424.434	6.99
424.795	7.19
425.155	7.19
425.516	7.03
425.877	7.14
426.238	7.06
426.598	7.12
426.959	7.12
427.32	7.04
427.68	7.17
428.041	7.1
428.401	7.19
428.761	7.13
429.122	7.25
429.482	7.14
429.842	7.43
430.202	7.21
430.563	7.26
430.923	7.23
431.283	7.46
431.643	7.24
432.003	7.38
432.363	7.39
432.722	7.29
433.082	7.33
433.442	7.28
433.802	7.26
434.161	7.3
434.521	7.52
434.881	7.46
435.24	7.25
435.6	7.45
435.959	7.45
436.319	7.29
436.678	7.25
437.037	7.22
437.396	7.55
437.756	7.54
438.115	7.26
438.474	7.42
438.833	7.25
439.192	7.23
439.551	7.52
439.91	7.18
440.269	7.41
440.628	7.34
440.987	7.44
441.345	7.34
441.704	7.4
442.063	7.33
442.421	7.3
442.78	7.34
443.138	7.3
443.497	7.28
443.855	7.37
444.214	7.37
444.572	7.53
444.93	7.59
445.288	7.4
445.647	7.47
446.005	7.36
446.363	7.35
446.721	7.47
447.079	7.36
447.437	7.34
447.795	7.43
448.153	7.26
448.51	7.42
448.868	7.34
449.226	7.41
449.584	7.43
449.941	7.49
450.299	7.45
450.656	7.45
451.014	7.35
451.371	7.43
451.729	7.45
452.086	7.67
452.443	7.55
452.801	7.65
453.158	7.58
453.515	7.59
453.872	7.7
454.229	7.58
454.586	7.56
454.943	7.58
455.3	7.7
455.657	7.38
456.014	7.64
456.371	7.62
456.727	7.68
457.084	7.68
457.441	7.57
457.797	7.68
458.154	7.65
458.51	7.58
458.867	7.71
459.223	7.81
459.58	7.78
459.936	7.77
460.292	7.62
460.648	7.62
461.005	7.62
461.361	7.72
461.717	7.63
462.073	7.54
462.429	7.43
462.785	7.49
463.141	7.55
463.496	7.55
463.852	7.79
464.208	7.68
464.564	7.88
464.919	7.74
465.275	7.71
465.631	7.77
465.986	7.67
466.342	7.74
466.697	7.6
467.052	7.82
467.408	7.79
467.763	7.9
468.118	7.84
468.473	7.55
468.829	7.88
469.184	7.71
469.539	7.83
469.894	7.58
470.249	7.94
470.603	7.87
470.958	7.76
471.313	7.72
471.668	8.06
472.023	7.81
472.377	7.87
472.732	7.88
473.086	7.84
473.441	7.81
473.795	7.99
474.15	7.86
474.504	7.76
474.859	7.88
475.213	7.8
475.567	7.73
475.921	7.66
476.275	7.91
476.63	7.92
476.984	8.04
477.338	8.03
477.692	7.73
478.045	7.92
478.399	7.94
478.753	7.91
479.107	7.91
479.461	7.95
479.814	7.84
480.168	7.94
480.521	7.9
480.875	7.91
481.228	8.05
481.582	7.73
481.935	8.01
482.289	7.99
482.642	7.98
482.995	7.86
483.348	7.9
483.701	7.96
484.055	7.9
484.408	7.95
484.761	7.82
485.114	7.82
485.466	7.67
485.819	7.63
486.172	7.54
486.525	7.53
486.878	7.55
487.23	7.66
487.583	7.68
487.936	7.77
488.288	7.81
488.641	7.9
488.993	7.78
489.345	7.7
489.698	7.77
490.05	7.65
490.402	7.72
490.754	7.71
491.107	7.82
491.459	7.8
491.811	7.96
492.163	7.93
492.515	7.99
492.866	8
493.218	7.93
493.57	7.89
493.922	7.77
494.274	7.85
494.625	7.88
494.977	7.98
495.328	7.97
495.68	8.08
496.031	8.19
496.383	8.04
496.734	8.34
497.086	8.34
497.437	8.28
497.788	8.1
498.139	8.15
498.49	8.36
498.842	8.05
499.193	8.13
499.544	8.12
499.894	8.12
500.245	8.13
500.596	8.12
500.947	8.29
501.298	8.12
501.648	8.25
501.999	8.33
502.35	8.31
502.7	8.44
503.051	8.01
503.401	8.31
503.752	8.58
504.102	8.32
504.452	8.43
504.803	8.18
505.153	8.38
505.503	8.42
505.853	8.48
506.203	8.44
506.553	8.53
506.903	8.36
507.253	8.39
507.603	8.34
507.953	8.58
508.303	8.56
508.652	8.36
509.002	8.44
509.352	8.46
509.701	8.48
510.051	8.36
510.4	8.29
510.75	8.5
511.099	8.54
511.449	8.5
511.798	8.53
512.147	8.44
512.496	8.56
512.846	8.7
513.195	8.49
513.544	8.52
513.893	8.59
514.242	8.49
514.591	8.66
514.939	8.51
515.288	8.53
515.637	8.63
515.986	8.65
516.334	8.54
516.683	8.59
517.032	8.64
517.38	8.73
517.729	8.78
518.077	8.66
518.426	8.68
518.774	8.88
519.122	8.63
519.47	8.76
519.819	8.45
520.167	8.66
520.515	8.62
520.863	8.61
521.211	8.66
521.559	8.64
521.907	8.51
522.255	8.72
522.602	8.68
522.95	8.7
523.298	8.79
523.645	8.86
523.993	8.76
524.341	8.87
524.688	8.87
525.036	8.86
525.383	8.88
525.73	8.95
526.078	8.95
526.425	8.95
526.772	9.02
527.119	8.89
527.466	8.86
527.814	8.95
528.161	8.82
528.508	8.89
528.854	8.84
529.201	8.78
529.548	8.84
529.895	8.86
530.242	8.69
530.588	8.73
530.935	8.7
531.282	8.68
531.628	8.64
531.975	8.74
532.321	8.8
532.667	8.98
533.014	8.94
533.36	9.06
533.706	9.04
534.052	9.08
534.399	9.1
534.745	8.98
535.091	9.05
535.437	9.04
535.783	8.88
536.129	8.9
536.474	9.04
536.82	8.97
537.166	9.12
537.512	9.3
537.857	9.29
538.203	9.14
538.549	9.18
538.894	9.19
539.239	9.26
539.585	9.2
539.93	9.1
540.276	9.35
540.621	9.42
540.966	9.39
541.311	9.34
541.656	9.41
542.001	9.46
542.346	9.52
542.691	9.4
543.036	9.33
543.381	9.25
543.726	9.22
544.071	9.21
544.415	9.24
544.76	9.3
545.105	9.35
545.449	9.41
545.794	9.44
546.138	9.46
546.483	9.47
546.827	9.65
547.171	9.67
547.516	9.79
547.86	9.65
548.204	9.61
548.548	9.67
548.892	9.72
549.236	9.65
549.58	9.58
549.924	9.63
550.268	9.81
550.612	9.92
550.956	10.06
551.3	9.8
551.643	9.88
551.987	10
552.33	9.82
552.674	10.06
553.017	9.97
553.361	9.79
553.704	10.03
554.048	9.97
554.391	9.92
554.734	9.93
555.077	10.09
555.42	9.92
555.764	9.97
556.107	9.87
556.45	10.01
556.793	10.2
557.135	10.1
557.478	10.18
557.821	10.28
558.164	10.15
558.507	10.22
558.849	10.22
559.192	10.43
559.534	10.26
559.877	10.42
560.219	10.3
560.562	10.56
560.904	10.39
561.246	10.57
561.589	10.57
561.931	10.31
562.273	10.27
562.615	10.35
562.957	10.51
563.299	10.47
563.641	10.37
563.983	10.68
564.325	10.56
564.667	10.49
565.008	10.6
565.35	10.64
565.692	10.51
566.033	10.58
566.375	10.75
566.716	10.84
567.058	10.85
567.399	10.68
567.741	10.52
568.082	10.78
568.423	10.77
568.764	10.53
569.105	10.81
569.447	10.82
569.788	10.91
570.129	10.94
570.47	10.85
570.811	10.91
571.151	10.76
571.492	11.1
571.833	10.88
572.174	10.96
572.514	10.9
572.855	10.99
573.195	10.88
573.536	11.04
573.876	10.93
574.217	11.03
574.557	11.07
574.898	11.1
575.238	10.98
575.578	10.99
575.918	11.26
576.258	11.07
576.598	11.34
576.938	11.13
577.278	11.43
577.618	11.13
577.958	11.17
578.298	11.19
578.638	11.33
578.977	11.39
579.317	11.16
579.657	11.43
579.996	11.35
580.336	11.45
580.675	11.42
581.014	11.55
581.354	11.7
581.693	11.55
582.032	11.35
582.372	11.76
582.711	11.55
583.05	11.63
583.389	11.67
583.728	11.72
584.067	11.92
584.406	11.93
584.745	11.64
585.083	11.88
585.422	11.81
585.761	11.82
586.1	11.97
586.438	11.66
586.777	12.07
587.115	11.92
587.454	11.84
587.792	12
588.13	12.1
588.469	11.96
588.807	11.99
589.145	11.97
589.483	12.02
589.821	11.95
590.159	11.95
590.497	12.28
590.835	12.55
591.173	11.91
591.511	12.32
591.849	12.2
592.187	12.37
592.524	12.3
592.862	12.27
593.2	12.51
593.537	12.36
593.875	12.32
594.212	12.06
594.55	12.41
594.887	12.51
595.224	12.27
595.561	12.49
595.899	12.35
596.236	12.67
596.573	12.48
596.91	12.09
597.247	12.26
597.584	12.75
597.921	12.65
598.258	12.57
598.594	12.53
598.931	12.58
599.268	12.54
599.604	12.39
599.941	12.4
600.277	12.54
600.614	12.68
600.95	12.67
601.287	12.81
601.623	12.87
601.959	12.85
602.296	12.98
602.632	12.97
602.968	13.1
603.304	12.8
603.64	13.04
603.976	13.15
604.312	13.07
604.648	13.18
604.984	12.99
605.319	13.07
605.655	12.97
605.991	12.91
606.326	12.82
606.662	12.93
606.998	12.82
607.333	13.11
607.668	12.96
608.004	13.07
608.339	13.4
608.674	13.47
609.01	13.06
609.345	12.95
609.68	13.35
610.015	13.07
610.35	13.09
610.685	13.41
611.02	13.27
611.355	13.54
611.689	13.21
612.024	13.52
612.359	13.41
612.694	13.43
613.028	13.18
613.363	13.45
613.697	14.09
614.032	13.51
614.366	13.5
614.7	13.5
615.035	13.68
615.369	13.62
615.703	13.57
616.037	13.92
616.371	13.49
616.705	13.65
617.039	14
617.373	13.85
617.707	13.93
618.041	13.89
618.375	13.87
618.709	14.23
619.042	13.8
619.376	14.16
619.71	14.1
620.043	14.22
620.377	14.11
620.71	14.31
621.043	14.03
621.377	14.13
621.71	14.21
622.043	13.96
622.376	13.8
622.709	14.14
623.043	14.31
623.376	14.09
623.709	13.72
624.041	14.63
624.374	14.48
624.707	14.25
625.04	14.28
625.373	13.93
625.705	14.15
626.038	14.64
626.37	14.28
626.703	14.42
627.035	14.42
627.368	14.74
627.7	14.56
628.032	14.64
628.365	14.87
628.697	14.86
629.029	14.63
629.361	14.55
629.693	14.59
630.025	14.55
630.357	14.97
630.689	14.74
631.021	14.69
631.353	14.71
631.684	14.73
632.016	14.41
632.348	14.84
632.679	15
633.011	15.12
633.342	15.02
633.674	14.98
634.005	15.65
634.336	15.11
634.668	15.32
634.999	14.9
635.33	15.2
635.661	15.06
635.992	15.2
636.323	15.49
636.654	15.19
636.985	15.16
637.316	15.29
637.647	14.95
637.977	15.32
638.308	15.37
638.639	14.97
638.969	15.24
639.3	15.14
639.63	14.97
639.961	15.44
640.291	15.35
640.622	15.56
640.952	15.49
641.282	16.01
641.612	15.47
641.943	15.38
642.273	15.61
642.603	15.96
642.933	15.83
643.263	15.47
643.592	15.3
643.922	15.58
644.252	15.88
644.582	15.87
644.911	15.5
645.241	15.72
645.571	15.6
645.9	15.3
646.23	16.01
646.559	15.85
646.888	15.53
647.218	15.9
647.547	16.4
647.876	15.56
648.205	16.09
648.534	15.99
648.863	15.77
649.192	16.41
649.521	15.79
649.85	16.03
650.179	15.72
650.508	16.04
650.837	16.13
651.165	16.19
651.494	16.36
651.822	16.42
652.151	16.04
652.479	16.23
652.808	16.09
653.136	16.18
653.465	15.83
653.793	16.04
654.121	15.74
654.449	16.66
654.777	16.66
655.105	16.05
655.433	16.15
655.761	16.01
656.089	16.66
656.417	17.27
656.745	16.15
657.073	16.32
657.4	16.65
657.728	16.24
658.056	16.31
658.383	16.16
658.711	16.89
659.038	17.11
659.365	16.83
659.693	16.98
660.02	16.68
660.347	16.72
660.674	17.23
661.001	16.89
661.329	16.06
661.656	16.89
661.982	17.11
662.309	16.75
662.636	16.67
662.963	16.97
663.29	16.86
663.616	16.88
663.943	16.46
664.27	16.48
664.596	17.64
664.923	16.7
665.249	16.71
665.576	16.85
665.902	17.31
666.228	17.17
666.554	17.21
666.881	17.11
667.207	17.31
667.533	16.94
667.859	17.47
668.185	17.39
668.511	16.92
668.837	17.48
669.162	17.67
669.488	16.74
669.814	17.79
670.139	17.36
670.465	17.65
670.791	17.72
671.116	17.81
671.442	17.54
671.767	17.85
672.092	17.52
672.418	17.5
672.743	17.53
673.068	17.23
673.393	17.67
673.718	18.27
674.043	17.44
674.368	17.58
674.693	17.98
675.018	17.52
675.343	18.22
675.667	17.39
675.992	18.19
676.317	18.05
676.641	18.24
676.966	18.34
677.29	17.7
677.615	18.48
677.939	17.8
678.264	17.89
678.588	18
678.912	18.21
679.236	18.63
679.56	17.64
679.885	18.27
680.209	17.65
680.532	18.08
680.856	18.36
681.18	18.47
681.504	18.2
681.828	18.16
682.152	17.69
682.475	18.27
682.799	18.34
683.122	18.83
683.446	17.85
683.769	18.48
684.093	17.86
684.416	18.42
684.739	19.04
685.062	17.88
685.386	18.82
685.709	18.15
686.032	18.08
686.355	18.83
686.678	18.6
687.001	19.04
687.324	19.03
687.646	18.52
687.969	18.52
688.292	18.29
688.614	18.5
688.937	19.13
689.26	18.46
689.582	19.09
689.904	18.97
690.227	19.37
690.549	18.37
690.871	19.3
691.194	18.71
691.516	18.83
691.838	18.48
692.16	18.39
692.482	18.68
692.804	19.77
693.126	19.08
693.448	18.96
693.769	20.12
694.091	19.37
694.413	19.22
694.735	19.21
695.056	19.49
695.378	19.15
695.699	18.46
696.021	18.38
696.342	18.84
696.663	18.44
696.984	17.65
697.306	18.19
697.627	19.29
697.948	19.8
698.269	19.3
698.59	19.42
698.911	19.19
699.232	19.17
699.553	19.28
699.873	20.05
700.194	20.11
700.515	19.66
700.835	19.6
701.156	19.75
701.477	19.5
701.797	19.29
702.117	20.11
702.438	19.66
702.758	19.09
703.078	19.39
703.398	19.48
703.719	19.49
704.039	19.18
704.359	20.12
704.679	19.14
704.999	19.79
705.319	19.52
705.638	19.26
705.958	19.46
706.278	19.49
706.597	19.18
706.917	20.17
707.237	20.2
707.556	20.21
707.876	20.84
708.195	19.78
708.514	19.41
708.834	20.37
709.153	20.13
709.472	21.21
709.791	20.9
710.11	19.6
710.429	21.92
710.748	20.44
711.067	19.51
711.386	20.76
711.705	19.93
712.023	20.71
712.342	18.85
712.661	20.14
712.979	20.61
713.298	20
713.616	19.64
713.935	20.45
714.253	19.86
714.572	20.37
714.89	20
715.208	21.48
715.526	21.03
715.844	21.36
716.162	20.42
716.48	20.69
716.798	20.78
717.116	20.11
717.434	20.63
717.752	19.61
718.069	20.61
718.387	20.27
718.705	20.81
719.022	19.59
719.34	21.6
719.657	20.75
719.975	21.33
720.292	21.48
720.609	20.54
720.927	21.53
721.244	21.46
721.561	21.3
721.878	23.57
722.195	20.6
722.512	20.98
722.829	22.21
723.146	21.19
723.463	21.66
723.779	20.28
724.096	22.21
724.413	21.25
724.729	21.53
725.046	21.49
725.362	21.76
725.679	20.93
725.995	20.58
726.311	21.39
726.628	21.1
726.944	22.26
727.26	22.23
727.576	22.34
727.892	21.34
728.208	21.21
728.524	20.48
728.84	20.75
729.156	21.73
729.472	21.87
729.787	22.78
730.103	21.6
730.419	21.04
730.734	21.2
731.05	20.39
731.365	20.49
731.681	21.14
731.996	22.16
732.311	22.41
732.626	21.47
732.942	19.87
733.257	23.12
733.572	23.38
733.887	20.8
734.202	22.03
734.517	22.25
734.832	21.48
735.146	21.7
735.461	21.99
735.776	20.95
736.091	22.03
736.405	21.24
736.72	21.25
737.034	22.28
737.349	22.16
737.663	22.69
737.977	23.3
738.292	22.84
738.606	24.02
738.92	24.35
739.234	22.53
739.548	22.19
739.862	21.19
740.176	22.16
740.49	22.51
740.804	23.35
741.117	22.76
741.431	21.71
741.745	21.82
742.058	23.52
742.372	22.29
742.685	22.86
742.999	22.11
743.312	21.62
743.626	22.6
743.939	21.67
744.252	22.63
744.565	20.57
744.878	23.08
745.191	22.34
745.505	22.76
745.817	23.17
746.13	22.81
746.443	23.42
746.756	22.86
747.069	21.52
747.381	22.79
747.694	23.42
748.007	22.04
748.319	21.6
748.632	22.82
748.944	22.45
749.256	22.08
749.569	23.39
749.881	22.12
750.193	23.34
750.505	21.3
750.817	21.94
751.129	24.17
751.441	23.18
751.753	24.24
752.065	24.81
752.377	22.51
752.689	24.27
753	23.42
753.312	22.19
753.624	22.22
753.935	23.3
754.247	23.81
754.558	23.61
754.869	23.2
755.181	22.08
755.492	24.65
755.803	22.38
756.114	23.1
756.425	22.2
756.736	21.11
757.047	25.04
757.358	24.38
757.669	22.01
757.98	22.07
758.291	23.47
758.601	24.1
758.912	23.4
759.223	24.69
759.533	22.22
759.844	23.18
760.154	24.4
760.464	24.85
760.775	22.25
761.085	23.93
761.395	24.8
761.705	23.49
762.016	24.75
762.326	24.49
762.636	24.93
762.945	22.7
763.255	24.03
763.565	22.28
763.875	25.93
764.185	24
764.494	23.36
764.804	24.03
765.113	23.02
765.423	24.44
765.732	23.94
766.042	24.81
766.351	23.49
766.66	24.24
766.97	25.06
767.279	23.85
767.588	24.17
767.897	24.9
768.206	22.41
768.515	22.64
768.824	24.35
769.133	22.94
769.441	23.23
769.75	24.97
770.059	25.2
770.367	24.58
770.676	24.21
770.984	25.87
771.293	26.2
771.601	25.2
771.91	22.37
772.218	23.72
772.526	28.13
772.834	26.56
773.142	24.48
773.45	24.24
773.758	25.44
774.066	23.68
774.374	27.04
774.682	24.01
774.99	27.6
775.298	22.27
775.605	26.97
775.913	24.41
776.22	26.42
776.528	26.91
776.835	27.93
777.143	23
777.45	24.51
777.757	25.73
778.065	25.28
778.372	21.49
778.679	23.14
778.986	24.58
779.293	26.52
779.6	26.88
779.907	22.67
780.214	25.96
780.52	26.13
780.827	25.85
781.134	25.7
781.44	23.02
781.747	25.61
782.053	24.84
782.36	25.27
782.666	26.58
782.973	25.51
783.279	24.5
783.585	25.73
783.891	25.08
784.197	23.27
784.503	28.78
784.809	23.5
785.115	25.74
785.421	26.5
785.727	23.52
786.033	25.93
786.339	23.04
786.644	26.89
786.95	26.41
787.255	25.8
787.561	28.44
787.866	24.47
788.172	29.25
788.477	24.23
788.782	25.02
789.088	22.12
789.393	24.76
789.698	21.77
790.003	25.03
790.308	21.69
790.613	27.49
790.918	28.91
791.223	28.97
791.527	19.38
791.832	28.47
792.137	25.18
792.441	25.44
792.746	23.57
793.05	21.61
793.355	24.74
793.659	28.22
793.963	25.67
794.268	29.86
794.572	25.64
794.876	28.99
795.18	28.29
795.484	25.13
795.788	29.55
796.092	22.3
796.396	21.39
796.7	26.63
797.004	26.59
797.307	22.03
797.611	29.26
797.915	24.46
798.218	24.75
798.522	29.67
798.825	26.43
799.128	23.15
799.432	22.1
799.735	24.26
800.038	32.94
800.341	28.62
800.644	25.34
800.947	27.07
801.25	27.35
801.553	24.49
801.856	23.11
802.159	27.02
802.462	24.23
802.764	25.96
803.067	24.7
803.37	24.78
803.672	24.37
803.975	24.33
804.277	26.38
804.579	24.78
804.882	24.5
805.184	28.71
805.486	24.87
805.788	30.29
806.09	27.62
806.392	20.6
806.694	27.2
806.996	27.65
807.298	23.93
807.6	27.4
807.902	27.3
808.203	21.56
808.505	26.65
808.807	28.02
809.108	22.53
809.409	26.67
809.711	27.19
810.012	21.21
810.313	23.34
810.615	26.59
810.916	24.68
811.217	26.22
811.518	27.63
811.819	25.33
812.12	24.66
812.421	25.08
812.722	26.24
813.023	25.44
813.323	29.7
813.624	21.95
813.925	33.56
814.225	24.32
814.526	36.15
814.826	30.77
815.126	23.27
815.427	25.71
815.727	22.71
816.027	21.11
816.327	28.76
816.627	20.64
816.927	30.65
817.227	27.54
817.527	25.09
817.827	29.37
818.127	31.41
818.427	25.01
818.727	27.97
819.026	22.33
819.326	30.52
819.625	28.43
819.925	27.52
820.224	30.28
820.524	22.33
820.823	34.56
821.122	25.35
821.421	27.14
821.72	25.62
822.019	29.99
822.318	27.6
822.617	26.43
822.916	24.53
823.215	26.61
823.514	27.88
823.813	29.61
824.111	28.63
824.41	29.77
824.709	28.49
825.007	27.43
825.306	29.22
825.604	28.88
825.902	28.02
826.201	27.78
826.499	28.65
826.797	29.31
827.095	28.28
827.393	28.42
827.691	28.94
827.989	26.73
828.287	29
828.585	27.51
828.882	26.06
829.18	27.87
829.478	29.85
829.775	29.94
830.073	29.43
830.37	31.08
830.668	28.72
830.965	29.04
831.263	30.09
831.56	28.74
831.857	26.09
832.154	28.65
832.451	28.12
832.748	27.26
833.045	27.99
833.342	26.28
833.639	30.13
833.936	27.05
834.232	27.79
834.529	29.62
834.826	29.55
835.122	32.99
835.419	28.61
835.715	26.61
836.012	31.66
836.308	22.89
836.604	23.62
836.901	29.35
837.197	25.65
837.493	28.54
837.789	30.26
838.085	28.14
838.381	30.25
838.677	27.45
838.972	30.58
839.268	24.25
839.564	28.42
839.86	28.35
840.155	25.91
840.451	19.92
840.746	33.12
841.042	23.59
841.337	31.06
841.632	18.95
841.928	33.35
842.223	27.08
842.518	21.29
842.813	34.42
843.108	21.7
843.403	36.16
843.698	26.06
843.993	31.04
844.287	21.79
844.582	30.62
844.877	25.05
845.171	30.45
845.466	18.44
845.761	24.99
846.055	36.69
846.349	31.63
846.644	30.38
846.938	13.56
847.232	25.99
847.526	17.98
847.82	29.15
848.114	15.78
848.408	30.96
848.702	12.12
848.996	-3.34
849.29	15.57
849.584	34.88
849.877	33.68
850.171	25.21
850.465	28.34
850.758	25.48
851.052	26.94
851.345	17.08
851.638	24.45
851.932	24.31
852.225	21.55
852.518	23.87
852.811	27.8
853.104	-1.54
853.397	18.34
853.69	21.1
853.983	21.78
854.276	22.9
854.569	38.12
854.861	27.07
855.154	27.47
855.447	9.59
855.739	41.35
856.032	24.37
856.324	38.85
856.616	35.65
856.909	30.1
857.201	46.1
857.493	26.72
857.785	23.99
858.077	31.34
858.369	24.06
858.661	22.82
858.953	8.96
859.245	24.58
859.537	20.13
859.829	59.37
860.12	54.36
860.412	24.45
860.703	25.04
860.995	8
861.286	19.47
861.578	11.51
861.869	38.09
862.16	6.13
862.452	20.36
862.743	43.47
863.034	36.57
863.325	26.87
863.616	40.84
863.907	19.98
864.198	23.68
864.488	51.45
864.779	27.77
865.07	37.12
865.36	30.9
865.651	21.83
865.941	29.52
866.232	14.98
866.522	19.4
866.813	39.66
867.103	31.8
867.393	19.78
867.683	34.72
867.973	0.05
868.263	11.03
868.553	43.04
868.843	30.52
869.133	6.87
869.423	26.28
869.713	43.66
870.002	26.83
870.292	33.29
870.582	36.14
870.871	3.05
871.161	37.42
871.45	23.98
871.739	27.75
872.029	43.8
872.318	46.55
872.607	53.14
872.896	31.01
873.185	16.78
873.474	15.27
873.763	29.93
874.052	21.16
874.341	31.3
874.63	20.94
874.918	21.41
875.207	36.61
875.496	43.14
875.784	4.05
876.073	17.39
876.361	-1.99
876.649	24.57
876.938	8.05
877.226	8.3
877.514	21.45
877.802	29.7
878.09	27.87
878.378	45.81
878.666	46.25
878.954	83.16
879.242	5.53
879.53	68.25
879.817	34.86
880.105	34.41
880.392	17.65
880.68	-8.65
880.967	29.32
881.255	44.78
881.542	29.6
881.83	21.04
882.117	73.66
882.404	36.36
882.691	22.79
882.978	8.32
883.265	32.3
883.552	38.98
883.839	26.15
884.126	33.88
884.413	38.69
884.699	36.82
884.986	36.1
885.273	29.03
885.559	29.03
885.846	29.03
