Data from 0388_chest_Reflection__3__79.txt Node

Date: Fri Dec 15 16:57:27 CST 2023
User: ToomeyLab
Spectrometer: FLMS14357
Trigger mode: 0
Integration Time (sec): 1.000000E-2
Scans to average: 100
Electric dark correction enabled: true
Nonlinearity correction enabled: false
Boxcar width: 0
XAxis mode: Wavelengths
Number of Pixels in Spectrum: 2048
>>>>>Begin Spectral Data<<<<<
189.047	34.16
189.435	34.16
189.823	34.16
190.211	212.29
190.599	-61.95
190.987	111.05
191.375	82.97
191.763	-46.69
192.151	-187462771845700
192.538	111.98
192.926	35.6
193.314	141.83
193.702	137.5
194.089	-520.24
194.477	-58.95
194.864	1125
195.252	83.96
195.639	135.71
196.027	-238.45
196.414	61.27
196.801	10.87
197.189	32
197.576	-274.7
197.963	-12.53
198.351	-2.21
198.738	3.85
199.125	12.78
199.512	15.76
199.899	-18.47
200.286	19.92
200.673	30.48
201.06	-10.8
201.447	-29.96
201.833	38.61
202.22	30.18
202.607	35.81
202.994	12.98
203.38	2.32
203.767	14.17
204.154	40.93
204.54	44.91
204.927	7.69
205.313	11.41
205.699	31.44
206.086	34.59
206.472	23.23
206.858	25.48
207.245	-27.77
207.631	11.68
208.017	16.73
208.403	-26.23
208.789	53.47
209.175	-0.78
209.561	16.68
209.947	55.98
210.333	-2.17
210.719	14.19
211.105	31.72
211.491	29.62
211.876	12.07
212.262	17.54
212.648	-4.61
213.034	21.9
213.419	0.15
213.805	24.04
214.19	10.12
214.576	24.78
214.961	11.65
215.346	-31.68
215.732	-30.19
216.117	37.23
216.502	1.81
216.888	49.76
217.273	27.1
217.658	13.58
218.043	23.41
218.428	12
218.813	-4.61
219.198	-17.78
219.583	14.07
219.968	14.81
220.353	0.51
220.738	22.84
221.122	16.46
221.507	-8.91
221.892	-16.69
222.276	1.97
222.661	8.36
223.046	23.56
223.43	9.59
223.815	8.81
224.199	-15.75
224.583	-5.66
224.968	8.59
225.352	5.89
225.736	-0.76
226.121	-6.28
226.505	7.43
226.889	6.48
227.273	-1.03
227.657	5.17
228.041	2.63
228.425	-0.83
228.809	5.6
229.193	2.79
229.577	1.98
229.961	2.52
230.344	2.33
230.728	2.12
231.112	2.52
231.495	2.16
231.879	1.49
232.263	1.31
232.646	3.11
233.03	2.43
233.413	3.46
233.797	3.87
234.18	1.82
234.563	3.93
234.946	2.13
235.33	4.13
235.713	2.65
236.096	3.69
236.479	2.7
236.862	2.05
237.245	4.54
237.628	1.12
238.011	4.34
238.394	2.52
238.777	1.27
239.16	2.54
239.543	1.97
239.925	2.67
240.308	3.42
240.691	3.64
241.073	4.27
241.456	1.84
241.838	2.62
242.221	2.16
242.603	2.69
242.986	2.18
243.368	2.78
243.75	2.88
244.133	2.34
244.515	2.82
244.897	2.88
245.279	2.51
245.661	1.57
246.043	0.54
246.425	1.68
246.807	3.75
247.189	2.4
247.571	2.77
247.953	2.43
248.335	2.16
248.717	2.41
249.098	2.22
249.48	2.49
249.862	2.44
250.243	2.44
250.625	2.55
251.006	2.85
251.388	1.94
251.769	4.12
252.151	3.84
252.532	2.28
252.913	1.48
253.295	2.67
253.676	2.33
254.057	3.13
254.438	1.98
254.819	2.38
255.2	1.19
255.581	2.67
255.962	2.23
256.343	3.03
256.724	2.05
257.105	2.62
257.486	2.26
257.867	3.16
258.247	3.64
258.628	1.88
259.009	2.12
259.389	2.31
259.77	2.7
260.15	1.8
260.531	1.98
260.911	2.73
261.292	2.25
261.672	2.8
262.052	2.3
262.432	2.74
262.813	2.71
263.193	2.37
263.573	1.87
263.953	1.73
264.333	2.2
264.713	2.39
265.093	2.46
265.473	2.74
265.853	1.68
266.233	2.78
266.612	1.01
266.992	0.97
267.372	2.02
267.752	2.36
268.131	2.02
268.511	2.7
268.89	2.68
269.27	2.22
269.649	1.97
270.029	2.26
270.408	3.37
270.787	2.54
271.167	3.12
271.546	3.09
271.925	2.47
272.304	2.82
272.683	2.62
273.062	2.42
273.441	2.89
273.82	1.62
274.199	2.32
274.578	2.62
274.957	2.4
275.336	2.62
275.715	2.24
276.093	2.53
276.472	2.39
276.851	2.58
277.229	2.54
277.608	1.61
277.986	2.42
278.365	2.58
278.743	2.17
279.122	2.22
279.5	2.38
279.878	2.44
280.257	2.29
280.635	2.69
281.013	2.54
281.391	3.11
281.769	2.56
282.147	3.06
282.525	2.61
282.903	2.51
283.281	2.55
283.659	3.15
284.037	2.75
284.415	2.69
284.792	3.07
285.17	1.91
285.548	1.9
285.925	2.39
286.303	2.15
286.68	1.96
287.058	2.11
287.435	1.92
287.813	2.36
288.19	2.91
288.567	2.55
288.945	2.64
289.322	2.26
289.699	2.89
290.076	2.31
290.453	2.63
290.83	2.22
291.207	2.17
291.584	2.68
291.961	2.8
292.338	2.73
292.715	2.5
293.092	2.74
293.469	2.29
293.845	2.64
294.222	1.68
294.599	2.39
294.975	2
295.352	2.57
295.728	2.06
296.105	2.35
296.481	2.83
296.858	2.56
297.234	2.51
297.61	2.79
297.986	2.58
298.363	2.75
298.739	2.48
299.115	2.19
299.491	2.16
299.867	2.17
300.243	2.54
300.619	2.52
300.995	2.3
301.371	2.88
301.746	2.64
302.122	2.87
302.498	2.52
302.874	2.7
303.249	2.76
303.625	2.96
304	2.69
304.376	2.85
304.751	1.84
305.127	3.64
305.502	2.13
305.878	2.5
306.253	3.08
306.628	3.13
307.003	2.36
307.378	3.37
307.754	2.73
308.129	2.06
308.504	2.46
308.879	2.05
309.254	3.24
309.629	3.33
310.003	2.74
310.378	3.37
310.753	2.66
311.128	2.73
311.502	2.68
311.877	2.95
312.252	2.42
312.626	2.64
313.001	2.3
313.375	2.67
313.75	2.23
314.124	2.63
314.498	2.7
314.873	2.2
315.247	2.05
315.621	3.19
315.995	2.44
316.369	2.59
316.743	2.67
317.117	2.93
317.491	3.01
317.865	2.69
318.239	2.64
318.613	2.73
318.987	2.68
319.361	1.91
319.734	3.63
320.108	3.14
320.482	2.9
320.855	3.06
321.229	2.37
321.602	2.43
321.976	3.14
322.349	2.95
322.723	2.43
323.096	3.03
323.469	2.13
323.843	2.95
324.216	2.95
324.589	2.62
324.962	2.9
325.335	2.9
325.708	2.45
326.081	2.81
326.454	3.09
326.827	2.31
327.2	2.98
327.573	3.09
327.945	3.21
328.318	2.98
328.691	2.68
329.063	2.79
329.436	2.85
329.809	3.01
330.181	3.18
330.553	2.06
330.926	3.38
331.298	2.68
331.671	2.75
332.043	3.42
332.415	2.62
332.787	2.76
333.159	3.14
333.532	2.89
333.904	2.85
334.276	2.64
334.648	2.83
335.02	3.22
335.391	2.6
335.763	2.85
336.135	2.97
336.507	2.99
336.879	3.09
337.25	2.83
337.622	3.01
337.993	3.06
338.365	2.83
338.736	3.19
339.108	2.88
339.479	2.62
339.851	3.06
340.222	2.79
340.593	2.29
340.964	2.44
341.336	3.42
341.707	2.61
342.078	3.17
342.449	3.1
342.82	3.01
343.191	2.96
343.562	2.93
343.933	2.96
344.303	2.87
344.674	2.74
345.045	2.98
345.416	3.28
345.786	2.38
346.157	2.79
346.527	2.55
346.898	2.63
347.268	3.16
347.639	2.74
348.009	3.2
348.38	2.39
348.75	2.82
349.12	2.78
349.49	3.43
349.861	2.85
350.231	3.2
350.601	2.62
350.971	2.78
351.341	2.67
351.711	2.74
352.081	3.21
352.45	2.9
352.82	3.44
353.19	2.9
353.56	2.7
353.929	3.41
354.299	2.59
354.669	3.18
355.038	3.38
355.408	2.87
355.777	2.96
356.147	2.95
356.516	3.11
356.885	2.92
357.254	2.77
357.624	3.62
357.993	2.7
358.362	2.56
358.731	2.5
359.1	2.87
359.469	3.1
359.838	3.22
360.207	2.63
360.576	2.83
360.945	2.95
361.314	3.47
361.682	2.55
362.051	2.9
362.42	2.83
362.788	2.82
363.157	2.86
363.525	2.94
363.894	3.12
364.262	2.84
364.631	2.75
364.999	3.2
365.367	2.6
365.735	3.35
366.104	3.07
366.472	3.07
366.84	2.79
367.208	2.95
367.576	2.91
367.944	3.1
368.312	3.04
368.68	2.38
369.048	2.94
369.416	2.97
369.783	2.78
370.151	2.83
370.519	3.19
370.886	3.39
371.254	2.84
371.621	2.96
371.989	3.07
372.356	2.58
372.724	3.26
373.091	2.66
373.458	3.29
373.826	2.91
374.193	2.76
374.56	2.94
374.927	3.29
375.294	2.81
375.661	3.06
376.028	2.64
376.395	2.94
376.762	3.05
377.129	3.13
377.496	2.71
377.863	2.94
378.229	2.52
378.596	3.1
378.963	2.95
379.329	2.97
379.696	3.16
380.062	3.08
380.429	2.95
380.795	2.71
381.161	3.18
381.528	3.28
381.894	2.78
382.26	2.85
382.626	2.86
382.993	2.64
383.359	3.72
383.725	2.69
384.091	3.13
384.457	3.39
384.823	2.83
385.188	3.03
385.554	2.97
385.92	3.37
386.286	3.01
386.651	3.27
387.017	3.22
387.383	3.2
387.748	2.86
388.114	3.31
388.479	3.08
388.845	3.36
389.21	3.14
389.575	3.18
389.94	2.93
390.306	3.29
390.671	3.11
391.036	2.81
391.401	2.76
391.766	2.87
392.131	3.24
392.496	3.26
392.861	3.05
393.226	3.42
393.591	3.06
393.956	3.18
394.32	3.09
394.685	2.93
395.05	2.71
395.414	3.21
395.779	2.95
396.143	3.36
396.508	3.07
396.872	3.21
397.236	3.23
397.601	3.07
397.965	3.13
398.329	3.25
398.694	2.95
399.058	2.98
399.422	2.64
399.786	3.14
400.15	3.1
400.514	3.13
400.878	3.15
401.242	3.5
401.605	3.24
401.969	3.24
402.333	3.21
402.697	2.85
403.06	3.06
403.424	3.29
403.787	3
404.151	3.32
404.514	3.26
404.878	2.9
405.241	3.19
405.604	3.01
405.968	3.31
406.331	3.05
406.694	3.3
407.057	3.1
407.42	3.25
407.783	3.11
408.146	3.02
408.509	3
408.872	3.08
409.235	3.35
409.598	3.41
409.961	3.35
410.323	3.26
410.686	3.24
411.049	2.74
411.411	3.19
411.774	3.07
412.136	3.15
412.499	3.04
412.861	3.18
413.223	3.22
413.586	3.12
413.948	3.18
414.31	3.31
414.672	3.21
415.035	3.27
415.397	3.41
415.759	2.9
416.121	3.41
416.483	3
416.845	3.13
417.206	3.25
417.568	3.18
417.93	2.86
418.292	3.05
418.653	3.17
419.015	3.27
419.377	3.14
419.738	3.19
420.1	3.07
420.461	3.19
420.822	3.1
421.184	3.12
421.545	3.2
421.906	3.04
422.267	3.11
422.629	3.11
422.99	3.06
423.351	3.09
423.712	3.23
424.073	3.14
424.434	3.14
424.795	3.05
425.155	3.11
425.516	3.07
425.877	3.09
426.238	3.12
426.598	3.11
426.959	3.05
427.32	3.02
427.68	3.08
428.041	3.1
428.401	3.19
428.761	3.11
429.122	3.31
429.482	3.09
429.842	3.28
430.202	3.34
430.563	3.19
430.923	3.11
431.283	3.3
431.643	3.13
432.003	3.27
432.363	3.31
432.722	3.22
433.082	3.46
433.442	3.13
433.802	3.03
434.161	3.26
434.521	3.44
434.881	3.35
435.24	3.3
435.6	3.29
435.959	3.11
436.319	3.16
436.678	3.44
437.037	3.3
437.396	3.36
437.756	3.26
438.115	3.38
438.474	3.35
438.833	3.21
439.192	3.29
439.551	3.36
439.91	3.24
440.269	3.11
440.628	3.39
440.987	3.27
441.345	3.11
441.704	3.17
442.063	3.21
442.421	3.2
442.78	3.2
443.138	3.21
443.497	3.18
443.855	3.21
444.214	3.18
444.572	3.24
444.93	3.26
445.288	3.25
445.647	3.45
446.005	3.18
446.363	3.22
446.721	3.35
447.079	3.12
447.437	3.18
447.795	3.25
448.153	3.11
448.51	3.23
448.868	3.24
449.226	3.35
449.584	3.24
449.941	3.37
450.299	3.33
450.656	3.32
451.014	3.32
451.371	3.35
451.729	3.28
452.086	3.52
452.443	3.36
452.801	3.57
453.158	3.32
453.515	3.24
453.872	3.4
454.229	3.09
454.586	3.27
454.943	3.42
455.3	3.47
455.657	3.27
456.014	3.33
456.371	3.51
456.727	3.39
457.084	3.62
457.441	3.23
457.797	3.54
458.154	3.51
458.51	3.29
458.867	3.5
459.223	3.45
459.58	3.34
459.936	3.37
460.292	3.38
460.648	3.27
461.005	3.28
461.361	3.35
461.717	3.32
462.073	3.2
462.429	3.34
462.785	3.43
463.141	3.35
463.496	3.4
463.852	3.47
464.208	3.32
464.564	3.47
464.919	3.45
465.275	3.56
465.631	3.56
465.986	3.4
466.342	3.3
466.697	3.42
467.052	3.38
467.408	3.51
467.763	3.4
468.118	3.35
468.473	3.42
468.829	3.5
469.184	3.3
469.539	3.42
469.894	3.31
470.249	3.64
470.603	3.61
470.958	3.48
471.313	3.54
471.668	3.61
472.023	3.56
472.377	3.41
472.732	3.69
473.086	3.6
473.441	3.36
473.795	3.68
474.15	3.59
474.504	3.5
474.859	3.6
475.213	3.42
475.567	3.41
475.921	3.55
476.275	3.49
476.63	3.59
476.984	3.65
477.338	3.66
477.692	3.39
478.045	3.38
478.399	3.41
478.753	3.55
479.107	3.6
479.461	3.57
479.814	3.58
480.168	3.51
480.521	3.55
480.875	3.62
481.228	3.54
481.582	3.57
481.935	3.51
482.289	3.43
482.642	3.59
482.995	3.44
483.348	3.48
483.701	3.48
484.055	3.52
484.408	3.49
484.761	3.42
485.114	3.36
485.466	3.22
485.819	3.25
486.172	3.29
486.525	3.36
486.878	3.43
487.23	3.49
487.583	3.49
487.936	3.49
488.288	3.45
488.641	3.53
488.993	3.33
489.345	3.35
489.698	3.4
490.05	3.35
490.402	3.44
490.754	3.44
491.107	3.54
491.459	3.58
491.811	3.6
492.163	3.6
492.515	3.51
492.866	3.61
493.218	3.46
493.57	3.41
493.922	3.41
494.274	3.56
494.625	3.69
494.977	3.63
495.328	3.71
495.68	3.64
496.031	3.75
496.383	3.63
496.734	3.74
497.086	3.78
497.437	3.6
497.788	3.69
498.139	3.53
498.49	3.75
498.842	3.51
499.193	3.57
499.544	3.64
499.894	3.67
500.245	3.66
500.596	3.55
500.947	3.84
501.298	3.63
501.648	3.76
501.999	3.86
502.35	3.81
502.7	3.76
503.051	3.58
503.401	3.71
503.752	3.87
504.102	3.72
504.452	3.79
504.803	3.75
505.153	3.61
505.503	3.69
505.853	3.86
506.203	3.83
506.553	3.78
506.903	3.71
507.253	3.82
507.603	3.71
507.953	3.96
508.303	3.95
508.652	3.76
509.002	3.88
509.352	3.91
509.701	3.74
510.051	3.9
510.4	3.85
510.75	3.75
511.099	3.9
511.449	3.68
511.798	3.85
512.147	3.71
512.496	3.86
512.846	3.98
513.195	3.82
513.544	3.82
513.893	3.86
514.242	3.83
514.591	4.04
514.939	3.96
515.288	3.81
515.637	3.99
515.986	3.85
516.334	3.93
516.683	4.05
517.032	4.07
517.38	3.98
517.729	3.98
518.077	3.9
518.426	4
518.774	4
519.122	3.94
519.47	3.93
519.819	3.76
520.167	3.9
520.515	3.87
520.863	3.95
521.211	3.96
521.559	3.97
521.907	3.9
522.255	4
522.602	3.99
522.95	4.03
523.298	4.03
523.645	4
523.993	4.03
524.341	4.12
524.688	4.17
525.036	4.01
525.383	4.05
525.73	4.14
526.078	3.98
526.425	4.09
526.772	4.1
527.119	3.98
527.466	3.96
527.814	4.01
528.161	4
528.508	4.03
528.854	3.99
529.201	3.95
529.548	4.01
529.895	3.91
530.242	3.78
530.588	3.81
530.935	3.86
531.282	3.95
531.628	4.04
531.975	4.1
532.321	4.1
532.667	4.2
533.014	4.23
533.36	4.2
533.706	4.19
534.052	4.05
534.399	4.04
534.745	4.02
535.091	3.99
535.437	4.08
535.783	4.1
536.129	4.19
536.474	4.22
536.82	4.25
537.166	4.28
537.512	4.3
537.857	4.23
538.203	4.24
538.549	4.11
538.894	4.21
539.239	4.27
539.585	4.21
539.93	4.29
540.276	4.4
540.621	4.4
540.966	4.41
541.311	4.27
541.656	4.22
542.001	4.36
542.346	4.41
542.691	4.28
543.036	4.11
543.381	4.08
543.726	4.15
544.071	4.3
544.415	4.39
544.76	4.36
545.105	4.29
545.449	4.36
545.794	4.47
546.138	4.43
546.483	4.59
546.827	4.47
547.171	4.46
547.516	4.59
547.86	4.45
548.204	4.4
548.548	4.43
548.892	4.53
549.236	4.52
549.58	4.48
549.924	4.58
550.268	4.69
550.612	4.79
550.956	4.78
551.3	4.59
551.643	4.73
551.987	4.79
552.33	4.88
552.674	4.71
553.017	4.64
553.361	4.65
553.704	4.74
554.048	4.74
554.391	4.74
554.734	4.7
555.077	4.9
555.42	4.65
555.764	4.78
556.107	4.66
556.45	4.62
556.793	4.74
557.135	4.91
557.478	5.03
557.821	5.03
558.164	4.94
558.507	4.82
558.849	4.81
559.192	5.07
559.534	4.95
559.877	4.87
560.219	5.04
560.562	5.23
560.904	4.9
561.246	5
561.589	4.97
561.931	4.93
562.273	4.92
562.615	5.14
562.957	5.13
563.299	4.83
563.641	5.1
563.983	5.13
564.325	5.01
564.667	5.07
565.008	5.12
565.35	5.19
565.692	4.88
566.033	5.2
566.375	5.06
566.716	5.29
567.058	4.9
567.399	5.17
567.741	5.06
568.082	5.03
568.423	5.14
568.764	5.16
569.105	5.24
569.447	5.23
569.788	5.17
570.129	5.43
570.47	5.23
570.811	5.43
571.151	5.32
571.492	5.49
571.833	5.38
572.174	5.3
572.514	5.47
572.855	5.35
573.195	5.37
573.536	5.38
573.876	5.28
574.217	5.38
574.557	5.49
574.898	5.46
575.238	5.59
575.578	5.4
575.918	5.55
576.258	5.54
576.598	5.51
576.938	5.57
577.278	5.41
577.618	5.61
577.958	5.58
578.298	5.55
578.638	5.5
578.977	5.52
579.317	5.63
579.657	5.72
579.996	5.66
580.336	5.71
580.675	5.71
581.014	5.79
581.354	5.71
581.693	5.91
582.032	5.52
582.372	5.56
582.711	5.93
583.05	5.93
583.389	6.05
583.728	5.69
584.067	6.01
584.406	5.84
584.745	5.84
585.083	6.01
585.422	6.07
585.761	6.11
586.1	5.79
586.438	6.22
586.777	6.22
587.115	6.11
587.454	6.01
587.792	5.84
588.13	6.39
588.469	6.05
588.807	6.14
589.145	5.85
589.483	6.12
589.821	6.28
590.159	6.13
590.497	6.17
590.835	6.49
591.173	6.16
591.511	6.25
591.849	6.25
592.187	6.19
592.524	6.13
592.862	6.06
593.2	6.68
593.537	6.26
593.875	6.18
594.212	6.35
594.55	6.32
594.887	6.59
595.224	6.48
595.561	6.26
595.899	6.4
596.236	6.32
596.573	6.57
596.91	6.07
597.247	6.27
597.584	6.63
597.921	6.55
598.258	6.27
598.594	6.43
598.931	6.38
599.268	6.4
599.604	6.48
599.941	6.58
600.277	6.51
600.614	6.56
600.95	6.59
601.287	6.92
601.623	6.48
601.959	6.54
602.296	6.58
602.632	6.51
602.968	6.88
603.304	6.98
603.64	6.85
603.976	6.93
604.312	6.85
604.648	6.74
604.984	6.9
605.319	6.96
605.655	6.83
605.991	6.89
606.326	6.75
606.662	6.9
606.998	6.64
607.333	6.88
607.668	7.02
608.004	7.25
608.339	7.35
608.674	7.13
609.01	6.97
609.345	6.79
609.68	7.17
610.015	6.99
610.35	7.04
610.685	7.01
611.02	7.24
611.355	7.15
611.689	7.08
612.024	7.23
612.359	7.01
612.694	7.29
613.028	7.18
613.363	7.5
613.697	7.55
614.032	7.46
614.366	7.41
614.7	7.61
615.035	7.37
615.369	7.37
615.703	7.47
616.037	7.53
616.371	7.21
616.705	7.61
617.039	7.72
617.373	7.4
617.707	7.47
618.041	7.36
618.375	7.67
618.709	7.44
619.042	7.79
619.376	7.7
619.71	8.02
620.043	7.64
620.377	7.81
620.71	8.02
621.043	7.67
621.377	7.67
621.71	7.94
622.043	7.75
622.376	7.77
622.709	7.82
623.043	7.89
623.376	7.97
623.709	7.78
624.041	8.29
624.374	7.99
624.707	7.92
625.04	8.62
625.373	7.65
625.705	8.1
626.038	8.08
626.37	8.36
626.703	8.1
627.035	8.3
627.368	8.55
627.7	8.42
628.032	8.08
628.365	8.55
628.697	8.32
629.029	8.05
629.361	8.11
629.693	8.09
630.025	7.96
630.357	8.71
630.689	8.49
631.021	8.15
631.353	8.51
631.684	8.25
632.016	8.12
632.348	8.52
632.679	8.78
633.011	8.85
633.342	8.97
633.674	8.26
634.005	8.8
634.336	8.55
634.668	8.96
634.999	8.48
635.33	8.65
635.661	8.77
635.992	8.67
636.323	8.97
636.654	8.77
636.985	8.42
637.316	8.91
637.647	8.41
637.977	8.87
638.308	9.03
638.639	8.58
638.969	8.9
639.3	8.62
639.63	8.99
639.961	9.23
640.291	8.77
640.622	9.15
640.952	8.67
641.282	9.52
641.612	8.99
641.943	9.07
642.273	9.08
642.603	9.13
642.933	9.32
643.263	8.85
643.592	8.83
643.922	9.35
644.252	9.39
644.582	9.28
644.911	8.67
645.241	9.27
645.571	9.28
645.9	8.98
646.23	9.46
646.559	9.44
646.888	9
647.218	9.45
647.547	9.48
647.876	9.3
648.205	9.27
648.534	9.49
648.863	9.22
649.192	9.56
649.521	9.44
649.85	8.86
650.179	9.88
650.508	8.77
650.837	9.07
651.165	9.59
651.494	9.81
651.822	9.51
652.151	9.3
652.479	9.66
652.808	9.67
653.136	9.37
653.465	9.57
653.793	9.3
654.121	9.47
654.449	10.07
654.777	9.83
655.105	10.29
655.433	9.52
655.761	10.23
656.089	9.82
656.417	9.84
656.745	9.54
657.073	9.8
657.4	10.79
657.728	10.03
658.056	10.23
658.383	10.05
658.711	10.47
659.038	10.23
659.365	10.51
659.693	10.13
660.02	10.27
660.347	10.02
660.674	10.28
661.001	10.45
661.329	9.49
661.656	10.08
661.982	10.26
662.309	10.12
662.636	10.36
662.963	10.67
663.29	10.7
663.616	10.63
663.943	10.28
664.27	10.33
664.596	10.66
664.923	10.84
665.249	10.65
665.576	10.79
665.902	11.26
666.228	10.94
666.554	11.07
666.881	10.32
667.207	11.21
667.533	10.62
667.859	11.24
668.185	11
668.511	10.5
668.837	10.45
669.162	11.01
669.488	10.09
669.814	10.51
670.139	10.98
670.465	11.33
670.791	11.03
671.116	11.44
671.442	10.34
671.767	11.09
672.092	11.24
672.418	11.57
672.743	11.88
673.068	11.05
673.393	11.22
673.718	10.87
674.043	10.92
674.368	11.04
674.693	11.94
675.018	11.38
675.343	11.25
675.667	11.01
675.992	11.73
676.317	11.85
676.641	11.71
676.966	11.07
677.29	10.92
677.615	11.33
677.939	12.12
678.264	11.73
678.588	11.67
678.912	10.91
679.236	12.32
679.56	10.52
679.885	12.06
680.209	11.45
680.532	11.38
680.856	12.31
681.18	11.02
681.504	11.4
681.828	11.95
682.152	11.29
682.475	11.77
682.799	11.63
683.122	11.74
683.446	11.49
683.769	12.23
684.093	11.7
684.416	12.27
684.739	12.17
685.062	11.54
685.386	12.88
685.709	11.81
686.032	11.75
686.355	12.59
686.678	11.85
687.001	11.77
687.324	13.06
687.646	11.94
687.969	11.85
688.292	11.94
688.614	11.94
688.937	12.29
689.26	11.82
689.582	13.15
689.904	12.19
690.227	12.84
690.549	12.04
690.871	12.73
691.194	12.33
691.516	12.43
691.838	11.93
692.16	11.92
692.482	12.42
692.804	12.79
693.126	12.5
693.448	13.03
693.769	12.99
694.091	12.38
694.413	12.28
694.735	12.58
695.056	12.77
695.378	12.47
695.699	12.31
696.021	12.61
696.342	12.01
696.663	11.99
696.984	12.51
697.306	12.06
697.627	13.67
697.948	13.64
698.269	13.21
698.59	13.69
698.911	12.06
699.232	12.34
699.553	13.32
699.873	13.44
700.194	13.48
700.515	13.33
700.835	12.66
701.156	12.46
701.477	12.35
701.797	12.84
702.117	13.09
702.438	13.18
702.758	12.88
703.078	12.83
703.398	11.96
703.719	13.46
704.039	12.65
704.359	13.24
704.679	13.45
704.999	13.27
705.319	13.38
705.638	12.93
705.958	13.31
706.278	13.16
706.597	13.63
706.917	13.09
707.237	13.67
707.556	14.28
707.876	13.12
708.195	13.37
708.514	13.29
708.834	14.27
709.153	13.2
709.472	14.59
709.791	14.14
710.11	13.18
710.429	14.14
710.748	13.07
711.067	14.03
711.386	13.73
711.705	13.33
712.023	13.96
712.342	12.93
712.661	12.39
712.979	13.82
713.298	14.03
713.616	13.37
713.935	14.18
714.253	13.02
714.572	14.44
714.89	13.17
715.208	14.55
715.526	13.88
715.844	13.75
716.162	14.61
716.48	14.46
716.798	14.34
717.116	13.97
717.434	13.81
717.752	13.1
718.069	14.28
718.387	12.81
718.705	14.63
719.022	13.98
719.34	13.76
719.657	13.43
719.975	14.88
720.292	13.83
720.609	14
720.927	13.44
721.244	15.59
721.561	15.54
721.878	14.89
722.195	14.57
722.512	14.97
722.829	14.64
723.146	13.84
723.463	16.02
723.779	15.19
724.096	15.54
724.413	13.75
724.729	15.01
725.046	14.66
725.362	15
725.679	13.8
725.995	13.55
726.311	13.83
726.628	14.22
726.944	15.45
727.26	14.56
727.576	15.47
727.892	14.08
728.208	14.98
728.524	14.59
728.84	14.41
729.156	13.62
729.472	14.62
729.787	13.86
730.103	15.02
730.419	15.22
730.734	15.52
731.05	14.54
731.365	15.18
731.681	15.26
731.996	14.67
732.311	15.52
732.626	15.12
732.942	13.45
733.257	15.89
733.572	15.61
733.887	14.95
734.202	16.25
734.517	15.84
734.832	15.25
735.146	16.45
735.461	15.6
735.776	13.98
736.091	16.99
736.405	15.07
736.72	14.94
737.034	15.24
737.349	16.86
737.663	16.78
737.977	15.76
738.292	14.49
738.606	17.66
738.92	17.35
739.234	16.4
739.548	15.31
739.862	14.53
740.176	15.93
740.49	15.53
740.804	17.3
741.117	15.55
741.431	14.33
741.745	16.06
742.058	16.54
742.372	16.01
742.685	16.91
742.999	15.38
743.312	15.51
743.626	14.98
743.939	16.31
744.252	15.82
744.565	15.47
744.878	16.21
745.191	16.21
745.505	16.37
745.817	17.3
746.13	17.52
746.443	17.13
746.756	17.08
747.069	16.86
747.381	15.98
747.694	15.28
748.007	17.1
748.319	16.28
748.632	16.84
748.944	17.18
749.256	16.77
749.569	16.52
749.881	16.57
750.193	16.42
750.505	15.58
750.817	15.94
751.129	17.31
751.441	17.87
751.753	17.69
752.065	16.18
752.377	16.31
752.689	16.08
753	17.53
753.312	17.82
753.624	15.99
753.935	16.24
754.247	19.14
754.558	16.79
754.869	16.67
755.181	17.1
755.492	16.62
755.803	15.25
756.114	16.69
756.425	16.03
756.736	14.41
757.047	17.87
757.358	17.83
757.669	16.64
757.98	16.68
758.291	17.37
758.601	17.43
758.912	16.71
759.223	17.81
759.533	14.91
759.844	15.48
760.154	16.96
760.464	20.83
760.775	19.2
761.085	17.56
761.395	19.32
761.705	16.41
762.016	16.2
762.326	16.69
762.636	17.92
762.945	18.28
763.255	18.42
763.565	16.29
763.875	18.1
764.185	17.99
764.494	17.49
764.804	16.85
765.113	17.42
765.423	17.03
765.732	16.99
766.042	16.92
766.351	17.17
766.66	17.81
766.97	18.47
767.279	18.39
767.588	17.29
767.897	18.6
768.206	16.21
768.515	17.14
768.824	19.06
769.133	17.47
769.441	19.34
769.75	18.39
770.059	18.33
770.367	18.51
770.676	18.69
770.984	20.29
771.293	16.48
771.601	20.09
771.91	17.43
772.218	18.47
772.526	20.06
772.834	17.62
773.142	19.53
773.45	16.74
773.758	18.25
774.066	19.11
774.374	17.96
774.682	19.17
774.99	22.91
775.298	16.02
775.605	17.78
775.913	18.07
776.22	21.09
776.528	20.83
776.835	20.6
777.143	18.46
777.45	16.22
777.757	21.51
778.065	18.91
778.372	17.51
778.679	17.34
778.986	19.39
779.293	18.67
779.6	16.19
779.907	20.65
780.214	18.9
780.52	22.77
780.827	19.27
781.134	17.14
781.44	15.47
781.747	19.13
782.053	16.46
782.36	18.77
782.666	20.36
782.973	17.5
783.279	20.49
783.585	16.15
783.891	19.78
784.197	21.81
784.503	19.01
784.809	15.96
785.115	22.19
785.421	22.67
785.727	17.22
786.033	15.7
786.339	18.78
786.644	18.42
786.95	19.03
787.255	20.78
787.561	20.61
787.866	20.41
788.172	20.16
788.477	18.12
788.782	21.27
789.088	18.21
789.393	20.57
789.698	15.02
790.003	17.18
790.308	17.14
790.613	17.95
790.918	21.45
791.223	22.29
791.527	16.72
791.832	22.92
792.137	17.09
792.441	20.11
792.746	22.07
793.05	21.04
793.355	19.01
793.659	23.43
793.963	17.17
794.268	21.91
794.572	19.62
794.876	21.46
795.18	20.07
795.484	18.88
795.788	21.97
796.092	20.06
796.396	18.28
796.7	19.32
797.004	22.7
797.307	22.03
797.611	21.12
797.915	18.74
798.218	20.22
798.522	22.06
798.825	19.47
799.128	19.98
799.432	16.4
799.735	17.16
800.038	22.71
800.341	20.41
800.644	17.5
800.947	21.34
801.25	19.69
801.553	17.38
801.856	17.41
802.159	18.48
802.462	19.44
802.764	22.69
803.067	18.92
803.37	26.29
803.672	19.48
803.975	20.18
804.277	19.5
804.579	22.46
804.882	20.31
805.184	21.2
805.486	17.78
805.788	23.79
806.09	20.62
806.392	20.94
806.694	20.54
806.996	23.28
807.298	17.61
807.6	19.4
807.902	25.26
808.203	18.69
808.505	20.21
808.807	22.21
809.108	17.83
809.409	20.17
809.711	22.49
810.012	18.56
810.313	20.4
810.615	18.76
810.916	19.41
811.217	24.44
811.518	21.85
811.819	24.71
812.12	20.54
812.421	17.42
812.722	22.23
813.023	22.04
813.323	18.15
813.624	20.79
813.925	30.82
814.225	15.37
814.526	23.54
814.826	25.29
815.126	22.72
815.427	23.47
815.727	24.28
816.027	17.68
816.327	20.35
816.627	17.08
816.927	22.62
817.227	24.34
817.527	19.45
817.827	22.54
818.127	18.59
818.427	17.01
818.727	21.18
819.026	20.79
819.326	28.27
819.625	22.92
819.925	20.37
820.224	24.93
820.524	20.78
820.823	27.49
821.122	23.72
821.421	23.13
821.72	22.57
822.019	25.27
822.318	20.16
822.617	23.37
822.916	18.86
823.215	20.38
823.514	21.97
823.813	20.67
824.111	21.46
824.41	22.26
824.709	20.46
825.007	21.2
825.306	22.09
825.604	22.42
825.902	22.24
826.201	22.6
826.499	22.65
826.797	23.3
827.095	24.91
827.393	23.7
827.691	24.88
827.989	21.52
828.287	24.47
828.585	19.96
828.882	21.6
829.18	20.57
829.478	25.77
829.775	24.94
830.073	22.09
830.37	24
830.668	20.89
830.965	25.1
831.263	22.74
831.56	23.57
831.857	20.05
832.154	26.37
832.451	25.6
832.748	23.98
833.045	27
833.342	27.62
833.639	24.58
833.936	26.51
834.232	27.35
834.529	19.61
834.826	21.3
835.122	23.43
835.419	16.73
835.715	14.97
836.012	21.74
836.308	19.65
836.604	21.02
836.901	22.89
837.197	21.4
837.493	22.85
837.789	22.77
838.085	26.56
838.381	26.56
838.677	19.84
838.972	25.76
839.268	22
839.564	25.4
839.86	27.82
840.155	21.19
840.451	15.17
840.746	28.96
841.042	37.13
841.337	24.13
841.632	23.74
841.928	33.45
842.223	27.48
842.518	28.8
842.813	33.97
843.108	24.43
843.403	30.02
843.698	24.85
843.993	25.71
844.287	18.43
844.582	27.71
844.877	28.38
845.171	25.82
845.466	27.35
845.761	21.3
846.055	26.97
846.349	28.33
846.644	35.37
846.938	5.8
847.232	20.1
847.526	23.58
847.82	25.13
848.114	18.3
848.408	-0.52
848.702	23.97
848.996	21.51
849.29	23.39
849.584	27.02
849.877	31.73
850.171	36.99
850.465	27.97
850.758	12.71
851.052	35.57
851.345	33.1
851.638	24.94
851.932	8.5
852.225	16.1
852.518	20.34
852.811	16.49
853.104	-8.28
853.397	6.02
853.69	22.45
853.983	19.58
854.276	42.12
854.569	40.97
854.861	17.17
855.154	45.17
855.447	1.18
855.739	41.66
856.032	22.96
856.324	29.23
856.616	35.51
856.909	16.82
857.201	18.67
857.493	26.76
857.785	-1.53
858.077	26.71
858.369	44.23
858.661	12.23
858.953	29.78
859.245	13.46
859.537	34.5
859.829	31.03
860.12	37.5
860.412	25.4
860.703	25.09
860.995	16.29
861.286	17.87
861.578	23.93
861.869	33.87
862.16	21.97
862.452	37.48
862.743	18.47
863.034	29.36
863.325	14.27
863.616	44.39
863.907	37.15
864.198	6.05
864.488	23.77
864.779	32.59
865.07	21.49
865.36	26.14
865.651	9.8
865.941	3.44
866.232	37.41
866.522	10.95
866.813	38.91
867.103	29.38
867.393	-10.59
867.683	22.17
867.973	-15.95
868.263	42.74
868.553	37.07
868.843	61.93
869.133	-8.21
869.423	40.19
869.713	42.9
870.002	37.33
870.292	37.08
870.582	32.9
870.871	37.24
871.161	47.83
871.45	42.44
871.739	38.91
872.029	-3.45
872.318	50.52
872.607	54.99
872.896	23.26
873.185	9.74
873.474	-2.88
873.763	21.25
874.052	29.22
874.341	30.65
874.63	25.38
874.918	0.99
875.207	30.27
875.496	30.05
875.784	-30.44
876.073	13.53
876.361	-45.04
876.649	14.7
876.938	17.61
877.226	33.08
877.514	35.34
877.802	13.8
878.09	4.03
878.378	47.78
878.666	35.13
878.954	32.34
879.242	9.76
879.53	56.14
879.817	19.24
880.105	27.8
880.392	20.68
880.68	47.34
880.967	19.42
881.255	59.19
881.542	30.89
881.83	-11.82
882.117	19.54
882.404	22.09
882.691	21.41
882.978	1.2
883.265	38.69
883.552	39.18
883.839	15.15
884.126	32.22
884.413	37.55
884.699	31.7
884.986	39.21
885.273	27.89
885.559	27.89
885.846	27.89
