Data from 815643_forehead_Reflection__1__15.txt Node

Date: Fri Sep 16 14:17:15 CDT 2022
User: ToomeyLab
Spectrometer: FLMS14357
Trigger mode: 0
Integration Time (sec): 1.000000E-2
Scans to average: 100
Electric dark correction enabled: true
Nonlinearity correction enabled: false
Boxcar width: 0
XAxis mode: Wavelengths
Number of Pixels in Spectrum: 2048
>>>>>Begin Spectral Data<<<<<
189.047	78.75
189.435	78.75
189.823	78.75
190.211	293.7
190.599	-24.02
190.987	-4.56
191.375	-13.26
191.763	437.22
192.151	424.52
192.538	-573.57
192.926	20.9
193.314	-56.9
193.702	272.24
194.089	49.7
194.477	33.98
194.864	121.47
195.252	-214.15
195.639	1411.27
196.027	277.47
196.414	113.95
196.801	79.98
197.189	105.28
197.576	-92.8
197.963	-51.72
198.351	-14.58
198.738	23.4
199.125	-24.38
199.512	18.61
199.899	35.25
200.286	34.62
200.673	-6.48
201.06	53.14
201.447	7.43
201.833	17.28
202.22	-62.81
202.607	46.56
202.994	12.74
203.38	-15.06
203.767	40.77
204.154	20.83
204.54	22.89
204.927	30.02
205.313	6.3
205.699	4.25
206.086	9.68
206.472	17.91
206.858	-5.41
207.245	5.71
207.631	42.38
208.017	17.47
208.403	32.21
208.789	22.37
209.175	-13.29
209.561	25.72
209.947	-2.41
210.333	-14.32
210.719	31.71
211.105	31.99
211.491	18.81
211.876	23.06
212.262	-12.47
212.648	34.89
213.034	14.09
213.419	2.66
213.805	36.33
214.19	-16.29
214.576	18.87
214.961	26.15
215.346	-5.8
215.732	0.11
216.117	-9.46
216.502	-0.77
216.888	8.51
217.273	20.84
217.658	-2.84
218.043	3.4
218.428	17.07
218.813	8.14
219.198	4.31
219.583	20.54
219.968	2.04
220.353	14.88
220.738	-1.31
221.122	5.75
221.507	-9.02
221.892	15.03
222.276	12.63
222.661	-1.78
223.046	6.9
223.43	4.22
223.815	1.35
224.199	1.2
224.583	1.36
224.968	0.22
225.352	-0.86
225.736	4.6
226.121	-4.44
226.505	6.12
226.889	3.33
227.273	6.12
227.657	6.87
228.041	1.88
228.425	3.77
228.809	1.39
229.193	3
229.577	4.49
229.961	2.87
230.344	1.33
230.728	1.75
231.112	2.16
231.495	2.43
231.879	1.98
232.263	0.83
232.646	0.2
233.03	1.7
233.413	1.58
233.797	4.21
234.18	1.91
234.563	0.73
234.946	2.42
235.33	-0.02
235.713	1.48
236.096	1.28
236.479	2.44
236.862	1.77
237.245	1.42
237.628	1.44
238.011	2.85
238.394	2.55
238.777	3.11
239.16	4.32
239.543	3.08
239.925	2.71
240.308	3.46
240.691	1.72
241.073	1.82
241.456	1.65
241.838	2.47
242.221	2.13
242.603	3.04
242.986	2.29
243.368	2.47
243.75	2.08
244.133	1.85
244.515	2.23
244.897	2.84
245.279	3.31
245.661	1.81
246.043	2.53
246.425	3.55
246.807	2.8
247.189	3.05
247.571	2.35
247.953	2.8
248.335	2.56
248.717	2.47
249.098	2.29
249.48	2.63
249.862	2.56
250.243	2.68
250.625	2.3
251.006	2.63
251.388	2.93
251.769	3.46
252.151	3.52
252.532	2.29
252.913	2.72
253.295	2.62
253.676	2.7
254.057	2.38
254.438	2.31
254.819	3.54
255.2	1.91
255.581	2.93
255.962	2.42
256.343	2.02
256.724	3.15
257.105	3.61
257.486	2.86
257.867	2.84
258.247	2
258.628	2.43
259.009	1.82
259.389	3.14
259.77	2.03
260.15	2.98
260.531	2.56
260.911	2.12
261.292	2.4
261.672	2.37
262.052	2.61
262.432	2.44
262.813	2.76
263.193	2.79
263.573	2.48
263.953	2.36
264.333	2.27
264.713	2.3
265.093	1.83
265.473	2.79
265.853	2.46
266.233	2.7
266.612	3.67
266.992	1.83
267.372	2.71
267.752	2.92
268.131	2.55
268.511	2.67
268.89	2.28
269.27	2.39
269.649	2.49
270.029	2.34
270.408	2.3
270.787	3.18
271.167	2.55
271.546	3
271.925	2.24
272.304	2.38
272.683	1.92
273.062	2.37
273.441	2.35
273.82	2.11
274.199	2.54
274.578	2.86
274.957	2.33
275.336	2.45
275.715	2.23
276.093	2.33
276.472	3.26
276.851	2.8
277.229	2.54
277.608	1.95
277.986	2.5
278.365	2.5
278.743	2.41
279.122	1.99
279.5	2.64
279.878	2.54
280.257	2.36
280.635	2
281.013	2.41
281.391	2.6
281.769	2.17
282.147	2.72
282.525	2.77
282.903	2.52
283.281	2.85
283.659	2.81
284.037	2.63
284.415	2.89
284.792	2.57
285.17	2.89
285.548	2.3
285.925	2.96
286.303	2.81
286.68	2.18
287.058	2.4
287.435	2.54
287.813	2.63
288.19	2.51
288.567	2.54
288.945	2.83
289.322	2.3
289.699	2.5
290.076	2.32
290.453	3.1
290.83	3.35
291.207	2.58
291.584	2.62
291.961	2.82
292.338	2.66
292.715	2.93
293.092	2.62
293.469	2.85
293.845	3.13
294.222	2.97
294.599	3.24
294.975	3.17
295.352	3.48
295.728	3.18
296.105	2.52
296.481	3
296.858	3.38
297.234	3.3
297.61	3.28
297.986	2.9
298.363	3.47
298.739	3.22
299.115	3.52
299.491	3.54
299.867	3.56
300.243	3.72
300.619	3.74
300.995	3.53
301.371	3.52
301.746	3.62
302.122	3.7
302.498	3.56
302.874	3.58
303.249	3.72
303.625	3.79
304	3.76
304.376	3.25
304.751	4.2
305.127	4.27
305.502	3.57
305.878	3.65
306.253	4.12
306.628	4.09
307.003	4.01
307.378	4.31
307.754	3.54
308.129	3.91
308.504	4.32
308.879	4.2
309.254	4.31
309.629	4.57
310.003	4.09
310.378	4.17
310.753	3.95
311.128	4.37
311.502	4.18
311.877	4.73
312.252	3.98
312.626	4.24
313.001	4.43
313.375	4.32
313.75	4.53
314.124	4.6
314.498	4.42
314.873	4.04
315.247	4.8
315.621	4.98
315.995	4.85
316.369	4.79
316.743	4.93
317.117	4.44
317.491	4.79
317.865	5.11
318.239	5.43
318.613	4.82
318.987	5.03
319.361	4.84
319.734	5.23
320.108	4.95
320.482	5.12
320.855	5.25
321.229	5.54
321.602	5.05
321.976	5.54
322.349	5.23
322.723	5.58
323.096	5.22
323.469	5.22
323.843	5.58
324.216	5.56
324.589	5.19
324.962	5.01
325.335	5.67
325.708	5.48
326.081	5.51
326.454	5.54
326.827	5.73
327.2	5.34
327.573	4.98
327.945	5.28
328.318	5.88
328.691	5.71
329.063	5.86
329.436	5.74
329.809	6.42
330.181	5.99
330.553	6.12
330.926	5.5
331.298	6.07
331.671	6.23
332.043	6.28
332.415	5.94
332.787	6.16
333.159	6.14
333.532	6.09
333.904	6.08
334.276	6.04
334.648	5.85
335.02	6.29
335.391	5.69
335.763	6.59
336.135	6.46
336.507	6.06
336.879	6.04
337.25	6.34
337.622	6.16
337.993	5.79
338.365	6.67
338.736	6.35
339.108	6.73
339.479	6.78
339.851	7.01
340.222	6.84
340.593	6.26
340.964	6.56
341.336	6.92
341.707	6.53
342.078	6.8
342.449	6.66
342.82	6.85
343.191	6.62
343.562	6.78
343.933	6.55
344.303	6.84
344.674	6.8
345.045	6.86
345.416	7.07
345.786	6.63
346.157	6.8
346.527	6.96
346.898	7.12
347.268	7.15
347.639	6.75
348.009	6.93
348.38	7.34
348.75	6.89
349.12	7.42
349.49	7.39
349.861	7.25
350.231	7.06
350.601	7.32
350.971	7.14
351.341	7.36
351.711	7.23
352.081	7.85
352.45	7.83
352.82	7.44
353.19	7.63
353.56	7.57
353.929	7.52
354.299	7.87
354.669	7.79
355.038	7.42
355.408	7.64
355.777	7.84
356.147	7.67
356.516	7.72
356.885	7.6
357.254	7.99
357.624	7.6
357.993	7.93
358.362	7.7
358.731	7.6
359.1	7.62
359.469	7.67
359.838	7.98
360.207	7.91
360.576	7.95
360.945	8.18
361.314	8.34
361.682	7.99
362.051	8.11
362.42	8.08
362.788	7.98
363.157	8.09
363.525	7.84
363.894	8.03
364.262	8.19
364.631	8.24
364.999	8.42
365.367	8.18
365.735	8.3
366.104	8.27
366.472	8.32
366.84	8.27
367.208	8.48
367.576	8.36
367.944	8.76
368.312	8.44
368.68	8.45
369.048	8.41
369.416	8.52
369.783	8.46
370.151	8.76
370.519	8.68
370.886	8.77
371.254	8.61
371.621	8.79
371.989	8.68
372.356	8.8
372.724	8.91
373.091	8.94
373.458	8.87
373.826	8.63
374.193	9.09
374.56	8.97
374.927	9.18
375.294	9.02
375.661	9.09
376.028	9.07
376.395	9.15
376.762	9.12
377.129	8.96
377.496	8.96
377.863	9.09
378.229	9.38
378.596	9.1
378.963	9.15
379.329	9.6
379.696	9.54
380.062	9.51
380.429	9.72
380.795	9.33
381.161	9.47
381.528	9.53
381.894	9.44
382.26	9.71
382.626	9.49
382.993	9.55
383.359	9.68
383.725	9.81
384.091	9.97
384.457	9.78
384.823	10.05
385.188	9.81
385.554	9.91
385.92	9.86
386.286	9.81
386.651	9.94
387.017	9.83
387.383	9.96
387.748	10.07
388.114	10.14
388.479	10.16
388.845	9.98
389.21	10.26
389.575	10.27
389.94	10.04
390.306	10.33
390.671	10.46
391.036	10.3
391.401	10.35
391.766	10.21
392.131	10.05
392.496	10.57
392.861	10.34
393.226	10.16
393.591	10.46
393.956	10.49
394.32	10.25
394.685	10.68
395.05	10.73
395.414	10.32
395.779	10.62
396.143	10.38
396.508	10.54
396.872	10.66
397.236	10.56
397.601	10.76
397.965	10.84
398.329	10.81
398.694	10.77
399.058	10.95
399.422	10.72
399.786	10.98
400.15	10.63
400.514	10.83
400.878	11
401.242	10.96
401.605	11.26
401.969	11.08
402.333	11.12
402.697	11.33
403.06	11.17
403.424	11.29
403.787	11.4
404.151	11.34
404.514	11.13
404.878	11.38
405.241	11.14
405.604	11.35
405.968	11.32
406.331	11.43
406.694	11.46
407.057	11.31
407.42	11.52
407.783	11.58
408.146	11.28
408.509	11.53
408.872	11.53
409.235	11.84
409.598	11.79
409.961	11.74
410.323	11.89
410.686	11.82
411.049	11.71
411.411	11.76
411.774	11.8
412.136	11.76
412.499	11.91
412.861	12.14
413.223	12.08
413.586	12.03
413.948	11.91
414.31	12.2
414.672	11.92
415.035	12.38
415.397	12.34
415.759	12.29
416.121	12.19
416.483	12.04
416.845	12.28
417.206	12.17
417.568	11.98
417.93	11.96
418.292	12.33
418.653	12.23
419.015	12.25
419.377	12.08
419.738	12.02
420.1	12.36
420.461	12.26
420.822	12.13
421.184	12.26
421.545	12.35
421.906	12.18
422.267	12.24
422.629	12.19
422.99	12.26
423.351	12.33
423.712	12.39
424.073	12.55
424.434	12.59
424.795	12.54
425.155	12.39
425.516	12.39
425.877	12.49
426.238	12.48
426.598	12.54
426.959	12.7
427.32	12.76
427.68	13.03
428.041	13.01
428.401	12.9
428.761	13.28
429.122	13.22
429.482	13.36
429.842	13.39
430.202	13.33
430.563	13.43
430.923	13.3
431.283	13.47
431.643	13.32
432.003	13.4
432.363	13.43
432.722	13.35
433.082	13.52
433.442	13.48
433.802	13.43
434.161	13.46
434.521	13.26
434.881	13.35
435.24	13.44
435.6	13.48
435.959	13.61
436.319	13.7
436.678	13.62
437.037	13.8
437.396	13.75
437.756	13.85
438.115	13.9
438.474	13.8
438.833	13.92
439.192	13.92
439.551	13.77
439.91	13.87
440.269	13.93
440.628	13.91
440.987	13.92
441.345	13.73
441.704	13.89
442.063	13.94
442.421	13.96
442.78	14.08
443.138	14.23
443.497	14.22
443.855	14.3
444.214	14.44
444.572	14.4
444.93	14.6
445.288	14.38
445.647	14.4
446.005	14.41
446.363	14.25
446.721	14.18
447.079	14.22
447.437	14.14
447.795	14.14
448.153	14.12
448.51	14.18
448.868	14.3
449.226	14.47
449.584	14.41
449.941	14.65
450.299	14.65
450.656	14.91
451.014	14.92
451.371	14.89
451.729	14.94
452.086	14.99
452.443	15.14
452.801	15.25
453.158	15.19
453.515	15.06
453.872	15.02
454.229	15.06
454.586	15.16
454.943	15.33
455.3	15.26
455.657	15.44
456.014	15.39
456.371	15.27
456.727	15.38
457.084	15.63
457.441	15.39
457.797	15.31
458.154	15.6
458.51	15.68
458.867	15.52
459.223	15.48
459.58	15.38
459.936	15.67
460.292	15.5
460.648	15.37
461.005	15.17
461.361	15.09
461.717	15.15
462.073	15.26
462.429	15.61
462.785	15.62
463.141	15.76
463.496	15.87
463.852	16.08
464.208	15.96
464.564	15.98
464.919	15.93
465.275	16.1
465.631	16.12
465.986	16.26
466.342	16.15
466.697	16.19
467.052	16.25
467.408	16.12
467.763	16.41
468.118	16.27
468.473	16.17
468.829	16.31
469.184	16.23
469.539	16.29
469.894	16.3
470.249	16.44
470.603	16.57
470.958	16.58
471.313	16.61
471.668	16.55
472.023	16.64
472.377	16.58
472.732	16.79
473.086	16.62
473.441	16.65
473.795	16.71
474.15	16.79
474.504	16.72
474.859	16.88
475.213	16.84
475.567	16.91
475.921	17.07
476.275	17.23
476.63	17.05
476.984	16.95
477.338	17.11
477.692	17.03
478.045	16.89
478.399	16.97
478.753	17.06
479.107	17.16
479.461	17.09
479.814	17.11
480.168	17.25
480.521	17.3
480.875	17.24
481.228	17.31
481.582	17.29
481.935	17.37
482.289	17.38
482.642	17.08
482.995	17.11
483.348	17.17
483.701	17.14
484.055	17.19
484.408	16.89
484.761	16.75
485.114	16.32
485.466	16.11
485.819	16.22
486.172	16.56
486.525	16.86
486.878	17.09
487.23	17.24
487.583	17.27
487.936	17.25
488.288	17.1
488.641	16.91
488.993	16.79
489.345	16.86
489.698	16.96
490.05	17.09
490.402	17.24
490.754	17.49
491.107	17.7
491.459	17.79
491.811	17.86
492.163	17.83
492.515	17.66
492.866	17.21
493.218	16.99
493.57	17.13
493.922	17.39
494.274	17.77
494.625	17.98
494.977	17.98
495.328	18.22
495.68	18.31
496.031	18.48
496.383	18.64
496.734	18.62
497.086	18.54
497.437	18.43
497.788	18.49
498.139	18.32
498.49	18.29
498.842	18.3
499.193	18.36
499.544	18.58
499.894	18.47
500.245	18.57
500.596	18.43
500.947	18.71
501.298	18.82
501.648	18.88
501.999	18.87
502.35	18.9
502.7	18.84
503.051	19.1
503.401	19.14
503.752	19
504.102	19.16
504.452	19.13
504.803	19.18
505.153	19.07
505.503	19.2
505.853	19.24
506.203	19.16
506.553	19.17
506.903	19.24
507.253	19.37
507.603	19.15
507.953	19.41
508.303	19.36
508.652	19.41
509.002	19.5
509.352	19.33
509.701	19.3
510.051	19.3
510.4	19.28
510.75	19.26
511.099	19.33
511.449	19.38
511.798	19.43
512.147	19.44
512.496	19.63
512.846	19.61
513.195	19.69
513.544	19.5
513.893	19.65
514.242	19.7
514.591	19.72
514.939	19.78
515.288	19.86
515.637	19.9
515.986	20.03
516.334	20.21
516.683	20.19
517.032	20.05
517.38	20.08
517.729	20.23
518.077	20.23
518.426	20.2
518.774	20
519.122	19.85
519.47	19.91
519.819	19.76
520.167	19.72
520.515	19.66
520.863	19.82
521.211	19.89
521.559	20.02
521.907	20.09
522.255	20.3
522.602	20.43
522.95	20.31
523.298	20.57
523.645	20.57
523.993	20.58
524.341	20.71
524.688	20.64
525.036	20.91
525.383	20.63
525.73	20.68
526.078	20.72
526.425	20.42
526.772	20.41
527.119	20.36
527.466	20.15
527.814	20.31
528.161	20.43
528.508	20.61
528.854	20.58
529.201	20.48
529.548	20.27
529.895	19.88
530.242	19.57
530.588	19.74
530.935	20.04
531.282	20.34
531.628	20.42
531.975	20.56
532.321	20.68
532.667	20.94
533.014	20.91
533.36	20.82
533.706	20.91
534.052	20.88
534.399	20.67
534.745	20.38
535.091	20.27
535.437	20.53
535.783	20.83
536.129	21.08
536.474	21.23
536.82	21.29
537.166	21.44
537.512	21.46
537.857	21.22
538.203	20.96
538.549	21.07
538.894	21.22
539.239	21.36
539.585	21.63
539.93	21.64
540.276	21.85
540.621	22.13
540.966	22.02
541.311	21.9
541.656	21.83
542.001	21.75
542.346	21.45
542.691	21.04
543.036	20.67
543.381	20.95
543.726	21.13
544.071	21.41
544.415	21.56
544.76	21.51
545.105	21.59
545.449	21.73
545.794	22.06
546.138	22.18
546.483	22.03
546.827	22.25
547.171	22.18
547.516	22.13
547.86	22.1
548.204	22.04
548.548	22.02
548.892	22.09
549.236	22.3
549.58	22.57
549.924	22.6
550.268	22.74
550.612	22.74
550.956	22.96
551.3	23.04
551.643	22.89
551.987	22.9
552.33	22.99
552.674	23.11
553.017	23.04
553.361	23.02
553.704	23.24
554.048	23.03
554.391	22.72
554.734	22.84
555.077	22.99
555.42	23.1
555.764	23.01
556.107	23.36
556.45	23.4
556.793	23.43
557.135	23.44
557.478	23.53
557.821	23.62
558.164	23.63
558.507	23.77
558.849	23.25
559.192	23.57
559.534	23.51
559.877	23.6
560.219	23.59
560.562	23.75
560.904	23.61
561.246	23.84
561.589	23.87
561.931	23.93
562.273	23.83
562.615	23.65
562.957	23.95
563.299	23.74
563.641	23.86
563.983	23.91
564.325	23.83
564.667	23.92
565.008	24.1
565.35	24.04
565.692	24.17
566.033	24.18
566.375	24.22
566.716	24.17
567.058	24.04
567.399	23.94
567.741	23.92
568.082	23.91
568.423	24.15
568.764	24.05
569.105	24.15
569.447	24.23
569.788	24.4
570.129	24.51
570.47	24.74
570.811	24.57
571.151	24.55
571.492	24.52
571.833	24.55
572.174	24.38
572.514	24.49
572.855	24.56
573.195	24.37
573.536	24.34
573.876	24.21
574.217	24.37
574.557	24.48
574.898	24.36
575.238	24.64
575.578	24.72
575.918	24.67
576.258	24.83
576.598	24.48
576.938	24.69
577.278	24.87
577.618	24.86
577.958	24.86
578.298	25.03
578.638	24.96
578.977	25.14
579.317	25.15
579.657	25.03
579.996	25.26
580.336	25.29
580.675	25.3
581.014	25.43
581.354	25.33
581.693	25.55
582.032	25.4
582.372	25.25
582.711	25.57
583.05	25.59
583.389	25.48
583.728	25.63
584.067	25.71
584.406	25.6
584.745	25.63
585.083	25.65
585.422	25.79
585.761	25.57
586.1	25.63
586.438	25.88
586.777	25.7
587.115	25.9
587.454	25.92
587.792	25.89
588.13	25.68
588.469	25.8
588.807	26.1
589.145	26.18
589.483	26.1
589.821	25.97
590.159	26.06
590.497	26.09
590.835	26.05
591.173	25.99
591.511	26.11
591.849	25.96
592.187	26.01
592.524	26.1
592.862	26.16
593.2	26.28
593.537	26.28
593.875	26.18
594.212	26.32
594.55	26.44
594.887	26.59
595.224	26.54
595.561	26.32
595.899	26.45
596.236	26.2
596.573	26.42
596.91	26.21
597.247	26.51
597.584	26.28
597.921	26.44
598.258	26.45
598.594	26.22
598.931	26.08
599.268	26.22
599.604	26.38
599.941	26.55
600.277	26.56
600.614	26.96
600.95	26.83
601.287	26.98
601.623	27
601.959	26.98
602.296	26.93
602.632	27.12
602.968	27.16
603.304	27.19
603.64	27.11
603.976	26.71
604.312	27.18
604.648	27.06
604.984	26.69
605.319	26.81
605.655	26.81
605.991	26.87
606.326	26.57
606.662	26.74
606.998	26.88
607.333	27.12
607.668	26.98
608.004	27.16
608.339	27.23
608.674	27.59
609.01	27.63
609.345	27.62
609.68	27.77
610.015	27.54
610.35	27.42
610.685	27.36
611.02	26.96
611.355	27.11
611.689	27.16
612.024	27.34
612.359	27.54
612.694	27.8
613.028	27.64
613.363	27.97
613.697	27.89
614.032	28.1
614.366	28.1
614.7	28.01
615.035	28.14
615.369	27.99
615.703	28.08
616.037	28.09
616.371	28.06
616.705	28.08
617.039	28.13
617.373	27.71
617.707	28.23
618.041	28.1
618.375	28.26
618.709	28.33
619.042	28.16
619.376	28.44
619.71	28.44
620.043	28.25
620.377	28.6
620.71	28.26
621.043	28.46
621.377	28.47
621.71	28.16
622.043	28.32
622.376	28.45
622.709	28.29
623.043	28.56
623.376	28.38
623.709	28.77
624.041	28.13
624.374	28.53
624.707	28.63
625.04	28.32
625.373	28.63
625.705	28.48
626.038	28.56
626.37	28.78
626.703	28.81
627.035	28.63
627.368	28.81
627.7	28.44
628.032	28.59
628.365	28.66
628.697	28.74
629.029	28.6
629.361	28.86
629.693	28.73
630.025	28.86
630.357	28.88
630.689	29.23
631.021	28.9
631.353	29.03
631.684	29.23
632.016	29.24
632.348	28.9
632.679	29.18
633.011	28.83
633.342	29.12
633.674	29.3
634.005	29.14
634.336	29.38
634.668	29.29
634.999	29.3
635.33	29.27
635.661	29.49
635.992	29.13
636.323	28.97
636.654	29.45
636.985	29.29
637.316	29.05
637.647	29.51
637.977	29.6
638.308	29.67
638.639	29.23
638.969	29.58
639.3	29.36
639.63	29.93
639.961	29.57
640.291	29.87
640.622	29.9
640.952	29.86
641.282	29.57
641.612	29.76
641.943	29.37
642.273	29.9
642.603	29.82
642.933	30.2
643.263	29.42
643.592	30.11
643.922	30.1
644.252	29.45
644.582	29.79
644.911	30.24
645.241	30.12
645.571	29.81
645.9	29.78
646.23	30.22
646.559	30.01
646.888	29.82
647.218	30.14
647.547	30
647.876	29.93
648.205	30.33
648.534	30.41
648.863	29.66
649.192	30.05
649.521	30.77
649.85	30.15
650.179	30.04
650.508	30.58
650.837	30.24
651.165	30.57
651.494	29.78
651.822	30.47
652.151	30.24
652.479	30.51
652.808	30.17
653.136	30.6
653.465	30.44
653.793	30.97
654.121	30.79
654.449	31.11
654.777	30.96
655.105	31
655.433	30.77
655.761	30.56
656.089	31.1
656.417	30.77
656.745	30.11
657.073	31.07
657.4	31.28
657.728	31.23
658.056	30.63
658.383	30.85
658.711	31.21
659.038	31.17
659.365	30.95
659.693	30.87
660.02	30.5
660.347	30.46
660.674	30.36
661.001	30.32
661.329	30.47
661.656	30.76
661.982	30.8
662.309	31.09
662.636	31
662.963	30.97
663.29	30.71
663.616	31.29
663.943	31.28
664.27	31.38
664.596	31.14
664.923	31.88
665.249	31.43
665.576	31.53
665.902	31.34
666.228	31.37
666.554	31.27
666.881	31.67
667.207	31.33
667.533	30.97
667.859	31.09
668.185	31.57
668.511	31.4
668.837	31.17
669.162	31.44
669.488	31.63
669.814	31.59
670.139	31.2
670.465	31.98
670.791	31.13
671.116	31.58
671.442	31.88
671.767	31.46
672.092	31.55
672.418	31.66
672.743	31.81
673.068	31.75
673.393	31.32
673.718	31.96
674.043	31.94
674.368	32.19
674.693	32.26
675.018	31.82
675.343	31.88
675.667	31.99
675.992	31.86
676.317	31.55
676.641	32.17
676.966	32.27
677.29	31.85
677.615	32.34
677.939	32.74
678.264	31.98
678.588	31.74
678.912	31.81
679.236	32.17
679.56	32.23
679.885	32.04
680.209	32.52
680.532	32.24
680.856	32.52
681.18	32.33
681.504	32.45
681.828	32.01
682.152	31.76
682.475	32.16
682.799	32.04
683.122	32.08
683.446	32.17
683.769	32.26
684.093	32.01
684.416	31.75
684.739	32.66
685.062	32.24
685.386	32.47
685.709	32.72
686.032	32.06
686.355	32.81
686.678	32.56
687.001	32.16
687.324	32.45
687.646	32.54
687.969	32.86
688.292	32.45
688.614	32.44
688.937	32.25
689.26	32.62
689.582	32.19
689.904	31.68
690.227	31.99
690.549	32.83
690.871	32.48
691.194	32.49
691.516	33.18
691.838	33.15
692.16	32.78
692.482	32.72
692.804	32.66
693.126	33.4
693.448	33.19
693.769	33.22
694.091	32.96
694.413	32.91
694.735	33.55
695.056	31.78
695.378	32.86
695.699	33.44
696.021	33.92
696.342	33.77
696.663	32.84
696.984	33.37
697.306	33.48
697.627	32.88
697.948	34.14
698.269	33.51
698.59	33.01
698.911	32.25
699.232	33.18
699.553	33
699.873	33.56
700.194	32.05
700.515	32.59
700.835	32.47
701.156	32.7
701.477	33.71
701.797	32.85
702.117	33.4
702.438	34.02
702.758	33.83
703.078	33.76
703.398	33.58
703.719	33.3
704.039	34.05
704.359	33.36
704.679	33.59
704.999	33.6
705.319	33.44
705.638	33.28
705.958	34.13
706.278	34.31
706.597	32.91
706.917	33.94
707.237	33.89
707.556	33.74
707.876	34.04
708.195	33.67
708.514	33.88
708.834	33.73
709.153	33.61
709.472	33.35
709.791	33.47
710.11	34.09
710.429	34.38
710.748	34.25
711.067	33.97
711.386	34.65
711.705	34.04
712.023	33.8
712.342	33.33
712.661	33.33
712.979	33.94
713.298	34.15
713.616	33.61
713.935	33.54
714.253	33.8
714.572	33.52
714.89	34.2
715.208	33.99
715.526	34.05
715.844	34.04
716.162	33.58
716.48	33.2
716.798	34
717.116	33.65
717.434	34.21
717.752	34.96
718.069	33.51
718.387	34.06
718.705	34.24
719.022	34.52
719.34	34.34
719.657	33.95
719.975	34.22
720.292	33.72
720.609	35.4
720.927	34.08
721.244	34.7
721.561	34.64
721.878	34.95
722.195	34.6
722.512	33.84
722.829	34.79
723.146	35.77
723.463	34.2
723.779	34.09
724.096	33.93
724.413	34.15
724.729	34.77
725.046	34.91
725.362	33.45
725.679	34.14
725.995	33.7
726.311	34.72
726.628	34.41
726.944	34.42
727.26	34.56
727.576	34.68
727.892	34.41
728.208	35.64
728.524	34.44
728.84	36.13
729.156	34.34
729.472	34.46
729.787	34.79
730.103	34.58
730.419	35.22
730.734	35.41
731.05	34.54
731.365	35.4
731.681	34.68
731.996	35.15
732.311	34.82
732.626	34.15
732.942	35.23
733.257	34.67
733.572	34.7
733.887	34.94
734.202	34.79
734.517	36.23
734.832	34.72
735.146	36.53
735.461	34.9
735.776	34.27
736.091	35.34
736.405	35.7
736.72	35.88
737.034	35.12
737.349	34.56
737.663	36.65
737.977	36.55
738.292	35.72
738.606	36.66
738.92	34.86
739.234	35.82
739.548	36.18
739.862	36.03
740.176	35.88
740.49	37.23
740.804	35.67
741.117	36.1
741.431	34.08
741.745	35.41
742.058	35.9
742.372	35.86
742.685	36.17
742.999	34.25
743.312	37
743.626	35.87
743.939	34.73
744.252	36.93
744.565	36.31
744.878	37.12
745.191	36.13
745.505	35.39
745.817	34.1
746.13	34.95
746.443	35.07
746.756	35.87
747.069	35.63
747.381	37.08
747.694	35.15
748.007	35.5
748.319	35.57
748.632	35.27
748.944	37.5
749.256	37.1
749.569	35.44
749.881	36.59
750.193	35.5
750.505	36.98
750.817	36.1
751.129	36.74
751.441	37.46
751.753	35.28
752.065	35.7
752.377	35.32
752.689	37.34
753	36.06
753.312	36.25
753.624	36.91
753.935	36.61
754.247	36.52
754.558	34.94
754.869	36.19
755.181	36.39
755.492	35.57
755.803	36.56
756.114	38.25
756.425	36.93
756.736	36.64
757.047	35.29
757.358	37.53
757.669	36.5
757.98	35.9
758.291	36.49
758.601	37.23
758.912	37.51
759.223	36.28
759.533	36.29
759.844	35.63
760.154	35.56
760.464	36.43
760.775	38.01
761.085	36.94
761.395	37.23
761.705	35.26
762.016	35.93
762.326	36.14
762.636	36.64
762.945	38.65
763.255	36.46
763.565	37.27
763.875	38.32
764.185	35.85
764.494	34.64
764.804	36.68
765.113	35.99
765.423	34.94
765.732	35.37
766.042	36.08
766.351	37.59
766.66	37.52
766.97	37.39
767.279	36.89
767.588	37.8
767.897	37.03
768.206	36.21
768.515	36.01
768.824	38.05
769.133	38.18
769.441	37.09
769.75	38.7
770.059	36.85
770.367	37.1
770.676	37.62
770.984	37.04
771.293	36.76
771.601	39.17
771.91	36.36
772.218	38.91
772.526	38.2
772.834	37.06
773.142	37.42
773.45	37.06
773.758	37.82
774.066	36.55
774.374	36.71
774.682	37.82
774.99	39.66
775.298	39.9
775.605	38.52
775.913	37.29
776.22	35.42
776.528	36.87
776.835	34.42
777.143	37.77
777.45	38.62
777.757	39.15
778.065	36.42
778.372	37.42
778.679	35.66
778.986	39.19
779.293	38.77
779.6	37.85
779.907	38.81
780.214	35.02
780.52	37.51
780.827	35.38
781.134	38.84
781.44	36.7
781.747	40.85
782.053	39.93
782.36	38.81
782.666	40.07
782.973	38.07
783.279	39.3
783.585	39.63
783.891	36.72
784.197	38.17
784.503	38.05
784.809	38.15
785.115	39.1
785.421	37.61
785.727	37.82
786.033	37.44
786.339	37.74
786.644	40.31
786.95	35.88
787.255	37.17
787.561	39.33
787.866	40.7
788.172	36.73
788.477	37.66
788.782	37.84
789.088	39.15
789.393	37.26
789.698	36.83
790.003	37.01
790.308	36.02
790.613	39.67
790.918	39.11
791.223	36.37
791.527	36.51
791.832	39.02
792.137	36.72
792.441	39.29
792.746	38.34
793.05	40.51
793.355	39.29
793.659	41.65
793.963	38.14
794.268	38.73
794.572	37.47
794.876	38.96
795.18	41.64
795.484	40.88
795.788	35.68
796.092	40.42
796.396	37.44
796.7	38.3
797.004	36.08
797.307	40.81
797.611	36.68
797.915	36.53
798.218	36.89
798.522	40.12
798.825	36.98
799.128	40.06
799.432	37.85
799.735	39.47
800.038	34.26
800.341	37.01
800.644	36.79
800.947	41.38
801.25	37.84
801.553	34.49
801.856	37.59
802.159	34.3
802.462	35.51
802.764	43.96
803.067	40.71
803.37	38.87
803.672	39.13
803.975	40.41
804.277	39.68
804.579	38
804.882	34.54
805.184	40.76
805.486	39.45
805.788	34.66
806.09	37.61
806.392	42.22
806.694	33.73
806.996	38.32
807.298	36.89
807.6	36.95
807.902	43.18
808.203	36.62
808.505	37.21
808.807	34.75
809.108	36.63
809.409	33.5
809.711	35.73
810.012	36.76
810.313	37.19
810.615	43.7
810.916	41.66
811.217	37.26
811.518	40.6
811.819	43.15
812.12	40.04
812.421	42.98
812.722	38.85
813.023	39.86
813.323	32.38
813.624	36.56
813.925	38.3
814.225	39.9
814.526	37.03
814.826	43.16
815.126	47.7
815.427	39.24
815.727	35.98
816.027	41.3
816.327	38.33
816.627	38.72
816.927	38.84
817.227	33.98
817.527	43.56
817.827	38.46
818.127	41.94
818.427	39.3
818.727	39.31
819.026	32.76
819.326	33.23
819.625	47.92
819.925	41.2
820.224	37.32
820.524	37.29
820.823	36.75
821.122	39.06
821.421	43.34
821.72	39.93
822.019	36.18
822.318	39.98
822.617	41.09
822.916	36.88
823.215	39.5
823.514	39.44
823.813	40.03
824.111	38.37
824.41	39.06
824.709	38.91
825.007	38.37
825.306	38.58
825.604	39.84
825.902	40.22
826.201	40.37
826.499	40.17
826.797	40.75
827.095	40.02
827.393	41.85
827.691	39.47
827.989	40.49
828.287	42.93
828.585	41.13
828.882	39.33
829.18	39.88
829.478	38.04
829.775	39.14
830.073	40.15
830.37	39
830.668	41.2
830.965	41.49
831.263	41.97
831.56	43.13
831.857	42.8
832.154	43.14
832.451	40.25
832.748	41.09
833.045	39.93
833.342	42.38
833.639	46.54
833.936	42.31
834.232	37.45
834.529	41.18
834.826	37.22
835.122	42.33
835.419	35.03
835.715	36.9
836.012	42.6
836.308	40.69
836.604	39.62
836.901	41.52
837.197	39.28
837.493	41.05
837.789	38.67
838.085	38.46
838.381	41.74
838.677	40.6
838.972	41.85
839.268	37.64
839.564	42.31
839.86	43.54
840.155	37.32
840.451	46.67
840.746	32.83
841.042	41.69
841.337	40.39
841.632	34.87
841.928	37.19
842.223	41.99
842.518	30.83
842.813	46.86
843.108	40.6
843.403	33.36
843.698	39.33
843.993	38.56
844.287	48.03
844.582	43.77
844.877	37.61
845.171	39.04
845.466	38.74
845.761	45.77
846.055	33.39
846.349	33.27
846.644	33.82
846.938	22.3
847.232	51.44
847.526	43.63
847.82	36.76
848.114	42.7
848.408	40.58
848.702	41.84
848.996	48.79
849.29	34.1
849.584	34.08
849.877	39.1
850.171	28.69
850.465	40.05
850.758	41.97
851.052	48.01
851.345	39.2
851.638	42.3
851.932	42.48
852.225	52.77
852.518	28.94
852.811	22.64
853.104	40.67
853.397	30.43
853.69	37.16
853.983	29.55
854.276	31.68
854.569	29.06
854.861	23.7
855.154	41.14
855.447	33.4
855.739	37.15
856.032	26.74
856.324	52.46
856.616	30.31
856.909	57.25
857.201	38.85
857.493	60.61
857.785	33.63
858.077	39.18
858.369	38.69
858.661	34.92
858.953	48.43
859.245	53.98
859.537	27.79
859.829	44.26
860.12	32.96
860.412	34.92
860.703	24.93
860.995	43.28
861.286	32.84
861.578	46.66
861.869	28.75
862.16	47.06
862.452	41.5
862.743	35.74
863.034	60.3
863.325	18.51
863.616	41.96
863.907	33.59
864.198	33.91
864.488	35.15
864.779	47.33
865.07	24.65
865.36	48.36
865.651	41.72
865.941	18.71
866.232	45.07
866.522	36.1
866.813	56.89
867.103	4.99
867.393	40.4
867.683	38.57
867.973	22.3
868.263	19.48
868.553	50.37
868.843	33.87
869.133	27.98
869.423	42.22
869.713	14.63
870.002	40.1
870.292	38.13
870.582	51.67
870.871	28.11
871.161	27.06
871.45	37.69
871.739	36.02
872.029	49.59
872.318	23.85
872.607	37.44
872.896	18.79
873.185	35.9
873.474	33.59
873.763	46.16
874.052	67.88
874.341	45.27
874.63	44.78
874.918	23.23
875.207	26.08
875.496	35.21
875.784	11.26
876.073	74.71
876.361	24.67
876.649	42.99
876.938	43.44
877.226	46.29
877.514	40.89
877.802	48.45
878.09	51.82
878.378	38
878.666	49.82
878.954	39.01
879.242	57.43
879.53	33.24
879.817	59.98
880.105	44.15
880.392	24.47
880.68	49.82
880.967	24.73
881.255	36.86
881.542	44.07
881.83	18.35
882.117	36.53
882.404	53.69
882.691	58.59
882.978	51.25
883.265	46.71
883.552	46.36
883.839	40.01
884.126	41.83
884.413	47.96
884.699	47.29
884.986	44.82
885.273	42.37
885.559	42.37
885.846	42.37
