Data from 815643_chest_Reflection__7__11.txt Node

Date: Fri Sep 16 14:12:58 CDT 2022
User: ToomeyLab
Spectrometer: FLMS14357
Trigger mode: 0
Integration Time (sec): 1.000000E-2
Scans to average: 100
Electric dark correction enabled: true
Nonlinearity correction enabled: false
Boxcar width: 0
XAxis mode: Wavelengths
Number of Pixels in Spectrum: 2048
>>>>>Begin Spectral Data<<<<<
189.047	-41.46
189.435	-41.46
189.823	-41.46
190.211	274.8
190.599	97.24
190.987	90.23
191.375	88.1
191.763	-50.37
192.151	49.68
192.538	118.5
192.926	105.7
193.314	-29.13
193.702	-302.7
194.089	73.07
194.477	164.44
194.864	76.33
195.252	-340.47
195.639	211.74
196.027	292.09
196.414	40.86
196.801	141.32
197.189	43.09
197.576	-53.66
197.963	-177.36
198.351	-10.72
198.738	21.39
199.125	1.39
199.512	-16.81
199.899	-18.11
200.286	5.01
200.673	-16.8
201.06	-0.48
201.447	-22.2
201.833	22.41
202.22	-78.28
202.607	8.82
202.994	-0.3
203.38	-61.79
203.767	-0.19
204.154	10.42
204.54	24.28
204.927	14.83
205.313	-24.76
205.699	7.36
206.086	-14.38
206.472	-11.09
206.858	7.92
207.245	-10.29
207.631	1.81
208.017	-1.75
208.403	15.51
208.789	13.01
209.175	-75.63
209.561	-16.92
209.947	-17.8
210.333	-35.86
210.719	24.62
211.105	13.78
211.491	13.42
211.876	11.46
212.262	-17.64
212.648	2.42
213.034	6.23
213.419	10.15
213.805	15.35
214.19	-1.52
214.576	-10.24
214.961	10.7
215.346	-16.77
215.732	3.74
216.117	-37.53
216.502	-0.62
216.888	-0.46
217.273	12.79
217.658	-11.89
218.043	4.63
218.428	-1.35
218.813	11.9
219.198	-11.64
219.583	12.74
219.968	-22.06
220.353	-9.02
220.738	-15.94
221.122	21.79
221.507	-15.65
221.892	10.67
222.276	4.56
222.661	9.37
223.046	3.5
223.43	-4.54
223.815	-6.85
224.199	-3.68
224.583	-10.04
224.968	-3.21
225.352	-6.69
225.736	1.27
226.121	-8.98
226.505	5.49
226.889	3.36
227.273	6
227.657	1.62
228.041	-0.51
228.425	-0.08
228.809	2.01
229.193	1.62
229.577	3.69
229.961	2.38
230.344	1.63
230.728	1.71
231.112	1.66
231.495	1.72
231.879	2.01
232.263	1.66
232.646	0.13
233.03	2.1
233.413	0.34
233.797	3.25
234.18	-0.77
234.563	1.89
234.946	2.64
235.33	0.62
235.713	0.92
236.096	2.4
236.479	0.85
236.862	0.92
237.245	1.07
237.628	0.22
238.011	1.66
238.394	3.12
238.777	1.93
239.16	-0.13
239.543	1.28
239.925	2.2
240.308	3.44
240.691	0.69
241.073	1.23
241.456	1.76
241.838	1.68
242.221	1.75
242.603	1.95
242.986	1.98
243.368	2.08
243.75	1.61
244.133	1.7
244.515	1.74
244.897	2.17
245.279	2.48
245.661	1.22
246.043	2.51
246.425	2.53
246.807	1.34
247.189	2.07
247.571	1.99
247.953	2.2
248.335	2.2
248.717	2.04
249.098	1.94
249.48	2.36
249.862	1.99
250.243	2.57
250.625	1.93
251.006	2.51
251.388	2.55
251.769	3.08
252.151	2.42
252.532	2.08
252.913	2.06
253.295	1.96
253.676	2.45
254.057	1.81
254.438	1.99
254.819	2.87
255.2	1.96
255.581	2.39
255.962	1.64
256.343	1.59
256.724	0.97
257.105	1.92
257.486	1.12
257.867	1.7
258.247	1
258.628	2.2
259.009	2.07
259.389	1.89
259.77	0.95
260.15	2.27
260.531	2.28
260.911	1.76
261.292	1.91
261.672	2.03
262.052	2.32
262.432	1.99
262.813	1.97
263.193	2.27
263.573	1.69
263.953	2.15
264.333	1.74
264.713	1.86
265.093	1.65
265.473	2.13
265.853	1.66
266.233	2.05
266.612	2.38
266.992	1.23
267.372	1.59
267.752	1.7
268.131	1.63
268.511	1.73
268.89	1.62
269.27	1.8
269.649	1.62
270.029	1.68
270.408	1.44
270.787	2.27
271.167	2.03
271.546	2.09
271.925	1.68
272.304	1.97
272.683	1.96
273.062	2.22
273.441	2
273.82	1.43
274.199	2.23
274.578	1.91
274.957	2.02
275.336	2.22
275.715	1.63
276.093	1.73
276.472	2.15
276.851	2.05
277.229	1.53
277.608	1.54
277.986	1.78
278.365	1.64
278.743	1.98
279.122	1.24
279.5	1.49
279.878	1.69
280.257	2.02
280.635	2.07
281.013	2.01
281.391	2.1
281.769	1.72
282.147	1.97
282.525	2.03
282.903	1.76
283.281	2.12
283.659	1.84
284.037	1.88
284.415	1.96
284.792	2.4
285.17	2.14
285.548	1.93
285.925	2.08
286.303	1.75
286.68	1.59
287.058	2
287.435	1.86
287.813	2.07
288.19	2.04
288.567	2.09
288.945	2.17
289.322	1.53
289.699	1.77
290.076	1.59
290.453	2.32
290.83	2.48
291.207	2.21
291.584	1.71
291.961	2
292.338	1.9
292.715	1.94
293.092	1.94
293.469	1.74
293.845	1.75
294.222	1.71
294.599	2.22
294.975	1.74
295.352	2.11
295.728	1.81
296.105	1.67
296.481	1.78
296.858	2.2
297.234	1.79
297.61	2.02
297.986	1.64
298.363	2.34
298.739	1.98
299.115	2.42
299.491	2.35
299.867	2.13
300.243	2.23
300.619	2.49
300.995	2.03
301.371	2.25
301.746	2.21
302.122	1.95
302.498	1.65
302.874	2.05
303.249	2.16
303.625	1.96
304	2.81
304.376	1.6
304.751	2.54
305.127	2.12
305.502	1.77
305.878	1.85
306.253	2.11
306.628	1.91
307.003	2.25
307.378	2.34
307.754	1.8
308.129	1.74
308.504	2.62
308.879	1.96
309.254	2.2
309.629	2.13
310.003	2.38
310.378	1.91
310.753	2.11
311.128	2.19
311.502	2.3
311.877	2.37
312.252	1.68
312.626	2.15
313.001	2.39
313.375	2.17
313.75	2.44
314.124	2.48
314.498	2.25
314.873	2.06
315.247	2.78
315.621	2.44
315.995	2.34
316.369	2.43
316.743	2.42
317.117	1.93
317.491	2.04
317.865	2.25
318.239	2.24
318.613	2.25
318.987	2.04
319.361	2.14
319.734	2.35
320.108	2.79
320.482	2.25
320.855	2.56
321.229	2.59
321.602	2.15
321.976	2.01
322.349	2.35
322.723	2.39
323.096	2.4
323.469	2.39
323.843	2.45
324.216	2.86
324.589	2.13
324.962	2.17
325.335	2.21
325.708	2.66
326.081	2.05
326.454	2.01
326.827	2.69
327.2	2.25
327.573	2.02
327.945	2.02
328.318	2.37
328.691	2.65
329.063	2.94
329.436	2.04
329.809	2.51
330.181	2.46
330.553	2.53
330.926	2.17
331.298	2.68
331.671	3.19
332.043	2.29
332.415	2.64
332.787	2.29
333.159	2.38
333.532	2.58
333.904	2.42
334.276	2.53
334.648	2.53
335.02	2.82
335.391	2.48
335.763	2.45
336.135	2.44
336.507	2.13
336.879	2.32
337.25	2.54
337.622	2.33
337.993	2.06
338.365	2.25
338.736	2.7
339.108	2.44
339.479	2.56
339.851	2.87
340.222	2.55
340.593	2.05
340.964	2.18
341.336	2.9
341.707	2.36
342.078	2.52
342.449	2.38
342.82	2.69
343.191	2.47
343.562	2.76
343.933	2.29
344.303	2.58
344.674	2.35
345.045	2.25
345.416	2.88
345.786	2.64
346.157	2.29
346.527	2.61
346.898	2.51
347.268	2.62
347.639	2.24
348.009	2.69
348.38	2.65
348.75	2.39
349.12	2.44
349.49	2.65
349.861	2.8
350.231	2.62
350.601	2.76
350.971	2.51
351.341	3.02
351.711	2.56
352.081	2.57
352.45	2.71
352.82	2.7
353.19	2.75
353.56	2.54
353.929	2.65
354.299	2.54
354.669	2.77
355.038	2.73
355.408	2.6
355.777	2.37
356.147	2.72
356.516	2.49
356.885	2.48
357.254	2.63
357.624	2.98
357.993	2.7
358.362	2.7
358.731	2.61
359.1	2.59
359.469	2.64
359.838	2.59
360.207	2.72
360.576	2.86
360.945	2.69
361.314	3.06
361.682	2.54
362.051	2.65
362.42	2.74
362.788	2.92
363.157	2.76
363.525	2.7
363.894	2.8
364.262	2.77
364.631	2.78
364.999	2.88
365.367	2.37
365.735	2.77
366.104	2.76
366.472	2.86
366.84	2.68
367.208	2.62
367.576	2.81
367.944	2.74
368.312	3.01
368.68	3.02
369.048	2.71
369.416	2.61
369.783	2.74
370.151	2.83
370.519	2.76
370.886	2.4
371.254	2.68
371.621	2.81
371.989	2.62
372.356	3.05
372.724	2.93
373.091	2.93
373.458	2.99
373.826	2.56
374.193	2.92
374.56	2.96
374.927	2.94
375.294	3.2
375.661	2.64
376.028	2.95
376.395	3.01
376.762	2.94
377.129	2.67
377.496	2.82
377.863	2.91
378.229	2.94
378.596	2.74
378.963	2.82
379.329	2.96
379.696	3.01
380.062	3.02
380.429	3.16
380.795	2.86
381.161	2.9
381.528	2.97
381.894	2.85
382.26	3.04
382.626	2.71
382.993	3.15
383.359	3
383.725	2.65
384.091	2.85
384.457	2.65
384.823	3.17
385.188	2.74
385.554	2.89
385.92	3.09
386.286	2.71
386.651	3.09
387.017	3
387.383	2.84
387.748	2.9
388.114	2.96
388.479	3.22
388.845	3.04
389.21	3.06
389.575	3.02
389.94	2.99
390.306	2.98
390.671	2.95
391.036	3.2
391.401	2.83
391.766	2.99
392.131	2.83
392.496	2.98
392.861	3.01
393.226	2.8
393.591	3.12
393.956	3.03
394.32	2.82
394.685	3.14
395.05	3.02
395.414	2.93
395.779	3
396.143	2.95
396.508	3.01
396.872	3.06
397.236	3.03
397.601	3.18
397.965	3.05
398.329	3.25
398.694	3.01
399.058	3.05
399.422	3.02
399.786	3.01
400.15	2.88
400.514	2.81
400.878	3.05
401.242	2.97
401.605	2.94
401.969	2.95
402.333	3.07
402.697	3.16
403.06	3
403.424	3.13
403.787	3.07
404.151	3.07
404.514	2.95
404.878	3.09
405.241	3
405.604	3.14
405.968	3.16
406.331	3.26
406.694	3.05
407.057	2.83
407.42	3.31
407.783	3.21
408.146	2.94
408.509	3.25
408.872	3.05
409.235	3.19
409.598	3.23
409.961	3.04
410.323	3.06
410.686	3.17
411.049	3.13
411.411	3.08
411.774	3.1
412.136	3.15
412.499	2.97
412.861	3.12
413.223	3.17
413.586	3.03
413.948	3.07
414.31	3.23
414.672	3.22
415.035	3.08
415.397	3.25
415.759	3.2
416.121	3.19
416.483	3.22
416.845	3.19
417.206	3.2
417.568	2.99
417.93	3.08
418.292	3.16
418.653	3.07
419.015	3.18
419.377	3.13
419.738	3.15
420.1	3.17
420.461	3.11
420.822	3.16
421.184	3.11
421.545	3.14
421.906	3.08
422.267	3.21
422.629	3.06
422.99	3.02
423.351	3.1
423.712	3.02
424.073	3.17
424.434	3.19
424.795	3.13
425.155	3.13
425.516	2.99
425.877	3.13
426.238	3.09
426.598	3.06
426.959	3.14
427.32	3.11
427.68	3.2
428.041	3.31
428.401	3.06
428.761	3.31
429.122	3.35
429.482	3.22
429.842	3.31
430.202	3.29
430.563	3.43
430.923	3.24
431.283	3.27
431.643	3.34
432.003	3.35
432.363	3.24
432.722	3.24
433.082	3.45
433.442	3.35
433.802	3.16
434.161	3.29
434.521	3.18
434.881	3.31
435.24	3.09
435.6	3.26
435.959	3.15
436.319	3.29
436.678	3.23
437.037	3.33
437.396	3.23
437.756	3.34
438.115	3.29
438.474	3.26
438.833	3.34
439.192	3.24
439.551	3.22
439.91	3.14
440.269	3.24
440.628	3.28
440.987	3.3
441.345	3.17
441.704	3.22
442.063	3.27
442.421	3.2
442.78	3.31
443.138	3.28
443.497	3.37
443.855	3.31
444.214	3.45
444.572	3.49
444.93	3.33
445.288	3.34
445.647	3.41
446.005	3.37
446.363	3.32
446.721	3.21
447.079	3.29
447.437	3.25
447.795	3.23
448.153	3.2
448.51	3.09
448.868	3.34
449.226	3.32
449.584	3.38
449.941	3.32
450.299	3.28
450.656	3.47
451.014	3.38
451.371	3.33
451.729	3.46
452.086	3.43
452.443	3.47
452.801	3.68
453.158	3.35
453.515	3.43
453.872	3.41
454.229	3.42
454.586	3.32
454.943	3.57
455.3	3.38
455.657	3.44
456.014	3.35
456.371	3.44
456.727	3.4
457.084	3.44
457.441	3.49
457.797	3.33
458.154	3.48
458.51	3.34
458.867	3.46
459.223	3.43
459.58	3.39
459.936	3.45
460.292	3.38
460.648	3.45
461.005	3.35
461.361	3.35
461.717	3.35
462.073	3.42
462.429	3.47
462.785	3.45
463.141	3.59
463.496	3.51
463.852	3.61
464.208	3.61
464.564	3.55
464.919	3.46
465.275	3.39
465.631	3.72
465.986	3.65
466.342	3.45
466.697	3.6
467.052	3.73
467.408	3.5
467.763	3.64
468.118	3.53
468.473	3.5
468.829	3.51
469.184	3.51
469.539	3.48
469.894	3.29
470.249	3.52
470.603	3.72
470.958	3.67
471.313	3.55
471.668	3.49
472.023	3.74
472.377	3.59
472.732	3.61
473.086	3.69
473.441	3.55
473.795	3.58
474.15	3.51
474.504	3.66
474.859	3.72
475.213	3.54
475.567	3.53
475.921	3.45
476.275	3.69
476.63	3.59
476.984	3.54
477.338	3.79
477.692	3.71
478.045	3.64
478.399	3.71
478.753	3.66
479.107	3.58
479.461	3.76
479.814	3.68
480.168	3.64
480.521	3.62
480.875	3.66
481.228	3.72
481.582	3.6
481.935	3.71
482.289	3.57
482.642	3.54
482.995	3.59
483.348	3.58
483.701	3.61
484.055	3.59
484.408	3.61
484.761	3.48
485.114	3.4
485.466	3.32
485.819	3.29
486.172	3.38
486.525	3.48
486.878	3.59
487.23	3.56
487.583	3.62
487.936	3.64
488.288	3.5
488.641	3.54
488.993	3.41
489.345	3.5
489.698	3.47
490.05	3.47
490.402	3.59
490.754	3.57
491.107	3.7
491.459	3.74
491.811	3.71
492.163	3.7
492.515	3.66
492.866	3.52
493.218	3.44
493.57	3.51
493.922	3.58
494.274	3.66
494.625	3.77
494.977	3.72
495.328	3.75
495.68	3.73
496.031	3.93
496.383	3.83
496.734	3.84
497.086	3.88
497.437	3.83
497.788	3.8
498.139	3.67
498.49	3.84
498.842	3.61
499.193	3.77
499.544	3.81
499.894	3.8
500.245	3.85
500.596	3.67
500.947	3.88
501.298	3.85
501.648	3.85
501.999	3.86
502.35	3.83
502.7	3.82
503.051	3.86
503.401	3.94
503.752	3.79
504.102	3.95
504.452	3.92
504.803	4.02
505.153	3.97
505.503	3.98
505.853	3.92
506.203	3.89
506.553	3.86
506.903	3.99
507.253	3.92
507.603	3.81
507.953	4
508.303	3.98
508.652	3.91
509.002	3.91
509.352	3.83
509.701	4
510.051	3.95
510.4	3.82
510.75	3.94
511.099	3.98
511.449	3.87
511.798	3.93
512.147	3.92
512.496	4
512.846	3.96
513.195	3.98
513.544	3.96
513.893	4
514.242	4.08
514.591	3.98
514.939	3.96
515.288	4.15
515.637	4.02
515.986	3.95
516.334	4.14
516.683	4.1
517.032	4.09
517.38	4.02
517.729	4.15
518.077	4.14
518.426	4.05
518.774	4.07
519.122	3.96
519.47	4.21
519.819	4.02
520.167	3.94
520.515	3.92
520.863	3.97
521.211	3.99
521.559	4
521.907	4.02
522.255	4.1
522.602	4.05
522.95	4.1
523.298	4.15
523.645	4.14
523.993	4.22
524.341	4.13
524.688	4.01
525.036	4.27
525.383	4.14
525.73	4.2
526.078	4.19
526.425	4.14
526.772	4.17
527.119	4.16
527.466	4.08
527.814	4.1
528.161	4.14
528.508	4.18
528.854	4.19
529.201	4.2
529.548	4.06
529.895	4
530.242	3.86
530.588	3.88
530.935	3.99
531.282	4.1
531.628	4.08
531.975	4.16
532.321	4.21
532.667	4.29
533.014	4.21
533.36	4.22
533.706	4.23
534.052	4.2
534.399	4.13
534.745	4.08
535.091	4.04
535.437	4.11
535.783	4.22
536.129	4.31
536.474	4.28
536.82	4.34
537.166	4.38
537.512	4.4
537.857	4.29
538.203	4.32
538.549	4.29
538.894	4.24
539.239	4.37
539.585	4.42
539.93	4.41
540.276	4.46
540.621	4.58
540.966	4.53
541.311	4.44
541.656	4.53
542.001	4.45
542.346	4.39
542.691	4.29
543.036	4.18
543.381	4.25
543.726	4.29
544.071	4.39
544.415	4.4
544.76	4.42
545.105	4.34
545.449	4.46
545.794	4.5
546.138	4.61
546.483	4.51
546.827	4.59
547.171	4.62
547.516	4.64
547.86	4.61
548.204	4.52
548.548	4.7
548.892	4.62
549.236	4.57
549.58	4.61
549.924	4.7
550.268	4.6
550.612	4.88
550.956	4.67
551.3	4.92
551.643	4.78
551.987	4.9
552.33	4.93
552.674	4.82
553.017	4.85
553.361	4.91
553.704	4.93
554.048	4.81
554.391	4.77
554.734	4.72
555.077	4.76
555.42	4.84
555.764	4.91
556.107	5.07
556.45	5.09
556.793	4.89
557.135	4.98
557.478	5
557.821	5.08
558.164	4.95
558.507	5.16
558.849	4.96
559.192	5
559.534	4.9
559.877	5.07
560.219	5.08
560.562	5.16
560.904	5.19
561.246	5.07
561.589	5.16
561.931	5.07
562.273	5.12
562.615	4.9
562.957	5.34
563.299	5.18
563.641	5.22
563.983	5.28
564.325	5.1
564.667	5.28
565.008	5.26
565.35	5.21
565.692	5.39
566.033	5.36
566.375	5.48
566.716	5.24
567.058	5.33
567.399	5.25
567.741	5.3
568.082	5.32
568.423	5.28
568.764	5.28
569.105	5.43
569.447	5.38
569.788	5.49
570.129	5.55
570.47	5.67
570.811	5.51
571.151	5.64
571.492	5.59
571.833	5.53
572.174	5.42
572.514	5.45
572.855	5.61
573.195	5.54
573.536	5.56
573.876	5.48
574.217	5.58
574.557	5.57
574.898	5.61
575.238	5.73
575.578	5.85
575.918	5.66
576.258	5.71
576.598	5.63
576.938	5.68
577.278	5.76
577.618	5.77
577.958	5.89
578.298	5.9
578.638	5.86
578.977	5.98
579.317	5.65
579.657	5.93
579.996	5.91
580.336	5.92
580.675	5.99
581.014	6
581.354	5.97
581.693	6.16
582.032	6.03
582.372	6.05
582.711	6.02
583.05	6.05
583.389	5.91
583.728	6.32
584.067	6.28
584.406	6.24
584.745	6.24
585.083	6.08
585.422	6.03
585.761	6.3
586.1	6.08
586.438	6.31
586.777	6.27
587.115	6.26
587.454	6.08
587.792	6.27
588.13	6.16
588.469	6.04
588.807	6.7
589.145	6.27
589.483	6.38
589.821	6.69
590.159	6.63
590.497	6.42
590.835	6.59
591.173	6.22
591.511	6.4
591.849	6.57
592.187	6.61
592.524	6.55
592.862	6.51
593.2	6.58
593.537	6.91
593.875	6.59
594.212	6.49
594.55	6.65
594.887	6.92
595.224	6.86
595.561	6.74
595.899	6.8
596.236	6.75
596.573	6.63
596.91	6.95
597.247	7
597.584	6.76
597.921	6.71
598.258	6.73
598.594	6.75
598.931	6.89
599.268	6.83
599.604	6.84
599.941	6.81
600.277	6.94
600.614	6.93
600.95	7.14
601.287	7.38
601.623	7.31
601.959	7.06
602.296	7.11
602.632	7.26
602.968	7.06
603.304	7.32
603.64	7.21
603.976	7.2
604.312	7.23
604.648	7.23
604.984	7
605.319	7.23
605.655	6.99
605.991	7.22
606.326	7.14
606.662	7.19
606.998	7.3
607.333	7.26
607.668	7.32
608.004	7.56
608.339	7.51
608.674	7.54
609.01	7.52
609.345	7.78
609.68	8.06
610.015	7.59
610.35	7.64
610.685	7.71
611.02	7.45
611.355	7.53
611.689	7.63
612.024	7.58
612.359	7.58
612.694	7.83
613.028	7.78
613.363	7.93
613.697	7.94
614.032	8.08
614.366	7.78
614.7	8.13
615.035	7.99
615.369	7.75
615.703	8.05
616.037	7.69
616.371	8.19
616.705	8.27
617.039	7.81
617.373	7.89
617.707	8.11
618.041	8.14
618.375	8.14
618.709	8.06
619.042	8.33
619.376	7.93
619.71	8.37
620.043	8.35
620.377	8.42
620.71	8.07
621.043	8.29
621.377	8.43
621.71	8.46
622.043	8.23
622.376	8.44
622.709	8.71
623.043	8.3
623.376	8.49
623.709	8.7
624.041	8.24
624.374	8.54
624.707	8.71
625.04	8.53
625.373	8.74
625.705	8.71
626.038	8.45
626.37	8.87
626.703	8.53
627.035	8.76
627.368	8.68
627.7	8.9
628.032	8.75
628.365	8.82
628.697	9.14
629.029	8.86
629.361	8.8
629.693	8.84
630.025	8.73
630.357	8.99
630.689	8.95
631.021	9.31
631.353	8.86
631.684	9.24
632.016	8.91
632.348	9.14
632.679	9.03
633.011	8.86
633.342	8.9
633.674	9.21
634.005	9.37
634.336	9.31
634.668	9.32
634.999	9.42
635.33	9.5
635.661	9.56
635.992	9.49
636.323	9.41
636.654	9.42
636.985	9.37
637.316	9.38
637.647	9.4
637.977	9.74
638.308	9.33
638.639	9.6
638.969	9.83
639.3	9.56
639.63	9.99
639.961	9.59
640.291	10.14
640.622	9.9
640.952	10.04
641.282	10.03
641.612	9.89
641.943	9.26
642.273	9.77
642.603	9.55
642.933	10.29
643.263	9.76
643.592	10.42
643.922	10.13
644.252	9.93
644.582	10.19
644.911	10.25
645.241	10.19
645.571	9.68
645.9	10.34
646.23	10.27
646.559	10.31
646.888	9.91
647.218	10.51
647.547	10.32
647.876	10.78
648.205	10.57
648.534	10.63
648.863	10.62
649.192	10.61
649.521	10.39
649.85	10.63
650.179	10.17
650.508	10.7
650.837	10.43
651.165	10.49
651.494	10.87
651.822	10.69
652.151	11
652.479	10.62
652.808	10.47
653.136	10.8
653.465	10.99
653.793	11.04
654.121	10.91
654.449	10.84
654.777	10.79
655.105	11.08
655.433	11.08
655.761	11.18
656.089	10.99
656.417	11.29
656.745	11.04
657.073	10.9
657.4	11.59
657.728	11.2
658.056	11.09
658.383	11.19
658.711	11.11
659.038	11.17
659.365	11.06
659.693	11.32
660.02	10.93
660.347	11.36
660.674	11.07
661.001	11.15
661.329	11.42
661.656	11.17
661.982	11.66
662.309	11.7
662.636	11.36
662.963	11.78
663.29	11.29
663.616	11.71
663.943	11.79
664.27	11.8
664.596	11.52
664.923	11.81
665.249	12.23
665.576	11.68
665.902	12.23
666.228	12.02
666.554	11.68
666.881	11.44
667.207	12.1
667.533	11.47
667.859	12.42
668.185	12.73
668.511	12.29
668.837	11.75
669.162	11.6
669.488	11.73
669.814	11.87
670.139	12.13
670.465	12.29
670.791	12.09
671.116	12.74
671.442	12.62
671.767	12.05
672.092	12.05
672.418	12.17
672.743	12.33
673.068	12.31
673.393	12.42
673.718	12.58
674.043	12.77
674.368	12.28
674.693	13.21
675.018	12.43
675.343	13.06
675.667	12.62
675.992	12.36
676.317	12.53
676.641	12.7
676.966	13.09
677.29	13.15
677.615	13.07
677.939	12.51
678.264	13.45
678.588	12.24
678.912	12.45
679.236	13.16
679.56	12.74
679.885	13.12
680.209	12.88
680.532	13.42
680.856	13.38
681.18	13.08
681.504	13.22
681.828	12.87
682.152	12.92
682.475	13.13
682.799	13.15
683.122	13.05
683.446	13.05
683.769	13.42
684.093	13.46
684.416	13.35
684.739	13.45
685.062	13.8
685.386	13.41
685.709	13.69
686.032	13.6
686.355	13.41
686.678	14.28
687.001	13.53
687.324	13.84
687.646	13.36
687.969	14.11
688.292	13.49
688.614	13.81
688.937	13.9
689.26	14
689.582	13.27
689.904	13.94
690.227	13.35
690.549	14.59
690.871	13.8
691.194	14.34
691.516	14.39
691.838	14.02
692.16	14.16
692.482	13.9
692.804	14.66
693.126	14.18
693.448	13.75
693.769	13.75
694.091	14.56
694.413	13.85
694.735	14.38
695.056	14
695.378	14.38
695.699	14.98
696.021	14.87
696.342	14.62
696.663	14.49
696.984	15.16
697.306	15
697.627	14.63
697.948	14.78
698.269	14.45
698.59	14.56
698.911	14.15
699.232	14.71
699.553	14.72
699.873	14.38
700.194	14.42
700.515	14.68
700.835	14.43
701.156	15.01
701.477	14.72
701.797	14.72
702.117	15.14
702.438	15.64
702.758	15.38
703.078	15.68
703.398	15.74
703.719	14.38
704.039	14.7
704.359	14.62
704.679	14.6
704.999	14.96
705.319	15.26
705.638	15.24
705.958	15.62
706.278	16.74
706.597	15.48
706.917	16.15
707.237	16.54
707.556	15.49
707.876	15.98
708.195	15.79
708.514	16.12
708.834	16.32
709.153	14.71
709.472	16.04
709.791	15.42
710.11	15.59
710.429	15.88
710.748	16.84
711.067	16.1
711.386	15.76
711.705	15.99
712.023	15.98
712.342	15.49
712.661	16.25
712.979	15.94
713.298	15.68
713.616	14.99
713.935	16.11
714.253	16.5
714.572	15.73
714.89	16.06
715.208	16.27
715.526	15.71
715.844	16.64
716.162	15.77
716.48	15.54
716.798	15.8
717.116	16.26
717.434	16.09
717.752	17.05
718.069	16.59
718.387	16.82
718.705	16.37
719.022	17.12
719.34	17.44
719.657	16.54
719.975	16.24
720.292	16.07
720.609	17.68
720.927	16.97
721.244	17.85
721.561	16.61
721.878	16.47
722.195	16.95
722.512	17.24
722.829	17.31
723.146	17.41
723.463	16.93
723.779	17.28
724.096	16.25
724.413	16.95
724.729	17.2
725.046	17.31
725.362	17.3
725.679	17.09
725.995	17.67
726.311	17.28
726.628	17.44
726.944	17.28
727.26	17.77
727.576	17.42
727.892	17.19
728.208	17.42
728.524	17.81
728.84	18.52
729.156	17.36
729.472	17.19
729.787	16.67
730.103	17.68
730.419	17.89
730.734	18.13
731.05	18.12
731.365	18.2
731.681	17.73
731.996	16.87
732.311	17.5
732.626	17.56
732.942	17.22
733.257	17.55
733.572	17.89
733.887	18.13
734.202	17.87
734.517	18.55
734.832	17.4
735.146	19.71
735.461	17.93
735.776	17.41
736.091	18.09
736.405	19.13
736.72	18.61
737.034	17.71
737.349	18.77
737.663	19.25
737.977	19.14
738.292	19.1
738.606	19.35
738.92	16.6
739.234	17.04
739.548	19.79
739.862	19.3
740.176	19.95
740.49	19.4
740.804	18.73
741.117	20.18
741.431	17.82
741.745	17.56
742.058	18.71
742.372	20.65
742.685	19.04
742.999	18.93
743.312	18.57
743.626	17.89
743.939	19.34
744.252	19.37
744.565	17.23
744.878	18.55
745.191	19.25
745.505	20.27
745.817	18.17
746.13	19.56
746.443	19.28
746.756	19.73
747.069	21.13
747.381	20.09
747.694	19.61
748.007	20.02
748.319	19.27
748.632	20.24
748.944	20.42
749.256	20.34
749.569	19.32
749.881	20.45
750.193	20.02
750.505	20.04
750.817	20.06
751.129	20
751.441	21.23
751.753	19.99
752.065	19.67
752.377	19.97
752.689	20.01
753	20.31
753.312	19.08
753.624	17.78
753.935	19.96
754.247	21.16
754.558	18.53
754.869	19.09
755.181	21.3
755.492	20.18
755.803	21.56
756.114	19.71
756.425	19.67
756.736	21.12
757.047	20.21
757.358	20.56
757.669	21.35
757.98	19.74
758.291	20.15
758.601	20.65
758.912	20.93
759.223	21.43
759.533	19.77
759.844	19.31
760.154	21.75
760.464	18.92
760.775	21.86
761.085	20.32
761.395	21.39
761.705	19.78
762.016	20.5
762.326	19.65
762.636	20.59
762.945	22.08
763.255	19.43
763.565	19.59
763.875	20.88
764.185	22.08
764.494	21.4
764.804	21.35
765.113	21.49
765.423	21.36
765.732	20.39
766.042	21.34
766.351	21.81
766.66	21.54
766.97	21.24
767.279	21.97
767.588	20.57
767.897	21.61
768.206	22.11
768.515	20.87
768.824	22.35
769.133	22.98
769.441	23.84
769.75	23
770.059	22.78
770.367	21.03
770.676	24.34
770.984	21.04
771.293	21.17
771.601	23.41
771.91	21.2
772.218	21.92
772.526	23.9
772.834	23.59
773.142	21.28
773.45	22.13
773.758	20.75
774.066	24.23
774.374	19.49
774.682	22.55
774.99	23.79
775.298	19.85
775.605	21.05
775.913	25.38
776.22	21.13
776.528	22.92
776.835	25.41
777.143	22.59
777.45	22.69
777.757	21.22
778.065	20.62
778.372	22.94
778.679	21.09
778.986	23.23
779.293	23.1
779.6	22.48
779.907	25.71
780.214	20.12
780.52	20.85
780.827	21.71
781.134	23.52
781.44	21.82
781.747	21.71
782.053	27.16
782.36	23.14
782.666	26.74
782.973	23.1
783.279	24.99
783.585	24.02
783.891	21.23
784.197	21.66
784.503	20.74
784.809	24.02
785.115	24.18
785.421	19.99
785.727	23.73
786.033	22.59
786.339	26.08
786.644	24.84
786.95	23.56
787.255	27.77
787.561	22.66
787.866	25.18
788.172	20.07
788.477	23.08
788.782	23.89
789.088	21.49
789.393	25.25
789.698	23.5
790.003	19.42
790.308	22.34
790.613	24.99
790.918	23.58
791.223	22.33
791.527	24.49
791.832	23.13
792.137	24.42
792.441	24.79
792.746	22.24
793.05	24.84
793.355	24.75
793.659	27.59
793.963	23.2
794.268	23.11
794.572	22.88
794.876	25.06
795.18	24.26
795.484	25.49
795.788	21.87
796.092	25.72
796.396	25.51
796.7	23.76
797.004	19.9
797.307	24.79
797.611	25.83
797.915	24.74
798.218	26.76
798.522	24.61
798.825	21.9
799.128	27.06
799.432	25.12
799.735	28.57
800.038	18.25
800.341	24.12
800.644	22.41
800.947	24.48
801.25	23.3
801.553	21.23
801.856	23.72
802.159	25.61
802.462	24.02
802.764	25.62
803.067	27.67
803.37	24.57
803.672	23.56
803.975	26.66
804.277	23.47
804.579	26.01
804.882	27.9
805.184	27.12
805.486	25.62
805.788	17.61
806.09	26.27
806.392	22.15
806.694	23.21
806.996	26.95
807.298	21.18
807.6	25.16
807.902	26.35
808.203	22.32
808.505	23.16
808.807	25.48
809.108	25.68
809.409	22.07
809.711	23.7
810.012	22.77
810.313	22.19
810.615	30.15
810.916	21.27
811.217	29.44
811.518	28.1
811.819	29.47
812.12	20.9
812.421	25.75
812.722	27.31
813.023	25.99
813.323	22.8
813.624	20.75
813.925	23.93
814.225	29.03
814.526	20.03
814.826	24.78
815.126	30.62
815.427	26.58
815.727	26.5
816.027	25.99
816.327	23.52
816.627	26.63
816.927	23.55
817.227	22.51
817.527	32.16
817.827	20.1
818.127	25.59
818.427	30.41
818.727	31.58
819.026	25.4
819.326	25.29
819.625	29.49
819.925	26.76
820.224	29.23
820.524	28.91
820.823	27.67
821.122	26.14
821.421	28.79
821.72	28.32
822.019	25.53
822.318	29.21
822.617	25.04
822.916	23.06
823.215	27.53
823.514	29.26
823.813	27.29
824.111	28
824.41	28.46
824.709	28.32
825.007	27.67
825.306	27.08
825.604	28.23
825.902	29.11
826.201	29.13
826.499	28
826.797	28.3
827.095	27.6
827.393	29.13
827.691	28.18
827.989	29.26
828.287	30.59
828.585	28.16
828.882	28.28
829.18	28.88
829.478	26.28
829.775	28.45
830.073	29.51
830.37	28.36
830.668	28.05
830.965	27.5
831.263	27.32
831.56	28.1
831.857	30.37
832.154	29.04
832.451	30.29
832.748	30.1
833.045	27.01
833.342	25.33
833.639	26.67
833.936	29.85
834.232	25.52
834.529	24.24
834.826	24.81
835.122	27.08
835.419	30.48
835.715	29.51
836.012	27.58
836.308	26.07
836.604	28.73
836.901	28.07
837.197	30.21
837.493	28.06
837.789	28.11
838.085	29.2
838.381	27.54
838.677	25.92
838.972	31.53
839.268	23.52
839.564	25.77
839.86	29.57
840.155	29.6
840.451	28.08
840.746	28.14
841.042	28.26
841.337	21.39
841.632	21.25
841.928	23.2
842.223	28.77
842.518	27.78
842.813	27.21
843.108	33.11
843.403	22.18
843.698	27.28
843.993	27.35
844.287	36.57
844.582	29.7
844.877	28.1
845.171	24.88
845.466	29.72
845.761	26.39
846.055	22.86
846.349	21.36
846.644	16.12
846.938	17.69
847.232	32.23
847.526	14.88
847.82	12.97
848.114	24.75
848.408	7.48
848.702	36.21
848.996	30.88
849.29	27.48
849.584	20.19
849.877	22.93
850.171	20.7
850.465	22.74
850.758	6.97
851.052	27.17
851.345	1.78
851.638	26.47
851.932	23.36
852.225	24.03
852.518	32.08
852.811	27.58
853.104	38.15
853.397	42.66
853.69	28.75
853.983	33.09
854.276	34.99
854.569	5.56
854.861	23.36
855.154	25.68
855.447	10.18
855.739	27.05
856.032	18.12
856.324	28.67
856.616	13.91
856.909	21.27
857.201	23.04
857.493	23.02
857.785	11.16
858.077	15.77
858.369	20.44
858.661	28.13
858.953	33.7
859.245	27.92
859.537	16.49
859.829	48.12
860.12	12.93
860.412	21.96
860.703	14.49
860.995	37.15
861.286	18.67
861.578	20.06
861.869	18.85
862.16	51.16
862.452	25.21
862.743	27.86
863.034	17.59
863.325	15.97
863.616	17.29
863.907	8.79
864.198	17.59
864.488	26.14
864.779	20.46
865.07	26.38
865.36	28.87
865.651	25.9
865.941	15.44
866.232	39.25
866.522	32.86
866.813	34.04
867.103	11.22
867.393	19.07
867.683	30.64
867.973	15.96
868.263	24.95
868.553	38.99
868.843	8.14
869.133	42.65
869.423	26.63
869.713	17.95
870.002	33.02
870.292	-0.15
870.582	33.98
870.871	34.24
871.161	16.37
871.45	33.51
871.739	28.97
872.029	-8.64
872.318	-0.77
872.607	20.99
872.896	-9.04
873.185	25.73
873.474	23.44
873.763	13.7
874.052	53.17
874.341	35.09
874.63	48.83
874.918	10.15
875.207	46.58
875.496	29.86
875.784	34.97
876.073	18.63
876.361	-3.17
876.649	5.56
876.938	44.47
877.226	34.09
877.514	38.87
877.802	31.16
878.09	30.26
878.378	35.41
878.666	14.88
878.954	11.03
879.242	24.29
879.53	47.54
879.817	13.82
880.105	13.76
880.392	43.21
880.68	42.33
880.967	13.44
881.255	37.83
881.542	29.91
881.83	11.83
882.117	30.77
882.404	24.1
882.691	31.43
882.978	24.4
883.265	40.98
883.552	30.15
883.839	35.96
884.126	25.08
884.413	31.28
884.699	25.89
884.986	38.38
885.273	29.89
885.559	29.89
885.846	29.89
