Data from 815643_chest_Reflection__8__12.txt Node

Date: Fri Sep 16 14:13:15 CDT 2022
User: ToomeyLab
Spectrometer: FLMS14357
Trigger mode: 0
Integration Time (sec): 1.000000E-2
Scans to average: 100
Electric dark correction enabled: true
Nonlinearity correction enabled: false
Boxcar width: 0
XAxis mode: Wavelengths
Number of Pixels in Spectrum: 2048
>>>>>Begin Spectral Data<<<<<
189.047	188.95
189.435	188.95
189.823	188.95
190.211	-9.13
190.599	-5.05
190.987	255.21
191.375	58.05
191.763	-397.15
192.151	732.58
192.538	1131.06
192.926	160.58
193.314	-19.17
193.702	-340.84
194.089	63.8
194.477	119.64
194.864	-38.59
195.252	-133.5
195.639	503.52
196.027	-701.78
196.414	31.28
196.801	-59.08
197.189	87.01
197.576	-96.4
197.963	-29.27
198.351	-11.71
198.738	5.44
199.125	-39.85
199.512	2.6
199.899	-6.54
200.286	16.68
200.673	-20.88
201.06	-17.13
201.447	11.49
201.833	21.89
202.22	-79.87
202.607	19.26
202.994	16.34
203.38	-52.94
203.767	1.5
204.154	-6.73
204.54	13.11
204.927	2.59
205.313	-37.21
205.699	-20.59
206.086	-1.77
206.472	-0.91
206.858	4.83
207.245	9
207.631	20.43
208.017	-4.24
208.403	26.53
208.789	13.93
209.175	-5.98
209.561	-4.54
209.947	-26.64
210.333	-17.31
210.719	-8.72
211.105	20.02
211.491	13.4
211.876	-41.66
212.262	-21.71
212.648	-8.34
213.034	12.88
213.419	5.47
213.805	9.13
214.19	-22.54
214.576	2.67
214.961	21.99
215.346	1.61
215.732	8.53
216.117	14.11
216.502	-5.78
216.888	-10.74
217.273	0.89
217.658	-3.43
218.043	18.41
218.428	7.14
218.813	10.13
219.198	-16.65
219.583	20.55
219.968	-20.67
220.353	-6.15
220.738	-8.87
221.122	8.43
221.507	3.23
221.892	5.02
222.276	4.29
222.661	10.14
223.046	6.07
223.43	1.27
223.815	2.61
224.199	7
224.583	-1.98
224.968	3.8
225.352	-0.59
225.736	3.83
226.121	1.52
226.505	3.12
226.889	10.57
227.273	9.62
227.657	6.44
228.041	1.18
228.425	5.93
228.809	5.02
229.193	3.77
229.577	6.33
229.961	5.33
230.344	4.97
230.728	4.61
231.112	4.14
231.495	4.7
231.879	5.06
232.263	2.49
232.646	3.85
233.03	5.02
233.413	5.07
233.797	6.95
234.18	4.19
234.563	3.56
234.946	5.91
235.33	3.17
235.713	3.84
236.096	3.26
236.479	4.99
236.862	4.25
237.245	4.65
237.628	4.12
238.011	5.55
238.394	5.95
238.777	4.12
239.16	3.1
239.543	4.29
239.925	4.32
240.308	7.23
240.691	4.67
241.073	5.26
241.456	5.13
241.838	4.32
242.221	3.81
242.603	5.29
242.986	4.22
243.368	4.92
243.75	4.94
244.133	4.73
244.515	4.4
244.897	4.95
245.279	4.77
245.661	4.56
246.043	4.63
246.425	5.25
246.807	4.59
247.189	4.8
247.571	4.42
247.953	5.07
248.335	5.01
248.717	4.58
249.098	4.68
249.48	5.07
249.862	4.71
250.243	5.01
250.625	4.47
251.006	5.2
251.388	4.46
251.769	5.26
252.151	4.23
252.532	4.07
252.913	4.34
253.295	4.84
253.676	4.94
254.057	4.24
254.438	4.22
254.819	5.47
255.2	4.24
255.581	4.38
255.962	4.6
256.343	4.4
256.724	4.12
257.105	4.31
257.486	4.24
257.867	3.95
258.247	4.22
258.628	4.93
259.009	4.69
259.389	4.82
259.77	4.09
260.15	4.78
260.531	4.53
260.911	4.07
261.292	4.64
261.672	4.4
262.052	4.48
262.432	4.05
262.813	4.64
263.193	4.45
263.573	4.36
263.953	4.51
264.333	4.53
264.713	4.69
265.093	3.91
265.473	3.88
265.853	4.03
266.233	4.05
266.612	5.73
266.992	4.11
267.372	4.79
267.752	4.15
268.131	4.25
268.511	4.26
268.89	4.18
269.27	4.31
269.649	4.28
270.029	4.37
270.408	4.27
270.787	4.45
271.167	3.82
271.546	4.56
271.925	4.2
272.304	4.22
272.683	4.23
273.062	4.04
273.441	4.16
273.82	4.02
274.199	4.35
274.578	4.62
274.957	3.98
275.336	4.74
275.715	3.69
276.093	4.3
276.472	4.44
276.851	4.82
277.229	3.96
277.608	3.77
277.986	3.88
278.365	4.07
278.743	4.46
279.122	4.17
279.5	3.41
279.878	4.35
280.257	4.38
280.635	4.17
281.013	4.48
281.391	4.47
281.769	4.05
282.147	3.8
282.525	4.3
282.903	4.33
283.281	4.37
283.659	4.06
284.037	4.38
284.415	4.06
284.792	4.47
285.17	4.48
285.548	4.63
285.925	4.42
286.303	4.02
286.68	4.05
287.058	4.36
287.435	4.15
287.813	4.17
288.19	4.11
288.567	4.33
288.945	4.55
289.322	4.17
289.699	3.94
290.076	4
290.453	4.55
290.83	4.46
291.207	4.28
291.584	3.63
291.961	4.04
292.338	3.84
292.715	3.84
293.092	4.02
293.469	4.01
293.845	3.96
294.222	3.86
294.599	4.69
294.975	3.85
295.352	3.9
295.728	4.19
296.105	3.83
296.481	4.04
296.858	4.47
297.234	4.11
297.61	3.89
297.986	3.57
298.363	4.32
298.739	4.06
299.115	4.43
299.491	4.3
299.867	3.98
300.243	4.08
300.619	4.67
300.995	4.15
301.371	4.14
301.746	3.83
302.122	4.2
302.498	4.21
302.874	3.93
303.249	4.22
303.625	3.98
304	4.14
304.376	4.11
304.751	4.42
305.127	4.54
305.502	3.85
305.878	3.81
306.253	4.04
306.628	4.12
307.003	4.04
307.378	4.47
307.754	3.91
308.129	3.8
308.504	4.36
308.879	3.96
309.254	4.44
309.629	4.39
310.003	4.02
310.378	4.01
310.753	3.99
311.128	3.99
311.502	4.18
311.877	4.11
312.252	3.68
312.626	4.16
313.001	4.03
313.375	4.02
313.75	4.08
314.124	4.35
314.498	4.17
314.873	4.05
315.247	4.25
315.621	4.76
315.995	3.7
316.369	4.31
316.743	4.65
317.117	3.81
317.491	4.03
317.865	4.33
318.239	4.26
318.613	4.03
318.987	4.19
319.361	4.41
319.734	4.11
320.108	3.68
320.482	4.18
320.855	4.01
321.229	4.72
321.602	4.35
321.976	4.42
322.349	4.27
322.723	3.86
323.096	4.08
323.469	3.85
323.843	4.12
324.216	4.35
324.589	3.86
324.962	4.06
325.335	3.94
325.708	4.01
326.081	4.12
326.454	3.57
326.827	4.2
327.2	3.75
327.573	3.99
327.945	4.06
328.318	4.07
328.691	4.17
329.063	4.13
329.436	4.06
329.809	4.48
330.181	4.19
330.553	4.02
330.926	3.77
331.298	4.46
331.671	4.76
332.043	4.33
332.415	4.42
332.787	3.91
333.159	4.33
333.532	4.23
333.904	4.22
334.276	4.43
334.648	4.34
335.02	4.53
335.391	3.7
335.763	4.21
336.135	4.16
336.507	3.71
336.879	4.14
337.25	4.25
337.622	3.91
337.993	3.62
338.365	4.04
338.736	4.31
339.108	4.32
339.479	4.6
339.851	4.83
340.222	4.04
340.593	3.8
340.964	4.16
341.336	4.36
341.707	4.13
342.078	4.18
342.449	4.29
342.82	4.44
343.191	4.35
343.562	4.32
343.933	3.99
344.303	4.19
344.674	3.68
345.045	4.44
345.416	4.54
345.786	4.15
346.157	4.19
346.527	4.05
346.898	3.98
347.268	4.32
347.639	4.09
348.009	4
348.38	4.25
348.75	4.37
349.12	4.13
349.49	4.34
349.861	4.04
350.231	3.75
350.601	4.58
350.971	3.77
351.341	4.31
351.711	4.06
352.081	4.32
352.45	4.13
352.82	4.33
353.19	4.13
353.56	4.26
353.929	3.93
354.299	4.33
354.669	4.15
355.038	3.92
355.408	4.22
355.777	4.12
356.147	4.35
356.516	4.19
356.885	3.96
357.254	3.93
357.624	4.06
357.993	4.54
358.362	3.96
358.731	4.21
359.1	4.33
359.469	4.15
359.838	4.12
360.207	4.21
360.576	4.19
360.945	4.3
361.314	4.11
361.682	4.22
362.051	4.48
362.42	4.19
362.788	4.38
363.157	4.29
363.525	4.02
363.894	4.22
364.262	4.45
364.631	4.16
364.999	4.41
365.367	3.96
365.735	4.33
366.104	4.35
366.472	4.4
366.84	4.28
367.208	4.18
367.576	4.23
367.944	4.34
368.312	4.42
368.68	4.41
369.048	4.18
369.416	4.53
369.783	4.43
370.151	4.44
370.519	4.73
370.886	3.98
371.254	4.39
371.621	4.16
371.989	4.02
372.356	4.42
372.724	4.71
373.091	4.2
373.458	4.61
373.826	4.22
374.193	4.37
374.56	4.3
374.927	4.56
375.294	4.26
375.661	3.97
376.028	4.43
376.395	4.31
376.762	4.35
377.129	3.94
377.496	4.14
377.863	4.32
378.229	4.41
378.596	4.31
378.963	4.27
379.329	4.58
379.696	4.52
380.062	4.42
380.429	4.76
380.795	4.21
381.161	4.44
381.528	4.72
381.894	4.27
382.26	4.45
382.626	4.36
382.993	4.57
383.359	4.23
383.725	4.22
384.091	4.64
384.457	4.34
384.823	4.4
385.188	4.17
385.554	4.31
385.92	4.73
386.286	4.38
386.651	4.6
387.017	4.39
387.383	4.42
387.748	4.5
388.114	4.39
388.479	4.27
388.845	4.69
389.21	4.61
389.575	4.61
389.94	4.32
390.306	4.63
390.671	4.55
391.036	4.59
391.401	4.2
391.766	4.44
392.131	4.41
392.496	4.75
392.861	4.59
393.226	4.29
393.591	4.51
393.956	4.49
394.32	4.41
394.685	4.55
395.05	4.69
395.414	4.45
395.779	4.52
396.143	4.47
396.508	4.58
396.872	4.33
397.236	4.43
397.601	4.67
397.965	4.58
398.329	4.6
398.694	4.53
399.058	4.57
399.422	4.48
399.786	4.59
400.15	4.5
400.514	4.5
400.878	4.68
401.242	4.55
401.605	4.7
401.969	4.73
402.333	4.55
402.697	4.61
403.06	4.43
403.424	4.76
403.787	4.46
404.151	4.74
404.514	4.45
404.878	4.64
405.241	4.54
405.604	4.64
405.968	4.57
406.331	4.71
406.694	4.55
407.057	4.52
407.42	4.77
407.783	4.64
408.146	4.56
408.509	4.75
408.872	4.56
409.235	4.88
409.598	4.63
409.961	4.51
410.323	4.69
410.686	4.76
411.049	4.59
411.411	4.65
411.774	4.75
412.136	4.63
412.499	4.81
412.861	4.66
413.223	4.54
413.586	4.65
413.948	4.6
414.31	4.66
414.672	4.47
415.035	4.6
415.397	4.84
415.759	4.72
416.121	4.63
416.483	4.6
416.845	4.88
417.206	4.66
417.568	4.37
417.93	4.61
418.292	4.66
418.653	4.52
419.015	4.54
419.377	4.64
419.738	4.72
420.1	4.69
420.461	4.58
420.822	4.5
421.184	4.58
421.545	4.69
421.906	4.63
422.267	4.67
422.629	4.51
422.99	4.55
423.351	4.62
423.712	4.51
424.073	4.64
424.434	4.63
424.795	4.55
425.155	4.51
425.516	4.48
425.877	4.57
426.238	4.58
426.598	4.56
426.959	4.5
427.32	4.53
427.68	4.75
428.041	4.67
428.401	4.7
428.761	4.89
429.122	4.86
429.482	4.78
429.842	4.77
430.202	4.74
430.563	4.9
430.923	4.81
431.283	4.79
431.643	4.68
432.003	4.78
432.363	4.87
432.722	4.65
433.082	4.95
433.442	4.84
433.802	4.89
434.161	4.71
434.521	4.69
434.881	4.75
435.24	4.67
435.6	4.69
435.959	4.74
436.319	4.83
436.678	4.72
437.037	4.81
437.396	4.74
437.756	4.75
438.115	4.84
438.474	4.69
438.833	4.82
439.192	4.86
439.551	4.62
439.91	4.65
440.269	4.84
440.628	4.84
440.987	4.78
441.345	4.72
441.704	4.72
442.063	4.79
442.421	4.77
442.78	4.76
443.138	4.8
443.497	4.86
443.855	4.92
444.214	4.86
444.572	4.77
444.93	4.95
445.288	4.81
445.647	4.85
446.005	4.79
446.363	4.84
446.721	4.69
447.079	4.72
447.437	4.71
447.795	4.81
448.153	4.67
448.51	4.67
448.868	4.74
449.226	4.79
449.584	4.76
449.941	4.85
450.299	4.87
450.656	4.87
451.014	4.95
451.371	4.79
451.729	4.82
452.086	4.88
452.443	4.86
452.801	4.92
453.158	4.95
453.515	4.96
453.872	4.97
454.229	4.88
454.586	4.82
454.943	4.95
455.3	4.91
455.657	5.13
456.014	4.9
456.371	4.89
456.727	4.88
457.084	5.01
457.441	4.83
457.797	4.85
458.154	5.02
458.51	4.93
458.867	4.97
459.223	4.82
459.58	4.88
459.936	5.02
460.292	4.89
460.648	4.85
461.005	4.96
461.361	4.81
461.717	4.79
462.073	4.75
462.429	4.9
462.785	4.94
463.141	5.03
463.496	5.01
463.852	5.04
464.208	5.02
464.564	4.94
464.919	5
465.275	4.87
465.631	5.02
465.986	5.01
466.342	4.93
466.697	5.06
467.052	5.04
467.408	4.86
467.763	5.09
468.118	5.02
468.473	5.04
468.829	4.92
469.184	4.94
469.539	5.01
469.894	4.95
470.249	4.87
470.603	5.08
470.958	4.98
471.313	5.1
471.668	5.05
472.023	5.21
472.377	5.05
472.732	5.17
473.086	5.12
473.441	5.12
473.795	4.97
474.15	4.99
474.504	5.17
474.859	5.05
475.213	5
475.567	5.08
475.921	5.19
476.275	5.05
476.63	5.14
476.984	5.03
477.338	5.1
477.692	5.19
478.045	5.09
478.399	5.16
478.753	5.09
479.107	5.08
479.461	5.21
479.814	5.12
480.168	5.15
480.521	5.12
480.875	5.12
481.228	5.11
481.582	5.16
481.935	5.21
482.289	5.09
482.642	4.98
482.995	5.05
483.348	5.05
483.701	5.1
484.055	5.11
484.408	5.07
484.761	4.98
485.114	4.89
485.466	4.78
485.819	4.76
486.172	4.74
486.525	4.82
486.878	4.89
487.23	4.95
487.583	5.02
487.936	5.05
488.288	5
488.641	4.97
488.993	4.86
489.345	4.91
489.698	4.92
490.05	4.91
490.402	5
490.754	4.97
491.107	5.09
491.459	5.14
491.811	5.23
492.163	5.1
492.515	5.09
492.866	4.98
493.218	5
493.57	4.93
493.922	4.9
494.274	5.01
494.625	5.13
494.977	5.13
495.328	5.07
495.68	5.22
496.031	5.2
496.383	5.27
496.734	5.33
497.086	5.33
497.437	5.27
497.788	5.25
498.139	5.2
498.49	5.33
498.842	5.21
499.193	5.27
499.544	5.3
499.894	5.27
500.245	5.29
500.596	5.13
500.947	5.39
501.298	5.25
501.648	5.31
501.999	5.29
502.35	5.36
502.7	5.32
503.051	5.33
503.401	5.35
503.752	5.29
504.102	5.3
504.452	5.39
504.803	5.27
505.153	5.46
505.503	5.42
505.853	5.46
506.203	5.35
506.553	5.32
506.903	5.26
507.253	5.37
507.603	5.32
507.953	5.41
508.303	5.47
508.652	5.44
509.002	5.39
509.352	5.3
509.701	5.38
510.051	5.33
510.4	5.27
510.75	5.39
511.099	5.4
511.449	5.28
511.798	5.4
512.147	5.44
512.496	5.44
512.846	5.45
513.195	5.43
513.544	5.43
513.893	5.48
514.242	5.5
514.591	5.46
514.939	5.54
515.288	5.46
515.637	5.54
515.986	5.48
516.334	5.51
516.683	5.56
517.032	5.53
517.38	5.67
517.729	5.6
518.077	5.67
518.426	5.63
518.774	5.46
519.122	5.57
519.47	5.6
519.819	5.5
520.167	5.44
520.515	5.44
520.863	5.45
521.211	5.49
521.559	5.45
521.907	5.43
522.255	5.7
522.602	5.6
522.95	5.57
523.298	5.62
523.645	5.56
523.993	5.7
524.341	5.72
524.688	5.62
525.036	5.81
525.383	5.63
525.73	5.68
526.078	5.71
526.425	5.63
526.772	5.67
527.119	5.67
527.466	5.57
527.814	5.65
528.161	5.64
528.508	5.65
528.854	5.62
529.201	5.63
529.548	5.54
529.895	5.5
530.242	5.42
530.588	5.39
530.935	5.42
531.282	5.48
531.628	5.53
531.975	5.6
532.321	5.6
532.667	5.69
533.014	5.69
533.36	5.67
533.706	5.83
534.052	5.72
534.399	5.64
534.745	5.61
535.091	5.55
535.437	5.62
535.783	5.68
536.129	5.69
536.474	5.75
536.82	5.88
537.166	5.87
537.512	5.88
537.857	5.8
538.203	5.88
538.549	5.84
538.894	5.81
539.239	5.8
539.585	5.83
539.93	5.91
540.276	5.97
540.621	6.16
540.966	6.01
541.311	6.06
541.656	6.07
542.001	6.03
542.346	5.9
542.691	5.82
543.036	5.75
543.381	5.77
543.726	5.81
544.071	5.82
544.415	5.84
544.76	6.01
545.105	5.89
545.449	5.97
545.794	6.03
546.138	6.22
546.483	6.11
546.827	6.11
547.171	6.16
547.516	6.07
547.86	6.17
548.204	6.09
548.548	6.2
548.892	6.11
549.236	6.14
549.58	6.24
549.924	6.21
550.268	6.27
550.612	6.29
550.956	6.21
551.3	6.42
551.643	6.27
551.987	6.44
552.33	6.43
552.674	6.35
553.017	6.56
553.361	6.35
553.704	6.55
554.048	6.48
554.391	6.36
554.734	6.41
555.077	6.52
555.42	6.61
555.764	6.54
556.107	6.6
556.45	6.59
556.793	6.7
557.135	6.73
557.478	6.56
557.821	6.61
558.164	6.75
558.507	6.69
558.849	6.61
559.192	6.67
559.534	6.42
559.877	6.6
560.219	6.78
560.562	6.78
560.904	6.78
561.246	6.65
561.589	6.71
561.931	6.85
562.273	6.81
562.615	6.77
562.957	6.72
563.299	6.8
563.641	6.91
563.983	6.93
564.325	6.67
564.667	6.8
565.008	6.9
565.35	6.75
565.692	6.97
566.033	6.98
566.375	7.13
566.716	6.97
567.058	7
567.399	7.06
567.741	6.98
568.082	6.95
568.423	6.99
568.764	7.07
569.105	7.14
569.447	7.05
569.788	7.16
570.129	7.25
570.47	7.31
570.811	7.24
571.151	7.33
571.492	7.26
571.833	7.22
572.174	7.09
572.514	7.35
572.855	7.27
573.195	7.2
573.536	7.23
573.876	7.16
574.217	7.3
574.557	7.36
574.898	7.28
575.238	7.33
575.578	7.41
575.918	7.36
576.258	7.4
576.598	7.52
576.938	7.48
577.278	7.59
577.618	7.45
577.958	7.44
578.298	7.6
578.638	7.66
578.977	7.72
579.317	7.44
579.657	7.58
579.996	7.67
580.336	7.63
580.675	7.71
581.014	7.75
581.354	7.73
581.693	7.72
582.032	7.83
582.372	7.64
582.711	7.89
583.05	7.72
583.389	7.83
583.728	8.02
584.067	8.03
584.406	8.06
584.745	7.92
585.083	8.02
585.422	7.87
585.761	7.83
586.1	7.99
586.438	8.3
586.777	8.17
587.115	8.24
587.454	8.05
587.792	8.26
588.13	8.07
588.469	8.13
588.807	8.15
589.145	8.29
589.483	8.36
589.821	8.33
590.159	8.27
590.497	8.36
590.835	8.16
591.173	8.36
591.511	8.45
591.849	8.43
592.187	8.52
592.524	8.43
592.862	8.5
593.2	8.44
593.537	8.75
593.875	8.63
594.212	8.37
594.55	8.58
594.887	8.71
595.224	8.86
595.561	8.58
595.899	8.49
596.236	8.88
596.573	8.65
596.91	8.87
597.247	8.83
597.584	8.69
597.921	8.68
598.258	8.86
598.594	8.81
598.931	8.8
599.268	8.81
599.604	8.77
599.941	8.61
600.277	8.94
600.614	8.94
600.95	9
601.287	8.99
601.623	9.34
601.959	9.02
602.296	9.23
602.632	9.04
602.968	9.06
603.304	9.42
603.64	9.25
603.976	9.06
604.312	9.42
604.648	9.27
604.984	9.13
605.319	9.37
605.655	9.06
605.991	9.24
606.326	9.28
606.662	9.13
606.998	9.45
607.333	9.37
607.668	9.31
608.004	9.56
608.339	9.34
608.674	9.37
609.01	9.54
609.345	9.63
609.68	10.06
610.015	9.81
610.35	9.82
610.685	9.84
611.02	9.67
611.355	9.63
611.689	9.7
612.024	9.76
612.359	9.54
612.694	9.88
613.028	9.95
613.363	10.22
613.697	9.95
614.032	9.96
614.366	9.96
614.7	9.98
615.035	9.86
615.369	10.46
615.703	10.25
616.037	10.17
616.371	10.28
616.705	10.27
617.039	10.14
617.373	10.13
617.707	10.2
618.041	10.09
618.375	10.36
618.709	10.39
619.042	10.35
619.376	10.24
619.71	10.62
620.043	10.77
620.377	10.55
620.71	10.26
621.043	10.5
621.377	10.72
621.71	10.47
622.043	10.69
622.376	10.78
622.709	10.94
623.043	10.76
623.376	10.62
623.709	10.92
624.041	10.67
624.374	10.83
624.707	10.96
625.04	10.91
625.373	10.97
625.705	10.8
626.038	11.01
626.37	10.84
626.703	10.98
627.035	11.24
627.368	11.19
627.7	11.05
628.032	10.91
628.365	11.13
628.697	11.42
629.029	10.86
629.361	11.18
629.693	11.17
630.025	11.12
630.357	11.27
630.689	11.37
631.021	11.44
631.353	11.14
631.684	11.42
632.016	11.25
632.348	11.61
632.679	11.63
633.011	11.4
633.342	11.53
633.674	11.68
634.005	11.72
634.336	11.97
634.668	12.07
634.999	11.46
635.33	11.64
635.661	11.98
635.992	11.76
636.323	11.85
636.654	12.14
636.985	11.67
637.316	11.7
637.647	11.83
637.977	11.86
638.308	11.84
638.639	11.8
638.969	12.22
639.3	12.31
639.63	12.14
639.961	11.64
640.291	12.35
640.622	12.37
640.952	12.43
641.282	12.51
641.612	12.33
641.943	12.3
642.273	12.35
642.603	12.36
642.933	12.35
643.263	12.3
643.592	12.78
643.922	12.5
644.252	12.52
644.582	12.39
644.911	12.84
645.241	12.6
645.571	12.39
645.9	12.73
646.23	12.72
646.559	12.81
646.888	12.63
647.218	13.13
647.547	12.86
647.876	12.94
648.205	13.12
648.534	13.04
648.863	13.09
649.192	12.77
649.521	13.5
649.85	12.99
650.179	13.05
650.508	13.05
650.837	13.13
651.165	13.22
651.494	13.18
651.822	13.37
652.151	13.29
652.479	13.16
652.808	13.1
653.136	13.37
653.465	13.12
653.793	13.48
654.121	13.42
654.449	13.48
654.777	13.33
655.105	13.14
655.433	13.55
655.761	13.4
656.089	13.35
656.417	13.71
656.745	13.24
657.073	13.49
657.4	13.9
657.728	14.08
658.056	13.84
658.383	13.86
658.711	13.45
659.038	13.94
659.365	13.97
659.693	14.15
660.02	13.51
660.347	13.82
660.674	13.76
661.001	14.1
661.329	14.05
661.656	13.86
661.982	14.21
662.309	14.39
662.636	14.06
662.963	14.23
663.29	14.18
663.616	14.24
663.943	14.14
664.27	14.34
664.596	14.13
664.923	14.23
665.249	14.52
665.576	14.29
665.902	15.05
666.228	14.12
666.554	14.39
666.881	14.58
667.207	14.4
667.533	14.71
667.859	14.97
668.185	14.8
668.511	14.63
668.837	14.76
669.162	14.53
669.488	14.65
669.814	14.88
670.139	14.57
670.465	14.85
670.791	14.93
671.116	15.23
671.442	14.91
671.767	14.52
672.092	15.06
672.418	15.08
672.743	15.27
673.068	14.65
673.393	14.87
673.718	14.93
674.043	15.47
674.368	15.4
674.693	15.5
675.018	15.86
675.343	15.4
675.667	15.42
675.992	15.35
676.317	15.11
676.641	15.67
676.966	15.55
677.29	15.59
677.615	15.28
677.939	15.66
678.264	15.49
678.588	15.52
678.912	15.31
679.236	15.7
679.56	15.37
679.885	15.66
680.209	15.84
680.532	16.04
680.856	16.05
681.18	15.73
681.504	16.05
681.828	15.64
682.152	15.63
682.475	15.92
682.799	15.9
683.122	16.1
683.446	15.74
683.769	16.14
684.093	15.97
684.416	16.35
684.739	17.04
685.062	16.81
685.386	16.55
685.709	15.98
686.032	15.55
686.355	16.17
686.678	16.5
687.001	15.92
687.324	16.35
687.646	16.23
687.969	16.03
688.292	16.29
688.614	16.11
688.937	16.66
689.26	17.01
689.582	16.32
689.904	16.66
690.227	16.94
690.549	16.56
690.871	16.56
691.194	16.37
691.516	16.77
691.838	17.11
692.16	16.86
692.482	16.92
692.804	16.97
693.126	17.04
693.448	17.08
693.769	16.62
694.091	16.47
694.413	17.17
694.735	16.68
695.056	16.74
695.378	16.46
695.699	17.47
696.021	17.5
696.342	17.32
696.663	16.8
696.984	17.63
697.306	17.17
697.627	17.78
697.948	17.84
698.269	17.31
698.59	17.67
698.911	17.39
699.232	17.79
699.553	18.29
699.873	17.49
700.194	17.23
700.515	17.36
700.835	17.17
701.156	17.57
701.477	17.78
701.797	17.68
702.117	18.11
702.438	18.43
702.758	18.43
703.078	18.31
703.398	18.19
703.719	17.4
704.039	18.77
704.359	17.74
704.679	17.54
704.999	16.96
705.319	17.41
705.638	18.12
705.958	18.38
706.278	17.79
706.597	18.8
706.917	18.46
707.237	18.72
707.556	18.86
707.876	19.2
708.195	18.78
708.514	18.17
708.834	18.96
709.153	18.49
709.472	18.32
709.791	18.96
710.11	18.23
710.429	19.31
710.748	19.96
711.067	18.28
711.386	18.48
711.705	18.15
712.023	18.18
712.342	18.82
712.661	18.26
712.979	18.65
713.298	19.04
713.616	18.79
713.935	18.94
714.253	18.77
714.572	19.13
714.89	19.08
715.208	17.94
715.526	19.12
715.844	18.83
716.162	18.22
716.48	18.48
716.798	19.38
717.116	19.65
717.434	19.15
717.752	20.5
718.069	18.87
718.387	20.12
718.705	20.14
719.022	19.98
719.34	20.29
719.657	19.42
719.975	19.67
720.292	18.71
720.609	21.3
720.927	19.6
721.244	19.97
721.561	19.48
721.878	20.75
722.195	19.34
722.512	19.21
722.829	20.16
723.146	19.57
723.463	19.75
723.779	19.42
724.096	18.14
724.413	19.67
724.729	19.65
725.046	20.75
725.362	19.51
725.679	19.26
725.995	19.71
726.311	19.69
726.628	20.19
726.944	21.02
727.26	21.57
727.576	21.18
727.892	20.07
728.208	21
728.524	20.36
728.84	21.23
729.156	19.94
729.472	18.81
729.787	20.33
730.103	20.76
730.419	20.82
730.734	21.06
731.05	21.28
731.365	20.52
731.681	20.16
731.996	20.45
732.311	20.2
732.626	19.72
732.942	21.18
733.257	20.34
733.572	20.54
733.887	20.87
734.202	20.8
734.517	21.54
734.832	21.39
735.146	21.01
735.461	20.49
735.776	21.52
736.091	22.02
736.405	21.9
736.72	19.93
737.034	21.4
737.349	21.52
737.663	22.77
737.977	21.48
738.292	22.08
738.606	21.52
738.92	20.05
739.234	20.72
739.548	22.83
739.862	21.7
740.176	22.89
740.49	22.65
740.804	21.35
741.117	22.01
741.431	20.58
741.745	22.47
742.058	21.64
742.372	21.59
742.685	21.6
742.999	22.23
743.312	20.92
743.626	20.42
743.939	23.47
744.252	21.28
744.565	21.64
744.878	22.23
745.191	22.85
745.505	20.34
745.817	20.51
746.13	21.87
746.443	22.57
746.756	23.1
747.069	21.63
747.381	22.65
747.694	23.63
748.007	23.72
748.319	23.9
748.632	21.82
748.944	22.71
749.256	22.05
749.569	22.19
749.881	22.62
750.193	22.39
750.505	23.33
750.817	23.16
751.129	23.2
751.441	23.25
751.753	23.17
752.065	23.97
752.377	22.25
752.689	22.96
753	22.05
753.312	21.22
753.624	22.97
753.935	23.06
754.247	25.07
754.558	22.68
754.869	23.47
755.181	22.64
755.492	22.56
755.803	23.34
756.114	22.87
756.425	23.38
756.736	23.11
757.047	22.91
757.358	22.19
757.669	23.81
757.98	22.64
758.291	24.61
758.601	24.43
758.912	22.78
759.223	24.29
759.533	23.74
759.844	21.92
760.154	24.34
760.464	21.39
760.775	22.65
761.085	23.6
761.395	24.92
761.705	23.45
762.016	22.53
762.326	23.48
762.636	26.21
762.945	24.53
763.255	23.06
763.565	23.72
763.875	24.74
764.185	25.1
764.494	23.69
764.804	26.6
765.113	24.26
765.423	23.89
765.732	23.43
766.042	24.52
766.351	25.61
766.66	24.51
766.97	23.54
767.279	23.7
767.588	23.26
767.897	23.87
768.206	24.21
768.515	23.63
768.824	26.14
769.133	24.99
769.441	27.73
769.75	25.23
770.059	24.83
770.367	24.12
770.676	23.69
770.984	27.12
771.293	25.42
771.601	25.26
771.91	23.78
772.218	26.16
772.526	23.33
772.834	24.71
773.142	26.84
773.45	26.01
773.758	25.84
774.066	27.22
774.374	23.33
774.682	22.36
774.99	24.55
775.298	26.38
775.605	22.87
775.913	26.18
776.22	27.02
776.528	24.68
776.835	25.94
777.143	25.12
777.45	25.37
777.757	28.5
778.065	26.31
778.372	25.24
778.679	23.77
778.986	26.41
779.293	26.8
779.6	26.49
779.907	26.32
780.214	27.08
780.52	24.33
780.827	25.44
781.134	25.51
781.44	22.4
781.747	27.26
782.053	28.17
782.36	26.96
782.666	27.37
782.973	24.88
783.279	24.62
783.585	25.34
783.891	22.3
784.197	25.58
784.503	23.7
784.809	26.89
785.115	26.44
785.421	24.46
785.727	24.65
786.033	25.67
786.339	26.79
786.644	26.95
786.95	21.57
787.255	29.42
787.561	27.18
787.866	27.18
788.172	23.56
788.477	24.37
788.782	24.7
789.088	25.72
789.393	23.91
789.698	26.57
790.003	25.95
790.308	24.73
790.613	30.08
790.918	27.15
791.223	27.84
791.527	28.19
791.832	30.37
792.137	24.92
792.441	28.31
792.746	22.62
793.05	27.71
793.355	26.88
793.659	26.28
793.963	26.42
794.268	25.5
794.572	27.93
794.876	26.87
795.18	26.79
795.484	26.23
795.788	23.78
796.092	27.87
796.396	29.54
796.7	24.86
797.004	25.39
797.307	27.03
797.611	27.67
797.915	27.4
798.218	24.78
798.522	25.44
798.825	26.25
799.128	29.59
799.432	26.79
799.735	27.81
800.038	27.93
800.341	26.66
800.644	27.63
800.947	29.22
801.25	28.44
801.553	28.03
801.856	27.52
802.159	25.7
802.462	28.13
802.764	27.32
803.067	32.11
803.37	26.11
803.672	26.13
803.975	29.47
804.277	27.73
804.579	27.8
804.882	25.57
805.184	26.99
805.486	30.69
805.788	19.55
806.09	24.86
806.392	25.9
806.694	23.84
806.996	26.35
807.298	25.68
807.6	24.78
807.902	28.17
808.203	24.99
808.505	26.34
808.807	25.9
809.108	28.64
809.409	26.32
809.711	26.98
810.012	23.25
810.313	25.06
810.615	28.1
810.916	25.84
811.217	31.21
811.518	30.48
811.819	28.21
812.12	23.55
812.421	31.12
812.722	32.8
813.023	25.13
813.323	25.2
813.624	22.27
813.925	23.47
814.225	30.59
814.526	24.13
814.826	30.19
815.126	32.21
815.427	30.94
815.727	22.2
816.027	28.26
816.327	25.84
816.627	25.26
816.927	29.52
817.227	22.24
817.527	31.53
817.827	23.45
818.127	23.26
818.427	31.79
818.727	29.57
819.026	29.71
819.326	25.15
819.625	24.91
819.925	28.03
820.224	30.25
820.524	32.76
820.823	23.89
821.122	28.32
821.421	30.73
821.72	34.04
822.019	26.7
822.318	30.82
822.617	29.93
822.916	28.14
823.215	27.31
823.514	31.22
823.813	28.97
824.111	30.42
824.41	30.84
824.709	30.5
825.007	29.81
825.306	29.53
825.604	31.1
825.902	30.11
826.201	30.2
826.499	30.38
826.797	28.95
827.095	28.57
827.393	30.1
827.691	31.04
827.989	30.46
828.287	31.16
828.585	30.98
828.882	31.11
829.18	32.24
829.478	29.45
829.775	30.87
830.073	31.78
830.37	29.41
830.668	30.54
830.965	30.91
831.263	31.89
831.56	32.14
831.857	29.84
832.154	29.68
832.451	30.39
832.748	30.57
833.045	28.15
833.342	34.95
833.639	27.08
833.936	31.46
834.232	26.87
834.529	30.6
834.826	34
835.122	31.89
835.419	28.39
835.715	28.51
836.012	30.08
836.308	33.09
836.604	30.85
836.901	31.29
837.197	32.64
837.493	30.01
837.789	30.73
838.085	31.14
838.381	27.72
838.677	26.12
838.972	30.99
839.268	28.7
839.564	32.67
839.86	36.02
840.155	32.77
840.451	25.07
840.746	26.82
841.042	26.38
841.337	26.69
841.632	25.58
841.928	27.7
842.223	27.32
842.518	23.08
842.813	33.74
843.108	33.02
843.403	26.36
843.698	29.25
843.993	28.9
844.287	33.28
844.582	23.81
844.877	24.17
845.171	26.83
845.466	32.29
845.761	26.92
846.055	29.13
846.349	25.7
846.644	29.42
846.938	27.29
847.232	25.77
847.526	27.48
847.82	23.45
848.114	31.91
848.408	10.94
848.702	41.64
848.996	35.72
849.29	32.48
849.584	4.85
849.877	27.78
850.171	29.5
850.465	31.86
850.758	31.29
851.052	28.33
851.345	20.05
851.638	25.08
851.932	33.8
852.225	19.99
852.518	32.11
852.811	19.84
853.104	31.53
853.397	23.17
853.69	28.63
853.983	31.76
854.276	39.19
854.569	-0.72
854.861	21.25
855.154	30.45
855.447	28.34
855.739	42.85
856.032	30.8
856.324	29.35
856.616	16.01
856.909	40.69
857.201	25.34
857.493	39.98
857.785	29.16
858.077	20.93
858.369	6.21
858.661	40.88
858.953	20.32
859.245	14.44
859.537	22.49
859.829	49.38
860.12	18.07
860.412	21.88
860.703	23.42
860.995	28.73
861.286	14.52
861.578	36.63
861.869	18.62
862.16	36.89
862.452	36.04
862.743	33.87
863.034	41.48
863.325	35.97
863.616	31.77
863.907	-16.15
864.198	26.91
864.488	36.41
864.779	20.58
865.07	22.76
865.36	28.58
865.651	42.94
865.941	40.52
866.232	24.55
866.522	34.48
866.813	30.64
867.103	36.32
867.393	26.38
867.683	16.14
867.973	1.25
868.263	20.69
868.553	29.17
868.843	53.89
869.133	36.93
869.423	23.26
869.713	11.59
870.002	36.18
870.292	16.93
870.582	33.63
870.871	31.41
871.161	11.23
871.45	29.06
871.739	16.02
872.029	11.54
872.318	-6.52
872.607	13.54
872.896	21.75
873.185	22.95
873.474	16.31
873.763	24.7
874.052	32.28
874.341	40.89
874.63	34.21
874.918	13.72
875.207	26.53
875.496	33.92
875.784	15.28
876.073	29.3
876.361	19.12
876.649	19.84
876.938	49.59
877.226	45.65
877.514	36.44
877.802	33.51
878.09	30.39
878.378	35.09
878.666	35.34
878.954	19.66
879.242	48.52
879.53	36.15
879.817	-23.96
880.105	34.97
880.392	31.1
880.68	17.11
880.967	33.56
881.255	30.25
881.542	22.5
881.83	35.88
882.117	31.05
882.404	36.51
882.691	26.72
882.978	39.01
883.265	42.62
883.552	30.89
883.839	31.37
884.126	22.54
884.413	30.06
884.699	29.23
884.986	36.52
885.273	30.48
885.559	30.48
885.846	30.48
