Data from 815643_chest_Reflection__5__09.txt Node

Date: Fri Sep 16 14:12:30 CDT 2022
User: ToomeyLab
Spectrometer: FLMS14357
Trigger mode: 0
Integration Time (sec): 1.000000E-2
Scans to average: 100
Electric dark correction enabled: true
Nonlinearity correction enabled: false
Boxcar width: 0
XAxis mode: Wavelengths
Number of Pixels in Spectrum: 2048
>>>>>Begin Spectral Data<<<<<
189.047	177.25
189.435	177.25
189.823	177.25
190.211	49.03
190.599	106.32
190.987	283.88
191.375	173.63
191.763	-49.75
192.151	1253.87
192.538	690.53
192.926	26.82
193.314	9.45
193.702	122.78
194.089	42.9
194.477	227.34
194.864	-27.82
195.252	-476.13
195.639	1123.24
196.027	-698.62
196.414	74.92
196.801	44.58
197.189	41.91
197.576	-98.27
197.963	-214.47
198.351	8.09
198.738	62.38
199.125	-12.97
199.512	41.36
199.899	5.97
200.286	27.09
200.673	-29.62
201.06	-7.22
201.447	-51.53
201.833	11.99
202.22	-47.07
202.607	36.12
202.994	15.65
203.38	-31.93
203.767	5.51
204.154	81.39
204.54	-9.71
204.927	46.63
205.313	26.84
205.699	-5.73
206.086	-3.02
206.472	44.69
206.858	4.46
207.245	30.04
207.631	30.6
208.017	5.27
208.403	37.2
208.789	-1.79
209.175	-36.62
209.561	-7.97
209.947	-28.9
210.333	-23.58
210.719	11.9
211.105	9.81
211.491	8.94
211.876	6.64
212.262	-14.4
212.648	-1.35
213.034	14.65
213.419	-4.83
213.805	20.56
214.19	-15.57
214.576	18.51
214.961	16.71
215.346	-12.98
215.732	2.02
216.117	-7.22
216.502	9.88
216.888	-31.89
217.273	9.36
217.658	-8.61
218.043	-6.69
218.428	-2.57
218.813	3.36
219.198	-12.8
219.583	9.21
219.968	-2.26
220.353	-5.06
220.738	-18.42
221.122	4.97
221.507	-15.11
221.892	14.66
222.276	1.98
222.661	3.93
223.046	4.13
223.43	7.6
223.815	-5.77
224.199	-6.94
224.583	0.32
224.968	10.94
225.352	-1.21
225.736	-2.83
226.121	-1.17
226.505	0.37
226.889	5.93
227.273	7.64
227.657	1.02
228.041	2.12
228.425	3.14
228.809	3.01
229.193	3.89
229.577	3.15
229.961	2.59
230.344	2.97
230.728	1.76
231.112	1.37
231.495	2.24
231.879	1.07
232.263	2.02
232.646	1.16
233.03	2.07
233.413	1.06
233.797	4.13
234.18	3.77
234.563	3.07
234.946	2.38
235.33	0.5
235.713	2.08
236.096	1.82
236.479	1.46
236.862	3.44
237.245	2.4
237.628	2.53
238.011	3.06
238.394	2.67
238.777	1.59
239.16	1.81
239.543	3.43
239.925	2.14
240.308	3.18
240.691	1.77
241.073	2.33
241.456	2.73
241.838	2.24
242.221	2.05
242.603	2.71
242.986	2.44
243.368	2.57
243.75	2.43
244.133	2.54
244.515	2.29
244.897	2.7
245.279	2.83
245.661	2.45
246.043	2.51
246.425	2.62
246.807	2.26
247.189	2.34
247.571	2.32
247.953	2.69
248.335	2.79
248.717	2.29
249.098	2.43
249.48	2.83
249.862	2.21
250.243	2.46
250.625	2.5
251.006	2.42
251.388	2.24
251.769	2.46
252.151	2.81
252.532	2.99
252.913	2.33
253.295	2.3
253.676	3.19
254.057	2.24
254.438	2.26
254.819	3.1
255.2	1.3
255.581	2.56
255.962	2.86
256.343	1.85
256.724	3.09
257.105	2.43
257.486	2.78
257.867	1.73
258.247	1.57
258.628	2.41
259.009	2.16
259.389	3.08
259.77	1.5
260.15	2.43
260.531	2.8
260.911	1.9
261.292	2.31
261.672	2.4
262.052	2.52
262.432	2.28
262.813	2.95
263.193	2.6
263.573	2.28
263.953	2.3
264.333	2.14
264.713	2.51
265.093	2.08
265.473	2.15
265.853	2.54
266.233	2.45
266.612	3.09
266.992	2.11
267.372	1.96
267.752	2.25
268.131	1.93
268.511	2.09
268.89	2.21
269.27	2.48
269.649	2.22
270.029	2.23
270.408	2.67
270.787	2.32
271.167	2.31
271.546	2.73
271.925	2.15
272.304	2.09
272.683	2.33
273.062	2
273.441	2.43
273.82	2.04
274.199	2.27
274.578	2.45
274.957	2.41
275.336	2.15
275.715	2.22
276.093	2.55
276.472	2.65
276.851	2.42
277.229	2.23
277.608	2.18
277.986	2.3
278.365	2.37
278.743	2.89
279.122	1.58
279.5	2.31
279.878	2.58
280.257	2.03
280.635	1.76
281.013	2.28
281.391	2.22
281.769	1.97
282.147	2.11
282.525	2.05
282.903	2.39
283.281	2.39
283.659	2.27
284.037	2.68
284.415	1.87
284.792	2.26
285.17	2.25
285.548	2.31
285.925	2.68
286.303	2.22
286.68	2.31
287.058	2.5
287.435	2.22
287.813	2.45
288.19	2.46
288.567	2.61
288.945	2.39
289.322	2.36
289.699	2.11
290.076	2.35
290.453	2.51
290.83	2.47
291.207	2.09
291.584	2.09
291.961	2.3
292.338	2.24
292.715	2.29
293.092	2.31
293.469	2.38
293.845	2.84
294.222	2.26
294.599	2.14
294.975	2.36
295.352	2.6
295.728	2.64
296.105	2.32
296.481	2.14
296.858	2.51
297.234	2.19
297.61	2.2
297.986	2.05
298.363	2.6
298.739	2.55
299.115	2.63
299.491	2.49
299.867	2.38
300.243	2.45
300.619	2.87
300.995	2.35
301.371	2.34
301.746	2.68
302.122	2.11
302.498	2.6
302.874	2.18
303.249	2.37
303.625	2.5
304	2.59
304.376	2.22
304.751	2.77
305.127	3.01
305.502	2.57
305.878	1.77
306.253	2.52
306.628	2.32
307.003	3.06
307.378	2.6
307.754	2.41
308.129	2.53
308.504	3
308.879	2.65
309.254	2.53
309.629	2.7
310.003	2.7
310.378	2.56
310.753	2.73
311.128	1.88
311.502	2.51
311.877	2.52
312.252	2.08
312.626	2.96
313.001	2.82
313.375	2.64
313.75	2.53
314.124	2.88
314.498	2.55
314.873	2.5
315.247	3
315.621	2.68
315.995	2.11
316.369	3.09
316.743	2.74
317.117	2.32
317.491	2.88
317.865	2.63
318.239	2.56
318.613	2.87
318.987	2.73
319.361	2.55
319.734	2.81
320.108	2.94
320.482	2.79
320.855	2.68
321.229	2.64
321.602	2.04
321.976	2.48
322.349	2.88
322.723	2.83
323.096	2.54
323.469	2.92
323.843	3.33
324.216	2.61
324.589	2.6
324.962	2.64
325.335	2.77
325.708	2.73
326.081	2.67
326.454	2.31
326.827	2.88
327.2	2.55
327.573	2.54
327.945	2.61
328.318	3.26
328.691	2.82
329.063	2.84
329.436	2.83
329.809	2.89
330.181	3
330.553	2.79
330.926	2.53
331.298	3.3
331.671	3.17
332.043	2.47
332.415	3.02
332.787	2.85
333.159	2.75
333.532	2.98
333.904	2.97
334.276	2.83
334.648	2.94
335.02	2.97
335.391	2.43
335.763	3.02
336.135	2.87
336.507	2.43
336.879	2.98
337.25	2.48
337.622	2.43
337.993	2.3
338.365	2.74
338.736	2.98
339.108	2.64
339.479	2.94
339.851	3.23
340.222	2.82
340.593	2.34
340.964	2.75
341.336	3.04
341.707	2.77
342.078	2.55
342.449	2.61
342.82	2.52
343.191	2.49
343.562	3.04
343.933	3.01
344.303	2.96
344.674	2.68
345.045	2.89
345.416	2.67
345.786	2.96
346.157	2.41
346.527	2.77
346.898	2.68
347.268	3.15
347.639	2.64
348.009	2.68
348.38	2.68
348.75	2.67
349.12	3.03
349.49	2.89
349.861	2.58
350.231	2.73
350.601	3.01
350.971	2.57
351.341	3.22
351.711	2.81
352.081	3.2
352.45	3.07
352.82	3.09
353.19	2.89
353.56	2.96
353.929	2.66
354.299	2.87
354.669	2.94
355.038	2.7
355.408	2.94
355.777	3
356.147	3.24
356.516	2.65
356.885	2.64
357.254	2.91
357.624	2.9
357.993	3.21
358.362	2.83
358.731	2.9
359.1	2.99
359.469	2.96
359.838	2.96
360.207	3.1
360.576	2.99
360.945	3.11
361.314	3
361.682	2.93
362.051	2.99
362.42	2.97
362.788	2.93
363.157	3.03
363.525	2.63
363.894	2.94
364.262	3.14
364.631	2.81
364.999	3.25
365.367	2.73
365.735	3.03
366.104	3.11
366.472	3.03
366.84	2.93
367.208	2.91
367.576	3
367.944	3.02
368.312	2.91
368.68	3.19
369.048	2.69
369.416	2.87
369.783	3.14
370.151	3.33
370.519	3.06
370.886	2.98
371.254	2.92
371.621	3.03
371.989	2.63
372.356	3.22
372.724	2.81
373.091	2.8
373.458	2.83
373.826	2.85
374.193	3.04
374.56	2.82
374.927	3.3
375.294	3.12
375.661	2.86
376.028	2.69
376.395	2.96
376.762	3.12
377.129	2.88
377.496	2.88
377.863	3.19
378.229	3.22
378.596	3.01
378.963	2.99
379.329	3.18
379.696	3.12
380.062	3.17
380.429	3.18
380.795	3.07
381.161	3.31
381.528	3.48
381.894	3.12
382.26	3.06
382.626	3.11
382.993	3.31
383.359	2.99
383.725	2.85
384.091	3.17
384.457	3.11
384.823	3.02
385.188	2.98
385.554	3.07
385.92	3.24
386.286	2.98
386.651	3.23
387.017	3.16
387.383	3.01
387.748	2.98
388.114	3.13
388.479	3.25
388.845	3.18
389.21	3.19
389.575	3.3
389.94	3.09
390.306	3.23
390.671	3.39
391.036	2.98
391.401	3.15
391.766	3.02
392.131	2.93
392.496	3.14
392.861	3.06
393.226	3.01
393.591	3.02
393.956	3.06
394.32	2.97
394.685	3.25
395.05	3.41
395.414	3.02
395.779	2.95
396.143	3.07
396.508	3.12
396.872	3.15
397.236	3.08
397.601	3.37
397.965	3.2
398.329	3.35
398.694	3.28
399.058	3.17
399.422	3.2
399.786	3.32
400.15	3.21
400.514	2.86
400.878	3.29
401.242	3.01
401.605	3.14
401.969	3.12
402.333	3.35
402.697	3.4
403.06	3.14
403.424	3.1
403.787	3.12
404.151	3.1
404.514	3.03
404.878	3.14
405.241	3.29
405.604	3.13
405.968	3.06
406.331	3.29
406.694	3.06
407.057	3.14
407.42	3.13
407.783	3.21
408.146	3.13
408.509	3.29
408.872	3.15
409.235	3.31
409.598	3.16
409.961	3.09
410.323	3.28
410.686	3.38
411.049	3.29
411.411	3.17
411.774	3.28
412.136	3.17
412.499	2.98
412.861	3.2
413.223	3.24
413.586	3.07
413.948	3.14
414.31	3.19
414.672	3.19
415.035	3.19
415.397	3.19
415.759	3.29
416.121	3.37
416.483	3.05
416.845	3.29
417.206	3.29
417.568	2.96
417.93	3.05
418.292	3.19
418.653	3.23
419.015	3.2
419.377	3.22
419.738	3.07
420.1	3.14
420.461	3.22
420.822	3.09
421.184	3.11
421.545	3.17
421.906	2.96
422.267	3.08
422.629	3.05
422.99	3.07
423.351	3.18
423.712	3.03
424.073	3.18
424.434	3.23
424.795	3.13
425.155	3.18
425.516	3.09
425.877	3.19
426.238	3.07
426.598	3.13
426.959	3.13
427.32	3.22
427.68	3.32
428.041	3.3
428.401	3.3
428.761	3.34
429.122	3.42
429.482	3.35
429.842	3.25
430.202	3.21
430.563	3.28
430.923	3.25
431.283	3.44
431.643	3.22
432.003	3.39
432.363	3.27
432.722	3.3
433.082	3.41
433.442	3.36
433.802	3.27
434.161	3.29
434.521	3.23
434.881	3.38
435.24	3.24
435.6	3.26
435.959	3.21
436.319	3.31
436.678	3.33
437.037	3.45
437.396	3.19
437.756	3.29
438.115	3.45
438.474	3.24
438.833	3.34
439.192	3.37
439.551	3.2
439.91	3.17
440.269	3.4
440.628	3.33
440.987	3.37
441.345	3.23
441.704	3.34
442.063	3.38
442.421	3.24
442.78	3.3
443.138	3.34
443.497	3.32
443.855	3.37
444.214	3.38
444.572	3.44
444.93	3.36
445.288	3.4
445.647	3.42
446.005	3.34
446.363	3.37
446.721	3.26
447.079	3.42
447.437	3.33
447.795	3.29
448.153	3.28
448.51	3.23
448.868	3.35
449.226	3.35
449.584	3.32
449.941	3.33
450.299	3.42
450.656	3.46
451.014	3.61
451.371	3.41
451.729	3.37
452.086	3.41
452.443	3.51
452.801	3.62
453.158	3.42
453.515	3.46
453.872	3.4
454.229	3.34
454.586	3.43
454.943	3.45
455.3	3.44
455.657	3.55
456.014	3.43
456.371	3.51
456.727	3.46
457.084	3.62
457.441	3.45
457.797	3.36
458.154	3.4
458.51	3.56
458.867	3.46
459.223	3.5
459.58	3.36
459.936	3.57
460.292	3.57
460.648	3.42
461.005	3.41
461.361	3.35
461.717	3.33
462.073	3.37
462.429	3.46
462.785	3.44
463.141	3.57
463.496	3.55
463.852	3.69
464.208	3.69
464.564	3.54
464.919	3.53
465.275	3.43
465.631	3.69
465.986	3.6
466.342	3.47
466.697	3.48
467.052	3.62
467.408	3.52
467.763	3.7
468.118	3.47
468.473	3.61
468.829	3.5
469.184	3.49
469.539	3.55
469.894	3.58
470.249	3.57
470.603	3.7
470.958	3.59
471.313	3.77
471.668	3.61
472.023	3.68
472.377	3.64
472.732	3.69
473.086	3.67
473.441	3.48
473.795	3.53
474.15	3.5
474.504	3.65
474.859	3.76
475.213	3.64
475.567	3.58
475.921	3.71
476.275	3.68
476.63	3.78
476.984	3.64
477.338	3.77
477.692	3.74
478.045	3.51
478.399	3.78
478.753	3.61
479.107	3.58
479.461	3.64
479.814	3.64
480.168	3.69
480.521	3.75
480.875	3.69
481.228	3.71
481.582	3.63
481.935	3.77
482.289	3.67
482.642	3.54
482.995	3.55
483.348	3.64
483.701	3.61
484.055	3.64
484.408	3.61
484.761	3.45
485.114	3.41
485.466	3.31
485.819	3.32
486.172	3.4
486.525	3.46
486.878	3.57
487.23	3.58
487.583	3.59
487.936	3.65
488.288	3.55
488.641	3.53
488.993	3.44
489.345	3.49
489.698	3.47
490.05	3.48
490.402	3.6
490.754	3.6
491.107	3.69
491.459	3.68
491.811	3.68
492.163	3.69
492.515	3.7
492.866	3.5
493.218	3.52
493.57	3.54
493.922	3.58
494.274	3.64
494.625	3.77
494.977	3.71
495.328	3.74
495.68	3.84
496.031	3.84
496.383	3.9
496.734	3.76
497.086	3.89
497.437	3.74
497.788	3.78
498.139	3.7
498.49	3.81
498.842	3.75
499.193	3.85
499.544	3.86
499.894	3.83
500.245	3.9
500.596	3.79
500.947	3.93
501.298	3.8
501.648	3.88
501.999	3.95
502.35	3.88
502.7	3.86
503.051	3.92
503.401	3.93
503.752	3.89
504.102	3.99
504.452	4
504.803	4.06
505.153	4.07
505.503	4
505.853	3.94
506.203	3.94
506.553	3.86
506.903	3.97
507.253	3.87
507.603	3.86
507.953	4
508.303	3.95
508.652	4.07
509.002	4.15
509.352	3.92
509.701	3.93
510.051	3.89
510.4	3.84
510.75	3.92
511.099	3.96
511.449	3.89
511.798	4.06
512.147	3.98
512.496	3.96
512.846	3.99
513.195	4.05
513.544	4
513.893	3.92
514.242	4.1
514.591	4.02
514.939	3.98
515.288	4.04
515.637	4.09
515.986	4.07
516.334	4.11
516.683	4.05
517.032	4.09
517.38	4.14
517.729	4.14
518.077	4.16
518.426	4.07
518.774	3.98
519.122	4.09
519.47	4.12
519.819	4.02
520.167	3.97
520.515	3.9
520.863	4.06
521.211	3.98
521.559	4.07
521.907	4.04
522.255	4.11
522.602	4.18
522.95	4.05
523.298	4.09
523.645	4.12
523.993	4.2
524.341	4.26
524.688	4.12
525.036	4.32
525.383	4.27
525.73	4.22
526.078	4.3
526.425	4.12
526.772	4.14
527.119	4.12
527.466	4.13
527.814	4.11
528.161	4.19
528.508	4.16
528.854	4.21
529.201	4.15
529.548	4.05
529.895	3.92
530.242	3.89
530.588	3.9
530.935	3.94
531.282	4.04
531.628	4.1
531.975	4.14
532.321	4.19
532.667	4.25
533.014	4.22
533.36	4.2
533.706	4.25
534.052	4.2
534.399	4.17
534.745	4.08
535.091	4.08
535.437	4.1
535.783	4.22
536.129	4.29
536.474	4.33
536.82	4.36
537.166	4.38
537.512	4.47
537.857	4.34
538.203	4.25
538.549	4.24
538.894	4.3
539.239	4.31
539.585	4.35
539.93	4.39
540.276	4.5
540.621	4.57
540.966	4.4
541.311	4.44
541.656	4.6
542.001	4.51
542.346	4.41
542.691	4.23
543.036	4.14
543.381	4.24
543.726	4.31
544.071	4.38
544.415	4.41
544.76	4.4
545.105	4.3
545.449	4.4
545.794	4.47
546.138	4.58
546.483	4.63
546.827	4.53
547.171	4.61
547.516	4.58
547.86	4.63
548.204	4.55
548.548	4.55
548.892	4.62
549.236	4.56
549.58	4.7
549.924	4.68
550.268	4.74
550.612	4.82
550.956	4.67
551.3	4.88
551.643	4.87
551.987	4.88
552.33	4.91
552.674	4.96
553.017	4.99
553.361	4.94
553.704	4.96
554.048	4.73
554.391	4.74
554.734	4.78
555.077	4.83
555.42	4.88
555.764	4.93
556.107	5.04
556.45	5.11
556.793	5.06
557.135	4.87
557.478	5.03
557.821	5.1
558.164	4.94
558.507	5.15
558.849	5.08
559.192	4.97
559.534	4.88
559.877	5.03
560.219	4.98
560.562	5.05
560.904	5.1
561.246	4.99
561.589	5.16
561.931	5.45
562.273	5.14
562.615	4.96
562.957	5.24
563.299	5.19
563.641	5.2
563.983	5.18
564.325	5.05
564.667	5.1
565.008	5.18
565.35	5.3
565.692	5.3
566.033	5.28
566.375	5.32
566.716	5.23
567.058	5.19
567.399	5.23
567.741	5.3
568.082	5.21
568.423	5.37
568.764	5.31
569.105	5.41
569.447	5.42
569.788	5.37
570.129	5.57
570.47	5.52
570.811	5.4
571.151	5.82
571.492	5.54
571.833	5.54
572.174	5.43
572.514	5.51
572.855	5.48
573.195	5.47
573.536	5.52
573.876	5.36
574.217	5.47
574.557	5.5
574.898	5.57
575.238	5.66
575.578	5.73
575.918	5.62
576.258	5.64
576.598	5.71
576.938	5.66
577.278	5.79
577.618	5.78
577.958	5.8
578.298	5.81
578.638	5.87
578.977	5.83
579.317	5.63
579.657	5.99
579.996	5.76
580.336	5.92
580.675	6.01
581.014	5.94
581.354	6.1
581.693	6.13
582.032	6.1
582.372	5.97
582.711	6.04
583.05	6.05
583.389	5.99
583.728	6.19
584.067	6.26
584.406	6.06
584.745	5.99
585.083	6.02
585.422	6.08
585.761	6.1
586.1	6.29
586.438	6.21
586.777	6.15
587.115	6.36
587.454	6.05
587.792	6.24
588.13	6.16
588.469	6.28
588.807	6.39
589.145	6.73
589.483	6.53
589.821	6.5
590.159	6.31
590.497	6.46
590.835	6.61
591.173	6.19
591.511	6.72
591.849	6.55
592.187	6.57
592.524	6.39
592.862	6.46
593.2	6.57
593.537	6.76
593.875	6.67
594.212	6.68
594.55	6.71
594.887	6.86
595.224	6.79
595.561	6.79
595.899	6.8
596.236	6.73
596.573	6.71
596.91	6.73
597.247	7.09
597.584	6.74
597.921	6.86
598.258	6.88
598.594	6.83
598.931	6.92
599.268	6.66
599.604	6.65
599.941	6.86
600.277	6.92
600.614	7.02
600.95	7.07
601.287	7.17
601.623	7.28
601.959	7.08
602.296	7.36
602.632	7.26
602.968	7.14
603.304	7.28
603.64	7.2
603.976	7.16
604.312	7.46
604.648	7.11
604.984	7.08
605.319	7.26
605.655	6.87
605.991	7.12
606.326	7.12
606.662	7.28
606.998	7.24
607.333	7.41
607.668	7.33
608.004	7.39
608.339	7.36
608.674	7.66
609.01	7.71
609.345	7.75
609.68	7.95
610.015	7.57
610.35	7.42
610.685	7.59
611.02	7.62
611.355	7.65
611.689	7.57
612.024	7.63
612.359	7.64
612.694	7.75
613.028	7.78
613.363	7.71
613.697	7.87
614.032	8.03
614.366	8.15
614.7	7.7
615.035	7.92
615.369	8.05
615.703	8.06
616.037	7.89
616.371	8.19
616.705	8.33
617.039	7.85
617.373	7.85
617.707	8.18
618.041	8.36
618.375	8.37
618.709	8.29
619.042	8.24
619.376	7.99
619.71	8.25
620.043	8.38
620.377	8.09
620.71	8.18
621.043	8.44
621.377	8.51
621.71	8.46
622.043	8.23
622.376	8.18
622.709	8.58
623.043	8.7
623.376	8.4
623.709	8.52
624.041	8.67
624.374	8.69
624.707	8.59
625.04	8.47
625.373	8.69
625.705	8.7
626.038	8.68
626.37	8.97
626.703	8.74
627.035	8.84
627.368	8.58
627.7	8.83
628.032	8.76
628.365	8.91
628.697	8.99
629.029	8.53
629.361	8.91
629.693	8.82
630.025	8.95
630.357	9
630.689	8.92
631.021	9.31
631.353	9.1
631.684	9.14
632.016	9.11
632.348	9.35
632.679	9.31
633.011	9.01
633.342	8.88
633.674	9.22
634.005	9.21
634.336	9.18
634.668	9.63
634.999	9.34
635.33	9.47
635.661	9.44
635.992	9.38
636.323	9.3
636.654	9.62
636.985	9.63
637.316	9.29
637.647	9.58
637.977	9.48
638.308	9.38
638.639	9.79
638.969	9.79
639.3	9.67
639.63	9.67
639.961	9.66
640.291	9.79
640.622	10.08
640.952	10.09
641.282	9.76
641.612	9.89
641.943	9.82
642.273	9.82
642.603	9.56
642.933	10.46
643.263	9.63
643.592	10.34
643.922	9.82
644.252	10.14
644.582	10.35
644.911	10.05
645.241	10.31
645.571	10.43
645.9	9.99
646.23	10.29
646.559	10.01
646.888	10
647.218	10.44
647.547	10.5
647.876	10.7
648.205	10.36
648.534	10.85
648.863	10.46
649.192	10.47
649.521	10.95
649.85	10.33
650.179	10.63
650.508	11.01
650.837	10.43
651.165	10.61
651.494	10.34
651.822	10.74
652.151	10.86
652.479	10.76
652.808	10.71
653.136	11.04
653.465	11.09
653.793	10.87
654.121	11.07
654.449	10.7
654.777	10.77
655.105	10.86
655.433	11.41
655.761	11.57
656.089	11.3
656.417	11.48
656.745	11.05
657.073	11.64
657.4	11.32
657.728	11.42
658.056	11.5
658.383	11.12
658.711	11.19
659.038	11.15
659.365	11.37
659.693	11.5
660.02	11.09
660.347	11.3
660.674	11.42
661.001	11.45
661.329	11.43
661.656	11.38
661.982	11.53
662.309	11.73
662.636	11.98
662.963	11.7
663.29	11.49
663.616	11.95
663.943	11.77
664.27	11.64
664.596	11.51
664.923	12.13
665.249	12.28
665.576	11.97
665.902	12.01
666.228	11.77
666.554	12.11
666.881	11.84
667.207	12.33
667.533	12.27
667.859	12.38
668.185	12.21
668.511	12.29
668.837	11.87
669.162	11.85
669.488	12.13
669.814	12.04
670.139	11.99
670.465	12.45
670.791	12.59
671.116	12.51
671.442	12.66
671.767	12.67
672.092	12.53
672.418	13.11
672.743	12.75
673.068	12.74
673.393	12.15
673.718	12.48
674.043	13.09
674.368	12.78
674.693	12.7
675.018	12.78
675.343	12.48
675.667	12.88
675.992	12.53
676.317	12.84
676.641	12.84
676.966	12.95
677.29	13.3
677.615	13.25
677.939	13.33
678.264	13.17
678.588	12.91
678.912	13.05
679.236	13.2
679.56	13.46
679.885	13.28
680.209	13.26
680.532	13.56
680.856	13.51
681.18	13.65
681.504	13.08
681.828	13.14
682.152	12.99
682.475	13.48
682.799	13.55
683.122	13.52
683.446	13.7
683.769	13.79
684.093	13.68
684.416	13.43
684.739	14
685.062	13.8
685.386	13.89
685.709	13.53
686.032	13.81
686.355	13.69
686.678	14.07
687.001	13.85
687.324	13.4
687.646	13.29
687.969	13.77
688.292	14.41
688.614	13.21
688.937	13.67
689.26	14.5
689.582	13.76
689.904	13.86
690.227	13.81
690.549	13.7
690.871	13.82
691.194	14.12
691.516	14.68
691.838	14.76
692.16	14.4
692.482	14.85
692.804	14.44
693.126	14.56
693.448	15.02
693.769	14.53
694.091	14.72
694.413	14.34
694.735	14.77
695.056	13.85
695.378	14.48
695.699	15.2
696.021	15.22
696.342	14.92
696.663	14.96
696.984	14.66
697.306	14.9
697.627	14.33
697.948	15.2
698.269	14.49
698.59	14.88
698.911	14.69
699.232	15.5
699.553	15.39
699.873	15
700.194	14.7
700.515	14.76
700.835	14.61
701.156	15.13
701.477	15.55
701.797	15.13
702.117	15.47
702.438	15.9
702.758	15.98
703.078	16.08
703.398	15.69
703.719	14.37
704.039	15.68
704.359	16.2
704.679	15.11
704.999	16.17
705.319	16.23
705.638	16.21
705.958	15.78
706.278	16.29
706.597	15.83
706.917	15.53
707.237	15.5
707.556	16.54
707.876	16.87
708.195	16.57
708.514	15.5
708.834	16.05
709.153	15.8
709.472	15.94
709.791	15.94
710.11	15.21
710.429	16.78
710.748	17.54
711.067	16.59
711.386	16.4
711.705	16.47
712.023	16.51
712.342	15.91
712.661	16.08
712.979	16.56
713.298	16.76
713.616	16.1
713.935	15.92
714.253	16.18
714.572	16.45
714.89	16.56
715.208	16.15
715.526	16.12
715.844	17.42
716.162	15.48
716.48	15.74
716.798	16.27
717.116	16.14
717.434	16.89
717.752	17.93
718.069	16.7
718.387	16.58
718.705	16.69
719.022	17.16
719.34	17.8
719.657	16.45
719.975	17.1
720.292	15.75
720.609	18.5
720.927	17.47
721.244	17.78
721.561	17.38
721.878	18.18
722.195	17.68
722.512	17.65
722.829	17.79
723.146	17.34
723.463	17.95
723.779	19.1
724.096	15.83
724.413	18.09
724.729	16.87
725.046	17.78
725.362	17.63
725.679	17.96
725.995	18.8
726.311	17.82
726.628	17.82
726.944	18.86
727.26	18.06
727.576	17.9
727.892	17.5
728.208	18.66
728.524	19.66
728.84	18.59
729.156	17.41
729.472	18.73
729.787	17.59
730.103	18.9
730.419	18.07
730.734	18.95
731.05	17.67
731.365	18.81
731.681	18.56
731.996	17.86
732.311	18.48
732.626	18.22
732.942	17.97
733.257	18.65
733.572	18.4
733.887	18.29
734.202	19.34
734.517	19.38
734.832	17.59
735.146	19.25
735.461	17.64
735.776	18.31
736.091	19.05
736.405	18.54
736.72	19.51
737.034	18.03
737.349	18.56
737.663	18.63
737.977	18.56
738.292	19.1
738.606	18.85
738.92	18.28
739.234	17.09
739.548	18.09
739.862	19.13
740.176	20.31
740.49	20.9
740.804	19.21
741.117	20.41
741.431	19.48
741.745	18.71
742.058	20.39
742.372	19.48
742.685	19.34
742.999	19.21
743.312	19.91
743.626	19
743.939	19.83
744.252	19.46
744.565	20.34
744.878	20.09
745.191	21.28
745.505	18.21
745.817	18.33
746.13	19.83
746.443	19.95
746.756	20.97
747.069	20.25
747.381	20.34
747.694	20.72
748.007	21.38
748.319	20.38
748.632	20
748.944	19.38
749.256	21.25
749.569	19.79
749.881	18.74
750.193	18.98
750.505	20.48
750.817	21.67
751.129	20.14
751.441	21.58
751.753	20.56
752.065	20.5
752.377	20.2
752.689	20.38
753	20.8
753.312	20.47
753.624	20.01
753.935	20.78
754.247	21.8
754.558	20.97
754.869	21.43
755.181	21.88
755.492	19.22
755.803	22.03
756.114	21.39
756.425	21.5
756.736	22.52
757.047	20.55
757.358	22.8
757.669	22
757.98	20.38
758.291	22.06
758.601	22.71
758.912	21.28
759.223	22.45
759.533	22.35
759.844	21.54
760.154	22.23
760.464	20.48
760.775	22.52
761.085	21.98
761.395	22.31
761.705	20.45
762.016	19.88
762.326	23.08
762.636	22.43
762.945	22.89
763.255	21.05
763.565	21.06
763.875	21.74
764.185	22.07
764.494	20.52
764.804	23.61
765.113	21.74
765.423	21.31
765.732	21.68
766.042	21.59
766.351	21.77
766.66	23.14
766.97	22.3
767.279	22.51
767.588	21.35
767.897	21.6
768.206	20.71
768.515	21.58
768.824	22.78
769.133	23.13
769.441	22.92
769.75	21.44
770.059	23.13
770.367	22.1
770.676	23.21
770.984	22.09
771.293	22.1
771.601	24.43
771.91	23.84
772.218	24.54
772.526	23.09
772.834	24.32
773.142	23.01
773.45	22.84
773.758	21.56
774.066	23.75
774.374	21.7
774.682	19.53
774.99	22.7
775.298	24.06
775.605	22.53
775.913	21.96
776.22	24.43
776.528	22.07
776.835	22.21
777.143	24.18
777.45	22.27
777.757	24.21
778.065	25.15
778.372	24.2
778.679	23.19
778.986	26.25
779.293	24.93
779.6	21.44
779.907	24.86
780.214	24.28
780.52	23.37
780.827	23.26
781.134	24.26
781.44	22.38
781.747	23.47
782.053	24.86
782.36	21.98
782.666	25.15
782.973	23.65
783.279	25.11
783.585	25.65
783.891	23.34
784.197	21.75
784.503	21.31
784.809	25.41
785.115	25.47
785.421	22.83
785.727	23.43
786.033	24.46
786.339	26.81
786.644	28.07
786.95	22.87
787.255	24.18
787.561	23
787.866	24.06
788.172	22.62
788.477	24.14
788.782	22.53
789.088	26.76
789.393	20.9
789.698	23.92
790.003	21.21
790.308	20.65
790.613	25.32
790.918	22.61
791.223	25.18
791.527	25.87
791.832	28.32
792.137	23.51
792.441	25.71
792.746	21.2
793.05	26.6
793.355	22.28
793.659	23.47
793.963	25.86
794.268	24.69
794.572	21.05
794.876	26.02
795.18	25.59
795.484	27.44
795.788	24.15
796.092	26
796.396	24.95
796.7	24.75
797.004	19.41
797.307	27.24
797.611	27.75
797.915	26.29
798.218	24.28
798.522	26.45
798.825	25.43
799.128	24.57
799.432	22.39
799.735	28.41
800.038	24.37
800.341	24.59
800.644	23.22
800.947	28
801.25	26.07
801.553	23.81
801.856	26.88
802.159	19.83
802.462	27.14
802.764	26.89
803.067	26.65
803.37	25.52
803.672	26.64
803.975	24.5
804.277	23.53
804.579	27.62
804.882	24.76
805.184	26.11
805.486	23.15
805.788	24.84
806.09	25.2
806.392	26.89
806.694	22.62
806.996	27.69
807.298	22.72
807.6	23.14
807.902	24.33
808.203	24.76
808.505	24.41
808.807	26.68
809.108	26.36
809.409	25.07
809.711	26.11
810.012	24.24
810.313	21.58
810.615	28.67
810.916	22.56
811.217	29.22
811.518	26.17
811.819	27.98
812.12	21.21
812.421	27.97
812.722	26.24
813.023	28.27
813.323	23.7
813.624	28.71
813.925	26.5
814.225	30.59
814.526	26.04
814.826	30.94
815.126	33.74
815.427	19.31
815.727	30.14
816.027	24.72
816.327	26.25
816.627	26.28
816.927	26
817.227	16.67
817.527	28.73
817.827	25.62
818.127	27.42
818.427	29.75
818.727	28.9
819.026	22.55
819.326	25.54
819.625	22.22
819.925	25.88
820.224	28.82
820.524	26.95
820.823	26.14
821.122	25.91
821.421	27.66
821.72	31.83
822.019	27.78
822.318	31.1
822.617	28.71
822.916	25.5
823.215	29.18
823.514	27.95
823.813	28.22
824.111	27.51
824.41	29.31
824.709	27.78
825.007	27.77
825.306	27.74
825.604	29.2
825.902	28.43
826.201	27.94
826.499	28.08
826.797	26.87
827.095	29.13
827.393	29.78
827.691	27.99
827.989	29.8
828.287	28.71
828.585	29.37
828.882	27.89
829.18	29.02
829.478	26.76
829.775	27.39
830.073	29.2
830.37	28.7
830.668	30.07
830.965	29.39
831.263	30.2
831.56	29.99
831.857	30.41
832.154	29.87
832.451	26.95
832.748	26.4
833.045	26.64
833.342	30.68
833.639	27.45
833.936	29.95
834.232	26.86
834.529	26.16
834.826	28.4
835.122	29.24
835.419	27.81
835.715	25.62
836.012	24.72
836.308	28.19
836.604	28.93
836.901	27.97
837.197	28.18
837.493	30.94
837.789	26.81
838.085	25.89
838.381	28.8
838.677	24.03
838.972	28.4
839.268	24.86
839.564	26.34
839.86	29.56
840.155	24.77
840.451	30.56
840.746	28.2
841.042	27.9
841.337	26.79
841.632	22.03
841.928	26.55
842.223	38.3
842.518	23.15
842.813	23.95
843.108	35.72
843.403	24.94
843.698	25.31
843.993	28.06
844.287	35.93
844.582	19.3
844.877	26.7
845.171	25.39
845.466	36.15
845.761	26.14
846.055	20.36
846.349	24.97
846.644	18.42
846.938	20.22
847.232	30.53
847.526	27.77
847.82	19.9
848.114	37.43
848.408	26.18
848.702	24.58
848.996	31.62
849.29	30.59
849.584	20.07
849.877	19.17
850.171	28.7
850.465	44.74
850.758	34.23
851.052	44.68
851.345	11.63
851.638	28.88
851.932	36.61
852.225	27
852.518	35.69
852.811	17.7
853.104	31.35
853.397	32.18
853.69	29.05
853.983	20.57
854.276	49.68
854.569	6.9
854.861	42.55
855.154	48.16
855.447	26.15
855.739	34.76
856.032	13.81
856.324	27.48
856.616	31.77
856.909	24.11
857.201	20.1
857.493	45.42
857.785	21.42
858.077	16.26
858.369	29.73
858.661	26.26
858.953	20.11
859.245	28.69
859.537	22
859.829	56.18
860.12	24.09
860.412	19.97
860.703	26.21
860.995	24.19
861.286	37.67
861.578	31.08
861.869	14.31
862.16	16.95
862.452	48.4
862.743	26.26
863.034	23.47
863.325	29.52
863.616	17.15
863.907	19.39
864.198	24.83
864.488	28.53
864.779	30.94
865.07	23.09
865.36	34.94
865.651	30.46
865.941	31.16
866.232	39.64
866.522	23.58
866.813	32.65
867.103	19.74
867.393	26.24
867.683	36.79
867.973	38.08
868.263	30.73
868.553	34.94
868.843	23.22
869.133	15.45
869.423	32.62
869.713	2.26
870.002	45.94
870.292	18.72
870.582	33.68
870.871	21.32
871.161	22.8
871.45	28.63
871.739	44.23
872.029	14.26
872.318	6
872.607	13.38
872.896	4.26
873.185	28.71
873.474	30.78
873.763	14.71
874.052	45.74
874.341	31.32
874.63	52.73
874.918	18.15
875.207	21.03
875.496	34.05
875.784	32.51
876.073	11.25
876.361	37.5
876.649	32.11
876.938	57.41
877.226	32.55
877.514	36.23
877.802	21.36
878.09	21.77
878.378	35.27
878.666	27.98
878.954	17.74
879.242	50.02
879.53	43.31
879.817	27.2
880.105	25.93
880.392	33.03
880.68	31.33
880.967	36.73
881.255	28.53
881.542	3.7
881.83	12.44
882.117	38.18
882.404	43.9
882.691	32.61
882.978	39.67
883.265	48.72
883.552	39.92
883.839	21.75
884.126	28.03
884.413	30.68
884.699	32.5
884.986	33.77
885.273	32.34
885.559	32.34
885.846	32.34
