Data from 23-2_crown_Reflection__1__06.txt Node

Date: Thu Feb 29 21:55:22 CST 2024
User: ToomeyLab
Spectrometer: FLMS14357
Trigger mode: 0
Integration Time (sec): 1.000000E-2
Scans to average: 100
Electric dark correction enabled: true
Nonlinearity correction enabled: false
Boxcar width: 0
XAxis mode: Wavelengths
Number of Pixels in Spectrum: 2048
>>>>>Begin Spectral Data<<<<<
189.047	46.96
189.435	46.96
189.823	46.96
190.211	-112.51
190.599	266.79
190.987	-69.93
191.375	137.07
191.763	3306.38
192.151	4.54
192.538	82.61
192.926	208.01
193.314	113.33
193.702	295.91
194.089	986.98
194.477	182.95
194.864	-642.35
195.252	97.19
195.639	37.73
196.027	-3074.07
196.414	79.77
196.801	123.96
197.189	1.13
197.576	121.9
197.963	40.95
198.351	-26.66
198.738	-65.61
199.125	13.01
199.512	64.95
199.899	-42.07
200.286	-44.83
200.673	32.52
201.06	-4.53
201.447	-20.64
201.833	25.33
202.22	19.75
202.607	18.32
202.994	-96.79
203.38	4.6
203.767	-1.36
204.154	79.46
204.54	48.61
204.927	14.58
205.313	4.01
205.699	-1.57
206.086	45.31
206.472	55.35
206.858	29.52
207.245	24.11
207.631	-2.38
208.017	-5.58
208.403	-53.04
208.789	4.89
209.175	-63.65
209.561	23.34
209.947	21.16
210.333	46.12
210.719	47.18
211.105	25.56
211.491	3.87
211.876	24.29
212.262	39.9
212.648	-11.89
213.034	40.71
213.419	25.42
213.805	6.61
214.19	-3.35
214.576	36.44
214.961	34.48
215.346	-8.65
215.732	11.76
216.117	-1.94
216.502	7.49
216.888	-30.58
217.273	6.22
217.658	29.09
218.043	-8.49
218.428	-6.76
218.813	5.82
219.198	19.55
219.583	-18.39
219.968	15.77
220.353	2.8
220.738	19.16
221.122	20.02
221.507	4.44
221.892	10.79
222.276	8.11
222.661	12.86
223.046	5.63
223.43	-3.17
223.815	-7.14
224.199	9.61
224.583	6.79
224.968	6.53
225.352	21.01
225.736	10.32
226.121	10.17
226.505	14.99
226.889	8.47
227.273	14.67
227.657	1.18
228.041	9.44
228.425	9.96
228.809	12.12
229.193	4.29
229.577	7.39
229.961	4.73
230.344	6.07
230.728	6.42
231.112	8.04
231.495	5.64
231.879	6.77
232.263	4.96
232.646	6.87
233.03	7.83
233.413	6.79
233.797	5.48
234.18	4.36
234.563	3.85
234.946	6.22
235.33	7.15
235.713	5.69
236.096	5.92
236.479	7.44
236.862	9.59
237.245	5.22
237.628	6.48
238.011	6.92
238.394	6.03
238.777	8.52
239.16	6.55
239.543	4.38
239.925	6.17
240.308	8.05
240.691	9.44
241.073	7.52
241.456	8.69
241.838	6.45
242.221	7.13
242.603	7.09
242.986	6.51
243.368	6.14
243.75	6.78
244.133	6.32
244.515	6.34
244.897	7.09
245.279	6.95
245.661	6.53
246.043	6.1
246.425	7.91
246.807	7.59
247.189	5.67
247.571	7.29
247.953	6.75
248.335	6.36
248.717	6.51
249.098	6.33
249.48	6.43
249.862	6.3
250.243	6.21
250.625	5.73
251.006	6.62
251.388	6.4
251.769	6.1
252.151	7.3
252.532	5.55
252.913	5.38
253.295	6.14
253.676	6.26
254.057	6.12
254.438	6.93
254.819	5.68
255.2	5.1
255.581	6.85
255.962	5.9
256.343	6.8
256.724	5.76
257.105	6.42
257.486	6.77
257.867	6.66
258.247	6.4
258.628	5.55
259.009	6.51
259.389	5.22
259.77	6.75
260.15	7.19
260.531	6.41
260.911	6.19
261.292	6.03
261.672	5.97
262.052	6.1
262.432	5.91
262.813	5.87
263.193	6.15
263.573	6.22
263.953	6.04
264.333	6.02
264.713	6.31
265.093	6.6
265.473	5.9
265.853	6.64
266.233	5.16
266.612	4.38
266.992	4.92
267.372	5.83
267.752	5.87
268.131	6.32
268.511	6.22
268.89	6.06
269.27	5.73
269.649	6.09
270.029	5.26
270.408	5.99
270.787	5.48
271.167	5.53
271.546	6.33
271.925	5.66
272.304	5.86
272.683	5.98
273.062	5.96
273.441	5.88
273.82	5.41
274.199	5.79
274.578	5.64
274.957	5.83
275.336	6.09
275.715	6
276.093	5.33
276.472	6.73
276.851	5.44
277.229	5.88
277.608	5.58
277.986	5.1
278.365	6.07
278.743	5.76
279.122	5.03
279.5	5.35
279.878	5.05
280.257	6.09
280.635	5.2
281.013	6.15
281.391	5.11
281.769	5.88
282.147	5.45
282.525	5.71
282.903	5.2
283.281	5.4
283.659	5.69
284.037	5.49
284.415	5.09
284.792	5.29
285.17	5.2
285.548	5.89
285.925	5.47
286.303	5.25
286.68	4.98
287.058	5.47
287.435	5.52
287.813	5.26
288.19	5.23
288.567	5.5
288.945	5.71
289.322	5.57
289.699	5.6
290.076	5.29
290.453	5.21
290.83	5.24
291.207	5.31
291.584	5.44
291.961	5.16
292.338	5.67
292.715	5.13
293.092	5.7
293.469	5.52
293.845	5.78
294.222	5.45
294.599	5.11
294.975	5.49
295.352	5.99
295.728	5.33
296.105	5.4
296.481	5.76
296.858	5.33
297.234	5.44
297.61	5.22
297.986	6.01
298.363	5.57
298.739	5.5
299.115	5.68
299.491	5.74
299.867	6.03
300.243	5.44
300.619	5.6
300.995	5.99
301.371	5.07
301.746	5.53
302.122	6.17
302.498	5.77
302.874	6.34
303.249	5.73
303.625	5.33
304	6.18
304.376	5.58
304.751	5
305.127	5.79
305.502	5.3
305.878	5.54
306.253	5.38
306.628	5.78
307.003	5.73
307.378	5.61
307.754	6.13
308.129	5.67
308.504	5.16
308.879	5.62
309.254	5.98
309.629	5.99
310.003	6.09
310.378	5.07
310.753	5.32
311.128	5.46
311.502	6.06
311.877	5.4
312.252	5.6
312.626	5.89
313.001	5.73
313.375	5.59
313.75	5.83
314.124	5.31
314.498	5.66
314.873	5.44
315.247	5.55
315.621	6.43
315.995	5.7
316.369	5.86
316.743	5.44
317.117	6.05
317.491	5.34
317.865	5.52
318.239	5.94
318.613	6.36
318.987	5.86
319.361	5.26
319.734	5.8
320.108	6.31
320.482	6.05
320.855	5.76
321.229	5.72
321.602	5.62
321.976	6.01
322.349	5.15
322.723	6.04
323.096	5.67
323.469	5.8
323.843	5.76
324.216	5.79
324.589	4.94
324.962	5.33
325.335	5.3
325.708	6.29
326.081	5.47
326.454	5.17
326.827	5.51
327.2	5.96
327.573	5.56
327.945	5.8
328.318	5.59
328.691	6.16
329.063	5.35
329.436	5.57
329.809	5.85
330.181	6.23
330.553	6.2
330.926	5.65
331.298	5.45
331.671	5.1
332.043	5.67
332.415	5.75
332.787	5.03
333.159	5.78
333.532	5.93
333.904	5.28
334.276	5.62
334.648	5.57
335.02	5.24
335.391	5.51
335.763	4.91
336.135	5.09
336.507	5.4
336.879	5.87
337.25	5.81
337.622	5.53
337.993	5.44
338.365	5.37
338.736	5.23
339.108	5.69
339.479	5.67
339.851	5.36
340.222	6.24
340.593	5.15
340.964	5.59
341.336	5.42
341.707	5.73
342.078	5.57
342.449	5.4
342.82	6.11
343.191	5.55
343.562	5.64
343.933	5.48
344.303	5.84
344.674	5.68
345.045	5.78
345.416	5.34
345.786	5.21
346.157	5.25
346.527	5.13
346.898	5.96
347.268	5.78
347.639	5.99
348.009	5.69
348.38	5.66
348.75	5.82
349.12	5.62
349.49	5.67
349.861	5.55
350.231	5.61
350.601	5.91
350.971	5.6
351.341	6
351.711	5.97
352.081	5.51
352.45	5.02
352.82	5.02
353.19	5.68
353.56	5.5
353.929	6.04
354.299	5.36
354.669	5.23
355.038	5.47
355.408	5.53
355.777	5.73
356.147	5.35
356.516	5.27
356.885	5.33
357.254	5.66
357.624	5.4
357.993	5.5
358.362	5.2
358.731	5.7
359.1	5.87
359.469	5.55
359.838	5.65
360.207	5.46
360.576	5.32
360.945	5.5
361.314	5.46
361.682	5.3
362.051	5.67
362.42	5.84
362.788	5.54
363.157	5.56
363.525	5.36
363.894	5.63
364.262	5.28
364.631	5.45
364.999	5.17
365.367	5.6
365.735	5.59
366.104	5.53
366.472	5.17
366.84	5.92
367.208	5.47
367.576	5.52
367.944	5.47
368.312	5.66
368.68	5.46
369.048	5.6
369.416	5.65
369.783	5.53
370.151	5.57
370.519	5.77
370.886	5.76
371.254	5.9
371.621	5.54
371.989	5.59
372.356	5.77
372.724	5.87
373.091	5.7
373.458	5.45
373.826	6.06
374.193	5.56
374.56	5.68
374.927	5.56
375.294	5.46
375.661	5.69
376.028	5.86
376.395	5.9
376.762	6.15
377.129	5.52
377.496	5.76
377.863	5.78
378.229	5.52
378.596	5.49
378.963	5.62
379.329	5.85
379.696	5.46
380.062	5.93
380.429	5.65
380.795	5.88
381.161	5.68
381.528	5.74
381.894	5.76
382.26	5.43
382.626	5.63
382.993	5.55
383.359	5.62
383.725	5.57
384.091	5.79
384.457	5.47
384.823	5.72
385.188	5.63
385.554	5.58
385.92	5.86
386.286	5.5
386.651	5.38
387.017	5.75
387.383	6.13
387.748	5.61
388.114	5.74
388.479	6.01
388.845	5.59
389.21	5.5
389.575	5.67
389.94	5.75
390.306	5.29
390.671	5.32
391.036	6.07
391.401	5.53
391.766	5.57
392.131	5.71
392.496	5.57
392.861	5.67
393.226	5.9
393.591	5.73
393.956	5.78
394.32	5.81
394.685	5.94
395.05	5.64
395.414	5.82
395.779	5.69
396.143	5.98
396.508	5.77
396.872	5.9
397.236	5.94
397.601	5.68
397.965	5.91
398.329	5.68
398.694	5.64
399.058	5.71
399.422	5.58
399.786	5.68
400.15	5.42
400.514	5.87
400.878	5.69
401.242	5.55
401.605	5.72
401.969	6.14
402.333	5.7
402.697	5.68
403.06	5.66
403.424	5.8
403.787	5.58
404.151	5.79
404.514	5.94
404.878	5.6
405.241	5.92
405.604	5.75
405.968	5.74
406.331	5.7
406.694	5.81
407.057	5.38
407.42	5.83
407.783	5.79
408.146	5.89
408.509	5.58
408.872	5.99
409.235	6.02
409.598	5.92
409.961	5.79
410.323	5.95
410.686	5.53
411.049	5.67
411.411	5.75
411.774	5.84
412.136	5.69
412.499	5.91
412.861	5.73
413.223	5.59
413.586	5.78
413.948	5.89
414.31	6.01
414.672	5.91
415.035	6.07
415.397	5.88
415.759	5.73
416.121	6.16
416.483	5.76
416.845	5.95
417.206	5.77
417.568	5.9
417.93	5.87
418.292	5.82
418.653	5.83
419.015	5.85
419.377	5.67
419.738	5.73
420.1	5.61
420.461	5.7
420.822	5.7
421.184	5.75
421.545	5.72
421.906	5.58
422.267	5.72
422.629	5.67
422.99	5.62
423.351	5.71
423.712	5.64
424.073	5.62
424.434	5.66
424.795	5.78
425.155	5.64
425.516	5.66
425.877	5.72
426.238	5.72
426.598	5.72
426.959	5.83
427.32	5.83
427.68	5.78
428.041	5.67
428.401	5.89
428.761	5.88
429.122	5.89
429.482	5.99
429.842	5.85
430.202	5.8
430.563	5.91
430.923	5.82
431.283	5.75
431.643	5.68
432.003	6.17
432.363	5.69
432.722	6.08
433.082	5.65
433.442	5.95
433.802	6.05
434.161	6.12
434.521	5.68
434.881	5.85
435.24	6.06
435.6	5.77
435.959	5.83
436.319	5.71
436.678	5.64
437.037	5.62
437.396	5.93
437.756	6
438.115	5.93
438.474	5.81
438.833	5.97
439.192	5.93
439.551	5.78
439.91	5.79
440.269	5.85
440.628	5.83
440.987	5.75
441.345	5.93
441.704	5.76
442.063	5.84
442.421	5.82
442.78	5.85
443.138	5.68
443.497	5.78
443.855	6.04
444.214	5.92
444.572	5.98
444.93	5.75
445.288	5.82
445.647	5.98
446.005	5.89
446.363	5.71
446.721	5.8
447.079	5.67
447.437	5.85
447.795	5.9
448.153	5.79
448.51	5.8
448.868	5.86
449.226	5.93
449.584	5.79
449.941	5.87
450.299	5.92
450.656	5.86
451.014	5.96
451.371	5.87
451.729	6.01
452.086	5.9
452.443	5.91
452.801	6.12
453.158	6.02
453.515	6.1
453.872	5.87
454.229	5.96
454.586	5.96
454.943	5.99
455.3	5.96
455.657	5.98
456.014	5.97
456.371	6.02
456.727	6.02
457.084	5.86
457.441	5.98
457.797	5.89
458.154	6.03
458.51	5.92
458.867	6.2
459.223	5.77
459.58	5.97
459.936	6.05
460.292	5.86
460.648	5.93
461.005	5.96
461.361	5.9
461.717	5.92
462.073	5.88
462.429	6.02
462.785	5.97
463.141	6.01
463.496	6.07
463.852	5.96
464.208	5.85
464.564	6.13
464.919	5.97
465.275	5.98
465.631	6.06
465.986	6.07
466.342	6.12
466.697	6.05
467.052	5.91
467.408	6.04
467.763	5.84
468.118	6.05
468.473	6.23
468.829	5.99
469.184	5.94
469.539	6.01
469.894	5.95
470.249	5.9
470.603	6.11
470.958	6.31
471.313	5.96
471.668	6.02
472.023	6.07
472.377	6.16
472.732	6.1
473.086	6.06
473.441	5.97
473.795	6.25
474.15	5.92
474.504	6.11
474.859	6.09
475.213	6.12
475.567	6.12
475.921	6.21
476.275	6.02
476.63	6.04
476.984	6.1
477.338	6.12
477.692	6.07
478.045	6.12
478.399	6.04
478.753	6.11
479.107	6.13
479.461	6.01
479.814	6.07
480.168	6.04
480.521	5.96
480.875	6.11
481.228	6.06
481.582	6.16
481.935	6.14
482.289	6.09
482.642	6.02
482.995	6.07
483.348	6.11
483.701	6
484.055	6.03
484.408	6.07
484.761	6.03
485.114	5.85
485.466	5.69
485.819	5.71
486.172	5.69
486.525	5.78
486.878	5.79
487.23	5.91
487.583	5.94
487.936	5.94
488.288	5.94
488.641	5.9
488.993	5.9
489.345	5.82
489.698	5.82
490.05	5.84
490.402	5.94
490.754	5.87
491.107	6.01
491.459	6.02
491.811	6.07
492.163	6.02
492.515	5.99
492.866	5.98
493.218	5.86
493.57	5.87
493.922	5.89
494.274	5.85
494.625	5.99
494.977	6
495.328	6.07
495.68	6.19
496.031	6.2
496.383	6.17
496.734	6.21
497.086	6.09
497.437	6.24
497.788	6.09
498.139	6.18
498.49	6.14
498.842	6.04
499.193	6.18
499.544	6.18
499.894	6.09
500.245	6.19
500.596	6.2
500.947	6.15
501.298	6.18
501.648	6.13
501.999	6.19
502.35	6.25
502.7	6.26
503.051	6.23
503.401	6.13
503.752	6.19
504.102	6.19
504.452	6.32
504.803	6.27
505.153	6.16
505.503	6.36
505.853	6.2
506.203	6.25
506.553	6.32
506.903	6.11
507.253	6.25
507.603	6.29
507.953	6.2
508.303	6.49
508.652	6.36
509.002	6.3
509.352	6.28
509.701	6.24
510.051	6.26
510.4	6.21
510.75	6.22
511.099	6.19
511.449	6.22
511.798	6.3
512.147	6.27
512.496	6.19
512.846	6.18
513.195	6.16
513.544	6.27
513.893	6.17
514.242	6.22
514.591	6.23
514.939	6.28
515.288	6.36
515.637	6.24
515.986	6.41
516.334	6.18
516.683	6.29
517.032	6.32
517.38	6.32
517.729	6.25
518.077	6.32
518.426	6.17
518.774	6.25
519.122	6.34
519.47	6.36
519.819	6.28
520.167	6.14
520.515	6.21
520.863	6.11
521.211	6.08
521.559	6.28
521.907	6.4
522.255	6.31
522.602	6.18
522.95	6.3
523.298	6.19
523.645	6.31
523.993	6.37
524.341	6.22
524.688	6.34
525.036	6.39
525.383	6.33
525.73	6.31
526.078	6.42
526.425	6.39
526.772	6.26
527.119	6.24
527.466	6.38
527.814	6.22
528.161	6.28
528.508	6.21
528.854	6.25
529.201	6.16
529.548	6.06
529.895	6.12
530.242	6.02
530.588	6.07
530.935	6.08
531.282	6.08
531.628	6.01
531.975	6.16
532.321	6.2
532.667	6.24
533.014	6.38
533.36	6.3
533.706	6.35
534.052	6.28
534.399	6.38
534.745	6.29
535.091	6.15
535.437	6.2
535.783	6.24
536.129	6.22
536.474	6.24
536.82	6.33
537.166	6.35
537.512	6.41
537.857	6.35
538.203	6.49
538.549	6.27
538.894	6.25
539.239	6.32
539.585	6.29
539.93	6.29
540.276	6.35
540.621	6.38
540.966	6.49
541.311	6.44
541.656	6.34
542.001	6.43
542.346	6.44
542.691	6.29
543.036	6.26
543.381	6.16
543.726	6.18
544.071	6.27
544.415	6.23
544.76	6.3
545.105	6.31
545.449	6.38
545.794	6.39
546.138	6.51
546.483	6.38
546.827	6.41
547.171	6.53
547.516	6.53
547.86	6.37
548.204	6.43
548.548	6.36
548.892	6.31
549.236	6.46
549.58	6.52
549.924	6.41
550.268	6.42
550.612	6.52
550.956	6.46
551.3	6.53
551.643	6.55
551.987	6.49
552.33	6.59
552.674	6.56
553.017	6.43
553.361	6.47
553.704	6.58
554.048	6.53
554.391	6.46
554.734	6.46
555.077	6.62
555.42	6.62
555.764	6.55
556.107	6.71
556.45	6.53
556.793	6.58
557.135	6.69
557.478	6.47
557.821	6.68
558.164	6.52
558.507	6.86
558.849	6.81
559.192	6.47
559.534	6.65
559.877	6.65
560.219	6.62
560.562	6.49
560.904	6.73
561.246	6.54
561.589	6.61
561.931	6.44
562.273	6.73
562.615	6.57
562.957	6.66
563.299	6.71
563.641	6.62
563.983	6.76
564.325	6.52
564.667	6.83
565.008	6.78
565.35	6.59
565.692	6.64
566.033	6.59
566.375	6.55
566.716	6.69
567.058	6.72
567.399	6.75
567.741	6.52
568.082	6.78
568.423	6.6
568.764	6.58
569.105	6.48
569.447	6.57
569.788	6.74
570.129	6.54
570.47	6.79
570.811	6.58
571.151	6.95
571.492	6.8
571.833	6.76
572.174	6.72
572.514	6.59
572.855	6.67
573.195	6.79
573.536	6.88
573.876	6.87
574.217	6.52
574.557	6.71
574.898	6.69
575.238	6.5
575.578	6.78
575.918	6.67
576.258	6.59
576.598	6.51
576.938	6.69
577.278	6.61
577.618	6.7
577.958	6.57
578.298	6.56
578.638	6.77
578.977	6.7
579.317	6.77
579.657	6.64
579.996	6.73
580.336	7.03
580.675	6.91
581.014	6.89
581.354	6.63
581.693	6.75
582.032	6.77
582.372	6.86
582.711	6.76
583.05	6.96
583.389	6.99
583.728	6.51
584.067	6.69
584.406	6.75
584.745	6.66
585.083	6.64
585.422	6.82
585.761	7
586.1	7.02
586.438	6.82
586.777	6.93
587.115	6.56
587.454	6.74
587.792	6.82
588.13	6.84
588.469	6.68
588.807	6.86
589.145	6.97
589.483	6.95
589.821	6.51
590.159	6.88
590.497	6.82
590.835	6.9
591.173	6.95
591.511	6.74
591.849	7.02
592.187	6.75
592.524	6.96
592.862	6.82
593.2	6.72
593.537	6.78
593.875	6.85
594.212	6.89
594.55	7.04
594.887	7.14
595.224	7.03
595.561	7.16
595.899	7.24
596.236	6.84
596.573	7.22
596.91	6.77
597.247	7.08
597.584	7
597.921	6.78
598.258	6.83
598.594	7.06
598.931	6.76
599.268	6.68
599.604	6.85
599.941	6.68
600.277	6.95
600.614	6.86
600.95	7.12
601.287	6.86
601.623	7.12
601.959	6.86
602.296	7
602.632	7.14
602.968	6.76
603.304	6.98
603.64	7.04
603.976	7.12
604.312	7.27
604.648	6.81
604.984	6.92
605.319	7.04
605.655	7
605.991	6.7
606.326	6.86
606.662	7.1
606.998	6.83
607.333	6.82
607.668	7.05
608.004	7.04
608.339	6.88
608.674	6.87
609.01	6.83
609.345	6.89
609.68	6.53
610.015	7.2
610.35	7.09
610.685	7.1
611.02	6.76
611.355	6.93
611.689	6.94
612.024	6.74
612.359	6.92
612.694	6.94
613.028	6.81
613.363	7.01
613.697	7.25
614.032	7.13
614.366	6.9
614.7	6.65
615.035	7.14
615.369	7.05
615.703	7.22
616.037	7.22
616.371	7.21
616.705	6.8
617.039	7.13
617.373	7.1
617.707	7.26
618.041	6.91
618.375	7.07
618.709	6.77
619.042	6.83
619.376	7.09
619.71	6.87
620.043	6.97
620.377	7.32
620.71	7.03
621.043	7.38
621.377	7.13
621.71	7.04
622.043	7.42
622.376	7.05
622.709	7.25
623.043	7.51
623.376	6.87
623.709	6.98
624.041	6.9
624.374	6.83
624.707	7.08
625.04	7.33
625.373	7.43
625.705	6.66
626.038	7.36
626.37	7.05
626.703	7.45
627.035	7.19
627.368	7.34
627.7	7.44
628.032	7.06
628.365	7.51
628.697	7.26
629.029	7.09
629.361	7.33
629.693	7.15
630.025	7.21
630.357	7.23
630.689	7.37
631.021	7.5
631.353	6.95
631.684	7.47
632.016	6.88
632.348	7.09
632.679	7.04
633.011	7.39
633.342	7
633.674	7.14
634.005	7.45
634.336	7.48
634.668	7.46
634.999	7.4
635.33	7.38
635.661	7.19
635.992	6.83
636.323	7.12
636.654	7.37
636.985	7.51
637.316	6.9
637.647	7.43
637.977	7.06
638.308	7.23
638.639	7.25
638.969	7.39
639.3	7.1
639.63	7.37
639.961	7.6
640.291	6.8
640.622	7.36
640.952	7.02
641.282	7.65
641.612	7.18
641.943	7.43
642.273	7.44
642.603	7.15
642.933	7.43
643.263	7.37
643.592	7.58
643.922	7.29
644.252	7.44
644.582	7.44
644.911	7.18
645.241	6.78
645.571	7.17
645.9	7.09
646.23	7.57
646.559	7.33
646.888	7.33
647.218	7.23
647.547	7.23
647.876	7.18
648.205	7.11
648.534	7.13
648.863	7.12
649.192	7.47
649.521	7.44
649.85	7.77
650.179	7.37
650.508	7.41
650.837	7.41
651.165	7.17
651.494	7.61
651.822	7.1
652.151	7.21
652.479	7.27
652.808	7.47
653.136	7.24
653.465	7.4
653.793	7.38
654.121	7.23
654.449	7.05
654.777	7.63
655.105	7.19
655.433	7.7
655.761	7.22
656.089	6.91
656.417	7.75
656.745	7.44
657.073	7.1
657.4	7.76
657.728	8.2
658.056	7.73
658.383	7.59
658.711	7.91
659.038	7.41
659.365	7.37
659.693	7.1
660.02	7.43
660.347	7.6
660.674	7.83
661.001	7.05
661.329	7.41
661.656	7.54
661.982	7.76
662.309	7.94
662.636	7.94
662.963	7.26
663.29	7.54
663.616	8.07
663.943	7.37
664.27	7.7
664.596	7.5
664.923	7.41
665.249	6.91
665.576	7.19
665.902	7.45
666.228	7.53
666.554	7.19
666.881	8.05
667.207	7.73
667.533	7.16
667.859	7.32
668.185	7.66
668.511	7.47
668.837	8.07
669.162	7.06
669.488	7.18
669.814	7.33
670.139	7.69
670.465	7.22
670.791	7.64
671.116	7.37
671.442	7.33
671.767	7.2
672.092	8.01
672.418	7.58
672.743	7.27
673.068	7.82
673.393	7.74
673.718	7.63
674.043	7.97
674.368	8.64
674.693	7.96
675.018	7.63
675.343	7.18
675.667	7.05
675.992	7.6
676.317	7.61
676.641	7.31
676.966	7.88
677.29	7.96
677.615	7.36
677.939	8.04
678.264	8.04
678.588	8.13
678.912	7.81
679.236	7.57
679.56	7.65
679.885	7.95
680.209	7.65
680.532	7.95
680.856	8.15
681.18	7.21
681.504	7.33
681.828	7.62
682.152	7.65
682.475	7.89
682.799	7.2
683.122	7.52
683.446	7.95
683.769	8.22
684.093	7.76
684.416	7.9
684.739	8.09
685.062	7.47
685.386	7.96
685.709	7.29
686.032	8.33
686.355	7.54
686.678	7.95
687.001	7.03
687.324	7.7
687.646	8.29
687.969	8.13
688.292	7.63
688.614	7.09
688.937	8.05
689.26	7.93
689.582	7.59
689.904	8.4
690.227	7.77
690.549	7.01
690.871	7.43
691.194	7.26
691.516	8.14
691.838	8.15
692.16	7.88
692.482	6.95
692.804	7.71
693.126	8.46
693.448	7.58
693.769	7.66
694.091	7
694.413	8.23
694.735	7.68
695.056	7.63
695.378	7.33
695.699	7.16
696.021	8.02
696.342	7.71
696.663	8.86
696.984	7.93
697.306	8.5
697.627	7.18
697.948	7.76
698.269	8.05
698.59	8.6
698.911	8.05
699.232	8.11
699.553	8.28
699.873	8.54
700.194	8.68
700.515	7.85
700.835	7.79
701.156	7.98
701.477	8.6
701.797	8
702.117	7.91
702.438	7.17
702.758	8.08
703.078	7.77
703.398	8.23
703.719	8.03
704.039	8.91
704.359	8.18
704.679	6.71
704.999	6.14
705.319	6.09
705.638	7.44
705.958	7.66
706.278	8.19
706.597	7.46
706.917	8.07
707.237	8.39
707.556	8.12
707.876	7.29
708.195	7.99
708.514	8.74
708.834	9.42
709.153	8.32
709.472	7.88
709.791	7.59
710.11	8.64
710.429	8.27
710.748	7.73
711.067	8.95
711.386	7.86
711.705	8.4
712.023	8.09
712.342	7.39
712.661	8.26
712.979	7.99
713.298	8.58
713.616	9.42
713.935	7.82
714.253	8.43
714.572	7.08
714.89	8.59
715.208	8.21
715.526	8.22
715.844	8.22
716.162	9.69
716.48	7.94
716.798	8.82
717.116	8.63
717.434	9.13
717.752	7.71
718.069	8.5
718.387	8.09
718.705	7.19
719.022	8.19
719.34	8.35
719.657	9.29
719.975	7.79
720.292	8.42
720.609	8.03
720.927	8.02
721.244	8.04
721.561	9.23
721.878	8.8
722.195	10.65
722.512	8.26
722.829	8.73
723.146	7.92
723.463	8.51
723.779	8.61
724.096	8.42
724.413	7.99
724.729	7.37
725.046	4.63
725.362	8.88
725.679	8.03
725.995	8.1
726.311	7.29
726.628	7.87
726.944	7.94
727.26	7.67
727.576	8.42
727.892	6.68
728.208	7.99
728.524	8.5
728.84	8.95
729.156	8.29
729.472	7.26
729.787	9.28
730.103	9.1
730.419	8.01
730.734	8.28
731.05	8.74
731.365	8.76
731.681	9.16
731.996	8.97
732.311	8.42
732.626	8.48
732.942	8.96
733.257	8.93
733.572	8.41
733.887	7.77
734.202	7.38
734.517	8.24
734.832	7.6
735.146	7.98
735.461	8.52
735.776	8.1
736.091	7.24
736.405	8.38
736.72	7.47
737.034	7.41
737.349	8.42
737.663	10
737.977	8.34
738.292	9.65
738.606	7.75
738.92	9.21
739.234	9.48
739.548	7.41
739.862	8.99
740.176	7.78
740.49	9.66
740.804	8.65
741.117	10.08
741.431	9.09
741.745	7.32
742.058	7.19
742.372	7.61
742.685	8.19
742.999	8.62
743.312	9.06
743.626	7.86
743.939	8.48
744.252	8.83
744.565	7.05
744.878	7.52
745.191	7.95
745.505	8.02
745.817	9.16
746.13	10.61
746.443	8.02
746.756	7.4
747.069	9.89
747.381	9.68
747.694	9.74
748.007	9.11
748.319	9.11
748.632	6.08
748.944	8.41
749.256	8.91
749.569	8.3
749.881	8.04
750.193	9.15
750.505	11.24
750.817	9.09
751.129	8.58
751.441	7.38
751.753	8.14
752.065	8.66
752.377	11.51
752.689	9.03
753	9.1
753.312	9.6
753.624	7.48
753.935	9.68
754.247	9.71
754.558	8.98
754.869	7.53
755.181	11.18
755.492	9.7
755.803	9.11
756.114	10.24
756.425	9.85
756.736	6.76
757.047	7.96
757.358	8.23
757.669	8
757.98	8.95
758.291	6.93
758.601	7.9
758.912	6.86
759.223	7.01
759.533	8.53
759.844	7.47
760.154	8.39
760.464	9.89
760.775	9.17
761.085	10.71
761.395	11.87
761.705	7.16
762.016	8.49
762.326	8.97
762.636	9.17
762.945	8.64
763.255	8.31
763.565	9.49
763.875	9.02
764.185	10.95
764.494	10.03
764.804	9.49
765.113	9.49
765.423	8.86
765.732	9.52
766.042	7.52
766.351	8.67
766.66	8.44
766.97	8.52
767.279	8.33
767.588	7.76
767.897	10.49
768.206	8.38
768.515	9.46
768.824	10.22
769.133	10.9
769.441	8.02
769.75	9.96
770.059	9.6
770.367	10.79
770.676	9.22
770.984	8.67
771.293	12.57
771.601	7.35
771.91	8.77
772.218	9.08
772.526	8.85
772.834	9.63
773.142	7.73
773.45	10.02
773.758	7.35
774.066	8.93
774.374	9.74
774.682	8.45
774.99	5.68
775.298	6.01
775.605	11.81
775.913	4.99
776.22	6.92
776.528	9.89
776.835	13.07
777.143	7.32
777.45	8.48
777.757	9.46
778.065	7.79
778.372	6.77
778.679	7.83
778.986	8.1
779.293	7.45
779.6	7.04
779.907	10.28
780.214	10
780.52	12.08
780.827	10.95
781.134	7.6
781.44	11.08
781.747	9.27
782.053	8.91
782.36	12.19
782.666	10.66
782.973	6.43
783.279	16.74
783.585	9.37
783.891	13.48
784.197	13.79
784.503	11.36
784.809	12.94
785.115	2.25
785.421	11.59
785.727	10.35
786.033	14.54
786.339	7.45
786.644	11.74
786.95	4.78
787.255	6.77
787.561	6.77
787.866	11.29
788.172	8.46
788.477	4.6
788.782	8.32
789.088	6.45
789.393	10.06
789.698	11.86
790.003	7.43
790.308	9.73
790.613	13.25
790.918	6.65
791.223	10.93
791.527	8.93
791.832	9.07
792.137	9.96
792.441	6.91
792.746	14.67
793.05	6.77
793.355	7.26
793.659	11.25
793.963	11.88
794.268	10.87
794.572	8.95
794.876	10.6
795.18	8.96
795.484	8.88
795.788	9.47
796.092	10.92
796.396	7.88
796.7	7.51
797.004	10.02
797.307	7.97
797.611	8.8
797.915	12.74
798.218	9.03
798.522	8.41
798.825	6.91
799.128	9.09
799.432	8.62
799.735	3.33
800.038	11.66
800.341	9.91
800.644	12
800.947	6.66
801.25	16.58
801.553	4.04
801.856	9.82
802.159	9.94
802.462	6.57
802.764	11.66
803.067	13.45
803.37	17.21
803.672	10.34
803.975	8.55
804.277	7.63
804.579	10.8
804.882	10.79
805.184	3.95
805.486	11.82
805.788	14.78
806.09	13.89
806.392	10.02
806.694	5.75
806.996	10.68
807.298	7.03
807.6	9.68
807.902	5.34
808.203	7.75
808.505	11.54
808.807	7.62
809.108	11.75
809.409	12.44
809.711	8.35
810.012	10.97
810.313	10.68
810.615	8.64
810.916	13.88
811.217	6.53
811.518	3.99
811.819	6.55
812.12	8.13
812.421	10.05
812.722	6.61
813.023	14.96
813.323	10
813.624	7.77
813.925	12.68
814.225	7.35
814.526	8.19
814.826	9.41
815.126	10.16
815.427	10.76
815.727	12.77
816.027	16.35
816.327	18.28
816.627	10.55
816.927	11.38
817.227	18
817.527	9.65
817.827	3.54
818.127	11.84
818.427	13.28
818.727	11.74
819.026	8.63
819.326	17.67
819.625	12.08
819.925	12.13
820.224	17.47
820.524	9.95
820.823	9.06
821.122	12.28
821.421	9.97
821.72	12.6
822.019	6.41
822.318	11.13
822.617	12.12
822.916	10.18
823.215	11.09
823.514	8.66
823.813	14.23
824.111	10.46
824.41	9.16
824.709	9.36
825.007	9.43
825.306	9.92
825.604	10.47
825.902	9.43
826.201	10.17
826.499	9.4
826.797	10.1
827.095	9.98
827.393	9.68
827.691	10.43
827.989	11.63
828.287	9.02
828.585	9.55
828.882	9.92
829.18	9.52
829.478	10.2
829.775	9.49
830.073	8.6
830.37	11.01
830.668	10.2
830.965	8.82
831.263	10.68
831.56	8.25
831.857	12.32
832.154	10.19
832.451	8.61
832.748	8.4
833.045	12.55
833.342	9.04
833.639	10.94
833.936	6.21
834.232	18.57
834.529	9.99
834.826	13.32
835.122	11.44
835.419	10.07
835.715	14.35
836.012	8.04
836.308	7.97
836.604	9.98
836.901	9.15
837.197	9.37
837.493	8.34
837.789	10.89
838.085	12.8
838.381	10.09
838.677	13.77
838.972	11.98
839.268	8.91
839.564	7.78
839.86	9.38
840.155	11.54
840.451	4.07
840.746	3.84
841.042	12.54
841.337	5.33
841.632	15.37
841.928	7.61
842.223	11.73
842.518	11.53
842.813	10.34
843.108	6.86
843.403	13.52
843.698	16.36
843.993	-0.48
844.287	22.53
844.582	11.08
844.877	0.02
845.171	4.83
845.466	-2.25
845.761	2.41
846.055	2.76
846.349	-1.07
846.644	10.36
846.938	19.05
847.232	6.81
847.526	15.06
847.82	12.67
848.114	1.37
848.408	1.78
848.702	23.08
848.996	11.69
849.29	9.41
849.584	-0.55
849.877	14.16
850.171	4.98
850.465	-21.23
850.758	8.11
851.052	11.55
851.345	-3.86
851.638	35.4
851.932	11.65
852.225	32.32
852.518	26.99
852.811	22.31
853.104	-9.39
853.397	16.21
853.69	3.38
853.983	-12.37
854.276	-22.25
854.569	21.03
854.861	4.64
855.154	19.09
855.447	20.76
855.739	-0.45
856.032	21.49
856.324	4.11
856.616	13.56
856.909	16.92
857.201	22.64
857.493	17.98
857.785	19.66
858.077	24.98
858.369	-16.87
858.661	33.36
858.953	-24.8
859.245	1.92
859.537	-9.68
859.829	-54.99
860.12	21.19
860.412	15.8
860.703	4
860.995	4.26
861.286	13.29
861.578	17.78
861.869	26.88
862.16	-13.91
862.452	12.59
862.743	-14.03
863.034	5.21
863.325	40.32
863.616	27.68
863.907	12.74
864.198	12.81
864.488	2.25
864.779	16.85
865.07	19.48
865.36	11.91
865.651	6.41
865.941	39.62
866.232	-2.67
866.522	11.45
866.813	-2.73
867.103	-19.61
867.393	-5.17
867.683	-11.17
867.973	-12.05
868.263	36.15
868.553	34.13
868.843	22.75
869.133	12.82
869.423	-37.3
869.713	3.8
870.002	23.28
870.292	-91.77
870.582	-5.57
870.871	8.06
871.161	10.89
871.45	28.22
871.739	0.63
872.029	8.38
872.318	10.25
872.607	-0.56
872.896	-12
873.185	5.92
873.474	0.78
873.763	17.25
874.052	6.09
874.341	-54.31
874.63	10.81
874.918	6.84
875.207	20.27
875.496	54.53
875.784	9.92
876.073	-8.74
876.361	2.95
876.649	24.08
876.938	28.48
877.226	3.76
877.514	26.39
877.802	32.77
878.09	59.33
878.378	33.69
878.666	3.72
878.954	25.73
879.242	-37.38
879.53	19.93
879.817	28.52
880.105	3.91
880.392	-10.28
880.68	-5.33
880.967	41.63
881.255	32.5
881.542	-7.54
881.83	8.95
882.117	27.97
882.404	32.84
882.691	2.88
882.978	-6.01
883.265	-9.68
883.552	-2.11
883.839	14.78
884.126	11.61
884.413	21.12
884.699	14.51
884.986	8.87
885.273	20.24
885.559	20.24
885.846	20.24
