Data from 0001_forehead_Reflection__0__251.txt Node

Date: Thu Dec 15 18:44:26 CST 2022
User: ToomeyLab
Spectrometer: FLMS14357
Trigger mode: 0
Integration Time (sec): 1.000000E-2
Scans to average: 100
Electric dark correction enabled: true
Nonlinearity correction enabled: false
Boxcar width: 0
XAxis mode: Wavelengths
Number of Pixels in Spectrum: 2048
>>>>>Begin Spectral Data<<<<<
189.047	89.72
189.435	89.72
189.823	89.72
190.211	-77.6
190.599	133.63
190.987	-535.53
191.375	153.59
191.763	130.02
192.151	154.12
192.538	28.35
192.926	244.56
193.314	141.91
193.702	64.13
194.089	-822.06
194.477	398.4
194.864	198.25
195.252	46.72
195.639	43.66
196.027	-14.6
196.414	244.15
196.801	36.21
197.189	213.07
197.576	119.85
197.963	-5591.67
198.351	43.41
198.738	-51.45
199.125	-65.05
199.512	40.64
199.899	-38.19
200.286	-2.34
200.673	56.58
201.06	-2.11
201.447	66.62
201.833	36.45
202.22	10.06
202.607	-55.37
202.994	0.87
203.38	12.04
203.767	-0.12
204.154	19.64
204.54	36.81
204.927	-4.82
205.313	16.84
205.699	29.44
206.086	31.55
206.472	31.46
206.858	47.62
207.245	-36.16
207.631	7.68
208.017	47.16
208.403	-34.85
208.789	17.8
209.175	16.11
209.561	-71.64
209.947	-16.46
210.333	31.56
210.719	33.61
211.105	28.18
211.491	9.09
211.876	-50.59
212.262	3.37
212.648	11.79
213.034	-36.13
213.419	-6.22
213.805	-16.05
214.19	-7.07
214.576	-8.5
214.961	8.74
215.346	17.52
215.732	-23.6
216.117	-1.96
216.502	-4.51
216.888	0.65
217.273	-1.55
217.658	4.62
218.043	-36.49
218.428	0.5
218.813	-23.92
219.198	-19.56
219.583	-20.89
219.968	38.15
220.353	-33.8
220.738	-8.44
221.122	-8.85
221.507	-23
221.892	-16.92
222.276	-6.27
222.661	-18.6
223.046	-4.3
223.43	15.75
223.815	6
224.199	4.11
224.583	-4.7
224.968	-4.91
225.352	-11.93
225.736	11.65
226.121	2.44
226.505	-2.15
226.889	-1.19
227.273	-3.61
227.657	0.69
228.041	3.55
228.425	0.23
228.809	-1.38
229.193	1.69
229.577	0.38
229.961	1.49
230.344	1.8
230.728	1.97
231.112	1.58
231.495	0.31
231.879	0.44
232.263	1.5
232.646	0.85
233.03	2.05
233.413	0.4
233.797	2.47
234.18	1.11
234.563	0.94
234.946	1.32
235.33	0.52
235.713	0.64
236.096	2.75
236.479	1.65
236.862	0.43
237.245	1
237.628	1.02
238.011	1.65
238.394	0.38
238.777	2.01
239.16	3.21
239.543	1.85
239.925	-0.31
240.308	-1.1
240.691	0.22
241.073	1.15
241.456	1.42
241.838	0.72
242.221	0.72
242.603	1.6
242.986	1.2
243.368	1.65
243.75	1.81
244.133	1.83
244.515	1.09
244.897	1.17
245.279	0.49
245.661	1.2
246.043	0.67
246.425	2.07
246.807	1.08
247.189	1.34
247.571	1.5
247.953	1.17
248.335	1.59
248.717	1.52
249.098	1.55
249.48	1.29
249.862	1.14
250.243	1.55
250.625	1.73
251.006	2.34
251.388	0.98
251.769	0.93
252.151	1.39
252.532	1.19
252.913	1.65
253.295	1.87
253.676	1.49
254.057	1.43
254.438	1.72
254.819	2.09
255.2	1.8
255.581	2.78
255.962	2.24
256.343	2.6
256.724	2.62
257.105	1
257.486	0.54
257.867	1.91
258.247	1.18
258.628	2
259.009	1.55
259.389	1.24
259.77	1.6
260.15	2.17
260.531	1.48
260.911	1.8
261.292	1.82
261.672	1.69
262.052	1.69
262.432	1.32
262.813	1.38
263.193	1.89
263.573	1.21
263.953	1.28
264.333	1.59
264.713	2.09
265.093	1.61
265.473	0.74
265.853	1.77
266.233	2.2
266.612	1.34
266.992	1.74
267.372	1.95
267.752	1.96
268.131	2.13
268.511	1.8
268.89	2.09
269.27	1.19
269.649	1.68
270.029	1.74
270.408	1.53
270.787	2
271.167	2.18
271.546	2.51
271.925	1.45
272.304	1.73
272.683	1.35
273.062	1.37
273.441	1.19
273.82	1.85
274.199	1.44
274.578	1.65
274.957	1.46
275.336	1.71
275.715	1.48
276.093	1.45
276.472	1.28
276.851	1.91
277.229	1.39
277.608	1.72
277.986	1.63
278.365	1.9
278.743	1.91
279.122	1.52
279.5	2.13
279.878	1.38
280.257	1.95
280.635	1.31
281.013	1.09
281.391	0.89
281.769	2.63
282.147	1.88
282.525	1.24
282.903	1.55
283.281	1.99
283.659	1.76
284.037	1.33
284.415	1.75
284.792	1.81
285.17	1.9
285.548	1.85
285.925	1.36
286.303	2
286.68	1.88
287.058	2.13
287.435	1.61
287.813	1.65
288.19	1.63
288.567	1.48
288.945	1.74
289.322	1.74
289.699	1.85
290.076	1.6
290.453	1.63
290.83	1.76
291.207	1.68
291.584	1.94
291.961	2.44
292.338	1.79
292.715	1.72
293.092	2.45
293.469	1.93
293.845	1.85
294.222	2.45
294.599	1.69
294.975	1.35
295.352	2.14
295.728	2.04
296.105	2.18
296.481	2.43
296.858	2.6
297.234	2.2
297.61	2.4
297.986	2.68
298.363	2.44
298.739	2.53
299.115	2.46
299.491	2.74
299.867	2.23
300.243	2.28
300.619	2.04
300.995	2.51
301.371	2.43
301.746	2.17
302.122	2.33
302.498	2.85
302.874	2.77
303.249	2.4
303.625	2.62
304	2.87
304.376	3.29
304.751	2.78
305.127	2.44
305.502	3.45
305.878	3.14
306.253	2.38
306.628	3.02
307.003	2.76
307.378	3.32
307.754	2.83
308.129	2.44
308.504	3.04
308.879	2.89
309.254	3.49
309.629	2.8
310.003	3.17
310.378	3.3
310.753	3
311.128	2.88
311.502	3.22
311.877	3
312.252	3.12
312.626	3.47
313.001	3.58
313.375	3.57
313.75	3.27
314.124	3.23
314.498	3.68
314.873	3.63
315.247	3.26
315.621	3.33
315.995	3.79
316.369	3.44
316.743	3.42
317.117	3.35
317.491	3.84
317.865	3.05
318.239	4.12
318.613	3.56
318.987	3.24
319.361	3.38
319.734	4.08
320.108	4.03
320.482	4.49
320.855	4.12
321.229	4.12
321.602	3.79
321.976	3.15
322.349	4.51
322.723	4.01
323.096	4.07
323.469	3.91
323.843	4.14
324.216	4.27
324.589	4.37
324.962	4
325.335	3.97
325.708	4.64
326.081	4.23
326.454	4.45
326.827	4.19
327.2	4.07
327.573	4.61
327.945	4.23
328.318	4.55
328.691	4.24
329.063	4.32
329.436	4.07
329.809	4.82
330.181	5.14
330.553	4.9
330.926	4.98
331.298	4.45
331.671	4.9
332.043	4.54
332.415	4.82
332.787	5.11
333.159	4.5
333.532	4.96
333.904	4.93
334.276	4.9
334.648	4.9
335.02	4.7
335.391	4.61
335.763	4.75
336.135	5.32
336.507	4.39
336.879	4.99
337.25	5.27
337.622	5.31
337.993	5.26
338.365	5.44
338.736	5.3
339.108	5.22
339.479	5.01
339.851	5.53
340.222	5.26
340.593	5.34
340.964	5.49
341.336	5.37
341.707	5.36
342.078	5.34
342.449	5.51
342.82	5.31
343.191	5.31
343.562	5.62
343.933	5.47
344.303	5.54
344.674	5.45
345.045	5.7
345.416	5.97
345.786	5.58
346.157	5.89
346.527	5.82
346.898	5.38
347.268	5.73
347.639	5.39
348.009	6.17
348.38	5.46
348.75	5.97
349.12	5.86
349.49	5.78
349.861	6.03
350.231	5.7
350.601	5.72
350.971	5.37
351.341	6.02
351.711	6.17
352.081	5.69
352.45	5.69
352.82	5.75
353.19	5.8
353.56	6.09
353.929	6.18
354.299	6.32
354.669	6.48
355.038	6.46
355.408	6.34
355.777	6.84
356.147	6.27
356.516	5.89
356.885	6.22
357.254	6.15
357.624	5.87
357.993	6.35
358.362	6.33
358.731	6.57
359.1	6.23
359.469	6.39
359.838	6.5
360.207	6.34
360.576	6.46
360.945	6.68
361.314	6.46
361.682	6.27
362.051	6.47
362.42	6.39
362.788	6.67
363.157	6.61
363.525	6.6
363.894	6.35
364.262	6.62
364.631	6.88
364.999	6.84
365.367	6.55
365.735	6.79
366.104	6.76
366.472	6.94
366.84	6.93
367.208	7.07
367.576	6.69
367.944	6.84
368.312	6.9
368.68	7.37
369.048	6.94
369.416	6.79
369.783	6.85
370.151	7.41
370.519	7.43
370.886	7.28
371.254	7.57
371.621	7.33
371.989	7.36
372.356	7.22
372.724	7.23
373.091	7.25
373.458	7.34
373.826	7.46
374.193	7.37
374.56	7.35
374.927	7.38
375.294	7.78
375.661	7.51
376.028	7.49
376.395	7.73
376.762	7.2
377.129	7.64
377.496	7.85
377.863	7.69
378.229	8.03
378.596	7.8
378.963	7.6
379.329	7.82
379.696	7.67
380.062	8.04
380.429	7.69
380.795	8.16
381.161	7.63
381.528	8.06
381.894	7.82
382.26	7.9
382.626	8.11
382.993	7.96
383.359	7.74
383.725	8.01
384.091	8.05
384.457	8.02
384.823	8.24
385.188	7.96
385.554	7.92
385.92	8.2
386.286	8.1
386.651	7.84
387.017	8.51
387.383	8.06
387.748	8.34
388.114	8.46
388.479	8.28
388.845	8.29
389.21	8.7
389.575	8.48
389.94	8.69
390.306	8.61
390.671	8.62
391.036	8.66
391.401	8.59
391.766	8.63
392.131	8.56
392.496	8.7
392.861	8.61
393.226	8.34
393.591	8.63
393.956	8.67
394.32	8.72
394.685	8.82
395.05	8.94
395.414	8.71
395.779	8.98
396.143	8.78
396.508	8.72
396.872	8.76
397.236	9.18
397.601	9.09
397.965	9.03
398.329	9.03
398.694	8.64
399.058	8.93
399.422	8.96
399.786	8.92
400.15	8.86
400.514	9.2
400.878	9
401.242	9.18
401.605	9.28
401.969	9.13
402.333	9.09
402.697	9.35
403.06	9.31
403.424	9.29
403.787	9.42
404.151	9.42
404.514	9.59
404.878	9.32
405.241	9.31
405.604	9.33
405.968	9.37
406.331	9.44
406.694	9.4
407.057	9.29
407.42	9.42
407.783	9.73
408.146	9.7
408.509	9.48
408.872	9.76
409.235	9.65
409.598	9.75
409.961	9.79
410.323	9.9
410.686	9.65
411.049	9.78
411.411	9.52
411.774	9.73
412.136	9.74
412.499	10.01
412.861	9.63
413.223	9.69
413.586	9.98
413.948	10.03
414.31	10.06
414.672	9.88
415.035	9.98
415.397	9.95
415.759	9.75
416.121	10.04
416.483	10.14
416.845	10.16
417.206	10.08
417.568	9.9
417.93	10.16
418.292	10.06
418.653	9.95
419.015	10.19
419.377	10.01
419.738	9.96
420.1	10.04
420.461	10.03
420.822	10.27
421.184	10.16
421.545	10.08
421.906	10.19
422.267	10.05
422.629	10.06
422.99	10.07
423.351	10.08
423.712	10.19
424.073	10.29
424.434	10.27
424.795	10.24
425.155	10.18
425.516	10.18
425.877	10.28
426.238	10.31
426.598	10.33
426.959	10.41
427.32	10.41
427.68	10.54
428.041	10.63
428.401	10.61
428.761	10.69
429.122	10.74
429.482	10.72
429.842	10.66
430.202	10.93
430.563	10.85
430.923	10.97
431.283	10.88
431.643	10.85
432.003	10.93
432.363	11.28
432.722	11.1
433.082	10.9
433.442	11.06
433.802	11.03
434.161	11.09
434.521	10.97
434.881	11.12
435.24	11
435.6	11.07
435.959	11
436.319	11.26
436.678	11.25
437.037	11.24
437.396	11.38
437.756	11.27
438.115	11.25
438.474	11.39
438.833	11.35
439.192	11.33
439.551	11.29
439.91	11.34
440.269	11.45
440.628	11.33
440.987	11.45
441.345	11.28
441.704	11.4
442.063	11.36
442.421	11.44
442.78	11.36
443.138	11.49
443.497	11.41
443.855	11.65
444.214	11.61
444.572	11.7
444.93	11.82
445.288	11.67
445.647	11.67
446.005	11.65
446.363	11.79
446.721	11.78
447.079	11.56
447.437	11.64
447.795	11.44
448.153	11.61
448.51	11.62
448.868	11.71
449.226	11.93
449.584	11.79
449.941	11.95
450.299	11.91
450.656	11.97
451.014	12.16
451.371	12.16
451.729	12.12
452.086	12.33
452.443	12.39
452.801	12.33
453.158	12.44
453.515	12.13
453.872	12.16
454.229	12.16
454.586	12.25
454.943	12.39
455.3	12.38
455.657	12.44
456.014	12.52
456.371	12.63
456.727	12.63
457.084	12.68
457.441	12.61
457.797	12.64
458.154	12.69
458.51	12.44
458.867	12.57
459.223	12.69
459.58	12.74
459.936	12.57
460.292	12.64
460.648	12.52
461.005	12.65
461.361	12.53
461.717	12.51
462.073	12.63
462.429	12.86
462.785	12.8
463.141	12.94
463.496	12.95
463.852	13.01
464.208	13.08
464.564	13.05
464.919	13.15
465.275	13.23
465.631	13.43
465.986	13.38
466.342	13.1
466.697	13.24
467.052	13.5
467.408	13.44
467.763	13.37
468.118	13.35
468.473	13.25
468.829	13.25
469.184	13.65
469.539	13.4
469.894	13.54
470.249	13.55
470.603	13.81
470.958	13.59
471.313	13.58
471.668	13.74
472.023	13.73
472.377	13.79
472.732	13.93
473.086	13.84
473.441	13.78
473.795	14.03
474.15	13.85
474.504	13.77
474.859	13.58
475.213	14.18
475.567	13.88
475.921	13.99
476.275	14.23
476.63	14.25
476.984	14.07
477.338	14.21
477.692	14.05
478.045	14.06
478.399	14.13
478.753	14.16
479.107	14.25
479.461	14.03
479.814	14.08
480.168	14.19
480.521	14.35
480.875	14.48
481.228	14.36
481.582	14.37
481.935	14.42
482.289	14.24
482.642	14.43
482.995	14.29
483.348	14.28
483.701	14.37
484.055	14.16
484.408	14.04
484.761	13.92
485.114	13.72
485.466	13.57
485.819	13.66
486.172	13.78
486.525	13.94
486.878	14.04
487.23	14.25
487.583	14.4
487.936	14.32
488.288	14.25
488.641	14.09
488.993	14.06
489.345	14.02
489.698	14.08
490.05	14.2
490.402	14.33
490.754	14.43
491.107	14.61
491.459	14.82
491.811	14.85
492.163	14.8
492.515	14.66
492.866	14.45
493.218	14.4
493.57	14.54
493.922	14.68
494.274	14.88
494.625	15.09
494.977	15.18
495.328	15.37
495.68	15.3
496.031	15.41
496.383	15.54
496.734	15.55
497.086	15.58
497.437	15.56
497.788	15.63
498.139	15.46
498.49	15.48
498.842	15.52
499.193	15.48
499.544	15.58
499.894	15.64
500.245	15.72
500.596	15.8
500.947	15.85
501.298	15.87
501.648	15.91
501.999	16.01
502.35	15.91
502.7	16.3
503.051	16.18
503.401	16.09
503.752	16.07
504.102	16.13
504.452	16.11
504.803	16.01
505.153	16.26
505.503	16.23
505.853	16.24
506.203	16.38
506.553	16.32
506.903	16.37
507.253	16.3
507.603	16.43
507.953	16.32
508.303	16.47
508.652	16.34
509.002	16.49
509.352	16.55
509.701	16.43
510.051	16.59
510.4	16.47
510.75	16.4
511.099	16.39
511.449	16.78
511.798	16.55
512.147	16.69
512.496	16.72
512.846	16.66
513.195	16.79
513.544	16.71
513.893	16.83
514.242	16.93
514.591	16.95
514.939	17.05
515.288	17.08
515.637	17.01
515.986	17.01
516.334	17.21
516.683	17.2
517.032	17.12
517.38	17.07
517.729	17.29
518.077	17.31
518.426	17.31
518.774	17.21
519.122	17.17
519.47	17.18
519.819	17.03
520.167	16.95
520.515	17.12
520.863	17.22
521.211	17.22
521.559	17.25
521.907	17.47
522.255	17.48
522.602	17.63
522.95	17.72
523.298	17.69
523.645	17.74
523.993	17.87
524.341	17.93
524.688	17.9
525.036	17.74
525.383	17.93
525.73	17.83
526.078	18.01
526.425	17.85
526.772	17.68
527.119	17.73
527.466	17.72
527.814	17.73
528.161	17.83
528.508	17.91
528.854	17.77
529.201	17.69
529.548	17.56
529.895	17.36
530.242	17.27
530.588	17.42
530.935	17.55
531.282	17.63
531.628	17.82
531.975	17.91
532.321	18.08
532.667	18.21
533.014	18.27
533.36	18.37
533.706	18.26
534.052	18.26
534.399	18.1
534.745	18
535.091	17.97
535.437	18.18
535.783	18.29
536.129	18.43
536.474	18.69
536.82	18.69
537.166	18.69
537.512	18.76
537.857	18.53
538.203	18.59
538.549	18.7
538.894	18.72
539.239	18.98
539.585	19.08
539.93	19.11
540.276	19.27
540.621	19.34
540.966	19.34
541.311	19.27
541.656	19.21
542.001	19.14
542.346	18.93
542.691	18.74
543.036	18.68
543.381	18.8
543.726	18.91
544.071	19.07
544.415	19.19
544.76	19.3
545.105	19.32
545.449	19.38
545.794	19.49
546.138	19.65
546.483	19.67
546.827	19.6
547.171	19.82
547.516	19.94
547.86	19.87
548.204	19.74
548.548	19.66
548.892	19.78
549.236	19.88
549.58	20.14
549.924	20.19
550.268	20.22
550.612	20.48
550.956	20.59
551.3	20.66
551.643	20.62
551.987	20.66
552.33	20.74
552.674	20.61
553.017	20.83
553.361	20.76
553.704	20.75
554.048	20.72
554.391	20.74
554.734	20.88
555.077	20.79
555.42	20.8
555.764	21.09
556.107	21.11
556.45	21.05
556.793	21.03
557.135	21.15
557.478	21.26
557.821	21.34
558.164	21.21
558.507	21.25
558.849	21.32
559.192	21.29
559.534	21.4
559.877	21.19
560.219	21.24
560.562	21.52
560.904	21.58
561.246	21.42
561.589	21.49
561.931	21.51
562.273	21.67
562.615	21.57
562.957	21.67
563.299	21.57
563.641	21.67
563.983	21.93
564.325	21.93
564.667	21.93
565.008	21.95
565.35	21.7
565.692	22.18
566.033	22.12
566.375	21.96
566.716	21.88
567.058	21.92
567.399	21.98
567.741	22.12
568.082	22.1
568.423	21.93
568.764	22.12
569.105	22.2
569.447	22.2
569.788	22.19
570.129	22.29
570.47	22.48
570.811	22.51
571.151	22.53
571.492	22.55
571.833	22.5
572.174	22.53
572.514	22.75
572.855	22.65
573.195	22.45
573.536	22.68
573.876	22.51
574.217	22.73
574.557	22.56
574.898	22.76
575.238	23.17
575.578	22.99
575.918	22.92
576.258	23.19
576.598	22.77
576.938	22.96
577.278	23.08
577.618	23.18
577.958	23.18
578.298	23.44
578.638	23.14
578.977	23.33
579.317	23.43
579.657	23.32
579.996	23.6
580.336	23.52
580.675	23.76
581.014	23.76
581.354	23.66
581.693	23.79
582.032	23.95
582.372	23.95
582.711	23.88
583.05	24.07
583.389	24.01
583.728	24.05
584.067	23.85
584.406	23.92
584.745	24.1
585.083	23.94
585.422	24.34
585.761	24.16
586.1	24.44
586.438	23.98
586.777	24.4
587.115	24.52
587.454	24.5
587.792	24.34
588.13	24.42
588.469	24.49
588.807	24.47
589.145	24.55
589.483	24.51
589.821	24.64
590.159	24.41
590.497	24.56
590.835	24.71
591.173	24.9
591.511	25.11
591.849	24.68
592.187	24.69
592.524	25.01
592.862	24.83
593.2	25.02
593.537	24.76
593.875	24.94
594.212	25.01
594.55	24.91
594.887	25.04
595.224	25.2
595.561	25.1
595.899	25.22
596.236	24.87
596.573	24.8
596.91	25.19
597.247	25.15
597.584	25.33
597.921	25.54
598.258	25.38
598.594	25.21
598.931	24.98
599.268	25.06
599.604	25.36
599.941	25.58
600.277	25.36
600.614	25.78
600.95	25.52
601.287	25.6
601.623	25.73
601.959	26.22
602.296	26.07
602.632	25.91
602.968	26.17
603.304	26.17
603.64	25.96
603.976	26
604.312	26.04
604.648	25.97
604.984	25.77
605.319	25.75
605.655	25.92
605.991	26.01
606.326	26.01
606.662	25.93
606.998	26.13
607.333	26.01
607.668	26.1
608.004	26.31
608.339	26.14
608.674	26.38
609.01	26.65
609.345	26.44
609.68	26.56
610.015	26.57
610.35	26.67
610.685	26.06
611.02	26.38
611.355	26.61
611.689	26.71
612.024	26.59
612.359	26.8
612.694	26.59
613.028	26.95
613.363	26.77
613.697	27.12
614.032	26.89
614.366	27.16
614.7	26.95
615.035	26.9
615.369	27.74
615.703	27.47
616.037	27.52
616.371	27.21
616.705	27.29
617.039	27.59
617.373	27.39
617.707	27.55
618.041	27.32
618.375	27.23
618.709	27.92
619.042	27.74
619.376	27.38
619.71	27.91
620.043	28.05
620.377	27.63
620.71	27.51
621.043	27.5
621.377	27.71
621.71	28.02
622.043	27.96
622.376	27.93
622.709	28.18
623.043	28.05
623.376	27.78
623.709	28.25
624.041	27.81
624.374	28.02
624.707	27.89
625.04	28.27
625.373	28.5
625.705	28.09
626.038	28.41
626.37	28.07
626.703	28.4
627.035	28.49
627.368	28.64
627.7	28.4
628.032	28.37
628.365	28.79
628.697	28.79
629.029	28.44
629.361	28.6
629.693	28.57
630.025	28.73
630.357	28.42
630.689	28.52
631.021	28.99
631.353	28.89
631.684	28.47
632.016	28.84
632.348	28.64
632.679	28.84
633.011	29.02
633.342	29.27
633.674	28.96
634.005	28.84
634.336	29.45
634.668	29.04
634.999	28.95
635.33	29.36
635.661	29.28
635.992	29.56
636.323	29.4
636.654	29.31
636.985	29.42
637.316	29.02
637.647	29.56
637.977	29.43
638.308	29.75
638.639	29.93
638.969	29.51
639.3	29.61
639.63	29.51
639.961	29.84
640.291	29.61
640.622	30.14
640.952	29.85
641.282	29.56
641.612	30.08
641.943	29.72
642.273	29.83
642.603	30.48
642.933	30.07
643.263	30.34
643.592	30.25
643.922	30.4
644.252	30.36
644.582	30.72
644.911	30.25
645.241	30.07
645.571	30.81
645.9	30.96
646.23	30.41
646.559	30.31
646.888	30.4
647.218	30.19
647.547	30.71
647.876	30.35
648.205	30.38
648.534	30.63
648.863	30.48
649.192	30.61
649.521	31.4
649.85	31.11
650.179	31.37
650.508	30.38
650.837	30.69
651.165	31.06
651.494	31.01
651.822	31.36
652.151	30.92
652.479	31.12
652.808	31.21
653.136	30.83
653.465	30.74
653.793	31.32
654.121	31.29
654.449	30.82
654.777	31.3
655.105	30.96
655.433	31.48
655.761	31
656.089	31.4
656.417	31.34
656.745	31.53
657.073	31.34
657.4	31.93
657.728	31.37
658.056	31.79
658.383	31.33
658.711	32.04
659.038	31.95
659.365	31.62
659.693	31.69
660.02	31.83
660.347	31.57
660.674	31.52
661.001	31.18
661.329	31.78
661.656	31.65
661.982	31.49
662.309	31.96
662.636	31.93
662.963	32.15
663.29	32.1
663.616	31.65
663.943	32.39
664.27	31.6
664.596	31.55
664.923	32.53
665.249	31.98
665.576	32.14
665.902	31.9
666.228	32.65
666.554	32.77
666.881	32.08
667.207	32.97
667.533	32.78
667.859	32.12
668.185	32.34
668.511	32.81
668.837	32.49
669.162	32.4
669.488	32.57
669.814	32.92
670.139	33.05
670.465	32.66
670.791	32.78
671.116	32.71
671.442	32.16
671.767	33.15
672.092	33.11
672.418	32.15
672.743	32.66
673.068	32.63
673.393	32.75
673.718	32.98
674.043	33.18
674.368	32.74
674.693	33.29
675.018	33.15
675.343	33.85
675.667	33.05
675.992	33.52
676.317	32.53
676.641	33.44
676.966	33.21
677.29	33.78
677.615	33.5
677.939	33.44
678.264	32.66
678.588	34.15
678.912	33.94
679.236	33.33
679.56	33.78
679.885	33.35
680.209	33.88
680.532	34.11
680.856	34
681.18	33.97
681.504	33.77
681.828	33.54
682.152	33.54
682.475	33.92
682.799	33.62
683.122	33.88
683.446	33.56
683.769	34.15
684.093	33.68
684.416	33.72
684.739	34
685.062	34.85
685.386	34.22
685.709	34
686.032	33.49
686.355	35.18
686.678	34.2
687.001	34.82
687.324	34.09
687.646	34.14
687.969	33.97
688.292	34.42
688.614	34.49
688.937	34.72
689.26	34.37
689.582	34.6
689.904	34.85
690.227	35.2
690.549	35.42
690.871	34.78
691.194	33.72
691.516	33.94
691.838	34.54
692.16	34.82
692.482	34.5
692.804	34.18
693.126	34.8
693.448	35.14
693.769	34.56
694.091	34.97
694.413	34.62
694.735	34.8
695.056	34.94
695.378	34.2
695.699	34.64
696.021	34.64
696.342	35.12
696.663	35.19
696.984	34.56
697.306	34.85
697.627	36.1
697.948	35.44
698.269	35.41
698.59	36.25
698.911	35.25
699.232	35.88
699.553	35.66
699.873	35.15
700.194	35.41
700.515	35.29
700.835	35
701.156	35.44
701.477	35.21
701.797	34.97
702.117	35.61
702.438	35.44
702.758	35.49
703.078	36
703.398	35.29
703.719	35.68
704.039	35.54
704.359	35.6
704.679	36.52
704.999	35.56
705.319	36.5
705.638	36.04
705.958	35.61
706.278	35.41
706.597	35.24
706.917	36.68
707.237	35.66
707.556	35.99
707.876	35.48
708.195	35.58
708.514	36.33
708.834	36.02
709.153	36.5
709.472	36.95
709.791	36.39
710.11	36.26
710.429	35.54
710.748	36.17
711.067	36.31
711.386	36.44
711.705	36.84
712.023	37.31
712.342	36.86
712.661	36.81
712.979	36.98
713.298	36.74
713.616	37.11
713.935	37.09
714.253	36.75
714.572	36.1
714.89	35.84
715.208	35.78
715.526	36.27
715.844	36.36
716.162	36.81
716.48	36.7
716.798	36.05
717.116	37.57
717.434	36.91
717.752	36.89
718.069	36.81
718.387	37.55
718.705	37.2
719.022	37.79
719.34	36.32
719.657	37.02
719.975	36.93
720.292	37.46
720.609	35.32
720.927	37.19
721.244	37.93
721.561	36.35
721.878	37.38
722.195	36.84
722.512	37.68
722.829	37.99
723.146	37.61
723.463	37.21
723.779	36.19
724.096	36.27
724.413	36.97
724.729	37.47
725.046	36.93
725.362	36.78
725.679	36.13
725.995	36.91
726.311	38
726.628	37.7
726.944	38.52
727.26	36.51
727.576	37.93
727.892	37.23
728.208	36.44
728.524	37.93
728.84	37.06
729.156	37.19
729.472	36.18
729.787	36.33
730.103	37.92
730.419	36.85
730.734	37.15
731.05	37.2
731.365	37.77
731.681	37.38
731.996	39.15
732.311	38.04
732.626	37.96
732.942	37.6
733.257	38.6
733.572	37.87
733.887	38.97
734.202	38.11
734.517	38.24
734.832	37.42
735.146	38.9
735.461	37.07
735.776	38.69
736.091	40.04
736.405	38.06
736.72	37.58
737.034	37.85
737.349	37.49
737.663	38.97
737.977	38.41
738.292	36.98
738.606	37.9
738.92	40.2
739.234	38.91
739.548	40.07
739.862	38.57
740.176	39.01
740.49	38.6
740.804	38.9
741.117	39.09
741.431	38.71
741.745	38.46
742.058	38.38
742.372	37.04
742.685	39.11
742.999	39.35
743.312	39.23
743.626	39.52
743.939	38.25
744.252	39.17
744.565	39.9
744.878	37.75
745.191	38.95
745.505	38.9
745.817	38.08
746.13	38.32
746.443	37.03
746.756	40.74
747.069	38.63
747.381	38.84
747.694	39.04
748.007	39.51
748.319	38.69
748.632	39.36
748.944	37.23
749.256	39.14
749.569	38.65
749.881	37.31
750.193	39.83
750.505	41.02
750.817	40.35
751.129	38.75
751.441	39.45
751.753	40.37
752.065	39.17
752.377	38.85
752.689	39.59
753	41.23
753.312	41.11
753.624	40.66
753.935	39.49
754.247	39.45
754.558	38.54
754.869	40.94
755.181	38.91
755.492	40.01
755.803	38.85
756.114	39.01
756.425	38.46
756.736	39.1
757.047	40.47
757.358	40.43
757.669	38.76
757.98	39.91
758.291	40.43
758.601	41.28
758.912	38.91
759.223	40.31
759.533	41.16
759.844	39.79
760.154	39.12
760.464	38.99
760.775	40.84
761.085	41.4
761.395	40.38
761.705	40.21
762.016	40.03
762.326	41.67
762.636	41.65
762.945	41.56
763.255	39.92
763.565	41.19
763.875	39.34
764.185	41.85
764.494	39.68
764.804	39.66
765.113	40.84
765.423	40.71
765.732	40.31
766.042	40.63
766.351	41.07
766.66	41.42
766.97	40.89
767.279	41.9
767.588	42.16
767.897	39.49
768.206	41.24
768.515	41.27
768.824	40.82
769.133	37.52
769.441	38.48
769.75	41.76
770.059	41.43
770.367	42.11
770.676	40.05
770.984	38.87
771.293	40.89
771.601	38.67
771.91	38.6
772.218	38.25
772.526	40.78
772.834	39.81
773.142	36.74
773.45	41.95
773.758	40.59
774.066	40.93
774.374	42.01
774.682	41.53
774.99	41.61
775.298	38.32
775.605	40.43
775.913	39.35
776.22	43.2
776.528	38.63
776.835	40.43
777.143	42.89
777.45	42.21
777.757	42.12
778.065	38.82
778.372	40.9
778.679	43.01
778.986	41.78
779.293	39.4
779.6	41.71
779.907	41.9
780.214	40.4
780.52	38.9
780.827	40.1
781.134	42.01
781.44	44.72
781.747	40.29
782.053	38.38
782.36	40.9
782.666	38.9
782.973	41.65
783.279	39.12
783.585	43.71
783.891	39.36
784.197	42.47
784.503	40.05
784.809	41.37
785.115	48.88
785.421	42.68
785.727	40.51
786.033	41.33
786.339	39.6
786.644	38.42
786.95	43.8
787.255	37.91
787.561	40.42
787.866	40.87
788.172	44.17
788.477	40.01
788.782	39.28
789.088	37.1
789.393	44.14
789.698	40.4
790.003	38.49
790.308	42.78
790.613	41.31
790.918	40.35
791.223	37.59
791.527	44.25
791.832	42.9
792.137	42.23
792.441	40.37
792.746	43.38
793.05	41.73
793.355	40.93
793.659	40.52
793.963	43.1
794.268	40.96
794.572	40.75
794.876	41.84
795.18	40.86
795.484	45.51
795.788	44.55
796.092	38.28
796.396	40.45
796.7	38.25
797.004	45.55
797.307	42.87
797.611	46.62
797.915	39
798.218	44.18
798.522	40.94
798.825	41.76
799.128	44.3
799.432	42.07
799.735	37.04
800.038	44.5
800.341	42.04
800.644	38.77
800.947	45.47
801.25	43.19
801.553	43.19
801.856	43.75
802.159	39.65
802.462	44.1
802.764	42.34
803.067	41.81
803.37	41.39
803.672	39.44
803.975	43.1
804.277	41.51
804.579	40.29
804.882	45.65
805.184	41.57
805.486	46.12
805.788	41.75
806.09	41.43
806.392	43.18
806.694	44.27
806.996	44.14
807.298	45.95
807.6	47.05
807.902	45.57
808.203	42.09
808.505	42.95
808.807	44.05
809.108	39.99
809.409	44.47
809.711	44.67
810.012	42.19
810.313	42.93
810.615	44.72
810.916	40.92
811.217	40.05
811.518	44.13
811.819	44.36
812.12	47.68
812.421	42.08
812.722	40.71
813.023	44.38
813.323	43.15
813.624	43.31
813.925	46.24
814.225	40.89
814.526	35.03
814.826	42.62
815.126	44.28
815.427	35.39
815.727	41.61
816.027	41.86
816.327	43.23
816.627	42.31
816.927	44.14
817.227	43.92
817.527	43.56
817.827	38.6
818.127	43.5
818.427	40.74
818.727	43.31
819.026	34.27
819.326	40.19
819.625	44.94
819.925	40.94
820.224	43.44
820.524	45.53
820.823	47.42
821.122	41.57
821.421	44.15
821.72	43.63
822.019	44.57
822.318	46.12
822.617	43.76
822.916	46.26
823.215	45.85
823.514	44.53
823.813	44.06
824.111	44.29
824.41	44.33
824.709	44.37
825.007	45.39
825.306	45.51
825.604	44.69
825.902	44.92
826.201	44.61
826.499	44.27
826.797	44.32
827.095	44.62
827.393	44.59
827.691	45.18
827.989	44.49
828.287	45.26
828.585	43.31
828.882	43.98
829.18	45.43
829.478	45.46
829.775	45.98
830.073	45.81
830.37	43.49
830.668	44.71
830.965	47.06
831.263	41.83
831.56	47.52
831.857	44.73
832.154	42.8
832.451	44.98
832.748	47.3
833.045	47.91
833.342	44.63
833.639	41.84
833.936	38.88
834.232	46.63
834.529	40.93
834.826	46.13
835.122	42.16
835.419	48.14
835.715	42.74
836.012	44.48
836.308	48.91
836.604	43.01
836.901	42.83
837.197	45.34
837.493	47.2
837.789	44.98
838.085	39.57
838.381	47.94
838.677	50.05
838.972	43.38
839.268	48.76
839.564	46.44
839.86	45.87
840.155	46.39
840.451	40.28
840.746	44.21
841.042	37.74
841.337	52.89
841.632	38.91
841.928	43.55
842.223	42.97
842.518	44.44
842.813	47.05
843.108	45.73
843.403	36.42
843.698	39.02
843.993	55.01
844.287	34.96
844.582	45.13
844.877	40.86
845.171	45.47
845.466	42.25
845.761	41.85
846.055	41.36
846.349	32.83
846.644	39.84
846.938	42.31
847.232	49.28
847.526	31.38
847.82	58.68
848.114	31.42
848.408	62.5
848.702	47.19
848.996	34.06
849.29	47.3
849.584	33.02
849.877	37.33
850.171	37.06
850.465	58.48
850.758	28.43
851.052	25.47
851.345	30.13
851.638	28.45
851.932	40.25
852.225	53.14
852.518	38.47
852.811	24.13
853.104	54.37
853.397	50.15
853.69	32.27
853.983	30.38
854.276	58.63
854.569	46.23
854.861	38.19
855.154	28.79
855.447	34.14
855.739	8.99
856.032	50.27
856.324	45.72
856.616	30.32
856.909	33.11
857.201	33.92
857.493	46.81
857.785	48.38
858.077	29.09
858.369	45.67
858.661	51.53
858.953	48.53
859.245	55.44
859.537	30.7
859.829	49.55
860.12	32.7
860.412	36.34
860.703	43.03
860.995	43.22
861.286	33.65
861.578	36.94
861.869	32.64
862.16	38.98
862.452	27.35
862.743	39.2
863.034	54.84
863.325	43.2
863.616	42.16
863.907	36.33
864.198	23.9
864.488	34.72
864.779	47.52
865.07	23.46
865.36	51.38
865.651	61.82
865.941	26.32
866.232	66.91
866.522	56.22
866.813	35.38
867.103	21.73
867.393	49.99
867.683	64.99
867.973	31.55
868.263	28.89
868.553	44.49
868.843	51.87
869.133	24.94
869.423	31.32
869.713	30.29
870.002	51.16
870.292	36.59
870.582	23.16
870.871	56.87
871.161	35.74
871.45	14.79
871.739	58.39
872.029	21.59
872.318	65.8
872.607	27.16
872.896	37.94
873.185	45.6
873.474	30.69
873.763	58.67
874.052	30.38
874.341	16.78
874.63	36.44
874.918	64.18
875.207	15.53
875.496	52.14
875.784	64.49
876.073	37.64
876.361	43.65
876.649	37.65
876.938	39.72
877.226	30.6
877.514	56.59
877.802	31.3
878.09	75.8
878.378	23.41
878.666	56.5
878.954	65.72
879.242	53.9
879.53	39.98
879.817	29.47
880.105	49.58
880.392	38.8
880.68	59.68
880.967	34.96
881.255	42.96
881.542	15.78
881.83	54.45
882.117	26.67
882.404	34.42
882.691	30.19
882.978	48.35
883.265	32.09
883.552	56.59
883.839	49.87
884.126	38.34
884.413	56.78
884.699	49.29
884.986	57.11
885.273	49.75
885.559	49.75
885.846	49.75
