Data from 0001_chest_Reflection__1__242.txt Node

Date: Thu Dec 15 18:41:40 CST 2022
User: ToomeyLab
Spectrometer: FLMS14357
Trigger mode: 0
Integration Time (sec): 1.000000E-2
Scans to average: 100
Electric dark correction enabled: true
Nonlinearity correction enabled: false
Boxcar width: 0
XAxis mode: Wavelengths
Number of Pixels in Spectrum: 2048
>>>>>Begin Spectral Data<<<<<
189.047	139.8
189.435	139.8
189.823	139.8
190.211	52.98
190.599	194.66
190.987	-632.24
191.375	18.77
191.763	6.12
192.151	-45.37
192.538	123.9
192.926	124.39
193.314	253.58
193.702	17.21
194.089	234.56
194.477	68.17
194.864	213.94
195.252	-209.57
195.639	59.7
196.027	564.9
196.414	68
196.801	82.29
197.189	20.63
197.576	-73.02
197.963	-25470.83
198.351	1.45
198.738	25.25
199.125	-92.99
199.512	20.5
199.899	-4.21
200.286	-51.7
200.673	37.46
201.06	-13.23
201.447	19.24
201.833	11.41
202.22	-28.81
202.607	-15.26
202.994	-3.41
203.38	2.63
203.767	16.49
204.154	41.36
204.54	7.93
204.927	46.8
205.313	22.71
205.699	28.48
206.086	41.29
206.472	22.68
206.858	27.19
207.245	1.16
207.631	-30.09
208.017	37.91
208.403	-31.44
208.789	20.28
209.175	29.84
209.561	-34.02
209.947	-16.49
210.333	-18.08
210.719	1.25
211.105	38.76
211.491	12.47
211.876	0.47
212.262	30.14
212.648	24.56
213.034	16.17
213.419	-24.2
213.805	-22.7
214.19	-62.43
214.576	-13.07
214.961	-10.17
215.346	-8.63
215.732	13.33
216.117	16.24
216.502	1.58
216.888	8.82
217.273	-0.08
217.658	-25.77
218.043	-34.7
218.428	-29.83
218.813	11.88
219.198	-43.62
219.583	-11.6
219.968	-8.56
220.353	-14.32
220.738	10.17
221.122	-9.11
221.507	-3.86
221.892	-30.85
222.276	-20.77
222.661	-12.99
223.046	-8.13
223.43	8.81
223.815	-1.69
224.199	1.54
224.583	-0.23
224.968	-8.58
225.352	-8.39
225.736	5.95
226.121	-5.23
226.505	0.08
226.889	4.49
227.273	-1.99
227.657	2.38
228.041	4.39
228.425	6.08
228.809	5.7
229.193	4.6
229.577	5.43
229.961	4.43
230.344	4.93
230.728	5.37
231.112	5.95
231.495	2.88
231.879	6.63
232.263	5.14
232.646	3.56
233.03	5.78
233.413	4.49
233.797	4.88
234.18	5.93
234.563	5.81
234.946	2.61
235.33	5.09
235.713	5.66
236.096	4.98
236.479	4.74
236.862	3.73
237.245	3.31
237.628	5.57
238.011	5.51
238.394	4.31
238.777	6.38
239.16	5.92
239.543	4.39
239.925	3.77
240.308	2.2
240.691	3.26
241.073	3.51
241.456	4.56
241.838	5.54
242.221	4.76
242.603	4.7
242.986	4.44
243.368	4.62
243.75	4.95
244.133	5.13
244.515	4.45
244.897	4.92
245.279	4.69
245.661	4.65
246.043	4.53
246.425	4.69
246.807	4.91
247.189	3.98
247.571	4.5
247.953	4.69
248.335	4.65
248.717	4.51
249.098	4.77
249.48	4.17
249.862	4.7
250.243	4.46
250.625	4.23
251.006	4.7
251.388	3.49
251.769	3.24
252.151	4.45
252.532	3.68
252.913	4.51
253.295	3.94
253.676	4.33
254.057	4.34
254.438	4.4
254.819	3.88
255.2	3.69
255.581	5.71
255.962	4.16
256.343	3.62
256.724	3.43
257.105	3.45
257.486	3.56
257.867	3.94
258.247	4.1
258.628	4.45
259.009	3.94
259.389	3.65
259.77	3.87
260.15	4.63
260.531	4.1
260.911	3.95
261.292	4.23
261.672	4.25
262.052	4.14
262.432	3.81
262.813	4.35
263.193	3.81
263.573	3.73
263.953	3.53
264.333	3.84
264.713	4.15
265.093	3.83
265.473	3.08
265.853	4.08
266.233	3.79
266.612	3.87
266.992	4.04
267.372	4.19
267.752	4.55
268.131	4.03
268.511	3.69
268.89	4.21
269.27	3.2
269.649	4.33
270.029	4.27
270.408	3.7
270.787	4.19
271.167	4.1
271.546	4.36
271.925	3.94
272.304	4.08
272.683	3.72
273.062	3.91
273.441	3.59
273.82	3.69
274.199	3.79
274.578	4.29
274.957	4.01
275.336	3.84
275.715	3.82
276.093	3.76
276.472	3.64
276.851	3.86
277.229	3.66
277.608	3.97
277.986	3.55
278.365	4.22
278.743	3.97
279.122	3.83
279.5	3.75
279.878	3.42
280.257	3.93
280.635	4.12
281.013	3.1
281.391	3.85
281.769	4.36
282.147	3.42
282.525	4.29
282.903	3.79
283.281	4.15
283.659	3.86
284.037	3.67
284.415	3.74
284.792	3.85
285.17	3.24
285.548	3.79
285.925	3.38
286.303	4.01
286.68	4.02
287.058	3.68
287.435	3.66
287.813	3.77
288.19	3.46
288.567	3.54
288.945	3.42
289.322	3.57
289.699	3.88
290.076	3.72
290.453	3.23
290.83	3.59
291.207	3.56
291.584	3.83
291.961	3.8
292.338	3.69
292.715	3.47
293.092	3.86
293.469	3.79
293.845	4.15
294.222	4.1
294.599	3.14
294.975	3.37
295.352	3.42
295.728	3.7
296.105	3.93
296.481	3.8
296.858	3.8
297.234	3.51
297.61	3.76
297.986	3.94
298.363	3.45
298.739	3.84
299.115	3.61
299.491	4.02
299.867	3.4
300.243	3.56
300.619	3.35
300.995	3.72
301.371	3.76
301.746	3.95
302.122	3.3
302.498	3.13
302.874	3.94
303.249	3.61
303.625	3.37
304	4.07
304.376	4.15
304.751	3.65
305.127	3.72
305.502	3.83
305.878	3.75
306.253	3.11
306.628	4.05
307.003	3.34
307.378	3.24
307.754	4.04
308.129	2.76
308.504	3.96
308.879	3.24
309.254	4.11
309.629	3.73
310.003	3.76
310.378	3.94
310.753	3.68
311.128	3.4
311.502	3.82
311.877	3.45
312.252	3.73
312.626	3.94
313.001	3.81
313.375	3.96
313.75	3.93
314.124	3.29
314.498	4.03
314.873	2.96
315.247	3.38
315.621	3.35
315.995	3.36
316.369	3.21
316.743	3.34
317.117	3.35
317.491	3.69
317.865	3.22
318.239	3.84
318.613	3.39
318.987	2.95
319.361	3.73
319.734	3.75
320.108	3.92
320.482	3.76
320.855	3.65
321.229	3.58
321.602	3.41
321.976	2.99
322.349	4.19
322.723	3.45
323.096	3.13
323.469	3.85
323.843	3.61
324.216	3.74
324.589	4.04
324.962	3.55
325.335	3.23
325.708	3.93
326.081	3.71
326.454	3.62
326.827	3.79
327.2	3.55
327.573	4.16
327.945	3.54
328.318	3.47
328.691	3.23
329.063	3.44
329.436	3.26
329.809	3.71
330.181	4.51
330.553	3.5
330.926	4.13
331.298	3.46
331.671	3.94
332.043	3.29
332.415	3.95
332.787	3.56
333.159	3.44
333.532	3.6
333.904	3.66
334.276	3.71
334.648	3.36
335.02	3.53
335.391	3.62
335.763	3.74
336.135	3.73
336.507	3.63
336.879	3.34
337.25	3.7
337.622	3.74
337.993	3.52
338.365	3.55
338.736	3.61
339.108	3.53
339.479	4.08
339.851	3.3
340.222	3.98
340.593	4.06
340.964	3.89
341.336	3.37
341.707	3.17
342.078	3.39
342.449	3.5
342.82	3.29
343.191	3.65
343.562	3.57
343.933	3.5
344.303	3.64
344.674	3.61
345.045	3.69
345.416	4.14
345.786	3.42
346.157	3.8
346.527	3.65
346.898	3.53
347.268	3.85
347.639	3.25
348.009	3.72
348.38	3.4
348.75	3.9
349.12	3.4
349.49	4.12
349.861	3.72
350.231	3.46
350.601	4.09
350.971	3.65
351.341	3.78
351.711	3.47
352.081	3.47
352.45	3.36
352.82	3.6
353.19	3.92
353.56	3.48
353.929	3.86
354.299	3.36
354.669	3.73
355.038	3.63
355.408	3.42
355.777	3.99
356.147	3.63
356.516	3.31
356.885	3.59
357.254	3.57
357.624	3.43
357.993	3.86
358.362	3.69
358.731	3.84
359.1	3.43
359.469	3.66
359.838	3.69
360.207	3.93
360.576	3.77
360.945	3.87
361.314	3.61
361.682	3.5
362.051	3.69
362.42	3.84
362.788	3.88
363.157	3.52
363.525	3.84
363.894	3.54
364.262	3.71
364.631	3.82
364.999	3.55
365.367	3.47
365.735	3.49
366.104	3.62
366.472	3.75
366.84	3.77
367.208	4.07
367.576	3.59
367.944	3.68
368.312	3.56
368.68	3.61
369.048	3.55
369.416	3.52
369.783	3.29
370.151	3.66
370.519	4.12
370.886	4.13
371.254	3.86
371.621	3.93
371.989	3.97
372.356	3.66
372.724	3.74
373.091	3.4
373.458	3.89
373.826	3.96
374.193	3.58
374.56	3.88
374.927	3.64
375.294	3.81
375.661	3.96
376.028	3.5
376.395	3.73
376.762	3.6
377.129	3.52
377.496	4.01
377.863	3.86
378.229	4.06
378.596	3.71
378.963	4.17
379.329	3.95
379.696	3.65
380.062	3.78
380.429	3.59
380.795	3.67
381.161	3.51
381.528	3.51
381.894	3.64
382.26	4.08
382.626	3.88
382.993	4.33
383.359	3.75
383.725	3.73
384.091	4.12
384.457	3.58
384.823	3.89
385.188	3.72
385.554	3.81
385.92	3.55
386.286	3.78
386.651	3.6
387.017	3.93
387.383	3.65
387.748	3.89
388.114	3.84
388.479	3.71
388.845	3.66
389.21	3.95
389.575	4.02
389.94	3.78
390.306	3.85
390.671	3.8
391.036	3.62
391.401	3.78
391.766	3.58
392.131	4.17
392.496	3.84
392.861	3.74
393.226	3.57
393.591	3.87
393.956	4.02
394.32	3.78
394.685	3.92
395.05	3.71
395.414	3.99
395.779	3.9
396.143	3.83
396.508	3.84
396.872	3.66
397.236	4.09
397.601	3.92
397.965	3.64
398.329	3.91
398.694	3.53
399.058	3.79
399.422	3.75
399.786	3.82
400.15	3.64
400.514	3.93
400.878	3.87
401.242	3.8
401.605	3.78
401.969	3.91
402.333	3.73
402.697	3.95
403.06	4.05
403.424	4.1
403.787	3.82
404.151	3.8
404.514	3.91
404.878	3.69
405.241	3.87
405.604	3.7
405.968	3.94
406.331	4.04
406.694	3.95
407.057	3.91
407.42	3.88
407.783	3.83
408.146	3.83
408.509	3.91
408.872	3.87
409.235	3.96
409.598	3.74
409.961	3.85
410.323	3.87
410.686	3.87
411.049	4.17
411.411	3.73
411.774	3.94
412.136	3.81
412.499	3.82
412.861	3.63
413.223	3.72
413.586	3.73
413.948	3.91
414.31	3.87
414.672	3.8
415.035	3.89
415.397	3.91
415.759	3.76
416.121	4
416.483	3.82
416.845	3.87
417.206	3.9
417.568	3.87
417.93	3.88
418.292	3.8
418.653	3.64
419.015	3.86
419.377	3.82
419.738	3.96
420.1	3.8
420.461	3.77
420.822	3.78
421.184	3.74
421.545	3.84
421.906	3.77
422.267	3.77
422.629	3.76
422.99	3.73
423.351	3.73
423.712	3.81
424.073	3.76
424.434	3.95
424.795	3.75
425.155	3.6
425.516	3.75
425.877	3.73
426.238	3.8
426.598	3.8
426.959	3.8
427.32	3.75
427.68	3.82
428.041	3.97
428.401	3.68
428.761	3.91
429.122	3.74
429.482	3.77
429.842	3.79
430.202	3.83
430.563	3.82
430.923	3.89
431.283	3.88
431.643	4.05
432.003	3.93
432.363	3.88
432.722	3.68
433.082	3.68
433.442	3.85
433.802	3.9
434.161	3.79
434.521	3.81
434.881	3.95
435.24	3.71
435.6	3.84
435.959	3.9
436.319	3.89
436.678	3.94
437.037	3.72
437.396	3.87
437.756	3.78
438.115	3.76
438.474	3.84
438.833	3.88
439.192	3.85
439.551	3.68
439.91	3.88
440.269	3.89
440.628	3.76
440.987	3.74
441.345	3.86
441.704	3.9
442.063	3.78
442.421	3.76
442.78	3.84
443.138	3.77
443.497	3.78
443.855	3.91
444.214	3.76
444.572	3.97
444.93	3.74
445.288	3.78
445.647	3.68
446.005	3.94
446.363	3.86
446.721	3.81
447.079	3.71
447.437	3.85
447.795	3.8
448.153	3.75
448.51	3.86
448.868	3.72
449.226	3.87
449.584	3.88
449.941	3.8
450.299	3.82
450.656	3.94
451.014	3.8
451.371	3.85
451.729	3.83
452.086	3.85
452.443	3.93
452.801	3.89
453.158	3.96
453.515	3.79
453.872	3.84
454.229	3.66
454.586	3.65
454.943	3.83
455.3	3.79
455.657	3.69
456.014	3.75
456.371	3.8
456.727	3.96
457.084	3.86
457.441	3.9
457.797	3.82
458.154	3.88
458.51	3.77
458.867	3.9
459.223	3.88
459.58	4.02
459.936	3.78
460.292	3.86
460.648	3.75
461.005	3.84
461.361	3.78
461.717	3.81
462.073	3.83
462.429	3.91
462.785	3.93
463.141	3.94
463.496	3.97
463.852	3.93
464.208	3.79
464.564	3.75
464.919	3.79
465.275	3.91
465.631	4.05
465.986	3.9
466.342	3.96
466.697	3.89
467.052	3.99
467.408	3.99
467.763	3.89
468.118	3.81
468.473	3.94
468.829	3.86
469.184	3.99
469.539	3.82
469.894	3.97
470.249	3.93
470.603	4.03
470.958	4.14
471.313	4
471.668	4
472.023	4.01
472.377	3.83
472.732	4.01
473.086	4.02
473.441	3.78
473.795	4.14
474.15	3.94
474.504	3.84
474.859	3.83
475.213	4.05
475.567	3.83
475.921	4.03
476.275	4
476.63	4.05
476.984	3.8
477.338	3.95
477.692	3.85
478.045	4.03
478.399	3.91
478.753	3.99
479.107	3.89
479.461	3.88
479.814	3.91
480.168	3.84
480.521	3.96
480.875	3.96
481.228	3.92
481.582	3.83
481.935	4.13
482.289	4.06
482.642	4.03
482.995	3.96
483.348	3.82
483.701	3.86
484.055	3.9
484.408	3.85
484.761	3.78
485.114	3.69
485.466	3.69
485.819	3.72
486.172	3.73
486.525	3.75
486.878	3.8
487.23	3.76
487.583	3.81
487.936	3.83
488.288	3.81
488.641	3.82
488.993	3.76
489.345	3.77
489.698	3.79
490.05	3.77
490.402	3.79
490.754	3.82
491.107	3.85
491.459	3.95
491.811	3.89
492.163	3.87
492.515	3.75
492.866	3.8
493.218	3.82
493.57	3.83
493.922	3.84
494.274	3.96
494.625	3.93
494.977	3.92
495.328	3.88
495.68	3.98
496.031	3.97
496.383	3.92
496.734	3.92
497.086	4.01
497.437	4.05
497.788	4.2
498.139	3.97
498.49	4.03
498.842	4.09
499.193	3.9
499.544	3.97
499.894	4
500.245	3.99
500.596	3.98
500.947	3.97
501.298	3.98
501.648	3.98
501.999	4.01
502.35	3.99
502.7	4.12
503.051	4.1
503.401	4.13
503.752	4
504.102	3.95
504.452	3.95
504.803	4.09
505.153	4.07
505.503	4.2
505.853	4.03
506.203	4.04
506.553	4.07
506.903	4.12
507.253	3.98
507.603	4.11
507.953	4.11
508.303	4.11
508.652	3.95
509.002	4.14
509.352	4.07
509.701	3.98
510.051	4.21
510.4	4.06
510.75	3.99
511.099	4.02
511.449	4.19
511.798	4.05
512.147	4.11
512.496	4.13
512.846	4
513.195	4.13
513.544	4.24
513.893	4.16
514.242	4.16
514.591	4.07
514.939	4.18
515.288	4.23
515.637	4.14
515.986	4.1
516.334	4.24
516.683	4.26
517.032	4.11
517.38	4.05
517.729	4.16
518.077	4.09
518.426	4.21
518.774	4.13
519.122	4.15
519.47	4.11
519.819	4.15
520.167	4.14
520.515	4.13
520.863	4.23
521.211	4.14
521.559	4.18
521.907	4.27
522.255	4.21
522.602	4.31
522.95	4.34
523.298	4.31
523.645	4.29
523.993	4.34
524.341	4.29
524.688	4.29
525.036	4.16
525.383	4.34
525.73	4.19
526.078	4.33
526.425	4.26
526.772	4.18
527.119	4.2
527.466	4.36
527.814	4.23
528.161	4.33
528.508	4.31
528.854	4.27
529.201	4.19
529.548	4.2
529.895	4.16
530.242	4.13
530.588	4.16
530.935	4.19
531.282	4.12
531.628	4.2
531.975	4.26
532.321	4.28
532.667	4.35
533.014	4.29
533.36	4.39
533.706	4.38
534.052	4.31
534.399	4.31
534.745	4.27
535.091	4.24
535.437	4.31
535.783	4.33
536.129	4.31
536.474	4.44
536.82	4.45
537.166	4.34
537.512	4.42
537.857	4.4
538.203	4.47
538.549	4.44
538.894	4.44
539.239	4.51
539.585	4.52
539.93	4.68
540.276	4.5
540.621	4.63
540.966	4.55
541.311	4.6
541.656	4.49
542.001	4.55
542.346	4.58
542.691	4.43
543.036	4.41
543.381	4.46
543.726	4.49
544.071	4.44
544.415	4.49
544.76	4.57
545.105	4.55
545.449	4.57
545.794	4.63
546.138	4.6
546.483	4.66
546.827	4.6
547.171	4.68
547.516	4.77
547.86	4.68
548.204	4.75
548.548	4.7
548.892	4.74
549.236	4.76
549.58	4.82
549.924	4.91
550.268	4.9
550.612	4.82
550.956	4.97
551.3	4.98
551.643	4.89
551.987	4.99
552.33	4.99
552.674	4.94
553.017	5
553.361	5.09
553.704	5.05
554.048	4.9
554.391	5.02
554.734	4.89
555.077	4.91
555.42	4.86
555.764	4.98
556.107	5.05
556.45	5.18
556.793	5.1
557.135	5.12
557.478	5.15
557.821	5.32
558.164	5.22
558.507	5.14
558.849	5.28
559.192	5.15
559.534	5.09
559.877	5.13
560.219	5.13
560.562	5.22
560.904	5.31
561.246	5.23
561.589	5.41
561.931	5.39
562.273	5.26
562.615	5.13
562.957	5.25
563.299	5.26
563.641	5.39
563.983	5.2
564.325	5.42
564.667	5.37
565.008	5.37
565.35	5.41
565.692	5.52
566.033	5.31
566.375	5.41
566.716	5.34
567.058	5.47
567.399	5.44
567.741	5.45
568.082	5.61
568.423	5.46
568.764	5.61
569.105	5.56
569.447	5.58
569.788	5.51
570.129	5.6
570.47	5.7
570.811	5.54
571.151	5.62
571.492	5.7
571.833	5.69
572.174	5.69
572.514	5.76
572.855	5.85
573.195	5.68
573.536	5.83
573.876	5.72
574.217	5.7
574.557	5.73
574.898	5.86
575.238	5.82
575.578	5.85
575.918	5.97
576.258	6
576.598	5.9
576.938	5.87
577.278	6.09
577.618	6
577.958	5.99
578.298	5.95
578.638	5.94
578.977	6.1
579.317	6.04
579.657	6.21
579.996	6
580.336	6.15
580.675	6.25
581.014	6.21
581.354	6.1
581.693	6.31
582.032	6.26
582.372	6.4
582.711	6.28
583.05	6.45
583.389	6.33
583.728	6.5
584.067	6.19
584.406	6.52
584.745	6.26
585.083	6.45
585.422	6.55
585.761	6.43
586.1	6.71
586.438	6.61
586.777	6.62
587.115	6.71
587.454	6.49
587.792	6.54
588.13	6.54
588.469	6.47
588.807	6.72
589.145	6.6
589.483	6.56
589.821	6.86
590.159	6.94
590.497	6.83
590.835	7.1
591.173	6.94
591.511	7.01
591.849	6.81
592.187	6.83
592.524	6.89
592.862	6.86
593.2	7.01
593.537	6.72
593.875	6.89
594.212	7.39
594.55	7.1
594.887	7.11
595.224	7.18
595.561	7.03
595.899	7.27
596.236	7.18
596.573	7.09
596.91	7.08
597.247	7.38
597.584	7.34
597.921	7.25
598.258	7.41
598.594	7.09
598.931	7.21
599.268	7.25
599.604	7.33
599.941	7.27
600.277	7.43
600.614	7.47
600.95	7.29
601.287	7.23
601.623	7.12
601.959	7.8
602.296	7.64
602.632	7.54
602.968	7.39
603.304	7.65
603.64	7.65
603.976	7.7
604.312	7.71
604.648	7.9
604.984	7.87
605.319	7.59
605.655	7.73
605.991	7.68
606.326	7.82
606.662	7.71
606.998	7.98
607.333	7.97
607.668	7.8
608.004	7.91
608.339	7.92
608.674	7.98
609.01	8.32
609.345	7.95
609.68	8.04
610.015	8.16
610.35	8.29
610.685	8.09
611.02	8.15
611.355	8.19
611.689	8.16
612.024	8.26
612.359	8.32
612.694	8.37
613.028	8.17
613.363	8.5
613.697	8.5
614.032	8.27
614.366	8.21
614.7	8.58
615.035	8.49
615.369	8.46
615.703	8.69
616.037	8.75
616.371	8.45
616.705	8.64
617.039	8.75
617.373	8.93
617.707	8.74
618.041	8.41
618.375	8.49
618.709	8.93
619.042	9.03
619.376	8.96
619.71	9.18
620.043	9.21
620.377	9.26
620.71	8.86
621.043	9.01
621.377	9.1
621.71	9.48
622.043	9.15
622.376	9.08
622.709	9.58
623.043	9.13
623.376	9.12
623.709	9.44
624.041	9.22
624.374	9.14
624.707	9.43
625.04	9.33
625.373	9.49
625.705	9.53
626.038	9.6
626.37	9.11
626.703	9.69
627.035	9.46
627.368	9.83
627.7	9.77
628.032	9.77
628.365	9.93
628.697	10.06
629.029	9.81
629.361	9.98
629.693	9.68
630.025	9.84
630.357	10.04
630.689	9.95
631.021	10.21
631.353	10.2
631.684	9.74
632.016	9.47
632.348	10.14
632.679	10.34
633.011	10.35
633.342	10.14
633.674	9.88
634.005	10.1
634.336	10.07
634.668	10
634.999	9.9
635.33	10.37
635.661	10.26
635.992	10.28
636.323	10.49
636.654	10.57
636.985	10.36
637.316	10.55
637.647	10.87
637.977	10.6
638.308	10.85
638.639	10.84
638.969	10.5
639.3	10.74
639.63	10.67
639.961	10.64
640.291	10.58
640.622	10.74
640.952	10.99
641.282	10.64
641.612	10.73
641.943	10.36
642.273	10.83
642.603	10.96
642.933	11.23
643.263	11.03
643.592	11.31
643.922	11.47
644.252	11.08
644.582	11.49
644.911	11.27
645.241	10.85
645.571	11.35
645.9	11.63
646.23	11.63
646.559	10.99
646.888	11.63
647.218	11.47
647.547	11.26
647.876	11.61
648.205	11.25
648.534	11.38
648.863	11.54
649.192	11.54
649.521	11.92
649.85	12.14
650.179	11.58
650.508	11.86
650.837	11.94
651.165	11.41
651.494	11.69
651.822	12.23
652.151	11.59
652.479	11.77
652.808	12.1
653.136	11.61
653.465	11.79
653.793	12.28
654.121	12.15
654.449	11.82
654.777	11.69
655.105	11.92
655.433	12.11
655.761	12.02
656.089	12.19
656.417	12.6
656.745	13.13
657.073	12.54
657.4	12.23
657.728	11.92
658.056	12.35
658.383	12.37
658.711	12.66
659.038	12.76
659.365	12.44
659.693	12.63
660.02	12.41
660.347	12.56
660.674	12.44
661.001	12.5
661.329	12.59
661.656	12.48
661.982	12.43
662.309	12.69
662.636	12.78
662.963	12.47
663.29	12.78
663.616	12.7
663.943	12.55
664.27	12.91
664.596	12.72
664.923	12.98
665.249	13.31
665.576	12.79
665.902	13.02
666.228	13.25
666.554	13.61
666.881	12.79
667.207	13.41
667.533	13.14
667.859	13.53
668.185	13.6
668.511	13.22
668.837	13.7
669.162	12.98
669.488	12.59
669.814	13.9
670.139	12.81
670.465	13.42
670.791	13.6
671.116	13.34
671.442	13
671.767	13.64
672.092	13.64
672.418	13.99
672.743	13.42
673.068	13.48
673.393	14.14
673.718	13.44
674.043	13.83
674.368	13.16
674.693	14.22
675.018	14.7
675.343	14.53
675.667	14.5
675.992	14.28
676.317	13.33
676.641	13.91
676.966	14.7
677.29	13.42
677.615	13.62
677.939	14.41
678.264	14.24
678.588	14.5
678.912	14.49
679.236	13.74
679.56	13.94
679.885	14.36
680.209	14.43
680.532	15.27
680.856	14.63
681.18	15.03
681.504	14.86
681.828	14.02
682.152	15.04
682.475	15.18
682.799	14.24
683.122	14.5
683.446	13.73
683.769	15.05
684.093	14.52
684.416	14.65
684.739	13.99
685.062	14.86
685.386	15.21
685.709	15.55
686.032	14.88
686.355	15.83
686.678	16
687.001	15.13
687.324	15.4
687.646	15.16
687.969	16
688.292	15.09
688.614	15.48
688.937	15.41
689.26	15.38
689.582	15.71
689.904	15.78
690.227	15.77
690.549	15.78
690.871	15.63
691.194	15.02
691.516	15.57
691.838	15.75
692.16	15.39
692.482	15.28
692.804	15.59
693.126	15.38
693.448	15.67
693.769	15.57
694.091	16.47
694.413	15.11
694.735	15.32
695.056	15.98
695.378	16.23
695.699	16.35
696.021	16.27
696.342	15.59
696.663	16.57
696.984	15.89
697.306	15.77
697.627	16.9
697.948	15.79
698.269	17.01
698.59	16.26
698.911	16.41
699.232	16.35
699.553	16.71
699.873	15.65
700.194	16.36
700.515	16.6
700.835	16.52
701.156	17.15
701.477	16.23
701.797	16.68
702.117	16.56
702.438	17.13
702.758	16.93
703.078	16.47
703.398	16.66
703.719	16.69
704.039	17.41
704.359	17.15
704.679	16.94
704.999	17.09
705.319	16.94
705.638	17.48
705.958	17.39
706.278	17.83
706.597	17.48
706.917	17.4
707.237	18.26
707.556	17.74
707.876	17.77
708.195	17.79
708.514	17.02
708.834	18.1
709.153	18.19
709.472	17.45
709.791	16.91
710.11	17.75
710.429	18.5
710.748	18.16
711.067	18.07
711.386	17.6
711.705	17.81
712.023	18.56
712.342	17.76
712.661	18.41
712.979	18.28
713.298	18.97
713.616	18.18
713.935	18.63
714.253	18.53
714.572	17.57
714.89	17.62
715.208	17.65
715.526	18.37
715.844	18.65
716.162	17.83
716.48	18.34
716.798	18.25
717.116	18.19
717.434	18.13
717.752	18.78
718.069	18.08
718.387	18.11
718.705	18.19
719.022	19.14
719.34	18.33
719.657	19.53
719.975	18.26
720.292	19.37
720.609	17.46
720.927	19.8
721.244	19.35
721.561	18.49
721.878	18.51
722.195	18.52
722.512	19.31
722.829	19.42
723.146	19.83
723.463	19.3
723.779	18.59
724.096	17.67
724.413	18.68
724.729	20.26
725.046	19.42
725.362	20.01
725.679	19.5
725.995	18.73
726.311	19.57
726.628	19.24
726.944	20.06
727.26	19.14
727.576	19.97
727.892	20.04
728.208	18.75
728.524	18.79
728.84	19.72
729.156	19.27
729.472	18.37
729.787	19.54
730.103	20.1
730.419	19.23
730.734	18.83
731.05	19.41
731.365	20.93
731.681	20.49
731.996	19.16
732.311	19.63
732.626	19.92
732.942	19.08
733.257	20.81
733.572	20.34
733.887	22.24
734.202	20.68
734.517	20.45
734.832	18.94
735.146	20.83
735.461	20.14
735.776	20.67
736.091	20.95
736.405	21.05
736.72	19.69
737.034	21.59
737.349	20.8
737.663	22.43
737.977	22.45
738.292	20.13
738.606	20.79
738.92	23.21
739.234	21.05
739.548	20.45
739.862	19.97
740.176	22.22
740.49	21.71
740.804	21.17
741.117	20.37
741.431	21.78
741.745	20.86
742.058	20.56
742.372	20.61
742.685	21.93
742.999	21.37
743.312	21.95
743.626	21.61
743.939	22.63
744.252	21.65
744.565	22.34
744.878	19.69
745.191	21.54
745.505	21.77
745.817	21.48
746.13	22.4
746.443	20.82
746.756	22.2
747.069	22.82
747.381	22.48
747.694	22.2
748.007	21.58
748.319	21.98
748.632	22.11
748.944	22.3
749.256	22.66
749.569	22.79
749.881	19.93
750.193	23.04
750.505	21.67
750.817	23.25
751.129	23.1
751.441	22.05
751.753	22.79
752.065	22.08
752.377	24.87
752.689	21.68
753	23.28
753.312	24.62
753.624	21.88
753.935	21.03
754.247	22.52
754.558	21.83
754.869	22.13
755.181	20.14
755.492	23.44
755.803	23.72
756.114	22.1
756.425	21.25
756.736	23.69
757.047	24.41
757.358	24.47
757.669	23.66
757.98	22.12
758.291	21.79
758.601	21.86
758.912	21.18
759.223	22.25
759.533	23.75
759.844	22.39
760.154	23.89
760.464	23.24
760.775	22.71
761.085	23.32
761.395	22.78
761.705	22.8
762.016	22.09
762.326	22.76
762.636	24.4
762.945	23.47
763.255	23.5
763.565	24.37
763.875	23.11
764.185	24.88
764.494	24.48
764.804	23.91
765.113	23.91
765.423	24.38
765.732	23.66
766.042	25.6
766.351	23.77
766.66	24.06
766.97	24.63
767.279	24.07
767.588	23.51
767.897	23.33
768.206	24.53
768.515	24.39
768.824	24.19
769.133	22.76
769.441	21.31
769.75	23.79
770.059	23.91
770.367	25.45
770.676	24.86
770.984	22.27
771.293	24.58
771.601	22.48
771.91	23.6
772.218	23.46
772.526	23.16
772.834	23.44
773.142	22.92
773.45	21.45
773.758	25.11
774.066	25.96
774.374	24.3
774.682	24.29
774.99	24.13
775.298	23.42
775.605	23.9
775.913	26.03
776.22	23.37
776.528	24.02
776.835	24.82
777.143	24.18
777.45	21.96
777.757	23.09
778.065	21.61
778.372	26.07
778.679	25.07
778.986	26.14
779.293	22.64
779.6	26.28
779.907	26.31
780.214	24.48
780.52	25.66
780.827	22.82
781.134	26.3
781.44	28.86
781.747	24.31
782.053	24.28
782.36	22.36
782.666	23.53
782.973	22.81
783.279	28.53
783.585	27.81
783.891	24.34
784.197	25.66
784.503	25.98
784.809	26.55
785.115	27.46
785.421	28.27
785.727	26.02
786.033	27.83
786.339	25.55
786.644	22.09
786.95	23.6
787.255	25.34
787.561	25.07
787.866	26.27
788.172	26.8
788.477	23.79
788.782	22.95
789.088	20.66
789.393	28.95
789.698	23.56
790.003	25.15
790.308	25.18
790.613	27.09
790.918	24.56
791.223	26.48
791.527	28.06
791.832	27.38
792.137	26.04
792.441	21.57
792.746	26.61
793.05	26.17
793.355	26.51
793.659	28.79
793.963	23.48
794.268	25.08
794.572	21.74
794.876	23.23
795.18	30.18
795.484	28.76
795.788	27.12
796.092	23.79
796.396	25.29
796.7	25.67
797.004	24.39
797.307	25.56
797.611	29.57
797.915	24.85
798.218	29.06
798.522	23.98
798.825	30.86
799.128	29.96
799.432	25.49
799.735	28.83
800.038	25.51
800.341	27.78
800.644	27.78
800.947	26.7
801.25	23.05
801.553	29.08
801.856	29.53
802.159	27.09
802.462	26.8
802.764	29.59
803.067	25.84
803.37	25.47
803.672	31.64
803.975	23.99
804.277	25.24
804.579	29.14
804.882	27.39
805.184	27.52
805.486	28.04
805.788	32.45
806.09	20.77
806.392	29.99
806.694	30.32
806.996	27.68
807.298	30.81
807.6	30.2
807.902	28.99
808.203	25.31
808.505	25.96
808.807	29.11
809.108	28.07
809.409	24.73
809.711	27.22
810.012	29.04
810.313	32.69
810.615	32.66
810.916	28.85
811.217	29.26
811.518	28.41
811.819	28.38
812.12	35.79
812.421	22.21
812.722	29.67
813.023	29.36
813.323	28.22
813.624	36.27
813.925	25.96
814.225	31.09
814.526	19.77
814.826	25.55
815.126	28.42
815.427	24.56
815.727	23.94
816.027	30.54
816.327	25.28
816.627	27.34
816.927	23.37
817.227	25.86
817.527	26.68
817.827	28.42
818.127	21.73
818.427	26.55
818.727	24.56
819.026	25.84
819.326	27.72
819.625	26.21
819.925	28.66
820.224	30.21
820.524	35.13
820.823	29.59
821.122	25.33
821.421	29.56
821.72	29.32
822.019	28.87
822.318	34.91
822.617	27.79
822.916	29.47
823.215	29.71
823.514	27.74
823.813	29.27
824.111	30.05
824.41	30.69
824.709	31.27
825.007	31.33
825.306	31.68
825.604	30.62
825.902	30.71
826.201	30.33
826.499	30.33
826.797	31.7
827.095	31.1
827.393	32.46
827.691	33.02
827.989	30.97
828.287	30.03
828.585	29.66
828.882	31.27
829.18	31.58
829.478	33.31
829.775	32.41
830.073	31.14
830.37	30.02
830.668	31.37
830.965	31.7
831.263	31.02
831.56	30.82
831.857	33.77
832.154	31.72
832.451	31.86
832.748	29.36
833.045	28.81
833.342	29.7
833.639	30.85
833.936	27.2
834.232	30.26
834.529	26.18
834.826	41.64
835.122	25.68
835.419	30.06
835.715	32.34
836.012	31.96
836.308	34.16
836.604	28.68
836.901	32.01
837.197	32.92
837.493	32.5
837.789	33.36
838.085	29.69
838.381	33.41
838.677	34.53
838.972	29.47
839.268	34.8
839.564	38.53
839.86	25.44
840.155	36.94
840.451	24.28
840.746	35.62
841.042	30.95
841.337	29.1
841.632	27.32
841.928	34.33
842.223	30.85
842.518	23.7
842.813	31.1
843.108	27.56
843.403	29.88
843.698	30.26
843.993	38.24
844.287	24.45
844.582	28.8
844.877	33.95
845.171	32.93
845.466	22.82
845.761	30.16
846.055	36.35
846.349	24.62
846.644	39.33
846.938	34.53
847.232	34.2
847.526	19.14
847.82	23.3
848.114	32.11
848.408	35.47
848.702	39.34
848.996	22.37
849.29	41.87
849.584	19.07
849.877	29.91
850.171	27.91
850.465	24.95
850.758	22.78
851.052	25.05
851.345	26.67
851.638	20.34
851.932	35.93
852.225	40.71
852.518	25.94
852.811	19.53
853.104	42.4
853.397	22.11
853.69	34
853.983	35.91
854.276	46.37
854.569	40.85
854.861	20.46
855.154	32.15
855.447	26.47
855.739	14.6
856.032	28.89
856.324	21.27
856.616	22.97
856.909	18.23
857.201	16.31
857.493	23.23
857.785	34.17
858.077	22.86
858.369	18.03
858.661	26.58
858.953	30.57
859.245	24.97
859.537	3.01
859.829	6.61
860.12	37.53
860.412	20.23
860.703	19.35
860.995	41.43
861.286	1.38
861.578	17.08
861.869	25.46
862.16	41.02
862.452	8.15
862.743	18.05
863.034	35.42
863.325	73.58
863.616	76.54
863.907	23.66
864.198	14.14
864.488	28.67
864.779	20.29
865.07	43.88
865.36	57.62
865.651	54.52
865.941	40.65
866.232	42.94
866.522	34.06
866.813	53.17
867.103	26.64
867.393	50.07
867.683	35.21
867.973	34.59
868.263	20.96
868.553	29.04
868.843	24.55
869.133	17.04
869.423	25.01
869.713	7.1
870.002	28.14
870.292	19.72
870.582	55.11
870.871	15.26
871.161	34.3
871.45	10.6
871.739	39.04
872.029	5.8
872.318	7.54
872.607	50.6
872.896	8.8
873.185	49.26
873.474	8.37
873.763	37.33
874.052	40.75
874.341	33.91
874.63	29.6
874.918	46.16
875.207	13.76
875.496	71.86
875.784	10.04
876.073	17.07
876.361	10.47
876.649	16.01
876.938	36.98
877.226	39.82
877.514	34.24
877.802	17.35
878.09	10.25
878.378	26.3
878.666	31.59
878.954	39.05
879.242	28.97
879.53	19.57
879.817	15.2
880.105	50.71
880.392	40.12
880.68	14.02
880.967	29.95
881.255	39.19
881.542	18.37
881.83	42.26
882.117	26.89
882.404	32.44
882.691	32.79
882.978	48.03
883.265	31.96
883.552	33.91
883.839	36.67
884.126	42.89
884.413	31.63
884.699	37.84
884.986	37.78
885.273	44.13
885.559	44.13
885.846	44.13
