Data from 20-7_forehead_Reflection__1__26.txt Node

Date: Fri Nov 11 20:23:37 CST 2022
User: ToomeyLab
Spectrometer: FLMS14357
Trigger mode: 0
Integration Time (sec): 1.000000E-2
Scans to average: 100
Electric dark correction enabled: true
Nonlinearity correction enabled: false
Boxcar width: 0
XAxis mode: Wavelengths
Number of Pixels in Spectrum: 2048
>>>>>Begin Spectral Data<<<<<
189.047	136.62
189.435	136.62
189.823	136.62
190.211	-64.78
190.599	-59.75
190.987	28.44
191.375	-994.24
191.763	219.41
192.151	101.16
192.538	-71.37
192.926	45.34
193.314	163.97
193.702	-7.12
194.089	101.57
194.477	120.11
194.864	752.62
195.252	184.41
195.639	212.73
196.027	-118.81
196.414	81.16
196.801	417.51
197.189	-129.87
197.576	-50.77
197.963	-1594.3
198.351	-24.52
198.738	-10.48
199.125	33.65
199.512	41.58
199.899	-52.68
200.286	34.76
200.673	37.82
201.06	51.3
201.447	32.52
201.833	50.04
202.22	37
202.607	41.47
202.994	40.36
203.38	48.28
203.767	38.25
204.154	44.02
204.54	1.06
204.927	7.05
205.313	-5.03
205.699	-13.25
206.086	37.3
206.472	14.1
206.858	98.26
207.245	46.67
207.631	21.72
208.017	32.4
208.403	31.2
208.789	21.52
209.175	42.48
209.561	34.72
209.947	41.38
210.333	60.41
210.719	56
211.105	55.14
211.491	12.55
211.876	16.19
212.262	42.31
212.648	22.78
213.034	29.15
213.419	-24.28
213.805	-2.1
214.19	48.36
214.576	14.85
214.961	18.95
215.346	22.18
215.732	7.39
216.117	41.53
216.502	6.5
216.888	21.76
217.273	21.76
217.658	-18.69
218.043	49.44
218.428	31.69
218.813	5.9
219.198	-0.07
219.583	23.17
219.968	19.07
220.353	-5.84
220.738	-14.16
221.122	7.21
221.507	11.99
221.892	12.18
222.276	20.81
222.661	34.46
223.046	7.78
223.43	4.17
223.815	7.52
224.199	12.6
224.583	4.95
224.968	12.17
225.352	12.24
225.736	8.14
226.121	17.23
226.505	6.29
226.889	4.81
227.273	13.79
227.657	4
228.041	8.16
228.425	5.38
228.809	7.19
229.193	10.75
229.577	6.85
229.961	5.05
230.344	5.56
230.728	4.77
231.112	4.5
231.495	5.37
231.879	5.35
232.263	6.29
232.646	5.72
233.03	5.6
233.413	6.95
233.797	7.62
234.18	7.29
234.563	6.53
234.946	4.64
235.33	6.54
235.713	4.04
236.096	5.98
236.479	3.06
236.862	6.23
237.245	6.38
237.628	6.89
238.011	6.23
238.394	7.01
238.777	5.51
239.16	7.67
239.543	4.09
239.925	6.63
240.308	5.31
240.691	6.63
241.073	4.14
241.456	4.71
241.838	7.12
242.221	5.69
242.603	5.47
242.986	4.6
243.368	5.06
243.75	5.49
244.133	4.93
244.515	4.34
244.897	5.37
245.279	5.1
245.661	5.5
246.043	5.9
246.425	6.02
246.807	5.17
247.189	4.49
247.571	5.3
247.953	4.7
248.335	4.68
248.717	4.81
249.098	5.07
249.48	4.64
249.862	5.32
250.243	5.09
250.625	5.37
251.006	5.86
251.388	5.9
251.769	5.46
252.151	6.33
252.532	5.07
252.913	5.99
253.295	5.25
253.676	4.47
254.057	4.5
254.438	4.88
254.819	4.42
255.2	5.91
255.581	5.03
255.962	4.97
256.343	5.12
256.724	4.37
257.105	5.02
257.486	5.92
257.867	5.46
258.247	4.82
258.628	4.33
259.009	4.83
259.389	5.19
259.77	5.85
260.15	4.67
260.531	4.98
260.911	4.63
261.292	4.88
261.672	4.29
262.052	4.65
262.432	4.73
262.813	4.89
263.193	5.26
263.573	4.7
263.953	5.34
264.333	4.52
264.713	4.73
265.093	4.8
265.473	4.61
265.853	4.44
266.233	5.55
266.612	4.7
266.992	4.44
267.372	5.09
267.752	4.54
268.131	4.62
268.511	4.22
268.89	4.31
269.27	4.68
269.649	4.58
270.029	4.77
270.408	4.94
270.787	4.96
271.167	4.12
271.546	4.52
271.925	4.37
272.304	4.72
272.683	4.83
273.062	4.4
273.441	4.37
273.82	4.45
274.199	4.22
274.578	4.3
274.957	4.82
275.336	4.76
275.715	5.35
276.093	4.33
276.472	3.96
276.851	4.42
277.229	4.96
277.608	4.87
277.986	4.56
278.365	4.01
278.743	4.83
279.122	4.58
279.5	4.83
279.878	4.76
280.257	4.96
280.635	5.23
281.013	5.01
281.391	4.82
281.769	4.72
282.147	4.88
282.525	4.16
282.903	4.48
283.281	4.67
283.659	4.69
284.037	4.88
284.415	4.12
284.792	4.67
285.17	4.89
285.548	4.5
285.925	4.08
286.303	4.86
286.68	5.18
287.058	4.69
287.435	4.58
287.813	4.86
288.19	4.59
288.567	4.99
288.945	5.16
289.322	5.55
289.699	4.44
290.076	5.39
290.453	4.57
290.83	5.02
291.207	4.59
291.584	5.02
291.961	4.98
292.338	4.88
292.715	5.29
293.092	5.07
293.469	5.06
293.845	5.78
294.222	5.01
294.599	5.79
294.975	5.24
295.352	5.11
295.728	5.51
296.105	4.76
296.481	5.08
296.858	5.25
297.234	5.33
297.61	4.83
297.986	5.34
298.363	5.48
298.739	5.28
299.115	5.34
299.491	5.54
299.867	5.32
300.243	5.46
300.619	5.24
300.995	5.3
301.371	6.01
301.746	6.16
302.122	5.93
302.498	6.03
302.874	5.47
303.249	5.57
303.625	5.58
304	5.77
304.376	5.84
304.751	5.4
305.127	5.63
305.502	6.29
305.878	6.21
306.253	6.03
306.628	5.6
307.003	5.87
307.378	6.36
307.754	6.54
308.129	6.43
308.504	6.65
308.879	6.36
309.254	6.32
309.629	6.43
310.003	6.84
310.378	6.61
310.753	6.49
311.128	6.78
311.502	6.42
311.877	6.45
312.252	6.64
312.626	6.36
313.001	6.49
313.375	6.14
313.75	6.55
314.124	6.33
314.498	6.62
314.873	6.52
315.247	6.65
315.621	7.02
315.995	7.16
316.369	6.95
316.743	6.97
317.117	7.46
317.491	6.76
317.865	6.39
318.239	6.9
318.613	7.69
318.987	6.83
319.361	6.81
319.734	7.74
320.108	6.65
320.482	7.22
320.855	6.6
321.229	7.1
321.602	7.76
321.976	7.58
322.349	8.07
322.723	7.54
323.096	7.52
323.469	7.33
323.843	7.48
324.216	7.18
324.589	7.82
324.962	7.93
325.335	7.06
325.708	7.51
326.081	7.54
326.454	7.13
326.827	7.36
327.2	8.35
327.573	8.64
327.945	7.87
328.318	7.49
328.691	7.76
329.063	7.94
329.436	8.06
329.809	7.7
330.181	7.8
330.553	7.1
330.926	8.02
331.298	7.92
331.671	7.74
332.043	7.85
332.415	8.21
332.787	8.25
333.159	7.95
333.532	8.41
333.904	8.45
334.276	7.91
334.648	8.36
335.02	8.09
335.391	8.43
335.763	8
336.135	7.82
336.507	8.33
336.879	8.27
337.25	8.26
337.622	8.37
337.993	8.45
338.365	8.68
338.736	8.93
339.108	8.52
339.479	8.35
339.851	8.42
340.222	7.96
340.593	9.05
340.964	8.6
341.336	8.78
341.707	9.01
342.078	7.93
342.449	8.65
342.82	8.6
343.191	8.6
343.562	8.86
343.933	8.35
344.303	8.39
344.674	8.65
345.045	8.38
345.416	8.84
345.786	8.68
346.157	8.61
346.527	8.85
346.898	8.46
347.268	8.69
347.639	9
348.009	8.82
348.38	9.32
348.75	8.94
349.12	9.3
349.49	8.86
349.861	8.85
350.231	9.41
350.601	8.88
350.971	9.35
351.341	9.01
351.711	9.29
352.081	8.81
352.45	9.23
352.82	8.97
353.19	9.37
353.56	9.26
353.929	9.25
354.299	9.09
354.669	9.48
355.038	9.3
355.408	9.55
355.777	9.4
356.147	9.41
356.516	9.26
356.885	9.62
357.254	9.31
357.624	8.97
357.993	9.59
358.362	9.52
358.731	9.37
359.1	9.35
359.469	9.16
359.838	9.44
360.207	9.6
360.576	9.83
360.945	9.99
361.314	9.61
361.682	9.34
362.051	9.43
362.42	9.74
362.788	9.61
363.157	9.59
363.525	9.72
363.894	9.81
364.262	9.96
364.631	10.11
364.999	9.67
365.367	10.15
365.735	10.01
366.104	9.77
366.472	9.94
366.84	10.04
367.208	9.99
367.576	10.29
367.944	10.25
368.312	10.25
368.68	10.21
369.048	10.28
369.416	10.66
369.783	10.48
370.151	10.57
370.519	10.62
370.886	10.41
371.254	10.69
371.621	10.2
371.989	10.62
372.356	10.23
372.724	10.82
373.091	10.21
373.458	10.66
373.826	10.52
374.193	10.48
374.56	10.58
374.927	10.48
375.294	10.55
375.661	11.03
376.028	10.55
376.395	10.87
376.762	11.1
377.129	10.95
377.496	10.66
377.863	10.97
378.229	11.31
378.596	10.87
378.963	11.24
379.329	11.14
379.696	11.25
380.062	10.87
380.429	11.26
380.795	11.37
381.161	11.36
381.528	11.14
381.894	11.3
382.26	11.52
382.626	11.4
382.993	11.14
383.359	11.54
383.725	11.34
384.091	11.61
384.457	11.6
384.823	11.41
385.188	11.57
385.554	11.79
385.92	11.55
386.286	11.6
386.651	11.7
387.017	11.75
387.383	11.67
387.748	11.89
388.114	11.62
388.479	11.7
388.845	11.88
389.21	11.58
389.575	12.06
389.94	11.82
390.306	11.8
390.671	11.84
391.036	12.09
391.401	12.06
391.766	12.1
392.131	11.98
392.496	12.12
392.861	11.96
393.226	12.06
393.591	12.11
393.956	12.3
394.32	12.23
394.685	12.12
395.05	12.59
395.414	12.26
395.779	12.39
396.143	12.33
396.508	12.73
396.872	12.38
397.236	12.23
397.601	12.35
397.965	12.48
398.329	12.64
398.694	12.53
399.058	12.59
399.422	12.92
399.786	12.6
400.15	12.47
400.514	12.69
400.878	12.68
401.242	12.79
401.605	12.94
401.969	12.94
402.333	12.38
402.697	12.86
403.06	13.05
403.424	13.05
403.787	13.16
404.151	13.05
404.514	12.8
404.878	12.94
405.241	12.89
405.604	12.97
405.968	13
406.331	12.85
406.694	12.85
407.057	13.17
407.42	13.06
407.783	13.13
408.146	13.42
408.509	13.29
408.872	13.18
409.235	13.48
409.598	13.54
409.961	13.72
410.323	13.49
410.686	13.57
411.049	13.5
411.411	13.63
411.774	13.39
412.136	13.63
412.499	13.59
412.861	13.54
413.223	13.55
413.586	14
413.948	13.88
414.31	13.86
414.672	13.89
415.035	13.65
415.397	13.75
415.759	13.79
416.121	13.95
416.483	13.82
416.845	13.78
417.206	13.79
417.568	13.92
417.93	13.81
418.292	13.78
418.653	13.98
419.015	13.96
419.377	13.84
419.738	13.91
420.1	13.91
420.461	13.92
420.822	13.87
421.184	13.93
421.545	14.13
421.906	14.03
422.267	13.92
422.629	13.84
422.99	13.93
423.351	14.01
423.712	14.09
424.073	14.25
424.434	14.36
424.795	14.42
425.155	14.32
425.516	14.31
425.877	14.19
426.238	14.2
426.598	14.23
426.959	14.37
427.32	14.6
427.68	14.79
428.041	14.87
428.401	14.64
428.761	15.08
429.122	14.98
429.482	15.18
429.842	15.09
430.202	15.09
430.563	15.15
430.923	15.18
431.283	15.13
431.643	14.97
432.003	15.43
432.363	15.22
432.722	15.24
433.082	15.45
433.442	15.29
433.802	15.28
434.161	15.28
434.521	15.11
434.881	15.19
435.24	15.14
435.6	15.43
435.959	15.42
436.319	15.41
436.678	15.71
437.037	15.68
437.396	15.9
437.756	15.76
438.115	15.65
438.474	15.63
438.833	15.77
439.192	15.78
439.551	15.77
439.91	15.78
440.269	15.65
440.628	15.82
440.987	15.67
441.345	15.78
441.704	15.82
442.063	15.78
442.421	15.86
442.78	15.75
443.138	16.03
443.497	16.11
443.855	16.17
444.214	16.18
444.572	16.43
444.93	16.29
445.288	16.42
445.647	16.31
446.005	16.27
446.363	16.44
446.721	16.25
447.079	16.27
447.437	16.08
447.795	16.21
448.153	16.02
448.51	16.09
448.868	16.35
449.226	16.41
449.584	16.55
449.941	16.62
450.299	16.67
450.656	16.93
451.014	16.98
451.371	16.78
451.729	16.99
452.086	17.06
452.443	17.16
452.801	17.05
453.158	17.12
453.515	17.16
453.872	17.05
454.229	17.23
454.586	17.11
454.943	17.42
455.3	17.46
455.657	17.45
456.014	17.42
456.371	17.38
456.727	17.61
457.084	17.21
457.441	17.72
457.797	17.73
458.154	17.55
458.51	17.64
458.867	17.76
459.223	17.96
459.58	17.68
459.936	17.71
460.292	17.74
460.648	17.62
461.005	17.51
461.361	17.32
461.717	17.23
462.073	17.56
462.429	17.7
462.785	17.78
463.141	17.72
463.496	18.03
463.852	18.23
464.208	18.25
464.564	18.3
464.919	18.25
465.275	18.2
465.631	18.52
465.986	18.58
466.342	18.49
466.697	18.32
467.052	18.32
467.408	18.74
467.763	18.45
468.118	18.43
468.473	18.67
468.829	18.73
469.184	18.55
469.539	18.83
469.894	18.94
470.249	18.98
470.603	18.72
470.958	18.9
471.313	18.92
471.668	18.91
472.023	18.88
472.377	19.05
472.732	18.9
473.086	19.03
473.441	19.15
473.795	19.14
474.15	19.2
474.504	19.17
474.859	19.25
475.213	19.33
475.567	19.31
475.921	19.46
476.275	19.48
476.63	19.71
476.984	19.56
477.338	19.58
477.692	19.52
478.045	19.45
478.399	19.62
478.753	19.55
479.107	19.65
479.461	19.63
479.814	19.68
480.168	19.73
480.521	19.73
480.875	19.95
481.228	19.85
481.582	20.05
481.935	19.82
482.289	19.98
482.642	19.9
482.995	19.94
483.348	19.86
483.701	19.92
484.055	19.73
484.408	19.69
484.761	19.54
485.114	19.07
485.466	19.03
485.819	19.15
486.172	19.27
486.525	19.49
486.878	19.6
487.23	19.74
487.583	19.84
487.936	20.06
488.288	19.96
488.641	19.79
488.993	19.63
489.345	19.64
489.698	19.79
490.05	19.79
490.402	20.01
490.754	20.18
491.107	20.4
491.459	20.51
491.811	20.7
492.163	20.77
492.515	20.62
492.866	20.36
493.218	20.1
493.57	20.24
493.922	20.43
494.274	20.5
494.625	20.75
494.977	21.06
495.328	21.22
495.68	21.25
496.031	21.41
496.383	21.51
496.734	21.55
497.086	21.75
497.437	21.7
497.788	21.57
498.139	21.47
498.49	21.38
498.842	21.43
499.193	21.61
499.544	21.78
499.894	21.58
500.245	21.77
500.596	21.92
500.947	21.85
501.298	21.8
501.648	21.94
501.999	22.05
502.35	22.19
502.7	22.09
503.051	22.17
503.401	22.23
503.752	22.42
504.102	22.29
504.452	22.55
504.803	22.48
505.153	22.54
505.503	22.53
505.853	22.52
506.203	22.56
506.553	22.4
506.903	22.55
507.253	22.71
507.603	22.87
507.953	22.54
508.303	22.86
508.652	22.84
509.002	22.8
509.352	22.66
509.701	22.91
510.051	22.7
510.4	22.81
510.75	22.68
511.099	22.85
511.449	22.79
511.798	22.98
512.147	23.05
512.496	23.07
512.846	23.2
513.195	23.29
513.544	23.22
513.893	23.05
514.242	23.29
514.591	23.55
514.939	23.6
515.288	23.49
515.637	23.73
515.986	23.68
516.334	23.79
516.683	23.86
517.032	23.91
517.38	24.03
517.729	24.13
518.077	23.98
518.426	24.04
518.774	24.04
519.122	24.06
519.47	23.86
519.819	23.6
520.167	23.65
520.515	23.73
520.863	23.83
521.211	23.86
521.559	23.88
521.907	24.16
522.255	24.18
522.602	24.45
522.95	24.52
523.298	24.69
523.645	24.64
523.993	24.66
524.341	24.67
524.688	24.97
525.036	24.92
525.383	24.96
525.73	24.88
526.078	24.87
526.425	24.94
526.772	24.71
527.119	24.43
527.466	24.53
527.814	24.61
528.161	24.8
528.508	24.77
528.854	24.68
529.201	24.77
529.548	24.57
529.895	24.25
530.242	24.1
530.588	24.23
530.935	24.4
531.282	24.42
531.628	24.59
531.975	24.74
532.321	24.89
532.667	25.12
533.014	25.36
533.36	25.24
533.706	25.37
534.052	25.49
534.399	25.25
534.745	24.99
535.091	24.91
535.437	25.2
535.783	25.12
536.129	25.4
536.474	25.48
536.82	25.91
537.166	25.9
537.512	25.97
537.857	25.95
538.203	25.72
538.549	25.85
538.894	26.11
539.239	26.08
539.585	26.16
539.93	26.24
540.276	26.57
540.621	26.66
540.966	26.8
541.311	26.86
541.656	26.77
542.001	26.41
542.346	26.47
542.691	25.93
543.036	25.79
543.381	26
543.726	26.1
544.071	26.2
544.415	26.24
544.76	26.47
545.105	26.49
545.449	26.66
545.794	26.92
546.138	26.91
546.483	27.03
546.827	27.18
547.171	27.11
547.516	27.15
547.86	27.22
548.204	27.33
548.548	27.16
548.892	27.41
549.236	27.52
549.58	27.65
549.924	27.92
550.268	27.93
550.612	28.11
550.956	28.15
551.3	28.17
551.643	28.38
551.987	28.28
552.33	28.27
552.674	28.21
553.017	28.46
553.361	28.42
553.704	28.5
554.048	28.25
554.391	28.12
554.734	28.33
555.077	28.52
555.42	28.6
555.764	28.76
556.107	28.9
556.45	28.78
556.793	28.84
557.135	28.88
557.478	29.05
557.821	29.21
558.164	29.18
558.507	29.11
558.849	29.2
559.192	29.26
559.534	29.4
559.877	29.32
560.219	29.31
560.562	29.44
560.904	29.36
561.246	29.35
561.589	29.32
561.931	29.5
562.273	29.6
562.615	29.56
562.957	29.62
563.299	29.82
563.641	29.65
563.983	29.57
564.325	29.93
564.667	29.93
565.008	29.9
565.35	30.05
565.692	29.95
566.033	30.05
566.375	30.37
566.716	30.15
567.058	30.12
567.399	30.18
567.741	30.06
568.082	30.02
568.423	30.16
568.764	30.29
569.105	30.22
569.447	30.41
569.788	30.48
570.129	30.48
570.47	30.52
570.811	30.65
571.151	30.59
571.492	30.74
571.833	30.78
572.174	30.93
572.514	30.79
572.855	30.8
573.195	30.47
573.536	30.7
573.876	30.72
574.217	30.96
574.557	30.95
574.898	30.99
575.238	30.93
575.578	31.22
575.918	31.24
576.258	31.31
576.598	31.26
576.938	31.17
577.278	31.27
577.618	31.44
577.958	31.32
578.298	31.72
578.638	31.5
578.977	31.68
579.317	31.74
579.657	31.85
579.996	32.02
580.336	31.79
580.675	32.34
581.014	32.13
581.354	31.91
581.693	32.2
582.032	32.09
582.372	32.29
582.711	32.04
583.05	32.54
583.389	32.93
583.728	32.38
584.067	32.6
584.406	32.6
584.745	32.9
585.083	32.73
585.422	32.61
585.761	32.29
586.1	32.57
586.438	32.85
586.777	32.65
587.115	32.84
587.454	32.99
587.792	33.1
588.13	32.75
588.469	33.08
588.807	33.39
589.145	33.29
589.483	33.1
589.821	33
590.159	33.55
590.497	33.29
590.835	33.41
591.173	33.66
591.511	33.3
591.849	33.36
592.187	33.52
592.524	33.45
592.862	33.75
593.2	33.75
593.537	33.79
593.875	33.64
594.212	33.6
594.55	33.86
594.887	33.76
595.224	33.79
595.561	33.86
595.899	34.1
596.236	33.92
596.573	34.07
596.91	34.41
597.247	34.03
597.584	34.12
597.921	34.47
598.258	34.12
598.594	33.85
598.931	33.93
599.268	34.05
599.604	34.21
599.941	34.45
600.277	34.39
600.614	34.54
600.95	34.31
601.287	34.91
601.623	34.93
601.959	34.84
602.296	34.88
602.632	35.17
602.968	34.85
603.304	35.06
603.64	35.4
603.976	35.05
604.312	34.77
604.648	34.8
604.984	34.79
605.319	35.14
605.655	34.96
605.991	34.88
606.326	34.91
606.662	34.81
606.998	34.7
607.333	35.26
607.668	35.23
608.004	35.42
608.339	35.49
608.674	35.6
609.01	36.02
609.345	35.86
609.68	35.92
610.015	35.58
610.35	35.91
610.685	35.89
611.02	35.54
611.355	35.49
611.689	35.46
612.024	35.67
612.359	35.58
612.694	35.78
613.028	35.89
613.363	36.45
613.697	36.28
614.032	36.32
614.366	36.29
614.7	36.3
615.035	36.64
615.369	36.3
615.703	36.81
616.037	36.84
616.371	36.52
616.705	36.79
617.039	36.34
617.373	36.7
617.707	36.62
618.041	36.99
618.375	36.74
618.709	36.8
619.042	36.85
619.376	37.33
619.71	37.03
620.043	36.84
620.377	36.66
620.71	37.08
621.043	37.3
621.377	37.17
621.71	37.2
622.043	37.77
622.376	37.61
622.709	36.93
623.043	37.24
623.376	37.48
623.709	37.76
624.041	37.33
624.374	37.19
624.707	38.14
625.04	37.76
625.373	37.63
625.705	37.53
626.038	37.74
626.37	38.04
626.703	38.02
627.035	38.05
627.368	37.34
627.7	37.81
628.032	37.73
628.365	38.18
628.697	37.89
629.029	37.79
629.361	38.01
629.693	38
630.025	38
630.357	38.65
630.689	38.24
631.021	38.21
631.353	38.59
631.684	38.65
632.016	38.4
632.348	38.55
632.679	38.64
633.011	38.31
633.342	38.55
633.674	38.62
634.005	38.86
634.336	38.82
634.668	38.62
634.999	38.83
635.33	38.87
635.661	38.88
635.992	38.98
636.323	38.35
636.654	38.95
636.985	38.84
637.316	39.21
637.647	39.7
637.977	39.27
638.308	38.85
638.639	39.29
638.969	39.25
639.3	40.12
639.63	39.8
639.961	39.58
640.291	39.32
640.622	39.21
640.952	39.29
641.282	39.8
641.612	38.99
641.943	39.69
642.273	39.68
642.603	39.9
642.933	40.76
643.263	39.78
643.592	39.99
643.922	40.03
644.252	40.63
644.582	39.89
644.911	39.95
645.241	39.92
645.571	40.26
645.9	40.4
646.23	40.38
646.559	40.12
646.888	40.02
647.218	39.88
647.547	40.34
647.876	40.39
648.205	40.46
648.534	40.16
648.863	40.38
649.192	41.04
649.521	40.54
649.85	40.81
650.179	40.38
650.508	41.14
650.837	40.78
651.165	40.66
651.494	41.15
651.822	40.82
652.151	40.69
652.479	41.45
652.808	40.69
653.136	40.73
653.465	41.17
653.793	41.07
654.121	41.44
654.449	40.97
654.777	41.33
655.105	40.67
655.433	41.11
655.761	41.72
656.089	41.48
656.417	41.21
656.745	41.94
657.073	41.34
657.4	41.1
657.728	41.47
658.056	41.57
658.383	41.77
658.711	41.51
659.038	41.92
659.365	41.48
659.693	41.57
660.02	41.82
660.347	41.7
660.674	41.38
661.001	41.9
661.329	41.52
661.656	41.82
661.982	42.39
662.309	42.08
662.636	42.14
662.963	42.3
663.29	42.05
663.616	42.32
663.943	41.99
664.27	42.27
664.596	42.92
664.923	42.74
665.249	42.84
665.576	42.58
665.902	42.69
666.228	42.63
666.554	41.91
666.881	42.41
667.207	42.95
667.533	43.09
667.859	42.62
668.185	43.19
668.511	42.79
668.837	42.83
669.162	43.41
669.488	42.46
669.814	42.69
670.139	42.98
670.465	42.27
670.791	43.32
671.116	43.14
671.442	43.05
671.767	43.21
672.092	43.39
672.418	43.07
672.743	42.62
673.068	43.94
673.393	42.84
673.718	43.44
674.043	43.83
674.368	42.9
674.693	42.81
675.018	43.55
675.343	43.37
675.667	43.72
675.992	44.57
676.317	43.44
676.641	43.9
676.966	44.25
677.29	43.8
677.615	44.07
677.939	43.83
678.264	43.94
678.588	43.58
678.912	44.24
679.236	43.85
679.56	44.06
679.885	43.65
680.209	43.47
680.532	44.27
680.856	44.59
681.18	44.15
681.504	44.27
681.828	44.26
682.152	44.23
682.475	44.51
682.799	44.15
683.122	44.31
683.446	44.14
683.769	44.79
684.093	44.88
684.416	45.04
684.739	45.01
685.062	44.55
685.386	44.06
685.709	44.8
686.032	44.1
686.355	44.74
686.678	45.15
687.001	44.59
687.324	45.24
687.646	44.88
687.969	45.02
688.292	44.93
688.614	44.34
688.937	45.47
689.26	44.42
689.582	44.99
689.904	44.92
690.227	44.7
690.549	44.37
690.871	44.98
691.194	45.27
691.516	44.98
691.838	45.5
692.16	45.24
692.482	44.91
692.804	45.55
693.126	45.42
693.448	45.5
693.769	45.62
694.091	44.83
694.413	46.58
694.735	45.73
695.056	44.49
695.378	46.61
695.699	46.28
696.021	45.55
696.342	45.27
696.663	46.13
696.984	46.63
697.306	45.96
697.627	46.35
697.948	46.71
698.269	45.9
698.59	45.84
698.911	46.18
699.232	46.42
699.553	46.23
699.873	46.54
700.194	45.92
700.515	45.57
700.835	46.21
701.156	46.17
701.477	46.26
701.797	47.08
702.117	46.8
702.438	46.26
702.758	47.07
703.078	47.1
703.398	46.9
703.719	46.82
704.039	47.04
704.359	46.52
704.679	46.26
704.999	47.45
705.319	45.76
705.638	47.2
705.958	46.43
706.278	47.17
706.597	47.62
706.917	47.57
707.237	46.94
707.556	46.41
707.876	47.72
708.195	46.23
708.514	48.24
708.834	47.57
709.153	48.18
709.472	46.84
709.791	47.67
710.11	47.14
710.429	47.33
710.748	47.98
711.067	47.16
711.386	47.14
711.705	47.28
712.023	47.98
712.342	47.74
712.661	47.92
712.979	48.26
713.298	48.49
713.616	47.46
713.935	47.91
714.253	47.86
714.572	46.95
714.89	47.97
715.208	47.79
715.526	47.08
715.844	47.45
716.162	47.63
716.48	48.26
716.798	47.95
717.116	48
717.434	47.74
717.752	48.79
718.069	48.06
718.387	47.97
718.705	48.29
719.022	48.64
719.34	48.49
719.657	48.67
719.975	47.98
720.292	48.7
720.609	49.04
720.927	47.34
721.244	50.29
721.561	48.76
721.878	47.9
722.195	48.11
722.512	48.68
722.829	48.21
723.146	47.93
723.463	48.62
723.779	48.6
724.096	49.2
724.413	48.44
724.729	47.71
725.046	50.01
725.362	50.58
725.679	51.14
725.995	50.64
726.311	49.15
726.628	50.09
726.944	49.61
727.26	48.45
727.576	48.79
727.892	48.82
728.208	50.32
728.524	48.99
728.84	49.04
729.156	49.37
729.472	47.44
729.787	49.98
730.103	50.21
730.419	50.41
730.734	48.75
731.05	50.69
731.365	50.49
731.681	48.44
731.996	49.94
732.311	48.91
732.626	48.75
732.942	49.86
733.257	49.71
733.572	50.11
733.887	49.53
734.202	50.13
734.517	49.25
734.832	50.33
735.146	49.07
735.461	48.95
735.776	48.87
736.091	50.28
736.405	50.62
736.72	50.56
737.034	49.46
737.349	49.59
737.663	49.88
737.977	50.5
738.292	50.59
738.606	48.9
738.92	50.09
739.234	49.55
739.548	49.39
739.862	50.43
740.176	52.34
740.49	49.67
740.804	50.5
741.117	51.38
741.431	49.9
741.745	49.51
742.058	50.92
742.372	49.7
742.685	50.31
742.999	50.54
743.312	49.67
743.626	48.83
743.939	50.94
744.252	51.34
744.565	50.08
744.878	51.96
745.191	50.45
745.505	51.66
745.817	51.58
746.13	52.92
746.443	49.25
746.756	50.05
747.069	50.75
747.381	52.85
747.694	51.01
748.007	52.36
748.319	49.74
748.632	52.47
748.944	50.52
749.256	51.58
749.569	50.34
749.881	50.93
750.193	51.22
750.505	51.73
750.817	52.59
751.129	50.69
751.441	51.1
751.753	52.29
752.065	51.11
752.377	51.8
752.689	50.39
753	50.45
753.312	52.28
753.624	50.29
753.935	53.72
754.247	50.43
754.558	52.06
754.869	51.87
755.181	51.49
755.492	52.42
755.803	51.17
756.114	50.62
756.425	53
756.736	52.38
757.047	53.55
757.358	52.43
757.669	51.6
757.98	53.32
758.291	52.43
758.601	51.75
758.912	50.53
759.223	54.25
759.533	51.45
759.844	51.93
760.154	51.99
760.464	50.8
760.775	53.36
761.085	50.99
761.395	52.11
761.705	52.98
762.016	49.78
762.326	54.34
762.636	52.79
762.945	52.06
763.255	52.53
763.565	52.15
763.875	52.18
764.185	54.05
764.494	51.68
764.804	52.2
765.113	50.38
765.423	51.77
765.732	51.75
766.042	51.98
766.351	51.22
766.66	53.02
766.97	53.79
767.279	51.79
767.588	52.07
767.897	52.12
768.206	53.05
768.515	51.22
768.824	52.38
769.133	52.58
769.441	50.87
769.75	55.57
770.059	55.1
770.367	54.74
770.676	51.88
770.984	52.62
771.293	53.79
771.601	53.77
771.91	53.4
772.218	51.86
772.526	50.91
772.834	56.05
773.142	53.58
773.45	53.93
773.758	55.22
774.066	54.77
774.374	51.5
774.682	50.28
774.99	53.77
775.298	53.17
775.605	55.89
775.913	54.73
776.22	51.2
776.528	54.63
776.835	55.08
777.143	55.33
777.45	54.39
777.757	52.19
778.065	52.96
778.372	51.34
778.679	53.91
778.986	56.05
779.293	56.5
779.6	54.93
779.907	53.6
780.214	51.07
780.52	54.46
780.827	53.59
781.134	53.21
781.44	55.27
781.747	55.64
782.053	52.31
782.36	55.92
782.666	55.62
782.973	53.53
783.279	53.53
783.585	54.4
783.891	53.13
784.197	54.78
784.503	54.31
784.809	55.36
785.115	54.04
785.421	52.64
785.727	57.87
786.033	52.08
786.339	54.95
786.644	51.42
786.95	55.2
787.255	53.48
787.561	53.89
787.866	52.72
788.172	55.32
788.477	54.87
788.782	57.04
789.088	55.2
789.393	53.86
789.698	52.27
790.003	53.88
790.308	55.2
790.613	59.07
790.918	56.37
791.223	51.64
791.527	51.78
791.832	51.01
792.137	54.92
792.441	53.39
792.746	52.64
793.05	54.94
793.355	55.45
793.659	56.09
793.963	49.46
794.268	54.55
794.572	50.88
794.876	52.37
795.18	55.52
795.484	51.22
795.788	53.02
796.092	54.53
796.396	55.63
796.7	55.09
797.004	56.35
797.307	56.19
797.611	55.36
797.915	53.63
798.218	54.7
798.522	57.04
798.825	53.62
799.128	54.72
799.432	55.37
799.735	54.01
800.038	58.87
800.341	56.53
800.644	55.06
800.947	51.75
801.25	52.73
801.553	55.25
801.856	55.26
802.159	54.51
802.462	52.39
802.764	56.14
803.067	59.26
803.37	55.64
803.672	56
803.975	54.24
804.277	58.52
804.579	59.57
804.882	51.18
805.184	55.61
805.486	54.02
805.788	56.58
806.09	55
806.392	57.16
806.694	55.58
806.996	53.74
807.298	50.65
807.6	57.48
807.902	58.82
808.203	56.52
808.505	54.08
808.807	51.28
809.108	53.38
809.409	55.69
809.711	57.91
810.012	57.38
810.313	57.9
810.615	55.07
810.916	57.5
811.217	56.5
811.518	53.08
811.819	62.32
812.12	57.79
812.421	51.47
812.722	57.29
813.023	51.04
813.323	51.89
813.624	61.29
813.925	58.44
814.225	55.96
814.526	61.41
814.826	57.56
815.126	55.55
815.427	60.97
815.727	59.68
816.027	57.28
816.327	56.35
816.627	62.98
816.927	59.08
817.227	56.85
817.527	59.59
817.827	56.13
818.127	54.86
818.427	59.99
818.727	59.18
819.026	55.09
819.326	52.84
819.625	57.57
819.925	57.03
820.224	58.92
820.524	60.7
820.823	49.24
821.122	55.13
821.421	59.52
821.72	58.37
822.019	57.05
822.318	56.96
822.617	59.77
822.916	57.99
823.215	56.69
823.514	57.4
823.813	58.34
824.111	59.62
824.41	58.75
824.709	57.01
825.007	57.41
825.306	56.65
825.604	56.38
825.902	57.27
826.201	58.07
826.499	55.16
826.797	55.39
827.095	57.55
827.393	55.85
827.691	55.55
827.989	55.61
828.287	55.87
828.585	57.01
828.882	54.84
829.18	55.16
829.478	58.84
829.775	56.61
830.073	57.82
830.37	56.91
830.668	56.92
830.965	58.35
831.263	57.29
831.56	57.83
831.857	53.78
832.154	56.42
832.451	59.61
832.748	52.81
833.045	55.71
833.342	58.51
833.639	58.42
833.936	57.33
834.232	57.95
834.529	56.6
834.826	50.45
835.122	52.14
835.419	57.61
835.715	61.49
836.012	61.85
836.308	61.4
836.604	59.07
836.901	53.57
837.197	56.51
837.493	58.74
837.789	58.49
838.085	57.75
838.381	57.67
838.677	56.4
838.972	52.66
839.268	55.34
839.564	57.15
839.86	61.34
840.155	57.11
840.451	54.18
840.746	54.92
841.042	58.7
841.337	54.6
841.632	58.66
841.928	51.75
842.223	61.05
842.518	45.55
842.813	54.06
843.108	57.8
843.403	54.27
843.698	57.32
843.993	59.46
844.287	57.15
844.582	54.75
844.877	63.16
845.171	55.67
845.466	68.89
845.761	58.15
846.055	53.2
846.349	49.97
846.644	71.91
846.938	54.95
847.232	50.32
847.526	56.17
847.82	53.89
848.114	40.82
848.408	44.6
848.702	52.38
848.996	47.34
849.29	51.53
849.584	39.74
849.877	39.36
850.171	65.71
850.465	63.15
850.758	54.68
851.052	60.41
851.345	51.48
851.638	61.58
851.932	56.15
852.225	60.22
852.518	51.49
852.811	47.6
853.104	94.57
853.397	61.68
853.69	68.91
853.983	78.82
854.276	52.68
854.569	60.72
854.861	50.3
855.154	65.24
855.447	67.16
855.739	46.4
856.032	42.96
856.324	69.33
856.616	33.97
856.909	22.97
857.201	63.22
857.493	57.91
857.785	57.08
858.077	58.86
858.369	58.11
858.661	71.41
858.953	72.99
859.245	60.24
859.537	52.33
859.829	62.6
860.12	62.09
860.412	37.96
860.703	52.03
860.995	39.72
861.286	42.08
861.578	21.55
861.869	65.78
862.16	34.01
862.452	72.18
862.743	60
863.034	53.9
863.325	57.67
863.616	60.02
863.907	60.75
864.198	47.18
864.488	68.37
864.779	66.23
865.07	50.84
865.36	49.16
865.651	49.82
865.941	83.88
866.232	61.83
866.522	55.26
866.813	47.59
867.103	53.75
867.393	72.49
867.683	49.99
867.973	46.97
868.263	42.7
868.553	50.8
868.843	64.22
869.133	82.55
869.423	73.55
869.713	67.61
870.002	50.57
870.292	37.34
870.582	55.57
870.871	52.41
871.161	49.45
871.45	55.77
871.739	50.04
872.029	55.87
872.318	38.56
872.607	52.75
872.896	57.49
873.185	51.51
873.474	43.84
873.763	58.05
874.052	51.25
874.341	65.09
874.63	58.17
874.918	70.98
875.207	34.88
875.496	45.89
875.784	42.89
876.073	77.02
876.361	59.98
876.649	60.2
876.938	54.49
877.226	46.03
877.514	43.54
877.802	70.34
878.09	60.57
878.378	46.34
878.666	71.08
878.954	47.26
879.242	64.41
879.53	51.7
879.817	48.07
880.105	68.3
880.392	51.28
880.68	51.67
880.967	42.62
881.255	56.74
881.542	47.38
881.83	73.47
882.117	61.39
882.404	75.03
882.691	67.05
882.978	56.81
883.265	58.27
883.552	56.46
883.839	53.48
884.126	64.69
884.413	60.88
884.699	64.14
884.986	54.13
885.273	62.89
885.559	62.89
885.846	62.89
