Data from 20-7_forehead_Reflection__3__28.txt Node

Date: Fri Nov 11 20:23:59 CST 2022
User: ToomeyLab
Spectrometer: FLMS14357
Trigger mode: 0
Integration Time (sec): 1.000000E-2
Scans to average: 100
Electric dark correction enabled: true
Nonlinearity correction enabled: false
Boxcar width: 0
XAxis mode: Wavelengths
Number of Pixels in Spectrum: 2048
>>>>>Begin Spectral Data<<<<<
189.047	-103.94
189.435	-103.94
189.823	-103.94
190.211	-86.94
190.599	-18.02
190.987	-15.76
191.375	-702.09
191.763	-19.2
192.151	-5.85
192.538	-62.65
192.926	156.91
193.314	95.99
193.702	118.76
194.089	-822.19
194.477	66.7
194.864	102.55
195.252	149.56
195.639	0.14
196.027	-91.52
196.414	-60.74
196.801	749.5
197.189	-116.69
197.576	98.76
197.963	-2165.28
198.351	1.94
198.738	20.6
199.125	73.38
199.512	56.58
199.899	-52.71
200.286	62.97
200.673	30.33
201.06	41.77
201.447	73.24
201.833	46.01
202.22	-28.8
202.607	48.09
202.994	61.08
203.38	50.64
203.767	46.45
204.154	40.75
204.54	32.44
204.927	34.57
205.313	27.09
205.699	-0.5
206.086	65.79
206.472	40.56
206.858	26.87
207.245	39.89
207.631	18.73
208.017	26.38
208.403	23.44
208.789	71.03
209.175	51.58
209.561	65.6
209.947	31.38
210.333	25.12
210.719	56.25
211.105	41.05
211.491	14.46
211.876	44.08
212.262	40.28
212.648	7.53
213.034	10.92
213.419	11.32
213.805	23.95
214.19	2.18
214.576	15.39
214.961	-18.73
215.346	11.84
215.732	20.64
216.117	40.99
216.502	50.62
216.888	13.6
217.273	36.42
217.658	-3.04
218.043	55.51
218.428	20.65
218.813	26.72
219.198	52.6
219.583	20.27
219.968	13.25
220.353	-12.65
220.738	5.72
221.122	22.89
221.507	-0.85
221.892	3.59
222.276	16.43
222.661	21.67
223.046	-2.12
223.43	12.24
223.815	18.39
224.199	17.25
224.583	14.39
224.968	15.76
225.352	15.52
225.736	12.91
226.121	11.1
226.505	13.75
226.889	4.07
227.273	15.19
227.657	1.32
228.041	6.86
228.425	6.7
228.809	8.7
229.193	9.84
229.577	9.68
229.961	7.51
230.344	7.66
230.728	4.92
231.112	5.19
231.495	7.77
231.879	6.27
232.263	6.07
232.646	5.2
233.03	6.55
233.413	7.28
233.797	6
234.18	5.49
234.563	9.34
234.946	6.86
235.33	7.14
235.713	5.37
236.096	5.65
236.479	6.68
236.862	7.47
237.245	6
237.628	6.17
238.011	8.76
238.394	7.34
238.777	6.92
239.16	6.43
239.543	4.94
239.925	5.87
240.308	5.35
240.691	9.31
241.073	6.28
241.456	5.05
241.838	7.8
242.221	5.63
242.603	6.8
242.986	4.9
243.368	5.57
243.75	6.05
244.133	5.53
244.515	5.93
244.897	6.76
245.279	5.59
245.661	6.28
246.043	6.42
246.425	6.57
246.807	6.04
247.189	6.26
247.571	5.91
247.953	5.66
248.335	5.56
248.717	5.4
249.098	5.77
249.48	5.34
249.862	5.68
250.243	5.71
250.625	5.85
251.006	6.89
251.388	6.22
251.769	6.02
252.151	5.98
252.532	6.17
252.913	7.15
253.295	5.82
253.676	5.36
254.057	5.57
254.438	5.62
254.819	5.69
255.2	5.86
255.581	7.04
255.962	5.32
256.343	6.33
256.724	6.22
257.105	6.58
257.486	5.93
257.867	6.52
258.247	5.35
258.628	5.77
259.009	5.89
259.389	5.61
259.77	5.78
260.15	5.33
260.531	5.3
260.911	5.1
261.292	5.6
261.672	5.01
262.052	5.05
262.432	5.46
262.813	5.93
263.193	5.62
263.573	5.77
263.953	6.19
264.333	5.09
264.713	5.62
265.093	5.62
265.473	4.96
265.853	5.4
266.233	5.79
266.612	5.04
266.992	5.29
267.372	6.27
267.752	5.54
268.131	5.41
268.511	5.55
268.89	5.36
269.27	4.96
269.649	5.43
270.029	5.53
270.408	5.3
270.787	5.61
271.167	4.59
271.546	5.59
271.925	5.81
272.304	5.48
272.683	5.44
273.062	5.03
273.441	5.17
273.82	5.28
274.199	5.01
274.578	4.94
274.957	5.6
275.336	5.51
275.715	5.4
276.093	4.78
276.472	5.38
276.851	5.02
277.229	5.23
277.608	5.69
277.986	5.71
278.365	4.79
278.743	5.45
279.122	5.4
279.5	4.9
279.878	5.38
280.257	6.03
280.635	5.27
281.013	5.44
281.391	5.28
281.769	5.42
282.147	5.53
282.525	4.56
282.903	5.15
283.281	5.02
283.659	5.36
284.037	5.2
284.415	5.32
284.792	5.16
285.17	5.39
285.548	5.1
285.925	5.27
286.303	5.06
286.68	5.4
287.058	5.34
287.435	5.16
287.813	5.59
288.19	4.92
288.567	5.53
288.945	5.18
289.322	5.59
289.699	4.91
290.076	5.76
290.453	5.34
290.83	5.26
291.207	5.62
291.584	6.08
291.961	5.22
292.338	5.77
292.715	5.65
293.092	5.8
293.469	5.66
293.845	6.01
294.222	5.25
294.599	6.2
294.975	5.82
295.352	5.75
295.728	6.05
296.105	5.69
296.481	5.74
296.858	6.12
297.234	5.69
297.61	5.19
297.986	5.81
298.363	5.96
298.739	5.94
299.115	5.98
299.491	6.09
299.867	5.89
300.243	6.01
300.619	6.34
300.995	6.39
301.371	6.44
301.746	6.38
302.122	6.41
302.498	5.97
302.874	6.3
303.249	6.45
303.625	6.03
304	5.59
304.376	6.49
304.751	6.27
305.127	6.95
305.502	6.61
305.878	7.22
306.253	6.58
306.628	6.89
307.003	6.16
307.378	6.71
307.754	7.05
308.129	7.16
308.504	7.07
308.879	7.27
309.254	7.2
309.629	6.99
310.003	7.06
310.378	7.2
310.753	7.26
311.128	7.26
311.502	7.25
311.877	7.05
312.252	7.33
312.626	7.04
313.001	7.02
313.375	6.95
313.75	7.09
314.124	7.01
314.498	7.34
314.873	7.22
315.247	7.67
315.621	7.61
315.995	8.04
316.369	7.78
316.743	7.37
317.117	8.21
317.491	7.44
317.865	7.9
318.239	7.98
318.613	7.6
318.987	7.89
319.361	7.37
319.734	8.15
320.108	7.54
320.482	8.44
320.855	8.02
321.229	7.82
321.602	8.15
321.976	8.62
322.349	9.04
322.723	8.47
323.096	8.35
323.469	8.43
323.843	8.67
324.216	8.02
324.589	8.74
324.962	9
325.335	8.28
325.708	8.64
326.081	8.77
326.454	8.18
326.827	8.51
327.2	9.13
327.573	9.14
327.945	8.81
328.318	8.4
328.691	8.46
329.063	8.73
329.436	8.87
329.809	8.75
330.181	8.75
330.553	8.23
330.926	8.17
331.298	8.64
331.671	8.91
332.043	8.58
332.415	9.13
332.787	8.86
333.159	9.02
333.532	8.72
333.904	9.19
334.276	8.86
334.648	8.96
335.02	8.9
335.391	9.27
335.763	9.33
336.135	9.08
336.507	9.41
336.879	9.44
337.25	9.08
337.622	9.34
337.993	9.68
338.365	9.5
338.736	8.76
339.108	9.3
339.479	9.22
339.851	9.41
340.222	9.04
340.593	9.24
340.964	9.71
341.336	9.66
341.707	9.57
342.078	9.4
342.449	9.63
342.82	9.49
343.191	9.52
343.562	9.6
343.933	9.66
344.303	9.27
344.674	9.77
345.045	9.92
345.416	9.96
345.786	9.56
346.157	9.63
346.527	9.85
346.898	9.27
347.268	9.78
347.639	10.02
348.009	9.66
348.38	10.06
348.75	10.06
349.12	10.69
349.49	10.01
349.861	10.48
350.231	10.31
350.601	10.2
350.971	10.24
351.341	10.17
351.711	9.93
352.081	10.37
352.45	10.46
352.82	10.14
353.19	10.67
353.56	10.13
353.929	10.22
354.299	10.31
354.669	10.8
355.038	10.7
355.408	10.63
355.777	10.56
356.147	10.85
356.516	10.68
356.885	10.67
357.254	10.53
357.624	10.27
357.993	10.81
358.362	10.56
358.731	10.35
359.1	10.54
359.469	10.32
359.838	10.71
360.207	10.95
360.576	11
360.945	10.74
361.314	10.34
361.682	10.68
362.051	10.76
362.42	11.16
362.788	11.12
363.157	10.88
363.525	10.99
363.894	10.98
364.262	11.13
364.631	11.27
364.999	11.39
365.367	11.48
365.735	11.36
366.104	11.13
366.472	10.86
366.84	10.78
367.208	11.22
367.576	11.37
367.944	11.62
368.312	11.52
368.68	11.55
369.048	11.37
369.416	11.62
369.783	11.89
370.151	11.91
370.519	12
370.886	11.72
371.254	12.17
371.621	11.66
371.989	11.66
372.356	11.99
372.724	12.17
373.091	12
373.458	12.23
373.826	11.72
374.193	12.01
374.56	11.89
374.927	12.22
375.294	12.03
375.661	12.36
376.028	11.88
376.395	12.43
376.762	12.22
377.129	11.95
377.496	12.39
377.863	12.56
378.229	12.52
378.596	12.42
378.963	12.57
379.329	12.43
379.696	12.37
380.062	12.54
380.429	12.89
380.795	12.76
381.161	12.9
381.528	12.57
381.894	12.63
382.26	12.97
382.626	12.9
382.993	12.76
383.359	13.14
383.725	12.78
384.091	12.97
384.457	12.92
384.823	12.85
385.188	13.06
385.554	12.94
385.92	12.71
386.286	13.03
386.651	13.05
387.017	12.96
387.383	13.34
387.748	13.03
388.114	13.36
388.479	13.01
388.845	13.15
389.21	13.18
389.575	13.5
389.94	13.57
390.306	13.37
390.671	13.42
391.036	13.52
391.401	13.39
391.766	13.57
392.131	13.48
392.496	13.58
392.861	13.58
393.226	13.71
393.591	13.49
393.956	13.58
394.32	13.5
394.685	13.65
395.05	13.76
395.414	13.65
395.779	13.67
396.143	13.89
396.508	13.94
396.872	14.2
397.236	13.98
397.601	13.91
397.965	14.03
398.329	13.9
398.694	14.24
399.058	14.17
399.422	14.43
399.786	14.31
400.15	14.07
400.514	14.33
400.878	14.37
401.242	14.31
401.605	14.49
401.969	14.46
402.333	14.19
402.697	14.57
403.06	14.87
403.424	14.34
403.787	14.66
404.151	14.61
404.514	14.57
404.878	14.37
405.241	14.62
405.604	14.52
405.968	14.79
406.331	14.38
406.694	14.69
407.057	14.76
407.42	14.86
407.783	14.73
408.146	15.11
408.509	15.12
408.872	14.99
409.235	14.99
409.598	15.33
409.961	15.22
410.323	15.35
410.686	15.19
411.049	14.94
411.411	15.19
411.774	15.45
412.136	15.25
412.499	15.29
412.861	15.37
413.223	15.38
413.586	15.63
413.948	15.67
414.31	15.43
414.672	15.67
415.035	15.58
415.397	15.55
415.759	15.55
416.121	15.67
416.483	15.67
416.845	15.6
417.206	15.44
417.568	15.75
417.93	15.72
418.292	15.55
418.653	16.02
419.015	15.72
419.377	15.89
419.738	15.82
420.1	15.62
420.461	15.9
420.822	15.84
421.184	15.7
421.545	15.98
421.906	15.7
422.267	15.81
422.629	15.76
422.99	15.71
423.351	15.81
423.712	15.9
424.073	16.15
424.434	16.17
424.795	16.34
425.155	16.15
425.516	16.08
425.877	16.1
426.238	16.19
426.598	16.13
426.959	16.28
427.32	16.38
427.68	16.6
428.041	16.86
428.401	16.7
428.761	16.81
429.122	16.87
429.482	17.11
429.842	17.1
430.202	17.01
430.563	17.15
430.923	17.21
431.283	17.15
431.643	17.13
432.003	17.33
432.363	17.24
432.722	17.47
433.082	17.33
433.442	17.27
433.802	17.35
434.161	17.24
434.521	17.19
434.881	17.4
435.24	17.19
435.6	17.44
435.959	17.45
436.319	17.38
436.678	17.67
437.037	17.6
437.396	17.88
437.756	17.86
438.115	17.81
438.474	17.89
438.833	17.85
439.192	17.8
439.551	18
439.91	17.92
440.269	17.84
440.628	17.93
440.987	17.96
441.345	17.73
441.704	17.78
442.063	17.91
442.421	18.06
442.78	17.92
443.138	18.27
443.497	18.18
443.855	18.26
444.214	18.44
444.572	18.64
444.93	18.46
445.288	18.65
445.647	18.59
446.005	18.58
446.363	18.46
446.721	18.47
447.079	18.35
447.437	18.23
447.795	18.3
448.153	18.14
448.51	18.36
448.868	18.39
449.226	18.49
449.584	18.67
449.941	18.7
450.299	18.8
450.656	19.13
451.014	19.18
451.371	19.24
451.729	19.42
452.086	19.28
452.443	19.43
452.801	19.6
453.158	19.47
453.515	19.51
453.872	19.27
454.229	19.5
454.586	19.54
454.943	19.65
455.3	19.61
455.657	19.87
456.014	19.86
456.371	19.68
456.727	19.88
457.084	19.58
457.441	19.95
457.797	20.08
458.154	19.98
458.51	20.09
458.867	20.1
459.223	20.35
459.58	19.99
459.936	20.05
460.292	20.13
460.648	20.01
461.005	19.83
461.361	19.69
461.717	19.61
462.073	19.99
462.429	19.99
462.785	20.13
463.141	20.36
463.496	20.59
463.852	20.69
464.208	20.72
464.564	20.61
464.919	20.77
465.275	20.93
465.631	20.89
465.986	20.94
466.342	20.9
466.697	20.91
467.052	20.95
467.408	21.05
467.763	20.94
468.118	21.12
468.473	21.16
468.829	21.04
469.184	21.29
469.539	21.16
469.894	21.29
470.249	21.49
470.603	21.4
470.958	21.39
471.313	21.54
471.668	21.71
472.023	21.46
472.377	21.71
472.732	21.62
473.086	21.68
473.441	21.76
473.795	21.74
474.15	21.92
474.504	21.97
474.859	22.02
475.213	22.02
475.567	22.02
475.921	22.06
476.275	21.95
476.63	22.18
476.984	22.33
477.338	22.28
477.692	22.29
478.045	22.01
478.399	22.41
478.753	22.17
479.107	22.23
479.461	22.42
479.814	22.39
480.168	22.37
480.521	22.6
480.875	22.62
481.228	22.47
481.582	22.66
481.935	22.5
482.289	22.57
482.642	22.62
482.995	22.58
483.348	22.57
483.701	22.53
484.055	22.45
484.408	22.39
484.761	22.15
485.114	21.76
485.466	21.59
485.819	21.77
486.172	21.92
486.525	22.15
486.878	22.34
487.23	22.53
487.583	22.55
487.936	22.74
488.288	22.71
488.641	22.41
488.993	22.39
489.345	22.41
489.698	22.5
490.05	22.57
490.402	22.77
490.754	22.93
491.107	23.26
491.459	23.38
491.811	23.49
492.163	23.58
492.515	23.39
492.866	23.11
493.218	22.95
493.57	22.98
493.922	23.03
494.274	23.36
494.625	23.62
494.977	23.98
495.328	24.08
495.68	24.28
496.031	24.35
496.383	24.42
496.734	24.54
497.086	24.68
497.437	24.43
497.788	24.42
498.139	24.4
498.49	24.32
498.842	24.36
499.193	24.53
499.544	24.64
499.894	24.62
500.245	24.97
500.596	24.66
500.947	24.7
501.298	24.93
501.648	25.06
501.999	25.17
502.35	25.26
502.7	25.16
503.051	25.28
503.401	25.22
503.752	25.51
504.102	25.53
504.452	25.49
504.803	25.53
505.153	25.7
505.503	25.66
505.853	25.65
506.203	25.66
506.553	25.59
506.903	25.86
507.253	25.75
507.603	25.91
507.953	25.77
508.303	25.82
508.652	25.95
509.002	25.94
509.352	26.09
509.701	25.93
510.051	25.88
510.4	26.1
510.75	25.94
511.099	26.06
511.449	26.04
511.798	26.17
512.147	26.21
512.496	26.31
512.846	26.35
513.195	26.62
513.544	26.45
513.893	26.42
514.242	26.43
514.591	26.5
514.939	26.81
515.288	26.69
515.637	26.92
515.986	27.03
516.334	26.84
516.683	26.98
517.032	27.33
517.38	27.2
517.729	27.21
518.077	27.29
518.426	27.36
518.774	27.26
519.122	27.37
519.47	27.12
519.819	26.9
520.167	26.93
520.515	27.06
520.863	27.2
521.211	27.15
521.559	27.2
521.907	27.37
522.255	27.53
522.602	27.8
522.95	27.87
523.298	28.11
523.645	28.05
523.993	28.21
524.341	28.27
524.688	28.26
525.036	28.28
525.383	28.29
525.73	28.29
526.078	28.24
526.425	28.36
526.772	28.05
527.119	27.91
527.466	27.97
527.814	28.01
528.161	28.22
528.508	28.32
528.854	28.16
529.201	28.28
529.548	27.98
529.895	27.63
530.242	27.54
530.588	27.74
530.935	27.76
531.282	27.95
531.628	28.12
531.975	28.3
532.321	28.48
532.667	28.78
533.014	28.81
533.36	28.88
533.706	29.04
534.052	28.93
534.399	28.78
534.745	28.57
535.091	28.54
535.437	28.59
535.783	28.78
536.129	28.95
536.474	29.25
536.82	29.38
537.166	29.53
537.512	29.65
537.857	29.54
538.203	29.44
538.549	29.34
538.894	29.72
539.239	29.61
539.585	30.02
539.93	30.13
540.276	30.47
540.621	30.27
540.966	30.53
541.311	30.47
541.656	30.43
542.001	30.35
542.346	30.05
542.691	29.52
543.036	29.5
543.381	29.68
543.726	29.78
544.071	30.02
544.415	30.11
544.76	30.19
545.105	30.22
545.449	30.44
545.794	30.68
546.138	30.82
546.483	30.91
546.827	31.01
547.171	31.05
547.516	30.95
547.86	31.1
548.204	31.1
548.548	30.91
548.892	31.07
549.236	31.28
549.58	31.45
549.924	31.57
550.268	31.69
550.612	31.89
550.956	32.01
551.3	32.08
551.643	32.45
551.987	32.48
552.33	32.23
552.674	32.09
553.017	32.49
553.361	32.53
553.704	32.55
554.048	32.21
554.391	32.29
554.734	32.38
555.077	32.59
555.42	32.61
555.764	32.7
556.107	32.85
556.45	32.91
556.793	32.95
557.135	33.06
557.478	33.22
557.821	33.27
558.164	33.11
558.507	33.11
558.849	33.35
559.192	33.36
559.534	33.32
559.877	33.64
560.219	33.4
560.562	33.58
560.904	33.69
561.246	33.56
561.589	33.7
561.931	33.75
562.273	33.61
562.615	33.69
562.957	33.75
563.299	34.05
563.641	33.89
563.983	34
564.325	34.09
564.667	34.2
565.008	34.1
565.35	34.24
565.692	34.26
566.033	34.37
566.375	34.69
566.716	34.46
567.058	34.24
567.399	34.51
567.741	34.61
568.082	34.48
568.423	34.46
568.764	34.65
569.105	34.4
569.447	34.63
569.788	34.71
570.129	34.86
570.47	34.92
570.811	35.08
571.151	35.11
571.492	34.91
571.833	35.13
572.174	35.24
572.514	34.92
572.855	35.31
573.195	35.09
573.536	35.03
573.876	35.24
574.217	35.31
574.557	35.32
574.898	35.24
575.238	35.48
575.578	35.71
575.918	35.62
576.258	35.62
576.598	35.85
576.938	35.78
577.278	35.84
577.618	35.95
577.958	35.85
578.298	36.08
578.638	36.05
578.977	36.29
579.317	36.23
579.657	36.21
579.996	36.59
580.336	36.3
580.675	36.82
581.014	36.48
581.354	36.6
581.693	36.9
582.032	36.6
582.372	36.94
582.711	36.91
583.05	37.07
583.389	37.19
583.728	37.17
584.067	37.11
584.406	37.3
584.745	37.28
585.083	37.43
585.422	37.3
585.761	37.02
586.1	37.31
586.438	37.58
586.777	37.85
587.115	37.49
587.454	37.43
587.792	37.54
588.13	37.78
588.469	37.66
588.807	37.89
589.145	37.95
589.483	37.97
589.821	37.84
590.159	38.32
590.497	37.88
590.835	37.97
591.173	38.46
591.511	38.12
591.849	37.83
592.187	38.17
592.524	38.2
592.862	38.37
593.2	38.71
593.537	38.36
593.875	38.33
594.212	38.5
594.55	38.72
594.887	38.55
595.224	38.5
595.561	38.44
595.899	38.88
596.236	38.38
596.573	38.81
596.91	39.06
597.247	38.59
597.584	38.95
597.921	39.21
598.258	38.91
598.594	38.76
598.931	38.78
599.268	38.71
599.604	39.2
599.941	39
600.277	39.01
600.614	39.41
600.95	39.52
601.287	39.47
601.623	39.7
601.959	39.75
602.296	39.85
602.632	39.61
602.968	39.61
603.304	40.02
603.64	40.04
603.976	40.03
604.312	39.71
604.648	39.86
604.984	40.04
605.319	39.76
605.655	39.76
605.991	39.88
606.326	39.99
606.662	39.77
606.998	39.9
607.333	40.07
607.668	40.19
608.004	40.13
608.339	40.4
608.674	40.74
609.01	40.92
609.345	40.91
609.68	40.66
610.015	40.6
610.35	40.45
610.685	41.03
611.02	40.45
611.355	40.55
611.689	40.26
612.024	40.72
612.359	40.52
612.694	40.79
613.028	41.2
613.363	41.24
613.697	41.33
614.032	41.38
614.366	41.37
614.7	41.7
615.035	41.65
615.369	41.37
615.703	41.88
616.037	41.36
616.371	41.61
616.705	42.01
617.039	42.23
617.373	41.57
617.707	42.09
618.041	42.34
618.375	41.44
618.709	42.55
619.042	42.23
619.376	42.07
619.71	42.41
620.043	42.12
620.377	42
620.71	42.24
621.043	42.16
621.377	42.31
621.71	42.73
622.043	42.79
622.376	42.66
622.709	42.3
623.043	42.6
623.376	43.03
623.709	42.63
624.041	42.93
624.374	42.4
624.707	43.33
625.04	42.78
625.373	43.28
625.705	42.59
626.038	43.18
626.37	43.54
626.703	43.27
627.035	43.55
627.368	43.07
627.7	43.22
628.032	43.1
628.365	43.34
628.697	43.22
629.029	43.06
629.361	43.25
629.693	43.32
630.025	43.09
630.357	43.47
630.689	43.62
631.021	43.33
631.353	43.59
631.684	43.72
632.016	43.99
632.348	43.85
632.679	43.71
633.011	43.96
633.342	44.18
633.674	43.49
634.005	44.38
634.336	44.38
634.668	44.16
634.999	44.31
635.33	44.45
635.661	44.29
635.992	44.4
636.323	44.03
636.654	44.63
636.985	44.39
637.316	44.57
637.647	44.87
637.977	44.3
638.308	44.74
638.639	44.47
638.969	45.18
639.3	44.77
639.63	45.37
639.961	45.18
640.291	44.98
640.622	45.13
640.952	45.29
641.282	45.14
641.612	44.87
641.943	44.97
642.273	45.17
642.603	45.33
642.933	45.47
643.263	45.25
643.592	46.08
643.922	45.51
644.252	46
644.582	45.7
644.911	45.28
645.241	45.2
645.571	45.58
645.9	45.65
646.23	46.33
646.559	46.16
646.888	46
647.218	45.69
647.547	45.84
647.876	46.3
648.205	46.53
648.534	46.01
648.863	45.82
649.192	45.89
649.521	46.21
649.85	46.56
650.179	47.15
650.508	46.65
650.837	46.28
651.165	46.08
651.494	46.29
651.822	46.37
652.151	46.37
652.479	46.66
652.808	45.97
653.136	46.75
653.465	46.64
653.793	46.69
654.121	47.01
654.449	46.79
654.777	46.79
655.105	46.52
655.433	47.06
655.761	47.06
656.089	47.56
656.417	46.59
656.745	46.92
657.073	46.68
657.4	47.65
657.728	47.27
658.056	47.76
658.383	47.59
658.711	47.13
659.038	47.06
659.365	46.71
659.693	47.55
660.02	47.91
660.347	47.46
660.674	47.26
661.001	47.5
661.329	47.38
661.656	47.58
661.982	47.64
662.309	47.71
662.636	47.95
662.963	47.59
663.29	48.05
663.616	47.25
663.943	47.85
664.27	48.02
664.596	48.87
664.923	48.62
665.249	48.34
665.576	47.88
665.902	48.6
666.228	48.64
666.554	47.8
666.881	48.13
667.207	48.48
667.533	48.76
667.859	48.53
668.185	48.8
668.511	48.3
668.837	48.84
669.162	48.61
669.488	48.69
669.814	48.54
670.139	48.26
670.465	48.18
670.791	48.85
671.116	48.9
671.442	48.05
671.767	48.53
672.092	49
672.418	49.34
672.743	48.82
673.068	49
673.393	49.18
673.718	48.4
674.043	49.43
674.368	48.9
674.693	49.36
675.018	49.46
675.343	48.66
675.667	49.33
675.992	49.77
676.317	49.37
676.641	49.1
676.966	49.34
677.29	48.8
677.615	49.38
677.939	49.27
678.264	49.76
678.588	49.75
678.912	49.57
679.236	49.91
679.56	50.36
679.885	49.76
680.209	49.3
680.532	50.05
680.856	50.14
681.18	50.27
681.504	49.43
681.828	49.73
682.152	49.67
682.475	50.61
682.799	49.89
683.122	49.51
683.446	50.35
683.769	50.61
684.093	50.03
684.416	50.52
684.739	50.69
685.062	50.8
685.386	50.85
685.709	50.05
686.032	49.88
686.355	50.69
686.678	51.18
687.001	50.9
687.324	50.05
687.646	50.5
687.969	50.81
688.292	50.65
688.614	50.32
688.937	51.08
689.26	49.92
689.582	50.53
689.904	50.17
690.227	50.44
690.549	50.93
690.871	50.66
691.194	50.7
691.516	50.85
691.838	51
692.16	49.83
692.482	50.65
692.804	50.67
693.126	50.35
693.448	51.55
693.769	50.83
694.091	50.91
694.413	51.55
694.735	50.66
695.056	50.76
695.378	52.69
695.699	51.4
696.021	51.97
696.342	51.07
696.663	51.73
696.984	51.91
697.306	52.24
697.627	52.33
697.948	52.36
698.269	52.12
698.59	51.57
698.911	51.71
699.232	52.39
699.553	52.36
699.873	52.15
700.194	51.67
700.515	51.3
700.835	51.55
701.156	52.2
701.477	51.48
701.797	52.23
702.117	52.07
702.438	52.23
702.758	52.09
703.078	52.92
703.398	53.2
703.719	52.69
704.039	53.37
704.359	52.51
704.679	53.35
704.999	52.73
705.319	52.04
705.638	53.59
705.958	53.05
706.278	53.04
706.597	52.8
706.917	53.34
707.237	51.97
707.556	52.6
707.876	53.31
708.195	52.57
708.514	52.71
708.834	53.17
709.153	53.21
709.472	52.68
709.791	52.85
710.11	52.81
710.429	53.48
710.748	53.37
711.067	53.07
711.386	52.84
711.705	52.62
712.023	53.09
712.342	52.56
712.661	52.69
712.979	53.38
713.298	53.96
713.616	54.5
713.935	53.5
714.253	52.74
714.572	53.19
714.89	54.2
715.208	53.58
715.526	53.6
715.844	53.29
716.162	53.87
716.48	54.05
716.798	53.68
717.116	53.53
717.434	54.03
717.752	53.12
718.069	54.21
718.387	53.43
718.705	53.19
719.022	53.13
719.34	53.75
719.657	53.96
719.975	52.98
720.292	53.23
720.609	54.28
720.927	54.14
721.244	54.81
721.561	54.39
721.878	54.84
722.195	54.45
722.512	54.07
722.829	54.27
723.146	53.95
723.463	53.37
723.779	55.39
724.096	55.49
724.413	54.92
724.729	54.69
725.046	56.31
725.362	55.21
725.679	55.1
725.995	54.78
726.311	52.95
726.628	55.59
726.944	55.57
727.26	53.93
727.576	54.35
727.892	56.18
728.208	54.55
728.524	53.96
728.84	54.95
729.156	54.1
729.472	55.32
729.787	54.42
730.103	54.67
730.419	56.3
730.734	54.99
731.05	54.65
731.365	55.71
731.681	54.02
731.996	55.13
732.311	54.18
732.626	55.32
732.942	54.91
733.257	55.3
733.572	55.76
733.887	55.48
734.202	54.59
734.517	55.01
734.832	54.55
735.146	55.16
735.461	54.62
735.776	54.46
736.091	55.56
736.405	55.12
736.72	54.28
737.034	54.38
737.349	54.81
737.663	55.91
737.977	57.05
738.292	55.73
738.606	53.78
738.92	55.98
739.234	56.06
739.548	55.97
739.862	55.59
740.176	56.23
740.49	56.04
740.804	56.87
741.117	55.91
741.431	54.87
741.745	55.19
742.058	56.25
742.372	56.28
742.685	57.14
742.999	55.12
743.312	53.7
743.626	55.72
743.939	57.99
744.252	55.73
744.565	54.95
744.878	55.5
745.191	57.91
745.505	57.67
745.817	56.7
746.13	56.68
746.443	57.64
746.756	56.09
747.069	57.09
747.381	56.48
747.694	56.17
748.007	56.94
748.319	56.08
748.632	55.2
748.944	54.46
749.256	54.99
749.569	58.42
749.881	55.67
750.193	55.01
750.505	57.71
750.817	57.44
751.129	55.99
751.441	55.27
751.753	56.86
752.065	56.18
752.377	56.64
752.689	57.65
753	56.77
753.312	56.51
753.624	56.06
753.935	58.57
754.247	57.17
754.558	56.49
754.869	56.04
755.181	56.79
755.492	58.97
755.803	55.29
756.114	55.81
756.425	55.9
756.736	55.88
757.047	56.69
757.358	55.62
757.669	56.66
757.98	58.07
758.291	56.9
758.601	56.31
758.912	57.51
759.223	59.82
759.533	56.83
759.844	57.6
760.154	58.82
760.464	56.77
760.775	60.4
761.085	57.51
761.395	56.12
761.705	57.7
762.016	55.66
762.326	58.86
762.636	55.6
762.945	57.18
763.255	56.37
763.565	56.44
763.875	55.79
764.185	60.01
764.494	58.23
764.804	58.91
765.113	55.72
765.423	56.42
765.732	57.16
766.042	58.21
766.351	57.76
766.66	57.05
766.97	57.95
767.279	57.73
767.588	57.04
767.897	57.6
768.206	57.44
768.515	57.38
768.824	58.69
769.133	58.17
769.441	56.65
769.75	60.37
770.059	60.94
770.367	57.37
770.676	56.36
770.984	58.5
771.293	61.51
771.601	58.86
771.91	57.68
772.218	55.94
772.526	59.49
772.834	60.46
773.142	59.93
773.45	59.72
773.758	59.75
774.066	61.04
774.374	58.4
774.682	58.2
774.99	58.41
775.298	59.51
775.605	57.24
775.913	59.79
776.22	58.75
776.528	58.75
776.835	60
777.143	60.18
777.45	58.36
777.757	59.73
778.065	59.88
778.372	57.14
778.679	56.54
778.986	58.15
779.293	60.45
779.6	57.9
779.907	57.62
780.214	57.6
780.52	59.47
780.827	59.21
781.134	59.6
781.44	58.59
781.747	58.83
782.053	59.05
782.36	57.88
782.666	59.94
782.973	57.11
783.279	56.38
783.585	59.18
783.891	58.87
784.197	60.73
784.503	60.66
784.809	56.99
785.115	60.93
785.421	57.42
785.727	60.76
786.033	57.87
786.339	59.1
786.644	55.33
786.95	56.01
787.255	58.96
787.561	56.46
787.866	58.21
788.172	59.14
788.477	61.27
788.782	60.25
789.088	59.01
789.393	57.62
789.698	59.11
790.003	57.55
790.308	57.49
790.613	62.18
790.918	59.98
791.223	57.92
791.527	58.48
791.832	58.31
792.137	62.3
792.441	61.36
792.746	59.67
793.05	59.12
793.355	58.93
793.659	58.07
793.963	55.07
794.268	62.29
794.572	62.16
794.876	58.39
795.18	62.1
795.484	58.9
795.788	55.08
796.092	59.52
796.396	58.62
796.7	62.8
797.004	57.76
797.307	58.25
797.611	60.27
797.915	60.24
798.218	58.01
798.522	60.16
798.825	58.72
799.128	60.86
799.432	55.44
799.735	56
800.038	60.48
800.341	58.48
800.644	61.12
800.947	58.01
801.25	58.54
801.553	61.09
801.856	64.38
802.159	64.82
802.462	55.8
802.764	58.57
803.067	64
803.37	60.64
803.672	60.32
803.975	60.52
804.277	58.55
804.579	59.54
804.882	59.87
805.184	63.1
805.486	58.82
805.788	61.04
806.09	58.13
806.392	57.54
806.694	61.63
806.996	59.83
807.298	61.96
807.6	59.17
807.902	61.5
808.203	55.51
808.505	60.25
808.807	58.75
809.108	57.49
809.409	59.81
809.711	64.67
810.012	61.48
810.313	70.19
810.615	62.18
810.916	55.6
811.217	60.03
811.518	58.21
811.819	59.92
812.12	60.23
812.421	56.61
812.722	62.24
813.023	56.15
813.323	60.59
813.624	63.87
813.925	58.59
814.225	58.82
814.526	65.61
814.826	63.67
815.126	63.78
815.427	62.56
815.727	60.06
816.027	64.53
816.327	60.84
816.627	66.09
816.927	61.1
817.227	57.73
817.527	58.27
817.827	65.32
818.127	62.29
818.427	58.95
818.727	58.46
819.026	62.59
819.326	60.05
819.625	57.15
819.925	60.54
820.224	63.28
820.524	60.27
820.823	61.55
821.122	62.93
821.421	64.65
821.72	58.39
822.019	58.46
822.318	63.18
822.617	66.18
822.916	60.38
823.215	59.91
823.514	62.16
823.813	61.27
824.111	60.02
824.41	62.08
824.709	61.95
825.007	62.73
825.306	61.47
825.604	60.54
825.902	61.42
826.201	60.67
826.499	60.6
826.797	60.98
827.095	60.25
827.393	62.61
827.691	61.63
827.989	63.88
828.287	62.8
828.585	61.26
828.882	63.07
829.18	61.3
829.478	63.83
829.775	60.81
830.073	62.03
830.37	62.09
830.668	60.74
830.965	62.48
831.263	63.01
831.56	61.54
831.857	60.4
832.154	59.13
832.451	62.5
832.748	61.04
833.045	61.07
833.342	67.61
833.639	68.82
833.936	64.16
834.232	55.34
834.529	59.46
834.826	59.92
835.122	63.64
835.419	60.35
835.715	61.3
836.012	67.43
836.308	62.67
836.604	61.17
836.901	60.74
837.197	64.83
837.493	58.31
837.789	62.32
838.085	61.65
838.381	64.65
838.677	58.06
838.972	63.2
839.268	57.52
839.564	65.25
839.86	64.36
840.155	60.24
840.451	58.06
840.746	65.03
841.042	63.39
841.337	58.65
841.632	66.44
841.928	64.41
842.223	68.72
842.518	55.65
842.813	60.63
843.108	64.07
843.403	59.38
843.698	68.15
843.993	59.88
844.287	67.95
844.582	65.42
844.877	68.53
845.171	53.48
845.466	64.47
845.761	52.43
846.055	62.98
846.349	66.98
846.644	52.86
846.938	66.77
847.232	47.71
847.526	61.68
847.82	54.21
848.114	58.06
848.408	50.91
848.702	63.76
848.996	56.17
849.29	47.5
849.584	47.41
849.877	69.2
850.171	73.85
850.465	73.95
850.758	53.24
851.052	66.34
851.345	75.56
851.638	56.32
851.932	45.26
852.225	59.61
852.518	62.94
852.811	70.7
853.104	72.67
853.397	57.24
853.69	70.97
853.983	86.91
854.276	57
854.569	54.81
854.861	60.39
855.154	61.34
855.447	49.68
855.739	69.67
856.032	65.8
856.324	53.35
856.616	65.37
856.909	52.39
857.201	59.3
857.493	59.88
857.785	61.32
858.077	59.43
858.369	75.1
858.661	64.12
858.953	62.66
859.245	75.21
859.537	71.71
859.829	72.7
860.12	54.17
860.412	61.86
860.703	70.09
860.995	79.99
861.286	71.46
861.578	42.79
861.869	73.72
862.16	39.55
862.452	72.52
862.743	55.58
863.034	62.25
863.325	83.52
863.616	45.71
863.907	61.97
864.198	65.82
864.488	71.72
864.779	70.65
865.07	59.51
865.36	60.75
865.651	50.64
865.941	76.83
866.232	77.2
866.522	52.04
866.813	63.64
867.103	65.84
867.393	49.95
867.683	49.43
867.973	67.71
868.263	63.44
868.553	74.37
868.843	67.35
869.133	56.43
869.423	68.33
869.713	70.29
870.002	43.16
870.292	40.88
870.582	70.45
870.871	56.35
871.161	49.31
871.45	56.5
871.739	89.83
872.029	70.13
872.318	50.89
872.607	58.61
872.896	69.88
873.185	67.07
873.474	62.23
873.763	54.03
874.052	62.9
874.341	57.46
874.63	62.02
874.918	75.84
875.207	33.93
875.496	59.53
875.784	31.89
876.073	69.05
876.361	55.44
876.649	40.11
876.938	55.27
877.226	83.83
877.514	56.35
877.802	76.09
878.09	86
878.378	54.01
878.666	68.94
878.954	52.39
879.242	62.95
879.53	37.12
879.817	65.38
880.105	60.33
880.392	74.08
880.68	61.03
880.967	65.8
881.255	49.33
881.542	48
881.83	45.07
882.117	57.89
882.404	47.32
882.691	90.58
882.978	63.02
883.265	60.74
883.552	64.91
883.839	53.25
884.126	58.89
884.413	57.22
884.699	71.13
884.986	59.01
885.273	67.72
885.559	67.72
885.846	67.72
