Data from 1610-5_forehead_Reflection__2__107.txt Node

Date: Fri Nov 11 16:56:50 CST 2022
User: ToomeyLab
Spectrometer: FLMS14357
Trigger mode: 0
Integration Time (sec): 1.000000E-2
Scans to average: 100
Electric dark correction enabled: true
Nonlinearity correction enabled: false
Boxcar width: 0
XAxis mode: Wavelengths
Number of Pixels in Spectrum: 2048
>>>>>Begin Spectral Data<<<<<
189.047	132.05
189.435	132.05
189.823	132.05
190.211	91.89
190.599	294.78
190.987	-7.84
191.375	-44.07
191.763	-483.09
192.151	28.35
192.538	-60.67
192.926	155.17
193.314	37.31
193.702	-66.35
194.089	-6.16
194.477	-116.56
194.864	322.25
195.252	272.86
195.639	-43.99
196.027	126.13
196.414	101.08
196.801	-5.05
197.189	103.87
197.576	112.75
197.963	54.64
198.351	17.21
198.738	-89.46
199.125	21.95
199.512	5.41
199.899	19.82
200.286	23.35
200.673	38.66
201.06	60.01
201.447	42.88
201.833	55.67
202.22	25.58
202.607	40.89
202.994	66.52
203.38	37.95
203.767	22.68
204.154	-2.11
204.54	36.85
204.927	22.74
205.313	30.23
205.699	45.44
206.086	55.77
206.472	36.44
206.858	40.31
207.245	22.61
207.631	36.83
208.017	11.02
208.403	13.07
208.789	13.44
209.175	9.77
209.561	46.54
209.947	17.32
210.333	68.84
210.719	16.74
211.105	34.91
211.491	-85.85
211.876	41.9
212.262	-3.91
212.648	31.38
213.034	37.47
213.419	53.26
213.805	17.47
214.19	-11.3
214.576	36.27
214.961	26.38
215.346	-8.92
215.732	-5.29
216.117	17.73
216.502	15.43
216.888	-8.89
217.273	34.73
217.658	-11.37
218.043	0.64
218.428	-7.62
218.813	23.07
219.198	-22.8
219.583	22.34
219.968	29.73
220.353	-10.6
220.738	-2.96
221.122	12.34
221.507	22.16
221.892	7.74
222.276	-6.92
222.661	11.35
223.046	18.09
223.43	17.74
223.815	2.25
224.199	18.72
224.583	4.65
224.968	7.09
225.352	-7.67
225.736	13.61
226.121	1.42
226.505	4.2
226.889	5.41
227.273	2.2
227.657	0.01
228.041	3.15
228.425	6.47
228.809	5.12
229.193	-1.17
229.577	4.65
229.961	3.07
230.344	3.56
230.728	3.11
231.112	3.81
231.495	3.18
231.879	3.96
232.263	1.23
232.646	1.87
233.03	3.81
233.413	2.36
233.797	3.62
234.18	3.79
234.563	5.71
234.946	0.63
235.33	2.46
235.713	4.72
236.096	1.97
236.479	5.51
236.862	5.62
237.245	5.89
237.628	3.94
238.011	3.12
238.394	7.06
238.777	3.4
239.16	4.73
239.543	1.96
239.925	5.27
240.308	4.06
240.691	3.5
241.073	2.68
241.456	3.45
241.838	3.21
242.221	2.7
242.603	2.89
242.986	3.83
243.368	3.25
243.75	3.57
244.133	3.07
244.515	3.67
244.897	3.12
245.279	2.55
245.661	3.51
246.043	4.64
246.425	3.4
246.807	3.39
247.189	2.5
247.571	3.01
247.953	3.72
248.335	3.67
248.717	3.39
249.098	3.41
249.48	3.37
249.862	3.38
250.243	3.19
250.625	3.41
251.006	4.07
251.388	3.83
251.769	3.91
252.151	3.79
252.532	3.33
252.913	3.19
253.295	2.85
253.676	3.57
254.057	3.17
254.438	3.56
254.819	3.29
255.2	4.93
255.581	4.49
255.962	3.69
256.343	3.58
256.724	4.01
257.105	3.66
257.486	3.42
257.867	3.04
258.247	4.92
258.628	3.94
259.009	2.61
259.389	3.96
259.77	5.1
260.15	4.17
260.531	3.57
260.911	2.95
261.292	3.43
261.672	3.23
262.052	3.24
262.432	3.74
262.813	3.62
263.193	3.47
263.573	4.34
263.953	3.45
264.333	4.2
264.713	2.74
265.093	3.67
265.473	4.04
265.853	2.95
266.233	3.43
266.612	2.53
266.992	3.29
267.372	3.94
267.752	3.71
268.131	3.76
268.511	3.86
268.89	3.75
269.27	3.26
269.649	2.96
270.029	3.02
270.408	3.08
270.787	3.43
271.167	2.89
271.546	3.58
271.925	4.18
272.304	3.62
272.683	3.64
273.062	3.56
273.441	2.99
273.82	2.93
274.199	3.97
274.578	3.79
274.957	3.09
275.336	3.69
275.715	3.52
276.093	3.78
276.472	3.37
276.851	3.83
277.229	3.52
277.608	3.74
277.986	2.95
278.365	3.88
278.743	3.65
279.122	2.81
279.5	3.42
279.878	2.97
280.257	3.62
280.635	3.41
281.013	3.5
281.391	3.48
281.769	3.92
282.147	3.16
282.525	3.2
282.903	3.55
283.281	3.19
283.659	3.36
284.037	3.5
284.415	3.28
284.792	3.16
285.17	3.9
285.548	3.8
285.925	3.35
286.303	3.43
286.68	3.26
287.058	3.4
287.435	3.33
287.813	3.38
288.19	3.39
288.567	3.8
288.945	3.26
289.322	3.36
289.699	3.6
290.076	3.26
290.453	3.57
290.83	3.42
291.207	3.86
291.584	3.64
291.961	3.6
292.338	3.67
292.715	3.77
293.092	3.22
293.469	4.17
293.845	4.25
294.222	4
294.599	3.81
294.975	3.68
295.352	3.67
295.728	3.88
296.105	4.13
296.481	3.44
296.858	3.81
297.234	3.82
297.61	4.01
297.986	3.56
298.363	3.95
298.739	4.23
299.115	3.99
299.491	4.13
299.867	4.04
300.243	3.86
300.619	4.64
300.995	3.86
301.371	4.01
301.746	4.14
302.122	4.54
302.498	4.18
302.874	4.1
303.249	4.01
303.625	4.12
304	3.68
304.376	4.23
304.751	4.93
305.127	4.91
305.502	4.77
305.878	5.03
306.253	4.92
306.628	5.12
307.003	4.63
307.378	5.29
307.754	5.02
308.129	5.46
308.504	4.38
308.879	4.71
309.254	4.08
309.629	4.64
310.003	4.94
310.378	4.72
310.753	4.73
311.128	5.06
311.502	4.89
311.877	5.25
312.252	4.87
312.626	5.01
313.001	4.83
313.375	5.05
313.75	5.54
314.124	5.24
314.498	5.73
314.873	4.72
315.247	5.54
315.621	5
315.995	5.16
316.369	5.85
316.743	5.54
317.117	5.28
317.491	5.7
317.865	5.85
318.239	5.67
318.613	5.67
318.987	6.04
319.361	5.6
319.734	5.49
320.108	6.17
320.482	5.44
320.855	5.92
321.229	6.4
321.602	6.06
321.976	6
322.349	6.04
322.723	6.24
323.096	6.39
323.469	6.28
323.843	6.79
324.216	6.14
324.589	6.21
324.962	5.94
325.335	6.57
325.708	6.42
326.081	5.97
326.454	6.42
326.827	6.21
327.2	6.4
327.573	6.66
327.945	6.66
328.318	6.78
328.691	7.13
329.063	7.03
329.436	6.63
329.809	6.26
330.181	7.17
330.553	6.82
330.926	6.33
331.298	7.15
331.671	7.13
332.043	7.28
332.415	7.07
332.787	6.66
333.159	7.42
333.532	6.1
333.904	6.35
334.276	7.07
334.648	7
335.02	7.45
335.391	6.78
335.763	7.1
336.135	7
336.507	6.94
336.879	7.25
337.25	7.01
337.622	7.66
337.993	6.92
338.365	7.24
338.736	7.38
339.108	7.5
339.479	7.33
339.851	6.99
340.222	7.02
340.593	7.43
340.964	7.37
341.336	7.29
341.707	7.38
342.078	7.61
342.449	7.86
342.82	7.6
343.191	8.07
343.562	7.94
343.933	7.43
344.303	7.85
344.674	7.88
345.045	7.61
345.416	7.76
345.786	7.82
346.157	7.76
346.527	7.78
346.898	8.03
347.268	8.05
347.639	8.14
348.009	8.07
348.38	8.06
348.75	8.81
349.12	7.97
349.49	8.23
349.861	8.03
350.231	8.61
350.601	8.54
350.971	8.34
351.341	7.74
351.711	8.15
352.081	7.86
352.45	8.26
352.82	8.44
353.19	8.43
353.56	8.71
353.929	8.73
354.299	8.37
354.669	8.48
355.038	8.53
355.408	8.49
355.777	8.69
356.147	8.71
356.516	9.02
356.885	8.54
357.254	8.85
357.624	8.68
357.993	8.9
358.362	8.51
358.731	8.74
359.1	8.65
359.469	8.96
359.838	8.98
360.207	9.21
360.576	9.02
360.945	9.06
361.314	9.19
361.682	9.13
362.051	9
362.42	8.74
362.788	8.86
363.157	9.13
363.525	9.38
363.894	8.95
364.262	8.86
364.631	9.28
364.999	9.03
365.367	9.45
365.735	9.49
366.104	9.17
366.472	9.56
366.84	9.36
367.208	9.55
367.576	9.47
367.944	9.6
368.312	9.73
368.68	9.7
369.048	9.48
369.416	9.6
369.783	9.8
370.151	9.59
370.519	9.75
370.886	10.02
371.254	9.86
371.621	9.88
371.989	10.07
372.356	9.75
372.724	10.09
373.091	9.85
373.458	10.02
373.826	10.2
374.193	10.1
374.56	10.05
374.927	10
375.294	10.32
375.661	10.49
376.028	10.12
376.395	10.56
376.762	10.32
377.129	10.4
377.496	10.28
377.863	10.46
378.229	10.77
378.596	10.31
378.963	10.31
379.329	10.26
379.696	10.45
380.062	10.44
380.429	10.51
380.795	10.74
381.161	11.08
381.528	10.95
381.894	10.9
382.26	10.78
382.626	10.76
382.993	10.7
383.359	10.93
383.725	10.97
384.091	10.71
384.457	10.93
384.823	11
385.188	10.96
385.554	10.83
385.92	10.81
386.286	10.9
386.651	10.93
387.017	11.04
387.383	10.75
387.748	11.06
388.114	11.25
388.479	11.13
388.845	11.02
389.21	11.34
389.575	11.18
389.94	11.28
390.306	11.28
390.671	11.28
391.036	11.3
391.401	11.51
391.766	11.38
392.131	11.07
392.496	11.51
392.861	11.1
393.226	11.3
393.591	11.24
393.956	11.56
394.32	11.53
394.685	11.66
395.05	11.58
395.414	11.87
395.779	11.45
396.143	11.67
396.508	11.5
396.872	11.72
397.236	11.71
397.601	11.5
397.965	12
398.329	11.5
398.694	11.5
399.058	11.56
399.422	11.57
399.786	11.8
400.15	11.61
400.514	11.58
400.878	12.02
401.242	11.7
401.605	11.83
401.969	11.98
402.333	11.71
402.697	11.82
403.06	11.58
403.424	11.57
403.787	11.87
404.151	11.55
404.514	11.87
404.878	11.86
405.241	11.61
405.604	11.7
405.968	11.9
406.331	11.66
406.694	11.58
407.057	11.69
407.42	11.62
407.783	11.79
408.146	11.96
408.509	11.8
408.872	11.97
409.235	11.95
409.598	11.81
409.961	11.9
410.323	11.91
410.686	11.98
411.049	12.16
411.411	11.8
411.774	11.71
412.136	11.86
412.499	11.95
412.861	11.94
413.223	11.97
413.586	11.87
413.948	11.94
414.31	12.2
414.672	12.02
415.035	12.32
415.397	12.35
415.759	12.33
416.121	12.21
416.483	12.18
416.845	12.13
417.206	12.27
417.568	12.27
417.93	12.19
418.292	11.97
418.653	12.22
419.015	12.18
419.377	12.35
419.738	12.31
420.1	12.23
420.461	12.18
420.822	12.13
421.184	12.2
421.545	12.33
421.906	12.46
422.267	12.56
422.629	12.37
422.99	12.36
423.351	12.44
423.712	12.54
424.073	12.71
424.434	12.75
424.795	12.89
425.155	12.89
425.516	12.88
425.877	12.91
426.238	12.85
426.598	12.98
426.959	13.12
427.32	13.35
427.68	13.32
428.041	13.37
428.401	13.47
428.761	13.8
429.122	13.7
429.482	13.82
429.842	13.86
430.202	14.18
430.563	13.95
430.923	14.09
431.283	14.2
431.643	14.42
432.003	14.31
432.363	14.39
432.722	14.44
433.082	14.6
433.442	14.53
433.802	14.69
434.161	14.6
434.521	14.77
434.881	14.57
435.24	14.79
435.6	14.7
435.959	14.98
436.319	14.87
436.678	15.03
437.037	15.05
437.396	15.04
437.756	15.18
438.115	15.21
438.474	15.4
438.833	15.32
439.192	15.6
439.551	15.42
439.91	15.55
440.269	15.7
440.628	15.82
440.987	15.72
441.345	15.63
441.704	15.7
442.063	15.94
442.421	15.69
442.78	15.82
443.138	15.85
443.497	15.91
443.855	16.1
444.214	16.2
444.572	16.41
444.93	16.2
445.288	16.5
445.647	16.29
446.005	16.62
446.363	16.51
446.721	16.28
447.079	16.55
447.437	16.58
447.795	16.41
448.153	16.42
448.51	16.55
448.868	16.52
449.226	16.71
449.584	16.79
449.941	16.87
450.299	17
450.656	17.34
451.014	17.3
451.371	17.26
451.729	17.46
452.086	17.52
452.443	17.68
452.801	17.63
453.158	17.57
453.515	17.7
453.872	17.75
454.229	17.79
454.586	17.85
454.943	17.82
455.3	17.92
455.657	18.09
456.014	18.11
456.371	18.02
456.727	18.26
457.084	18.23
457.441	18.31
457.797	18.52
458.154	18.43
458.51	18.46
458.867	18.72
459.223	18.76
459.58	18.63
459.936	18.71
460.292	18.8
460.648	18.72
461.005	18.67
461.361	18.62
461.717	18.52
462.073	18.57
462.429	18.73
462.785	18.8
463.141	19.14
463.496	19.12
463.852	19.35
464.208	19.45
464.564	19.59
464.919	19.49
465.275	19.58
465.631	19.89
465.986	19.74
466.342	20.03
466.697	19.93
467.052	19.99
467.408	20.02
467.763	19.99
468.118	20.35
468.473	20.23
468.829	20.19
469.184	20.58
469.539	20.34
469.894	20.34
470.249	20.36
470.603	20.6
470.958	20.53
471.313	20.66
471.668	20.69
472.023	20.86
472.377	21.07
472.732	20.99
473.086	20.8
473.441	20.94
473.795	21.06
474.15	21.19
474.504	21.21
474.859	21.18
475.213	21.27
475.567	21.48
475.921	21.39
476.275	21.45
476.63	21.5
476.984	21.7
477.338	21.71
477.692	21.67
478.045	21.55
478.399	21.66
478.753	21.82
479.107	21.72
479.461	21.72
479.814	21.68
480.168	21.86
480.521	21.99
480.875	22
481.228	22.06
481.582	22.13
481.935	22.16
482.289	22.3
482.642	22.15
482.995	22.22
483.348	22.1
483.701	22.1
484.055	21.98
484.408	21.81
484.761	21.7
485.114	21.48
485.466	21.22
485.819	21.28
486.172	21.3
486.525	21.39
486.878	21.61
487.23	21.78
487.583	21.97
487.936	22.08
488.288	22.15
488.641	22.14
488.993	21.89
489.345	21.97
489.698	21.97
490.05	21.93
490.402	22.12
490.754	22.38
491.107	22.55
491.459	22.68
491.811	23.01
492.163	23
492.515	23.07
492.866	23
493.218	22.62
493.57	22.6
493.922	22.68
494.274	22.88
494.625	23.1
494.977	23.43
495.328	23.67
495.68	23.91
496.031	23.97
496.383	24.13
496.734	24.21
497.086	24.27
497.437	24.31
497.788	24.35
498.139	24.29
498.49	24.25
498.842	24.23
499.193	24.25
499.544	24.27
499.894	24.4
500.245	24.43
500.596	24.59
500.947	24.52
501.298	24.8
501.648	24.88
501.999	24.95
502.35	25.16
502.7	25.12
503.051	25.21
503.401	25.27
503.752	25.17
504.102	25.39
504.452	25.33
504.803	25.42
505.153	25.6
505.503	25.48
505.853	25.51
506.203	25.66
506.553	25.7
506.903	25.62
507.253	25.87
507.603	25.82
507.953	25.69
508.303	26.01
508.652	25.66
509.002	25.9
509.352	26
509.701	25.98
510.051	25.87
510.4	25.76
510.75	25.81
511.099	25.85
511.449	25.78
511.798	25.94
512.147	26.14
512.496	26.2
512.846	26
513.195	26.15
513.544	26.22
513.893	26.39
514.242	26.17
514.591	26.29
514.939	26.3
515.288	26.55
515.637	26.49
515.986	26.73
516.334	26.69
516.683	26.85
517.032	26.73
517.38	26.79
517.729	26.99
518.077	26.94
518.426	26.95
518.774	26.87
519.122	26.77
519.47	26.64
519.819	26.62
520.167	26.46
520.515	26.52
520.863	26.53
521.211	26.64
521.559	26.7
521.907	26.82
522.255	27.05
522.602	27.15
522.95	27.2
523.298	27.28
523.645	27.38
523.993	27.42
524.341	27.56
524.688	27.67
525.036	27.52
525.383	27.74
525.73	27.59
526.078	27.57
526.425	27.63
526.772	27.48
527.119	27.34
527.466	27.21
527.814	27.13
528.161	27.14
528.508	27.22
528.854	27.22
529.201	27.22
529.548	27.24
529.895	26.9
530.242	26.82
530.588	26.71
530.935	26.82
531.282	26.88
531.628	26.95
531.975	27.09
532.321	27.3
532.667	27.53
533.014	27.76
533.36	27.75
533.706	27.89
534.052	27.99
534.399	27.66
534.745	27.6
535.091	27.42
535.437	27.48
535.783	27.62
536.129	27.78
536.474	28.01
536.82	28.16
537.166	28.3
537.512	28.46
537.857	28.53
538.203	28.38
538.549	28.28
538.894	28.33
539.239	28.44
539.585	28.54
539.93	28.84
540.276	28.82
540.621	29.05
540.966	28.99
541.311	29.04
541.656	28.94
542.001	29.03
542.346	28.93
542.691	28.61
543.036	28.32
543.381	28.41
543.726	28.4
544.071	28.37
544.415	28.54
544.76	28.67
545.105	28.87
545.449	28.91
545.794	29.05
546.138	29.25
546.483	29.49
546.827	29.64
547.171	29.67
547.516	29.65
547.86	29.66
548.204	29.92
548.548	29.49
548.892	29.8
549.236	29.82
549.58	30.07
549.924	30.02
550.268	30.27
550.612	30.43
550.956	30.44
551.3	30.57
551.643	30.71
551.987	30.82
552.33	30.82
552.674	30.8
553.017	30.97
553.361	30.92
553.704	31.11
554.048	30.93
554.391	30.9
554.734	30.85
555.077	30.99
555.42	31.07
555.764	31.18
556.107	31.29
556.45	31.48
556.793	31.54
557.135	31.38
557.478	31.64
557.821	31.63
558.164	31.86
558.507	31.89
558.849	31.78
559.192	32
559.534	31.97
559.877	31.89
560.219	31.93
560.562	31.96
560.904	31.94
561.246	32.14
561.589	32.29
561.931	32.29
562.273	32.26
562.615	32.26
562.957	32.32
563.299	32.12
563.641	32.12
563.983	32.47
564.325	32.46
564.667	32.43
565.008	32.67
565.35	32.52
565.692	32.57
566.033	32.84
566.375	32.89
566.716	33.04
567.058	32.71
567.399	32.67
567.741	32.67
568.082	32.48
568.423	32.75
568.764	32.66
569.105	32.81
569.447	32.84
569.788	32.9
570.129	33.16
570.47	33.03
570.811	33.23
571.151	33.44
571.492	33.14
571.833	33.33
572.174	33.12
572.514	33.43
572.855	33.28
573.195	33.36
573.536	33.33
573.876	33.28
574.217	33.16
574.557	33.3
574.898	33.44
575.238	33.51
575.578	33.65
575.918	33.9
576.258	33.71
576.598	33.99
576.938	33.84
577.278	33.95
577.618	34
577.958	33.9
578.298	34.22
578.638	34.27
578.977	34.38
579.317	34.42
579.657	34.61
579.996	34.39
580.336	34.92
580.675	34.64
581.014	34.56
581.354	34.82
581.693	34.88
582.032	35.14
582.372	34.98
582.711	35.18
583.05	35.13
583.389	35.35
583.728	35.27
584.067	35.44
584.406	35.05
584.745	35.51
585.083	35.68
585.422	35.68
585.761	35.73
586.1	35.37
586.438	35.33
586.777	35.78
587.115	35.43
587.454	36.13
587.792	36.01
588.13	36.01
588.469	35.69
588.807	36.01
589.145	36.24
589.483	36.07
589.821	36.2
590.159	35.9
590.497	36.3
590.835	36.39
591.173	36.4
591.511	36.49
591.849	36.34
592.187	36.56
592.524	36.21
592.862	36.23
593.2	36.42
593.537	36.61
593.875	36.87
594.212	36.96
594.55	36.9
594.887	36.7
595.224	36.89
595.561	37.18
595.899	36.5
596.236	36.82
596.573	36.66
596.91	36.91
597.247	37.09
597.584	36.93
597.921	36.95
598.258	36.95
598.594	36.74
598.931	36.83
599.268	36.73
599.604	36.82
599.941	36.92
600.277	37.2
600.614	37.26
600.95	37.29
601.287	37.57
601.623	37.7
601.959	37.67
602.296	38.03
602.632	37.66
602.968	37.74
603.304	38.26
603.64	37.98
603.976	38.16
604.312	38.06
604.648	37.74
604.984	37.95
605.319	37.8
605.655	37.84
605.991	38.1
606.326	37.62
606.662	37.45
606.998	37.78
607.333	37.96
607.668	38.24
608.004	38.15
608.339	38.42
608.674	38.31
609.01	38.43
609.345	39.03
609.68	39.08
610.015	38.85
610.35	38.64
610.685	38.73
611.02	38.86
611.355	38.46
611.689	38.66
612.024	38.61
612.359	38.92
612.694	38.63
613.028	39.09
613.363	38.99
613.697	39.12
614.032	39.41
614.366	39.44
614.7	39.38
615.035	39.46
615.369	39.71
615.703	39.87
616.037	40.08
616.371	40.04
616.705	40.03
617.039	39.85
617.373	40.28
617.707	40.07
618.041	39.85
618.375	40.41
618.709	40.29
619.042	40.18
619.376	40.28
619.71	40.37
620.043	40.14
620.377	40.7
620.71	40.45
621.043	40.26
621.377	40.73
621.71	41.08
622.043	41.11
622.376	41.01
622.709	41.09
623.043	40.83
623.376	40.97
623.709	40.91
624.041	40.75
624.374	40.95
624.707	41.4
625.04	41.53
625.373	41.63
625.705	41.62
626.038	41.1
626.37	40.95
626.703	41.27
627.035	41.06
627.368	41.35
627.7	41.11
628.032	41.67
628.365	41.95
628.697	41.45
629.029	41.51
629.361	41.45
629.693	41.62
630.025	41.63
630.357	41.7
630.689	42.01
631.021	41.85
631.353	41.73
631.684	42.22
632.016	42.12
632.348	42.2
632.679	42.35
633.011	41.85
633.342	42.08
633.674	42.19
634.005	42.12
634.336	42.56
634.668	42.51
634.999	42.55
635.33	42.78
635.661	42.44
635.992	42.73
636.323	42.71
636.654	42.67
636.985	42.89
637.316	42.58
637.647	42.84
637.977	42.76
638.308	42.96
638.639	42.93
638.969	43.22
639.3	43.09
639.63	43.48
639.961	42.65
640.291	43.26
640.622	43.34
640.952	43.71
641.282	43.88
641.612	43.09
641.943	43.61
642.273	43.84
642.603	43.36
642.933	43.56
643.263	43.64
643.592	43.63
643.922	43.86
644.252	44.36
644.582	44.02
644.911	44.37
645.241	44
645.571	44.1
645.9	43.87
646.23	43.59
646.559	43.75
646.888	44.16
647.218	43.8
647.547	44.29
647.876	44.53
648.205	44.23
648.534	44.4
648.863	44.59
649.192	44.91
649.521	44.33
649.85	44.66
650.179	44.6
650.508	44.73
650.837	45.25
651.165	45.64
651.494	44.73
651.822	44.53
652.151	44.84
652.479	44.81
652.808	45.12
653.136	44.69
653.465	45.11
653.793	45.38
654.121	45.5
654.449	45.63
654.777	45.01
655.105	45.44
655.433	45.2
655.761	45.49
656.089	45.35
656.417	45.52
656.745	46.05
657.073	45.62
657.4	46.18
657.728	45.61
658.056	45.68
658.383	45.79
658.711	45.72
659.038	46.15
659.365	45.53
659.693	45.85
660.02	46.01
660.347	45.98
660.674	45.36
661.001	46.15
661.329	45.85
661.656	46.25
661.982	45.85
662.309	46.1
662.636	46.19
662.963	46.14
663.29	46.36
663.616	46.43
663.943	46.54
664.27	46.27
664.596	46.66
664.923	46.7
665.249	46.4
665.576	46.7
665.902	46.75
666.228	46.44
666.554	47.5
666.881	46.89
667.207	46.79
667.533	46.78
667.859	46.46
668.185	47.06
668.511	47.24
668.837	46.82
669.162	47.58
669.488	47.63
669.814	47.74
670.139	46.69
670.465	48.13
670.791	47.22
671.116	47.72
671.442	47.5
671.767	47.73
672.092	47.71
672.418	47.13
672.743	47.74
673.068	47.59
673.393	47.58
673.718	47.63
674.043	48.46
674.368	47.85
674.693	48.49
675.018	47.87
675.343	48.84
675.667	47.62
675.992	48.55
676.317	48.71
676.641	48.52
676.966	47.9
677.29	48.19
677.615	48.35
677.939	48.88
678.264	48.21
678.588	49.17
678.912	48.44
679.236	48.02
679.56	48.71
679.885	48.76
680.209	47.91
680.532	48.73
680.856	49.89
681.18	49.06
681.504	49.15
681.828	48.77
682.152	49.13
682.475	49.1
682.799	48.75
683.122	48.88
683.446	49.12
683.769	49.06
684.093	48.85
684.416	49.92
684.739	49.67
685.062	49.07
685.386	49.37
685.709	50.05
686.032	49.99
686.355	49.95
686.678	49.64
687.001	50.19
687.324	50.25
687.646	50.51
687.969	49.69
688.292	50.35
688.614	49.29
688.937	49.93
689.26	49.92
689.582	49.17
689.904	50.17
690.227	50.1
690.549	50.21
690.871	50.18
691.194	50.26
691.516	49.83
691.838	50.35
692.16	49.84
692.482	50.04
692.804	50.4
693.126	51.04
693.448	50.79
693.769	50.63
694.091	51.15
694.413	51.22
694.735	50.32
695.056	50.7
695.378	50.89
695.699	50.51
696.021	50.87
696.342	49.85
696.663	51.14
696.984	50.62
697.306	50.82
697.627	50.52
697.948	51.39
698.269	51.38
698.59	51.44
698.911	51.06
699.232	50.82
699.553	50.18
699.873	51.01
700.194	50.78
700.515	51.38
700.835	51.36
701.156	51.62
701.477	51.52
701.797	51.25
702.117	50.76
702.438	51.49
702.758	51.19
703.078	51.62
703.398	50.8
703.719	51.14
704.039	51.94
704.359	51.05
704.679	51.52
704.999	52.09
705.319	51.61
705.638	52.04
705.958	51.85
706.278	52.55
706.597	52.54
706.917	50.71
707.237	52.95
707.556	52.77
707.876	52.52
708.195	51.33
708.514	52.67
708.834	52.2
709.153	52.36
709.472	52.85
709.791	53
710.11	52.82
710.429	51.8
710.748	52.87
711.067	52.61
711.386	52.4
711.705	52.64
712.023	53.59
712.342	52.04
712.661	52.16
712.979	53.23
713.298	52.15
713.616	53.18
713.935	52.93
714.253	52.87
714.572	53.57
714.89	52.91
715.208	53.14
715.526	52.7
715.844	52.56
716.162	53.12
716.48	52.34
716.798	52.79
717.116	52.84
717.434	53.24
717.752	53.13
718.069	53.1
718.387	53.71
718.705	52.85
719.022	52.98
719.34	53.24
719.657	53.53
719.975	52.41
720.292	53.45
720.609	51.89
720.927	53.9
721.244	53.65
721.561	53.42
721.878	54.06
722.195	53.54
722.512	54.05
722.829	53.48
723.146	53.7
723.463	53.25
723.779	54.17
724.096	54.05
724.413	53.29
724.729	54.35
725.046	53.18
725.362	53.73
725.679	53.22
725.995	54.41
726.311	54.55
726.628	54.33
726.944	53.81
727.26	53.56
727.576	54.42
727.892	53.81
728.208	54.67
728.524	54.6
728.84	54.42
729.156	53.63
729.472	54.77
729.787	53.29
730.103	54.69
730.419	54.93
730.734	54.64
731.05	54.52
731.365	54.57
731.681	53.95
731.996	54.16
732.311	54.6
732.626	54.49
732.942	55.23
733.257	54.84
733.572	55.56
733.887	54.84
734.202	55.05
734.517	53.6
734.832	54.83
735.146	54.57
735.461	54.42
735.776	54.84
736.091	54.14
736.405	55.82
736.72	55.41
737.034	55.36
737.349	55.36
737.663	54.2
737.977	56.18
738.292	53.82
738.606	55.56
738.92	53.42
739.234	55.12
739.548	55.16
739.862	55.1
740.176	54.55
740.49	54.82
740.804	54.39
741.117	54.93
741.431	56
741.745	55.67
742.058	55.94
742.372	55.25
742.685	54.79
742.999	55.24
743.312	55.82
743.626	55.56
743.939	53.77
744.252	54.09
744.565	56.63
744.878	54.75
745.191	55.46
745.505	55.96
745.817	55.01
746.13	54.58
746.443	56.26
746.756	55.25
747.069	55.4
747.381	56.41
747.694	57.27
748.007	55.32
748.319	55.41
748.632	55.06
748.944	55.87
749.256	55.28
749.569	58.09
749.881	56.64
750.193	55.35
750.505	55.98
750.817	53.83
751.129	56.31
751.441	56.96
751.753	56.28
752.065	57.27
752.377	57.31
752.689	54.31
753	55.5
753.312	55.53
753.624	55.79
753.935	56.15
754.247	55.63
754.558	56.24
754.869	56.82
755.181	56.69
755.492	55.74
755.803	57.46
756.114	56.31
756.425	56.61
756.736	57.95
757.047	57.26
757.358	56.14
757.669	58.65
757.98	57.16
758.291	56.29
758.601	57.79
758.912	57.51
759.223	55.65
759.533	56.97
759.844	55.6
760.154	54.85
760.464	58.68
760.775	58.1
761.085	58.41
761.395	56.45
761.705	57.02
762.016	58.19
762.326	56.69
762.636	57.57
762.945	57.25
763.255	58.61
763.565	57.39
763.875	55.75
764.185	57.76
764.494	58.35
764.804	57.91
765.113	58.08
765.423	57.74
765.732	58.83
766.042	58.04
766.351	56.78
766.66	58.34
766.97	58.37
767.279	57.76
767.588	58.87
767.897	58.01
768.206	56.53
768.515	58.14
768.824	58.83
769.133	57.37
769.441	56.9
769.75	57.97
770.059	58.8
770.367	58.52
770.676	54.75
770.984	58.91
771.293	55.95
771.601	58.56
771.91	58.27
772.218	56.39
772.526	56.8
772.834	57.49
773.142	57.62
773.45	56.39
773.758	59.28
774.066	58.29
774.374	58.37
774.682	58.77
774.99	58.98
775.298	56.79
775.605	58.93
775.913	57.56
776.22	57.62
776.528	61.13
776.835	58.58
777.143	61.18
777.45	60.1
777.757	59.14
778.065	58.6
778.372	58.21
778.679	57.54
778.986	56.2
779.293	58.47
779.6	60.27
779.907	57.99
780.214	58.5
780.52	56.04
780.827	59.8
781.134	60.17
781.44	56.9
781.747	57.95
782.053	61.42
782.36	59.15
782.666	57.79
782.973	60.07
783.279	53
783.585	57.04
783.891	57.2
784.197	57.61
784.503	60.24
784.809	59.57
785.115	57.55
785.421	59.53
785.727	57.87
786.033	56.63
786.339	58.4
786.644	57.73
786.95	57.18
787.255	62.82
787.561	58.83
787.866	58.06
788.172	59.48
788.477	54.03
788.782	59.97
789.088	58.83
789.393	60.36
789.698	63.84
790.003	58.31
790.308	58.55
790.613	61.94
790.918	60.79
791.223	59.41
791.527	56.69
791.832	60.86
792.137	63.12
792.441	57.97
792.746	60.72
793.05	60.24
793.355	58.14
793.659	58.41
793.963	59.69
794.268	61.72
794.572	58.21
794.876	59.57
795.18	62.06
795.484	62.36
795.788	64.45
796.092	59.87
796.396	62.47
796.7	60.7
797.004	57.61
797.307	62.77
797.611	58.03
797.915	60.43
798.218	61.8
798.522	63.89
798.825	60.26
799.128	64.05
799.432	62.62
799.735	61.99
800.038	60.54
800.341	66.63
800.644	57.92
800.947	58.63
801.25	61.99
801.553	57.38
801.856	57.64
802.159	59.81
802.462	58.6
802.764	56.95
803.067	57.37
803.37	53.64
803.672	58.14
803.975	64.1
804.277	63.59
804.579	59.51
804.882	62.75
805.184	59.41
805.486	61.48
805.788	60.5
806.09	55.14
806.392	55.01
806.694	57.79
806.996	65.27
807.298	59.92
807.6	58.85
807.902	60.84
808.203	62.27
808.505	56.75
808.807	59.01
809.108	56.96
809.409	60.63
809.711	63.31
810.012	60.67
810.313	61.89
810.615	57.44
810.916	62.31
811.217	61.49
811.518	56.77
811.819	60.18
812.12	61.85
812.421	64.57
812.722	65.38
813.023	66.24
813.323	60.26
813.624	62.08
813.925	64.73
814.225	64.46
814.526	63.5
814.826	63.22
815.126	56.61
815.427	59.98
815.727	61.74
816.027	62.12
816.327	57.31
816.627	60.27
816.927	70.37
817.227	59.94
817.527	63.73
817.827	63.64
818.127	54.62
818.427	57.34
818.727	61.03
819.026	57.08
819.326	55.07
819.625	59.25
819.925	58.15
820.224	71.66
820.524	62.58
820.823	63.17
821.122	58.51
821.421	66.31
821.72	64.63
822.019	66.18
822.318	64.92
822.617	57.08
822.916	60.09
823.215	59.1
823.514	61.2
823.813	63.45
824.111	64.02
824.41	63.15
824.709	63.3
825.007	61.03
825.306	62.44
825.604	62.44
825.902	62.91
826.201	61.01
826.499	62.11
826.797	61.13
827.095	61.4
827.393	62.93
827.691	61.06
827.989	61.02
828.287	63.33
828.585	62.84
828.882	62.34
829.18	61.94
829.478	61.47
829.775	61.89
830.073	63.23
830.37	62.45
830.668	62.34
830.965	60.25
831.263	64.04
831.56	61.53
831.857	60.25
832.154	59.94
832.451	60.74
832.748	58.57
833.045	62.52
833.342	68.5
833.639	61.94
833.936	60.57
834.232	66.08
834.529	67.63
834.826	67.14
835.122	62.81
835.419	57.32
835.715	66.56
836.012	61.56
836.308	65.29
836.604	59.29
836.901	64.61
837.197	62.48
837.493	58.98
837.789	60.24
838.085	62.06
838.381	65.89
838.677	63.51
838.972	63.14
839.268	66.78
839.564	58.71
839.86	68.7
840.155	58.5
840.451	57.13
840.746	57.68
841.042	63.37
841.337	66.95
841.632	65.24
841.928	63.46
842.223	57.69
842.518	69.32
842.813	58.52
843.108	54.14
843.403	71.92
843.698	62.66
843.993	52.48
844.287	62.46
844.582	56.44
844.877	61.14
845.171	66.12
845.466	79.5
845.761	55.33
846.055	62.77
846.349	52.04
846.644	73
846.938	45.3
847.232	71.14
847.526	55.39
847.82	44.1
848.114	52.39
848.408	66.01
848.702	61.16
848.996	56.31
849.29	46.47
849.584	54.73
849.877	62.7
850.171	58.05
850.465	62.78
850.758	52.36
851.052	65.63
851.345	79.54
851.638	59.88
851.932	51.48
852.225	50.29
852.518	49.74
852.811	66.95
853.104	47.87
853.397	52.32
853.69	56.38
853.983	48.23
854.276	55.6
854.569	51.71
854.861	74.16
855.154	46.88
855.447	68.63
855.739	47.42
856.032	61.29
856.324	67.83
856.616	58.98
856.909	68.57
857.201	61.72
857.493	48.84
857.785	49.21
858.077	49.35
858.369	52.03
858.661	71.2
858.953	78.87
859.245	66.91
859.537	72.89
859.829	69.37
860.12	45.11
860.412	57.87
860.703	42.95
860.995	80.5
861.286	54.35
861.578	43.03
861.869	69.43
862.16	26.64
862.452	53.06
862.743	68.79
863.034	72.88
863.325	65.25
863.616	70.03
863.907	84.23
864.198	63.47
864.488	26.16
864.779	42.03
865.07	83.74
865.36	40.43
865.651	67.69
865.941	68.42
866.232	55.46
866.522	36.28
866.813	49.09
867.103	47.85
867.393	75.17
867.683	32.58
867.973	48.31
868.263	73.2
868.553	61.24
868.843	81.47
869.133	57.6
869.423	76.68
869.713	45.77
870.002	55.51
870.292	56.9
870.582	63.78
870.871	63.07
871.161	64.18
871.45	38.62
871.739	62.11
872.029	51.37
872.318	49.74
872.607	44.45
872.896	48.22
873.185	63.3
873.474	41.83
873.763	65.26
874.052	68.13
874.341	61.24
874.63	60.35
874.918	43.02
875.207	61.07
875.496	63.04
875.784	69.67
876.073	47.82
876.361	43.03
876.649	56.28
876.938	93.1
877.226	78.71
877.514	57.93
877.802	59.84
878.09	91.1
878.378	49.84
878.666	38.26
878.954	56.25
879.242	54.9
879.53	57.86
879.817	59.36
880.105	82.64
880.392	61.16
880.68	101.27
880.967	127.67
881.255	68.6
881.542	52.92
881.83	68.02
882.117	55.47
882.404	63.44
882.691	63.64
882.978	73.05
883.265	60.28
883.552	66.1
883.839	73.43
884.126	68.7
884.413	62.09
884.699	58.09
884.986	65.75
885.273	63.49
885.559	63.49
885.846	63.49
