Data from 1610-5_crown_Reflection__4__104.txt Node

Date: Fri Nov 11 16:55:42 CST 2022
User: ToomeyLab
Spectrometer: FLMS14357
Trigger mode: 0
Integration Time (sec): 1.000000E-2
Scans to average: 100
Electric dark correction enabled: true
Nonlinearity correction enabled: false
Boxcar width: 0
XAxis mode: Wavelengths
Number of Pixels in Spectrum: 2048
>>>>>Begin Spectral Data<<<<<
189.047	-53.26
189.435	-53.26
189.823	-53.26
190.211	-135.34
190.599	79.58
190.987	-66.52
191.375	95.76
191.763	321.26
192.151	48.37
192.538	11.73
192.926	-275.61
193.314	-19.33
193.702	-105.3
194.089	-30.14
194.477	54.94
194.864	1664.51
195.252	219.3
195.639	167.37
196.027	48.02
196.414	51.95
196.801	-11.66
197.189	110.41
197.576	314.36
197.963	45.77
198.351	-30.08
198.738	-289
199.125	16.57
199.512	21.69
199.899	-8.73
200.286	23.38
200.673	-6.21
201.06	-175.92
201.447	19.71
201.833	17.39
202.22	23.48
202.607	25.97
202.994	2.56
203.38	-8.37
203.767	-10.21
204.154	-9.09
204.54	31.7
204.927	24.61
205.313	-0.91
205.699	1.36
206.086	-0.15
206.472	5.9
206.858	13.9
207.245	3.54
207.631	12.92
208.017	-5.82
208.403	-5.13
208.789	-56.12
209.175	17.81
209.561	-15.31
209.947	7.17
210.333	12.79
210.719	26.48
211.105	-7.06
211.491	-60.33
211.876	-18.73
212.262	-20.31
212.648	-17.75
213.034	-25.46
213.419	1.33
213.805	14.14
214.19	-44.15
214.576	-11.4
214.961	6.14
215.346	-0.58
215.732	-39.41
216.117	37.81
216.502	6.58
216.888	-19.9
217.273	-10.46
217.658	1.87
218.043	-28.17
218.428	-36.45
218.813	22.6
219.198	-18.33
219.583	3.2
219.968	5.82
220.353	-45.11
220.738	-21.05
221.122	-14.86
221.507	21.86
221.892	-7.79
222.276	8.41
222.661	7.08
223.046	14.35
223.43	1.2
223.815	-4.66
224.199	2.71
224.583	-9.24
224.968	10.04
225.352	-11.17
225.736	-5.26
226.121	-4.83
226.505	-3.15
226.889	3.93
227.273	2.96
227.657	-3.24
228.041	-1.42
228.425	6.94
228.809	6.23
229.193	-0.92
229.577	1.71
229.961	2.38
230.344	2.36
230.728	2.66
231.112	3.01
231.495	2.81
231.879	2.57
232.263	0.59
232.646	1.95
233.03	1.32
233.413	1.58
233.797	1.06
234.18	3.42
234.563	0.77
234.946	0.67
235.33	1.61
235.713	0.6
236.096	1.4
236.479	2.68
236.862	2.12
237.245	1.71
237.628	1.23
238.011	1.36
238.394	2.26
238.777	1.59
239.16	1.61
239.543	1.28
239.925	4.4
240.308	0.59
240.691	1.89
241.073	-0.08
241.456	1.66
241.838	2.19
242.221	2.12
242.603	2.16
242.986	2.61
243.368	1.89
243.75	2.51
244.133	2.42
244.515	2.59
244.897	2.37
245.279	2.37
245.661	2.29
246.043	2.62
246.425	2.09
246.807	1.97
247.189	1.38
247.571	1.25
247.953	2.22
248.335	2.82
248.717	2.62
249.098	2.54
249.48	2.49
249.862	2.44
250.243	2.19
250.625	2.52
251.006	3.02
251.388	2.59
251.769	2.93
252.151	2.39
252.532	2.64
252.913	1.29
253.295	2.94
253.676	2.83
254.057	2.49
254.438	2.78
254.819	2.13
255.2	3.2
255.581	2.27
255.962	2.3
256.343	3.01
256.724	2.18
257.105	1.86
257.486	3.27
257.867	2.44
258.247	2.6
258.628	1.99
259.009	2.09
259.389	2.2
259.77	2.8
260.15	2.62
260.531	1.95
260.911	2.63
261.292	2.45
261.672	2.35
262.052	2.58
262.432	2.93
262.813	2.76
263.193	2.28
263.573	2.34
263.953	2.4
264.333	2.68
264.713	1.84
265.093	2.95
265.473	2.93
265.853	1.51
266.233	2.27
266.612	2.13
266.992	1.89
267.372	2.01
267.752	2.21
268.131	2.61
268.511	2.69
268.89	2.77
269.27	1.81
269.649	1.95
270.029	1.82
270.408	1.84
270.787	2.88
271.167	1.98
271.546	2.69
271.925	2.49
272.304	2.62
272.683	2.55
273.062	2.43
273.441	2.36
273.82	2.12
274.199	2.19
274.578	2.88
274.957	2.01
275.336	2.69
275.715	2.08
276.093	3.15
276.472	2.74
276.851	2.34
277.229	2.41
277.608	2.53
277.986	2.34
278.365	2.96
278.743	2.39
279.122	2.41
279.5	2.61
279.878	2.3
280.257	3.07
280.635	2.27
281.013	2.46
281.391	2.28
281.769	3.26
282.147	2.46
282.525	1.97
282.903	2.49
283.281	2.32
283.659	1.99
284.037	2.54
284.415	2.57
284.792	2.37
285.17	2.31
285.548	2.39
285.925	2.13
286.303	2.52
286.68	2.59
287.058	2.13
287.435	2.75
287.813	2.4
288.19	2.39
288.567	2.3
288.945	2.24
289.322	1.85
289.699	2.6
290.076	2.07
290.453	2.32
290.83	2.65
291.207	2.47
291.584	2.43
291.961	2.08
292.338	2.83
292.715	2.49
293.092	2.11
293.469	2.46
293.845	2.91
294.222	2.59
294.599	2.65
294.975	2.46
295.352	2.05
295.728	1.99
296.105	2.71
296.481	2.14
296.858	2.53
297.234	2.5
297.61	2.04
297.986	2.18
298.363	2.2
298.739	2.81
299.115	2.43
299.491	2.84
299.867	2.49
300.243	2.77
300.619	2.58
300.995	2.55
301.371	1.91
301.746	2.94
302.122	2.42
302.498	2.21
302.874	2.42
303.249	2.68
303.625	2.22
304	2.32
304.376	2.6
304.751	2.58
305.127	2.76
305.502	3.01
305.878	2.99
306.253	2.58
306.628	2.81
307.003	2.73
307.378	2.97
307.754	2.85
308.129	2.77
308.504	2.41
308.879	2.17
309.254	1.93
309.629	2.42
310.003	2.55
310.378	2.1
310.753	2.18
311.128	2.8
311.502	2.18
311.877	3.05
312.252	2.42
312.626	2.45
313.001	2.34
313.375	2.96
313.75	2.57
314.124	2.68
314.498	2.83
314.873	3.08
315.247	2.47
315.621	2.2
315.995	2.83
316.369	2.86
316.743	2.47
317.117	2.62
317.491	2.54
317.865	2.45
318.239	2.66
318.613	2.66
318.987	2.44
319.361	2.23
319.734	2.12
320.108	2.22
320.482	1.88
320.855	2.85
321.229	3
321.602	2.8
321.976	2.13
322.349	3.06
322.723	2.16
323.096	3.11
323.469	2.95
323.843	2.86
324.216	2.06
324.589	2.87
324.962	2.51
325.335	2.89
325.708	2.57
326.081	2.81
326.454	2.81
326.827	2.55
327.2	2.44
327.573	2.81
327.945	2.59
328.318	2.8
328.691	2.71
329.063	2.55
329.436	3.05
329.809	2.18
330.181	2.92
330.553	3.1
330.926	2.66
331.298	2.7
331.671	2.53
332.043	2.99
332.415	2.82
332.787	2.54
333.159	3
333.532	2.43
333.904	2.15
334.276	2.64
334.648	2.84
335.02	2.75
335.391	2.52
335.763	2.6
336.135	2.63
336.507	2.72
336.879	2.51
337.25	2.13
337.622	3.37
337.993	2.57
338.365	2.78
338.736	2.88
339.108	2.89
339.479	2.63
339.851	2.13
340.222	2.49
340.593	2.37
340.964	2.45
341.336	2.23
341.707	1.96
342.078	2.58
342.449	2.72
342.82	2.58
343.191	3.01
343.562	2.93
343.933	2.36
344.303	3.37
344.674	2.72
345.045	2.84
345.416	2.52
345.786	2.62
346.157	2.73
346.527	3.11
346.898	2.5
347.268	2.79
347.639	2.82
348.009	2.83
348.38	3.01
348.75	3.15
349.12	2.91
349.49	2.38
349.861	2.73
350.231	2.7
350.601	3.23
350.971	3.01
351.341	2.92
351.711	2.65
352.081	2
352.45	2.56
352.82	2.81
353.19	2.83
353.56	2.6
353.929	3.32
354.299	2.87
354.669	2.67
355.038	2.9
355.408	2.4
355.777	3.08
356.147	2.61
356.516	2.76
356.885	2.52
357.254	3.22
357.624	2.82
357.993	3.26
358.362	2.85
358.731	2.82
359.1	2.49
359.469	3.04
359.838	3.04
360.207	3.01
360.576	2.93
360.945	3.5
361.314	3.12
361.682	2.87
362.051	2.58
362.42	2.75
362.788	2.89
363.157	2.79
363.525	2.96
363.894	2.89
364.262	2.73
364.631	2.71
364.999	2.74
365.367	2.92
365.735	2.92
366.104	2.88
366.472	2.79
366.84	2.89
367.208	2.84
367.576	3.11
367.944	2.8
368.312	2.81
368.68	3.07
369.048	2.97
369.416	2.98
369.783	2.67
370.151	2.87
370.519	3.18
370.886	2.93
371.254	2.87
371.621	2.96
371.989	2.77
372.356	2.68
372.724	3.01
373.091	2.78
373.458	2.9
373.826	2.96
374.193	3.11
374.56	2.72
374.927	3.2
375.294	2.94
375.661	3.44
376.028	2.75
376.395	3.22
376.762	2.91
377.129	3.26
377.496	2.85
377.863	2.98
378.229	3.12
378.596	2.76
378.963	2.85
379.329	2.91
379.696	3.09
380.062	2.93
380.429	2.94
380.795	2.82
381.161	3.5
381.528	3.08
381.894	3.01
382.26	2.68
382.626	3.06
382.993	3.06
383.359	3.23
383.725	3.51
384.091	3.01
384.457	2.88
384.823	2.99
385.188	3.3
385.554	3.17
385.92	2.89
386.286	2.81
386.651	2.84
387.017	3.15
387.383	2.99
387.748	2.73
388.114	3
388.479	3.23
388.845	2.94
389.21	3.1
389.575	2.97
389.94	3.01
390.306	2.97
390.671	2.99
391.036	3.07
391.401	2.95
391.766	3.14
392.131	2.66
392.496	3.03
392.861	2.92
393.226	2.98
393.591	3.01
393.956	3.44
394.32	3.24
394.685	3.11
395.05	3.3
395.414	3.22
395.779	2.96
396.143	3.26
396.508	2.96
396.872	3.33
397.236	3.23
397.601	3.09
397.965	3.27
398.329	3.1
398.694	3.02
399.058	2.95
399.422	3.15
399.786	3.24
400.15	2.91
400.514	3.01
400.878	3.1
401.242	2.88
401.605	3.21
401.969	3.21
402.333	3.22
402.697	3.18
403.06	3.11
403.424	2.81
403.787	3.15
404.151	3.01
404.514	2.83
404.878	3.13
405.241	3.1
405.604	3
405.968	3.15
406.331	2.85
406.694	3.11
407.057	2.98
407.42	3.02
407.783	3.07
408.146	3.19
408.509	3.04
408.872	3.18
409.235	3.26
409.598	3.04
409.961	3.11
410.323	3.12
410.686	3.25
411.049	3.21
411.411	2.93
411.774	2.95
412.136	3.12
412.499	3.35
412.861	2.91
413.223	3.02
413.586	2.99
413.948	3.06
414.31	3.16
414.672	3.17
415.035	3.17
415.397	3.06
415.759	3.18
416.121	3.26
416.483	3.17
416.845	3.36
417.206	3.26
417.568	3.19
417.93	3.03
418.292	3.01
418.653	3.11
419.015	3.03
419.377	3.29
419.738	3.24
420.1	3.17
420.461	3.19
420.822	3.01
421.184	2.99
421.545	3.07
421.906	3.04
422.267	3.14
422.629	3.05
422.99	3.02
423.351	3.04
423.712	3.17
424.073	3.14
424.434	3.08
424.795	3.25
425.155	3.16
425.516	3.18
425.877	3.11
426.238	3.13
426.598	3.15
426.959	3.16
427.32	3.22
427.68	3.04
428.041	3.17
428.401	3.09
428.761	3.12
429.122	3.43
429.482	3.16
429.842	3.26
430.202	3.2
430.563	3.15
430.923	3.42
431.283	3.38
431.643	3.28
432.003	3.43
432.363	3.35
432.722	3.2
433.082	3.15
433.442	3.33
433.802	3.22
434.161	3.22
434.521	3.25
434.881	3.08
435.24	3.27
435.6	3.14
435.959	3.17
436.319	3.08
436.678	3.19
437.037	3.24
437.396	3.07
437.756	3.29
438.115	3.09
438.474	3.15
438.833	3.24
439.192	3.22
439.551	3.08
439.91	3.39
440.269	3.13
440.628	3.17
440.987	3.38
441.345	3.21
441.704	3.28
442.063	3.1
442.421	3.19
442.78	3.14
443.138	3.24
443.497	3.21
443.855	3.19
444.214	3.29
444.572	3.32
444.93	3.32
445.288	3.43
445.647	3.14
446.005	3.31
446.363	3.32
446.721	3.14
447.079	3.13
447.437	3.19
447.795	3.06
448.153	3.16
448.51	3.18
448.868	3.25
449.226	3.28
449.584	3.31
449.941	3.19
450.299	3.21
450.656	3.35
451.014	3.38
451.371	3.21
451.729	3.28
452.086	3.25
452.443	3.32
452.801	3.27
453.158	3.34
453.515	3.2
453.872	3.2
454.229	3.23
454.586	3.23
454.943	3.35
455.3	3.19
455.657	3.45
456.014	3.2
456.371	3.29
456.727	3.24
457.084	3.2
457.441	3.38
457.797	3.28
458.154	3.32
458.51	3.11
458.867	3.36
459.223	3.11
459.58	3.25
459.936	3.27
460.292	3.27
460.648	3.24
461.005	3.26
461.361	3.27
461.717	3.23
462.073	3.34
462.429	3.4
462.785	3.33
463.141	3.36
463.496	3.41
463.852	3.32
464.208	3.28
464.564	3.15
464.919	3.27
465.275	3.21
465.631	3.44
465.986	3.26
466.342	3.26
466.697	3.39
467.052	3.31
467.408	3.23
467.763	3.39
468.118	3.32
468.473	3.33
468.829	3.42
469.184	3.39
469.539	3.45
469.894	3.37
470.249	3.28
470.603	3.2
470.958	3.45
471.313	3.43
471.668	3.35
472.023	3.55
472.377	3.5
472.732	3.57
473.086	3.26
473.441	3.33
473.795	3.28
474.15	3.35
474.504	3.47
474.859	3.41
475.213	3.5
475.567	3.49
475.921	3.49
476.275	3.23
476.63	3.31
476.984	3.4
477.338	3.33
477.692	3.37
478.045	3.25
478.399	3.36
478.753	3.33
479.107	3.24
479.461	3.25
479.814	3.34
480.168	3.26
480.521	3.36
480.875	3.37
481.228	3.36
481.582	3.34
481.935	3.38
482.289	3.44
482.642	3.36
482.995	3.38
483.348	3.35
483.701	3.34
484.055	3.31
484.408	3.17
484.761	3.17
485.114	3.05
485.466	3.02
485.819	3.08
486.172	3.13
486.525	3.22
486.878	3.25
487.23	3.29
487.583	3.31
487.936	3.34
488.288	3.19
488.641	3.22
488.993	3.16
489.345	3.12
489.698	3.15
490.05	3.2
490.402	3.22
490.754	3.32
491.107	3.3
491.459	3.31
491.811	3.33
492.163	3.27
492.515	3.33
492.866	3.14
493.218	3.08
493.57	3.12
493.922	3.24
494.274	3.3
494.625	3.32
494.977	3.42
495.328	3.34
495.68	3.43
496.031	3.39
496.383	3.43
496.734	3.41
497.086	3.37
497.437	3.32
497.788	3.43
498.139	3.3
498.49	3.44
498.842	3.42
499.193	3.3
499.544	3.41
499.894	3.52
500.245	3.45
500.596	3.5
500.947	3.34
501.298	3.49
501.648	3.52
501.999	3.52
502.35	3.38
502.7	3.54
503.051	3.42
503.401	3.3
503.752	3.3
504.102	3.35
504.452	3.41
504.803	3.45
505.153	3.53
505.503	3.36
505.853	3.45
506.203	3.44
506.553	3.49
506.903	3.4
507.253	3.54
507.603	3.48
507.953	3.47
508.303	3.4
508.652	3.31
509.002	3.42
509.352	3.57
509.701	3.43
510.051	3.36
510.4	3.38
510.75	3.46
511.099	3.46
511.449	3.41
511.798	3.36
512.147	3.47
512.496	3.47
512.846	3.46
513.195	3.33
513.544	3.5
513.893	3.48
514.242	3.47
514.591	3.27
514.939	3.41
515.288	3.51
515.637	3.34
515.986	3.52
516.334	3.41
516.683	3.48
517.032	3.45
517.38	3.46
517.729	3.5
518.077	3.37
518.426	3.45
518.774	3.25
519.122	3.33
519.47	3.27
519.819	3.31
520.167	3.27
520.515	3.33
520.863	3.39
521.211	3.38
521.559	3.39
521.907	3.5
522.255	3.55
522.602	3.47
522.95	3.44
523.298	3.42
523.645	3.41
523.993	3.43
524.341	3.52
524.688	3.37
525.036	3.43
525.383	3.37
525.73	3.38
526.078	3.39
526.425	3.4
526.772	3.32
527.119	3.39
527.466	3.3
527.814	3.33
528.161	3.4
528.508	3.38
528.854	3.3
529.201	3.33
529.548	3.33
529.895	3.17
530.242	3.15
530.588	3.18
530.935	3.21
531.282	3.34
531.628	3.35
531.975	3.35
532.321	3.33
532.667	3.32
533.014	3.47
533.36	3.35
533.706	3.37
534.052	3.36
534.399	3.32
534.745	3.24
535.091	3.14
535.437	3.3
535.783	3.29
536.129	3.38
536.474	3.46
536.82	3.4
537.166	3.43
537.512	3.44
537.857	3.49
538.203	3.34
538.549	3.34
538.894	3.33
539.239	3.41
539.585	3.38
539.93	3.53
540.276	3.47
540.621	3.52
540.966	3.5
541.311	3.55
541.656	3.39
542.001	3.39
542.346	3.43
542.691	3.23
543.036	3.26
543.381	3.25
543.726	3.29
544.071	3.34
544.415	3.31
544.76	3.3
545.105	3.46
545.449	3.38
545.794	3.39
546.138	3.45
546.483	3.44
546.827	3.47
547.171	3.32
547.516	3.29
547.86	3.33
548.204	3.29
548.548	3.25
548.892	3.37
549.236	3.47
549.58	3.55
549.924	3.52
550.268	3.57
550.612	3.46
550.956	3.55
551.3	3.59
551.643	3.54
551.987	3.44
552.33	3.48
552.674	3.34
553.017	3.44
553.361	3.5
553.704	3.5
554.048	3.42
554.391	3.51
554.734	3.36
555.077	3.42
555.42	3.38
555.764	3.52
556.107	3.4
556.45	3.38
556.793	3.41
557.135	3.47
557.478	3.39
557.821	3.55
558.164	3.61
558.507	3.41
558.849	3.34
559.192	3.57
559.534	3.64
559.877	3.62
560.219	3.71
560.562	3.56
560.904	3.42
561.246	3.53
561.589	3.6
561.931	3.5
562.273	3.56
562.615	3.31
562.957	3.56
563.299	3.47
563.641	3.46
563.983	3.5
564.325	3.51
564.667	3.39
565.008	3.44
565.35	3.59
565.692	3.53
566.033	3.6
566.375	3.42
566.716	3.51
567.058	3.35
567.399	3.44
567.741	3.5
568.082	3.49
568.423	3.48
568.764	3.48
569.105	3.41
569.447	3.41
569.788	3.43
570.129	3.45
570.47	3.49
570.811	3.61
571.151	3.41
571.492	3.57
571.833	3.52
572.174	3.42
572.514	3.52
572.855	3.54
573.195	3.48
573.536	3.44
573.876	3.39
574.217	3.4
574.557	3.48
574.898	3.54
575.238	3.42
575.578	3.5
575.918	3.33
576.258	3.56
576.598	3.49
576.938	3.35
577.278	3.51
577.618	3.52
577.958	3.57
578.298	3.53
578.638	3.4
578.977	3.54
579.317	3.51
579.657	3.48
579.996	3.49
580.336	3.56
580.675	3.43
581.014	3.57
581.354	3.45
581.693	3.46
582.032	3.47
582.372	3.64
582.711	3.49
583.05	3.54
583.389	3.41
583.728	3.49
584.067	3.59
584.406	3.49
584.745	3.44
585.083	3.51
585.422	3.38
585.761	3.79
586.1	3.29
586.438	3.34
586.777	3.64
587.115	3.63
587.454	3.92
587.792	3.5
588.13	3.7
588.469	3.66
588.807	3.62
589.145	3.74
589.483	3.32
589.821	3.37
590.159	3.68
590.497	3.69
590.835	3.35
591.173	3.35
591.511	3.66
591.849	3.49
592.187	3.65
592.524	3.63
592.862	3.7
593.2	3.72
593.537	3.41
593.875	3.62
594.212	3.78
594.55	3.65
594.887	3.77
595.224	3.54
595.561	3.64
595.899	3.43
596.236	3.58
596.573	3.42
596.91	3.56
597.247	3.32
597.584	3.21
597.921	3.63
598.258	3.43
598.594	3.44
598.931	3.52
599.268	3.43
599.604	3.56
599.941	3.53
600.277	3.36
600.614	3.53
600.95	3.48
601.287	3.73
601.623	3.47
601.959	3.36
602.296	3.51
602.632	3.48
602.968	3.51
603.304	3.57
603.64	3.5
603.976	3.62
604.312	3.39
604.648	3.13
604.984	3.36
605.319	3.51
605.655	3.57
605.991	3.34
606.326	3.41
606.662	3.31
606.998	3.53
607.333	3.43
607.668	3.62
608.004	3.53
608.339	3.81
608.674	3.5
609.01	3.33
609.345	3.5
609.68	3.66
610.015	3.67
610.35	3.53
610.685	3.46
611.02	3.56
611.355	3.39
611.689	3.57
612.024	3.47
612.359	3.4
612.694	3.42
613.028	3.65
613.363	3.69
613.697	3.54
614.032	3.59
614.366	3.09
614.7	3.57
615.035	3.62
615.369	3.63
615.703	3.8
616.037	3.68
616.371	3.64
616.705	3.6
617.039	3.39
617.373	3.76
617.707	3.56
618.041	3.43
618.375	3.79
618.709	3.48
619.042	3.63
619.376	3.47
619.71	3.46
620.043	3.45
620.377	3.6
620.71	3.51
621.043	3.82
621.377	3.53
621.71	3.78
622.043	3.54
622.376	3.74
622.709	3.76
623.043	3.54
623.376	3.71
623.709	3.3
624.041	3.3
624.374	3.6
624.707	3.36
625.04	3.84
625.373	3.55
625.705	3.55
626.038	3.72
626.37	3.62
626.703	3.66
627.035	3.32
627.368	3.52
627.7	3.55
628.032	3.34
628.365	3.88
628.697	3.47
629.029	3.88
629.361	3.48
629.693	3.1
630.025	3.33
630.357	3.33
630.689	3.67
631.021	3.47
631.353	3.36
631.684	3.58
632.016	3.57
632.348	3.86
632.679	3.74
633.011	3.31
633.342	3.63
633.674	3.48
634.005	3.75
634.336	3.63
634.668	3.26
634.999	3.21
635.33	3.43
635.661	3.93
635.992	3.35
636.323	3.4
636.654	3.58
636.985	3.75
637.316	3.73
637.647	3.13
637.977	3.38
638.308	3.35
638.639	3.54
638.969	4.01
639.3	3.44
639.63	3.53
639.961	3.55
640.291	3.63
640.622	3.38
640.952	4.04
641.282	3.56
641.612	3.55
641.943	3.47
642.273	3.69
642.603	3.53
642.933	3.49
643.263	3.58
643.592	3.69
643.922	3.33
644.252	3.27
644.582	3.59
644.911	3.61
645.241	3.57
645.571	3.44
645.9	3.3
646.23	3.79
646.559	3.41
646.888	3.7
647.218	3.14
647.547	3.68
647.876	3.23
648.205	3.44
648.534	3.47
648.863	3.2
649.192	3.9
649.521	3.53
649.85	3.38
650.179	3.17
650.508	3.61
650.837	3.66
651.165	4
651.494	3.9
651.822	3.59
652.151	3.27
652.479	3.97
652.808	3.68
653.136	3.42
653.465	3.59
653.793	3.67
654.121	3.83
654.449	3.85
654.777	3.44
655.105	3.54
655.433	3.13
655.761	3.54
656.089	3.23
656.417	3.61
656.745	3.56
657.073	3.37
657.4	3.51
657.728	3.66
658.056	3.52
658.383	3.43
658.711	3.51
659.038	3.3
659.365	3.5
659.693	3.55
660.02	3.8
660.347	3.52
660.674	2.98
661.001	3.46
661.329	3.59
661.656	3.35
661.982	3.75
662.309	3.55
662.636	3.5
662.963	3.79
663.29	3.6
663.616	4.02
663.943	3.85
664.27	3.61
664.596	3.77
664.923	3.78
665.249	3.52
665.576	2.88
665.902	3.27
666.228	4.27
666.554	3.53
666.881	3.12
667.207	3.13
667.533	3.56
667.859	2.98
668.185	3.21
668.511	3.94
668.837	3.74
669.162	3.48
669.488	3.45
669.814	3.07
670.139	3.53
670.465	3.21
670.791	3.44
671.116	3.51
671.442	3.27
671.767	3.54
672.092	3.49
672.418	3
672.743	3.43
673.068	3.22
673.393	3.13
673.718	4.03
674.043	3.44
674.368	3.43
674.693	3.94
675.018	3.52
675.343	3.19
675.667	3.49
675.992	3.35
676.317	3.31
676.641	3.81
676.966	2.76
677.29	3.21
677.615	3.76
677.939	3.9
678.264	3.2
678.588	4.07
678.912	3.66
679.236	3.83
679.56	3.8
679.885	4.25
680.209	3.36
680.532	3.18
680.856	3.8
681.18	3.44
681.504	3.47
681.828	2.85
682.152	3.67
682.475	3.61
682.799	3.73
683.122	3.6
683.446	3.43
683.769	3.28
684.093	3.77
684.416	3.64
684.739	3.97
685.062	3.35
685.386	3.6
685.709	3.88
686.032	3.66
686.355	3.19
686.678	3.55
687.001	4.45
687.324	3.8
687.646	3.99
687.969	3.69
688.292	3.38
688.614	3.51
688.937	2.93
689.26	3.55
689.582	3.23
689.904	3.23
690.227	4
690.549	4.08
690.871	3.85
691.194	4.27
691.516	4.92
691.838	3.26
692.16	3.4
692.482	3.44
692.804	3.58
693.126	3.77
693.448	3.77
693.769	3.9
694.091	3.04
694.413	3.59
694.735	3.47
695.056	3.04
695.378	2.35
695.699	3.02
696.021	4.28
696.342	3.86
696.663	4.47
696.984	3.57
697.306	3.1
697.627	3.47
697.948	3.83
698.269	4.12
698.59	3.7
698.911	3.25
699.232	4.21
699.553	3.34
699.873	3.51
700.194	3.2
700.515	3.56
700.835	3.49
701.156	3.58
701.477	3.7
701.797	3.44
702.117	3.53
702.438	3.63
702.758	4.07
703.078	3.56
703.398	2.74
703.719	4.1
704.039	3.83
704.359	3.95
704.679	2.9
704.999	3.33
705.319	2.97
705.638	3.3
705.958	2.9
706.278	3.77
706.597	3.66
706.917	3.09
707.237	2.77
707.556	3.36
707.876	3.67
708.195	2.65
708.514	2.31
708.834	2.9
709.153	3.23
709.472	2.86
709.791	3.93
710.11	4.15
710.429	2.45
710.748	4.07
711.067	3.56
711.386	3.92
711.705	2.76
712.023	3.41
712.342	4.02
712.661	4.12
712.979	3.46
713.298	3.88
713.616	3.3
713.935	3.84
714.253	3.08
714.572	3.04
714.89	3.54
715.208	3.2
715.526	2.7
715.844	3.22
716.162	3.76
716.48	2.3
716.798	2.84
717.116	4.05
717.434	3.79
717.752	4.08
718.069	3.07
718.387	3.55
718.705	3.8
719.022	3.13
719.34	3.36
719.657	2.98
719.975	3.8
720.292	2.7
720.609	2.91
720.927	4.08
721.244	3.7
721.561	4.39
721.878	2.22
722.195	2.94
722.512	4.04
722.829	4.17
723.146	3.98
723.463	3.51
723.779	3.9
724.096	3.01
724.413	2.57
724.729	2.99
725.046	3.84
725.362	3.51
725.679	3.64
725.995	3.81
726.311	3.7
726.628	2.83
726.944	3.7
727.26	4.46
727.576	3.22
727.892	1.92
728.208	4.76
728.524	3.03
728.84	3.04
729.156	3.62
729.472	2.83
729.787	3.02
730.103	3.19
730.419	2.63
730.734	2.7
731.05	2.97
731.365	2.12
731.681	1.96
731.996	2.33
732.311	3.72
732.626	3.77
732.942	3.52
733.257	3.77
733.572	5.08
733.887	3.75
734.202	3.35
734.517	2.64
734.832	5.06
735.146	2.85
735.461	1.59
735.776	4.09
736.091	4.43
736.405	4.24
736.72	3.33
737.034	2.82
737.349	4.05
737.663	2.78
737.977	5.21
738.292	1.36
738.606	3.82
738.92	2.87
739.234	4.04
739.548	4.49
739.862	3.85
740.176	2.19
740.49	3.69
740.804	3.58
741.117	3.42
741.431	3.46
741.745	2.6
742.058	3.8
742.372	4.49
742.685	4.19
742.999	3.34
743.312	3.79
743.626	3.82
743.939	3.62
744.252	0.79
744.565	3.5
744.878	2.98
745.191	2.73
745.505	3.96
745.817	2.46
746.13	2.78
746.443	4.42
746.756	3.03
747.069	3.48
747.381	4.18
747.694	4.34
748.007	2.79
748.319	4.15
748.632	3.96
748.944	4.88
749.256	2.47
749.569	3.93
749.881	4.84
750.193	4.46
750.505	3.34
750.817	3.45
751.129	3.85
751.441	3.33
751.753	3.84
752.065	3.36
752.377	4.32
752.689	2.62
753	4.32
753.312	3.13
753.624	2.47
753.935	5.35
754.247	1.97
754.558	3.4
754.869	2.37
755.181	3.51
755.492	2.04
755.803	2.69
756.114	4.41
756.425	4.24
756.736	2.07
757.047	2.89
757.358	2.45
757.669	4.53
757.98	3.82
758.291	2.48
758.601	4.31
758.912	5.16
759.223	4.4
759.533	2.59
759.844	4.33
760.154	2.8
760.464	3.1
760.775	3.12
761.085	2.26
761.395	2.49
761.705	3.9
762.016	2.92
762.326	3.18
762.636	5.19
762.945	3.74
763.255	4.9
763.565	2.77
763.875	4.79
764.185	4.84
764.494	1.74
764.804	1.97
765.113	1.89
765.423	4.5
765.732	4.09
766.042	3.48
766.351	3.03
766.66	4.82
766.97	3.21
767.279	4.21
767.588	5.1
767.897	4.81
768.206	4.47
768.515	2.74
768.824	2.49
769.133	2.07
769.441	3.33
769.75	2.54
770.059	3.94
770.367	3.95
770.676	2.92
770.984	5.72
771.293	4.05
771.601	3.18
771.91	3.07
772.218	4.62
772.526	2.02
772.834	1.36
773.142	1.59
773.45	3.38
773.758	2.8
774.066	-0.21
774.374	-0.43
774.682	7.56
774.99	0.58
775.298	3.16
775.605	2.68
775.913	1.93
776.22	3.49
776.528	4.15
776.835	2.5
777.143	2.75
777.45	4.48
777.757	1.53
778.065	3.65
778.372	4.13
778.679	4.31
778.986	0.39
779.293	1.5
779.6	-0.08
779.907	4.1
780.214	0.59
780.52	7.7
780.827	4.87
781.134	1.61
781.44	-1.07
781.747	3.03
782.053	4.4
782.36	0.73
782.666	4.2
782.973	0.56
783.279	-1.97
783.585	1.23
783.891	1.36
784.197	1.06
784.503	1.17
784.809	3.83
785.115	3.07
785.421	4.95
785.727	0.38
786.033	1.98
786.339	2.93
786.644	1.3
786.95	0.33
787.255	2.76
787.561	4.54
787.866	4.89
788.172	1.01
788.477	4.23
788.782	1.32
789.088	7.02
789.393	4.16
789.698	3.18
790.003	2.82
790.308	3.89
790.613	4.64
790.918	0.3
791.223	4.55
791.527	-0.68
791.832	2.03
792.137	2.27
792.441	4.58
792.746	2.98
793.05	2.69
793.355	3.93
793.659	1.33
793.963	0.08
794.268	3.15
794.572	0.52
794.876	0.9
795.18	6.24
795.484	1.98
795.788	4.36
796.092	3.65
796.396	-0.27
796.7	1.77
797.004	5.48
797.307	2.69
797.611	-0.6
797.915	4.21
798.218	7.94
798.522	1.26
798.825	3.06
799.128	5.96
799.432	2.4
799.735	4.94
800.038	5.34
800.341	1.41
800.644	-0.43
800.947	5.98
801.25	6.8
801.553	-0.98
801.856	4.75
802.159	8.11
802.462	-1.67
802.764	7.65
803.067	4.4
803.37	-4.55
803.672	8.43
803.975	7.81
804.277	-2.81
804.579	5.64
804.882	8.96
805.184	4.27
805.486	3.32
805.788	4.91
806.09	2.71
806.392	2.57
806.694	0.49
806.996	0.39
807.298	3.24
807.6	-0.94
807.902	0.89
808.203	-1.6
808.505	-3.13
808.807	-1.5
809.108	1.73
809.409	4.18
809.711	6.86
810.012	2.05
810.313	8.12
810.615	-0.04
810.916	6.62
811.217	-2.54
811.518	-1.87
811.819	6.79
812.12	4.75
812.421	1.54
812.722	-2.48
813.023	-0.45
813.323	2.99
813.624	2.37
813.925	-0.5
814.225	7.96
814.526	2.3
814.826	11.51
815.126	-0.99
815.427	6.05
815.727	5.97
816.027	4.57
816.327	-2.01
816.627	-3.88
816.927	2
817.227	-1.89
817.527	-3.49
817.827	-0.73
818.127	3.35
818.427	-0.99
818.727	-4.96
819.026	-1.36
819.326	-1.49
819.625	4.61
819.925	4.13
820.224	7.23
820.524	-2.45
820.823	4.19
821.122	5.42
821.421	0.95
821.72	6.35
822.019	2.25
822.318	5.19
822.617	-1.09
822.916	4.87
823.215	0.82
823.514	5.04
823.813	7.03
824.111	2.28
824.41	3.48
824.709	3.6
825.007	3.84
825.306	3.7
825.604	4.29
825.902	3.55
826.201	4.32
826.499	4.4
826.797	6.18
827.095	3.37
827.393	5.18
827.691	6.18
827.989	3.59
828.287	4.5
828.585	5.37
828.882	5.42
829.18	4.44
829.478	4.71
829.775	3.89
830.073	5.32
830.37	5.41
830.668	3.85
830.965	2.74
831.263	6.25
831.56	2.14
831.857	1.28
832.154	3.1
832.451	5.89
832.748	2.6
833.045	3.07
833.342	4.29
833.639	-1.5
833.936	9.02
834.232	7.87
834.529	2.16
834.826	5.8
835.122	4.38
835.419	0.3
835.715	-1.52
836.012	6.78
836.308	5.88
836.604	0.36
836.901	4
837.197	4.01
837.493	1.24
837.789	1.44
838.085	6.73
838.381	1.89
838.677	7.41
838.972	3.93
839.268	2.84
839.564	3.63
839.86	3.49
840.155	-7.28
840.451	-1.32
840.746	-5.61
841.042	5.62
841.337	5.38
841.632	-0.2
841.928	3.82
842.223	-8.59
842.518	4.23
842.813	-3.82
843.108	6.54
843.403	4.55
843.698	-1.53
843.993	0.02
844.287	3.57
844.582	11.08
844.877	3.65
845.171	-0.31
845.466	12.17
845.761	-7.63
846.055	6.8
846.349	6.11
846.644	9.9
846.938	-17.16
847.232	-2.06
847.526	6.4
847.82	-3.04
848.114	11.25
848.408	3.74
848.702	-16.42
848.996	2.68
849.29	-6.48
849.584	-6.3
849.877	-1.32
850.171	-13.96
850.465	-1.9
850.758	-29.69
851.052	21.64
851.345	12.51
851.638	16.03
851.932	21.84
852.225	9.36
852.518	19.02
852.811	-7.31
853.104	-6.74
853.397	2.36
853.69	-7.69
853.983	-12.32
854.276	-16.06
854.569	-8.27
854.861	18.58
855.154	-0.21
855.447	-3.94
855.739	-0.19
856.032	9.96
856.324	-22.57
856.616	-2.84
856.909	17.61
857.201	-10.94
857.493	7.83
857.785	-3.7
858.077	-18.45
858.369	-11.67
858.661	-10.05
858.953	8.91
859.245	-15.31
859.537	2.42
859.829	-10.38
860.12	-14.15
860.412	-2.94
860.703	-3.25
860.995	-16.35
861.286	-22.66
861.578	-4.65
861.869	-38.31
862.16	-55.53
862.452	-7.87
862.743	21.62
863.034	13.6
863.325	29.59
863.616	7.1
863.907	11.27
864.198	-12.22
864.488	-20.84
864.779	-0.52
865.07	24.44
865.36	-18.33
865.651	2.48
865.941	13.12
866.232	-24.72
866.522	-26.93
866.813	-14.59
867.103	-2.17
867.393	2.26
867.683	-4.41
867.973	4.17
868.263	-3.79
868.553	-2.17
868.843	5.63
869.133	-8.72
869.423	-5.51
869.713	-7.08
870.002	4.78
870.292	-19.11
870.582	8.36
870.871	-9.05
871.161	21.59
871.45	-4.5
871.739	-15.55
872.029	-18.02
872.318	-2.54
872.607	-2.84
872.896	-54.76
873.185	8.67
873.474	-14.54
873.763	6.59
874.052	-3.11
874.341	-2.9
874.63	-4.04
874.918	-16.57
875.207	-14.48
875.496	-5.65
875.784	-10.63
876.073	-32.33
876.361	-10.42
876.649	-12.92
876.938	8.69
877.226	21.63
877.514	-8.67
877.802	-8.26
878.09	19.89
878.378	-2.45
878.666	-38.1
878.954	2.1
879.242	-13.24
879.53	-1.64
879.817	-12.45
880.105	-51.46
880.392	10.17
880.68	-47.25
880.967	-20.44
881.255	-1.9
881.542	-20.77
881.83	-7.99
882.117	-24.36
882.404	14.79
882.691	32.16
882.978	-0.1
883.265	0.69
883.552	-2.66
883.839	6.73
884.126	1.72
884.413	7.1
884.699	4.2
884.986	6.53
885.273	-0.32
885.559	-0.32
885.846	-0.32
