Data from 1610-5_chest_Reflection__4__99.txt Node

Date: Fri Nov 11 16:54:19 CST 2022
User: ToomeyLab
Spectrometer: FLMS14357
Trigger mode: 0
Integration Time (sec): 1.000000E-2
Scans to average: 100
Electric dark correction enabled: true
Nonlinearity correction enabled: false
Boxcar width: 0
XAxis mode: Wavelengths
Number of Pixels in Spectrum: 2048
>>>>>Begin Spectral Data<<<<<
189.047	-68.29
189.435	-68.29
189.823	-68.29
190.211	-106.35
190.599	161.32
190.987	250.4
191.375	135.8
191.763	175.85
192.151	149.65
192.538	-60.84
192.926	-205.81
193.314	87.58
193.702	-70.77
194.089	66.48
194.477	178.12
194.864	-375.21
195.252	153.07
195.639	149.75
196.027	-55
196.414	107.68
196.801	57.28
197.189	144.49
197.576	96.99
197.963	2.16
198.351	-53.05
198.738	-87.88
199.125	23.68
199.512	12.41
199.899	-20.56
200.286	23.75
200.673	-10.99
201.06	-74.1
201.447	0.54
201.833	22.17
202.22	36.01
202.607	7.88
202.994	16.1
203.38	17.46
203.767	-1.75
204.154	-25.43
204.54	49.75
204.927	24.36
205.313	19.85
205.699	26.85
206.086	18.34
206.472	34.27
206.858	-10.34
207.245	-3.04
207.631	10.47
208.017	-15.92
208.403	-15.91
208.789	-155.35
209.175	-7.69
209.561	-1.66
209.947	15.91
210.333	21.83
210.719	19.46
211.105	10.32
211.491	-160.76
211.876	30.69
212.262	-61.86
212.648	-33.22
213.034	4.66
213.419	14.53
213.805	18.47
214.19	-40.16
214.576	25.49
214.961	-28.58
215.346	-53.47
215.732	-65.4
216.117	8.24
216.502	-1.23
216.888	-23.55
217.273	-24.21
217.658	1.71
218.043	-16.41
218.428	-9.42
218.813	36.23
219.198	-47.9
219.583	3.9
219.968	-6.36
220.353	-48.24
220.738	1.94
221.122	-20.66
221.507	13.33
221.892	-7.81
222.276	-0.7
222.661	19.24
223.046	23.13
223.43	-0.08
223.815	-13.56
224.199	0.24
224.583	-3.26
224.968	10.55
225.352	-2.38
225.736	10.85
226.121	5.31
226.505	0.89
226.889	7.27
227.273	0.33
227.657	-5.42
228.041	2.43
228.425	4.52
228.809	4.82
229.193	3.73
229.577	4.58
229.961	3.96
230.344	4.86
230.728	4.41
231.112	3.75
231.495	4.33
231.879	2.87
232.263	3.58
232.646	3.9
233.03	2.79
233.413	2.55
233.797	3.17
234.18	5.31
234.563	5.68
234.946	1.46
235.33	3.66
235.713	4.15
236.096	2.34
236.479	4.82
236.862	5.34
237.245	3.92
237.628	4.75
238.011	4.41
238.394	4.01
238.777	3.61
239.16	4.89
239.543	3.56
239.925	7.9
240.308	4.62
240.691	4.02
241.073	3
241.456	4.57
241.838	5.41
242.221	3.91
242.603	4.2
242.986	4.23
243.368	4.16
243.75	4.89
244.133	5.14
244.515	4.62
244.897	4.15
245.279	4.55
245.661	4.9
246.043	3.52
246.425	4.68
246.807	4.8
247.189	3.42
247.571	3.72
247.953	4.38
248.335	5.09
248.717	4.77
249.098	4.58
249.48	4.79
249.862	4.58
250.243	4.19
250.625	4.05
251.006	4.86
251.388	4.44
251.769	4.89
252.151	4.66
252.532	5.33
252.913	4.38
253.295	5.5
253.676	4.67
254.057	4.8
254.438	4.93
254.819	4.56
255.2	4.84
255.581	5.29
255.962	4.68
256.343	5.84
256.724	4
257.105	4.04
257.486	5.09
257.867	4.19
258.247	5.29
258.628	3.85
259.009	4.64
259.389	5.16
259.77	5
260.15	5.1
260.531	4.28
260.911	4.57
261.292	4.48
261.672	4.56
262.052	4.46
262.432	4.92
262.813	4.39
263.193	4.57
263.573	4.82
263.953	4.6
264.333	4.42
264.713	3.93
265.093	5.21
265.473	4.67
265.853	3.84
266.233	4.46
266.612	3.98
266.992	3.59
267.372	4.3
267.752	4.96
268.131	4.48
268.511	4.66
268.89	4.53
269.27	4.34
269.649	3.75
270.029	4.2
270.408	4.07
270.787	4.75
271.167	4.38
271.546	5.05
271.925	4.4
272.304	4.42
272.683	4.61
273.062	4.51
273.441	4.06
273.82	3.81
274.199	4.42
274.578	4.72
274.957	4.01
275.336	3.94
275.715	4.63
276.093	4.76
276.472	4.72
276.851	4.39
277.229	4.29
277.608	4.56
277.986	4.37
278.365	4.68
278.743	4.37
279.122	3.8
279.5	3.74
279.878	3.83
280.257	4.86
280.635	4.34
281.013	4.87
281.391	4.45
281.769	4.91
282.147	4.35
282.525	4.2
282.903	4.66
283.281	4.13
283.659	4.21
284.037	4.1
284.415	4.54
284.792	4.24
285.17	4.25
285.548	4.83
285.925	4.62
286.303	4.11
286.68	4.23
287.058	4.55
287.435	4.55
287.813	4.24
288.19	4.53
288.567	4.45
288.945	3.96
289.322	4.24
289.699	4.48
290.076	4.15
290.453	4.74
290.83	4.28
291.207	4.45
291.584	4.4
291.961	4.21
292.338	4.66
292.715	4.27
293.092	4.5
293.469	4.35
293.845	4.86
294.222	5.12
294.599	4.47
294.975	4.33
295.352	4.37
295.728	4.4
296.105	4.6
296.481	4.43
296.858	4.16
297.234	4.31
297.61	4.14
297.986	3.91
298.363	4.42
298.739	4.73
299.115	4.4
299.491	4.43
299.867	4.16
300.243	4.59
300.619	4.45
300.995	4.61
301.371	4.15
301.746	4.42
302.122	4.24
302.498	3.95
302.874	5.01
303.249	4.75
303.625	4.59
304	4.58
304.376	4.17
304.751	5.12
305.127	4.57
305.502	4.87
305.878	5.36
306.253	4.75
306.628	4.97
307.003	4.81
307.378	4.8
307.754	4.74
308.129	5.03
308.504	4.93
308.879	4.65
309.254	4.58
309.629	4.57
310.003	4.68
310.378	4.09
310.753	4.26
311.128	4.87
311.502	4.35
311.877	4.86
312.252	4.5
312.626	4.7
313.001	4.73
313.375	4.79
313.75	5.12
314.124	5.09
314.498	4.67
314.873	4.81
315.247	5.09
315.621	4.36
315.995	4.33
316.369	4.76
316.743	4.6
317.117	5.07
317.491	4.81
317.865	4.92
318.239	5
318.613	4.97
318.987	5.14
319.361	5.07
319.734	4.45
320.108	5.42
320.482	4.55
320.855	4.95
321.229	5.3
321.602	4.53
321.976	4.43
322.349	4.75
322.723	5.11
323.096	4.67
323.469	4.9
323.843	5.29
324.216	4.82
324.589	4.74
324.962	4.68
325.335	5.5
325.708	4.88
326.081	4.77
326.454	5.24
326.827	5.02
327.2	4.71
327.573	5.22
327.945	4.81
328.318	5.02
328.691	5.7
329.063	5.01
329.436	5.2
329.809	4.65
330.181	5.29
330.553	5.66
330.926	4.84
331.298	4.87
331.671	4.63
332.043	5.54
332.415	5.46
332.787	5.07
333.159	5.51
333.532	4.98
333.904	4.56
334.276	5.09
334.648	4.88
335.02	5.19
335.391	5.15
335.763	5.39
336.135	4.65
336.507	4.72
336.879	5.05
337.25	4.84
337.622	5.52
337.993	5.42
338.365	5.35
338.736	5.37
339.108	4.9
339.479	5.09
339.851	4.5
340.222	4.87
340.593	4.62
340.964	5.25
341.336	4.9
341.707	5.12
342.078	5.08
342.449	5.32
342.82	4.97
343.191	5.68
343.562	5.31
343.933	4.6
344.303	5.63
344.674	5.1
345.045	5.28
345.416	5.04
345.786	5.09
346.157	5.16
346.527	5.07
346.898	5.28
347.268	5.29
347.639	5.54
348.009	5.5
348.38	5.16
348.75	5.78
349.12	4.95
349.49	5.32
349.861	5.39
350.231	5.3
350.601	5.76
350.971	5.77
351.341	5.1
351.711	5.37
352.081	4.93
352.45	5.74
352.82	5.54
353.19	5.25
353.56	5.44
353.929	5.12
354.299	5.65
354.669	5.64
355.038	5.61
355.408	4.92
355.777	5.6
356.147	5.41
356.516	5.35
356.885	5.53
357.254	5.21
357.624	5.19
357.993	5.57
358.362	5.48
358.731	5.24
359.1	5.44
359.469	5.61
359.838	5.58
360.207	5.79
360.576	5.54
360.945	5.61
361.314	5.5
361.682	5.78
362.051	5.5
362.42	5.32
362.788	5.33
363.157	5.48
363.525	5.67
363.894	5.51
364.262	5.47
364.631	5.51
364.999	5.49
365.367	5.66
365.735	5.78
366.104	5.38
366.472	5.93
366.84	5.42
367.208	5.6
367.576	5.56
367.944	6.18
368.312	5.62
368.68	5.77
369.048	5.38
369.416	5.41
369.783	5.62
370.151	5.78
370.519	5.96
370.886	5.6
371.254	5.77
371.621	5.81
371.989	5.5
372.356	5.41
372.724	5.86
373.091	5.79
373.458	5.65
373.826	5.56
374.193	5.72
374.56	5.67
374.927	5.7
375.294	5.8
375.661	6.21
376.028	5.7
376.395	5.6
376.762	5.78
377.129	5.78
377.496	5.76
377.863	5.93
378.229	5.52
378.596	5.74
378.963	5.62
379.329	5.62
379.696	5.69
380.062	5.86
380.429	5.86
380.795	5.53
381.161	6
381.528	5.85
381.894	6.01
382.26	5.77
382.626	5.34
382.993	5.91
383.359	5.71
383.725	5.89
384.091	5.46
384.457	5.66
384.823	6.24
385.188	5.79
385.554	5.8
385.92	5.57
386.286	5.69
386.651	5.75
387.017	5.79
387.383	5.94
387.748	5.76
388.114	5.87
388.479	5.73
388.845	6.06
389.21	5.72
389.575	6
389.94	5.99
390.306	5.81
390.671	5.89
391.036	5.82
391.401	5.71
391.766	5.66
392.131	5.63
392.496	5.72
392.861	5.59
393.226	5.69
393.591	5.88
393.956	5.97
394.32	5.93
394.685	5.93
395.05	5.94
395.414	5.85
395.779	5.86
396.143	6.01
396.508	5.93
396.872	6.15
397.236	5.76
397.601	5.88
397.965	6.03
398.329	5.74
398.694	5.88
399.058	6.08
399.422	5.86
399.786	6.01
400.15	5.86
400.514	5.88
400.878	6.12
401.242	6.01
401.605	5.75
401.969	6.06
402.333	5.93
402.697	5.84
403.06	5.87
403.424	5.77
403.787	5.91
404.151	5.99
404.514	5.88
404.878	6.18
405.241	6.05
405.604	5.78
405.968	6.15
406.331	5.79
406.694	5.86
407.057	5.97
407.42	5.88
407.783	5.84
408.146	5.9
408.509	5.82
408.872	6.35
409.235	5.98
409.598	5.77
409.961	5.86
410.323	5.94
410.686	6.05
411.049	6.26
411.411	5.76
411.774	6.03
412.136	6.04
412.499	6.03
412.861	5.82
413.223	5.85
413.586	5.71
413.948	5.97
414.31	5.9
414.672	6.24
415.035	6.11
415.397	6.25
415.759	6.05
416.121	6.04
416.483	5.97
416.845	6.11
417.206	6.18
417.568	5.95
417.93	6.02
418.292	5.77
418.653	5.93
419.015	5.87
419.377	5.83
419.738	6.13
420.1	5.96
420.461	5.8
420.822	5.78
421.184	5.87
421.545	5.87
421.906	5.91
422.267	5.95
422.629	5.75
422.99	5.84
423.351	5.85
423.712	5.93
424.073	5.89
424.434	5.87
424.795	5.93
425.155	5.89
425.516	5.89
425.877	5.97
426.238	5.82
426.598	5.81
426.959	5.87
427.32	5.92
427.68	5.97
428.041	5.94
428.401	5.85
428.761	5.94
429.122	6.04
429.482	6.18
429.842	6.09
430.202	6
430.563	5.9
430.923	6.1
431.283	6.17
431.643	6.21
432.003	6.17
432.363	6.07
432.722	6.11
433.082	6.02
433.442	6.15
433.802	6.11
434.161	5.95
434.521	6.1
434.881	5.89
435.24	5.98
435.6	6.03
435.959	6.03
436.319	6.07
436.678	6.07
437.037	6.03
437.396	5.8
437.756	5.95
438.115	5.89
438.474	6.08
438.833	5.99
439.192	6.21
439.551	6.05
439.91	6.09
440.269	6.06
440.628	6.04
440.987	6.17
441.345	6.05
441.704	6.05
442.063	6.17
442.421	5.97
442.78	6.01
443.138	5.99
443.497	5.99
443.855	6.08
444.214	6.12
444.572	6.08
444.93	6.24
445.288	6.28
445.647	5.95
446.005	6.23
446.363	6.11
446.721	5.95
447.079	6.18
447.437	6.17
447.795	6.01
448.153	6.02
448.51	6.06
448.868	6.05
449.226	6.01
449.584	6.07
449.941	6.12
450.299	6.13
450.656	6.15
451.014	6.08
451.371	6.01
451.729	5.98
452.086	6.06
452.443	6.22
452.801	6.15
453.158	6.22
453.515	6.04
453.872	6.25
454.229	6.05
454.586	6.23
454.943	6.17
455.3	6.2
455.657	6.12
456.014	6.13
456.371	6.26
456.727	6.17
457.084	6.31
457.441	6.22
457.797	6.21
458.154	6.24
458.51	6.09
458.867	6.33
459.223	6.12
459.58	6.36
459.936	6.24
460.292	6.18
460.648	6.18
461.005	6.27
461.361	6.14
461.717	6.09
462.073	6.22
462.429	6.22
462.785	6.1
463.141	6.21
463.496	6.18
463.852	6.27
464.208	6.25
464.564	6.23
464.919	6.08
465.275	6.32
465.631	6.34
465.986	6.19
466.342	6.45
466.697	6.39
467.052	6.38
467.408	6.25
467.763	6.21
468.118	6.18
468.473	6.4
468.829	6.43
469.184	6.5
469.539	6.44
469.894	6.38
470.249	6.31
470.603	6.26
470.958	6.51
471.313	6.31
471.668	6.34
472.023	6.37
472.377	6.48
472.732	6.36
473.086	6.48
473.441	6.41
473.795	6.38
474.15	6.37
474.504	6.38
474.859	6.32
475.213	6.3
475.567	6.43
475.921	6.52
476.275	6.45
476.63	6.38
476.984	6.41
477.338	6.38
477.692	6.41
478.045	6.24
478.399	6.36
478.753	6.41
479.107	6.27
479.461	6.44
479.814	6.29
480.168	6.43
480.521	6.52
480.875	6.5
481.228	6.48
481.582	6.43
481.935	6.42
482.289	6.4
482.642	6.44
482.995	6.49
483.348	6.41
483.701	6.4
484.055	6.28
484.408	6.31
484.761	6.17
485.114	6.17
485.466	6
485.819	6.05
486.172	6.02
486.525	6.05
486.878	6.07
487.23	6.17
487.583	6.25
487.936	6.26
488.288	6.27
488.641	6.31
488.993	6.19
489.345	6.15
489.698	6.2
490.05	6.13
490.402	6.14
490.754	6.27
491.107	6.25
491.459	6.35
491.811	6.38
492.163	6.42
492.515	6.38
492.866	6.31
493.218	6.24
493.57	6.16
493.922	6.26
494.274	6.28
494.625	6.31
494.977	6.38
495.328	6.45
495.68	6.56
496.031	6.49
496.383	6.67
496.734	6.67
497.086	6.59
497.437	6.53
497.788	6.65
498.139	6.59
498.49	6.46
498.842	6.64
499.193	6.52
499.544	6.59
499.894	6.62
500.245	6.66
500.596	6.7
500.947	6.59
501.298	6.57
501.648	6.65
501.999	6.7
502.35	6.58
502.7	6.65
503.051	6.58
503.401	6.61
503.752	6.61
504.102	6.65
504.452	6.69
504.803	6.66
505.153	6.75
505.503	6.49
505.853	6.74
506.203	6.84
506.553	6.65
506.903	6.7
507.253	6.86
507.603	6.67
507.953	6.78
508.303	6.64
508.652	6.72
509.002	6.77
509.352	6.92
509.701	6.69
510.051	6.8
510.4	6.63
510.75	6.74
511.099	6.62
511.449	6.73
511.798	6.65
512.147	6.71
512.496	6.78
512.846	6.74
513.195	6.74
513.544	6.86
513.893	6.75
514.242	6.73
514.591	6.61
514.939	6.83
515.288	6.71
515.637	6.81
515.986	6.9
516.334	6.87
516.683	6.81
517.032	6.8
517.38	6.84
517.729	6.86
518.077	6.73
518.426	6.87
518.774	6.79
519.122	6.89
519.47	6.81
519.819	6.84
520.167	6.75
520.515	6.86
520.863	6.8
521.211	6.76
521.559	6.81
521.907	6.94
522.255	6.94
522.602	6.94
522.95	6.85
523.298	6.91
523.645	7
523.993	6.96
524.341	6.96
524.688	6.95
525.036	7.09
525.383	7.08
525.73	6.88
526.078	6.91
526.425	6.97
526.772	6.94
527.119	6.92
527.466	6.92
527.814	6.83
528.161	6.92
528.508	6.86
528.854	6.88
529.201	6.93
529.548	6.92
529.895	6.77
530.242	6.75
530.588	6.75
530.935	6.77
531.282	6.82
531.628	6.76
531.975	6.88
532.321	6.9
532.667	6.96
533.014	6.93
533.36	6.97
533.706	7
534.052	7.07
534.399	6.98
534.745	6.94
535.091	6.91
535.437	7
535.783	6.87
536.129	7.04
536.474	7.07
536.82	7.12
537.166	7.07
537.512	7.26
537.857	7.26
538.203	7.17
538.549	7.08
538.894	7.05
539.239	7.14
539.585	7.17
539.93	7.24
540.276	7.32
540.621	7.28
540.966	7.31
541.311	7.43
541.656	7.29
542.001	7.35
542.346	7.28
542.691	7.17
543.036	7.15
543.381	7.15
543.726	7.14
544.071	7.13
544.415	7.2
544.76	7.19
545.105	7.32
545.449	7.29
545.794	7.28
546.138	7.24
546.483	7.44
546.827	7.47
547.171	7.42
547.516	7.36
547.86	7.46
548.204	7.45
548.548	7.39
548.892	7.51
549.236	7.56
549.58	7.66
549.924	7.53
550.268	7.69
550.612	7.68
550.956	7.72
551.3	7.76
551.643	7.83
551.987	7.73
552.33	7.69
552.674	7.65
553.017	7.82
553.361	7.82
553.704	7.91
554.048	7.7
554.391	7.71
554.734	7.71
555.077	7.87
555.42	7.91
555.764	7.91
556.107	7.82
556.45	7.78
556.793	8.01
557.135	7.88
557.478	7.78
557.821	7.98
558.164	7.96
558.507	8
558.849	7.78
559.192	8.14
559.534	7.91
559.877	8.04
560.219	8.2
560.562	7.98
560.904	8.03
561.246	8.08
561.589	8.17
561.931	8.07
562.273	8.23
562.615	7.96
562.957	8.14
563.299	8.16
563.641	8.28
563.983	8.19
564.325	8.08
564.667	8.09
565.008	8.18
565.35	8.26
565.692	8.19
566.033	8.35
566.375	8.23
566.716	8.35
567.058	8.15
567.399	8.25
567.741	8.41
568.082	8.32
568.423	8.47
568.764	8.36
569.105	8.26
569.447	8.14
569.788	8.41
570.129	8.44
570.47	8.31
570.811	8.56
571.151	8.35
571.492	8.37
571.833	8.43
572.174	8.51
572.514	8.48
572.855	8.53
573.195	8.54
573.536	8.52
573.876	8.44
574.217	8.32
574.557	8.5
574.898	8.59
575.238	8.62
575.578	8.63
575.918	8.69
576.258	8.81
576.598	8.81
576.938	8.74
577.278	8.76
577.618	8.72
577.958	8.83
578.298	8.95
578.638	8.72
578.977	8.89
579.317	8.96
579.657	8.93
579.996	8.94
580.336	9.03
580.675	9.03
581.014	8.92
581.354	8.94
581.693	8.89
582.032	9.17
582.372	9.3
582.711	9.24
583.05	9.15
583.389	9.15
583.728	9.07
584.067	9.1
584.406	9.18
584.745	9.29
585.083	9.34
585.422	9.37
585.761	9.56
586.1	9.11
586.438	9.09
586.777	9.62
587.115	9.35
587.454	9.58
587.792	9.33
588.13	9.33
588.469	9.43
588.807	9.54
589.145	9.53
589.483	9.53
589.821	9.34
590.159	9.51
590.497	9.59
590.835	9.53
591.173	9.74
591.511	9.58
591.849	9.54
592.187	9.66
592.524	9.63
592.862	9.88
593.2	9.74
593.537	9.67
593.875	9.7
594.212	10.14
594.55	10.04
594.887	10.05
595.224	9.9
595.561	9.88
595.899	9.92
596.236	10.12
596.573	10.05
596.91	9.84
597.247	9.8
597.584	9.97
597.921	10.05
598.258	10
598.594	9.95
598.931	10.14
599.268	10.03
599.604	10.1
599.941	9.94
600.277	9.85
600.614	10.25
600.95	10.11
601.287	10.28
601.623	10.39
601.959	10.07
602.296	10.16
602.632	10.2
602.968	10.45
603.304	10.4
603.64	10.38
603.976	10.55
604.312	10.54
604.648	10.39
604.984	10.42
605.319	10.41
605.655	10.42
605.991	10.41
606.326	10.4
606.662	10.34
606.998	10.37
607.333	10.6
607.668	10.49
608.004	10.45
608.339	10.85
608.674	10.62
609.01	10.45
609.345	10.57
609.68	10.98
610.015	11.09
610.35	10.69
610.685	10.71
611.02	10.99
611.355	10.81
611.689	10.89
612.024	10.76
612.359	10.73
612.694	10.8
613.028	10.93
613.363	11.02
613.697	11.11
614.032	10.9
614.366	11.03
614.7	10.9
615.035	11.1
615.369	11.31
615.703	11.16
616.037	11.32
616.371	11
616.705	11.29
617.039	10.91
617.373	11.48
617.707	11.41
618.041	11.39
618.375	11.43
618.709	11.12
619.042	11.45
619.376	11.82
619.71	11.38
620.043	11.43
620.377	11.53
620.71	11.61
621.043	11.8
621.377	11.38
621.71	11.34
622.043	11.58
622.376	11.75
622.709	11.68
623.043	11.6
623.376	11.93
623.709	11.94
624.041	11.6
624.374	12.27
624.707	11.92
625.04	11.7
625.373	11.61
625.705	12
626.038	11.97
626.37	11.54
626.703	11.86
627.035	11.95
627.368	12.05
627.7	12.29
628.032	12.04
628.365	12.5
628.697	12.34
629.029	12.46
629.361	12.14
629.693	12.13
630.025	12.17
630.357	12.05
630.689	12.55
631.021	12.37
631.353	12.19
631.684	12.35
632.016	12.46
632.348	12.16
632.679	12.51
633.011	12.33
633.342	12.29
633.674	12.62
634.005	12.61
634.336	12.47
634.668	12.59
634.999	12.58
635.33	12.42
635.661	12.9
635.992	12.84
636.323	12.86
636.654	12.87
636.985	12.66
637.316	13.23
637.647	12.99
637.977	12.82
638.308	12.71
638.639	12.9
638.969	13.06
639.3	12.99
639.63	13.54
639.961	12.76
640.291	13.1
640.622	12.95
640.952	13.26
641.282	13.51
641.612	13.37
641.943	13.61
642.273	13.67
642.603	13.12
642.933	13.38
643.263	13.28
643.592	13.62
643.922	13.21
644.252	13.09
644.582	13.35
644.911	13.3
645.241	13.83
645.571	13.75
645.9	13.04
646.23	13.73
646.559	13.59
646.888	13.94
647.218	13.62
647.547	13.57
647.876	13.48
648.205	14.15
648.534	13.86
648.863	13.49
649.192	14.1
649.521	14.03
649.85	13.87
650.179	13.59
650.508	14.05
650.837	14.24
651.165	14.21
651.494	14.1
651.822	13.95
652.151	14.14
652.479	14.25
652.808	13.99
653.136	14.24
653.465	14.53
653.793	14.75
654.121	14.45
654.449	14.49
654.777	14.09
655.105	14.69
655.433	14.03
655.761	14.54
656.089	14.12
656.417	14.85
656.745	14.96
657.073	14.61
657.4	14.82
657.728	14.96
658.056	14.22
658.383	15.08
658.711	14.71
659.038	14.8
659.365	14.46
659.693	14.86
660.02	15.59
660.347	15.16
660.674	14.49
661.001	15.32
661.329	14.97
661.656	14.82
661.982	14.98
662.309	14.97
662.636	14.91
662.963	14.78
663.29	15.24
663.616	15.44
663.943	15
664.27	15.65
664.596	15.19
664.923	15.71
665.249	15.4
665.576	15.09
665.902	15.5
666.228	15.42
666.554	15.42
666.881	15.49
667.207	15.43
667.533	15.8
667.859	14.83
668.185	15.42
668.511	15.58
668.837	15.7
669.162	15.65
669.488	15.83
669.814	15.53
670.139	16.06
670.465	16.35
670.791	15.72
671.116	15.92
671.442	15.68
671.767	16.18
672.092	16.04
672.418	15.82
672.743	16.05
673.068	15.43
673.393	15.81
673.718	16.2
674.043	16.37
674.368	16.46
674.693	17.19
675.018	16.18
675.343	16.23
675.667	16.32
675.992	16.25
676.317	16.21
676.641	16.26
676.966	15.89
677.29	15.83
677.615	16.01
677.939	16.58
678.264	16.63
678.588	16.85
678.912	16.97
679.236	16.13
679.56	16.89
679.885	16.58
680.209	16.26
680.532	16.58
680.856	17.3
681.18	16.91
681.504	17.17
681.828	16.6
682.152	17.5
682.475	16.87
682.799	16.35
683.122	16.89
683.446	16.85
683.769	17.63
684.093	17.1
684.416	17.33
684.739	17.14
685.062	17.58
685.386	17.36
685.709	17.41
686.032	16.97
686.355	17.06
686.678	17.21
687.001	17.91
687.324	18.13
687.646	17.71
687.969	17.2
688.292	18.25
688.614	17.48
688.937	17.28
689.26	17.41
689.582	17.4
689.904	17.61
690.227	18.38
690.549	17.67
690.871	17.44
691.194	18.25
691.516	18.31
691.838	18
692.16	18.12
692.482	17.68
692.804	17.8
693.126	17.82
693.448	19.27
693.769	17.86
694.091	18.41
694.413	18.67
694.735	18.18
695.056	18.97
695.378	18.1
695.699	17.77
696.021	18.86
696.342	18.27
696.663	18.96
696.984	17.79
697.306	19.27
697.627	18.46
697.948	18.14
698.269	18.69
698.59	18.96
698.911	19.1
699.232	19.11
699.553	18.23
699.873	18.79
700.194	18.77
700.515	19.11
700.835	19.02
701.156	19.33
701.477	19.28
701.797	19.05
702.117	18.45
702.438	18.9
702.758	19.25
703.078	19.05
703.398	18.94
703.719	19.2
704.039	19.56
704.359	20.15
704.679	17.91
704.999	18.63
705.319	18.6
705.638	19.35
705.958	18.41
706.278	19.65
706.597	18.99
706.917	18.07
707.237	19.44
707.556	19.95
707.876	19.36
708.195	19.37
708.514	20.19
708.834	19.8
709.153	19.97
709.472	19.65
709.791	20.69
710.11	20.45
710.429	19.15
710.748	19.91
711.067	19.05
711.386	20.12
711.705	20.25
712.023	20.27
712.342	20.59
712.661	19.74
712.979	20.91
713.298	19.97
713.616	20.52
713.935	20.07
714.253	20.59
714.572	19.41
714.89	20.74
715.208	20.39
715.526	20.18
715.844	20.38
716.162	20.21
716.48	20.67
716.798	19.71
717.116	20.73
717.434	20.66
717.752	20.87
718.069	20.48
718.387	21.26
718.705	19.96
719.022	21.7
719.34	20.94
719.657	21.28
719.975	20.96
720.292	20.24
720.609	20.77
720.927	20.68
721.244	21
721.561	21.21
721.878	21.07
722.195	20.88
722.512	21.36
722.829	22.16
723.146	21.82
723.463	22.15
723.779	21.27
724.096	21.54
724.413	20.99
724.729	20.75
725.046	21.61
725.362	21.23
725.679	20.25
725.995	21.43
726.311	21.18
726.628	20.01
726.944	22.04
727.26	21.4
727.576	21.19
727.892	19.55
728.208	21.08
728.524	20.95
728.84	21.83
729.156	21.97
729.472	20.85
729.787	21.48
730.103	21.98
730.419	22.31
730.734	21.33
731.05	21.09
731.365	21.2
731.681	21.48
731.996	20.54
732.311	21.44
732.626	20.19
732.942	21.93
733.257	22.85
733.572	23.52
733.887	22.88
734.202	22.25
734.517	23.12
734.832	22.41
735.146	21.73
735.461	21.6
735.776	23.16
736.091	23.08
736.405	23.37
736.72	22.19
737.034	23.42
737.349	23.68
737.663	22.22
737.977	22.66
738.292	22.02
738.606	21.45
738.92	21.89
739.234	22.66
739.548	23.15
739.862	23.82
740.176	21.66
740.49	22.95
740.804	21.76
741.117	22.48
741.431	23
741.745	23.1
742.058	24.41
742.372	23.06
742.685	22.83
742.999	23.1
743.312	23.4
743.626	23.01
743.939	22.67
744.252	20.53
744.565	23.6
744.878	23.28
745.191	22.73
745.505	23.84
745.817	22.33
746.13	22.81
746.443	23.46
746.756	23.65
747.069	22.51
747.381	24.97
747.694	23.16
748.007	25.19
748.319	23.61
748.632	24.91
748.944	24.97
749.256	23.03
749.569	24.19
749.881	25.15
750.193	23
750.505	22.69
750.817	23.64
751.129	22.67
751.441	24.4
751.753	23.79
752.065	24.64
752.377	23.22
752.689	22.67
753	25.47
753.312	24.24
753.624	23.6
753.935	24.27
754.247	22.66
754.558	22.84
754.869	23.92
755.181	24.57
755.492	23
755.803	23.46
756.114	25.83
756.425	25.62
756.736	24.04
757.047	23.79
757.358	24.76
757.669	25.67
757.98	23.83
758.291	24.01
758.601	24.46
758.912	25.03
759.223	25.57
759.533	24.97
759.844	25.49
760.154	24.02
760.464	24.21
760.775	24.33
761.085	24.31
761.395	23.96
761.705	24.79
762.016	25.18
762.326	25.82
762.636	26.1
762.945	24.48
763.255	25.21
763.565	24.25
763.875	27.94
764.185	25.34
764.494	26.28
764.804	25.81
765.113	26
765.423	25.79
765.732	26.89
766.042	25.25
766.351	25.56
766.66	26.35
766.97	25.87
767.279	24.9
767.588	27.33
767.897	25.46
768.206	26.34
768.515	25.5
768.824	26.29
769.133	26.04
769.441	25.17
769.75	25.22
770.059	25.77
770.367	25.38
770.676	22.92
770.984	28.87
771.293	23.44
771.601	25.57
771.91	25.46
772.218	26.46
772.526	26.92
772.834	25.5
773.142	26.06
773.45	27.08
773.758	28.15
774.066	25.11
774.374	23.75
774.682	27.38
774.99	24.32
775.298	27.1
775.605	25.62
775.913	26.9
776.22	22.99
776.528	27.29
776.835	29.39
777.143	24.23
777.45	25.35
777.757	27.17
778.065	27.88
778.372	28.59
778.679	24.49
778.986	22.86
779.293	27.74
779.6	26.95
779.907	27.98
780.214	23.94
780.52	28.83
780.827	31.8
781.134	26.27
781.44	24.28
781.747	25.62
782.053	28.01
782.36	26.5
782.666	26.07
782.973	25.71
783.279	23.26
783.585	26.09
783.891	28.03
784.197	27.26
784.503	27.37
784.809	27.92
785.115	26.14
785.421	26.87
785.727	26.48
786.033	26.86
786.339	25.91
786.644	25.51
786.95	26.67
787.255	24.9
787.561	28.46
787.866	26.97
788.172	28.95
788.477	27.72
788.782	24.34
789.088	28.23
789.393	29.07
789.698	25.49
790.003	28.63
790.308	28.44
790.613	27.99
790.918	27.23
791.223	27
791.527	27.78
791.832	30.38
792.137	28.2
792.441	27.12
792.746	28.93
793.05	25.63
793.355	27.78
793.659	27.38
793.963	26.22
794.268	26.44
794.572	29.9
794.876	29.76
795.18	31.82
795.484	31.92
795.788	29.57
796.092	27.75
796.396	27.55
796.7	32.72
797.004	26.68
797.307	26.3
797.611	27.86
797.915	27.23
798.218	31.12
798.522	27.73
798.825	26.78
799.128	30.13
799.432	31.9
799.735	29.32
800.038	27.42
800.341	34.63
800.644	28.61
800.947	30.45
801.25	29.69
801.553	32
801.856	29.88
802.159	28.33
802.462	26.26
802.764	27.42
803.067	30.3
803.37	27.77
803.672	30.57
803.975	31.6
804.277	24.66
804.579	29.07
804.882	33.85
805.184	27.76
805.486	31.87
805.788	30.56
806.09	26.55
806.392	26.27
806.694	24.81
806.996	35.35
807.298	32.15
807.6	26.21
807.902	31.39
808.203	29.86
808.505	26.37
808.807	28.62
809.108	26.57
809.409	31.21
809.711	30.21
810.012	26.22
810.313	31.39
810.615	30.7
810.916	26.52
811.217	23.93
811.518	25.39
811.819	28.62
812.12	31.26
812.421	30.53
812.722	31.9
813.023	26.73
813.323	31.69
813.624	27.69
813.925	25.92
814.225	29.85
814.526	31.13
814.826	31.2
815.126	27.76
815.427	29.5
815.727	27.45
816.027	23.2
816.327	34.66
816.627	26.05
816.927	34.63
817.227	25.1
817.527	33.57
817.827	27.53
818.127	33.01
818.427	31.68
818.727	29.18
819.026	25.26
819.326	31.7
819.625	31.83
819.925	30.95
820.224	40.39
820.524	31.16
820.823	30.61
821.122	30.59
821.421	33.12
821.72	32.14
822.019	31.36
822.318	30.15
822.617	28.49
822.916	30.26
823.215	30.55
823.514	31.58
823.813	34.33
824.111	32.79
824.41	32.75
824.709	33.34
825.007	32.37
825.306	32.56
825.604	33.79
825.902	33.19
826.201	33.17
826.499	34.01
826.797	34.24
827.095	31.72
827.393	33.21
827.691	31.63
827.989	32.61
828.287	33.07
828.585	32.18
828.882	31.04
829.18	29.3
829.478	33.13
829.775	34.42
830.073	34.39
830.37	33.23
830.668	33.75
830.965	32.42
831.263	34.51
831.56	30.99
831.857	31.91
832.154	32.28
832.451	32.44
832.748	25.91
833.045	28.73
833.342	34.48
833.639	31.69
833.936	40.42
834.232	37.15
834.529	34.09
834.826	28.1
835.122	31.2
835.419	30.17
835.715	33.94
836.012	33.76
836.308	36.65
836.604	32.17
836.901	34.27
837.197	32.89
837.493	31.13
837.789	33.14
838.085	33.26
838.381	35.61
838.677	33.28
838.972	30.87
839.268	34.11
839.564	34.3
839.86	33.06
840.155	25.05
840.451	28.02
840.746	28.71
841.042	29.26
841.337	24.65
841.632	30.59
841.928	28.63
842.223	31.24
842.518	33.32
842.813	31.36
843.108	23.79
843.403	32.87
843.698	32.8
843.993	21.42
844.287	31.98
844.582	30.95
844.877	24.09
845.171	43.39
845.466	47.91
845.761	22.6
846.055	34.75
846.349	35.98
846.644	37.09
846.938	17.87
847.232	30.86
847.526	21.05
847.82	24.41
848.114	35.85
848.408	25.03
848.702	24.68
848.996	34.53
849.29	13.81
849.584	26.41
849.877	36.76
850.171	31.79
850.465	29.88
850.758	24.53
851.052	25.81
851.345	48.14
851.638	41.31
851.932	37
852.225	42.73
852.518	30.46
852.811	15.66
853.104	13.83
853.397	17.46
853.69	31.19
853.983	36.96
854.276	32.88
854.569	25.62
854.861	42.8
855.154	22.42
855.447	32.45
855.739	18.36
856.032	19.23
856.324	-5.57
856.616	21.35
856.909	9.8
857.201	31.12
857.493	30.25
857.785	26.12
858.077	25.92
858.369	16.89
858.661	18.21
858.953	44.32
859.245	35.07
859.537	21.99
859.829	35.5
860.12	28.12
860.412	1.98
860.703	18.8
860.995	29.8
861.286	4.41
861.578	20.37
861.869	15.33
862.16	19.06
862.452	13.16
862.743	27.81
863.034	39.72
863.325	45.7
863.616	19.28
863.907	24.57
864.198	25.08
864.488	6.78
864.779	28.45
865.07	30.46
865.36	28.36
865.651	28.24
865.941	39.37
866.232	10.2
866.522	-2.01
866.813	-8.99
867.103	35.41
867.393	14.93
867.683	19.28
867.973	32.5
868.263	25.94
868.553	15.6
868.843	35.58
869.133	21.5
869.423	54.12
869.713	23.24
870.002	31.29
870.292	43.33
870.582	39.24
870.871	20.34
871.161	23.14
871.45	26.27
871.739	41.81
872.029	15.29
872.318	37.83
872.607	26.45
872.896	-8.62
873.185	28.41
873.474	11.99
873.763	27.13
874.052	11.05
874.341	23.17
874.63	22.58
874.918	14.9
875.207	48.65
875.496	24.6
875.784	13.19
876.073	27.5
876.361	13.42
876.649	12.82
876.938	39.46
877.226	33.41
877.514	15.6
877.802	64.34
878.09	58.9
878.378	56.77
878.666	34.55
878.954	15.74
879.242	24.85
879.53	40.59
879.817	8.05
880.105	19.9
880.392	31.23
880.68	55.81
880.967	-12.38
881.255	32.29
881.542	45.58
881.83	14.32
882.117	7.11
882.404	20.28
882.691	19.19
882.978	43.81
883.265	29.14
883.552	13.6
883.839	32.94
884.126	26.89
884.413	24.37
884.699	23.86
884.986	40.6
885.273	36.13
885.559	36.13
885.846	36.13
