Data from 0393_crown_Reflection__4__161.txt Node

Date: Tue Dec 12 19:43:05 CST 2023
User: ToomeyLab
Spectrometer: FLMS14357
Trigger mode: 0
Integration Time (sec): 1.000000E-2
Scans to average: 100
Electric dark correction enabled: true
Nonlinearity correction enabled: false
Boxcar width: 0
XAxis mode: Wavelengths
Number of Pixels in Spectrum: 2048
>>>>>Begin Spectral Data<<<<<
189.047	-42.88
189.435	-42.88
189.823	-42.88
190.211	3.75
190.599	11.68
190.987	45.33
191.375	24.01
191.763	835.62
192.151	120.47
192.538	35.15
192.926	102.96
193.314	-8071.43
193.702	-644.81
194.089	100.67
194.477	-17.21
194.864	32.64
195.252	128.7
195.639	33.3
196.027	292.79
196.414	1358
196.801	86.08
197.189	-2459.35
197.576	8.96
197.963	130.32
198.351	16.88
198.738	36.34
199.125	-2.1
199.512	-92.22
199.899	11.12
200.286	32.68
200.673	-52.77
201.06	-49.21
201.447	-61.68
201.833	31.27
202.22	-1.16
202.607	-108.66
202.994	15.65
203.38	30.41
203.767	39.75
204.154	6.79
204.54	66.62
204.927	-4.93
205.313	30.87
205.699	-15.02
206.086	-40.53
206.472	27.22
206.858	20.23
207.245	24.57
207.631	24.57
208.017	-40.91
208.403	1.13
208.789	22.84
209.175	2.17
209.561	31.33
209.947	-41.13
210.333	9.5
210.719	-9.06
211.105	-60.75
211.491	28.07
211.876	13.36
212.262	31.18
212.648	-42.63
213.034	-43.86
213.419	-28.96
213.805	27.22
214.19	24.29
214.576	29.37
214.961	0.54
215.346	-4.72
215.732	14.58
216.117	12.92
216.502	-11.5
216.888	-6.62
217.273	-14.07
217.658	-7.42
218.043	1
218.428	5.64
218.813	9.75
219.198	-45.64
219.583	-2.09
219.968	0.01
220.353	-9.03
220.738	14.1
221.122	3.1
221.507	-17.85
221.892	-16.76
222.276	9.76
222.661	-2.66
223.046	-3.47
223.43	-0.26
223.815	1.42
224.199	9.09
224.583	1.8
224.968	5.71
225.352	0.04
225.736	7.46
226.121	5.44
226.505	-0.99
226.889	7.62
227.273	4.8
227.657	8.15
228.041	4.37
228.425	3.44
228.809	2.16
229.193	2.96
229.577	4.29
229.961	2.51
230.344	4.4
230.728	5.52
231.112	4.86
231.495	4.26
231.879	3.66
232.263	3.96
232.646	4.49
233.03	3.68
233.413	1.66
233.797	3.84
234.18	0.44
234.563	1.92
234.946	5.92
235.33	3.65
235.713	4.18
236.096	4.26
236.479	5.06
236.862	5.55
237.245	3.68
237.628	4.49
238.011	3.81
238.394	3.71
238.777	4.57
239.16	3.78
239.543	4.54
239.925	4.59
240.308	5.61
240.691	4.18
241.073	5.44
241.456	3.56
241.838	4.24
242.221	4.52
242.603	4.62
242.986	3.74
243.368	4.9
243.75	3.87
244.133	3.68
244.515	4.35
244.897	4.27
245.279	4.11
245.661	3.24
246.043	3.95
246.425	5.06
246.807	3.11
247.189	4.04
247.571	3.74
247.953	3.52
248.335	4.18
248.717	3.85
249.098	4
249.48	3.65
249.862	3.58
250.243	3.51
250.625	4.2
251.006	3.88
251.388	3.48
251.769	3.44
252.151	4.24
252.532	3.82
252.913	4.25
253.295	4.63
253.676	3.13
254.057	3.62
254.438	4.19
254.819	4.04
255.2	3.3
255.581	3.48
255.962	2.51
256.343	3.84
256.724	3.87
257.105	4.29
257.486	1.99
257.867	3.22
258.247	3.81
258.628	4.07
259.009	3.14
259.389	3.3
259.77	3.25
260.15	3.65
260.531	4.07
260.911	3.66
261.292	3.35
261.672	3.27
262.052	3.34
262.432	3.63
262.813	3.42
263.193	3.86
263.573	3.54
263.953	4.64
264.333	4.31
264.713	3.77
265.093	3.23
265.473	4.03
265.853	3.85
266.233	3.2
266.612	2.28
266.992	3.91
267.372	3.6
267.752	4.05
268.131	2.73
268.511	2.88
268.89	2.92
269.27	3.61
269.649	3.25
270.029	3.52
270.408	3.74
270.787	3.6
271.167	3.19
271.546	3.7
271.925	4.05
272.304	4.17
272.683	2.82
273.062	3.36
273.441	3.47
273.82	3.28
274.199	3.63
274.578	3
274.957	3.42
275.336	3.6
275.715	3.58
276.093	2.66
276.472	2.99
276.851	3.37
277.229	3.17
277.608	2.9
277.986	2.8
278.365	3.37
278.743	3.39
279.122	3.5
279.5	2.83
279.878	2.79
280.257	2.96
280.635	2.96
281.013	2.85
281.391	3.1
281.769	3.28
282.147	3.3
282.525	2.91
282.903	2.86
283.281	2.7
283.659	3.23
284.037	2.98
284.415	2.92
284.792	3.1
285.17	2.89
285.548	2.74
285.925	2.48
286.303	3.04
286.68	3
287.058	3.15
287.435	3.23
287.813	2.67
288.19	3.32
288.567	3.32
288.945	3.37
289.322	2.82
289.699	3.15
290.076	3.09
290.453	3.34
290.83	3.28
291.207	3.66
291.584	3.34
291.961	2.79
292.338	2.91
292.715	3.28
293.092	2.93
293.469	2.78
293.845	3.21
294.222	2.91
294.599	2.91
294.975	3.21
295.352	2.87
295.728	2.75
296.105	2.97
296.481	3.52
296.858	2.83
297.234	3.41
297.61	3.08
297.986	3.28
298.363	2.98
298.739	3.01
299.115	2.54
299.491	2.75
299.867	2.83
300.243	2.9
300.619	3.15
300.995	3.06
301.371	3.16
301.746	3.36
302.122	3.43
302.498	3.2
302.874	2.57
303.249	3.49
303.625	2.93
304	3.26
304.376	2.62
304.751	3.11
305.127	2.51
305.502	3.25
305.878	2.91
306.253	2.93
306.628	2.78
307.003	2.67
307.378	3.49
307.754	2.87
308.129	3.13
308.504	3.49
308.879	2.31
309.254	3.47
309.629	2.73
310.003	3.3
310.378	3.12
310.753	3.11
311.128	3.4
311.502	2.27
311.877	2.6
312.252	2.8
312.626	3.04
313.001	2.68
313.375	2.52
313.75	3.2
314.124	3.11
314.498	3.04
314.873	2.97
315.247	3.2
315.621	3.16
315.995	3.21
316.369	2.86
316.743	2.49
317.117	2.41
317.491	2.8
317.865	3.16
318.239	3.25
318.613	2.7
318.987	3.44
319.361	2.38
319.734	2.59
320.108	2.75
320.482	2.93
320.855	2.76
321.229	2.9
321.602	2.82
321.976	2.97
322.349	3.59
322.723	2.6
323.096	2.5
323.469	3.07
323.843	3.89
324.216	3.73
324.589	2.4
324.962	3.09
325.335	3.43
325.708	2.87
326.081	3.05
326.454	3.13
326.827	3
327.2	2.85
327.573	2.81
327.945	2.8
328.318	3.36
328.691	2.45
329.063	3
329.436	3.26
329.809	2.9
330.181	2.69
330.553	2.93
330.926	2.86
331.298	3.49
331.671	2.45
332.043	2.86
332.415	3.37
332.787	2.64
333.159	3.31
333.532	2.88
333.904	2.73
334.276	3.63
334.648	3.28
335.02	2.63
335.391	2.86
335.763	3.27
336.135	3.27
336.507	3.33
336.879	3.06
337.25	3.34
337.622	2.94
337.993	2.94
338.365	2.68
338.736	3.03
339.108	2.63
339.479	3.1
339.851	2.9
340.222	2.69
340.593	3.09
340.964	3.11
341.336	3.42
341.707	3.06
342.078	2.6
342.449	2.77
342.82	3.61
343.191	2.98
343.562	3.12
343.933	3.42
344.303	3.44
344.674	2.96
345.045	3.44
345.416	3.53
345.786	2.81
346.157	2.99
346.527	3.43
346.898	2.77
347.268	2.81
347.639	3.1
348.009	3
348.38	2.79
348.75	2.92
349.12	2.84
349.49	2.94
349.861	3.14
350.231	3.21
350.601	3.31
350.971	3.22
351.341	3.04
351.711	3.37
352.081	2.96
352.45	2.94
352.82	3.1
353.19	2.97
353.56	2.93
353.929	2.79
354.299	2.84
354.669	3.14
355.038	2.96
355.408	2.87
355.777	3.52
356.147	3.08
356.516	3.3
356.885	2.76
357.254	2.78
357.624	2.63
357.993	3
358.362	3.09
358.731	3.34
359.1	2.44
359.469	3.07
359.838	2.97
360.207	2.96
360.576	3.19
360.945	3.09
361.314	3.41
361.682	2.96
362.051	3.48
362.42	3.23
362.788	2.79
363.157	3.24
363.525	3.13
363.894	2.94
364.262	2.97
364.631	2.84
364.999	3.1
365.367	3.21
365.735	2.9
366.104	3.11
366.472	2.91
366.84	3.31
367.208	3.1
367.576	2.92
367.944	3.5
368.312	3.11
368.68	3.13
369.048	3.3
369.416	3.15
369.783	3.15
370.151	3.27
370.519	2.9
370.886	3.33
371.254	2.82
371.621	3.26
371.989	2.85
372.356	2.84
372.724	3.19
373.091	3.13
373.458	2.96
373.826	3.23
374.193	2.96
374.56	3.39
374.927	3.3
375.294	3.25
375.661	3.32
376.028	3.25
376.395	3.36
376.762	3.46
377.129	3.28
377.496	3.17
377.863	3.07
378.229	3.38
378.596	3.07
378.963	3.59
379.329	3.1
379.696	2.99
380.062	3.34
380.429	3.09
380.795	3.4
381.161	3.46
381.528	3.26
381.894	3.32
382.26	3.05
382.626	3.07
382.993	3.54
383.359	3.14
383.725	3.32
384.091	3.11
384.457	3.28
384.823	3.09
385.188	3.37
385.554	3.32
385.92	3.41
386.286	3.18
386.651	3.44
387.017	3.38
387.383	3.23
387.748	3.27
388.114	3.54
388.479	3.44
388.845	3.36
389.21	3.71
389.575	3.16
389.94	3.26
390.306	3.35
390.671	3.34
391.036	3.25
391.401	3.38
391.766	3.41
392.131	3.35
392.496	3.48
392.861	3.06
393.226	3.44
393.591	3.17
393.956	3.22
394.32	3.27
394.685	3.26
395.05	3.22
395.414	3.42
395.779	3.17
396.143	3.5
396.508	3.13
396.872	3.27
397.236	3.33
397.601	3.33
397.965	3.43
398.329	3.42
398.694	3.32
399.058	3.7
399.422	3.27
399.786	3.35
400.15	3.36
400.514	3.47
400.878	3.26
401.242	3.34
401.605	3.36
401.969	3.45
402.333	3.44
402.697	3.29
403.06	3.05
403.424	3.3
403.787	2.97
404.151	3.29
404.514	3.19
404.878	3.32
405.241	3.39
405.604	3.1
405.968	3.24
406.331	3.52
406.694	3.57
407.057	3.36
407.42	3.45
407.783	3.09
408.146	3.28
408.509	3.3
408.872	3.27
409.235	3.32
409.598	3.37
409.961	3.26
410.323	3.21
410.686	3.27
411.049	3.48
411.411	3.44
411.774	3.53
412.136	3.47
412.499	3.38
412.861	3.42
413.223	3.71
413.586	3.4
413.948	3.39
414.31	3.56
414.672	3.42
415.035	3.4
415.397	3.37
415.759	3.52
416.121	3.46
416.483	3.48
416.845	3.23
417.206	3.5
417.568	3.39
417.93	3.41
418.292	3.43
418.653	3.46
419.015	3.43
419.377	3.44
419.738	3.34
420.1	3.33
420.461	3.42
420.822	3.41
421.184	3.33
421.545	3.54
421.906	3.27
422.267	3.36
422.629	3.41
422.99	3.29
423.351	3.39
423.712	3.27
424.073	3.4
424.434	3.44
424.795	3.48
425.155	3.28
425.516	3.32
425.877	3.34
426.238	3.3
426.598	3.34
426.959	3.42
427.32	3.38
427.68	3.42
428.041	3.48
428.401	3.4
428.761	3.36
429.122	3.36
429.482	3.64
429.842	3.46
430.202	3.39
430.563	3.48
430.923	3.59
431.283	3.45
431.643	3.49
432.003	3.38
432.363	3.5
432.722	3.32
433.082	3.5
433.442	3.5
433.802	3.56
434.161	3.37
434.521	3.59
434.881	3.51
435.24	3.46
435.6	3.39
435.959	3.53
436.319	3.53
436.678	3.52
437.037	3.49
437.396	3.35
437.756	3.57
438.115	3.47
438.474	3.35
438.833	3.58
439.192	3.58
439.551	3.42
439.91	3.34
440.269	3.36
440.628	3.42
440.987	3.35
441.345	3.58
441.704	3.5
442.063	3.53
442.421	3.48
442.78	3.44
443.138	3.29
443.497	3.46
443.855	3.47
444.214	3.52
444.572	3.44
444.93	3.52
445.288	3.29
445.647	3.44
446.005	3.53
446.363	3.3
446.721	3.36
447.079	3.49
447.437	3.28
447.795	3.38
448.153	3.38
448.51	3.36
448.868	3.46
449.226	3.45
449.584	3.37
449.941	3.41
450.299	3.5
450.656	3.41
451.014	3.46
451.371	3.5
451.729	3.58
452.086	3.47
452.443	3.59
452.801	3.55
453.158	3.51
453.515	3.65
453.872	3.5
454.229	3.56
454.586	3.27
454.943	3.39
455.3	3.46
455.657	3.48
456.014	3.57
456.371	3.5
456.727	3.56
457.084	3.51
457.441	3.46
457.797	3.42
458.154	3.37
458.51	3.44
458.867	3.59
459.223	3.49
459.58	3.42
459.936	3.29
460.292	3.42
460.648	3.52
461.005	3.42
461.361	3.22
461.717	3.47
462.073	3.42
462.429	3.39
462.785	3.33
463.141	3.44
463.496	3.41
463.852	3.71
464.208	3.41
464.564	3.55
464.919	3.66
465.275	3.67
465.631	3.71
465.986	3.51
466.342	3.41
466.697	3.38
467.052	3.65
467.408	3.45
467.763	3.52
468.118	3.59
468.473	3.44
468.829	3.59
469.184	3.43
469.539	3.67
469.894	3.7
470.249	3.43
470.603	3.75
470.958	3.67
471.313	3.82
471.668	3.73
472.023	3.47
472.377	3.38
472.732	3.44
473.086	3.65
473.441	3.66
473.795	3.49
474.15	3.47
474.504	3.53
474.859	3.59
475.213	3.47
475.567	3.63
475.921	3.58
476.275	3.48
476.63	3.56
476.984	3.5
477.338	3.39
477.692	3.46
478.045	3.62
478.399	3.39
478.753	3.42
479.107	3.47
479.461	3.47
479.814	3.57
480.168	3.48
480.521	3.32
480.875	3.62
481.228	3.62
481.582	3.57
481.935	3.52
482.289	3.54
482.642	3.61
482.995	3.46
483.348	3.52
483.701	3.57
484.055	3.52
484.408	3.39
484.761	3.39
485.114	3.34
485.466	3.26
485.819	3.24
486.172	3.25
486.525	3.32
486.878	3.36
487.23	3.36
487.583	3.36
487.936	3.46
488.288	3.3
488.641	3.39
488.993	3.33
489.345	3.37
489.698	3.32
490.05	3.33
490.402	3.38
490.754	3.41
491.107	3.39
491.459	3.42
491.811	3.47
492.163	3.4
492.515	3.47
492.866	3.34
493.218	3.34
493.57	3.32
493.922	3.36
494.274	3.41
494.625	3.45
494.977	3.53
495.328	3.55
495.68	3.36
496.031	3.52
496.383	3.54
496.734	3.59
497.086	3.42
497.437	3.44
497.788	3.53
498.139	3.53
498.49	3.53
498.842	3.35
499.193	3.51
499.544	3.56
499.894	3.49
500.245	3.48
500.596	3.62
500.947	3.52
501.298	3.61
501.648	3.51
501.999	3.48
502.35	3.52
502.7	3.55
503.051	3.48
503.401	3.6
503.752	3.76
504.102	3.62
504.452	3.65
504.803	3.61
505.153	3.6
505.503	3.6
505.853	3.62
506.203	3.56
506.553	3.53
506.903	3.7
507.253	3.5
507.603	3.57
507.953	3.66
508.303	3.6
508.652	3.45
509.002	3.49
509.352	3.49
509.701	3.5
510.051	3.51
510.4	3.59
510.75	3.42
511.099	3.47
511.449	3.53
511.798	3.51
512.147	3.56
512.496	3.57
512.846	3.58
513.195	3.35
513.544	3.65
513.893	3.46
514.242	3.53
514.591	3.5
514.939	3.54
515.288	3.47
515.637	3.5
515.986	3.58
516.334	3.64
516.683	3.48
517.032	3.59
517.38	3.52
517.729	3.57
518.077	3.4
518.426	3.68
518.774	3.57
519.122	3.62
519.47	3.52
519.819	3.44
520.167	3.48
520.515	3.45
520.863	3.5
521.211	3.48
521.559	3.49
521.907	3.43
522.255	3.54
522.602	3.6
522.95	3.52
523.298	3.57
523.645	3.59
523.993	3.65
524.341	3.58
524.688	3.54
525.036	3.66
525.383	3.49
525.73	3.47
526.078	3.5
526.425	3.52
526.772	3.52
527.119	3.57
527.466	3.56
527.814	3.38
528.161	3.51
528.508	3.54
528.854	3.4
529.201	3.46
529.548	3.41
529.895	3.38
530.242	3.29
530.588	3.31
530.935	3.36
531.282	3.4
531.628	3.43
531.975	3.44
532.321	3.4
532.667	3.4
533.014	3.43
533.36	3.49
533.706	3.43
534.052	3.53
534.399	3.47
534.745	3.43
535.091	3.37
535.437	3.38
535.783	3.42
536.129	3.54
536.474	3.47
536.82	3.56
537.166	3.61
537.512	3.56
537.857	3.47
538.203	3.43
538.549	3.5
538.894	3.59
539.239	3.4
539.585	3.55
539.93	3.51
540.276	3.55
540.621	3.58
540.966	3.42
541.311	3.57
541.656	3.55
542.001	3.55
542.346	3.53
542.691	3.41
543.036	3.33
543.381	3.28
543.726	3.4
544.071	3.45
544.415	3.4
544.76	3.44
545.105	3.46
545.449	3.51
545.794	3.62
546.138	3.4
546.483	3.56
546.827	3.51
547.171	3.58
547.516	3.45
547.86	3.56
548.204	3.55
548.548	3.47
548.892	3.52
549.236	3.5
549.58	3.59
549.924	3.45
550.268	3.66
550.612	3.45
550.956	3.63
551.3	3.81
551.643	3.68
551.987	3.57
552.33	3.59
552.674	3.76
553.017	3.7
553.361	3.75
553.704	3.65
554.048	3.56
554.391	3.4
554.734	3.65
555.077	3.72
555.42	3.63
555.764	3.69
556.107	3.53
556.45	3.52
556.793	3.43
557.135	3.52
557.478	3.58
557.821	3.57
558.164	3.59
558.507	3.59
558.849	3.64
559.192	3.52
559.534	3.56
559.877	3.56
560.219	3.76
560.562	3.72
560.904	3.62
561.246	3.61
561.589	3.66
561.931	3.64
562.273	3.52
562.615	3.44
562.957	3.7
563.299	3.67
563.641	3.52
563.983	3.54
564.325	3.64
564.667	3.59
565.008	3.48
565.35	3.42
565.692	3.52
566.033	3.73
566.375	3.54
566.716	3.49
567.058	3.6
567.399	3.7
567.741	3.65
568.082	3.62
568.423	3.69
568.764	3.55
569.105	3.57
569.447	3.62
569.788	3.58
570.129	3.42
570.47	3.62
570.811	3.53
571.151	3.67
571.492	3.62
571.833	3.7
572.174	3.59
572.514	3.55
572.855	3.66
573.195	3.51
573.536	3.4
573.876	3.6
574.217	3.58
574.557	3.45
574.898	3.62
575.238	3.51
575.578	3.57
575.918	3.59
576.258	3.76
576.598	3.52
576.938	3.53
577.278	3.73
577.618	3.55
577.958	3.56
578.298	3.54
578.638	3.59
578.977	3.58
579.317	3.68
579.657	3.44
579.996	3.67
580.336	3.55
580.675	3.64
581.014	3.73
581.354	3.53
581.693	3.72
582.032	3.46
582.372	3.92
582.711	3.66
583.05	3.72
583.389	3.72
583.728	3.68
584.067	3.74
584.406	3.81
584.745	3.72
585.083	3.6
585.422	3.76
585.761	3.78
586.1	3.55
586.438	3.75
586.777	3.63
587.115	3.46
587.454	3.76
587.792	3.38
588.13	3.97
588.469	3.7
588.807	3.5
589.145	3.46
589.483	3.43
589.821	3.79
590.159	3.84
590.497	3.63
590.835	3.61
591.173	3.51
591.511	3.7
591.849	3.52
592.187	3.5
592.524	3.38
592.862	3.41
593.2	3.57
593.537	3.29
593.875	3.59
594.212	3.73
594.55	3.6
594.887	3.91
595.224	3.68
595.561	3.8
595.899	3.6
596.236	3.64
596.573	3.73
596.91	3.68
597.247	3.63
597.584	3.64
597.921	3.58
598.258	3.66
598.594	3.63
598.931	3.65
599.268	3.56
599.604	3.43
599.941	3.53
600.277	3.45
600.614	3.69
600.95	3.64
601.287	3.77
601.623	3.66
601.959	3.67
602.296	3.55
602.632	3.41
602.968	3.47
603.304	3.49
603.64	3.76
603.976	3.49
604.312	3.67
604.648	3.64
604.984	3.44
605.319	3.56
605.655	3.43
605.991	3.57
606.326	3.48
606.662	3.54
606.998	3.3
607.333	3.57
607.668	3.55
608.004	3.69
608.339	3.64
608.674	3.63
609.01	3.59
609.345	3.68
609.68	3.43
610.015	3.37
610.35	3.76
610.685	3.63
611.02	3.62
611.355	3.54
611.689	3.5
612.024	3.7
612.359	3.76
612.694	3.78
613.028	3.51
613.363	3.6
613.697	3.71
614.032	3.75
614.366	3.64
614.7	3.8
615.035	3.59
615.369	3.48
615.703	3.6
616.037	3.36
616.371	3.7
616.705	3.73
617.039	3.7
617.373	3.49
617.707	3.43
618.041	3.84
618.375	3.33
618.709	3.35
619.042	3.48
619.376	3.34
619.71	3.38
620.043	3.7
620.377	3.64
620.71	3.3
621.043	3.21
621.377	3.53
621.71	3.63
622.043	3.59
622.376	3.69
622.709	3.99
623.043	3.36
623.376	3.97
623.709	3.55
624.041	3.49
624.374	3.37
624.707	3.32
625.04	3.02
625.373	3.96
625.705	3.71
626.038	3.57
626.37	3.91
626.703	3.61
627.035	3.42
627.368	3.86
627.7	3.51
628.032	3.45
628.365	3.5
628.697	3.72
629.029	3.54
629.361	3.37
629.693	3.36
630.025	3.39
630.357	3.41
630.689	3.4
631.021	3.41
631.353	3.91
631.684	3.56
632.016	3.39
632.348	3.29
632.679	3.26
633.011	3.99
633.342	3.21
633.674	3.45
634.005	3.29
634.336	3.57
634.668	3.65
634.999	3.77
635.33	3.73
635.661	3.63
635.992	3.64
636.323	3.56
636.654	3.73
636.985	3.57
637.316	3.6
637.647	3.5
637.977	3.71
638.308	3.72
638.639	3.83
638.969	3.26
639.3	3.55
639.63	3.58
639.961	3.53
640.291	3.14
640.622	3.25
640.952	3.89
641.282	3.61
641.612	3.31
641.943	3.18
642.273	3.67
642.603	4.27
642.933	3.36
643.263	3.36
643.592	3.87
643.922	3.4
644.252	3.73
644.582	3.44
644.911	3.34
645.241	2.97
645.571	3.76
645.9	3.36
646.23	3.33
646.559	3.72
646.888	3.45
647.218	3.24
647.547	3.38
647.876	3.45
648.205	3.69
648.534	3.46
648.863	3.68
649.192	4.09
649.521	4.01
649.85	3.26
650.179	3.57
650.508	3.86
650.837	3.48
651.165	3.25
651.494	3.1
651.822	3.65
652.151	3.45
652.479	3.88
652.808	3.47
653.136	3.83
653.465	3.88
653.793	3.78
654.121	3.6
654.449	3.68
654.777	3.57
655.105	3.54
655.433	3.69
655.761	3.69
656.089	3.51
656.417	3.7
656.745	3.25
657.073	2.82
657.4	3.46
657.728	3.44
658.056	3.35
658.383	2.84
658.711	3.33
659.038	3.57
659.365	3.48
659.693	3.11
660.02	3.38
660.347	3.62
660.674	3.55
661.001	3.52
661.329	3.78
661.656	3.09
661.982	3.44
662.309	3.93
662.636	3.63
662.963	4.03
663.29	3.87
663.616	3.53
663.943	3.62
664.27	4.14
664.596	4.08
664.923	4.35
665.249	3.09
665.576	4.06
665.902	3.77
666.228	4.29
666.554	3.25
666.881	2.91
667.207	3.98
667.533	3.81
667.859	3.74
668.185	3.64
668.511	3.73
668.837	2.85
669.162	4.1
669.488	3.64
669.814	4.22
670.139	2.95
670.465	3.48
670.791	3.52
671.116	3.43
671.442	3.41
671.767	3.3
672.092	4.2
672.418	3.92
672.743	3.91
673.068	3.08
673.393	3.45
673.718	4.07
674.043	3.89
674.368	2.9
674.693	3.07
675.018	3.44
675.343	3.38
675.667	3.49
675.992	3.51
676.317	3.62
676.641	3.48
676.966	3.48
677.29	3.44
677.615	3.42
677.939	3.65
678.264	4.03
678.588	4.09
678.912	3.87
679.236	2.96
679.56	4.12
679.885	4.14
680.209	4.11
680.532	3.95
680.856	3.12
681.18	3.83
681.504	3.26
681.828	3.7
682.152	3.41
682.475	4.02
682.799	3.81
683.122	3.63
683.446	4.1
683.769	4.27
684.093	3.82
684.416	3.62
684.739	3.89
685.062	3.73
685.386	3.52
685.709	3.24
686.032	3.55
686.355	3.54
686.678	3.76
687.001	3.29
687.324	3.97
687.646	3.33
687.969	3.46
688.292	3.97
688.614	3.7
688.937	3.49
689.26	3.5
689.582	3.47
689.904	3.96
690.227	4.13
690.549	4.09
690.871	4.1
691.194	3.55
691.516	3.96
691.838	3.61
692.16	3.86
692.482	3.15
692.804	3.69
693.126	3.82
693.448	3.42
693.769	3.16
694.091	4.23
694.413	4.7
694.735	3.77
695.056	2.53
695.378	3.68
695.699	4.18
696.021	2.53
696.342	3.72
696.663	3.49
696.984	2.97
697.306	2.09
697.627	2.73
697.948	3.89
698.269	3.83
698.59	4.2
698.911	3.71
699.232	3.11
699.553	3.56
699.873	4.7
700.194	3.92
700.515	3.53
700.835	3.69
701.156	3.28
701.477	3.81
701.797	3.55
702.117	3.62
702.438	3.92
702.758	3.57
703.078	3.97
703.398	3.8
703.719	3.88
704.039	4
704.359	2.92
704.679	4.93
704.999	3.97
705.319	3.27
705.638	4
705.958	4.1
706.278	4.95
706.597	3.75
706.917	3.68
707.237	2.96
707.556	3.62
707.876	4.1
708.195	4.3
708.514	3.56
708.834	4.56
709.153	3.45
709.472	4.11
709.791	3.44
710.11	3.8
710.429	3.76
710.748	3.1
711.067	4.34
711.386	3.67
711.705	3.22
712.023	4.39
712.342	4.41
712.661	3.5
712.979	3.74
713.298	4.65
713.616	3.78
713.935	4.21
714.253	3.46
714.572	3.52
714.89	3.73
715.208	3.58
715.526	3.61
715.844	3.01
716.162	4.39
716.48	3.29
716.798	3.86
717.116	5.04
717.434	3.64
717.752	2.49
718.069	4.05
718.387	3.42
718.705	4.29
719.022	4.24
719.34	3.59
719.657	4.44
719.975	4.42
720.292	4.83
720.609	4.04
720.927	3.51
721.244	3.13
721.561	4.59
721.878	4.24
722.195	3.54
722.512	4.45
722.829	3.19
723.146	2.77
723.463	3.41
723.779	4.35
724.096	3.03
724.413	3.75
724.729	4.14
725.046	5.06
725.362	3.9
725.679	2.54
725.995	4.42
726.311	4.05
726.628	5.38
726.944	3.65
727.26	4.57
727.576	3.53
727.892	3.8
728.208	2.88
728.524	3.49
728.84	4.22
729.156	2.33
729.472	5.23
729.787	4.55
730.103	4.43
730.419	2.87
730.734	2.87
731.05	3.49
731.365	3.94
731.681	3.78
731.996	3.29
732.311	4.87
732.626	4.39
732.942	3.41
733.257	3.22
733.572	3.7
733.887	4.54
734.202	4.73
734.517	3.11
734.832	5.42
735.146	4.36
735.461	3.98
735.776	3.8
736.091	3.42
736.405	3.93
736.72	3.05
737.034	4.37
737.349	2.97
737.663	3.4
737.977	3.83
738.292	2.49
738.606	2.67
738.92	2.63
739.234	1.67
739.548	3.49
739.862	5.4
740.176	3.78
740.49	3.64
740.804	3.37
741.117	2.45
741.431	2.8
741.745	5.54
742.058	3.29
742.372	4
742.685	4.67
742.999	2.74
743.312	4.11
743.626	4.1
743.939	4.52
744.252	3.19
744.565	2.6
744.878	3.54
745.191	4.05
745.505	2.98
745.817	4.98
746.13	2.93
746.443	3.29
746.756	2.74
747.069	2.64
747.381	3.44
747.694	1.4
748.007	2.72
748.319	3.58
748.632	4.83
748.944	4.44
749.256	4.67
749.569	4.54
749.881	4.9
750.193	3.05
750.505	3.91
750.817	3.2
751.129	4.12
751.441	5.93
751.753	6.39
752.065	3.34
752.377	4.47
752.689	3.46
753	2.7
753.312	3.67
753.624	5.62
753.935	4.38
754.247	5.27
754.558	3.62
754.869	3.27
755.181	4.34
755.492	6.6
755.803	4.55
756.114	5.68
756.425	4.51
756.736	3.97
757.047	3.05
757.358	3.44
757.669	5.08
757.98	5.43
758.291	2.6
758.601	3.99
758.912	4.77
759.223	2.47
759.533	3.96
759.844	3.57
760.154	5.49
760.464	3.98
760.775	4.94
761.085	2.59
761.395	4.03
761.705	4.64
762.016	5.68
762.326	3.58
762.636	3.55
762.945	5.79
763.255	4.15
763.565	3.82
763.875	5.17
764.185	4.62
764.494	4.32
764.804	2.68
765.113	4.86
765.423	3.83
765.732	3.92
766.042	5.37
766.351	4.41
766.66	3.49
766.97	4.5
767.279	3.54
767.588	6.22
767.897	6.12
768.206	5.41
768.515	5.57
768.824	4.23
769.133	6.65
769.441	4.02
769.75	4.12
770.059	4.79
770.367	2.5
770.676	4.39
770.984	3.18
771.293	4.49
771.601	4.18
771.91	4.12
772.218	6.02
772.526	3.11
772.834	4.11
773.142	4.09
773.45	6.25
773.758	4.12
774.066	4.38
774.374	1.59
774.682	5.33
774.99	1.69
775.298	3.78
775.605	5.44
775.913	6.86
776.22	5.38
776.528	2.5
776.835	3.54
777.143	5.31
777.45	5.5
777.757	2.83
778.065	2.84
778.372	5.61
778.679	3.88
778.986	2.75
779.293	5.88
779.6	4.6
779.907	4.88
780.214	3.79
780.52	0.64
780.827	5.12
781.134	4.84
781.44	6.26
781.747	2.77
782.053	3.24
782.36	3.36
782.666	0.14
782.973	0.03
783.279	2.97
783.585	1.62
783.891	6.8
784.197	6.96
784.503	5.99
784.809	3.3
785.115	3.1
785.421	6.57
785.727	4.24
786.033	4.7
786.339	1.84
786.644	2.63
786.95	7.09
787.255	5.14
787.561	2.52
787.866	5.53
788.172	3.99
788.477	2.2
788.782	7.29
789.088	7.24
789.393	3.36
789.698	4.92
790.003	3.79
790.308	5.54
790.613	-0.32
790.918	3.26
791.223	7.45
791.527	5.49
791.832	5.64
792.137	0.41
792.441	8.51
792.746	4.51
793.05	5.5
793.355	5.08
793.659	5.46
793.963	5.06
794.268	4.45
794.572	5.91
794.876	6.81
795.18	3.46
795.484	1.73
795.788	9.4
796.092	1.37
796.396	5.59
796.7	-0.26
797.004	6.9
797.307	2.98
797.611	4.06
797.915	4.15
798.218	3.66
798.522	2.94
798.825	5.56
799.128	5.38
799.432	7.99
799.735	5.17
800.038	7.42
800.341	9.7
800.644	1.38
800.947	7.34
801.25	0.7
801.553	0.33
801.856	3.46
802.159	7.8
802.462	10.45
802.764	6
803.067	-1.5
803.37	-0.77
803.672	3.35
803.975	1.4
804.277	4.83
804.579	3.86
804.882	1.17
805.184	6.62
805.486	1.71
805.788	1.69
806.09	4.08
806.392	7.05
806.694	5.2
806.996	4.67
807.298	5.08
807.6	5.46
807.902	2.02
808.203	3.08
808.505	1.24
808.807	-1.76
809.108	-0.34
809.409	2.4
809.711	0.73
810.012	4.27
810.313	5.1
810.615	0.52
810.916	4.9
811.217	2.58
811.518	-2.67
811.819	8.76
812.12	3.15
812.421	3.86
812.722	5.06
813.023	5.24
813.323	2.82
813.624	6.86
813.925	8.91
814.225	0.06
814.526	9.27
814.826	10.37
815.126	-3.33
815.427	2.09
815.727	-0.47
816.027	1.82
816.327	5.44
816.627	16.97
816.927	13.85
817.227	3.2
817.527	8.61
817.827	8.43
818.127	5.33
818.427	1.19
818.727	0
819.026	4.24
819.326	5.02
819.625	-4.31
819.925	3.31
820.224	-1.73
820.524	3.6
820.823	10.94
821.122	12.05
821.421	7.11
821.72	0.87
822.019	-0.85
822.318	7.09
822.617	5.53
822.916	2.36
823.215	6.21
823.514	4.34
823.813	7.43
824.111	4.96
824.41	4.64
824.709	7.06
825.007	5.76
825.306	5.74
825.604	5.07
825.902	5.77
826.201	5
826.499	5.28
826.797	6.78
827.095	7.82
827.393	5.64
827.691	5.79
827.989	5.4
828.287	6.52
828.585	9.89
828.882	8.6
829.18	5.13
829.478	5.63
829.775	5.61
830.073	4.55
830.37	6.51
830.668	5.67
830.965	7.73
831.263	6.79
831.56	4.62
831.857	4.85
832.154	5.1
832.451	2.33
832.748	2.8
833.045	4.12
833.342	2.58
833.639	3.61
833.936	4.61
834.232	11.1
834.529	4.77
834.826	5.28
835.122	3.03
835.419	10.15
835.715	1.19
836.012	3.74
836.308	4.23
836.604	5.03
836.901	2.8
837.197	10
837.493	5.23
837.789	5.42
838.085	5.77
838.381	8.06
838.677	6.88
838.972	2.16
839.268	1.65
839.564	10.54
839.86	5.44
840.155	3.7
840.451	-3.08
840.746	4.29
841.042	3.01
841.337	9.8
841.632	6.26
841.928	12.89
842.223	4.18
842.518	14.44
842.813	9.89
843.108	0.03
843.403	0.89
843.698	15.25
843.993	11.04
844.287	-2.81
844.582	-2.94
844.877	5.59
845.171	13.56
845.466	-0.96
845.761	1.77
846.055	-0.83
846.349	11.5
846.644	14.04
846.938	2.1
847.232	3.95
847.526	4.37
847.82	6.23
848.114	15.61
848.408	11.66
848.702	15.98
848.996	14.26
849.29	14.71
849.584	-11.15
849.877	12.02
850.171	-1.06
850.465	7.99
850.758	0.47
851.052	0.65
851.345	-4.28
851.638	-2.64
851.932	-3.84
852.225	-31.73
852.518	-2.33
852.811	5.02
853.104	-10.54
853.397	-5.41
853.69	-4.56
853.983	1.57
854.276	11.24
854.569	24.67
854.861	16.56
855.154	12.66
855.447	7.86
855.739	14.79
856.032	28.1
856.324	9
856.616	9.15
856.909	25.15
857.201	25.31
857.493	-19.72
857.785	12.09
858.077	-10.58
858.369	-9.66
858.661	30.64
858.953	3.98
859.245	13.93
859.537	16.57
859.829	-1.79
860.12	-13.79
860.412	-26.58
860.703	19
860.995	19.72
861.286	4.18
861.578	-5.7
861.869	38.73
862.16	0.3
862.452	19.98
862.743	-3.57
863.034	23.78
863.325	33.19
863.616	22.08
863.907	9.74
864.198	23.35
864.488	22.1
864.779	28.2
865.07	11.73
865.36	28.48
865.651	-49.09
865.941	-2.75
866.232	3.51
866.522	-17.1
866.813	-14.05
867.103	30.66
867.393	-21.54
867.683	-13.64
867.973	-3.17
868.263	-13.43
868.553	-1.1
868.843	-14.75
869.133	-4.54
869.423	-15.58
869.713	8.38
870.002	-44.13
870.292	20.44
870.582	12.12
870.871	56.24
871.161	22.26
871.45	12.29
871.739	-4.38
872.029	-28.2
872.318	24.27
872.607	-1.14
872.896	-1.58
873.185	-33.21
873.474	16.3
873.763	22.4
874.052	41.34
874.341	23.88
874.63	23.82
874.918	-43.72
875.207	-8.35
875.496	22.95
875.784	27.03
876.073	0.55
876.361	24.05
876.649	11.83
876.938	13.69
877.226	5.57
877.514	-85.02
877.802	2.87
878.09	-1.16
878.378	4.81
878.666	15.17
878.954	16.65
879.242	-25.83
879.53	-0.5
879.817	-24.52
880.105	2.43
880.392	20.65
880.68	-1.2
880.967	24.56
881.255	20.65
881.542	-21.97
881.83	29.67
882.117	18.68
882.404	1.31
882.691	-8.85
882.978	1.13
883.265	-16
883.552	18.56
883.839	-7.91
884.126	12.24
884.413	-2.84
884.699	14.54
884.986	11.23
885.273	5.85
885.559	5.85
885.846	5.85
