Data from 0393_chest_Reflection__3__155.txt Node

Date: Tue Dec 12 19:39:07 CST 2023
User: ToomeyLab
Spectrometer: FLMS14357
Trigger mode: 0
Integration Time (sec): 1.000000E-2
Scans to average: 100
Electric dark correction enabled: true
Nonlinearity correction enabled: false
Boxcar width: 0
XAxis mode: Wavelengths
Number of Pixels in Spectrum: 2048
>>>>>Begin Spectral Data<<<<<
189.047	62.31
189.435	62.31
189.823	62.31
190.211	206.84
190.599	25.36
190.987	176.76
191.375	-94.74
191.763	120.32
192.151	1.49
192.538	502.73
192.926	121.33
193.314	19771.43
193.702	-961.24
194.089	-144.69
194.477	365.89
194.864	6.99
195.252	62.39
195.639	-382.75
196.027	102.3
196.414	868.23
196.801	24.62
197.189	-656.91
197.576	83.9
197.963	173.58
198.351	-14.6
198.738	-6.77
199.125	-13.82
199.512	1.67
199.899	30.18
200.286	-3.09
200.673	-64.72
201.06	-26.14
201.447	-147.32
201.833	-57.31
202.22	-65.25
202.607	-182.99
202.994	-22.35
203.38	-22.3
203.767	-30.71
204.154	-37.8
204.54	13.25
204.927	-16.87
205.313	14.3
205.699	-0.08
206.086	-52.7
206.472	19.47
206.858	-0.85
207.245	-13.52
207.631	-6.8
208.017	64.18
208.403	-48.41
208.789	-8.22
209.175	-13.78
209.561	-8.38
209.947	0.3
210.333	4.94
210.719	-15.74
211.105	-10.99
211.491	29.85
211.876	16.89
212.262	24
212.648	-0.19
213.034	-43.96
213.419	-7.74
213.805	10.83
214.19	8.23
214.576	3.87
214.961	-16.13
215.346	-34.91
215.732	11.56
216.117	5.59
216.502	7.76
216.888	7.32
217.273	-13.29
217.658	-38.13
218.043	-24.61
218.428	30.97
218.813	-5.39
219.198	-50.43
219.583	11.47
219.968	-4.22
220.353	-9.62
220.738	-10.43
221.122	3.68
221.507	-17.22
221.892	-0.65
222.276	-14.07
222.661	6.58
223.046	-21.6
223.43	1.8
223.815	6.96
224.199	-0.06
224.583	-2.24
224.968	-2.65
225.352	-8.43
225.736	10.71
226.121	4.05
226.505	-1.13
226.889	-4.12
227.273	-2.14
227.657	10.7
228.041	3.62
228.425	3.24
228.809	3.22
229.193	-0.58
229.577	3.7
229.961	1.57
230.344	2.67
230.728	3.06
231.112	2.92
231.495	2.98
231.879	4.47
232.263	1.08
232.646	2.26
233.03	3.39
233.413	2.07
233.797	1.59
234.18	-0.43
234.563	-0.14
234.946	0.73
235.33	3.06
235.713	2.46
236.096	2.49
236.479	3.29
236.862	2.75
237.245	4.15
237.628	3.1
238.011	2.98
238.394	1.42
238.777	2.38
239.16	2.83
239.543	4.01
239.925	2.27
240.308	2.63
240.691	1.73
241.073	3.62
241.456	3.4
241.838	1.98
242.221	4.04
242.603	3.19
242.986	3.06
243.368	3.62
243.75	2.57
244.133	2.84
244.515	3.55
244.897	3.22
245.279	3.47
245.661	2.62
246.043	1.8
246.425	3.75
246.807	1.79
247.189	2.76
247.571	2.92
247.953	2.27
248.335	3.03
248.717	2.81
249.098	2.88
249.48	2.84
249.862	2.78
250.243	2.73
250.625	3.28
251.006	3.21
251.388	2.46
251.769	3.38
252.151	1.61
252.532	3.47
252.913	3.72
253.295	3.17
253.676	2.56
254.057	2.6
254.438	2.95
254.819	2.44
255.2	1.81
255.581	3.09
255.962	1.71
256.343	2.84
256.724	3.16
257.105	2.84
257.486	2.55
257.867	2.3
258.247	2.58
258.628	3.26
259.009	1.44
259.389	2.89
259.77	1.85
260.15	2.17
260.531	2.85
260.911	3.05
261.292	2.45
261.672	2.78
262.052	2.66
262.432	2.98
262.813	2.67
263.193	2.7
263.573	3.05
263.953	3.92
264.333	3.17
264.713	2.53
265.093	3.09
265.473	3.7
265.853	2.17
266.233	2.05
266.612	2.35
266.992	2.88
267.372	3.3
267.752	3.08
268.131	1.79
268.511	1.95
268.89	1.91
269.27	2.23
269.649	2.5
270.029	2.56
270.408	2.23
270.787	2.25
271.167	2.99
271.546	2.81
271.925	2.85
272.304	2.64
272.683	1.86
273.062	2.35
273.441	2.65
273.82	1.84
274.199	2.64
274.578	2.47
274.957	2.37
275.336	2.66
275.715	2.39
276.093	2.23
276.472	2.67
276.851	2.69
277.229	2.18
277.608	2.38
277.986	1.9
278.365	2.34
278.743	2.38
279.122	2.87
279.5	2.04
279.878	2.49
280.257	2.48
280.635	2.31
281.013	2.16
281.391	2.27
281.769	1.93
282.147	2.33
282.525	2.46
282.903	2.15
283.281	2.42
283.659	2.58
284.037	2.91
284.415	2.68
284.792	2.89
285.17	1.95
285.548	2.25
285.925	2.23
286.303	2.06
286.68	2.6
287.058	2.84
287.435	2.36
287.813	2.1
288.19	2.5
288.567	2.43
288.945	2.73
289.322	2.02
289.699	2.53
290.076	2.65
290.453	2.32
290.83	2.52
291.207	2.63
291.584	2.19
291.961	2.24
292.338	2.52
292.715	2.57
293.092	2.24
293.469	2.87
293.845	2.49
294.222	2.82
294.599	2.8
294.975	2.17
295.352	2.59
295.728	2.49
296.105	2.7
296.481	2.74
296.858	2.46
297.234	2.69
297.61	2.44
297.986	2.93
298.363	2.6
298.739	2.53
299.115	2.28
299.491	2.48
299.867	2.25
300.243	2.5
300.619	2.39
300.995	2.74
301.371	2.35
301.746	2.83
302.122	3.27
302.498	2.7
302.874	3.08
303.249	3.13
303.625	2.26
304	2.84
304.376	2.66
304.751	3.06
305.127	2.63
305.502	2.96
305.878	2.69
306.253	2.66
306.628	2.33
307.003	2.27
307.378	2.5
307.754	2.62
308.129	2.41
308.504	3.49
308.879	2.13
309.254	2.68
309.629	2.51
310.003	2.89
310.378	2.5
310.753	2.8
311.128	2.92
311.502	2.55
311.877	2.41
312.252	2.38
312.626	2.59
313.001	2.76
313.375	2.37
313.75	2.76
314.124	3.02
314.498	2.87
314.873	2.49
315.247	3.08
315.621	2.12
315.995	2.58
316.369	2.76
316.743	2.56
317.117	2.61
317.491	2.55
317.865	2.47
318.239	2.49
318.613	3.27
318.987	3.18
319.361	2.65
319.734	2.63
320.108	3.05
320.482	2.36
320.855	2.81
321.229	3.02
321.602	2.65
321.976	2.85
322.349	2.83
322.723	1.99
323.096	2.64
323.469	2.32
323.843	3.75
324.216	2.97
324.589	2.68
324.962	3.24
325.335	3.28
325.708	2.53
326.081	2.44
326.454	2.75
326.827	2.85
327.2	2.49
327.573	2.51
327.945	2.98
328.318	3.04
328.691	2.21
329.063	2.92
329.436	3.21
329.809	2.53
330.181	2.56
330.553	2.84
330.926	3.2
331.298	2.69
331.671	2.59
332.043	2.89
332.415	3.08
332.787	3.16
333.159	2.92
333.532	2.5
333.904	2.94
334.276	3.36
334.648	2.91
335.02	2.01
335.391	2.8
335.763	2.77
336.135	2.87
336.507	2.94
336.879	2.24
337.25	2.8
337.622	2.76
337.993	2.56
338.365	2.43
338.736	2.61
339.108	2.44
339.479	2.78
339.851	2.22
340.222	2.48
340.593	2.83
340.964	2.69
341.336	3.07
341.707	2.3
342.078	2.52
342.449	2.69
342.82	2.87
343.191	2.94
343.562	2.92
343.933	3.2
344.303	3.02
344.674	2.9
345.045	2.91
345.416	2.92
345.786	2.41
346.157	2.68
346.527	3.13
346.898	2.55
347.268	2.95
347.639	2.69
348.009	2.73
348.38	2.92
348.75	3.01
349.12	2.71
349.49	3
349.861	2.77
350.231	2.99
350.601	2.92
350.971	2.87
351.341	2.84
351.711	3
352.081	3.15
352.45	2.66
352.82	2.95
353.19	2.62
353.56	2.66
353.929	2.55
354.299	2.74
354.669	2.46
355.038	2.3
355.408	2.93
355.777	3.37
356.147	3.04
356.516	2.75
356.885	2.85
357.254	2.69
357.624	2.88
357.993	2.79
358.362	3.03
358.731	2.98
359.1	2.69
359.469	2.96
359.838	2.72
360.207	2.87
360.576	3.01
360.945	2.74
361.314	2.79
361.682	2.84
362.051	3.14
362.42	3.17
362.788	2.62
363.157	3.25
363.525	2.8
363.894	2.69
364.262	2.81
364.631	2.89
364.999	2.99
365.367	3.08
365.735	2.73
366.104	3.09
366.472	2.77
366.84	3.04
367.208	2.48
367.576	2.75
367.944	3.24
368.312	3
368.68	2.88
369.048	2.78
369.416	3.03
369.783	2.88
370.151	3
370.519	2.89
370.886	3.02
371.254	2.9
371.621	3.11
371.989	3.15
372.356	2.83
372.724	2.96
373.091	2.85
373.458	2.95
373.826	3.41
374.193	2.84
374.56	3.11
374.927	3.31
375.294	2.97
375.661	3.2
376.028	3.15
376.395	3.5
376.762	3.22
377.129	2.84
377.496	3.14
377.863	3.1
378.229	2.99
378.596	2.93
378.963	3.39
379.329	2.56
379.696	3.06
380.062	3.57
380.429	2.96
380.795	3.19
381.161	2.96
381.528	3.08
381.894	3.15
382.26	2.74
382.626	2.91
382.993	2.89
383.359	2.79
383.725	2.85
384.091	2.95
384.457	2.93
384.823	3.21
385.188	3.16
385.554	3.01
385.92	2.88
386.286	3.38
386.651	3.11
387.017	3.47
387.383	3.11
387.748	2.99
388.114	3.17
388.479	3.28
388.845	3.07
389.21	3.06
389.575	2.91
389.94	3.1
390.306	2.93
390.671	3.04
391.036	2.96
391.401	2.93
391.766	3.39
392.131	3.04
392.496	3.17
392.861	2.78
393.226	3.22
393.591	3.02
393.956	3.16
394.32	3.12
394.685	3.25
395.05	3.02
395.414	3.05
395.779	2.87
396.143	3.2
396.508	2.97
396.872	3.19
397.236	3.15
397.601	3.21
397.965	3.18
398.329	3.36
398.694	3.19
399.058	3.36
399.422	3.16
399.786	2.99
400.15	2.9
400.514	3.06
400.878	3.18
401.242	3.05
401.605	3.24
401.969	3.08
402.333	3.17
402.697	2.94
403.06	3.15
403.424	3.31
403.787	2.94
404.151	3.54
404.514	3.22
404.878	3.1
405.241	3.23
405.604	2.97
405.968	3.26
406.331	3.2
406.694	3.43
407.057	3.08
407.42	3.2
407.783	3.02
408.146	3.29
408.509	3.04
408.872	3.38
409.235	3.13
409.598	3.33
409.961	3.08
410.323	3.13
410.686	3.18
411.049	3.4
411.411	3.19
411.774	3.31
412.136	3.44
412.499	3.17
412.861	3.09
413.223	3.48
413.586	3.05
413.948	3.07
414.31	3.32
414.672	3.18
415.035	3.15
415.397	3.06
415.759	3.06
416.121	3.05
416.483	3.23
416.845	3.17
417.206	3.25
417.568	3.15
417.93	3.25
418.292	3.14
418.653	3.35
419.015	3.07
419.377	3.06
419.738	3.19
420.1	3.17
420.461	3.24
420.822	3.18
421.184	3.15
421.545	3.35
421.906	3.14
422.267	3.2
422.629	3.14
422.99	3.17
423.351	3.17
423.712	3.11
424.073	3.19
424.434	3.2
424.795	3.17
425.155	3.14
425.516	3.12
425.877	3.24
426.238	3.2
426.598	3.12
426.959	3.15
427.32	3.17
427.68	3.28
428.041	3.2
428.401	3.21
428.761	3.17
429.122	3.31
429.482	3.45
429.842	3.19
430.202	3.46
430.563	3.24
430.923	3.35
431.283	3.19
431.643	3.29
432.003	3.24
432.363	3.41
432.722	3.2
433.082	3.34
433.442	3.31
433.802	3.23
434.161	3.32
434.521	3.26
434.881	3.24
435.24	3.29
435.6	3.26
435.959	3.32
436.319	3.32
436.678	3.39
437.037	3.28
437.396	3.24
437.756	3.22
438.115	3.37
438.474	3.29
438.833	3.45
439.192	3.39
439.551	3.35
439.91	3.21
440.269	3.29
440.628	3.31
440.987	3.21
441.345	3.27
441.704	3.52
442.063	3.37
442.421	3.33
442.78	3.38
443.138	3.28
443.497	3.31
443.855	3.22
444.214	3.36
444.572	3.39
444.93	3.25
445.288	3.2
445.647	3.43
446.005	3.25
446.363	3.23
446.721	3.28
447.079	3.35
447.437	3.19
447.795	3.37
448.153	3.29
448.51	3.32
448.868	3.25
449.226	3.38
449.584	3.32
449.941	3.39
450.299	3.34
450.656	3.24
451.014	3.2
451.371	3.33
451.729	3.41
452.086	3.28
452.443	3.4
452.801	3.44
453.158	3.3
453.515	3.46
453.872	3.4
454.229	3.51
454.586	3.17
454.943	3.35
455.3	3.31
455.657	3.48
456.014	3.49
456.371	3.46
456.727	3.58
457.084	3.34
457.441	3.41
457.797	3.48
458.154	3.33
458.51	3.34
458.867	3.51
459.223	3.51
459.58	3.4
459.936	3.21
460.292	3.38
460.648	3.4
461.005	3.41
461.361	3.34
461.717	3.35
462.073	3.27
462.429	3.26
462.785	3.36
463.141	3.3
463.496	3.33
463.852	3.5
464.208	3.53
464.564	3.45
464.919	3.46
465.275	3.48
465.631	3.52
465.986	3.46
466.342	3.18
466.697	3.41
467.052	3.57
467.408	3.51
467.763	3.53
468.118	3.56
468.473	3.38
468.829	3.46
469.184	3.29
469.539	3.46
469.894	3.47
470.249	3.36
470.603	3.46
470.958	3.43
471.313	3.63
471.668	3.54
472.023	3.45
472.377	3.43
472.732	3.45
473.086	3.51
473.441	3.72
473.795	3.43
474.15	3.54
474.504	3.45
474.859	3.53
475.213	3.33
475.567	3.42
475.921	3.48
476.275	3.41
476.63	3.42
476.984	3.61
477.338	3.56
477.692	3.35
478.045	3.44
478.399	3.45
478.753	3.45
479.107	3.5
479.461	3.51
479.814	3.45
480.168	3.28
480.521	3.44
480.875	3.55
481.228	3.52
481.582	3.45
481.935	3.56
482.289	3.56
482.642	3.59
482.995	3.49
483.348	3.42
483.701	3.59
484.055	3.5
484.408	3.54
484.761	3.45
485.114	3.36
485.466	3.32
485.819	3.26
486.172	3.3
486.525	3.33
486.878	3.39
487.23	3.42
487.583	3.41
487.936	3.44
488.288	3.34
488.641	3.38
488.993	3.38
489.345	3.39
489.698	3.32
490.05	3.39
490.402	3.35
490.754	3.42
491.107	3.44
491.459	3.48
491.811	3.6
492.163	3.49
492.515	3.5
492.866	3.42
493.218	3.38
493.57	3.37
493.922	3.43
494.274	3.43
494.625	3.53
494.977	3.61
495.328	3.51
495.68	3.54
496.031	3.64
496.383	3.49
496.734	3.58
497.086	3.53
497.437	3.54
497.788	3.62
498.139	3.57
498.49	3.69
498.842	3.56
499.193	3.64
499.544	3.64
499.894	3.64
500.245	3.64
500.596	3.62
500.947	3.53
501.298	3.67
501.648	3.76
501.999	3.59
502.35	3.62
502.7	3.7
503.051	3.58
503.401	3.71
503.752	3.73
504.102	3.67
504.452	3.66
504.803	3.69
505.153	3.6
505.503	3.72
505.853	3.79
506.203	3.78
506.553	3.65
506.903	3.76
507.253	3.74
507.603	3.64
507.953	3.72
508.303	3.72
508.652	3.66
509.002	3.8
509.352	3.73
509.701	3.83
510.051	3.74
510.4	3.68
510.75	3.69
511.099	3.63
511.449	3.75
511.798	3.69
512.147	3.74
512.496	3.79
512.846	3.75
513.195	3.62
513.544	3.78
513.893	3.62
514.242	3.76
514.591	3.71
514.939	3.79
515.288	3.64
515.637	3.67
515.986	3.7
516.334	3.92
516.683	3.65
517.032	3.75
517.38	3.81
517.729	3.77
518.077	3.71
518.426	3.94
518.774	3.83
519.122	3.79
519.47	3.75
519.819	3.72
520.167	3.76
520.515	3.67
520.863	3.76
521.211	3.76
521.559	3.77
521.907	3.73
522.255	3.85
522.602	3.78
522.95	3.8
523.298	3.84
523.645	3.81
523.993	3.97
524.341	3.82
524.688	3.74
525.036	3.92
525.383	3.87
525.73	3.88
526.078	3.96
526.425	3.75
526.772	3.79
527.119	3.91
527.466	3.94
527.814	3.77
528.161	3.89
528.508	3.84
528.854	3.88
529.201	3.88
529.548	3.81
529.895	3.82
530.242	3.75
530.588	3.74
530.935	3.77
531.282	3.82
531.628	3.85
531.975	3.84
532.321	3.86
532.667	3.81
533.014	3.95
533.36	3.92
533.706	3.92
534.052	3.94
534.399	4
534.745	3.98
535.091	3.82
535.437	3.91
535.783	3.89
536.129	3.92
536.474	3.99
536.82	4.04
537.166	4.09
537.512	3.98
537.857	4.01
538.203	4
538.549	4.06
538.894	4.06
539.239	4.01
539.585	4.1
539.93	4.19
540.276	4.06
540.621	4.08
540.966	4.11
541.311	4.18
541.656	4.18
542.001	4.16
542.346	4.11
542.691	4.03
543.036	3.97
543.381	3.92
543.726	4.03
544.071	4.08
544.415	4.08
544.76	4.13
545.105	4.12
545.449	4.13
545.794	4.27
546.138	4.06
546.483	4.16
546.827	4.26
547.171	4.13
547.516	4.25
547.86	4.16
548.204	4.28
548.548	4.21
548.892	4.26
549.236	4.25
549.58	4.45
549.924	4.28
550.268	4.43
550.612	4.21
550.956	4.48
551.3	4.57
551.643	4.49
551.987	4.58
552.33	4.53
552.674	4.65
553.017	4.74
553.361	4.67
553.704	4.41
554.048	4.56
554.391	4.51
554.734	4.54
555.077	4.72
555.42	4.41
555.764	4.53
556.107	4.67
556.45	4.44
556.793	4.42
557.135	4.46
557.478	4.63
557.821	4.43
558.164	4.71
558.507	4.76
558.849	4.58
559.192	4.57
559.534	4.72
559.877	4.74
560.219	4.75
560.562	4.78
560.904	4.67
561.246	4.75
561.589	4.79
561.931	4.77
562.273	4.69
562.615	4.51
562.957	4.77
563.299	5.02
563.641	4.77
563.983	4.75
564.325	4.9
564.667	4.92
565.008	4.81
565.35	4.84
565.692	4.98
566.033	4.81
566.375	4.77
566.716	4.95
567.058	5.05
567.399	4.92
567.741	5.03
568.082	4.89
568.423	5.08
568.764	5.1
569.105	4.89
569.447	5.12
569.788	5.01
570.129	5.02
570.47	5.04
570.811	5.12
571.151	5.13
571.492	5.12
571.833	5.12
572.174	5.2
572.514	5.25
572.855	5.13
573.195	5.16
573.536	5.18
573.876	5.19
574.217	5.24
574.557	5.01
574.898	5.21
575.238	5.26
575.578	5.11
575.918	5.18
576.258	5.43
576.598	5.27
576.938	5.17
577.278	5.4
577.618	5.31
577.958	5.27
578.298	5.6
578.638	5.26
578.977	5.52
579.317	5.49
579.657	5.58
579.996	5.39
580.336	5.38
580.675	5.43
581.014	5.54
581.354	5.53
581.693	5.51
582.032	5.35
582.372	5.69
582.711	5.7
583.05	5.82
583.389	5.68
583.728	5.61
584.067	5.65
584.406	5.93
584.745	5.8
585.083	5.62
585.422	5.83
585.761	6.13
586.1	5.67
586.438	6.05
586.777	5.61
587.115	5.68
587.454	6.04
587.792	5.89
588.13	5.83
588.469	5.88
588.807	5.63
589.145	6.01
589.483	6.06
589.821	6.1
590.159	5.91
590.497	6.11
590.835	5.97
591.173	6.03
591.511	6.14
591.849	5.94
592.187	6.16
592.524	6.03
592.862	5.95
593.2	5.9
593.537	5.92
593.875	6.3
594.212	6.15
594.55	6.31
594.887	6.41
595.224	6.25
595.561	6.37
595.899	6.04
596.236	6.39
596.573	6.26
596.91	6.49
597.247	6.37
597.584	6.34
597.921	6.42
598.258	6.42
598.594	6.59
598.931	6.47
599.268	6.2
599.604	6.44
599.941	6.33
600.277	6.34
600.614	6.64
600.95	6.67
601.287	6.61
601.623	6.64
601.959	6.65
602.296	6.77
602.632	6.24
602.968	6.83
603.304	6.77
603.64	6.87
603.976	6.74
604.312	6.66
604.648	6.63
604.984	6.72
605.319	6.73
605.655	6.87
605.991	6.99
606.326	6.58
606.662	6.88
606.998	6.82
607.333	6.98
607.668	6.85
608.004	7.13
608.339	6.99
608.674	7.06
609.01	7.01
609.345	7.29
609.68	7.15
610.015	6.77
610.35	6.98
610.685	7.25
611.02	7.26
611.355	7.07
611.689	7.16
612.024	7.18
612.359	7.34
612.694	7.11
613.028	7.38
613.363	7.14
613.697	7.37
614.032	7.13
614.366	7.2
614.7	7.18
615.035	7.52
615.369	7.16
615.703	7.51
616.037	7.36
616.371	7.23
616.705	7.4
617.039	7.89
617.373	7.41
617.707	7.58
618.041	7.53
618.375	7.37
618.709	7.91
619.042	7.58
619.376	7.49
619.71	7.68
620.043	7.58
620.377	7.57
620.71	7.61
621.043	7.5
621.377	7.73
621.71	7.82
622.043	8.03
622.376	7.93
622.709	8.02
623.043	7.62
623.376	7.94
623.709	7.86
624.041	8.23
624.374	7.86
624.707	8.16
625.04	8.01
625.373	8.32
625.705	7.86
626.038	8.26
626.37	8.2
626.703	8.24
627.035	8
627.368	8.21
627.7	8.22
628.032	7.8
628.365	8.31
628.697	8.17
629.029	8.36
629.361	8.26
629.693	8.37
630.025	8.23
630.357	8.2
630.689	8.23
631.021	8.63
631.353	8.85
631.684	8.32
632.016	8.4
632.348	8.62
632.679	8.53
633.011	8.89
633.342	8.83
633.674	8.72
634.005	8.68
634.336	8.8
634.668	8.67
634.999	8.83
635.33	8.71
635.661	8.94
635.992	8.85
636.323	8.53
636.654	8.89
636.985	8.96
637.316	8.7
637.647	8.77
637.977	9.03
638.308	9.3
638.639	8.98
638.969	9.22
639.3	9.13
639.63	9.48
639.961	9.07
640.291	8.68
640.622	9.04
640.952	9.41
641.282	9.08
641.612	9.39
641.943	9.12
642.273	9.48
642.603	9.83
642.933	9.36
643.263	9.1
643.592	9.36
643.922	9.83
644.252	9.84
644.582	9.29
644.911	9.85
645.241	9.05
645.571	9.96
645.9	9.59
646.23	9.3
646.559	9.55
646.888	9.54
647.218	10.38
647.547	9.53
647.876	9.63
648.205	9.46
648.534	9.84
648.863	10.03
649.192	10.26
649.521	10.24
649.85	9.84
650.179	10.15
650.508	9.84
650.837	9.92
651.165	9.65
651.494	9.93
651.822	10.39
652.151	10.38
652.479	10.23
652.808	10.06
653.136	9.98
653.465	10.29
653.793	10.16
654.121	10.35
654.449	10.31
654.777	10.3
655.105	10.18
655.433	10.69
655.761	10.65
656.089	10.41
656.417	10.7
656.745	10.45
657.073	9.76
657.4	10.78
657.728	10.35
658.056	10.12
658.383	10.01
658.711	10.46
659.038	10.52
659.365	10.42
659.693	10.44
660.02	10.62
660.347	10.63
660.674	10.78
661.001	10.91
661.329	10.6
661.656	10.75
661.982	10.53
662.309	11.11
662.636	10.85
662.963	10.9
663.29	10.95
663.616	10.66
663.943	10.84
664.27	11.12
664.596	11.47
664.923	11.78
665.249	10.57
665.576	11.17
665.902	10.85
666.228	11.38
666.554	11.03
666.881	10.75
667.207	11.36
667.533	11.31
667.859	11.32
668.185	11.31
668.511	11.61
668.837	11.13
669.162	12.3
669.488	11.26
669.814	11.53
670.139	11.29
670.465	10.57
670.791	11.23
671.116	11.33
671.442	11.99
671.767	11.73
672.092	12.44
672.418	11.65
672.743	11.7
673.068	11.5
673.393	11.61
673.718	12.34
674.043	12.01
674.368	11.26
674.693	11.82
675.018	11.37
675.343	11.27
675.667	11.98
675.992	11.69
676.317	11.7
676.641	11.65
676.966	11.79
677.29	11.86
677.615	12.64
677.939	12
678.264	12.18
678.588	12.05
678.912	12
679.236	12.33
679.56	12.35
679.885	12.48
680.209	12.81
680.532	12.34
680.856	12.67
681.18	11.96
681.504	12.26
681.828	11.96
682.152	11.93
682.475	12.25
682.799	12.38
683.122	12.42
683.446	12.17
683.769	13.26
684.093	12.17
684.416	12.75
684.739	12.69
685.062	12.94
685.386	12.77
685.709	13.02
686.032	12.63
686.355	12.68
686.678	13.08
687.001	13.04
687.324	12.96
687.646	12.91
687.969	12.32
688.292	12.87
688.614	12.75
688.937	12.68
689.26	13.08
689.582	12.66
689.904	12.68
690.227	13.13
690.549	12.22
690.871	13.25
691.194	13.29
691.516	12.98
691.838	13.1
692.16	12.75
692.482	13.28
692.804	13.61
693.126	14.08
693.448	13.13
693.769	13.35
694.091	13.41
694.413	14.3
694.735	13.85
695.056	13.35
695.378	14.45
695.699	14.23
696.021	12.67
696.342	12.64
696.663	13.67
696.984	12.48
697.306	13.88
697.627	13.82
697.948	14.4
698.269	13.33
698.59	14.97
698.911	13.8
699.232	13.74
699.553	13.57
699.873	14.78
700.194	13.2
700.515	14.09
700.835	13.62
701.156	13.97
701.477	14.39
701.797	13.85
702.117	13.9
702.438	14.12
702.758	14.67
703.078	14.94
703.398	15.04
703.719	14.31
704.039	14.3
704.359	14.47
704.679	14.16
704.999	14.61
705.319	14.25
705.638	14.64
705.958	14.62
706.278	16.1
706.597	15.79
706.917	15.16
707.237	14.26
707.556	15.83
707.876	14.92
708.195	15.4
708.514	15.79
708.834	15.39
709.153	15.01
709.472	15.15
709.791	15.25
710.11	14.76
710.429	14.17
710.748	14.73
711.067	15.98
711.386	14.51
711.705	14.67
712.023	15.4
712.342	16.21
712.661	15.18
712.979	16.04
713.298	15.96
713.616	15.45
713.935	16.23
714.253	15.14
714.572	15.04
714.89	14.55
715.208	15.46
715.526	14.96
715.844	14.82
716.162	15.56
716.48	15.86
716.798	14.58
717.116	15.83
717.434	15.61
717.752	15.18
718.069	16.51
718.387	16.33
718.705	15.96
719.022	16.5
719.34	15.34
719.657	16.3
719.975	15.83
720.292	15.93
720.609	16.3
720.927	15.08
721.244	14.61
721.561	16.65
721.878	15.45
722.195	15.67
722.512	15.52
722.829	16.57
723.146	15.21
723.463	15.65
723.779	14.52
724.096	16.49
724.413	17.08
724.729	16.24
725.046	16.73
725.362	15.94
725.679	14.89
725.995	16.87
726.311	16.18
726.628	15.84
726.944	16.49
727.26	17.21
727.576	16.75
727.892	16.64
728.208	16.14
728.524	15.31
728.84	16.82
729.156	17.06
729.472	17.17
729.787	15.47
730.103	17.25
730.419	16.46
730.734	15.4
731.05	18.05
731.365	17.29
731.681	17.13
731.996	16.62
732.311	17.2
732.626	17.09
732.942	16.95
733.257	16.37
733.572	17.12
733.887	17.12
734.202	17.09
734.517	16.5
734.832	17.63
735.146	18.03
735.461	18.41
735.776	17.67
736.091	16.59
736.405	17.7
736.72	16.95
737.034	19.22
737.349	17.53
737.663	18.1
737.977	16.78
738.292	16.57
738.606	16.08
738.92	17.82
739.234	17.56
739.548	17.58
739.862	18.35
740.176	16.49
740.49	16.57
740.804	17.93
741.117	19.28
741.431	18.48
741.745	18.51
742.058	18.71
742.372	17.63
742.685	18.1
742.999	19.27
743.312	18.93
743.626	17.52
743.939	20.36
744.252	18.62
744.565	17.77
744.878	18.76
745.191	18.33
745.505	17.56
745.817	20.22
746.13	17.69
746.443	17.65
746.756	19.18
747.069	19.48
747.381	17.42
747.694	16.67
748.007	16.99
748.319	19.03
748.632	18.03
748.944	17.85
749.256	19.03
749.569	20.18
749.881	18.45
750.193	18.16
750.505	18.18
750.817	17.94
751.129	18
751.441	19.12
751.753	19.37
752.065	18.32
752.377	18.85
752.689	19.09
753	16.69
753.312	19.94
753.624	19.45
753.935	19.18
754.247	19.99
754.558	18.43
754.869	17.82
755.181	20.77
755.492	19.72
755.803	19.42
756.114	18.17
756.425	21.15
756.736	19.93
757.047	17.95
757.358	19.59
757.669	18.21
757.98	19.96
758.291	18.7
758.601	18.98
758.912	19.31
759.223	18.56
759.533	18.52
759.844	19.65
760.154	20.65
760.464	17.36
760.775	18.55
761.085	17.41
761.395	19.74
761.705	19.84
762.016	19.62
762.326	20.23
762.636	20.04
762.945	20.83
763.255	20.77
763.565	18.92
763.875	20.02
764.185	20.38
764.494	21.75
764.804	19.82
765.113	22.08
765.423	20.33
765.732	19.49
766.042	21.05
766.351	21.51
766.66	20.5
766.97	20.6
767.279	19.72
767.588	20.49
767.897	21.7
768.206	21.71
768.515	22.17
768.824	21.46
769.133	21.45
769.441	20.35
769.75	20.19
770.059	19.23
770.367	21.73
770.676	21.42
770.984	22.38
771.293	20.5
771.601	18.94
771.91	23.52
772.218	21.28
772.526	20.07
772.834	20.44
773.142	20.02
773.45	22.35
773.758	19.67
774.066	19.5
774.374	20.66
774.682	21.95
774.99	19.82
775.298	21.28
775.605	20.19
775.913	22.35
776.22	22.75
776.528	18.27
776.835	20.26
777.143	22.4
777.45	19.88
777.757	20.7
778.065	19.19
778.372	19.26
778.679	23.45
778.986	21.89
779.293	20.66
779.6	19.4
779.907	21.81
780.214	23.27
780.52	19.43
780.827	22.57
781.134	24.68
781.44	23.36
781.747	19.9
782.053	23.9
782.36	18.99
782.666	19.68
782.973	19.3
783.279	18.77
783.585	21.32
783.891	24.84
784.197	23.99
784.503	23.37
784.809	23.24
785.115	24.51
785.421	20.64
785.727	21.78
786.033	23.18
786.339	21.68
786.644	17.7
786.95	24.23
787.255	24.96
787.561	21.17
787.866	25.32
788.172	18.81
788.477	20.99
788.782	21.19
789.088	26.51
789.393	20.75
789.698	23.92
790.003	24.58
790.308	20.67
790.613	19.15
790.918	20.51
791.223	24.22
791.527	21.66
791.832	23.82
792.137	19.68
792.441	22.85
792.746	22.44
793.05	23.03
793.355	26.09
793.659	21.48
793.963	21.81
794.268	18.16
794.572	25.17
794.876	22.26
795.18	21.81
795.484	21.17
795.788	23.18
796.092	19.97
796.396	22.12
796.7	24.84
797.004	26.83
797.307	20.44
797.611	16.26
797.915	22.59
798.218	21.32
798.522	23.55
798.825	27.16
799.128	24.38
799.432	21.77
799.735	25.09
800.038	28.64
800.341	27.88
800.644	22.57
800.947	25.09
801.25	25.69
801.553	22.75
801.856	21.02
802.159	18.94
802.462	22.89
802.764	24.26
803.067	20.08
803.37	22.23
803.672	18.82
803.975	20.23
804.277	23.78
804.579	22.71
804.882	24.41
805.184	19.2
805.486	20.61
805.788	22.73
806.09	26.8
806.392	20.32
806.694	23.43
806.996	19.73
807.298	19.84
807.6	24.76
807.902	25.73
808.203	18.81
808.505	25.01
808.807	13.17
809.108	22.21
809.409	21.41
809.711	18.62
810.012	17.57
810.313	26.78
810.615	18.54
810.916	23.83
811.217	25.6
811.518	22.15
811.819	21.48
812.12	26.87
812.421	22.48
812.722	23.41
813.023	24.09
813.323	23.18
813.624	26.16
813.925	20.59
814.225	23.42
814.526	20.8
814.826	28.48
815.126	21.3
815.427	19.73
815.727	14.14
816.027	23.33
816.327	26.57
816.627	28.84
816.927	27.25
817.227	22.45
817.527	24.92
817.827	24.21
818.127	31.28
818.427	19.88
818.727	14.37
819.026	24.98
819.326	17.84
819.625	20.87
819.925	29.11
820.224	24.56
820.524	15.52
820.823	23.15
821.122	29.23
821.421	22.83
821.72	18.32
822.019	18.71
822.318	21.43
822.617	25.53
822.916	26.29
823.215	28.61
823.514	28.01
823.813	28.68
824.111	29.65
824.41	25.95
824.709	26.57
825.007	27.9
825.306	27.52
825.604	27.16
825.902	27.46
826.201	27.31
826.499	26.24
826.797	28.52
827.095	27.7
827.393	27.12
827.691	28.02
827.989	25.12
828.287	26.83
828.585	25.83
828.882	25.25
829.18	28.93
829.478	27.62
829.775	27.1
830.073	26.41
830.37	28.02
830.668	28.86
830.965	29.26
831.263	27.32
831.56	26.62
831.857	27.07
832.154	27.24
832.451	25.68
832.748	25.61
833.045	24.97
833.342	27.13
833.639	25.42
833.936	21.8
834.232	29.08
834.529	24.09
834.826	24.44
835.122	30.39
835.419	29.03
835.715	28.01
836.012	26.24
836.308	25.7
836.604	29.01
836.901	27.36
837.197	29.43
837.493	25.69
837.789	28.74
838.085	30.88
838.381	27.5
838.677	27.84
838.972	27.6
839.268	25.86
839.564	25.75
839.86	27.42
840.155	23.95
840.451	24.85
840.746	31.76
841.042	16.25
841.337	31.25
841.632	33.03
841.928	29.76
842.223	21.84
842.518	26.01
842.813	24.38
843.108	20.23
843.403	23.4
843.698	29.86
843.993	26.2
844.287	17.19
844.582	21.26
844.877	26.17
845.171	25.45
845.466	17.08
845.761	23.06
846.055	23.48
846.349	21.76
846.644	30.39
846.938	18.11
847.232	15.26
847.526	18.55
847.82	34.71
848.114	35.37
848.408	16.06
848.702	21.77
848.996	37.98
849.29	27.12
849.584	35.76
849.877	35.34
850.171	10.39
850.465	15.57
850.758	31.1
851.052	9.08
851.345	43.51
851.638	26.03
851.932	24.99
852.225	-5.72
852.518	8.02
852.811	27.79
853.104	-5.2
853.397	10.44
853.69	13.91
853.983	38.51
854.276	32.94
854.569	25.36
854.861	49.7
855.154	32.85
855.447	27.73
855.739	29.32
856.032	9.24
856.324	27.57
856.616	41.87
856.909	16.77
857.201	7.61
857.493	-4.65
857.785	41.71
858.077	40.54
858.369	10.75
858.661	30.37
858.953	22.56
859.245	14.57
859.537	9.24
859.829	9.48
860.12	18.74
860.412	-2.35
860.703	51
860.995	25.15
861.286	18.68
861.578	20.06
861.869	23.2
862.16	30.03
862.452	24.97
862.743	-3.12
863.034	41.69
863.325	25.74
863.616	43.66
863.907	17.74
864.198	21.13
864.488	44.82
864.779	37.64
865.07	-27.69
865.36	35.88
865.651	-0.65
865.941	17.82
866.232	13.31
866.522	23.84
866.813	-11.26
867.103	26.73
867.393	24.29
867.683	18.21
867.973	44.28
868.263	26.02
868.553	31.28
868.843	24.88
869.133	-8.28
869.423	45.03
869.713	12.86
870.002	7.66
870.292	12.29
870.582	26.74
870.871	26.98
871.161	-11.94
871.45	10.52
871.739	23.08
872.029	4.58
872.318	38.26
872.607	28.5
872.896	22.63
873.185	-20.64
873.474	16.25
873.763	24.9
874.052	23.98
874.341	34.62
874.63	24.34
874.918	7.7
875.207	7.65
875.496	42.81
875.784	18.81
876.073	37.79
876.361	19.47
876.649	15.75
876.938	24.82
877.226	10.59
877.514	-15.28
877.802	39.86
878.09	14.79
878.378	32.42
878.666	27.83
878.954	49.79
879.242	35.43
879.53	27.59
879.817	7.18
880.105	10.77
880.392	28.67
880.68	35.12
880.967	34.53
881.255	42.58
881.542	24.67
881.83	12.05
882.117	14.36
882.404	5.43
882.691	32.87
882.978	-7.56
883.265	21.01
883.552	16.22
883.839	32.75
884.126	39.51
884.413	20.73
884.699	30.13
884.986	29.17
885.273	32.11
885.559	32.11
885.846	32.11
