Data from 0393_forehead_Reflection__0__162.txt Node

Date: Tue Dec 12 19:43:41 CST 2023
User: ToomeyLab
Spectrometer: FLMS14357
Trigger mode: 0
Integration Time (sec): 1.000000E-2
Scans to average: 100
Electric dark correction enabled: true
Nonlinearity correction enabled: false
Boxcar width: 0
XAxis mode: Wavelengths
Number of Pixels in Spectrum: 2048
>>>>>Begin Spectral Data<<<<<
189.047	-122.33
189.435	-122.33
189.823	-122.33
190.211	-50.58
190.599	-49.74
190.987	334.78
191.375	-42.22
191.763	461.21
192.151	-71.17
192.538	360.66
192.926	241.25
193.314	20247.62
193.702	-757.21
194.089	-107.96
194.477	125.89
194.864	198.75
195.252	-75.01
195.639	-84.99
196.027	32.26
196.414	323.24
196.801	50.65
197.189	2591.87
197.576	19.97
197.963	174.45
198.351	34.78
198.738	13.87
199.125	23.21
199.512	17.87
199.899	49.75
200.286	35.91
200.673	-14.5
201.06	20.04
201.447	-75.64
201.833	21.57
202.22	15.46
202.607	29.22
202.994	26.13
203.38	57.47
203.767	-1.71
204.154	13.51
204.54	54.11
204.927	16.48
205.313	4.59
205.699	-14.06
206.086	2.22
206.472	51.38
206.858	12.23
207.245	4.44
207.631	31.39
208.017	102.77
208.403	62.93
208.789	44.92
209.175	-21.11
209.561	32.03
209.947	28.25
210.333	34.59
210.719	12.76
211.105	-25.08
211.491	22.58
211.876	12.56
212.262	-12.79
212.648	-12.01
213.034	-45.25
213.419	-18.64
213.805	15.26
214.19	29.72
214.576	38.35
214.961	19.15
215.346	50.01
215.732	10.79
216.117	63.94
216.502	-13.79
216.888	1.85
217.273	2.61
217.658	-34.1
218.043	-21.26
218.428	14.48
218.813	23.08
219.198	-13.16
219.583	31.82
219.968	45.26
220.353	22.4
220.738	30.19
221.122	7.89
221.507	12.98
221.892	27.16
222.276	-10.58
222.661	4.62
223.046	-17.06
223.43	13.33
223.815	7.1
224.199	10.37
224.583	-0.89
224.968	10.79
225.352	-2.93
225.736	6.31
226.121	7.8
226.505	11.91
226.889	-0.24
227.273	6.46
227.657	7.94
228.041	7.51
228.425	2.29
228.809	2.21
229.193	4.59
229.577	5.36
229.961	2.18
230.344	4.4
230.728	3.91
231.112	3.52
231.495	3.75
231.879	4.88
232.263	2.06
232.646	4.18
233.03	4.44
233.413	2.74
233.797	5.03
234.18	4.64
234.563	3.1
234.946	3.77
235.33	4.5
235.713	6.31
236.096	3.97
236.479	4.88
236.862	3.18
237.245	3.98
237.628	4.16
238.011	6.49
238.394	3.44
238.777	4.71
239.16	4.08
239.543	4.65
239.925	5.19
240.308	5
240.691	4.58
241.073	4.61
241.456	4.48
241.838	3.13
242.221	4.3
242.603	4.56
242.986	4.24
243.368	4.78
243.75	3.37
244.133	4.2
244.515	4.25
244.897	4.68
245.279	4.64
245.661	3.88
246.043	4.57
246.425	5.91
246.807	3.86
247.189	4.4
247.571	4.86
247.953	3.66
248.335	3.76
248.717	4.1
249.098	4.06
249.48	4.03
249.862	4.09
250.243	4.29
250.625	4.96
251.006	4.56
251.388	4.46
251.769	4.52
252.151	3.77
252.532	4.27
252.913	4.87
253.295	4.85
253.676	4.06
254.057	3.74
254.438	4.74
254.819	3.92
255.2	4.27
255.581	4.94
255.962	4.59
256.343	4.84
256.724	4.28
257.105	4.61
257.486	3.97
257.867	3.06
258.247	4.27
258.628	4.41
259.009	4.15
259.389	4.33
259.77	3.95
260.15	4.08
260.531	4.78
260.911	4.62
261.292	3.99
261.672	3.98
262.052	4.1
262.432	4.1
262.813	4.27
263.193	4.24
263.573	4.7
263.953	4.47
264.333	4.73
264.713	4.26
265.093	4.32
265.473	4.97
265.853	3.96
266.233	4.08
266.612	3.63
266.992	3.68
267.372	4.13
267.752	4.77
268.131	3.76
268.511	3.89
268.89	3.57
269.27	3.61
269.649	4.46
270.029	3.65
270.408	3.78
270.787	4.17
271.167	3.69
271.546	4.11
271.925	4.26
272.304	4.67
272.683	2.91
273.062	3.95
273.441	4.14
273.82	3.69
274.199	4.16
274.578	4.29
274.957	4.22
275.336	4.3
275.715	4.66
276.093	3.58
276.472	4.46
276.851	4.67
277.229	4.14
277.608	3.58
277.986	3.67
278.365	4.63
278.743	4.41
279.122	4.03
279.5	3.64
279.878	3.48
280.257	4.17
280.635	3.99
281.013	4.4
281.391	4.25
281.769	3.91
282.147	4.12
282.525	3.37
282.903	4.2
283.281	3.97
283.659	4.34
284.037	4.17
284.415	4.18
284.792	3.94
285.17	3.88
285.548	4.24
285.925	4.26
286.303	4.27
286.68	4.07
287.058	4.42
287.435	4.35
287.813	3.63
288.19	3.98
288.567	4.2
288.945	4.51
289.322	3.84
289.699	4.06
290.076	4.44
290.453	4.58
290.83	4.67
291.207	5.13
291.584	4.64
291.961	4.51
292.338	4.58
292.715	4.37
293.092	4.55
293.469	4.71
293.845	5
294.222	4.61
294.599	4.91
294.975	4.97
295.352	5.34
295.728	5.02
296.105	5.29
296.481	5.39
296.858	5.36
297.234	5.79
297.61	5.12
297.986	5.54
298.363	5.26
298.739	5.22
299.115	5.53
299.491	5.21
299.867	5.39
300.243	5.59
300.619	5.76
300.995	5.93
301.371	6.42
301.746	5.86
302.122	6.14
302.498	5.77
302.874	5.91
303.249	6.97
303.625	6.08
304	6.63
304.376	6.46
304.751	7.21
305.127	6.05
305.502	6.31
305.878	6.02
306.253	6.34
306.628	6.44
307.003	6.33
307.378	6.66
307.754	6.71
308.129	6.98
308.504	7.59
308.879	6.76
309.254	7.28
309.629	7.27
310.003	7.41
310.378	7.51
310.753	7.23
311.128	7.12
311.502	7.08
311.877	7.15
312.252	7.05
312.626	7.58
313.001	7.1
313.375	7.4
313.75	7.72
314.124	7.37
314.498	7.83
314.873	7.58
315.247	8.15
315.621	7.4
315.995	7.59
316.369	7.97
316.743	7.66
317.117	7.59
317.491	8.1
317.865	8.18
318.239	8.22
318.613	8.91
318.987	8.77
319.361	7.86
319.734	8.02
320.108	8.74
320.482	8.71
320.855	8.3
321.229	8.61
321.602	9.15
321.976	8.48
322.349	9.27
322.723	8.76
323.096	9.12
323.469	8.9
323.843	9.53
324.216	9.78
324.589	9.68
324.962	8.99
325.335	9.57
325.708	9.46
326.081	9.51
326.454	9.61
326.827	9.68
327.2	9.79
327.573	9.4
327.945	9.81
328.318	9.78
328.691	9.05
329.063	10.2
329.436	9.88
329.809	9.87
330.181	9.36
330.553	10
330.926	9.59
331.298	9.89
331.671	10.48
332.043	10.01
332.415	10.17
332.787	10.58
333.159	10.62
333.532	10.61
333.904	9.79
334.276	10.88
334.648	10.58
335.02	10.2
335.391	9.84
335.763	10.42
336.135	10.6
336.507	11.34
336.879	10.49
337.25	10.95
337.622	10.72
337.993	10.35
338.365	11.11
338.736	11.1
339.108	10.73
339.479	11.12
339.851	10.66
340.222	10.73
340.593	11.08
340.964	11.53
341.336	11.41
341.707	11.16
342.078	10.92
342.449	11.39
342.82	11.54
343.191	11.71
343.562	11.54
343.933	12
344.303	11.5
344.674	11.69
345.045	11.68
345.416	12
345.786	11.94
346.157	11.83
346.527	12.12
346.898	11.54
347.268	11.78
347.639	12.11
348.009	11.7
348.38	12.31
348.75	12.59
349.12	12.01
349.49	12.31
349.861	12.61
350.231	12.57
350.601	13.13
350.971	12.37
351.341	12.62
351.711	12.9
352.081	12.51
352.45	12.43
352.82	12.77
353.19	12.88
353.56	12.95
353.929	12.85
354.299	12.74
354.669	12.86
355.038	12.2
355.408	12.52
355.777	13.33
356.147	13.14
356.516	13.03
356.885	12.84
357.254	13.22
357.624	13
357.993	13.02
358.362	13.47
358.731	13.32
359.1	12.99
359.469	13.4
359.838	13.4
360.207	13.8
360.576	13.46
360.945	13.36
361.314	13.99
361.682	13.54
362.051	14.07
362.42	14.04
362.788	13.66
363.157	13.93
363.525	13.91
363.894	13.77
364.262	13.93
364.631	13.91
364.999	13.96
365.367	14.18
365.735	14.34
366.104	14.13
366.472	14.28
366.84	14.3
367.208	14.46
367.576	14.31
367.944	14.72
368.312	14.9
368.68	14.77
369.048	14.84
369.416	14.66
369.783	15.07
370.151	14.97
370.519	14.65
370.886	15.11
371.254	14.69
371.621	15.15
371.989	15.09
372.356	15.38
372.724	15.37
373.091	15
373.458	15.37
373.826	15.34
374.193	15.34
374.56	15.43
374.927	15.49
375.294	15.38
375.661	15.65
376.028	15.65
376.395	15.84
376.762	16.13
377.129	15.73
377.496	16.2
377.863	15.75
378.229	16
378.596	15.8
378.963	16.05
379.329	15.95
379.696	15.87
380.062	16.41
380.429	16.15
380.795	16.51
381.161	16.47
381.528	16.67
381.894	16.28
382.26	16.2
382.626	16.39
382.993	16.68
383.359	16.37
383.725	16.5
384.091	16.79
384.457	16.84
384.823	16.66
385.188	16.64
385.554	16.87
385.92	16.88
386.286	16.93
386.651	17.21
387.017	17.15
387.383	17.11
387.748	17.29
388.114	17.24
388.479	17.41
388.845	17.11
389.21	17.46
389.575	17.08
389.94	17.42
390.306	17.51
390.671	17.54
391.036	17.68
391.401	17.59
391.766	17.92
392.131	17.79
392.496	17.66
392.861	17.62
393.226	17.79
393.591	17.77
393.956	17.89
394.32	17.98
394.685	18.06
395.05	18.09
395.414	18.05
395.779	18.19
396.143	18.32
396.508	18.25
396.872	18.46
397.236	18.25
397.601	18.72
397.965	18.63
398.329	18.38
398.694	18.66
399.058	18.7
399.422	18.3
399.786	18.89
400.15	18.63
400.514	18.9
400.878	18.79
401.242	18.81
401.605	19.28
401.969	19.07
402.333	19.1
402.697	19.2
403.06	18.99
403.424	19.22
403.787	19.11
404.151	19.15
404.514	19.27
404.878	19.5
405.241	19.65
405.604	19.12
405.968	19.36
406.331	19.64
406.694	19.54
407.057	19.5
407.42	19.75
407.783	19.69
408.146	19.89
408.509	19.92
408.872	19.84
409.235	19.84
409.598	19.93
409.961	19.88
410.323	20.11
410.686	20.39
411.049	20.53
411.411	20.42
411.774	20.14
412.136	20.06
412.499	20.2
412.861	20.35
413.223	20.86
413.586	20.33
413.948	20.61
414.31	20.69
414.672	20.8
415.035	20.93
415.397	20.96
415.759	20.62
416.121	20.85
416.483	20.98
416.845	20.94
417.206	21.11
417.568	21.15
417.93	20.95
418.292	20.92
418.653	21.11
419.015	20.98
419.377	21.17
419.738	21.01
420.1	21.14
420.461	21.25
420.822	21.22
421.184	21.3
421.545	21.25
421.906	21.09
422.267	21.22
422.629	21.24
422.99	21.18
423.351	21.23
423.712	21.28
424.073	21.45
424.434	21.4
424.795	21.68
425.155	21.62
425.516	21.4
425.877	21.58
426.238	21.56
426.598	21.6
426.959	21.79
427.32	21.92
427.68	21.81
428.041	22.05
428.401	22.21
428.761	22.39
429.122	22.41
429.482	22.62
429.842	22.56
430.202	22.74
430.563	22.73
430.923	22.73
431.283	22.75
431.643	22.95
432.003	22.79
432.363	23.01
432.722	22.91
433.082	23.14
433.442	22.95
433.802	23.32
434.161	23.28
434.521	23.21
434.881	23.23
435.24	23.3
435.6	23.08
435.959	23.46
436.319	23.21
436.678	23.47
437.037	23.47
437.396	23.62
437.756	23.66
438.115	23.91
438.474	23.48
438.833	23.85
439.192	24.05
439.551	24.05
439.91	23.79
440.269	24
440.628	23.9
440.987	23.85
441.345	23.96
441.704	23.99
442.063	23.99
442.421	23.91
442.78	23.86
443.138	23.87
443.497	24.19
443.855	24.27
444.214	24.45
444.572	24.44
444.93	24.42
445.288	24.49
445.647	24.71
446.005	24.62
446.363	24.6
446.721	24.64
447.079	24.69
447.437	24.44
447.795	24.62
448.153	24.54
448.51	24.47
448.868	24.67
449.226	24.66
449.584	24.72
449.941	24.85
450.299	25
450.656	24.96
451.014	25.28
451.371	25.25
451.729	25.48
452.086	25.38
452.443	25.77
452.801	25.85
453.158	25.67
453.515	25.93
453.872	25.73
454.229	25.71
454.586	25.64
454.943	25.85
455.3	25.95
455.657	26.14
456.014	26.1
456.371	26.24
456.727	26.25
457.084	26.17
457.441	26.25
457.797	26.33
458.154	26.4
458.51	26.33
458.867	26.58
459.223	26.62
459.58	26.88
459.936	26.31
460.292	26.51
460.648	26.4
461.005	26.63
461.361	26.28
461.717	26.29
462.073	26.21
462.429	26.41
462.785	26.6
463.141	26.78
463.496	26.91
463.852	27.23
464.208	27.19
464.564	27.17
464.919	27.36
465.275	27.43
465.631	27.43
465.986	27.51
466.342	27.33
466.697	27.54
467.052	27.64
467.408	27.62
467.763	27.74
468.118	27.6
468.473	27.79
468.829	27.73
469.184	27.55
469.539	28.2
469.894	28.01
470.249	28.06
470.603	28.19
470.958	28.13
471.313	28.27
471.668	28.42
472.023	28.2
472.377	28.01
472.732	28.27
473.086	28.38
473.441	28.42
473.795	28.34
474.15	28.61
474.504	28.57
474.859	28.62
475.213	28.52
475.567	28.73
475.921	28.94
476.275	28.8
476.63	28.8
476.984	29.03
477.338	28.86
477.692	28.75
478.045	29.16
478.399	29.01
478.753	29.12
479.107	29
479.461	29.21
479.814	29.11
480.168	29.05
480.521	29.04
480.875	29.27
481.228	29.38
481.582	29.37
481.935	29.48
482.289	29.41
482.642	29.47
482.995	29.28
483.348	29.44
483.701	29.5
484.055	29.26
484.408	29.17
484.761	29.01
485.114	28.75
485.466	28.46
485.819	28.5
486.172	28.61
486.525	28.78
486.878	29.01
487.23	29.14
487.583	29.15
487.936	29.36
488.288	29.37
488.641	29.3
488.993	29.24
489.345	29.27
489.698	29.19
490.05	29.29
490.402	29.44
490.754	29.71
491.107	29.73
491.459	29.94
491.811	30.19
492.163	30.21
492.515	30.28
492.866	29.98
493.218	29.85
493.57	29.78
493.922	29.96
494.274	30.08
494.625	30.25
494.977	30.54
495.328	30.73
495.68	30.98
496.031	31.12
496.383	31.24
496.734	31.31
497.086	31.25
497.437	31.23
497.788	31.36
498.139	31.48
498.49	31.41
498.842	31.33
499.193	31.27
499.544	31.48
499.894	31.5
500.245	31.53
500.596	31.63
500.947	31.75
501.298	31.84
501.648	31.93
501.999	32.02
502.35	31.86
502.7	32.07
503.051	32.08
503.401	32.25
503.752	32.51
504.102	32.31
504.452	32.6
504.803	32.51
505.153	32.45
505.503	32.56
505.853	32.65
506.203	32.58
506.553	32.57
506.903	32.67
507.253	32.71
507.603	32.76
507.953	32.99
508.303	32.98
508.652	32.97
509.002	32.96
509.352	32.93
509.701	32.99
510.051	33.08
510.4	32.84
510.75	32.96
511.099	32.9
511.449	33.12
511.798	33.03
512.147	33.19
512.496	33.43
512.846	33.34
513.195	33.21
513.544	33.51
513.893	33.4
514.242	33.26
514.591	33.59
514.939	33.63
515.288	33.61
515.637	33.49
515.986	33.72
516.334	33.86
516.683	34.02
517.032	33.99
517.38	34.07
517.729	34.24
518.077	34.06
518.426	34.36
518.774	34.2
519.122	34.15
519.47	34.02
519.819	34.08
520.167	33.81
520.515	33.79
520.863	34.03
521.211	33.97
521.559	34.18
521.907	34.15
522.255	34.29
522.602	34.5
522.95	34.59
523.298	34.73
523.645	34.87
523.993	34.86
524.341	34.82
524.688	35.05
525.036	34.95
525.383	34.95
525.73	35.06
526.078	35.26
526.425	35.04
526.772	34.87
527.119	34.88
527.466	34.63
527.814	34.71
528.161	34.84
528.508	34.9
528.854	34.98
529.201	35.01
529.548	34.79
529.895	34.58
530.242	34.33
530.588	34.61
530.935	34.7
531.282	34.75
531.628	34.78
531.975	34.99
532.321	35.09
532.667	35.41
533.014	35.42
533.36	35.5
533.706	35.58
534.052	35.55
534.399	35.82
534.745	35.44
535.091	35.42
535.437	35.33
535.783	35.6
536.129	35.74
536.474	35.79
536.82	36.02
537.166	36.16
537.512	36.24
537.857	36.07
538.203	36.16
538.549	36.19
538.894	36.3
539.239	36.44
539.585	36.55
539.93	36.76
540.276	36.86
540.621	37.17
540.966	37.02
541.311	37.02
541.656	37.16
542.001	37.13
542.346	36.78
542.691	36.58
543.036	36.39
543.381	36.31
543.726	36.42
544.071	36.65
544.415	36.76
544.76	36.93
545.105	37.09
545.449	37.13
545.794	37.31
546.138	37.27
546.483	37.49
546.827	37.72
547.171	37.74
547.516	37.84
547.86	37.9
548.204	37.76
548.548	37.65
548.892	37.94
549.236	37.81
549.58	38.21
549.924	38.38
550.268	38.36
550.612	38.35
550.956	38.63
551.3	38.87
551.643	38.82
551.987	38.76
552.33	38.98
552.674	38.73
553.017	39.19
553.361	39.45
553.704	39.17
554.048	39
554.391	38.89
554.734	38.92
555.077	39.17
555.42	38.96
555.764	39.39
556.107	39.27
556.45	39.57
556.793	39.54
557.135	39.67
557.478	39.89
557.821	39.63
558.164	39.86
558.507	39.91
558.849	39.96
559.192	39.93
559.534	40.08
559.877	39.97
560.219	39.97
560.562	40.01
560.904	40.38
561.246	40.09
561.589	40.06
561.931	40.28
562.273	40.16
562.615	40.29
562.957	40.02
563.299	40.21
563.641	40.27
563.983	40.36
564.325	40.37
564.667	40.6
565.008	40.52
565.35	40.43
565.692	40.7
566.033	40.78
566.375	40.79
566.716	40.62
567.058	40.92
567.399	40.64
567.741	40.96
568.082	40.72
568.423	40.95
568.764	40.85
569.105	40.86
569.447	41.11
569.788	41.19
570.129	41.16
570.47	41.42
570.811	41.42
571.151	41.29
571.492	41.29
571.833	41.45
572.174	41.53
572.514	41.72
572.855	41.37
573.195	41.6
573.536	41.33
573.876	41.5
574.217	41.58
574.557	41.38
574.898	41.7
575.238	41.65
575.578	41.93
575.918	41.88
576.258	42.06
576.598	41.73
576.938	42.03
577.278	42.09
577.618	42.11
577.958	42.13
578.298	41.94
578.638	42.27
578.977	42.24
579.317	42.46
579.657	42.42
579.996	42.54
580.336	42.74
580.675	42.55
581.014	42.78
581.354	42.94
581.693	42.96
582.032	43.04
582.372	43.5
582.711	43.08
583.05	43.31
583.389	42.98
583.728	43.07
584.067	43.29
584.406	43.42
584.745	43.44
585.083	43.15
585.422	43.37
585.761	43.39
586.1	43.74
586.438	43.86
586.777	43.4
587.115	43.61
587.454	44.1
587.792	43.69
588.13	44.03
588.469	43.98
588.807	44.2
589.145	44
589.483	43.7
589.821	44.22
590.159	43.83
590.497	43.99
590.835	43.75
591.173	44.02
591.511	43.97
591.849	44.08
592.187	44.46
592.524	44.41
592.862	44.4
593.2	43.93
593.537	44.53
593.875	44.69
594.212	44.51
594.55	44.43
594.887	44.64
595.224	44.58
595.561	44.68
595.899	44.56
596.236	44.83
596.573	44.63
596.91	45.04
597.247	44.54
597.584	44.88
597.921	44.41
598.258	44.97
598.594	44.43
598.931	44.82
599.268	44.69
599.604	44.61
599.941	44.67
600.277	44.82
600.614	45.31
600.95	45.28
601.287	45.18
601.623	45.33
601.959	45.42
602.296	45.51
602.632	45.33
602.968	45.59
603.304	45.44
603.64	45.87
603.976	45.9
604.312	45.4
604.648	45.68
604.984	45.6
605.319	45.41
605.655	45.61
605.991	45.46
606.326	45.45
606.662	45.43
606.998	45.38
607.333	45.2
607.668	45.63
608.004	45.65
608.339	46.11
608.674	46.02
609.01	46.13
609.345	46.23
609.68	46.13
610.015	45.96
610.35	46.24
610.685	46.34
611.02	46.35
611.355	45.76
611.689	46.06
612.024	46.16
612.359	46.37
612.694	46.36
613.028	46.09
613.363	46.63
613.697	46.65
614.032	46.59
614.366	46.53
614.7	46.8
615.035	47.37
615.369	46.75
615.703	47.09
616.037	46.91
616.371	46.7
616.705	47.09
617.039	47.14
617.373	47.34
617.707	47.1
618.041	46.7
618.375	47.69
618.709	47.33
619.042	47.1
619.376	47.23
619.71	46.99
620.043	46.84
620.377	47.19
620.71	47.34
621.043	47.51
621.377	47.28
621.71	47.61
622.043	47.71
622.376	47.83
622.709	47.79
623.043	47.75
623.376	47.95
623.709	47.84
624.041	47.95
624.374	47.86
624.707	47.91
625.04	47.97
625.373	48.03
625.705	47.82
626.038	48.12
626.37	48.19
626.703	48.25
627.035	47.89
627.368	48.24
627.7	48
628.032	47.91
628.365	47.75
628.697	48.09
629.029	47.98
629.361	48.35
629.693	48.06
630.025	48.35
630.357	48.38
630.689	48.65
631.021	48.43
631.353	48.67
631.684	48.68
632.016	48.44
632.348	48.84
632.679	48.81
633.011	49.05
633.342	48.53
633.674	48.69
634.005	48.57
634.336	48.56
634.668	48.87
634.999	48.9
635.33	48.95
635.661	49.18
635.992	48.93
636.323	49.18
636.654	49.22
636.985	49.33
637.316	48.96
637.647	49.42
637.977	49.33
638.308	49.14
638.639	49.11
638.969	49.67
639.3	48.96
639.63	49.41
639.961	49.27
640.291	49.33
640.622	49.77
640.952	49.8
641.282	49.48
641.612	49.23
641.943	50.17
642.273	49.92
642.603	50.2
642.933	49.89
643.263	49.95
643.592	49.85
643.922	50.11
644.252	50.34
644.582	49.41
644.911	50.07
645.241	49.56
645.571	50.23
645.9	50.43
646.23	49.9
646.559	50.41
646.888	49.67
647.218	50.58
647.547	50.24
647.876	50.69
648.205	50.79
648.534	50.8
648.863	49.33
649.192	50.65
649.521	50.77
649.85	50.05
650.179	50.69
650.508	50.75
650.837	50.81
651.165	50.42
651.494	50.32
651.822	50.49
652.151	50.83
652.479	50.83
652.808	50.87
653.136	50.67
653.465	50.5
653.793	51.02
654.121	50.89
654.449	50.61
654.777	50.47
655.105	50.93
655.433	51.16
655.761	50.3
656.089	50.89
656.417	51.33
656.745	51.32
657.073	51.33
657.4	51.86
657.728	50.76
658.056	50.58
658.383	50.51
658.711	51.54
659.038	51.11
659.365	51.29
659.693	51.19
660.02	51.03
660.347	50.83
660.674	51.62
661.001	51.19
661.329	51.18
661.656	51.3
661.982	51.42
662.309	51.18
662.636	51.71
662.963	51.51
663.29	51.36
663.616	51.8
663.943	51.54
664.27	52.06
664.596	51.34
664.923	51.79
665.249	51.05
665.576	51.69
665.902	51.78
666.228	51.94
666.554	51.88
666.881	51.54
667.207	52.37
667.533	51.88
667.859	51.62
668.185	52.33
668.511	52.53
668.837	51.98
669.162	52.63
669.488	51.49
669.814	51.7
670.139	52.53
670.465	51.31
670.791	51.91
671.116	52.04
671.442	52
671.767	51.9
672.092	52.28
672.418	51.78
672.743	52.75
673.068	52.31
673.393	52.82
673.718	52.51
674.043	53
674.368	52.51
674.693	52.1
675.018	52.09
675.343	52.77
675.667	51.53
675.992	53.34
676.317	52.23
676.641	53.03
676.966	52.59
677.29	53.49
677.615	52.71
677.939	53.36
678.264	52.4
678.588	53.7
678.912	53.44
679.236	53.2
679.56	53.64
679.885	53.1
680.209	52.96
680.532	53.44
680.856	52.67
681.18	52.98
681.504	52.53
681.828	52.43
682.152	52.56
682.475	53.18
682.799	53.43
683.122	53.16
683.446	52.84
683.769	53.27
684.093	52.95
684.416	53.6
684.739	53.46
685.062	53.19
685.386	53.07
685.709	53.19
686.032	53.15
686.355	54.46
686.678	53.89
687.001	53.29
687.324	53.16
687.646	53.54
687.969	53.75
688.292	53.67
688.614	54.24
688.937	53.66
689.26	53.54
689.582	53.74
689.904	53.18
690.227	53.19
690.549	53.95
690.871	53.73
691.194	54.15
691.516	53.44
691.838	53.79
692.16	54.12
692.482	54.58
692.804	54
693.126	54.45
693.448	54.37
693.769	53.9
694.091	53.9
694.413	53.96
694.735	53.79
695.056	54.02
695.378	54.57
695.699	53.68
696.021	53.73
696.342	54.01
696.663	54.35
696.984	53.85
697.306	54.67
697.627	53.33
697.948	53.97
698.269	54.61
698.59	54.79
698.911	53.94
699.232	54.63
699.553	53.74
699.873	55.18
700.194	54.28
700.515	53.51
700.835	54.33
701.156	54.03
701.477	54.31
701.797	54.03
702.117	54.21
702.438	55.16
702.758	55.45
703.078	55.11
703.398	54.73
703.719	54.68
704.039	54.17
704.359	54.17
704.679	55.64
704.999	55.76
705.319	54.71
705.638	54.97
705.958	55.52
706.278	54.88
706.597	55.25
706.917	54.97
707.237	54.67
707.556	54.23
707.876	55.02
708.195	54.29
708.514	56.58
708.834	55.93
709.153	55.46
709.472	56.26
709.791	55.82
710.11	56.44
710.429	55.24
710.748	55.61
711.067	55.17
711.386	55.45
711.705	55.99
712.023	56
712.342	55.55
712.661	54.78
712.979	56.3
713.298	56.03
713.616	55.49
713.935	54.7
714.253	54.77
714.572	55.55
714.89	55.24
715.208	54.97
715.526	55.34
715.844	55.52
716.162	54.97
716.48	55.84
716.798	55.5
717.116	55.29
717.434	54.96
717.752	55.03
718.069	56.82
718.387	55.35
718.705	55.93
719.022	55.92
719.34	56.56
719.657	56.8
719.975	55.86
720.292	55.79
720.609	55.47
720.927	56.36
721.244	56.19
721.561	57.44
721.878	55.66
722.195	57.03
722.512	56.24
722.829	55.94
723.146	55.99
723.463	56.07
723.779	54.3
724.096	56.21
724.413	56.44
724.729	56.87
725.046	56.1
725.362	57.01
725.679	55.56
725.995	56.52
726.311	55.69
726.628	55.44
726.944	56.37
727.26	57.2
727.576	55.56
727.892	55.71
728.208	55.9
728.524	56.01
728.84	56.6
729.156	57.04
729.472	57.91
729.787	55.91
730.103	56.57
730.419	56.52
730.734	57.18
731.05	55.97
731.365	57.32
731.681	56.98
731.996	57.58
732.311	56.44
732.626	56.38
732.942	57.35
733.257	57.26
733.572	56.78
733.887	57.38
734.202	56.23
734.517	57.17
734.832	57.55
735.146	56.41
735.461	56.84
735.776	57.33
736.091	56.71
736.405	57.45
736.72	57.85
737.034	58.53
737.349	56.8
737.663	56.8
737.977	56.13
738.292	56.99
738.606	58.53
738.92	56
739.234	56.58
739.548	57.52
739.862	56.56
740.176	56.84
740.49	57.07
740.804	57.19
741.117	58.17
741.431	58.16
741.745	58.08
742.058	56.79
742.372	58.48
742.685	56.31
742.999	55.6
743.312	57.2
743.626	57.61
743.939	58.68
744.252	59.1
744.565	56.66
744.878	58.97
745.191	57.88
745.505	58.71
745.817	59.46
746.13	57.09
746.443	57.62
746.756	58.43
747.069	57.03
747.381	55.74
747.694	55.78
748.007	57.99
748.319	59.65
748.632	57.86
748.944	58.59
749.256	56.99
749.569	57.41
749.881	57.16
750.193	57.79
750.505	57.1
750.817	56.37
751.129	57.57
751.441	55.87
751.753	59.94
752.065	56.18
752.377	58.5
752.689	58.25
753	57.05
753.312	58.26
753.624	58.41
753.935	59.69
754.247	59.69
754.558	58.83
754.869	55.85
755.181	57.17
755.492	59.87
755.803	58.31
756.114	58.19
756.425	59.26
756.736	57.19
757.047	55.62
757.358	58.23
757.669	56.72
757.98	59.64
758.291	56.46
758.601	57.09
758.912	57.95
759.223	58.86
759.533	57.64
759.844	58.19
760.154	59.24
760.464	57.95
760.775	58.01
761.085	56.27
761.395	58.23
761.705	58.55
762.016	59.65
762.326	57.57
762.636	58.07
762.945	58.66
763.255	58.11
763.565	58.24
763.875	59.34
764.185	59.82
764.494	58.47
764.804	57.43
765.113	60.68
765.423	58.92
765.732	59.78
766.042	59.04
766.351	60.49
766.66	60.24
766.97	60.59
767.279	58.39
767.588	57
767.897	58.82
768.206	59.24
768.515	61.54
768.824	60.85
769.133	60.93
769.441	58.93
769.75	59.34
770.059	59.08
770.367	59.18
770.676	60.98
770.984	59.44
771.293	56.68
771.601	58.39
771.91	59.73
772.218	59.88
772.526	58.98
772.834	57.09
773.142	61.98
773.45	60.34
773.758	58.09
774.066	54.14
774.374	58.7
774.682	61.3
774.99	57.85
775.298	58.74
775.605	57.73
775.913	59.2
776.22	59.46
776.528	61.85
776.835	60.17
777.143	58.66
777.45	58.56
777.757	56.93
778.065	61.34
778.372	60.28
778.679	58.38
778.986	61.02
779.293	58.84
779.6	57.87
779.907	61.45
780.214	58.66
780.52	57.64
780.827	60.85
781.134	57.57
781.44	57.54
781.747	59.59
782.053	57.08
782.36	57.24
782.666	57.7
782.973	60.1
783.279	59.35
783.585	58.19
783.891	57.64
784.197	57.61
784.503	60.13
784.809	59.02
785.115	58.98
785.421	61.31
785.727	55.99
786.033	58.56
786.339	58.63
786.644	59.75
786.95	61.39
787.255	59.83
787.561	59.17
787.866	61.62
788.172	54.56
788.477	62.22
788.782	62.45
789.088	60.33
789.393	63.32
789.698	58.5
790.003	60.86
790.308	59.62
790.613	60.11
790.918	58.81
791.223	61.59
791.527	59.33
791.832	61.82
792.137	60.01
792.441	57.54
792.746	59.33
793.05	61.41
793.355	64.74
793.659	58.66
793.963	58.08
794.268	57.82
794.572	59.2
794.876	57.21
795.18	60.98
795.484	58.57
795.788	60.53
796.092	57.84
796.396	56.59
796.7	58.67
797.004	59.59
797.307	58.91
797.611	57.76
797.915	55.48
798.218	59.96
798.522	61.91
798.825	61.05
799.128	62.51
799.432	62.59
799.735	58.15
800.038	58.69
800.341	61.41
800.644	65.12
800.947	63.13
801.25	60.29
801.553	59.87
801.856	59.59
802.159	59.97
802.462	58.32
802.764	59.22
803.067	53.46
803.37	61.32
803.672	54.61
803.975	57.73
804.277	59.13
804.579	60.72
804.882	62.4
805.184	58.5
805.486	62.48
805.788	61.03
806.09	62.88
806.392	55.51
806.694	60.81
806.996	57.58
807.298	57.69
807.6	62.41
807.902	59.28
808.203	53.72
808.505	62.14
808.807	55.31
809.108	56.82
809.409	57.77
809.711	58.86
810.012	58.94
810.313	63.07
810.615	58.88
810.916	54.86
811.217	63.93
811.518	55.36
811.819	63.96
812.12	53.42
812.421	62.03
812.722	59.72
813.023	59.33
813.323	61.66
813.624	59.45
813.925	66.05
814.225	65.59
814.526	56.87
814.826	62.8
815.126	55.54
815.427	60.52
815.727	65.6
816.027	58.83
816.327	70.88
816.627	62.77
816.927	64.55
817.227	62.72
817.527	58.77
817.827	57.5
818.127	63.61
818.427	56.74
818.727	58.98
819.026	61.76
819.326	59.26
819.625	64.61
819.925	59.05
820.224	57.14
820.524	59.72
820.823	63.27
821.122	66.22
821.421	63.64
821.72	60.56
822.019	61.26
822.318	58.88
822.617	59.61
822.916	58.47
823.215	60.41
823.514	66.32
823.813	60.75
824.111	60.31
824.41	61.29
824.709	63.96
825.007	61.29
825.306	62.69
825.604	61.21
825.902	62.86
826.201	63
826.499	60.99
826.797	62.43
827.095	63.38
827.393	62.69
827.691	62.38
827.989	62.16
828.287	63.74
828.585	61.9
828.882	63.05
829.18	62.89
829.478	61.63
829.775	62.14
830.073	61.55
830.37	63.21
830.668	63.1
830.965	62.35
831.263	63.48
831.56	59.59
831.857	62.78
832.154	62.76
832.451	66.21
832.748	59.47
833.045	60.38
833.342	61.64
833.639	60
833.936	54.07
834.232	58.64
834.529	60.28
834.826	58.36
835.122	59.65
835.419	66.01
835.715	58.03
836.012	58.48
836.308	61.63
836.604	59.55
836.901	62.45
837.197	62.46
837.493	60.54
837.789	61.98
838.085	61.7
838.381	60.61
838.677	64.48
838.972	62.35
839.268	58.16
839.564	64.1
839.86	60.41
840.155	61.19
840.451	65.54
840.746	64.32
841.042	61.41
841.337	68.84
841.632	60.74
841.928	65.14
842.223	60.32
842.518	66.46
842.813	66.79
843.108	58.87
843.403	52.55
843.698	60.82
843.993	64.12
844.287	58.31
844.582	64.94
844.877	67.34
845.171	59.83
845.466	65.5
845.761	69.45
846.055	72
846.349	60.1
846.644	72.31
846.938	53.71
847.232	50.69
847.526	61.08
847.82	68.45
848.114	70.37
848.408	69.13
848.702	75.31
848.996	72.88
849.29	61.5
849.584	53.46
849.877	63.23
850.171	55.16
850.465	63.27
850.758	52.41
851.052	56.14
851.345	66.7
851.638	69.22
851.932	55.8
852.225	47.84
852.518	60.08
852.811	65.54
853.104	48.12
853.397	68.62
853.69	58.52
853.983	53.13
854.276	46.33
854.569	71.46
854.861	73.95
855.154	49.6
855.447	43.79
855.739	68.88
856.032	48.2
856.324	49.04
856.616	84.87
856.909	62.73
857.201	47.44
857.493	44.12
857.785	56.08
858.077	58.57
858.369	79.22
858.661	66.41
858.953	51.43
859.245	67.09
859.537	48.22
859.829	53.83
860.12	70.35
860.412	32.56
860.703	55.27
860.995	57.09
861.286	74.96
861.578	35.45
861.869	103.1
862.16	56.34
862.452	44.57
862.743	69.66
863.034	60.07
863.325	51.96
863.616	49.56
863.907	85.44
864.198	68.54
864.488	46.9
864.779	90.85
865.07	46.85
865.36	83.18
865.651	13.51
865.941	97.56
866.232	68.34
866.522	60.63
866.813	49.91
867.103	67.78
867.393	38
867.683	26.64
867.973	94.45
868.263	64.98
868.553	61.91
868.843	49.04
869.133	61.64
869.423	52.49
869.713	50.11
870.002	43.95
870.292	48.97
870.582	41.09
870.871	92.73
871.161	66.46
871.45	73.5
871.739	36.25
872.029	73.04
872.318	97.99
872.607	55.45
872.896	55.13
873.185	23.6
873.474	56.24
873.763	33.33
874.052	58.16
874.341	59.44
874.63	74.74
874.918	87.28
875.207	27.54
875.496	62.85
875.784	55.2
876.073	71.86
876.361	46.19
876.649	62.8
876.938	46.76
877.226	52.14
877.514	47.23
877.802	78.43
878.09	56.35
878.378	65.26
878.666	86.3
878.954	73.21
879.242	77.48
879.53	51.81
879.817	53.45
880.105	61.81
880.392	79.49
880.68	53.84
880.967	47.81
881.255	46.28
881.542	65.17
881.83	47.88
882.117	80.29
882.404	89.87
882.691	45.75
882.978	31.33
883.265	46.67
883.552	51.81
883.839	54.81
884.126	52.58
884.413	58.22
884.699	61.73
884.986	62.32
885.273	59.8
885.559	59.8
885.846	59.8
