Data from 815657_forehead_Reflection__1__115.txt Node

Date: Fri Sep 16 15:35:52 CDT 2022
User: ToomeyLab
Spectrometer: FLMS14357
Trigger mode: 0
Integration Time (sec): 1.000000E-2
Scans to average: 100
Electric dark correction enabled: true
Nonlinearity correction enabled: false
Boxcar width: 0
XAxis mode: Wavelengths
Number of Pixels in Spectrum: 2048
>>>>>Begin Spectral Data<<<<<
189.047	325.46
189.435	325.46
189.823	325.46
190.211	112.27
190.599	19.74
190.987	61.74
191.375	120.52
191.763	89.21
192.151	1708.27
192.538	-984.62
192.926	-130.42
193.314	562.26
193.702	-29.72
194.089	79.53
194.477	-42
194.864	-43.29
195.252	50.89
195.639	478.55
196.027	-114.29
196.414	13.96
196.801	-427.08
197.189	122.51
197.576	-219.85
197.963	32.65
198.351	24.34
198.738	44.59
199.125	55.79
199.512	-58.7
199.899	19.57
200.286	30.63
200.673	52.28
201.06	56.01
201.447	74.02
201.833	12.3
202.22	73.32
202.607	-43.15
202.994	46.86
203.38	1.55
203.767	0.32
204.154	30.69
204.54	-2.73
204.927	50.95
205.313	22.11
205.699	31.59
206.086	64.26
206.472	39.11
206.858	31.35
207.245	13.62
207.631	19.34
208.017	38.23
208.403	2.03
208.789	9.41
209.175	23.25
209.561	19.67
209.947	51.24
210.333	59.21
210.719	5.08
211.105	3.34
211.491	14.04
211.876	35.22
212.262	28.02
212.648	29.1
213.034	39.1
213.419	11.06
213.805	10.99
214.19	-9.02
214.576	-13.28
214.961	15.43
215.346	-9.65
215.732	18.66
216.117	22.51
216.502	21.99
216.888	6.53
217.273	26.41
217.658	4.2
218.043	-26.55
218.428	27.44
218.813	40.6
219.198	32.49
219.583	17.25
219.968	17.23
220.353	2.18
220.738	31.18
221.122	13.01
221.507	33.06
221.892	23.85
222.276	17.11
222.661	16.17
223.046	15.61
223.43	17.57
223.815	-3.07
224.199	9.08
224.583	14.36
224.968	9.51
225.352	3.55
225.736	21.1
226.121	12.61
226.505	19.83
226.889	11.31
227.273	8.8
227.657	8.54
228.041	7.96
228.425	-0.21
228.809	9.09
229.193	4.98
229.577	4.24
229.961	4.1
230.344	6.01
230.728	4.61
231.112	5.12
231.495	4.17
231.879	5.48
232.263	4.69
232.646	4.86
233.03	7.02
233.413	6.28
233.797	4.96
234.18	7.84
234.563	5.2
234.946	4.43
235.33	4.77
235.713	4.1
236.096	4.37
236.479	6.06
236.862	5.95
237.245	4.84
237.628	6.72
238.011	5.45
238.394	5.35
238.777	6.23
239.16	4.79
239.543	7.97
239.925	5.9
240.308	5.33
240.691	5.28
241.073	5.71
241.456	5.18
241.838	4.33
242.221	4.83
242.603	4.91
242.986	3.9
243.368	4.58
243.75	4.71
244.133	4.66
244.515	4.48
244.897	5.14
245.279	4.6
245.661	4.98
246.043	5.09
246.425	4.44
246.807	5.99
247.189	4.65
247.571	4.33
247.953	4.76
248.335	4.57
248.717	4.58
249.098	4.69
249.48	4.62
249.862	4.84
250.243	5.05
250.625	4.88
251.006	5.76
251.388	5.49
251.769	4.02
252.151	5.39
252.532	4.69
252.913	4.63
253.295	5.37
253.676	5.33
254.057	4.72
254.438	4.24
254.819	4.32
255.2	4.06
255.581	5.55
255.962	5.11
256.343	5.51
256.724	4.19
257.105	3.61
257.486	5.19
257.867	5.5
258.247	5.43
258.628	5.21
259.009	5.02
259.389	4.55
259.77	4.27
260.15	4.95
260.531	4.34
260.911	4.35
261.292	4.39
261.672	4.58
262.052	4.52
262.432	4.53
262.813	5.12
263.193	4.77
263.573	4.8
263.953	4.78
264.333	4.95
264.713	4.51
265.093	3.98
265.473	4.16
265.853	5.33
266.233	4.49
266.612	5.99
266.992	3.82
267.372	4.35
267.752	4.4
268.131	4.62
268.511	5.59
268.89	5.46
269.27	4.4
269.649	4.75
270.029	4.51
270.408	5.01
270.787	4.6
271.167	4.82
271.546	5.03
271.925	4.64
272.304	5.15
272.683	4.41
273.062	4.53
273.441	4.82
273.82	4.65
274.199	4.89
274.578	4.72
274.957	5.01
275.336	5.17
275.715	5.04
276.093	4.66
276.472	4.65
276.851	4.68
277.229	4.05
277.608	4.87
277.986	4.81
278.365	4.01
278.743	4.53
279.122	4.61
279.5	4.56
279.878	4.93
280.257	4.82
280.635	4.71
281.013	4.46
281.391	4.56
281.769	5.21
282.147	4.82
282.525	4.72
282.903	4.48
283.281	4.75
283.659	4.46
284.037	4.59
284.415	4.7
284.792	5.18
285.17	5.25
285.548	4.64
285.925	4.2
286.303	5.1
286.68	4.41
287.058	4.48
287.435	4.43
287.813	5.01
288.19	4.41
288.567	4.64
288.945	4.44
289.322	4.8
289.699	4.79
290.076	4.57
290.453	4.9
290.83	4.86
291.207	4.68
291.584	4.4
291.961	4.41
292.338	4.97
292.715	4.53
293.092	5.12
293.469	5.24
293.845	5.06
294.222	5.01
294.599	4.74
294.975	4.82
295.352	4.92
295.728	4.55
296.105	5.38
296.481	4.75
296.858	5.08
297.234	5.32
297.61	5.49
297.986	5.19
298.363	5.23
298.739	4.78
299.115	5.46
299.491	5.19
299.867	5.02
300.243	5.19
300.619	5.91
300.995	5.21
301.371	5.24
301.746	5.43
302.122	5.46
302.498	5.47
302.874	5.77
303.249	5.57
303.625	5.58
304	5.68
304.376	5.53
304.751	5.82
305.127	5.86
305.502	5.5
305.878	5.68
306.253	5.97
306.628	5.49
307.003	5.95
307.378	6.28
307.754	5.99
308.129	6.68
308.504	6.17
308.879	6.44
309.254	6.54
309.629	5.79
310.003	6.36
310.378	5.75
310.753	6.31
311.128	5.91
311.502	6.15
311.877	6.52
312.252	6.56
312.626	6.58
313.001	6.23
313.375	6.55
313.75	6.63
314.124	6.86
314.498	6.72
314.873	7.38
315.247	6.44
315.621	7.03
315.995	6.68
316.369	6.66
316.743	7.35
317.117	6.84
317.491	6.87
317.865	7.13
318.239	6.88
318.613	7.23
318.987	6.65
319.361	6.65
319.734	6.98
320.108	7.05
320.482	7.34
320.855	7.29
321.229	7.59
321.602	7.92
321.976	7.56
322.349	7.55
322.723	7.63
323.096	7.89
323.469	8.13
323.843	8.39
324.216	7.93
324.589	7.37
324.962	7.56
325.335	7.88
325.708	8.04
326.081	7.68
326.454	8.18
326.827	7.86
327.2	7.9
327.573	7.91
327.945	8.36
328.318	8.05
328.691	8.14
329.063	8.39
329.436	8.14
329.809	8.13
330.181	8.53
330.553	8.06
330.926	8.42
331.298	8.7
331.671	8.59
332.043	8.31
332.415	8.43
332.787	9.26
333.159	8.82
333.532	9.13
333.904	8.61
334.276	8.73
334.648	8.59
335.02	9.27
335.391	9.41
335.763	9.03
336.135	8.69
336.507	9.33
336.879	9.56
337.25	8.73
337.622	9.51
337.993	9.54
338.365	9.36
338.736	10.08
339.108	9.55
339.479	9.47
339.851	9.27
340.222	9.39
340.593	9.54
340.964	9.78
341.336	9.9
341.707	9.74
342.078	9.99
342.449	9.63
342.82	9.76
343.191	9.71
343.562	10.32
343.933	10.42
344.303	10.48
344.674	9.74
345.045	10.52
345.416	10.12
345.786	10.3
346.157	10.6
346.527	10.36
346.898	9.9
347.268	10.58
347.639	10.14
348.009	10.52
348.38	10.53
348.75	10.46
349.12	10.92
349.49	10.98
349.861	11.23
350.231	10.76
350.601	11.16
350.971	11.08
351.341	11.26
351.711	11.15
352.081	11.39
352.45	11.83
352.82	11.51
353.19	11.35
353.56	11.36
353.929	11.29
354.299	11.25
354.669	11.33
355.038	11.18
355.408	11.51
355.777	11.66
356.147	11.41
356.516	11.71
356.885	11.58
357.254	11.87
357.624	11.9
357.993	11.97
358.362	11.51
358.731	12.09
359.1	11.74
359.469	11.95
359.838	12.11
360.207	12.42
360.576	12.05
360.945	12.24
361.314	12.45
361.682	11.92
362.051	12.46
362.42	12.85
362.788	12.71
363.157	12.43
363.525	12.39
363.894	12.75
364.262	12.75
364.631	12.65
364.999	12.83
365.367	12.75
365.735	13.21
366.104	13.44
366.472	13.52
366.84	13.49
367.208	13.65
367.576	13.41
367.944	13.2
368.312	13.62
368.68	13.54
369.048	13.85
369.416	13.75
369.783	13.71
370.151	14.21
370.519	13.75
370.886	13.98
371.254	14.21
371.621	14.13
371.989	14.1
372.356	14.37
372.724	14.28
373.091	14.11
373.458	14.21
373.826	14.27
374.193	14.67
374.56	14.22
374.927	14.16
375.294	14.63
375.661	14.69
376.028	14.68
376.395	14.52
376.762	14.99
377.129	14.99
377.496	14.74
377.863	14.81
378.229	15.2
378.596	15.03
378.963	15.11
379.329	15.25
379.696	15.32
380.062	15.05
380.429	15.34
380.795	15.5
381.161	15.97
381.528	15.77
381.894	15.83
382.26	15.58
382.626	15.78
382.993	15.81
383.359	15.97
383.725	16.09
384.091	16.04
384.457	15.79
384.823	16.03
385.188	16.01
385.554	15.83
385.92	16.32
386.286	16.36
386.651	16.33
387.017	16.39
387.383	16.22
387.748	16.23
388.114	16.75
388.479	16.6
388.845	16.78
389.21	17.14
389.575	16.83
389.94	16.95
390.306	16.93
390.671	17.07
391.036	16.97
391.401	17.34
391.766	17.1
392.131	17.4
392.496	17.22
392.861	17.31
393.226	17.56
393.591	17.41
393.956	17.26
394.32	17.89
394.685	17.59
395.05	17.64
395.414	17.82
395.779	18
396.143	17.95
396.508	17.96
396.872	18.08
397.236	18.06
397.601	18.17
397.965	18.31
398.329	18.23
398.694	18.49
399.058	18.66
399.422	18.46
399.786	18.66
400.15	18.74
400.514	18.71
400.878	19.01
401.242	18.91
401.605	18.74
401.969	19.05
402.333	19.23
402.697	19.18
403.06	19.44
403.424	19.3
403.787	19.42
404.151	19.32
404.514	19.33
404.878	19.12
405.241	19.43
405.604	19.57
405.968	19.59
406.331	19.67
406.694	19.45
407.057	19.71
407.42	19.72
407.783	20.07
408.146	20.22
408.509	20.05
408.872	20.16
409.235	20.27
409.598	20.45
409.961	20.33
410.323	20.25
410.686	20.72
411.049	20.47
411.411	20.29
411.774	20.73
412.136	20.48
412.499	20.97
412.861	20.99
413.223	21
413.586	21.08
413.948	20.92
414.31	21.17
414.672	21.04
415.035	21.25
415.397	21.37
415.759	21.29
416.121	21.4
416.483	21.53
416.845	21.58
417.206	21.65
417.568	21.49
417.93	21.86
418.292	21.76
418.653	21.54
419.015	21.57
419.377	21.75
419.738	21.76
420.1	21.73
420.461	22.02
420.822	21.59
421.184	21.81
421.545	21.88
421.906	21.96
422.267	21.94
422.629	21.71
422.99	21.82
423.351	21.87
423.712	21.98
424.073	22.25
424.434	22.27
424.795	22.31
425.155	22.39
425.516	22.43
425.877	22.29
426.238	22.58
426.598	22.61
426.959	22.64
427.32	22.83
427.68	23.09
428.041	23.13
428.401	23.43
428.761	23.66
429.122	23.75
429.482	23.67
429.842	23.75
430.202	23.93
430.563	23.8
430.923	23.94
431.283	24.32
431.643	24.25
432.003	24.12
432.363	24.11
432.722	24.48
433.082	24.29
433.442	24.55
433.802	24.53
434.161	24.43
434.521	24.55
434.881	24.45
435.24	24.5
435.6	24.77
435.959	24.64
436.319	24.98
436.678	24.83
437.037	25
437.396	25.02
437.756	25.32
438.115	25.33
438.474	25.21
438.833	25.27
439.192	25.46
439.551	25.27
439.91	25.52
440.269	25.69
440.628	25.56
440.987	25.58
441.345	25.63
441.704	25.69
442.063	25.72
442.421	25.64
442.78	25.71
443.138	25.8
443.497	25.98
443.855	26.11
444.214	26.13
444.572	26.51
444.93	26.43
445.288	26.25
445.647	26.51
446.005	26.48
446.363	26.65
446.721	26.57
447.079	26.51
447.437	26.68
447.795	26.45
448.153	26.59
448.51	26.55
448.868	26.63
449.226	26.74
449.584	26.86
449.941	27.06
450.299	27.16
450.656	27.26
451.014	27.22
451.371	27.79
451.729	27.57
452.086	27.82
452.443	27.87
452.801	27.88
453.158	28.04
453.515	27.96
453.872	28.07
454.229	28.04
454.586	28.23
454.943	28.1
455.3	28.51
455.657	28.31
456.014	28.38
456.371	28.5
456.727	28.6
457.084	29.03
457.441	28.76
457.797	29.06
458.154	29.02
458.51	29.04
458.867	28.98
459.223	29.11
459.58	29.36
459.936	29.08
460.292	29.15
460.648	28.9
461.005	29.02
461.361	28.73
461.717	28.75
462.073	29.07
462.429	29.08
462.785	29.5
463.141	29.78
463.496	29.57
463.852	29.94
464.208	30
464.564	30.22
464.919	30.12
465.275	30.31
465.631	30.56
465.986	30.42
466.342	30.45
466.697	30.51
467.052	30.62
467.408	30.84
467.763	30.79
468.118	30.67
468.473	30.72
468.829	30.99
469.184	30.74
469.539	31.03
469.894	31.15
470.249	31.37
470.603	31.39
470.958	31.29
471.313	31.19
471.668	31.33
472.023	31.41
472.377	31.79
472.732	31.55
473.086	31.54
473.441	31.57
473.795	32.02
474.15	32.05
474.504	31.9
474.859	31.96
475.213	32.07
475.567	31.97
475.921	32.34
476.275	32.35
476.63	32.45
476.984	32.7
477.338	32.56
477.692	32.43
478.045	32.56
478.399	32.55
478.753	32.66
479.107	32.94
479.461	32.63
479.814	32.95
480.168	32.85
480.521	32.85
480.875	33.07
481.228	33.03
481.582	33.08
481.935	33.19
482.289	33.15
482.642	33.26
482.995	33.19
483.348	33.24
483.701	33
484.055	32.97
484.408	32.78
484.761	32.63
485.114	32.28
485.466	32.29
485.819	32.42
486.172	32.63
486.525	32.73
486.878	32.94
487.23	33.11
487.583	33.34
487.936	33.4
488.288	33.38
488.641	33.11
488.993	33.03
489.345	33.14
489.698	33.25
490.05	33.39
490.402	33.5
490.754	33.9
491.107	34.05
491.459	34.18
491.811	34.27
492.163	34.23
492.515	34.24
492.866	34.06
493.218	33.76
493.57	33.88
493.922	34.07
494.274	34.46
494.625	34.7
494.977	34.92
495.328	35.13
495.68	35.49
496.031	35.48
496.383	35.68
496.734	35.72
497.086	35.91
497.437	35.86
497.788	35.84
498.139	35.8
498.49	35.74
498.842	35.7
499.193	35.85
499.544	36.02
499.894	35.96
500.245	36.2
500.596	36.28
500.947	36.42
501.298	36.54
501.648	36.7
501.999	36.72
502.35	36.91
502.7	37.04
503.051	37.17
503.401	37.17
503.752	37.16
504.102	37.32
504.452	37.16
504.803	37.38
505.153	37.28
505.503	37.37
505.853	37.48
506.203	37.57
506.553	37.44
506.903	37.83
507.253	37.73
507.603	37.75
507.953	38.03
508.303	37.9
508.652	37.66
509.002	38.17
509.352	37.84
509.701	38
510.051	38.09
510.4	38.03
510.75	38.02
511.099	37.99
511.449	37.97
511.798	38.11
512.147	38.12
512.496	38.33
512.846	38.45
513.195	38.53
513.544	38.63
513.893	38.48
514.242	38.47
514.591	38.66
514.939	38.79
515.288	39.14
515.637	39.14
515.986	38.93
516.334	39.12
516.683	39.35
517.032	39.49
517.38	39.51
517.729	39.66
518.077	39.42
518.426	39.65
518.774	39.49
519.122	39.38
519.47	39.24
519.819	39.2
520.167	39.16
520.515	39.13
520.863	39.39
521.211	39.47
521.559	39.6
521.907	39.9
522.255	40.03
522.602	40.07
522.95	40.3
523.298	40.27
523.645	40.49
523.993	40.48
524.341	40.48
524.688	40.55
525.036	40.68
525.383	40.65
525.73	40.8
526.078	40.8
526.425	40.58
526.772	40.38
527.119	40.06
527.466	40.25
527.814	40.32
528.161	40.48
528.508	40.53
528.854	40.73
529.201	40.57
529.548	40.37
529.895	40.02
530.242	40.05
530.588	40.28
530.935	40.46
531.282	40.6
531.628	40.62
531.975	40.76
532.321	41
532.667	41.24
533.014	41.4
533.36	41.29
533.706	41.47
534.052	41.49
534.399	41.42
534.745	41.09
535.091	41.06
535.437	41.18
535.783	41.31
536.129	41.73
536.474	41.98
536.82	42.03
537.166	41.97
537.512	42.19
537.857	42.22
538.203	42.07
538.549	41.97
538.894	42.24
539.239	42.52
539.585	42.68
539.93	42.7
540.276	43.15
540.621	43.32
540.966	43.23
541.311	43.2
541.656	43.12
542.001	42.97
542.346	42.86
542.691	42.39
543.036	42.21
543.381	42.3
543.726	42.56
544.071	42.75
544.415	42.95
544.76	43.16
545.105	43.22
545.449	43.17
545.794	43.59
546.138	43.64
546.483	43.87
546.827	43.95
547.171	43.99
547.516	43.85
547.86	44.15
548.204	44.08
548.548	43.95
548.892	43.97
549.236	44.22
549.58	44.49
549.924	44.61
550.268	44.8
550.612	45.04
550.956	45.18
551.3	45.33
551.643	45.4
551.987	45.65
552.33	45.45
552.674	45.24
553.017	45.56
553.361	45.81
553.704	45.6
554.048	45.47
554.391	45.31
554.734	45.79
555.077	45.46
555.42	45.85
555.764	45.87
556.107	46.09
556.45	46.02
556.793	46.34
557.135	46.48
557.478	46.33
557.821	46.48
558.164	46.64
558.507	46.6
558.849	46.42
559.192	46.81
559.534	46.72
559.877	46.75
560.219	46.91
560.562	46.88
560.904	47.13
561.246	47.01
561.589	47.11
561.931	47.14
562.273	46.94
562.615	47.21
562.957	47.09
563.299	47.17
563.641	47.22
563.983	47.51
564.325	47.63
564.667	47.49
565.008	47.6
565.35	47.69
565.692	47.57
566.033	47.81
566.375	47.88
566.716	47.94
567.058	47.66
567.399	47.63
567.741	47.73
568.082	47.72
568.423	47.63
568.764	47.91
569.105	47.89
569.447	47.97
569.788	48.3
570.129	48.37
570.47	48.55
570.811	48.44
571.151	48.45
571.492	48.48
571.833	48.52
572.174	48.73
572.514	48.64
572.855	48.53
573.195	48.53
573.536	48.17
573.876	48.46
574.217	48.51
574.557	48.81
574.898	48.9
575.238	49.28
575.578	48.82
575.918	49.05
576.258	49.18
576.598	49.26
576.938	49.17
577.278	49.06
577.618	48.96
577.958	49.41
578.298	49.67
578.638	49.33
578.977	49.66
579.317	49.61
579.657	49.85
579.996	49.67
580.336	50.13
580.675	49.91
581.014	50.53
581.354	50.32
581.693	50.39
582.032	50.69
582.372	50.5
582.711	50.49
583.05	50.69
583.389	50.43
583.728	50.87
584.067	50.68
584.406	50.75
584.745	50.68
585.083	50.71
585.422	51.21
585.761	50.97
586.1	50.83
586.438	51.42
586.777	50.63
587.115	51.32
587.454	51.48
587.792	51.05
588.13	51.24
588.469	51.5
588.807	51.36
589.145	51.46
589.483	51.55
589.821	51.63
590.159	51.46
590.497	51.43
590.835	52.03
591.173	51.76
591.511	51.31
591.849	51.78
592.187	51.98
592.524	51.76
592.862	51.92
593.2	51.88
593.537	51.78
593.875	52.23
594.212	51.91
594.55	52.22
594.887	52.21
595.224	52.19
595.561	52.44
595.899	52.24
596.236	52.42
596.573	52.22
596.91	52.37
597.247	52.64
597.584	52.66
597.921	51.91
598.258	52.17
598.594	51.99
598.931	52.31
599.268	52.24
599.604	52.22
599.941	52.78
600.277	52.54
600.614	52.79
600.95	52.96
601.287	53.19
601.623	53.11
601.959	53.3
602.296	53.41
602.632	53.66
602.968	53.18
603.304	53.67
603.64	53.4
603.976	53.33
604.312	53.16
604.648	53.52
604.984	53.19
605.319	53.22
605.655	53.44
605.991	53.09
606.326	53.22
606.662	53.13
606.998	53.46
607.333	53.65
607.668	53.53
608.004	53.61
608.339	53.77
608.674	53.78
609.01	54.36
609.345	54.03
609.68	53.93
610.015	54.12
610.35	54.04
610.685	54.37
611.02	54.14
611.355	54.06
611.689	54.3
612.024	54.55
612.359	54.1
612.694	54.3
613.028	54.45
613.363	54.44
613.697	54.83
614.032	54.79
614.366	54.95
614.7	54.86
615.035	54.9
615.369	55.14
615.703	54.61
616.037	54.81
616.371	55.11
616.705	55.09
617.039	55.62
617.373	55.5
617.707	55.55
618.041	55.34
618.375	55.52
618.709	55.56
619.042	55.18
619.376	55.56
619.71	55.95
620.043	55.35
620.377	55.66
620.71	55.59
621.043	55.73
621.377	55.89
621.71	55.86
622.043	55.96
622.376	56.02
622.709	55.93
623.043	55.87
623.376	55.85
623.709	56.21
624.041	56.15
624.374	56.25
624.707	56.65
625.04	56.14
625.373	56.18
625.705	56.17
626.038	56.56
626.37	56.82
626.703	56.71
627.035	56.67
627.368	56.51
627.7	56.77
628.032	56.74
628.365	56.56
628.697	56.49
629.029	56.77
629.361	56.64
629.693	56.74
630.025	56.83
630.357	57.08
630.689	56.87
631.021	56.96
631.353	57.16
631.684	57.25
632.016	57.01
632.348	57.61
632.679	56.57
633.011	56.92
633.342	57.38
633.674	57.31
634.005	57.53
634.336	57.24
634.668	57.84
634.999	57.32
635.33	57.53
635.661	57.65
635.992	57.38
636.323	57.6
636.654	57.79
636.985	58.14
637.316	57.78
637.647	57.58
637.977	57.96
638.308	58.36
638.639	58.47
638.969	58.06
639.3	58.02
639.63	57.78
639.961	58.3
640.291	58.4
640.622	58.67
640.952	58.05
641.282	58.67
641.612	58.51
641.943	58.79
642.273	58.66
642.603	59.09
642.933	58.71
643.263	58.25
643.592	59.51
643.922	58.85
644.252	58.96
644.582	58.94
644.911	59.12
645.241	59.31
645.571	59.04
645.9	59.74
646.23	59.33
646.559	59.54
646.888	58.73
647.218	59.5
647.547	59.53
647.876	59.12
648.205	59.45
648.534	59.43
648.863	59.71
649.192	59.37
649.521	59.34
649.85	59.91
650.179	59.83
650.508	59.83
650.837	59.22
651.165	60.24
651.494	59.13
651.822	59.59
652.151	60.31
652.479	59.75
652.808	59.7
653.136	60.16
653.465	59.52
653.793	59.62
654.121	59.99
654.449	60.3
654.777	60
655.105	60.02
655.433	59.6
655.761	60.2
656.089	60.63
656.417	60.44
656.745	60.13
657.073	60.65
657.4	60.3
657.728	60.66
658.056	59.95
658.383	60.35
658.711	60.62
659.038	60.25
659.365	60.66
659.693	60.34
660.02	61.12
660.347	60.57
660.674	60.53
661.001	60.78
661.329	60.35
661.656	60.41
661.982	60.54
662.309	60.25
662.636	60.68
662.963	60.73
663.29	60.57
663.616	60.39
663.943	60.88
664.27	61.31
664.596	61.38
664.923	61.15
665.249	61.33
665.576	61.4
665.902	61.68
666.228	60.59
666.554	61.33
666.881	61.77
667.207	61.8
667.533	61.29
667.859	61.05
668.185	61.29
668.511	61.87
668.837	61.31
669.162	61.63
669.488	62.15
669.814	61.47
670.139	61.96
670.465	62.16
670.791	62.07
671.116	61.63
671.442	61.65
671.767	61.92
672.092	61.84
672.418	61.94
672.743	61.88
673.068	62.46
673.393	61.75
673.718	61.6
674.043	61.81
674.368	61.87
674.693	62.93
675.018	61.51
675.343	62.6
675.667	61.96
675.992	61.51
676.317	61.96
676.641	62.2
676.966	62.49
677.29	62.44
677.615	62.44
677.939	62.34
678.264	63.45
678.588	62.42
678.912	62.01
679.236	62.57
679.56	62.59
679.885	62.47
680.209	62.69
680.532	63.23
680.856	62.44
681.18	62.61
681.504	63.17
681.828	62.78
682.152	62.94
682.475	62.98
682.799	62.82
683.122	63.22
683.446	62.59
683.769	63.19
684.093	63.28
684.416	63.75
684.739	63.12
685.062	63.71
685.386	62.99
685.709	63.38
686.032	62.84
686.355	63.61
686.678	63.14
687.001	62.84
687.324	63.3
687.646	62.7
687.969	63.61
688.292	62.95
688.614	63.99
688.937	63.3
689.26	63.49
689.582	62.63
689.904	63.43
690.227	63.7
690.549	63.29
690.871	63.9
691.194	64.27
691.516	63.73
691.838	64.04
692.16	63.98
692.482	63.58
692.804	63.62
693.126	64.18
693.448	63.87
693.769	63.27
694.091	63.75
694.413	64.53
694.735	63.96
695.056	64.48
695.378	63.22
695.699	64.75
696.021	63.56
696.342	64.1
696.663	64.22
696.984	64.13
697.306	64.59
697.627	64.25
697.948	64.94
698.269	64.42
698.59	64.25
698.911	64.53
699.232	64.9
699.553	64.85
699.873	65.2
700.194	64.56
700.515	64.57
700.835	65.14
701.156	64.41
701.477	65.23
701.797	65.44
702.117	64.83
702.438	64.62
702.758	64.72
703.078	63.98
703.398	65.33
703.719	65.21
704.039	65.76
704.359	64.75
704.679	64.96
704.999	64.65
705.319	65.22
705.638	65.67
705.958	64.6
706.278	65.71
706.597	64.81
706.917	65.23
707.237	66.38
707.556	65.98
707.876	65.08
708.195	65.13
708.514	64.99
708.834	66.59
709.153	64.88
709.472	66.04
709.791	65.18
710.11	65.89
710.429	65.47
710.748	64.99
711.067	65.95
711.386	65.37
711.705	65.54
712.023	64.95
712.342	65.81
712.661	65.73
712.979	65.92
713.298	66.18
713.616	65.59
713.935	65.7
714.253	65.99
714.572	65.99
714.89	66.05
715.208	66.81
715.526	66.61
715.844	66.24
716.162	66.35
716.48	65.64
716.798	66.72
717.116	67.12
717.434	66.58
717.752	67.41
718.069	66.87
718.387	66.99
718.705	66.8
719.022	65.61
719.34	66.35
719.657	66.9
719.975	66.8
720.292	67.37
720.609	66.17
720.927	65.09
721.244	67.14
721.561	66.4
721.878	65.83
722.195	65.96
722.512	66.95
722.829	64.32
723.146	67.04
723.463	65.74
723.779	66.77
724.096	65.74
724.413	66.62
724.729	66.43
725.046	65.72
725.362	68.03
725.679	66.43
725.995	67.88
726.311	65.92
726.628	68.08
726.944	67.83
727.26	66.59
727.576	67.04
727.892	67.93
728.208	67.89
728.524	67.37
728.84	66.3
729.156	67.59
729.472	67.61
729.787	66.34
730.103	68.2
730.419	67.82
730.734	67.12
731.05	67.55
731.365	66.81
731.681	67.68
731.996	67.29
732.311	68.11
732.626	66.28
732.942	68.18
733.257	67.36
733.572	68.49
733.887	67.52
734.202	66.59
734.517	68.25
734.832	65.88
735.146	67.98
735.461	66.79
735.776	66.74
736.091	66.6
736.405	67.8
736.72	67.23
737.034	66.36
737.349	68.25
737.663	67.97
737.977	67.19
738.292	67.89
738.606	67.78
738.92	67.57
739.234	68.19
739.548	67.43
739.862	66.9
740.176	67.48
740.49	67.35
740.804	67.81
741.117	68.22
741.431	67.32
741.745	69.1
742.058	68.63
742.372	67.85
742.685	66.01
742.999	68.45
743.312	68.21
743.626	67.76
743.939	68.75
744.252	67.89
744.565	67.71
744.878	66.27
745.191	68.52
745.505	66.78
745.817	69.24
746.13	68.17
746.443	70.3
746.756	68.57
747.069	68.52
747.381	68.8
747.694	69.36
748.007	69.37
748.319	70.13
748.632	68.33
748.944	67.2
749.256	67.16
749.569	69.3
749.881	67.02
750.193	70.14
750.505	68.64
750.817	68.05
751.129	69.44
751.441	69.38
751.753	68.38
752.065	69.08
752.377	69.71
752.689	67.83
753	68.73
753.312	68.05
753.624	67.75
753.935	71.46
754.247	69.64
754.558	69.25
754.869	69.23
755.181	68.49
755.492	69.42
755.803	67.98
756.114	68.62
756.425	69.1
756.736	71.22
757.047	69.53
757.358	68.52
757.669	68.15
757.98	70.68
758.291	71.52
758.601	68.82
758.912	70.61
759.223	68.7
759.533	70.06
759.844	69.36
760.154	69.64
760.464	67.53
760.775	70.15
761.085	69.23
761.395	69.81
761.705	71.7
762.016	70.37
762.326	69.34
762.636	71.06
762.945	67.23
763.255	70.05
763.565	68.4
763.875	70.07
764.185	70.13
764.494	69
764.804	71.29
765.113	68.05
765.423	70.45
765.732	70.57
766.042	69.13
766.351	70.79
766.66	70.51
766.97	69.27
767.279	69.95
767.588	69.41
767.897	70.67
768.206	70.13
768.515	70.43
768.824	72.61
769.133	71.86
769.441	70.78
769.75	68.89
770.059	68.46
770.367	70.86
770.676	69.41
770.984	71.45
771.293	68.72
771.601	69.61
771.91	71.87
772.218	70.93
772.526	70.31
772.834	70.38
773.142	70.38
773.45	70.59
773.758	68.89
774.066	70.33
774.374	69.98
774.682	73.56
774.99	73.23
775.298	74.28
775.605	71.63
775.913	69.49
776.22	69.46
776.528	70.44
776.835	73.04
777.143	70.66
777.45	72.23
777.757	73.85
778.065	71.35
778.372	72.08
778.679	68.75
778.986	72.25
779.293	71.32
779.6	71.38
779.907	72.64
780.214	73.5
780.52	74.2
780.827	69.55
781.134	70.13
781.44	72.03
781.747	71.41
782.053	71.01
782.36	71.21
782.666	72.07
782.973	68.83
783.279	74.51
783.585	73.91
783.891	72.15
784.197	70.98
784.503	68.58
784.809	72.2
785.115	67.66
785.421	72.29
785.727	68.31
786.033	69.11
786.339	71.22
786.644	69.15
786.95	71.18
787.255	69.6
787.561	69.51
787.866	71.72
788.172	70.6
788.477	72.55
788.782	72.29
789.088	72.97
789.393	70.49
789.698	67.68
790.003	71.67
790.308	74.8
790.613	72.67
790.918	70.48
791.223	69.55
791.527	72.86
791.832	71.47
792.137	69.33
792.441	73.23
792.746	66.48
793.05	67.55
793.355	74.26
793.659	74.17
793.963	68.1
794.268	69.41
794.572	72.68
794.876	71.35
795.18	67.04
795.484	75.19
795.788	74.46
796.092	72.97
796.396	70.8
796.7	73.47
797.004	75.14
797.307	74.35
797.611	71.31
797.915	72.08
798.218	69.19
798.522	69.38
798.825	72.86
799.128	66.58
799.432	69.93
799.735	74.92
800.038	73.48
800.341	74.58
800.644	73.08
800.947	69.14
801.25	68.99
801.553	73.23
801.856	68.65
802.159	70.2
802.462	74.59
802.764	69.02
803.067	71.19
803.37	71.09
803.672	75.38
803.975	70.07
804.277	74.07
804.579	69.95
804.882	72.26
805.184	70.16
805.486	67.01
805.788	70.58
806.09	72.43
806.392	70.53
806.694	69.75
806.996	69.32
807.298	69.42
807.6	66.85
807.902	71.92
808.203	70.39
808.505	73.55
808.807	73.01
809.108	75.8
809.409	74.23
809.711	67.83
810.012	71.37
810.313	73.95
810.615	71.52
810.916	74.29
811.217	73
811.518	72.18
811.819	70.7
812.12	70.34
812.421	72.19
812.722	71.25
813.023	75.09
813.323	70.87
813.624	74.21
813.925	72.07
814.225	74.72
814.526	73.1
814.826	76.44
815.126	70.1
815.427	71.79
815.727	70.65
816.027	72.01
816.327	71.55
816.627	70.05
816.927	70.87
817.227	73.12
817.527	72.73
817.827	80.24
818.127	73.84
818.427	78.24
818.727	71.35
819.026	73.13
819.326	70.14
819.625	74
819.925	71.79
820.224	66.57
820.524	77.96
820.823	73.32
821.122	71.73
821.421	75.41
821.72	80.31
822.019	72.48
822.318	73.88
822.617	71.27
822.916	74.6
823.215	71.66
823.514	71.75
823.813	71.94
824.111	76.41
824.41	75.43
824.709	73.45
825.007	73.3
825.306	73.87
825.604	72.95
825.902	73.85
826.201	75
826.499	74.42
826.797	74.19
827.095	73.65
827.393	75.05
827.691	73.62
827.989	75.24
828.287	74.82
828.585	72.72
828.882	74.59
829.18	73.42
829.478	74.01
829.775	72.67
830.073	74.37
830.37	75.74
830.668	73.87
830.965	74.77
831.263	74.3
831.56	77.11
831.857	72.86
832.154	69.8
832.451	73.2
832.748	72
833.045	73.05
833.342	75.66
833.639	73.36
833.936	73.14
834.232	70.32
834.529	74.51
834.826	71
835.122	77.29
835.419	74.59
835.715	77.66
836.012	72.87
836.308	73.23
836.604	74.2
836.901	74.8
837.197	73.05
837.493	74.18
837.789	71.28
838.085	78.06
838.381	71.38
838.677	76.15
838.972	73.01
839.268	77.31
839.564	75.69
839.86	69.67
840.155	74.37
840.451	71.52
840.746	66.33
841.042	77.12
841.337	74.2
841.632	79.53
841.928	75.64
842.223	71.11
842.518	77.64
842.813	70.43
843.108	74.86
843.403	76.62
843.698	74.99
843.993	73.97
844.287	71.66
844.582	76.6
844.877	79.71
845.171	71.81
845.466	68.67
845.761	77.79
846.055	85.5
846.349	71.78
846.644	52.31
846.938	82.14
847.232	76.09
847.526	81.21
847.82	68.08
848.114	73.35
848.408	86.86
848.702	60.84
848.996	78.2
849.29	54.85
849.584	86.42
849.877	91.47
850.171	68.24
850.465	64.65
850.758	65.96
851.052	73.65
851.345	68.52
851.638	86.37
851.932	87.42
852.225	73.08
852.518	83.04
852.811	76.89
853.104	51.2
853.397	48.13
853.69	77.94
853.983	62.49
854.276	71.48
854.569	69.71
854.861	71.7
855.154	64
855.447	49.94
855.739	75.49
856.032	87.8
856.324	95.89
856.616	77.54
856.909	90.03
857.201	83.55
857.493	71.95
857.785	72.96
858.077	56.23
858.369	62.22
858.661	79.98
858.953	57.28
859.245	68.94
859.537	83.57
859.829	79.5
860.12	80.18
860.412	76.3
860.703	67.22
860.995	46.64
861.286	71.96
861.578	75.48
861.869	75.29
862.16	66.37
862.452	75.68
862.743	67.8
863.034	77.8
863.325	79.76
863.616	67.26
863.907	82.15
864.198	78.62
864.488	77.1
864.779	82.11
865.07	70.81
865.36	65.14
865.651	46.26
865.941	63.92
866.232	89
866.522	70.42
866.813	94.7
867.103	64.78
867.393	69.53
867.683	88.81
867.973	61.63
868.263	59
868.553	73.74
868.843	62.87
869.133	75.21
869.423	59.77
869.713	76.36
870.002	85.01
870.292	70.72
870.582	71.53
870.871	61.61
871.161	65.25
871.45	66.96
871.739	78.82
872.029	58.09
872.318	79.45
872.607	76.99
872.896	101.39
873.185	23.97
873.474	71.27
873.763	74.33
874.052	63.76
874.341	48.63
874.63	111.65
874.918	52.69
875.207	78.49
875.496	96.63
875.784	71.76
876.073	49.21
876.361	68.6
876.649	80.25
876.938	65.18
877.226	93.9
877.514	55.13
877.802	50.68
878.09	64.97
878.378	72.56
878.666	99.04
878.954	65.92
879.242	84.41
879.53	78.97
879.817	74.51
880.105	77.3
880.392	43.27
880.68	77.19
880.967	67.42
881.255	74.45
881.542	54.79
881.83	82
882.117	100.58
882.404	81.32
882.691	94.5
882.978	82.39
883.265	78.54
883.552	68.37
883.839	81.35
884.126	57
884.413	71.53
884.699	69.94
884.986	75.47
885.273	78.24
885.559	78.24
885.846	78.24
