Data from 815657_forehead_Reflection__3__117.txt Node

Date: Fri Sep 16 15:36:42 CDT 2022
User: ToomeyLab
Spectrometer: FLMS14357
Trigger mode: 0
Integration Time (sec): 1.000000E-2
Scans to average: 100
Electric dark correction enabled: true
Nonlinearity correction enabled: false
Boxcar width: 0
XAxis mode: Wavelengths
Number of Pixels in Spectrum: 2048
>>>>>Begin Spectral Data<<<<<
189.047	133.56
189.435	133.56
189.823	133.56
190.211	94.19
190.599	107.62
190.987	106.18
191.375	87.74
191.763	174.3
192.151	-631.2
192.538	1788.46
192.926	80.94
193.314	331.56
193.702	237.62
194.089	-46.55
194.477	55.25
194.864	-240.58
195.252	-14.22
195.639	-159.67
196.027	-1273.15
196.414	-48.32
196.801	89.85
197.189	-11.15
197.576	384.35
197.963	89.25
198.351	-26.48
198.738	45.84
199.125	37.34
199.512	-101.95
199.899	93.69
200.286	37.12
200.673	4.45
201.06	10.42
201.447	-4.25
201.833	30.74
202.22	75.96
202.607	-12.6
202.994	35.21
203.38	22.43
203.767	13.21
204.154	48.62
204.54	7.5
204.927	17.04
205.313	39.53
205.699	74.01
206.086	61.29
206.472	59.68
206.858	21.84
207.245	23.26
207.631	43.75
208.017	13.24
208.403	17.86
208.789	2.37
209.175	27.64
209.561	44.57
209.947	19.98
210.333	-3.34
210.719	12.44
211.105	2.87
211.491	22.95
211.876	28.15
212.262	9.86
212.648	34.61
213.034	13.78
213.419	1.55
213.805	41.99
214.19	33.78
214.576	31.3
214.961	-4.81
215.346	24.73
215.732	-30.08
216.117	45.01
216.502	14.37
216.888	-38.23
217.273	24.19
217.658	23.33
218.043	-35.31
218.428	9.52
218.813	33.06
219.198	23.13
219.583	1.21
219.968	3.36
220.353	22.96
220.738	17.08
221.122	-4.31
221.507	29.7
221.892	10.75
222.276	19.67
222.661	-2.29
223.046	25.57
223.43	15.61
223.815	11.49
224.199	14.7
224.583	17.68
224.968	11.41
225.352	14.3
225.736	14.56
226.121	16.8
226.505	8.31
226.889	3.96
227.273	11.67
227.657	7.35
228.041	10.9
228.425	1.78
228.809	10.72
229.193	7.65
229.577	7.84
229.961	4.89
230.344	5.29
230.728	5.14
231.112	5.43
231.495	4.71
231.879	4.85
232.263	5.11
232.646	5.8
233.03	5.95
233.413	6.57
233.797	3.19
234.18	8.41
234.563	4.66
234.946	4.71
235.33	5.34
235.713	3.99
236.096	4.35
236.479	6.36
236.862	5.7
237.245	4.38
237.628	6.96
238.011	7.45
238.394	5.75
238.777	6.85
239.16	5.98
239.543	6.63
239.925	5.9
240.308	4.36
240.691	7.16
241.073	6.5
241.456	4.33
241.838	4.55
242.221	4.79
242.603	5.74
242.986	4.4
243.368	4.83
243.75	4.75
244.133	5.24
244.515	4.92
244.897	5.29
245.279	5.25
245.661	5.73
246.043	5.25
246.425	5.31
246.807	4.79
247.189	5.26
247.571	5.39
247.953	5.19
248.335	4.89
248.717	4.96
249.098	4.94
249.48	4.82
249.862	5.18
250.243	5.15
250.625	5.49
251.006	5.16
251.388	5.19
251.769	4.44
252.151	4.82
252.532	5.6
252.913	4.87
253.295	5.58
253.676	5.4
254.057	4.72
254.438	4.4
254.819	3.81
255.2	4.93
255.581	5.75
255.962	5.75
256.343	5.68
256.724	5.27
257.105	5.1
257.486	4.73
257.867	5.86
258.247	5.9
258.628	5.87
259.009	5.36
259.389	4.93
259.77	4.48
260.15	5.61
260.531	5.19
260.911	4.84
261.292	4.72
261.672	4.86
262.052	4.66
262.432	4.96
262.813	5.35
263.193	4.71
263.573	5.71
263.953	5.06
264.333	5.13
264.713	4.86
265.093	5.72
265.473	5.29
265.853	5.55
266.233	4.88
266.612	5.81
266.992	4.01
267.372	5.01
267.752	4.78
268.131	4.88
268.511	5.23
268.89	5.56
269.27	4.39
269.649	4.45
270.029	4.66
270.408	5.24
270.787	4.95
271.167	4.55
271.546	5.36
271.925	5.25
272.304	5.19
272.683	4.51
273.062	4.74
273.441	4.89
273.82	4.96
274.199	4.9
274.578	4.63
274.957	5.13
275.336	4.85
275.715	5.33
276.093	5.16
276.472	5.01
276.851	4.83
277.229	4.77
277.608	5.46
277.986	4.95
278.365	4.38
278.743	4.84
279.122	4.72
279.5	5.09
279.878	4.95
280.257	5.04
280.635	5.59
281.013	4.75
281.391	5.4
281.769	5.64
282.147	4.8
282.525	4.75
282.903	5.04
283.281	4.87
283.659	5.24
284.037	4.64
284.415	5.25
284.792	5.41
285.17	5.66
285.548	4.88
285.925	5.02
286.303	5.05
286.68	4.69
287.058	4.96
287.435	4.55
287.813	5.05
288.19	4.67
288.567	4.91
288.945	5.14
289.322	5.31
289.699	4.72
290.076	4.96
290.453	5.13
290.83	4.8
291.207	4.92
291.584	4.78
291.961	5.08
292.338	5.14
292.715	5.12
293.092	5.07
293.469	5.01
293.845	4.88
294.222	5.05
294.599	5.05
294.975	5.21
295.352	5.36
295.728	5.11
296.105	5.31
296.481	5.08
296.858	5.11
297.234	5.13
297.61	5.55
297.986	5.61
298.363	5.39
298.739	4.83
299.115	5.51
299.491	5.79
299.867	5.46
300.243	5.54
300.619	6.03
300.995	5.31
301.371	5.86
301.746	5.71
302.122	5.98
302.498	5.97
302.874	5.69
303.249	6.19
303.625	5.47
304	5.9
304.376	6.04
304.751	6.15
305.127	5.62
305.502	5.94
305.878	6.01
306.253	5.85
306.628	5.88
307.003	6.38
307.378	6.21
307.754	6.9
308.129	6.82
308.504	6.42
308.879	6.33
309.254	6.25
309.629	6.09
310.003	6.31
310.378	6.02
310.753	6.81
311.128	6.47
311.502	6.35
311.877	6.44
312.252	6.84
312.626	6.7
313.001	6.47
313.375	6.84
313.75	6.82
314.124	6.62
314.498	6.73
314.873	7.33
315.247	7.15
315.621	7.14
315.995	6.99
316.369	7.28
316.743	7.2
317.117	6.96
317.491	6.95
317.865	7.83
318.239	7.41
318.613	6.95
318.987	6.91
319.361	7.54
319.734	7.57
320.108	7.4
320.482	7.47
320.855	7.35
321.229	7.57
321.602	7.92
321.976	7.98
322.349	7.97
322.723	8.06
323.096	8.25
323.469	8.17
323.843	9.09
324.216	8.08
324.589	8.16
324.962	7.78
325.335	8.31
325.708	8.05
326.081	8.22
326.454	8.63
326.827	8.27
327.2	8.25
327.573	7.8
327.945	8.2
328.318	8.28
328.691	8.42
329.063	8
329.436	8.1
329.809	8.09
330.181	8.67
330.553	8.75
330.926	8.38
331.298	8.67
331.671	8.69
332.043	8.48
332.415	8.8
332.787	9.08
333.159	8.8
333.532	8.55
333.904	8.7
334.276	8.59
334.648	9.07
335.02	9.1
335.391	9.28
335.763	9.17
336.135	8.88
336.507	9.18
336.879	9.71
337.25	8.69
337.622	9.59
337.993	9.52
338.365	9.81
338.736	9.74
339.108	9.29
339.479	9.68
339.851	9.38
340.222	9.81
340.593	9.83
340.964	9.92
341.336	10.01
341.707	9.93
342.078	10.22
342.449	9.83
342.82	9.7
343.191	9.81
343.562	10.34
343.933	10.41
344.303	10.36
344.674	9.66
345.045	10.58
345.416	10.23
345.786	10.25
346.157	10.62
346.527	10.64
346.898	10.1
347.268	10.85
347.639	10.42
348.009	10.06
348.38	11.02
348.75	10.48
349.12	11.15
349.49	10.96
349.861	10.93
350.231	10.97
350.601	10.85
350.971	11.25
351.341	11.49
351.711	11.35
352.081	11.2
352.45	11.43
352.82	11.52
353.19	11.19
353.56	11.47
353.929	11.62
354.299	11.51
354.669	11.6
355.038	11.7
355.408	11.32
355.777	11.52
356.147	11.71
356.516	12.22
356.885	11.66
357.254	11.92
357.624	11.56
357.993	11.86
358.362	11.84
358.731	12.18
359.1	11.97
359.469	11.87
359.838	12.09
360.207	12.34
360.576	12.23
360.945	12.27
361.314	12.39
361.682	12.13
362.051	12.76
362.42	12.85
362.788	12.73
363.157	12.64
363.525	12.54
363.894	12.65
364.262	12.42
364.631	12.87
364.999	13
365.367	12.77
365.735	13.02
366.104	12.96
366.472	13.25
366.84	13.34
367.208	13.26
367.576	13.22
367.944	13.23
368.312	13.15
368.68	13.57
369.048	13.61
369.416	13.36
369.783	13.61
370.151	13.85
370.519	13.46
370.886	13.69
371.254	13.92
371.621	13.93
371.989	14.04
372.356	14.28
372.724	14.36
373.091	14.05
373.458	13.85
373.826	14.07
374.193	14.46
374.56	14.27
374.927	14.07
375.294	14.53
375.661	14.43
376.028	14.83
376.395	14.28
376.762	14.75
377.129	14.47
377.496	14.67
377.863	14.78
378.229	15.14
378.596	14.54
378.963	15.03
379.329	14.73
379.696	15
380.062	14.97
380.429	15.27
380.795	15.24
381.161	15.63
381.528	15.17
381.894	15.56
382.26	15.34
382.626	15.52
382.993	15.4
383.359	15.56
383.725	15.58
384.091	15.62
384.457	15.75
384.823	15.58
385.188	15.59
385.554	15.81
385.92	16.01
386.286	15.98
386.651	16.19
387.017	16.15
387.383	15.85
387.748	15.89
388.114	16.09
388.479	16
388.845	16.51
389.21	16.69
389.575	16.61
389.94	16.62
390.306	16.46
390.671	16.7
391.036	16.95
391.401	16.64
391.766	16.87
392.131	16.96
392.496	16.68
392.861	17.09
393.226	16.87
393.591	17.13
393.956	16.87
394.32	17.2
394.685	17.17
395.05	17.44
395.414	17.2
395.779	17.4
396.143	17.42
396.508	17.34
396.872	17.49
397.236	17.71
397.601	17.58
397.965	17.52
398.329	17.74
398.694	17.76
399.058	17.87
399.422	17.97
399.786	18.03
400.15	17.97
400.514	18.22
400.878	18.13
401.242	18.34
401.605	18.29
401.969	18.06
402.333	18.51
402.697	18.5
403.06	18.71
403.424	18.56
403.787	18.56
404.151	18.62
404.514	18.79
404.878	18.67
405.241	18.56
405.604	18.89
405.968	18.97
406.331	19.01
406.694	18.99
407.057	18.92
407.42	18.8
407.783	19.19
408.146	19.25
408.509	19.29
408.872	19.51
409.235	19.38
409.598	19.53
409.961	19.49
410.323	19.63
410.686	20.02
411.049	19.43
411.411	19.87
411.774	19.85
412.136	19.76
412.499	20.08
412.861	20.16
413.223	20.06
413.586	20.05
413.948	20.15
414.31	20.18
414.672	20.35
415.035	20.47
415.397	20.51
415.759	20.76
416.121	20.47
416.483	20.57
416.845	20.71
417.206	20.65
417.568	20.87
417.93	20.96
418.292	20.78
418.653	20.65
419.015	20.73
419.377	20.86
419.738	20.81
420.1	20.8
420.461	20.71
420.822	20.79
421.184	20.84
421.545	20.91
421.906	21
422.267	20.99
422.629	20.82
422.99	20.8
423.351	21.03
423.712	20.96
424.073	21.26
424.434	21.31
424.795	21.19
425.155	21.42
425.516	21.23
425.877	21.32
426.238	21.36
426.598	21.41
426.959	21.55
427.32	21.65
427.68	21.85
428.041	21.83
428.401	21.96
428.761	22.48
429.122	22.37
429.482	22.51
429.842	22.5
430.202	22.72
430.563	22.74
430.923	22.68
431.283	23
431.643	22.83
432.003	23.1
432.363	23.16
432.722	23.19
433.082	23
433.442	23.14
433.802	23.14
434.161	23.26
434.521	23.3
434.881	23.18
435.24	23.03
435.6	23.44
435.959	23.3
436.319	23.46
436.678	23.61
437.037	23.58
437.396	23.67
437.756	23.86
438.115	23.89
438.474	23.98
438.833	24.09
439.192	24.18
439.551	24.25
439.91	24.01
440.269	24.28
440.628	24.29
440.987	24.17
441.345	24.22
441.704	24.31
442.063	24.3
442.421	24.28
442.78	24.35
443.138	24.38
443.497	24.39
443.855	24.6
444.214	24.63
444.572	24.83
444.93	24.89
445.288	25
445.647	24.94
446.005	25.11
446.363	25.04
446.721	25.11
447.079	25.13
447.437	25.07
447.795	24.98
448.153	24.89
448.51	24.85
448.868	24.98
449.226	25.06
449.584	25.29
449.941	25.5
450.299	25.6
450.656	25.75
451.014	25.72
451.371	25.89
451.729	25.99
452.086	26.1
452.443	26.19
452.801	26.27
453.158	26.24
453.515	26.36
453.872	26.4
454.229	26.44
454.586	26.49
454.943	26.34
455.3	26.57
455.657	26.75
456.014	26.8
456.371	26.91
456.727	27.03
457.084	27.19
457.441	27.11
457.797	27.06
458.154	27.29
458.51	27.4
458.867	27.23
459.223	27.61
459.58	27.51
459.936	27.43
460.292	27.48
460.648	27.39
461.005	27.37
461.361	27.2
461.717	27.14
462.073	27.19
462.429	27.22
462.785	27.61
463.141	27.7
463.496	27.79
463.852	27.99
464.208	28.15
464.564	28.29
464.919	28.33
465.275	28.37
465.631	28.61
465.986	28.9
466.342	28.63
466.697	28.64
467.052	28.69
467.408	29.04
467.763	28.84
468.118	28.8
468.473	29.04
468.829	29.13
469.184	29.23
469.539	28.85
469.894	29.1
470.249	29.22
470.603	29.52
470.958	29.14
471.313	29.39
471.668	29.57
472.023	29.62
472.377	29.55
472.732	29.84
473.086	29.82
473.441	29.59
473.795	29.81
474.15	29.94
474.504	30.08
474.859	30.09
475.213	30.12
475.567	29.85
475.921	30.34
476.275	30.33
476.63	30.61
476.984	30.52
477.338	30.46
477.692	30.56
478.045	30.71
478.399	30.59
478.753	30.52
479.107	30.64
479.461	30.71
479.814	30.85
480.168	30.72
480.521	30.88
480.875	30.81
481.228	30.97
481.582	30.85
481.935	31.08
482.289	31.11
482.642	31.1
482.995	31.03
483.348	30.99
483.701	30.98
484.055	30.75
484.408	30.8
484.761	30.53
485.114	30.39
485.466	30.28
485.819	30.36
486.172	30.24
486.525	30.31
486.878	30.37
487.23	30.61
487.583	30.93
487.936	31.06
488.288	31.09
488.641	31.04
488.993	30.97
489.345	30.89
489.698	30.9
490.05	31.04
490.402	30.93
490.754	31.28
491.107	31.5
491.459	31.76
491.811	31.8
492.163	31.97
492.515	32.09
492.866	31.94
493.218	31.69
493.57	31.74
493.922	31.79
494.274	31.91
494.625	32.13
494.977	32.26
495.328	32.65
495.68	32.86
496.031	33.08
496.383	33.29
496.734	33.36
497.086	33.65
497.437	33.57
497.788	33.71
498.139	33.5
498.49	33.39
498.842	33.42
499.193	33.33
499.544	33.44
499.894	33.54
500.245	33.9
500.596	33.75
500.947	33.91
501.298	34.15
501.648	34.27
501.999	34.3
502.35	34.55
502.7	34.67
503.051	34.82
503.401	34.77
503.752	34.86
504.102	34.83
504.452	34.89
504.803	34.95
505.153	35.16
505.503	35
505.853	34.92
506.203	35.01
506.553	35.23
506.903	35.1
507.253	35.28
507.603	35.27
507.953	35.49
508.303	35.33
508.652	35.35
509.002	35.8
509.352	35.53
509.701	35.51
510.051	35.73
510.4	35.55
510.75	35.49
511.099	35.66
511.449	35.44
511.798	35.57
512.147	35.56
512.496	35.84
512.846	35.84
513.195	36.05
513.544	35.99
513.893	35.97
514.242	35.89
514.591	36.17
514.939	36.35
515.288	36.51
515.637	36.64
515.986	36.64
516.334	36.55
516.683	36.86
517.032	36.89
517.38	37.1
517.729	37.04
518.077	37.08
518.426	37.2
518.774	37.02
519.122	36.97
519.47	36.95
519.819	36.7
520.167	36.69
520.515	36.65
520.863	36.77
521.211	36.65
521.559	36.94
521.907	37.14
522.255	37.27
522.602	37.37
522.95	37.77
523.298	37.62
523.645	37.76
523.993	37.92
524.341	38.04
524.688	38.03
525.036	38.2
525.383	38.12
525.73	38.22
526.078	38.23
526.425	38.05
526.772	37.89
527.119	37.75
527.466	37.84
527.814	37.87
528.161	37.93
528.508	37.84
528.854	38.05
529.201	38.04
529.548	37.97
529.895	37.65
530.242	37.71
530.588	37.79
530.935	37.78
531.282	37.58
531.628	37.83
531.975	37.94
532.321	38.18
532.667	38.42
533.014	38.75
533.36	38.6
533.706	38.72
534.052	38.92
534.399	38.86
534.745	38.74
535.091	38.6
535.437	38.52
535.783	38.7
536.129	38.95
536.474	38.97
536.82	39.26
537.166	39.51
537.512	39.61
537.857	39.73
538.203	39.71
538.549	39.38
538.894	39.57
539.239	39.71
539.585	39.85
539.93	39.98
540.276	40.35
540.621	40.48
540.966	40.53
541.311	40.58
541.656	40.7
542.001	40.37
542.346	40.44
542.691	40.07
543.036	39.77
543.381	39.72
543.726	39.88
544.071	39.97
544.415	40.06
544.76	40.24
545.105	40.42
545.449	40.66
545.794	40.76
546.138	40.87
546.483	41.13
546.827	41.27
547.171	41.4
547.516	41.27
547.86	41.44
548.204	41.47
548.548	41.32
548.892	41.22
549.236	41.49
549.58	41.72
549.924	41.87
550.268	42.1
550.612	42.1
550.956	42.43
551.3	42.69
551.643	42.96
551.987	42.91
552.33	42.99
552.674	42.75
553.017	42.85
553.361	42.89
553.704	43.11
554.048	42.93
554.391	42.96
554.734	42.99
555.077	43.23
555.42	43.18
555.764	43.31
556.107	43.32
556.45	43.18
556.793	43.66
557.135	43.6
557.478	43.71
557.821	43.76
558.164	44.09
558.507	43.95
558.849	43.78
559.192	44.16
559.534	44.19
559.877	44.41
560.219	44.39
560.562	44.46
560.904	44.62
561.246	44.47
561.589	44.6
561.931	44.55
562.273	44.56
562.615	44.79
562.957	44.56
563.299	44.72
563.641	44.63
563.983	45.08
564.325	44.75
564.667	45.03
565.008	44.66
565.35	45.03
565.692	45.02
566.033	45.1
566.375	45.19
566.716	45.19
567.058	45.41
567.399	45.12
567.741	45.21
568.082	45.08
568.423	45.21
568.764	45.26
569.105	45.27
569.447	45.39
569.788	45.33
570.129	45.82
570.47	45.8
570.811	45.89
571.151	45.78
571.492	45.83
571.833	45.96
572.174	45.77
572.514	46.14
572.855	45.94
573.195	46.23
573.536	45.83
573.876	46.12
574.217	45.88
574.557	46.08
574.898	46.24
575.238	46.45
575.578	46.18
575.918	46.44
576.258	46.37
576.598	46.54
576.938	46.56
577.278	46.53
577.618	46.37
577.958	46.79
578.298	46.93
578.638	46.94
578.977	46.85
579.317	47.48
579.657	47.14
579.996	47.19
580.336	47.33
580.675	47.45
581.014	47.94
581.354	47.83
581.693	47.84
582.032	47.94
582.372	47.77
582.711	48.14
583.05	48.22
583.389	47.97
583.728	48.03
584.067	48.39
584.406	48.1
584.745	48.36
585.083	48.23
585.422	48.54
585.761	48.31
586.1	48.15
586.438	48.69
586.777	48.11
587.115	48.47
587.454	48.85
587.792	48.73
588.13	48.93
588.469	48.7
588.807	48.84
589.145	48.68
589.483	49
589.821	49.25
590.159	49.09
590.497	49.01
590.835	49.24
591.173	49.15
591.511	48.96
591.849	49.03
592.187	49.34
592.524	48.73
592.862	49.19
593.2	49.22
593.537	49.51
593.875	49.4
594.212	49.61
594.55	49.73
594.887	49.85
595.224	49.57
595.561	49.91
595.899	50.1
596.236	49.69
596.573	49.69
596.91	49.77
597.247	49.6
597.584	50.03
597.921	50.04
598.258	49.93
598.594	49.9
598.931	49.94
599.268	50.07
599.604	49.95
599.941	50.28
600.277	49.97
600.614	50.17
600.95	50.18
601.287	50.71
601.623	50.66
601.959	50.57
602.296	51.45
602.632	51.27
602.968	50.76
603.304	50.81
603.64	50.94
603.976	51.17
604.312	50.99
604.648	51.08
604.984	51.05
605.319	50.95
605.655	51.16
605.991	50.97
606.326	50.81
606.662	50.8
606.998	50.93
607.333	51.18
607.668	51.05
608.004	51.25
608.339	51.13
608.674	51.29
609.01	51.74
609.345	51.89
609.68	51.61
610.015	51.64
610.35	51.85
610.685	51.57
611.02	51.84
611.355	51.49
611.689	51.74
612.024	51.8
612.359	51.81
612.694	52.04
613.028	52.05
613.363	52.15
613.697	52.34
614.032	52.4
614.366	52.66
614.7	52.43
615.035	52.57
615.369	52.45
615.703	52.64
616.037	52.81
616.371	53.39
616.705	52.92
617.039	53.15
617.373	53
617.707	52.83
618.041	53.46
618.375	52.87
618.709	53.15
619.042	53.21
619.376	53.07
619.71	53.15
620.043	53.23
620.377	53.41
620.71	53.66
621.043	53.62
621.377	53.24
621.71	53.46
622.043	53.77
622.376	53.95
622.709	53.72
623.043	53.61
623.376	53.9
623.709	53.43
624.041	53.9
624.374	54.12
624.707	54.46
625.04	53.93
625.373	53.98
625.705	54.42
626.038	54.58
626.37	55.19
626.703	54.36
627.035	54.39
627.368	54.79
627.7	54.75
628.032	54.62
628.365	54.07
628.697	54.26
629.029	54.52
629.361	54.1
629.693	54.47
630.025	54.04
630.357	54.57
630.689	54.64
631.021	54.69
631.353	54.72
631.684	54.65
632.016	54.86
632.348	55.44
632.679	55
633.011	54.79
633.342	54.93
633.674	55.6
634.005	55.13
634.336	55.73
634.668	55.24
634.999	55.09
635.33	55.2
635.661	55.24
635.992	55.27
636.323	55.57
636.654	55.73
636.985	55.71
637.316	55.84
637.647	55.68
637.977	55.63
638.308	56.19
638.639	56.36
638.969	56.1
639.3	55.75
639.63	55.11
639.961	56.11
640.291	55.96
640.622	56.54
640.952	56.04
641.282	56.28
641.612	56.64
641.943	56.44
642.273	56.43
642.603	56.74
642.933	56.48
643.263	56.65
643.592	56.97
643.922	56.77
644.252	56.82
644.582	56.59
644.911	57.03
645.241	57.05
645.571	56.94
645.9	57.53
646.23	56.96
646.559	56.84
646.888	56.33
647.218	57.61
647.547	57.35
647.876	57.7
648.205	57.28
648.534	56.82
648.863	57
649.192	57.07
649.521	57.52
649.85	57.72
650.179	57.19
650.508	57.72
650.837	57.11
651.165	58.03
651.494	58.21
651.822	57.7
652.151	57.34
652.479	57.65
652.808	57.93
653.136	57.3
653.465	57.71
653.793	57.49
654.121	58.25
654.449	57.76
654.777	58.08
655.105	57.99
655.433	58.08
655.761	58.21
656.089	58.23
656.417	58.33
656.745	57.93
657.073	57.96
657.4	58.41
657.728	58.15
658.056	57.9
658.383	58.22
658.711	58.39
659.038	58.09
659.365	58.48
659.693	58.79
660.02	58.9
660.347	58.09
660.674	58.37
661.001	58.52
661.329	58.4
661.656	58.16
661.982	58.48
662.309	57.82
662.636	58.36
662.963	58.83
663.29	58.45
663.616	58.8
663.943	58.86
664.27	59.05
664.596	58.66
664.923	58.89
665.249	59.34
665.576	59.3
665.902	59.55
666.228	59.58
666.554	59.17
666.881	59.16
667.207	59.39
667.533	59.48
667.859	59.38
668.185	59.52
668.511	59.41
668.837	59.01
669.162	59.63
669.488	60.4
669.814	59.2
670.139	59.77
670.465	59.31
670.791	60.1
671.116	59.62
671.442	59.26
671.767	59.14
672.092	60.03
672.418	60.09
672.743	60.2
673.068	60.63
673.393	59.54
673.718	60.17
674.043	60.53
674.368	59.94
674.693	60.53
675.018	60.01
675.343	60.67
675.667	60.65
675.992	59.47
676.317	59.81
676.641	59.98
676.966	60.78
677.29	61.04
677.615	60.26
677.939	60.4
678.264	60.58
678.588	60.04
678.912	61.02
679.236	60.72
679.56	60.69
679.885	60.58
680.209	60.55
680.532	61.01
680.856	60.89
681.18	60.39
681.504	60.54
681.828	61.56
682.152	60.72
682.475	61.18
682.799	60.5
683.122	60.37
683.446	60.79
683.769	61.44
684.093	61.53
684.416	61.26
684.739	61.11
685.062	62.13
685.386	61.38
685.709	61.56
686.032	61.93
686.355	61.44
686.678	61.63
687.001	61.24
687.324	61.91
687.646	61.23
687.969	61.83
688.292	60.96
688.614	62.27
688.937	61.93
689.26	61.94
689.582	61.52
689.904	62.6
690.227	62.61
690.549	61.55
690.871	61.49
691.194	62.4
691.516	61.6
691.838	62.67
692.16	61.98
692.482	61.55
692.804	61.66
693.126	62.01
693.448	62.07
693.769	60.98
694.091	62.72
694.413	62.58
694.735	62.76
695.056	62.27
695.378	62.42
695.699	62.52
696.021	62.55
696.342	61.83
696.663	62.41
696.984	62.82
697.306	63.66
697.627	63.36
697.948	63.81
698.269	63.06
698.59	63.11
698.911	62.73
699.232	62.9
699.553	62.93
699.873	63.42
700.194	62.64
700.515	62.71
700.835	63.14
701.156	62.48
701.477	62.89
701.797	62.99
702.117	62.44
702.438	62.53
702.758	62.38
703.078	62.78
703.398	63.39
703.719	63.24
704.039	63.12
704.359	62.49
704.679	63.87
704.999	62.71
705.319	63.91
705.638	63.78
705.958	63.33
706.278	63.68
706.597	63.23
706.917	64.26
707.237	64.25
707.556	63.23
707.876	63.16
708.195	64.3
708.514	63.08
708.834	65
709.153	63.88
709.472	65.4
709.791	63.18
710.11	62.85
710.429	64.01
710.748	64.19
711.067	64.25
711.386	63.55
711.705	63.69
712.023	63.09
712.342	62.82
712.661	65.22
712.979	63.76
713.298	64.33
713.616	64.86
713.935	64.67
714.253	63.88
714.572	62.7
714.89	64.22
715.208	64.4
715.526	64.91
715.844	64.89
716.162	64.24
716.48	64.74
716.798	64.5
717.116	64.58
717.434	65.98
717.752	65.02
718.069	65.53
718.387	64.44
718.705	65.57
719.022	63.81
719.34	63.98
719.657	65.39
719.975	64.09
720.292	65.9
720.609	65.18
720.927	63.6
721.244	65.35
721.561	64.92
721.878	64.6
722.195	64.64
722.512	64.69
722.829	63.34
723.146	65.71
723.463	65.07
723.779	64.95
724.096	64.94
724.413	64.07
724.729	64.73
725.046	65.34
725.362	65.59
725.679	66.21
725.995	65.2
726.311	65.2
726.628	65.63
726.944	66.21
727.26	65.23
727.576	65.22
727.892	65.76
728.208	66.26
728.524	66.22
728.84	64.42
729.156	64.53
729.472	65.32
729.787	65.84
730.103	65.26
730.419	65.99
730.734	65.53
731.05	66.94
731.365	66.12
731.681	65.13
731.996	65.12
732.311	66.6
732.626	64.52
732.942	64.55
733.257	65.48
733.572	66.75
733.887	66.14
734.202	66.55
734.517	66.63
734.832	65.6
735.146	66.4
735.461	65.34
735.776	66.57
736.091	65.79
736.405	65.23
736.72	66.54
737.034	66.61
737.349	66.89
737.663	66.26
737.977	65.34
738.292	67.24
738.606	65.84
738.92	66.27
739.234	67
739.548	65.15
739.862	66.45
740.176	65.89
740.49	66.04
740.804	66.85
741.117	67.12
741.431	66.74
741.745	66.65
742.058	67.88
742.372	66.35
742.685	65.42
742.999	65.49
743.312	66.5
743.626	66.89
743.939	65.66
744.252	67.15
744.565	66.34
744.878	64.94
745.191	66.05
745.505	65.99
745.817	66.45
746.13	67.82
746.443	68.15
746.756	66.38
747.069	66.8
747.381	65.89
747.694	66.9
748.007	66.62
748.319	66.72
748.632	67.56
748.944	66.01
749.256	68.3
749.569	66.48
749.881	64.48
750.193	65.84
750.505	65.73
750.817	67.93
751.129	67.16
751.441	67.97
751.753	67.64
752.065	66.15
752.377	67.12
752.689	66.69
753	68.17
753.312	66.83
753.624	66.84
753.935	68.89
754.247	68.35
754.558	69.45
754.869	65.23
755.181	66.61
755.492	67.87
755.803	66.26
756.114	67.25
756.425	68.06
756.736	69.39
757.047	68.7
757.358	67.25
757.669	68.56
757.98	68.44
758.291	68.04
758.601	68.74
758.912	69.38
759.223	68.72
759.533	71.18
759.844	67.05
760.154	68.14
760.464	65.64
760.775	67.96
761.085	68.84
761.395	66.61
761.705	68.2
762.016	68.17
762.326	67.11
762.636	69.82
762.945	68.46
763.255	68.15
763.565	68.16
763.875	66.44
764.185	69.67
764.494	69.11
764.804	69.2
765.113	67.54
765.423	69.66
765.732	68.84
766.042	67.79
766.351	69.07
766.66	70.05
766.97	68.51
767.279	68.72
767.588	67.77
767.897	68.19
768.206	67.88
768.515	69.6
768.824	68.71
769.133	68.04
769.441	69.94
769.75	69.89
770.059	65.29
770.367	69.75
770.676	68.72
770.984	69.83
771.293	68.35
771.601	68.46
771.91	70
772.218	68.05
772.526	67.79
772.834	67.43
773.142	68.17
773.45	68.86
773.758	69.24
774.066	70.64
774.374	71.12
774.682	69.79
774.99	67.75
775.298	68.92
775.605	68.51
775.913	69.53
776.22	68.31
776.528	67.52
776.835	69.94
777.143	67.93
777.45	67.22
777.757	66.99
778.065	71.58
778.372	69.42
778.679	69.41
778.986	71.61
779.293	70.96
779.6	69.11
779.907	71.05
780.214	72.35
780.52	69.97
780.827	68.36
781.134	70.04
781.44	69.43
781.747	71.34
782.053	70.67
782.36	70.33
782.666	69.24
782.973	67.8
783.279	69.2
783.585	69.84
783.891	70.86
784.197	69.1
784.503	70.77
784.809	66.71
785.115	66.6
785.421	68.84
785.727	69.47
786.033	68.75
786.339	69.08
786.644	69.37
786.95	72.55
787.255	67.66
787.561	69.14
787.866	67.67
788.172	69.4
788.477	73.14
788.782	71.03
789.088	69.84
789.393	69.24
789.698	67.72
790.003	70.48
790.308	69.76
790.613	71.11
790.918	71.05
791.223	67.04
791.527	68.94
791.832	71.71
792.137	71.49
792.441	70.42
792.746	68.23
793.05	68.58
793.355	71.99
793.659	71.46
793.963	71.03
794.268	72.16
794.572	69.72
794.876	68.67
795.18	72.34
795.484	69.21
795.788	70.88
796.092	73.27
796.396	73.65
796.7	68.04
797.004	74.23
797.307	70.87
797.611	72.45
797.915	71.52
798.218	67.83
798.522	69.17
798.825	69.83
799.128	69.65
799.432	68.79
799.735	72.01
800.038	70.23
800.341	71.29
800.644	68.61
800.947	69.47
801.25	71.3
801.553	71
801.856	70.89
802.159	73.41
802.462	71.33
802.764	70.55
803.067	72.71
803.37	71.67
803.672	71.53
803.975	71.51
804.277	73.41
804.579	66.11
804.882	68.67
805.184	72.23
805.486	65.98
805.788	71.15
806.09	68.2
806.392	71.13
806.694	69.81
806.996	67.84
807.298	70.73
807.6	71.03
807.902	75.44
808.203	67.06
808.505	68.64
808.807	70.28
809.108	68.92
809.409	69.11
809.711	69.96
810.012	68.95
810.313	71.52
810.615	73.97
810.916	75.16
811.217	73.35
811.518	69.39
811.819	74.25
812.12	71.9
812.421	73.22
812.722	68.4
813.023	72.92
813.323	69.35
813.624	74.19
813.925	70.41
814.225	71.47
814.526	71.33
814.826	74.6
815.126	67.83
815.427	69.59
815.727	69.42
816.027	66.57
816.327	73.66
816.627	68.02
816.927	70.87
817.227	71.03
817.527	71.44
817.827	71.37
818.127	73.02
818.427	73.53
818.727	69.68
819.026	68.79
819.326	69.48
819.625	76.21
819.925	71.92
820.224	67.96
820.524	75.34
820.823	74.41
821.122	73.81
821.421	77.48
821.72	75.61
822.019	67.04
822.318	72.84
822.617	70.36
822.916	71.52
823.215	71.87
823.514	72.8
823.813	71.66
824.111	74.81
824.41	73.18
824.709	71.96
825.007	72.9
825.306	72.09
825.604	71.82
825.902	73.55
826.201	73.04
826.499	73.69
826.797	73.48
827.095	71.55
827.393	71.74
827.691	70.23
827.989	74.01
828.287	73.81
828.585	73.41
828.882	72.99
829.18	71.11
829.478	75.17
829.775	73.49
830.073	71.27
830.37	72.18
830.668	71.57
830.965	72.04
831.263	73.11
831.56	74.08
831.857	69.42
832.154	69.19
832.451	70.28
832.748	70.66
833.045	75.87
833.342	72.39
833.639	72.89
833.936	73.02
834.232	71.32
834.529	72.27
834.826	73.67
835.122	68.22
835.419	75.35
835.715	77.3
836.012	72.14
836.308	73.73
836.604	73.57
836.901	70.66
837.197	75.7
837.493	71.77
837.789	71.7
838.085	75.32
838.381	72.44
838.677	72.23
838.972	71
839.268	78.46
839.564	72.06
839.86	70.31
840.155	74.8
840.451	70.57
840.746	69.98
841.042	68.2
841.337	70.15
841.632	70.37
841.928	71.83
842.223	75.08
842.518	67.75
842.813	68.04
843.108	69.29
843.403	74.07
843.698	67.83
843.993	73.86
844.287	76.42
844.582	70.1
844.877	74.23
845.171	69.24
845.466	66.41
845.761	62.79
846.055	75.91
846.349	66.99
846.644	61.41
846.938	79.33
847.232	76.48
847.526	63.31
847.82	68.22
848.114	82.25
848.408	80.94
848.702	58.29
848.996	72.15
849.29	62.78
849.584	84.39
849.877	74.01
850.171	67.93
850.465	71.82
850.758	59.25
851.052	87.94
851.345	67.97
851.638	68.97
851.932	71.59
852.225	52.1
852.518	67.16
852.811	71.95
853.104	65.86
853.397	74.83
853.69	84.28
853.983	50.43
854.276	69.19
854.569	64.39
854.861	65.28
855.154	84.52
855.447	48.2
855.739	64.86
856.032	80.79
856.324	82.63
856.616	101.66
856.909	81.49
857.201	65.93
857.493	64.26
857.785	71.27
858.077	52.09
858.369	58.47
858.661	60.72
858.953	64.71
859.245	67.02
859.537	93.24
859.829	84.74
860.12	69.73
860.412	72.3
860.703	68.75
860.995	72.65
861.286	68.8
861.578	71.69
861.869	83.3
862.16	82.78
862.452	71.91
862.743	65.02
863.034	69.4
863.325	101.31
863.616	65.9
863.907	62.8
864.198	95.42
864.488	76.35
864.779	61.77
865.07	51.15
865.36	78.21
865.651	77.17
865.941	101.71
866.232	87.47
866.522	65.45
866.813	91.41
867.103	50.78
867.393	85.32
867.683	67.85
867.973	58.06
868.263	49.91
868.553	96.77
868.843	61.46
869.133	50.27
869.423	85.91
869.713	72.97
870.002	85.36
870.292	69.3
870.582	67.31
870.871	98
871.161	84.1
871.45	40.59
871.739	78.21
872.029	68.89
872.318	61.8
872.607	60.29
872.896	72.48
873.185	81.58
873.474	95.71
873.763	66.51
874.052	57.87
874.341	69.05
874.63	48.96
874.918	39.17
875.207	72.24
875.496	66.85
875.784	47.68
876.073	49.03
876.361	38.92
876.649	82.59
876.938	73.34
877.226	78.66
877.514	54.53
877.802	66.26
878.09	62.76
878.378	68.82
878.666	63.52
878.954	81.85
879.242	49.65
879.53	84.54
879.817	66.54
880.105	75.67
880.392	63.63
880.68	85.51
880.967	64
881.255	83.8
881.542	88.66
881.83	62.31
882.117	73.04
882.404	89.38
882.691	57.47
882.978	53.33
883.265	72.46
883.552	76.14
883.839	52.55
884.126	65.41
884.413	61.01
884.699	79.89
884.986	78.76
885.273	78.22
885.559	78.22
885.846	78.22
