Data from 815657_crown_Reflection__3__123.txt Node

Date: Fri Sep 16 15:38:24 CDT 2022
User: ToomeyLab
Spectrometer: FLMS14357
Trigger mode: 0
Integration Time (sec): 1.000000E-2
Scans to average: 100
Electric dark correction enabled: true
Nonlinearity correction enabled: false
Boxcar width: 0
XAxis mode: Wavelengths
Number of Pixels in Spectrum: 2048
>>>>>Begin Spectral Data<<<<<
189.047	102.5
189.435	102.5
189.823	102.5
190.211	125.89
190.599	22.3
190.987	85.25
191.375	121.63
191.763	24.48
192.151	-546.24
192.538	-3926.92
192.926	6.15
193.314	463.67
193.702	670.74
194.089	215.54
194.477	-382.22
194.864	-457.21
195.252	-12.54
195.639	-87.46
196.027	-103.2
196.414	105.26
196.801	-392.75
197.189	102.82
197.576	817.18
197.963	314.21
198.351	-8.24
198.738	59.25
199.125	25.7
199.512	-33.2
199.899	35.82
200.286	-0.34
200.673	-8.95
201.06	-3.3
201.447	13.83
201.833	18.33
202.22	13.36
202.607	-28.04
202.994	12.68
203.38	-61.65
203.767	5.39
204.154	-25.41
204.54	-8.49
204.927	4.92
205.313	12.67
205.699	23.55
206.086	31.49
206.472	-8.33
206.858	43.48
207.245	5.04
207.631	21.01
208.017	26.58
208.403	-4.82
208.789	-26.42
209.175	26.7
209.561	43.42
209.947	21.35
210.333	-11.23
210.719	-9.3
211.105	-10.32
211.491	-10.83
211.876	9.11
212.262	19.49
212.648	-33.97
213.034	-25.08
213.419	-36.32
213.805	21.24
214.19	25.59
214.576	-6.74
214.961	27.6
215.346	-17.5
215.732	-31.03
216.117	19.1
216.502	28.92
216.888	-14.27
217.273	-10.53
217.658	-12.24
218.043	-44.38
218.428	2.54
218.813	8.37
219.198	-16.81
219.583	4.67
219.968	9.01
220.353	-15.21
220.738	11.82
221.122	-19.25
221.507	10.92
221.892	7.86
222.276	9.43
222.661	11.64
223.046	14.49
223.43	10.74
223.815	0.4
224.199	9.08
224.583	10.94
224.968	1.9
225.352	10.33
225.736	16.5
226.121	12.55
226.505	5.89
226.889	10.56
227.273	7.13
227.657	8.69
228.041	5.57
228.425	-1.18
228.809	6.43
229.193	4.13
229.577	8.53
229.961	7.29
230.344	7.95
230.728	8.11
231.112	7.49
231.495	7.53
231.879	7.76
232.263	5.69
232.646	7.26
233.03	6.9
233.413	7.64
233.797	8.51
234.18	7.46
234.563	7.6
234.946	6.36
235.33	8.23
235.713	8.74
236.096	6.36
236.479	7.34
236.862	7.57
237.245	7.89
237.628	9.27
238.011	9.25
238.394	6.75
238.777	8.9
239.16	8.03
239.543	5.66
239.925	7.13
240.308	8.13
240.691	8.02
241.073	6.58
241.456	6.83
241.838	7.42
242.221	7.43
242.603	7.16
242.986	6.62
243.368	6.92
243.75	7.13
244.133	7.54
244.515	7.31
244.897	7.56
245.279	6.89
245.661	7.11
246.043	6.61
246.425	6.4
246.807	6.52
247.189	6.73
247.571	7.05
247.953	6.73
248.335	7.18
248.717	6.92
249.098	7.04
249.48	7.08
249.862	7.02
250.243	7
250.625	6.94
251.006	6.95
251.388	7.05
251.769	6.01
252.151	6.39
252.532	6.73
252.913	6.84
253.295	7.26
253.676	7.45
254.057	6.67
254.438	5.7
254.819	6.17
255.2	6.46
255.581	6.69
255.962	5.78
256.343	6.86
256.724	5.7
257.105	5.14
257.486	7.28
257.867	6.68
258.247	7.4
258.628	6.69
259.009	6.58
259.389	6.54
259.77	6.11
260.15	6.74
260.531	6.19
260.911	6.38
261.292	6.5
261.672	6.57
262.052	6.28
262.432	6.25
262.813	6.95
263.193	6.51
263.573	6.45
263.953	6.75
264.333	6.19
264.713	5.91
265.093	6
265.473	5.7
265.853	6.64
266.233	6.31
266.612	7.59
266.992	5.82
267.372	5.89
267.752	5.91
268.131	6.46
268.511	6.45
268.89	6.77
269.27	5.9
269.649	6.29
270.029	6.6
270.408	5.92
270.787	5.91
271.167	5.73
271.546	6.68
271.925	6.42
272.304	6.52
272.683	5.98
273.062	6.16
273.441	6.5
273.82	6.03
274.199	6.31
274.578	6.26
274.957	6.37
275.336	5.95
275.715	6.54
276.093	6.29
276.472	5.99
276.851	5.91
277.229	6.25
277.608	6.68
277.986	6.21
278.365	5.4
278.743	5.88
279.122	6.15
279.5	5.76
279.878	5.45
280.257	6.33
280.635	5.89
281.013	6.43
281.391	6.63
281.769	6.44
282.147	5.88
282.525	5.64
282.903	6.21
283.281	5.83
283.659	6.46
284.037	5.87
284.415	6.29
284.792	5.99
285.17	6.15
285.548	6.06
285.925	5.55
286.303	6.28
286.68	5.95
287.058	5.65
287.435	5.82
287.813	6.23
288.19	5.45
288.567	5.72
288.945	5.89
289.322	5.76
289.699	6.08
290.076	5.66
290.453	5.96
290.83	5.9
291.207	5.63
291.584	5.36
291.961	5.64
292.338	5.6
292.715	5.8
293.092	5.74
293.469	5.49
293.845	5.64
294.222	5.41
294.599	4.95
294.975	5.51
295.352	6.44
295.728	5.45
296.105	5.77
296.481	5.22
296.858	5.62
297.234	5.54
297.61	5.78
297.986	5.92
298.363	5.34
298.739	5.41
299.115	5.58
299.491	5.62
299.867	5.64
300.243	5.47
300.619	5.72
300.995	5.5
301.371	5.67
301.746	5.52
302.122	5.98
302.498	5.27
302.874	5.76
303.249	5.82
303.625	5.13
304	5.52
304.376	5.22
304.751	5.53
305.127	5.36
305.502	5.74
305.878	5.23
306.253	5.51
306.628	5.34
307.003	5.57
307.378	6.1
307.754	5.74
308.129	5.78
308.504	5.31
308.879	5.75
309.254	5.04
309.629	5.26
310.003	5.08
310.378	4.88
310.753	5.3
311.128	5.48
311.502	4.86
311.877	5.59
312.252	5.55
312.626	5.59
313.001	5.37
313.375	5.5
313.75	5.2
314.124	5.04
314.498	5.38
314.873	5.62
315.247	5.2
315.621	5.35
315.995	5.04
316.369	5.71
316.743	5.52
317.117	5.5
317.491	5.21
317.865	5.22
318.239	5.34
318.613	5.34
318.987	4.92
319.361	4.97
319.734	5.46
320.108	5.13
320.482	5.57
320.855	5.41
321.229	4.91
321.602	5.6
321.976	5.49
322.349	5.42
322.723	5.45
323.096	4.93
323.469	5.73
323.843	5.31
324.216	5.79
324.589	5.16
324.962	5.06
325.335	5.7
325.708	5.69
326.081	4.97
326.454	5.35
326.827	4.92
327.2	4.81
327.573	5.25
327.945	5.23
328.318	5.13
328.691	5.31
329.063	5.21
329.436	5.1
329.809	4.24
330.181	5.17
330.553	5.04
330.926	5.29
331.298	5.3
331.671	4.86
332.043	4.88
332.415	5.33
332.787	5.27
333.159	5.27
333.532	5.68
333.904	5.37
334.276	4.84
334.648	4.98
335.02	5.56
335.391	5.49
335.763	5.26
336.135	4.5
336.507	4.81
336.879	5.34
337.25	4.44
337.622	4.83
337.993	6.05
338.365	5.38
338.736	5.59
339.108	4.99
339.479	5.17
339.851	5.15
340.222	5.18
340.593	5.18
340.964	5.23
341.336	4.94
341.707	5.23
342.078	5.47
342.449	5.29
342.82	5.38
343.191	5.25
343.562	5.75
343.933	5.51
344.303	5.76
344.674	4.81
345.045	5.62
345.416	5.33
345.786	5.51
346.157	5.44
346.527	5.4
346.898	5.07
347.268	5.49
347.639	4.92
348.009	5.48
348.38	5.8
348.75	4.97
349.12	5.43
349.49	5.67
349.861	5.34
350.231	5.13
350.601	5.32
350.971	5.38
351.341	5.79
351.711	5.06
352.081	5.33
352.45	5.83
352.82	5.82
353.19	5.28
353.56	5.74
353.929	5.57
354.299	5.49
354.669	5.56
355.038	5.64
355.408	5.87
355.777	5.45
356.147	5.15
356.516	5.55
356.885	5.16
357.254	5.73
357.624	5.21
357.993	5.32
358.362	5.39
358.731	5.73
359.1	5.36
359.469	5.29
359.838	5.31
360.207	5.57
360.576	5.3
360.945	5.48
361.314	5.15
361.682	5.31
362.051	5.43
362.42	5.9
362.788	5.66
363.157	5.43
363.525	5.55
363.894	5.68
364.262	5.4
364.631	5.36
364.999	5.57
365.367	5.54
365.735	5.59
366.104	5.61
366.472	5.56
366.84	5.76
367.208	5.67
367.576	5.58
367.944	5.28
368.312	5.54
368.68	5.64
369.048	5.82
369.416	5.44
369.783	5.54
370.151	5.78
370.519	5.65
370.886	5.53
371.254	5.63
371.621	5.86
371.989	5.76
372.356	5.89
372.724	5.99
373.091	5.51
373.458	5.57
373.826	5.44
374.193	5.72
374.56	5.45
374.927	5.57
375.294	5.94
375.661	5.45
376.028	5.94
376.395	5.48
376.762	6.18
377.129	5.63
377.496	5.61
377.863	5.76
378.229	5.9
378.596	5.6
378.963	5.94
379.329	5.71
379.696	5.94
380.062	5.58
380.429	6.14
380.795	5.7
381.161	6.12
381.528	6.13
381.894	5.89
382.26	5.91
382.626	5.89
382.993	5.64
383.359	5.85
383.725	5.72
384.091	5.82
384.457	5.43
384.823	5.66
385.188	5.98
385.554	5.81
385.92	5.82
386.286	5.71
386.651	5.78
387.017	5.79
387.383	5.91
387.748	5.78
388.114	5.67
388.479	6.05
388.845	5.99
389.21	6.34
389.575	5.69
389.94	5.97
390.306	5.97
390.671	6.01
391.036	5.75
391.401	6.04
391.766	5.92
392.131	5.83
392.496	5.65
392.861	6.01
393.226	6.06
393.591	5.88
393.956	6.01
394.32	5.99
394.685	5.71
395.05	6.21
395.414	5.54
395.779	5.93
396.143	6.16
396.508	5.79
396.872	6.05
397.236	5.86
397.601	5.95
397.965	5.84
398.329	5.89
398.694	5.94
399.058	6.17
399.422	6.08
399.786	5.97
400.15	6.18
400.514	5.98
400.878	6.12
401.242	5.9
401.605	5.91
401.969	5.98
402.333	5.9
402.697	5.83
403.06	6.39
403.424	6.12
403.787	5.88
404.151	5.99
404.514	5.93
404.878	5.94
405.241	5.89
405.604	6.13
405.968	6.09
406.331	6.07
406.694	5.98
407.057	6.04
407.42	5.99
407.783	6.21
408.146	6.26
408.509	5.99
408.872	5.86
409.235	6.04
409.598	5.99
409.961	6.2
410.323	6.07
410.686	6.22
411.049	6.02
411.411	5.96
411.774	5.82
412.136	6.04
412.499	6.15
412.861	5.93
413.223	5.95
413.586	6.3
413.948	5.97
414.31	6.23
414.672	5.85
415.035	6.25
415.397	6.02
415.759	6.27
416.121	6.29
416.483	6.24
416.845	6.07
417.206	6.24
417.568	6.34
417.93	6.34
418.292	6.03
418.653	6.12
419.015	6.04
419.377	6.1
419.738	5.94
420.1	6.17
420.461	6.24
420.822	6.04
421.184	6.1
421.545	6.07
421.906	6.01
422.267	6.1
422.629	5.96
422.99	5.99
423.351	6.02
423.712	5.93
424.073	6.1
424.434	5.97
424.795	6.01
425.155	6.13
425.516	6.17
425.877	6.06
426.238	6.07
426.598	5.99
426.959	6.1
427.32	5.92
427.68	6.13
428.041	6
428.401	6.11
428.761	6.29
429.122	6.28
429.482	6.24
429.842	6.16
430.202	6.19
430.563	6.13
430.923	6.22
431.283	6.48
431.643	6.35
432.003	6.17
432.363	6.28
432.722	6.19
433.082	6.21
433.442	6.33
433.802	6.28
434.161	6.1
434.521	6.17
434.881	6.09
435.24	6.01
435.6	6.2
435.959	6.26
436.319	6.14
436.678	6.18
437.037	6.12
437.396	6.27
437.756	6.25
438.115	6.21
438.474	6.16
438.833	6.19
439.192	6.08
439.551	6.05
439.91	6.12
440.269	6.34
440.628	6.27
440.987	6.26
441.345	6.16
441.704	6.29
442.063	6.2
442.421	6.03
442.78	6.18
443.138	6.2
443.497	6.21
443.855	6.12
444.214	6.24
444.572	6.26
444.93	6.22
445.288	6.15
445.647	6.18
446.005	6.06
446.363	6.22
446.721	6.31
447.079	6.11
447.437	6.23
447.795	6.18
448.153	6.22
448.51	6.1
448.868	6.15
449.226	6.13
449.584	6.18
449.941	6.1
450.299	6.16
450.656	6.19
451.014	6.27
451.371	6.26
451.729	6.24
452.086	6.09
452.443	6.26
452.801	6.16
453.158	6.23
453.515	6.12
453.872	6.22
454.229	6.12
454.586	6.24
454.943	6.12
455.3	6.24
455.657	6.16
456.014	6.3
456.371	6.24
456.727	6.12
457.084	6.35
457.441	6.25
457.797	6.28
458.154	6.3
458.51	6.19
458.867	6.18
459.223	6.25
459.58	6.35
459.936	6.27
460.292	6.25
460.648	6.19
461.005	6.29
461.361	6.02
461.717	6.14
462.073	6.06
462.429	6.14
462.785	6.17
463.141	6.15
463.496	6.27
463.852	6.28
464.208	6.27
464.564	6.32
464.919	6.35
465.275	6.43
465.631	6.33
465.986	6.29
466.342	6.28
466.697	6.27
467.052	6.33
467.408	6.27
467.763	6.35
468.118	6.26
468.473	6.22
468.829	6.4
469.184	6.23
469.539	6.33
469.894	6.24
470.249	6.42
470.603	6.49
470.958	6.25
471.313	6.26
471.668	6.3
472.023	6.13
472.377	6.31
472.732	6.38
473.086	6.23
473.441	6.13
473.795	6.34
474.15	6.27
474.504	6.35
474.859	6.19
475.213	6.32
475.567	6
475.921	6.27
476.275	6.23
476.63	6.35
476.984	6.3
477.338	6.36
477.692	6.24
478.045	6.23
478.399	6.25
478.753	6.28
479.107	6.22
479.461	6.28
479.814	6.28
480.168	6.26
480.521	6.33
480.875	6.23
481.228	6.07
481.582	6.25
481.935	6.22
482.289	6.24
482.642	6.29
482.995	6.19
483.348	6.28
483.701	6.22
484.055	6.09
484.408	6.23
484.761	6.15
485.114	6.05
485.466	6.03
485.819	5.97
486.172	5.85
486.525	5.88
486.878	5.89
487.23	5.97
487.583	6.03
487.936	6.02
488.288	6.11
488.641	6.09
488.993	6.07
489.345	6
489.698	5.97
490.05	5.97
490.402	5.96
490.754	6.06
491.107	6.02
491.459	6.13
491.811	6.06
492.163	6.21
492.515	6.13
492.866	6.11
493.218	6.09
493.57	6.03
493.922	6.03
494.274	6
494.625	6.04
494.977	6.09
495.328	6.13
495.68	6.17
496.031	6.25
496.383	6.25
496.734	6.25
497.086	6.26
497.437	6.23
497.788	6.31
498.139	6.33
498.49	6.28
498.842	6.17
499.193	6.11
499.544	6.21
499.894	6.15
500.245	6.29
500.596	6.21
500.947	6.28
501.298	6.24
501.648	6.22
501.999	6.24
502.35	6.35
502.7	6.36
503.051	6.28
503.401	6.2
503.752	6.36
504.102	6.37
504.452	6.25
504.803	6.34
505.153	6.42
505.503	6.26
505.853	6.36
506.203	6.24
506.553	6.21
506.903	6.14
507.253	6.23
507.603	6.26
507.953	6.35
508.303	6.32
508.652	6.14
509.002	6.33
509.352	6.25
509.701	6.21
510.051	6.27
510.4	6.26
510.75	6.18
511.099	6.24
511.449	6.05
511.798	6.09
512.147	6.24
512.496	6.19
512.846	6.19
513.195	6.31
513.544	6.27
513.893	6.14
514.242	6.19
514.591	6.27
514.939	6.2
515.288	6.24
515.637	6.31
515.986	6.21
516.334	6.09
516.683	6.21
517.032	6.22
517.38	6.43
517.729	6.29
518.077	6.27
518.426	6.22
518.774	6.25
519.122	6.33
519.47	6.17
519.819	6.09
520.167	6.14
520.515	6.11
520.863	6.2
521.211	6.2
521.559	6.13
521.907	6.13
522.255	6.12
522.602	6.19
522.95	6.25
523.298	6.21
523.645	6.24
523.993	6.13
524.341	6.33
524.688	6.36
525.036	6.39
525.383	6.31
525.73	6.25
526.078	6.25
526.425	6.28
526.772	6.23
527.119	6.13
527.466	6.24
527.814	6.19
528.161	6.16
528.508	6.17
528.854	6.21
529.201	6.13
529.548	6.04
529.895	6.16
530.242	6.1
530.588	6.03
530.935	6.04
531.282	5.97
531.628	5.97
531.975	6
532.321	6.04
532.667	6.19
533.014	6.2
533.36	6.09
533.706	6.17
534.052	6.23
534.399	6.13
534.745	6.19
535.091	6.09
535.437	6.06
535.783	6.1
536.129	6.16
536.474	6.12
536.82	6.11
537.166	6.22
537.512	6.27
537.857	6.22
538.203	6.12
538.549	6.18
538.894	6.03
539.239	6.19
539.585	6.19
539.93	6.04
540.276	6.33
540.621	6.45
540.966	6.22
541.311	6.35
541.656	6.28
542.001	6.23
542.346	6.23
542.691	6.21
543.036	6.09
543.381	6.07
543.726	6.05
544.071	6.04
544.415	6.01
544.76	6.1
545.105	6.16
545.449	6.18
545.794	6.2
546.138	6.08
546.483	6.21
546.827	6.19
547.171	6.27
547.516	6.09
547.86	6.3
548.204	6.22
548.548	6.07
548.892	6.14
549.236	6.22
549.58	6.34
549.924	6.32
550.268	6.29
550.612	6.28
550.956	6.24
551.3	6.33
551.643	6.38
551.987	6.5
552.33	6.28
552.674	6.16
553.017	6.31
553.361	6.23
553.704	6.44
554.048	6.42
554.391	6.34
554.734	6.37
555.077	6.16
555.42	6.44
555.764	6.44
556.107	6.37
556.45	6.11
556.793	6.3
557.135	6.31
557.478	6.18
557.821	6.27
558.164	6.41
558.507	6.24
558.849	6.28
559.192	6.21
559.534	6.57
559.877	6.2
560.219	6.36
560.562	6.16
560.904	6.4
561.246	6.35
561.589	6.48
561.931	6.39
562.273	6.31
562.615	6.39
562.957	6.25
563.299	6.33
563.641	6.32
563.983	6.32
564.325	6.31
564.667	6.41
565.008	6.51
565.35	6.36
565.692	6.39
566.033	6.4
566.375	6.35
566.716	6.29
567.058	6.41
567.399	6.34
567.741	6.35
568.082	6.45
568.423	6.16
568.764	6.27
569.105	6.34
569.447	6.29
569.788	6.28
570.129	6.31
570.47	6.51
570.811	6.41
571.151	6.29
571.492	6.35
571.833	6.34
572.174	6.41
572.514	6.31
572.855	6.37
573.195	6.44
573.536	6.45
573.876	6.29
574.217	6.35
574.557	6.32
574.898	6.17
575.238	6.32
575.578	6.19
575.918	6.29
576.258	6.27
576.598	6.17
576.938	6.4
577.278	6.33
577.618	6.28
577.958	6.22
578.298	6.3
578.638	6.2
578.977	6.24
579.317	6.35
579.657	6.24
579.996	6.3
580.336	6.37
580.675	6.12
581.014	6.49
581.354	6.29
581.693	6.26
582.032	6.5
582.372	6.41
582.711	6.48
583.05	6.4
583.389	6.34
583.728	6.29
584.067	6.33
584.406	6.25
584.745	6.59
585.083	6.27
585.422	6.28
585.761	6.31
586.1	6.23
586.438	6.56
586.777	6.02
587.115	6.38
587.454	6.38
587.792	6.41
588.13	6.27
588.469	6.36
588.807	6.06
589.145	6.13
589.483	6.43
589.821	6.56
590.159	6.44
590.497	6.39
590.835	6.29
591.173	6.34
591.511	6.34
591.849	6.38
592.187	6.19
592.524	6.14
592.862	6.31
593.2	6.07
593.537	6.18
593.875	6.12
594.212	6.14
594.55	6.25
594.887	6.41
595.224	6.25
595.561	6.41
595.899	6.53
596.236	6.3
596.573	6.22
596.91	6.39
597.247	6.41
597.584	6.25
597.921	6.44
598.258	6.18
598.594	6.19
598.931	6.26
599.268	6.33
599.604	6.22
599.941	6.19
600.277	6.28
600.614	6.11
600.95	6.17
601.287	6.3
601.623	6.15
601.959	6.34
602.296	6.22
602.632	6.26
602.968	6.48
603.304	6.13
603.64	6.28
603.976	6.32
604.312	6.16
604.648	6.37
604.984	6.27
605.319	6.31
605.655	6.41
605.991	6.2
606.326	6.17
606.662	6.23
606.998	6.2
607.333	6.29
607.668	6.21
608.004	6.3
608.339	6.25
608.674	6.38
609.01	6.37
609.345	6.59
609.68	6.22
610.015	6.18
610.35	6.35
610.685	6.62
611.02	6.44
611.355	6.52
611.689	6.3
612.024	6.19
612.359	6.22
612.694	6.17
613.028	6.15
613.363	6.25
613.697	6.29
614.032	6.01
614.366	6.2
614.7	6.24
615.035	5.97
615.369	6.03
615.703	6.3
616.037	6.33
616.371	6.45
616.705	6.3
617.039	6.68
617.373	6.19
617.707	6.11
618.041	6.27
618.375	6.42
618.709	6.4
619.042	6.07
619.376	6.37
619.71	6.38
620.043	6.08
620.377	6.1
620.71	6.15
621.043	6.21
621.377	6.05
621.71	6.13
622.043	6.11
622.376	6.36
622.709	6.52
623.043	6.42
623.376	6.09
623.709	5.99
624.041	6.67
624.374	6.35
624.707	6.31
625.04	6.4
625.373	6.43
625.705	6.32
626.038	6.47
626.37	6.26
626.703	6.01
627.035	6.24
627.368	6.52
627.7	6.42
628.032	6.21
628.365	6.06
628.697	6.5
629.029	6.3
629.361	6.22
629.693	6.35
630.025	6.37
630.357	6.15
630.689	6.33
631.021	6.38
631.353	6.48
631.684	6.12
632.016	6.25
632.348	6.54
632.679	6.05
633.011	6.01
633.342	5.9
633.674	6.26
634.005	6.54
634.336	6.03
634.668	6.34
634.999	6.01
635.33	6.23
635.661	6.13
635.992	6.2
636.323	6.29
636.654	6.08
636.985	6.45
637.316	6.35
637.647	6.08
637.977	6.21
638.308	6.09
638.639	6.44
638.969	6.18
639.3	6.24
639.63	5.78
639.961	6.38
640.291	6.17
640.622	6.14
640.952	6.56
641.282	6.45
641.612	6.06
641.943	5.83
642.273	6.06
642.603	5.93
642.933	6.12
643.263	6.23
643.592	6
643.922	5.83
644.252	6.18
644.582	6.32
644.911	6.57
645.241	6.3
645.571	6.46
645.9	6.3
646.23	6.33
646.559	5.96
646.888	6.05
647.218	6.78
647.547	6.14
647.876	6.07
648.205	6.53
648.534	6.25
648.863	6.12
649.192	6.34
649.521	5.82
649.85	6.53
650.179	5.83
650.508	6.41
650.837	6.28
651.165	6.34
651.494	6.6
651.822	5.99
652.151	6.24
652.479	6.28
652.808	6.42
653.136	6.14
653.465	6.28
653.793	6.28
654.121	6.6
654.449	6.14
654.777	6.37
655.105	6.11
655.433	6.22
655.761	6.1
656.089	5.99
656.417	6.1
656.745	6.23
657.073	6.42
657.4	6.62
657.728	6.61
658.056	5.71
658.383	6.18
658.711	5.93
659.038	6.03
659.365	6.04
659.693	5.91
660.02	6.21
660.347	6.24
660.674	6.16
661.001	6.34
661.329	6.07
661.656	5.86
661.982	6.37
662.309	6.12
662.636	6.39
662.963	6.24
663.29	6.64
663.616	6.47
663.943	6.36
664.27	6.2
664.596	6.61
664.923	6.32
665.249	6.76
665.576	6.67
665.902	6.57
666.228	5.9
666.554	6.37
666.881	6.84
667.207	6.36
667.533	6.3
667.859	6.43
668.185	6.36
668.511	5.9
668.837	6.22
669.162	6.39
669.488	6.87
669.814	6.32
670.139	5.9
670.465	6.54
670.791	6.42
671.116	6.06
671.442	6.47
671.767	6.26
672.092	6.03
672.418	6.44
672.743	6.18
673.068	6.48
673.393	5.33
673.718	6.71
674.043	5.62
674.368	6.36
674.693	6.96
675.018	6.28
675.343	6.74
675.667	5.88
675.992	5.94
676.317	6.37
676.641	5.41
676.966	6.82
677.29	6.04
677.615	7.08
677.939	5.77
678.264	6.55
678.588	6.13
678.912	6.22
679.236	5.98
679.56	7.19
679.885	6.58
680.209	5.63
680.532	6.58
680.856	5.6
681.18	6.22
681.504	6.09
681.828	6.45
682.152	6.13
682.475	6.42
682.799	5.99
683.122	6.2
683.446	6.39
683.769	6.36
684.093	5.87
684.416	5.63
684.739	6.15
685.062	6.26
685.386	5.74
685.709	6.54
686.032	6.03
686.355	6.03
686.678	6.96
687.001	5.99
687.324	6.08
687.646	6.54
687.969	6.53
688.292	6.22
688.614	6.79
688.937	6.47
689.26	6.33
689.582	6.19
689.904	6.04
690.227	6.64
690.549	6.34
690.871	6.14
691.194	6.55
691.516	6.02
691.838	6.73
692.16	6.04
692.482	5.92
692.804	5.88
693.126	6.43
693.448	6.02
693.769	5.59
694.091	6.31
694.413	6.11
694.735	6.65
695.056	6.78
695.378	6.42
695.699	5.89
696.021	6.9
696.342	6.97
696.663	6.07
696.984	6.74
697.306	6.33
697.627	7.18
697.948	6.85
698.269	6.63
698.59	5.78
698.911	6.35
699.232	6.36
699.553	6.59
699.873	6.24
700.194	6.29
700.515	6.71
700.835	6.58
701.156	6.21
701.477	6.88
701.797	6.31
702.117	6.01
702.438	6.26
702.758	6.39
703.078	5.97
703.398	6.88
703.719	6.02
704.039	6.17
704.359	6.84
704.679	6.65
704.999	5.51
705.319	6.44
705.638	6.02
705.958	6.39
706.278	5.91
706.597	6.33
706.917	5.96
707.237	7.05
707.556	6.21
707.876	6.38
708.195	6.41
708.514	7.11
708.834	6.59
709.153	5.95
709.472	6.54
709.791	6.42
710.11	6.09
710.429	5.97
710.748	6.43
711.067	6.86
711.386	6
711.705	6.67
712.023	6.51
712.342	6.06
712.661	7.4
712.979	6.1
713.298	6.65
713.616	6.25
713.935	7.04
714.253	5.69
714.572	6.38
714.89	6.68
715.208	7.34
715.526	6.69
715.844	6.9
716.162	7.39
716.48	5.97
716.798	6.79
717.116	6.99
717.434	7.64
717.752	6.68
718.069	6.59
718.387	6.76
718.705	6.99
719.022	6.13
719.34	6.44
719.657	7.7
719.975	6.57
720.292	6.74
720.609	6.54
720.927	6.29
721.244	5.9
721.561	6.43
721.878	5.41
722.195	5.39
722.512	6.28
722.829	6.39
723.146	6.98
723.463	5.94
723.779	4.6
724.096	5.76
724.413	5.79
724.729	5.41
725.046	7.27
725.362	6.7
725.679	6.07
725.995	6.43
726.311	5.68
726.628	5.17
726.944	7.32
727.26	5.41
727.576	5.96
727.892	5.48
728.208	5.32
728.524	6.31
728.84	6.83
729.156	5.97
729.472	6.54
729.787	6.72
730.103	6.19
730.419	6.09
730.734	5.74
731.05	6.12
731.365	6.98
731.681	6.2
731.996	8.11
732.311	6.71
732.626	5.81
732.942	7.55
733.257	6.7
733.572	6.16
733.887	6.3
734.202	6.18
734.517	6.14
734.832	5.26
735.146	6.7
735.461	5.97
735.776	7.02
736.091	5.42
736.405	6.88
736.72	6.77
737.034	7.72
737.349	6.07
737.663	6.42
737.977	6.42
738.292	6.63
738.606	7.58
738.92	5.3
739.234	7.36
739.548	5.31
739.862	5.69
740.176	5.82
740.49	6.78
740.804	7.64
741.117	6.42
741.431	7.19
741.745	6.02
742.058	7.99
742.372	5.68
742.685	5.65
742.999	5.68
743.312	5.82
743.626	5.32
743.939	7.2
744.252	6.52
744.565	6.23
744.878	4.28
745.191	6.65
745.505	5.62
745.817	4.26
746.13	4.21
746.443	7.06
746.756	7.52
747.069	5.28
747.381	6.53
747.694	5.34
748.007	8.36
748.319	6.48
748.632	6.86
748.944	6.79
749.256	7.41
749.569	6.66
749.881	3.37
750.193	6.87
750.505	5.95
750.817	6.84
751.129	7.37
751.441	8.21
751.753	7.32
752.065	7.33
752.377	6
752.689	6.47
753	6.31
753.312	7.4
753.624	6.7
753.935	5.92
754.247	6.48
754.558	6.97
754.869	7.43
755.181	6.06
755.492	7.29
755.803	6.72
756.114	7.06
756.425	7.44
756.736	7.41
757.047	7.6
757.358	5.43
757.669	6.42
757.98	6.67
758.291	7.02
758.601	7.45
758.912	7.24
759.223	6.46
759.533	9.2
759.844	7
760.154	5.43
760.464	6.72
760.775	6.97
761.085	6.97
761.395	7.37
761.705	6.8
762.016	6.5
762.326	7.19
762.636	6.95
762.945	6.01
763.255	7.45
763.565	7.37
763.875	6.52
764.185	6.18
764.494	7.98
764.804	7.61
765.113	6.83
765.423	7.4
765.732	6.54
766.042	6.83
766.351	7.63
766.66	7.06
766.97	7.41
767.279	7.66
767.588	6.56
767.897	6.67
768.206	4.91
768.515	6.24
768.824	6.76
769.133	6.55
769.441	5.98
769.75	8.18
770.059	8.14
770.367	7.97
770.676	7.81
770.984	6.28
771.293	6.38
771.601	3.18
771.91	9.64
772.218	5.83
772.526	6.91
772.834	7.55
773.142	8.32
773.45	5.73
773.758	4.75
774.066	6.3
774.374	8.25
774.682	9.54
774.99	3.97
775.298	6.34
775.605	4.24
775.913	7.55
776.22	7.68
776.528	8.66
776.835	7.46
777.143	3.79
777.45	7.39
777.757	6.76
778.065	10.36
778.372	4.95
778.679	6.87
778.986	7.78
779.293	7.89
779.6	7.05
779.907	7.92
780.214	9.42
780.52	7.89
780.827	9.91
781.134	7.56
781.44	8.72
781.747	8.38
782.053	4.25
782.36	6.66
782.666	6.02
782.973	5.67
783.279	6.47
783.585	5.89
783.891	6.44
784.197	9.19
784.503	5.22
784.809	8.62
785.115	6.44
785.421	6.39
785.727	7.13
786.033	6.28
786.339	7.4
786.644	9.75
786.95	8.18
787.255	4.73
787.561	4.52
787.866	6.83
788.172	5.42
788.477	6.75
788.782	8.3
789.088	5.06
789.393	5.28
789.698	3.61
790.003	8.01
790.308	9.43
790.613	7.46
790.918	8.06
791.223	5.48
791.527	8.37
791.832	8.95
792.137	3.98
792.441	11.89
792.746	4.38
793.05	7.05
793.355	7.74
793.659	8.97
793.963	8.43
794.268	6.72
794.572	5.41
794.876	6.27
795.18	8.1
795.484	5.51
795.788	6.75
796.092	10.49
796.396	10.63
796.7	8.41
797.004	7.22
797.307	7.28
797.611	7.6
797.915	8.63
798.218	11.01
798.522	8.2
798.825	11.93
799.128	8.19
799.432	6.84
799.735	6.94
800.038	4.62
800.341	1.75
800.644	8.54
800.947	7.58
801.25	3.08
801.553	8.73
801.856	4.99
802.159	6.85
802.462	5.33
802.764	5.74
803.067	5.73
803.37	8.36
803.672	3.63
803.975	5.02
804.277	6.93
804.579	5.8
804.882	7.98
805.184	5.14
805.486	3.69
805.788	7.35
806.09	5.2
806.392	3.25
806.694	6.01
806.996	6.58
807.298	3.45
807.6	3.02
807.902	9.24
808.203	4.23
808.505	6.45
808.807	9.69
809.108	12.09
809.409	4.58
809.711	7.18
810.012	6.2
810.313	11.13
810.615	8.84
810.916	3.13
811.217	4.69
811.518	4.99
811.819	10.93
812.12	2.07
812.421	1.72
812.722	4.44
813.023	7.24
813.323	5.04
813.624	8
813.925	6.42
814.225	7.88
814.526	6.33
814.826	6.09
815.126	7.21
815.427	6.16
815.727	5.81
816.027	9.88
816.327	2.85
816.627	6.03
816.927	4.29
817.227	2.78
817.527	5.98
817.827	3.5
818.127	5.36
818.427	7.71
818.727	0.69
819.026	8.73
819.326	6.95
819.625	7.76
819.925	5.13
820.224	8.96
820.524	8.43
820.823	8.16
821.122	9.4
821.421	13.75
821.72	8.36
822.019	4.19
822.318	10.95
822.617	9.07
822.916	2.78
823.215	3.45
823.514	8.41
823.813	7.01
824.111	8.66
824.41	8.31
824.709	8.35
825.007	7.16
825.306	8.87
825.604	7.86
825.902	7.85
826.201	8.96
826.499	8.92
826.797	8.97
827.095	8.39
827.393	8.51
827.691	7.78
827.989	9.05
828.287	9.54
828.585	8.54
828.882	8.2
829.18	8.03
829.478	9.74
829.775	6.85
830.073	7.4
830.37	9.48
830.668	6.81
830.965	9.24
831.263	9.63
831.56	6.74
831.857	10
832.154	4.7
832.451	5.66
832.748	8.85
833.045	3.03
833.342	7.39
833.639	7.26
833.936	6.36
834.232	9.66
834.529	8.91
834.826	14.09
835.122	3.51
835.419	12.84
835.715	8.1
836.012	10.84
836.308	4.38
836.604	8.29
836.901	11.59
837.197	5.22
837.493	6.85
837.789	9.78
838.085	6.76
838.381	6.43
838.677	8.15
838.972	5.45
839.268	9.99
839.564	9.6
839.86	10.68
840.155	8.4
840.451	2.69
840.746	6.99
841.042	5.91
841.337	10.43
841.632	18.33
841.928	11.88
842.223	8.41
842.518	8.61
842.813	5.1
843.108	11.5
843.403	16.04
843.698	2.49
843.993	12
844.287	2.63
844.582	2.55
844.877	5.22
845.171	6.84
845.466	3.67
845.761	9.89
846.055	21.06
846.349	4.41
846.644	-0.08
846.938	5.64
847.232	-0.53
847.526	8.49
847.82	5.65
848.114	-1.41
848.408	8.95
848.702	-18.63
848.996	-22.45
849.29	-11.73
849.584	19.64
849.877	10.82
850.171	-6.04
850.465	15.32
850.758	-1.58
851.052	8.51
851.345	-9.83
851.638	-14.44
851.932	-6.4
852.225	16.53
852.518	14.05
852.811	15.03
853.104	10.29
853.397	-20.84
853.69	18.68
853.983	-37.7
854.276	9.4
854.569	9.54
854.861	-24.6
855.154	-0.57
855.447	17.18
855.739	2.14
856.032	10.38
856.324	3.41
856.616	-16.47
856.909	18.23
857.201	-13.09
857.493	-8.28
857.785	2
858.077	7.69
858.369	-1.18
858.661	12.99
858.953	-12.25
859.245	6.33
859.537	14.45
859.829	-8.39
860.12	19.13
860.412	-0.92
860.703	7.84
860.995	7.43
861.286	4.08
861.578	1.16
861.869	3.3
862.16	7.89
862.452	18.88
862.743	6.83
863.034	19.1
863.325	25.21
863.616	-17.13
863.907	23.32
864.198	-3.26
864.488	-1.91
864.779	3.74
865.07	-21.38
865.36	14.59
865.651	-23.49
865.941	-31.01
866.232	31.23
866.522	-0.87
866.813	-1.01
867.103	-2.24
867.393	7.09
867.683	-13.37
867.973	-0.35
868.263	-4.56
868.553	-4.78
868.843	0.06
869.133	-21.23
869.423	1.15
869.713	-9.67
870.002	16.72
870.292	-10.4
870.582	15.96
870.871	10.93
871.161	-26.21
871.45	-48.83
871.739	4.85
872.029	-2.44
872.318	16.04
872.607	-9.79
872.896	-2.67
873.185	-19.44
873.474	17.8
873.763	9.5
874.052	-5.68
874.341	-24.57
874.63	-16.63
874.918	-21.97
875.207	-22.32
875.496	-2.89
875.784	6.12
876.073	-29.7
876.361	-3.12
876.649	-28.88
876.938	-15.83
877.226	26.74
877.514	-2.6
877.802	-3.75
878.09	-1.44
878.378	11.79
878.666	1.52
878.954	23.92
879.242	-12.7
879.53	-17.46
879.817	8.42
880.105	-8.59
880.392	-18.78
880.68	-14.65
880.967	-0.9
881.255	6.24
881.542	12.08
881.83	-19.49
882.117	5.74
882.404	8.99
882.691	-1.87
882.978	8.19
883.265	2.01
883.552	23.94
883.839	-15.1
884.126	-4.55
884.413	20.06
884.699	5.1
884.986	7.41
885.273	8.65
885.559	8.65
885.846	8.65
