Data from 815657_chest_Reflection__1__110.txt Node

Date: Fri Sep 16 15:34:01 CDT 2022
User: ToomeyLab
Spectrometer: FLMS14357
Trigger mode: 0
Integration Time (sec): 1.000000E-2
Scans to average: 100
Electric dark correction enabled: true
Nonlinearity correction enabled: false
Boxcar width: 0
XAxis mode: Wavelengths
Number of Pixels in Spectrum: 2048
>>>>>Begin Spectral Data<<<<<
189.047	-55.3
189.435	-55.3
189.823	-55.3
190.211	126.19
190.599	-31.46
190.987	68.12
191.375	69.47
191.763	45.73
192.151	151.88
192.538	-15430.77
192.926	9.81
193.314	710.2
193.702	308.98
194.089	303.79
194.477	-412.89
194.864	-242.48
195.252	-62.6
195.639	591.54
196.027	-1364.53
196.414	60.44
196.801	213.93
197.189	69.32
197.576	169.47
197.963	385.87
198.351	-29.09
198.738	-5.6
199.125	28.98
199.512	-77.79
199.899	1.34
200.286	-23.86
200.673	36.81
201.06	7.35
201.447	-23.19
201.833	12.87
202.22	5.82
202.607	-40.39
202.994	40.08
203.38	30.68
203.767	13.94
204.154	12.27
204.54	-22.02
204.927	-25.63
205.313	29.53
205.699	41.55
206.086	37.76
206.472	-10.13
206.858	-2.68
207.245	-0.39
207.631	-1.61
208.017	15.86
208.403	-41.73
208.789	-17.44
209.175	-16.69
209.561	13.05
209.947	-13.82
210.333	5.87
210.719	-41.82
211.105	12.69
211.491	26.06
211.876	8.07
212.262	2.92
212.648	5.09
213.034	-6.99
213.419	-19.24
213.805	12.42
214.19	7.47
214.576	-41.41
214.961	-7.63
215.346	-2.13
215.732	-75.61
216.117	10.18
216.502	-30.11
216.888	-51.55
217.273	-14.19
217.658	-11.22
218.043	-53.55
218.428	-20.76
218.813	5.98
219.198	-9.15
219.583	-6.49
219.968	15.66
220.353	-33.46
220.738	5.31
221.122	-33.22
221.507	29.07
221.892	15.37
222.276	7.31
222.661	-7.54
223.046	7.49
223.43	2.52
223.815	-3.72
224.199	4.9
224.583	4.87
224.968	4.25
225.352	-7.03
225.736	1.01
226.121	1.68
226.505	4.07
226.889	0.84
227.273	2.85
227.657	0.93
228.041	-0.8
228.425	-7.43
228.809	3.14
229.193	-0.5
229.577	1.44
229.961	-0.06
230.344	2.86
230.728	1.48
231.112	1.89
231.495	0.81
231.879	1.41
232.263	-0.2
232.646	0.65
233.03	3.21
233.413	3.32
233.797	0.66
234.18	0.91
234.563	1.33
234.946	3.23
235.33	2.26
235.713	1.8
236.096	1.62
236.479	1.72
236.862	1.72
237.245	1.47
237.628	2.83
238.011	2.51
238.394	0.21
238.777	2.53
239.16	0.87
239.543	2.55
239.925	1.11
240.308	0.67
240.691	3.03
241.073	1.7
241.456	1.82
241.838	1.54
242.221	0.68
242.603	2
242.986	0.99
243.368	1.53
243.75	1.77
244.133	1.98
244.515	1.75
244.897	2.44
245.279	1.46
245.661	1.55
246.043	1.25
246.425	1.3
246.807	1.28
247.189	1.24
247.571	1.05
247.953	1.36
248.335	1.76
248.717	1.86
249.098	1.88
249.48	1.55
249.862	1.77
250.243	1.66
250.625	2.13
251.006	1.83
251.388	2.26
251.769	1.1
252.151	1.95
252.532	2.04
252.913	2.33
253.295	1.41
253.676	1.8
254.057	1.4
254.438	1.14
254.819	0.84
255.2	1.5
255.581	1.22
255.962	1.56
256.343	2.5
256.724	0.26
257.105	0.17
257.486	1.82
257.867	1.86
258.247	2.38
258.628	2.04
259.009	1.89
259.389	2.29
259.77	1.66
260.15	1.94
260.531	1.29
260.911	1.55
261.292	1.48
261.672	1.74
262.052	1.55
262.432	1.47
262.813	2.24
263.193	1.41
263.573	2.13
263.953	1.94
264.333	1.92
264.713	0.8
265.093	0.81
265.473	0.87
265.853	2.53
266.233	1.87
266.612	2.67
266.992	0.86
267.372	1.78
267.752	1.31
268.131	1.49
268.511	1.76
268.89	2.1
269.27	1.43
269.649	1.55
270.029	1.62
270.408	1.71
270.787	1.23
271.167	1.07
271.546	2.24
271.925	1.54
272.304	1.37
272.683	1.39
273.062	1.09
273.441	1.45
273.82	1.58
274.199	1.64
274.578	1.16
274.957	1.33
275.336	2
275.715	2.32
276.093	1.62
276.472	1.92
276.851	0.94
277.229	1.67
277.608	1.96
277.986	1.63
278.365	0.75
278.743	1.54
279.122	1.55
279.5	1.6
279.878	1.29
280.257	1.57
280.635	1.34
281.013	0.77
281.391	1.45
281.769	1.77
282.147	1.44
282.525	1.58
282.903	1.74
283.281	1.31
283.659	1.6
284.037	1.65
284.415	1.81
284.792	1.59
285.17	1.75
285.548	1.46
285.925	1.15
286.303	1.69
286.68	1.65
287.058	1.56
287.435	1.67
287.813	1.96
288.19	1.23
288.567	1.25
288.945	1.16
289.322	1.94
289.699	1.47
290.076	1.46
290.453	1.35
290.83	1.58
291.207	1.64
291.584	1.04
291.961	1.7
292.338	1.78
292.715	1.65
293.092	1.34
293.469	1.89
293.845	1.72
294.222	1.36
294.599	1.21
294.975	1.56
295.352	1.95
295.728	1.14
296.105	1.83
296.481	1.32
296.858	1.41
297.234	1.72
297.61	1.83
297.986	1.66
298.363	1.87
298.739	1.49
299.115	2.09
299.491	2.09
299.867	1.4
300.243	1.96
300.619	1.85
300.995	1.61
301.371	1.57
301.746	1.39
302.122	1.92
302.498	1.49
302.874	1.71
303.249	1.92
303.625	1.97
304	1.75
304.376	1.55
304.751	1.97
305.127	1.98
305.502	1.85
305.878	1.55
306.253	1.87
306.628	1.6
307.003	1.59
307.378	2
307.754	1.96
308.129	2.66
308.504	1.93
308.879	2.05
309.254	2.02
309.629	1.61
310.003	2.13
310.378	1.18
310.753	2.11
311.128	1.92
311.502	1.56
311.877	1.74
312.252	1.7
312.626	1.67
313.001	1.84
313.375	2.04
313.75	2.08
314.124	1.62
314.498	2
314.873	2.13
315.247	1.82
315.621	1.95
315.995	1.77
316.369	1.51
316.743	2.77
317.117	2.04
317.491	1.9
317.865	2.25
318.239	2.24
318.613	1.79
318.987	1.39
319.361	2.17
319.734	2.19
320.108	1.69
320.482	2.12
320.855	2.03
321.229	1.9
321.602	2.04
321.976	1.88
322.349	1.76
322.723	1.92
323.096	2.16
323.469	1.71
323.843	2.32
324.216	2.42
324.589	2.13
324.962	2.17
325.335	2.18
325.708	2.22
326.081	2.5
326.454	2.02
326.827	1.82
327.2	2.35
327.573	2.12
327.945	2.31
328.318	2.21
328.691	2.45
329.063	1.87
329.436	1.83
329.809	1.68
330.181	1.99
330.553	2.37
330.926	1.96
331.298	2.48
331.671	1.99
332.043	1.73
332.415	2.41
332.787	1.9
333.159	1.8
333.532	2.75
333.904	2.15
334.276	2.26
334.648	1.99
335.02	2.65
335.391	2.64
335.763	1.98
336.135	1.43
336.507	2.26
336.879	2.28
337.25	1.42
337.622	2.15
337.993	3.1
338.365	2.34
338.736	2.58
339.108	2.1
339.479	2.63
339.851	2
340.222	2.09
340.593	2.31
340.964	2.22
341.336	2.4
341.707	2.53
342.078	2.69
342.449	2.13
342.82	2.26
343.191	2.05
343.562	2.59
343.933	2.53
344.303	2.85
344.674	2
345.045	2.42
345.416	2.35
345.786	2.1
346.157	2.86
346.527	2.36
346.898	2.48
347.268	2.68
347.639	2.07
348.009	2.35
348.38	2.48
348.75	1.9
349.12	2.51
349.49	2.34
349.861	2.68
350.231	2.46
350.601	2.5
350.971	2.72
351.341	2.73
351.711	2.39
352.081	2.3
352.45	2.79
352.82	2.58
353.19	2.11
353.56	2.41
353.929	2.3
354.299	2.34
354.669	2.4
355.038	2
355.408	2.61
355.777	2.3
356.147	2.85
356.516	2.73
356.885	2.5
357.254	2.58
357.624	2.58
357.993	2.27
358.362	2.53
358.731	2.55
359.1	2.6
359.469	2.33
359.838	2.54
360.207	2.59
360.576	2.82
360.945	2.5
361.314	2.4
361.682	2.06
362.051	2.68
362.42	2.63
362.788	2.92
363.157	2.5
363.525	2.28
363.894	2.76
364.262	2.68
364.631	2.6
364.999	2.36
365.367	2.54
365.735	2.78
366.104	2.76
366.472	2.71
366.84	2.95
367.208	2.98
367.576	2.53
367.944	2.58
368.312	2.59
368.68	2.66
369.048	2.74
369.416	2.53
369.783	2.89
370.151	2.75
370.519	2.84
370.886	2.98
371.254	2.54
371.621	2.91
371.989	2.59
372.356	2.98
372.724	2.79
373.091	2.79
373.458	2.76
373.826	2.66
374.193	3.08
374.56	2.54
374.927	2.78
375.294	2.86
375.661	2.53
376.028	3.16
376.395	2.47
376.762	3.04
377.129	2.84
377.496	2.93
377.863	2.91
378.229	3.11
378.596	2.43
378.963	2.81
379.329	2.75
379.696	3.22
380.062	2.82
380.429	2.64
380.795	2.78
381.161	3.06
381.528	2.97
381.894	2.98
382.26	2.77
382.626	2.76
382.993	2.64
383.359	2.98
383.725	2.9
384.091	2.97
384.457	2.58
384.823	2.92
385.188	2.71
385.554	2.83
385.92	2.95
386.286	2.84
386.651	2.84
387.017	3.05
387.383	2.5
387.748	2.75
388.114	2.54
388.479	2.81
388.845	3.05
389.21	3.01
389.575	3.04
389.94	3.26
390.306	2.88
390.671	3.02
391.036	2.9
391.401	3
391.766	2.95
392.131	3.03
392.496	2.62
392.861	2.91
393.226	2.91
393.591	2.91
393.956	3.15
394.32	3.09
394.685	2.95
395.05	3.13
395.414	3
395.779	2.93
396.143	3.08
396.508	2.91
396.872	3.09
397.236	2.87
397.601	2.86
397.965	2.88
398.329	2.82
398.694	3.05
399.058	3.32
399.422	2.99
399.786	3.01
400.15	2.91
400.514	2.79
400.878	3.18
401.242	3
401.605	2.94
401.969	3.01
402.333	3.02
402.697	2.89
403.06	3
403.424	3
403.787	2.9
404.151	3.21
404.514	2.82
404.878	3.09
405.241	3.03
405.604	3.19
405.968	3.27
406.331	3.01
406.694	3.04
407.057	3
407.42	3.02
407.783	3.1
408.146	3.52
408.509	3.12
408.872	3.26
409.235	3.33
409.598	3.16
409.961	3.36
410.323	3.31
410.686	3.38
411.049	3.06
411.411	2.92
411.774	3.1
412.136	2.89
412.499	3.18
412.861	3.27
413.223	3.05
413.586	3.25
413.948	3.05
414.31	3.24
414.672	3.15
415.035	3.29
415.397	2.98
415.759	3.43
416.121	3.17
416.483	3.13
416.845	3.29
417.206	3.27
417.568	3.19
417.93	3.21
418.292	3.18
418.653	3.08
419.015	3.08
419.377	3.3
419.738	3.09
420.1	3.03
420.461	3.22
420.822	3.11
421.184	3.24
421.545	3.1
421.906	3.15
422.267	3.2
422.629	3.05
422.99	3.06
423.351	3.22
423.712	3.08
424.073	3.18
424.434	3.2
424.795	3.18
425.155	3.23
425.516	3.15
425.877	3.13
426.238	3.13
426.598	3.14
426.959	3.15
427.32	3.12
427.68	3.17
428.041	3.13
428.401	3.15
428.761	3.39
429.122	3.43
429.482	3.11
429.842	3.36
430.202	3.3
430.563	3.35
430.923	3.37
431.283	3.47
431.643	3.47
432.003	3.28
432.363	3.26
432.722	3.42
433.082	3.41
433.442	3.29
433.802	3.29
434.161	3.4
434.521	3.35
434.881	3.25
435.24	3.21
435.6	3.46
435.959	3.37
436.319	3.31
436.678	3.33
437.037	3.12
437.396	3.35
437.756	3.53
438.115	3.25
438.474	3.34
438.833	3.25
439.192	3.36
439.551	3.34
439.91	3.27
440.269	3.51
440.628	3.3
440.987	3.27
441.345	3.26
441.704	3.4
442.063	3.33
442.421	3.27
442.78	3.38
443.138	3.37
443.497	3.45
443.855	3.24
444.214	3.24
444.572	3.37
444.93	3.42
445.288	3.41
445.647	3.32
446.005	3.31
446.363	3.44
446.721	3.4
447.079	3.31
447.437	3.27
447.795	3.33
448.153	3.45
448.51	3.3
448.868	3.36
449.226	3.41
449.584	3.44
449.941	3.29
450.299	3.31
450.656	3.37
451.014	3.5
451.371	3.62
451.729	3.51
452.086	3.27
452.443	3.46
452.801	3.49
453.158	3.52
453.515	3.34
453.872	3.31
454.229	3.49
454.586	3.42
454.943	3.32
455.3	3.52
455.657	3.41
456.014	3.54
456.371	3.47
456.727	3.51
457.084	3.68
457.441	3.5
457.797	3.57
458.154	3.5
458.51	3.62
458.867	3.51
459.223	3.41
459.58	3.61
459.936	3.59
460.292	3.6
460.648	3.38
461.005	3.54
461.361	3.28
461.717	3.39
462.073	3.47
462.429	3.48
462.785	3.56
463.141	3.6
463.496	3.49
463.852	3.64
464.208	3.7
464.564	3.56
464.919	3.68
465.275	3.44
465.631	3.6
465.986	3.69
466.342	3.58
466.697	3.6
467.052	3.6
467.408	3.71
467.763	3.6
468.118	3.53
468.473	3.5
468.829	3.57
469.184	3.51
469.539	3.61
469.894	3.63
470.249	3.72
470.603	3.74
470.958	3.48
471.313	3.63
471.668	3.64
472.023	3.61
472.377	3.75
472.732	3.56
473.086	3.69
473.441	3.53
473.795	3.68
474.15	3.42
474.504	3.72
474.859	3.61
475.213	3.78
475.567	3.38
475.921	3.72
476.275	3.73
476.63	3.84
476.984	3.8
477.338	3.81
477.692	3.61
478.045	3.57
478.399	3.8
478.753	3.69
479.107	3.73
479.461	3.64
479.814	3.67
480.168	3.62
480.521	3.71
480.875	3.71
481.228	3.61
481.582	3.73
481.935	3.7
482.289	3.74
482.642	3.7
482.995	3.67
483.348	3.75
483.701	3.71
484.055	3.61
484.408	3.62
484.761	3.53
485.114	3.42
485.466	3.39
485.819	3.44
486.172	3.43
486.525	3.53
486.878	3.53
487.23	3.61
487.583	3.59
487.936	3.65
488.288	3.59
488.641	3.52
488.993	3.53
489.345	3.49
489.698	3.47
490.05	3.56
490.402	3.58
490.754	3.65
491.107	3.63
491.459	3.69
491.811	3.67
492.163	3.65
492.515	3.6
492.866	3.59
493.218	3.57
493.57	3.51
493.922	3.58
494.274	3.66
494.625	3.69
494.977	3.71
495.328	3.81
495.68	3.79
496.031	3.91
496.383	3.79
496.734	3.85
497.086	3.84
497.437	3.81
497.788	3.81
498.139	3.79
498.49	3.82
498.842	3.87
499.193	3.79
499.544	3.83
499.894	3.82
500.245	3.83
500.596	3.78
500.947	3.81
501.298	3.83
501.648	3.88
501.999	3.85
502.35	3.92
502.7	3.95
503.051	3.93
503.401	3.93
503.752	3.98
504.102	4
504.452	3.91
504.803	3.99
505.153	3.91
505.503	3.92
505.853	3.9
506.203	3.95
506.553	3.93
506.903	3.95
507.253	4.04
507.603	3.93
507.953	4.02
508.303	3.94
508.652	3.85
509.002	4.03
509.352	4.01
509.701	3.96
510.051	4.04
510.4	3.94
510.75	3.94
511.099	3.94
511.449	3.89
511.798	3.95
512.147	3.8
512.496	4.02
512.846	3.95
513.195	3.93
513.544	4.01
513.893	3.94
514.242	3.97
514.591	4.03
514.939	4.02
515.288	4.15
515.637	4.17
515.986	4.13
516.334	4.01
516.683	4.02
517.032	4.11
517.38	4.21
517.729	4.18
518.077	4.15
518.426	4.1
518.774	4.17
519.122	4.09
519.47	4.13
519.819	4.03
520.167	4
520.515	3.97
520.863	4.03
521.211	4.08
521.559	4.12
521.907	4.09
522.255	4.08
522.602	4.24
522.95	4.18
523.298	4.15
523.645	4.08
523.993	4.3
524.341	4.24
524.688	4.27
525.036	4.3
525.383	4.21
525.73	4.28
526.078	4.25
526.425	4.17
526.772	4.13
527.119	3.94
527.466	4.15
527.814	4.06
528.161	4.21
528.508	4.18
528.854	4.19
529.201	4.12
529.548	4.05
529.895	3.99
530.242	3.99
530.588	3.99
530.935	4.08
531.282	4.08
531.628	4.14
531.975	4.14
532.321	4.18
532.667	4.24
533.014	4.3
533.36	4.26
533.706	4.19
534.052	4.26
534.399	4.26
534.745	4.24
535.091	4.19
535.437	4.19
535.783	4.22
536.129	4.26
536.474	4.27
536.82	4.33
537.166	4.4
537.512	4.42
537.857	4.38
538.203	4.26
538.549	4.3
538.894	4.23
539.239	4.47
539.585	4.43
539.93	4.35
540.276	4.64
540.621	4.52
540.966	4.51
541.311	4.52
541.656	4.59
542.001	4.42
542.346	4.39
542.691	4.36
543.036	4.28
543.381	4.26
543.726	4.36
544.071	4.41
544.415	4.47
544.76	4.5
545.105	4.54
545.449	4.55
545.794	4.52
546.138	4.58
546.483	4.66
546.827	4.69
547.171	4.77
547.516	4.55
547.86	4.55
548.204	4.64
548.548	4.61
548.892	4.5
549.236	4.66
549.58	4.84
549.924	4.85
550.268	4.81
550.612	4.71
550.956	4.75
551.3	5
551.643	4.97
551.987	4.93
552.33	4.76
552.674	4.76
553.017	4.89
553.361	4.96
553.704	4.84
554.048	4.83
554.391	4.95
554.734	4.93
555.077	4.9
555.42	5
555.764	5.09
556.107	5.09
556.45	4.98
556.793	5.03
557.135	5.09
557.478	5.03
557.821	5.06
558.164	5.18
558.507	5.06
558.849	5.03
559.192	5.08
559.534	5.08
559.877	5.01
560.219	5.09
560.562	5.21
560.904	5.27
561.246	5.07
561.589	5.24
561.931	5.34
562.273	5.27
562.615	5.29
562.957	5.35
563.299	5.4
563.641	5.33
563.983	5.33
564.325	5.21
564.667	5.11
565.008	5.35
565.35	5.48
565.692	5.16
566.033	5.5
566.375	5.28
566.716	5.37
567.058	5.42
567.399	5.44
567.741	5.38
568.082	5.57
568.423	5.52
568.764	5.4
569.105	5.5
569.447	5.53
569.788	5.54
570.129	5.54
570.47	5.64
570.811	5.67
571.151	5.54
571.492	5.49
571.833	5.53
572.174	5.68
572.514	5.64
572.855	5.61
573.195	5.64
573.536	5.56
573.876	5.7
574.217	5.59
574.557	5.69
574.898	5.79
575.238	5.82
575.578	5.68
575.918	5.67
576.258	5.8
576.598	5.7
576.938	5.82
577.278	5.71
577.618	5.86
577.958	5.86
578.298	5.92
578.638	5.77
578.977	5.88
579.317	5.9
579.657	6.07
579.996	6.07
580.336	6.1
580.675	6.1
581.014	6.3
581.354	6.02
581.693	5.98
582.032	6.23
582.372	6.2
582.711	6.36
583.05	6.22
583.389	6.27
583.728	6.36
584.067	6.18
584.406	6.23
584.745	6.26
585.083	6.19
585.422	6.46
585.761	6.31
586.1	6.11
586.438	6.61
586.777	6.26
587.115	6.37
587.454	6.56
587.792	6.31
588.13	6.58
588.469	6.44
588.807	6.5
589.145	6.49
589.483	6.69
589.821	6.63
590.159	6.46
590.497	6.49
590.835	6.62
591.173	6.69
591.511	6.33
591.849	6.54
592.187	6.57
592.524	6.42
592.862	6.55
593.2	6.47
593.537	6.74
593.875	6.89
594.212	6.82
594.55	6.7
594.887	6.93
595.224	6.86
595.561	6.71
595.899	6.91
596.236	7.04
596.573	6.8
596.91	6.86
597.247	6.69
597.584	6.89
597.921	6.98
598.258	6.84
598.594	6.64
598.931	6.83
599.268	6.89
599.604	6.82
599.941	7.16
600.277	7.22
600.614	7.27
600.95	7.04
601.287	7.18
601.623	7.31
601.959	7.4
602.296	7.1
602.632	7.11
602.968	7.36
603.304	7.32
603.64	7.24
603.976	7.43
604.312	7.57
604.648	7.33
604.984	7.48
605.319	7.53
605.655	7.76
605.991	7.54
606.326	7.51
606.662	7.48
606.998	7.38
607.333	7.58
607.668	7.79
608.004	7.48
608.339	7.65
608.674	7.64
609.01	7.64
609.345	7.63
609.68	7.62
610.015	7.79
610.35	7.73
610.685	7.89
611.02	7.67
611.355	7.99
611.689	7.85
612.024	7.7
612.359	7.86
612.694	7.79
613.028	7.97
613.363	7.89
613.697	8.02
614.032	7.93
614.366	7.86
614.7	8.18
615.035	7.88
615.369	8.02
615.703	8.44
616.037	7.88
616.371	8.09
616.705	8.13
617.039	8.23
617.373	7.85
617.707	8.2
618.041	8.46
618.375	8.05
618.709	8.02
619.042	8.49
619.376	8.48
619.71	8.55
620.043	8.34
620.377	8.5
620.71	8.53
621.043	8.77
621.377	8.3
621.71	8.57
622.043	7.95
622.376	8.49
622.709	8.6
623.043	8.73
623.376	8.47
623.709	8.42
624.041	8.78
624.374	8.88
624.707	9.06
625.04	8.63
625.373	8.72
625.705	9
626.038	9.22
626.37	9.08
626.703	8.38
627.035	8.97
627.368	9.18
627.7	9.26
628.032	8.77
628.365	9.16
628.697	8.79
629.029	8.88
629.361	8.93
629.693	9.33
630.025	9.18
630.357	9.24
630.689	9.1
631.021	9.3
631.353	9.39
631.684	8.99
632.016	9.23
632.348	9.4
632.679	9.09
633.011	9.05
633.342	9.42
633.674	9.6
634.005	9.5
634.336	9.31
634.668	9.37
634.999	9.04
635.33	9.34
635.661	9.37
635.992	9.1
636.323	9.41
636.654	9.79
636.985	9.97
637.316	9.44
637.647	9.74
637.977	9.63
638.308	10.03
638.639	9.73
638.969	9.74
639.3	9.89
639.63	9.71
639.961	10.09
640.291	9.88
640.622	9.97
640.952	10.07
641.282	9.99
641.612	10.18
641.943	10.23
642.273	9.93
642.603	10.64
642.933	9.99
643.263	10.17
643.592	9.68
643.922	9.99
644.252	10
644.582	10.3
644.911	10.17
645.241	10.49
645.571	10.87
645.9	11.01
646.23	9.81
646.559	10.15
646.888	10.23
647.218	10.7
647.547	10.83
647.876	10.72
648.205	10.64
648.534	10.57
648.863	10.83
649.192	10.69
649.521	11.15
649.85	11.22
650.179	10.37
650.508	10.92
650.837	11.39
651.165	10.68
651.494	11.01
651.822	10.76
652.151	10.89
652.479	10.81
652.808	11.09
653.136	10.79
653.465	11.35
653.793	10.89
654.121	11.17
654.449	10.89
654.777	11.31
655.105	11
655.433	10.78
655.761	11.24
656.089	11.03
656.417	11.32
656.745	11.06
657.073	11.86
657.4	11.09
657.728	11.78
658.056	11
658.383	11.33
658.711	11.25
659.038	11.01
659.365	11.2
659.693	11.35
660.02	11.35
660.347	11.03
660.674	11.31
661.001	11.62
661.329	11.49
661.656	11.29
661.982	11.56
662.309	11.76
662.636	11.61
662.963	11.71
663.29	12.02
663.616	12.14
663.943	11.62
664.27	11.82
664.596	11.87
664.923	11.85
665.249	12.01
665.576	12.06
665.902	12.07
666.228	11.87
666.554	11.94
666.881	12.22
667.207	12.54
667.533	12.21
667.859	12.38
668.185	12.32
668.511	12.45
668.837	11.44
669.162	13.01
669.488	13.02
669.814	12.38
670.139	12.49
670.465	12.59
670.791	12.33
671.116	12.46
671.442	12.44
671.767	12.34
672.092	11.94
672.418	12.01
672.743	12.99
673.068	12.97
673.393	12.38
673.718	13.48
674.043	12.65
674.368	13.09
674.693	13.3
675.018	13.4
675.343	13.35
675.667	12.68
675.992	12.45
676.317	12.55
676.641	12.82
676.966	13.03
677.29	13.07
677.615	13.17
677.939	12.92
678.264	13.32
678.588	13.22
678.912	12.84
679.236	13.02
679.56	13.56
679.885	13.35
680.209	12.72
680.532	13.58
680.856	13.19
681.18	13.27
681.504	13.57
681.828	13.34
682.152	13.3
682.475	13.41
682.799	13.18
683.122	13.01
683.446	13.17
683.769	14.05
684.093	13.65
684.416	13.49
684.739	13.88
685.062	13.99
685.386	13.57
685.709	13.57
686.032	14.01
686.355	13.75
686.678	13.93
687.001	13.62
687.324	14.01
687.646	13.77
687.969	13.54
688.292	13.32
688.614	13.83
688.937	13.87
689.26	14.08
689.582	13.63
689.904	13.93
690.227	15.08
690.549	14.69
690.871	14.22
691.194	14.04
691.516	14.05
691.838	15.03
692.16	14.77
692.482	14.14
692.804	14.26
693.126	15.14
693.448	14.21
693.769	14.09
694.091	14.5
694.413	14.93
694.735	14.59
695.056	14.41
695.378	14.65
695.699	14.76
696.021	15.02
696.342	15.16
696.663	14.77
696.984	14.11
697.306	15
697.627	16.01
697.948	14.86
698.269	14.67
698.59	14.42
698.911	15.21
699.232	15.05
699.553	15.04
699.873	15.4
700.194	15.18
700.515	14.87
700.835	15.01
701.156	14.92
701.477	15.25
701.797	15.37
702.117	15.16
702.438	15.27
702.758	15.26
703.078	14.85
703.398	16.12
703.719	14.81
704.039	14.44
704.359	15.52
704.679	15.77
704.999	14.47
705.319	15.71
705.638	15.01
705.958	15.05
706.278	15.4
706.597	14.9
706.917	16.12
707.237	16.32
707.556	15.98
707.876	15.07
708.195	15.9
708.514	15.3
708.834	16.41
709.153	15.79
709.472	16.12
709.791	15.9
710.11	16.53
710.429	15.77
710.748	16.29
711.067	17.5
711.386	16.12
711.705	16.12
712.023	16.75
712.342	16.34
712.661	16.92
712.979	15.9
713.298	16.24
713.616	16.03
713.935	17.13
714.253	16.98
714.572	15.68
714.89	16.32
715.208	16.96
715.526	16.5
715.844	17.02
716.162	17.52
716.48	16.78
716.798	16.41
717.116	16.91
717.434	16.99
717.752	17.05
718.069	17.02
718.387	17.15
718.705	17.51
719.022	16.53
719.34	17.48
719.657	17.28
719.975	17.64
720.292	17.32
720.609	17.17
720.927	16.7
721.244	17.05
721.561	16.79
721.878	17.34
722.195	16.94
722.512	17.38
722.829	16.41
723.146	17.81
723.463	17.49
723.779	16.34
724.096	17.16
724.413	16.04
724.729	15.36
725.046	17.47
725.362	17.1
725.679	16.82
725.995	17.47
726.311	16.28
726.628	16.34
726.944	18.3
727.26	16.98
727.576	17.73
727.892	16.44
728.208	17.57
728.524	17.37
728.84	18.06
729.156	16.94
729.472	17.86
729.787	17.38
730.103	18.63
730.419	17.89
730.734	17.11
731.05	18.21
731.365	18.02
731.681	17.44
731.996	18.13
732.311	19.46
732.626	16.88
732.942	18.01
733.257	18.85
733.572	17.6
733.887	17.65
734.202	18.06
734.517	17.53
734.832	17.71
735.146	18.56
735.461	18.25
735.776	18.66
736.091	18.84
736.405	18.51
736.72	18.97
737.034	19.64
737.349	19.19
737.663	20
737.977	18.36
738.292	18.92
738.606	18.8
738.92	18.18
739.234	18.68
739.548	17.51
739.862	18.92
740.176	19.83
740.49	19.58
740.804	18.35
741.117	18.73
741.431	19.33
741.745	20.17
742.058	18.52
742.372	19.21
742.685	18.32
742.999	18.34
743.312	20.06
743.626	20.14
743.939	19.63
744.252	20.53
744.565	20.9
744.878	18.34
745.191	18.12
745.505	17.3
745.817	17.87
746.13	18.74
746.443	18.75
746.756	18.79
747.069	18.42
747.381	19.97
747.694	19.34
748.007	22.56
748.319	20.33
748.632	20.12
748.944	18.71
749.256	19.34
749.569	20.89
749.881	17.98
750.193	20.67
750.505	18.44
750.817	19.39
751.129	19.67
751.441	17.66
751.753	21.15
752.065	21.15
752.377	17.98
752.689	19.11
753	20.38
753.312	20.87
753.624	19.94
753.935	19.87
754.247	20.73
754.558	21.56
754.869	19.53
755.181	20.36
755.492	19.96
755.803	18.74
756.114	19.9
756.425	21.04
756.736	20.41
757.047	20.99
757.358	19.04
757.669	21.41
757.98	20.34
758.291	19.66
758.601	22.66
758.912	21.28
759.223	21.54
759.533	22.37
759.844	21.34
760.154	21.92
760.464	21.35
760.775	21.8
761.085	20.76
761.395	20.85
761.705	21.49
762.016	21.64
762.326	19.99
762.636	21.93
762.945	21.82
763.255	21.99
763.565	22.82
763.875	22.59
764.185	20.92
764.494	21.96
764.804	22.23
765.113	22.16
765.423	20.84
765.732	21.35
766.042	21.98
766.351	21.71
766.66	22.01
766.97	22.57
767.279	23.08
767.588	22.24
767.897	22.05
768.206	21.61
768.515	23.66
768.824	21.45
769.133	21.35
769.441	22.41
769.75	22.06
770.059	22.3
770.367	24.09
770.676	22.86
770.984	20.72
771.293	23.35
771.601	22.08
771.91	24.01
772.218	22.42
772.526	24.79
772.834	20.96
773.142	23.8
773.45	23.09
773.758	21.49
774.066	22.5
774.374	21.53
774.682	25.54
774.99	23.83
775.298	24.16
775.605	18.32
775.913	21.31
776.22	24.45
776.528	23.73
776.835	21.4
777.143	19.98
777.45	20.55
777.757	21.81
778.065	22.72
778.372	19.65
778.679	21.71
778.986	22.82
779.293	24.59
779.6	21.65
779.907	22.42
780.214	25.44
780.52	21.4
780.827	21.51
781.134	22.99
781.44	27.15
781.747	23.66
782.053	19.34
782.36	20.84
782.666	23.19
782.973	22.09
783.279	23.28
783.585	19.98
783.891	21.44
784.197	22.79
784.503	23.93
784.809	27.51
785.115	23.99
785.421	24.03
785.727	24.57
786.033	21.86
786.339	23.69
786.644	23.37
786.95	25.11
787.255	23.95
787.561	24.9
787.866	24.61
788.172	22.35
788.477	19.99
788.782	24.31
789.088	24.01
789.393	22.6
789.698	22.16
790.003	24.01
790.308	21.53
790.613	24.14
790.918	23.18
791.223	21.66
791.527	24.32
791.832	24.41
792.137	24.45
792.441	29.23
792.746	24.7
793.05	23.8
793.355	27.11
793.659	27.32
793.963	22.75
794.268	25.61
794.572	24.26
794.876	22.81
795.18	21.53
795.484	22.11
795.788	27.03
796.092	27.57
796.396	26.8
796.7	27.55
797.004	29.18
797.307	24.61
797.611	26.66
797.915	24.75
798.218	26.22
798.522	26.29
798.825	26.74
799.128	22.16
799.432	25.8
799.735	24.25
800.038	24.05
800.341	21.54
800.644	29.16
800.947	27.24
801.25	23.99
801.553	27.14
801.856	23.62
802.159	26.19
802.462	22.54
802.764	24.14
803.067	22.84
803.37	25.55
803.672	22.81
803.975	25.56
804.277	24.93
804.579	24.02
804.882	24.28
805.184	24.89
805.486	23.36
805.788	23.7
806.09	23.31
806.392	22.82
806.694	22.87
806.996	26.85
807.298	22.09
807.6	27.21
807.902	23.89
808.203	24.7
808.505	23.69
808.807	23.55
809.108	27.31
809.409	22.4
809.711	23.51
810.012	22.8
810.313	28.59
810.615	21.01
810.916	31.05
811.217	25.35
811.518	20.92
811.819	26.53
812.12	25.33
812.421	24.09
812.722	27.56
813.023	19.61
813.323	26.35
813.624	23.13
813.925	20.12
814.225	29.15
814.526	24.28
814.826	25.8
815.126	25.29
815.427	24.24
815.727	32.12
816.027	29.25
816.327	27.89
816.627	29.19
816.927	27.36
817.227	29.29
817.527	25.61
817.827	20.72
818.127	27.85
818.427	30.17
818.727	23.98
819.026	25.79
819.326	25.78
819.625	26.1
819.925	29.59
820.224	27.31
820.524	31.23
820.823	22.21
821.122	32.02
821.421	30.6
821.72	30.8
822.019	26.2
822.318	29.66
822.617	29.08
822.916	27.78
823.215	26.32
823.514	29.14
823.813	29.64
824.111	30.61
824.41	30.78
824.709	28.9
825.007	29.41
825.306	28.8
825.604	29.91
825.902	30.99
826.201	30.22
826.499	30.57
826.797	30.31
827.095	30.65
827.393	30.41
827.691	29.53
827.989	30.9
828.287	30.43
828.585	30.23
828.882	30.01
829.18	29.21
829.478	29.42
829.775	28.62
830.073	28.82
830.37	28.84
830.668	27.58
830.965	31.07
831.263	28.78
831.56	31.57
831.857	32.12
832.154	28.06
832.451	31.05
832.748	29.12
833.045	29.11
833.342	31.9
833.639	33
833.936	34.99
834.232	34.6
834.529	27.91
834.826	34.28
835.122	25.43
835.419	30.05
835.715	27.56
836.012	26.71
836.308	27.12
836.604	32.3
836.901	32.03
837.197	30.58
837.493	27.96
837.789	30.49
838.085	31.9
838.381	30.04
838.677	32.5
838.972	28.1
839.268	31.17
839.564	30.01
839.86	31.91
840.155	32.17
840.451	26.7
840.746	29.4
841.042	23.3
841.337	25.2
841.632	29.32
841.928	28.4
842.223	29.43
842.518	26.11
842.813	25.4
843.108	32.69
843.403	33.84
843.698	25.37
843.993	31.91
844.287	28.27
844.582	26.05
844.877	28.82
845.171	34.34
845.466	27.6
845.761	33.04
846.055	39.91
846.349	16.34
846.644	20.82
846.938	29
847.232	39.64
847.526	24.1
847.82	20.22
848.114	33.45
848.408	27.82
848.702	14.63
848.996	25.04
849.29	7.97
849.584	26.34
849.877	36.02
850.171	30.15
850.465	34.18
850.758	17.61
851.052	40.99
851.345	28.64
851.638	21.37
851.932	33.7
852.225	14.56
852.518	27.18
852.811	15.34
853.104	21.49
853.397	13.11
853.69	20.85
853.983	-2.86
854.276	45.52
854.569	21.2
854.861	33.99
855.154	17.63
855.447	43.27
855.739	25.43
856.032	32.66
856.324	45.36
856.616	19.83
856.909	31.18
857.201	7.77
857.493	17.74
857.785	31.41
858.077	-1.12
858.369	16.66
858.661	33.35
858.953	28.77
859.245	40.79
859.537	54.41
859.829	29.78
860.12	26.18
860.412	32.17
860.703	25.89
860.995	7.24
861.286	29.64
861.578	5.62
861.869	38.16
862.16	11.64
862.452	49
862.743	35.3
863.034	37.05
863.325	33.33
863.616	21.01
863.907	34.32
864.198	56.46
864.488	39.31
864.779	39.03
865.07	7.23
865.36	39.97
865.651	37.54
865.941	-4.81
866.232	26.3
866.522	29.37
866.813	37.17
867.103	12.2
867.393	39.25
867.683	16.54
867.973	20.23
868.263	13.47
868.553	4.89
868.843	39.75
869.133	3.19
869.423	10.78
869.713	34.65
870.002	40.21
870.292	38.29
870.582	35.42
870.871	28.52
871.161	10.76
871.45	15.67
871.739	19
872.029	23.54
872.318	36.41
872.607	26.21
872.896	33.62
873.185	13.53
873.474	48.15
873.763	26.91
874.052	31.75
874.341	24.22
874.63	27.02
874.918	6.14
875.207	28.98
875.496	26.41
875.784	23.19
876.073	3.33
876.361	25.14
876.649	-24.67
876.938	28.38
877.226	41.2
877.514	21.35
877.802	-6.56
878.09	29.88
878.378	38.4
878.666	46.67
878.954	42.1
879.242	20.07
879.53	28.08
879.817	47.88
880.105	44.12
880.392	36.99
880.68	5.46
880.967	47.85
881.255	26.98
881.542	35.4
881.83	14.14
882.117	31.52
882.404	10.71
882.691	6.29
882.978	41.84
883.265	11.75
883.552	32.21
883.839	30.78
884.126	17.24
884.413	34.94
884.699	29.1
884.986	35.17
885.273	39.88
885.559	39.88
885.846	39.88
