Data from 15NW-2_chest_Reflection__0__15.txt Node

Date: Fri Nov 11 16:17:57 CST 2022
User: ToomeyLab
Spectrometer: FLMS14357
Trigger mode: 0
Integration Time (sec): 1.000000E-2
Scans to average: 100
Electric dark correction enabled: true
Nonlinearity correction enabled: false
Boxcar width: 0
XAxis mode: Wavelengths
Number of Pixels in Spectrum: 2048
>>>>>Begin Spectral Data<<<<<
189.047	1275.37
189.435	1275.37
189.823	1275.37
190.211	830.77
190.599	61.76
190.987	49.34
191.375	79.72
191.763	-28.58
192.151	78.77
192.538	181.56
192.926	108.6
193.314	-51.43
193.702	116.39
194.089	-32.32
194.477	-261.83
194.864	186.82
195.252	79.6
195.639	-2339.39
196.027	36.48
196.414	336.97
196.801	-622.91
197.189	108.89
197.576	115.46
197.963	29.87
198.351	-4.93
198.738	-139.09
199.125	-1.55
199.512	30.5
199.899	6.42
200.286	42.57
200.673	10.18
201.06	-22.73
201.447	5.71
201.833	52.43
202.22	35.58
202.607	30.41
202.994	24.24
203.38	25.04
203.767	7.21
204.154	24.32
204.54	29.82
204.927	24.65
205.313	40.09
205.699	17.08
206.086	28.8
206.472	9.8
206.858	-13.49
207.245	25.43
207.631	21.41
208.017	18.44
208.403	29.01
208.789	-8.67
209.175	11.86
209.561	26.11
209.947	13.59
210.333	25.52
210.719	15.14
211.105	22.02
211.491	-53.2
211.876	30.13
212.262	-6.52
212.648	11.12
213.034	29.81
213.419	3.19
213.805	14.36
214.19	-9.24
214.576	13.34
214.961	5.3
215.346	-50.88
215.732	-48.19
216.117	32.16
216.502	12.83
216.888	2.25
217.273	-20.15
217.658	3.43
218.043	8.4
218.428	-1.71
218.813	15.84
219.198	-18.25
219.583	11.76
219.968	5.66
220.353	-18.63
220.738	-4.7
221.122	-4.36
221.507	21.74
221.892	24.48
222.276	4.25
222.661	20.53
223.046	11.22
223.43	4.3
223.815	-8.22
224.199	3.8
224.583	0.79
224.968	18.81
225.352	4.91
225.736	8.65
226.121	3.12
226.505	7.81
226.889	5.25
227.273	6.7
227.657	-3.88
228.041	2.82
228.425	8.04
228.809	7.89
229.193	5
229.577	3.79
229.961	3.38
230.344	4.07
230.728	3.16
231.112	4.28
231.495	3.31
231.879	3.26
232.263	1.6
232.646	2.82
233.03	3.62
233.413	3.74
233.797	2.4
234.18	4.99
234.563	2.67
234.946	0.5
235.33	2.37
235.713	3.92
236.096	3.24
236.479	4.22
236.862	4.25
237.245	3.61
237.628	3.35
238.011	4.15
238.394	4.7
238.777	1.79
239.16	1.59
239.543	3.38
239.925	5.45
240.308	2.67
240.691	2.2
241.073	1.6
241.456	0.58
241.838	4.32
242.221	3.44
242.603	2.92
242.986	2.76
243.368	3
243.75	3.15
244.133	2.92
244.515	3.22
244.897	2.98
245.279	3.08
245.661	2.54
246.043	3.72
246.425	4.51
246.807	3.34
247.189	1.35
247.571	1.71
247.953	2.94
248.335	3.11
248.717	2.82
249.098	2.89
249.48	3.04
249.862	2.62
250.243	2.66
250.625	3.04
251.006	3.11
251.388	2.96
251.769	3.59
252.151	3.89
252.532	3.81
252.913	2.92
253.295	2.39
253.676	2.72
254.057	2.41
254.438	3.13
254.819	2.54
255.2	3.42
255.581	2.81
255.962	3.35
256.343	2.9
256.724	2.92
257.105	2.92
257.486	4.12
257.867	2.32
258.247	3.66
258.628	2.6
259.009	3.49
259.389	2.84
259.77	3.49
260.15	3.11
260.531	2.39
260.911	2.57
261.292	2.84
261.672	2.55
262.052	2.71
262.432	3.29
262.813	2.59
263.193	2.82
263.573	3.4
263.953	3.11
264.333	3.23
264.713	2.65
265.093	3.07
265.473	3.92
265.853	2.76
266.233	2.35
266.612	2.96
266.992	2.94
267.372	2.66
267.752	2.73
268.131	2.84
268.511	2.71
268.89	2.76
269.27	2.19
269.649	2.46
270.029	2.16
270.408	2.72
270.787	3.31
271.167	2.66
271.546	3.07
271.925	2.98
272.304	3.02
272.683	2.81
273.062	2.98
273.441	2.6
273.82	2.56
274.199	2.79
274.578	2.88
274.957	2.11
275.336	2.89
275.715	2.82
276.093	3.41
276.472	3.08
276.851	2.62
277.229	2.57
277.608	2.85
277.986	2.81
278.365	3.59
278.743	2.22
279.122	1.94
279.5	2.88
279.878	2.69
280.257	3.09
280.635	2.25
281.013	2.46
281.391	2.29
281.769	3.38
282.147	2.99
282.525	2.63
282.903	2.78
283.281	2.44
283.659	2.2
284.037	2.45
284.415	2.24
284.792	2.92
285.17	2.61
285.548	2.35
285.925	2.77
286.303	2.28
286.68	2.5
287.058	2.67
287.435	2.59
287.813	2.65
288.19	2.62
288.567	2.76
288.945	2.36
289.322	2.15
289.699	2.55
290.076	2.89
290.453	2.24
290.83	2.98
291.207	2.79
291.584	2.44
291.961	2.45
292.338	2.81
292.715	2.62
293.092	2.42
293.469	2.8
293.845	2.51
294.222	3
294.599	2.64
294.975	2.95
295.352	2.71
295.728	2.7
296.105	2.53
296.481	2.7
296.858	2.79
297.234	2.64
297.61	2.62
297.986	2.33
298.363	2.53
298.739	2.81
299.115	2.41
299.491	2.7
299.867	2.65
300.243	2.53
300.619	2.65
300.995	2.38
301.371	2.14
301.746	2.44
302.122	2.65
302.498	2.42
302.874	2.77
303.249	2.73
303.625	2.43
304	2.48
304.376	2.83
304.751	3.17
305.127	3.06
305.502	2.74
305.878	3.35
306.253	2.8
306.628	2.95
307.003	2.39
307.378	2.77
307.754	2.85
308.129	2.71
308.504	2.74
308.879	2.64
309.254	1.77
309.629	2.48
310.003	2.67
310.378	2.34
310.753	2.46
311.128	2.78
311.502	2.1
311.877	2.57
312.252	2.61
312.626	2.48
313.001	2.45
313.375	2.78
313.75	2.66
314.124	2.56
314.498	2.91
314.873	2.48
315.247	2.52
315.621	2.3
315.995	2.45
316.369	2.73
316.743	2.6
317.117	2.5
317.491	2.68
317.865	2.51
318.239	3.15
318.613	2.87
318.987	3.05
319.361	2.49
319.734	2.31
320.108	2.49
320.482	2.4
320.855	2.98
321.229	2.84
321.602	2.65
321.976	2.51
322.349	2.82
322.723	2.71
323.096	2.81
323.469	2.62
323.843	3.41
324.216	2.32
324.589	2.99
324.962	2.57
325.335	2.73
325.708	2.6
326.081	2.5
326.454	2.64
326.827	2.65
327.2	2.78
327.573	2.68
327.945	2.52
328.318	3.06
328.691	2.8
329.063	2.47
329.436	2.82
329.809	2.43
330.181	2.79
330.553	2.75
330.926	2.09
331.298	2.35
331.671	2.69
332.043	2.97
332.415	2.84
332.787	2.93
333.159	2.81
333.532	2.17
333.904	2.85
334.276	2.68
334.648	2.51
335.02	2.83
335.391	2.46
335.763	2.71
336.135	3.01
336.507	2.65
336.879	2.51
337.25	1.98
337.622	3.01
337.993	2.27
338.365	2.6
338.736	2.4
339.108	2.42
339.479	2.94
339.851	2.26
340.222	2.31
340.593	2.5
340.964	2.76
341.336	2.28
341.707	2.96
342.078	2.72
342.449	2.84
342.82	2.77
343.191	2.87
343.562	2.85
343.933	2.33
344.303	3.53
344.674	2.42
345.045	2.65
345.416	2.74
345.786	2.49
346.157	2.37
346.527	2.25
346.898	2.5
347.268	2.62
347.639	3.02
348.009	2.54
348.38	2.77
348.75	2.81
349.12	2.87
349.49	2.7
349.861	2.37
350.231	2.66
350.601	3.55
350.971	2.78
351.341	2.83
351.711	2.34
352.081	2.28
352.45	2.85
352.82	2.64
353.19	2.5
353.56	2.81
353.929	2.77
354.299	3.14
354.669	2.69
355.038	2.58
355.408	2.24
355.777	2.82
356.147	2.7
356.516	2.86
356.885	2.62
357.254	2.68
357.624	2.82
357.993	2.81
358.362	2.82
358.731	2.73
359.1	2.49
359.469	2.69
359.838	2.89
360.207	2.82
360.576	2.68
360.945	2.78
361.314	2.79
361.682	2.65
362.051	2.7
362.42	2.45
362.788	2.6
363.157	2.72
363.525	2.82
363.894	2.76
364.262	2.54
364.631	2.53
364.999	2.59
365.367	2.94
365.735	2.69
366.104	2.34
366.472	2.77
366.84	2.73
367.208	2.64
367.576	2.55
367.944	2.87
368.312	2.55
368.68	2.67
369.048	2.41
369.416	2.66
369.783	2.47
370.151	2.77
370.519	3.12
370.886	2.67
371.254	2.44
371.621	2.77
371.989	2.53
372.356	2.39
372.724	2.91
373.091	2.71
373.458	2.6
373.826	2.85
374.193	2.86
374.56	2.81
374.927	2.66
375.294	2.87
375.661	2.97
376.028	2.95
376.395	2.66
376.762	2.61
377.129	2.9
377.496	2.68
377.863	2.95
378.229	2.9
378.596	2.64
378.963	2.69
379.329	2.59
379.696	2.72
380.062	2.66
380.429	2.58
380.795	2.73
381.161	3.03
381.528	2.74
381.894	2.76
382.26	2.74
382.626	2.65
382.993	2.87
383.359	2.89
383.725	3
384.091	2.74
384.457	2.78
384.823	2.87
385.188	2.77
385.554	2.76
385.92	2.74
386.286	2.55
386.651	2.76
387.017	2.79
387.383	2.94
387.748	2.54
388.114	2.72
388.479	2.81
388.845	2.72
389.21	2.51
389.575	2.48
389.94	2.86
390.306	2.49
390.671	2.76
391.036	2.65
391.401	2.69
391.766	2.75
392.131	2.5
392.496	2.95
392.861	2.69
393.226	2.79
393.591	2.61
393.956	2.64
394.32	2.88
394.685	3.02
395.05	2.89
395.414	2.9
395.779	2.55
396.143	2.74
396.508	2.78
396.872	2.83
397.236	2.74
397.601	2.86
397.965	2.94
398.329	2.72
398.694	2.55
399.058	2.62
399.422	2.84
399.786	2.89
400.15	2.75
400.514	2.81
400.878	2.84
401.242	2.84
401.605	2.78
401.969	2.73
402.333	2.84
402.697	2.9
403.06	2.82
403.424	2.67
403.787	2.98
404.151	2.74
404.514	2.74
404.878	3.01
405.241	2.82
405.604	2.76
405.968	2.8
406.331	2.69
406.694	3.02
407.057	2.83
407.42	2.76
407.783	2.85
408.146	2.89
408.509	2.92
408.872	2.9
409.235	2.75
409.598	2.72
409.961	2.72
410.323	2.7
410.686	3.04
411.049	3.05
411.411	2.94
411.774	2.94
412.136	2.88
412.499	2.8
412.861	2.74
413.223	2.89
413.586	2.8
413.948	2.67
414.31	2.87
414.672	2.93
415.035	3
415.397	2.9
415.759	2.86
416.121	2.86
416.483	2.79
416.845	2.85
417.206	2.94
417.568	2.7
417.93	2.81
418.292	2.71
418.653	2.77
419.015	2.68
419.377	2.88
419.738	2.96
420.1	2.8
420.461	2.65
420.822	2.76
421.184	2.74
421.545	2.69
421.906	2.79
422.267	2.77
422.629	2.73
422.99	2.76
423.351	2.74
423.712	2.7
424.073	2.78
424.434	2.69
424.795	2.86
425.155	2.9
425.516	2.74
425.877	2.81
426.238	2.66
426.598	2.76
426.959	2.82
427.32	2.76
427.68	2.82
428.041	2.94
428.401	2.74
428.761	2.71
429.122	2.94
429.482	2.81
429.842	2.85
430.202	2.85
430.563	2.74
430.923	2.78
431.283	2.88
431.643	2.79
432.003	2.86
432.363	2.92
432.722	2.91
433.082	2.84
433.442	3.01
433.802	3.06
434.161	2.92
434.521	2.91
434.881	2.8
435.24	3.01
435.6	2.78
435.959	2.87
436.319	2.82
436.678	2.8
437.037	2.73
437.396	2.72
437.756	2.88
438.115	2.76
438.474	2.8
438.833	2.73
439.192	2.88
439.551	2.73
439.91	2.82
440.269	2.91
440.628	2.91
440.987	2.89
441.345	2.85
441.704	2.81
442.063	2.97
442.421	2.78
442.78	2.9
443.138	2.79
443.497	2.78
443.855	2.83
444.214	2.8
444.572	2.91
444.93	2.82
445.288	2.92
445.647	2.61
446.005	2.78
446.363	2.8
446.721	2.64
447.079	2.79
447.437	2.82
447.795	2.74
448.153	2.85
448.51	2.84
448.868	2.76
449.226	2.87
449.584	2.9
449.941	2.72
450.299	2.83
450.656	2.88
451.014	2.86
451.371	2.79
451.729	2.79
452.086	2.88
452.443	2.93
452.801	2.89
453.158	2.79
453.515	2.89
453.872	2.91
454.229	2.81
454.586	2.82
454.943	2.9
455.3	2.83
455.657	3.05
456.014	2.81
456.371	2.71
456.727	2.9
457.084	2.84
457.441	2.85
457.797	2.89
458.154	2.94
458.51	2.93
458.867	3.09
459.223	2.83
459.58	3.05
459.936	2.99
460.292	2.83
460.648	2.81
461.005	3.01
461.361	2.83
461.717	2.8
462.073	2.93
462.429	2.96
462.785	2.75
463.141	2.9
463.496	2.9
463.852	2.96
464.208	3.07
464.564	2.88
464.919	3.04
465.275	2.89
465.631	3.13
465.986	2.84
466.342	3
466.697	2.89
467.052	3
467.408	2.9
467.763	2.92
468.118	3
468.473	2.97
468.829	3.01
469.184	3.16
469.539	3.12
469.894	2.94
470.249	3.04
470.603	2.83
470.958	2.99
471.313	2.93
471.668	2.89
472.023	3.08
472.377	3.05
472.732	2.92
473.086	2.84
473.441	2.93
473.795	3.15
474.15	2.93
474.504	3.08
474.859	3.02
475.213	2.95
475.567	3.08
475.921	3.07
476.275	3.07
476.63	2.91
476.984	2.99
477.338	2.9
477.692	2.94
478.045	2.93
478.399	2.92
478.753	2.94
479.107	2.91
479.461	2.9
479.814	2.99
480.168	3.02
480.521	3.02
480.875	2.95
481.228	2.98
481.582	2.9
481.935	3.05
482.289	3.06
482.642	2.99
482.995	2.96
483.348	2.84
483.701	2.97
484.055	2.92
484.408	2.91
484.761	2.8
485.114	2.74
485.466	2.68
485.819	2.72
486.172	2.74
486.525	2.82
486.878	2.8
487.23	2.86
487.583	2.88
487.936	2.85
488.288	2.78
488.641	2.83
488.993	2.79
489.345	2.8
489.698	2.82
490.05	2.76
490.402	2.85
490.754	2.91
491.107	2.94
491.459	2.92
491.811	2.87
492.163	2.88
492.515	2.92
492.866	2.88
493.218	2.78
493.57	2.8
493.922	2.81
494.274	2.87
494.625	2.86
494.977	2.96
495.328	2.95
495.68	3.07
496.031	2.97
496.383	3.05
496.734	3.05
497.086	3.01
497.437	3.06
497.788	3.09
498.139	2.91
498.49	2.99
498.842	3.01
499.193	3.06
499.544	3.04
499.894	3.13
500.245	2.94
500.596	3.11
500.947	3.06
501.298	3.05
501.648	3.13
501.999	3.07
502.35	3.05
502.7	3.16
503.051	3.04
503.401	2.99
503.752	3.02
504.102	3.01
504.452	3.09
504.803	3.1
505.153	3.12
505.503	3.11
505.853	3.12
506.203	3.11
506.553	3.2
506.903	3.11
507.253	3.1
507.603	3.1
507.953	3.12
508.303	3.11
508.652	3.09
509.002	3.06
509.352	3.2
509.701	3.08
510.051	2.97
510.4	3.11
510.75	3.05
511.099	3.01
511.449	3.03
511.798	3.02
512.147	3.03
512.496	3.08
512.846	3.05
513.195	3.03
513.544	3.15
513.893	3.1
514.242	3.05
514.591	3.09
514.939	3.12
515.288	3.18
515.637	3.12
515.986	3.22
516.334	3.15
516.683	3.1
517.032	3.09
517.38	3.3
517.729	3.24
518.077	3.1
518.426	3.19
518.774	3.03
519.122	3.11
519.47	3.03
519.819	3.07
520.167	3.05
520.515	3.05
520.863	3.06
521.211	3.15
521.559	3.06
521.907	3.2
522.255	3.17
522.602	3.18
522.95	3.12
523.298	3.18
523.645	3.17
523.993	3.32
524.341	3.32
524.688	3.17
525.036	3.25
525.383	3.24
525.73	3.21
526.078	3.13
526.425	3.09
526.772	3.16
527.119	3.15
527.466	3.17
527.814	3.13
528.161	3.11
528.508	3.08
528.854	3.14
529.201	3.13
529.548	3.15
529.895	3.04
530.242	3.01
530.588	3.02
530.935	3.02
531.282	3.13
531.628	3.11
531.975	3.14
532.321	3.1
532.667	3.19
533.014	3.18
533.36	3.22
533.706	3.26
534.052	3.21
534.399	3.11
534.745	3.24
535.091	3.13
535.437	3.22
535.783	3.18
536.129	3.21
536.474	3.28
536.82	3.22
537.166	3.28
537.512	3.3
537.857	3.28
538.203	3.18
538.549	3.17
538.894	3.26
539.239	3.25
539.585	3.27
539.93	3.31
540.276	3.3
540.621	3.28
540.966	3.32
541.311	3.45
541.656	3.35
542.001	3.32
542.346	3.3
542.691	3.25
543.036	3.23
543.381	3.19
543.726	3.26
544.071	3.24
544.415	3.32
544.76	3.35
545.105	3.37
545.449	3.36
545.794	3.33
546.138	3.43
546.483	3.4
546.827	3.41
547.171	3.35
547.516	3.22
547.86	3.35
548.204	3.34
548.548	3.37
548.892	3.47
549.236	3.44
549.58	3.49
549.924	3.52
550.268	3.63
550.612	3.45
550.956	3.45
551.3	3.62
551.643	3.54
551.987	3.52
552.33	3.54
552.674	3.42
553.017	3.61
553.361	3.55
553.704	3.53
554.048	3.48
554.391	3.62
554.734	3.59
555.077	3.63
555.42	3.66
555.764	3.54
556.107	3.66
556.45	3.69
556.793	3.66
557.135	3.58
557.478	3.65
557.821	3.77
558.164	3.78
558.507	3.75
558.849	3.65
559.192	3.85
559.534	3.83
559.877	3.81
560.219	3.88
560.562	3.77
560.904	3.66
561.246	3.7
561.589	3.91
561.931	3.7
562.273	3.64
562.615	3.73
562.957	3.82
563.299	3.91
563.641	3.69
563.983	3.78
564.325	3.62
564.667	3.73
565.008	3.73
565.35	3.84
565.692	3.76
566.033	3.97
566.375	3.93
566.716	3.84
567.058	3.78
567.399	3.92
567.741	3.94
568.082	3.84
568.423	3.93
568.764	3.86
569.105	3.92
569.447	3.89
569.788	3.83
570.129	3.96
570.47	3.94
570.811	3.97
571.151	3.93
571.492	4.05
571.833	3.89
572.174	4.02
572.514	4.02
572.855	3.87
573.195	3.97
573.536	3.97
573.876	4.11
574.217	4
574.557	3.89
574.898	4.01
575.238	4.04
575.578	3.99
575.918	3.95
576.258	4.28
576.598	4.13
576.938	4.14
577.278	4.15
577.618	4.2
577.958	4.08
578.298	4.4
578.638	4.14
578.977	4.23
579.317	4.22
579.657	4.27
579.996	4.2
580.336	4.31
580.675	4.21
581.014	4.23
581.354	4.32
581.693	4.12
582.032	4.47
582.372	4.45
582.711	4.55
583.05	4.3
583.389	4.52
583.728	4.31
584.067	4.35
584.406	4.31
584.745	4.37
585.083	4.42
585.422	4.43
585.761	4.52
586.1	4.45
586.438	4.58
586.777	4.54
587.115	4.45
587.454	4.64
587.792	4.65
588.13	4.54
588.469	4.56
588.807	4.69
589.145	4.75
589.483	4.56
589.821	4.35
590.159	4.62
590.497	4.64
590.835	4.44
591.173	4.63
591.511	4.91
591.849	4.64
592.187	4.58
592.524	4.65
592.862	4.93
593.2	4.76
593.537	4.66
593.875	4.73
594.212	4.7
594.55	4.8
594.887	4.71
595.224	4.76
595.561	4.89
595.899	4.72
596.236	4.81
596.573	4.64
596.91	4.92
597.247	4.88
597.584	4.88
597.921	4.84
598.258	4.81
598.594	4.81
598.931	4.79
599.268	4.73
599.604	4.82
599.941	4.95
600.277	4.89
600.614	5.04
600.95	5
601.287	5.2
601.623	4.99
601.959	4.87
602.296	5.04
602.632	5.01
602.968	4.9
603.304	5.16
603.64	5.05
603.976	5.18
604.312	5.02
604.648	4.85
604.984	5.12
605.319	5.14
605.655	5.17
605.991	5
606.326	5.08
606.662	4.94
606.998	5.01
607.333	5.11
607.668	5.29
608.004	5.16
608.339	5.43
608.674	5.36
609.01	5.24
609.345	5.25
609.68	5.37
610.015	5.55
610.35	5.37
610.685	5.41
611.02	5.41
611.355	5.42
611.689	5.45
612.024	5.32
612.359	5.34
612.694	5.51
613.028	5.34
613.363	5.67
613.697	5.47
614.032	5.48
614.366	5.24
614.7	5.58
615.035	5.57
615.369	5.82
615.703	5.76
616.037	5.54
616.371	5.58
616.705	5.9
617.039	5.54
617.373	5.7
617.707	5.98
618.041	5.69
618.375	5.94
618.709	5.62
619.042	5.64
619.376	5.78
619.71	5.83
620.043	5.97
620.377	5.89
620.71	5.84
621.043	5.9
621.377	5.59
621.71	5.93
622.043	5.85
622.376	5.99
622.709	6.15
623.043	5.65
623.376	6.17
623.709	5.98
624.041	6.07
624.374	6.3
624.707	5.96
625.04	5.91
625.373	6.05
625.705	6.15
626.038	6.07
626.37	5.96
626.703	6.43
627.035	5.95
627.368	6.3
627.7	6.14
628.032	6.12
628.365	6.5
628.697	6.26
629.029	6.26
629.361	6.02
629.693	6.25
630.025	6.11
630.357	6.2
630.689	6.5
631.021	6.28
631.353	6.25
631.684	6.63
632.016	6.23
632.348	6.33
632.679	6.56
633.011	6.14
633.342	6.36
633.674	6.73
634.005	6.7
634.336	6.34
634.668	6.56
634.999	6.12
635.33	6.56
635.661	6.86
635.992	6.78
636.323	6.73
636.654	6.67
636.985	6.87
637.316	6.85
637.647	6.58
637.977	6.68
638.308	6.59
638.639	7
638.969	6.66
639.3	6.61
639.63	6.75
639.961	6.88
640.291	6.66
640.622	6.91
640.952	7.05
641.282	6.94
641.612	6.98
641.943	7.04
642.273	6.99
642.603	6.5
642.933	6.98
643.263	6.83
643.592	7.48
643.922	6.7
644.252	7.13
644.582	7.06
644.911	7.33
645.241	7.51
645.571	7.19
645.9	7.07
646.23	7.02
646.559	6.92
646.888	7.38
647.218	6.84
647.547	7.29
647.876	7.24
648.205	7.31
648.534	7.08
648.863	6.88
649.192	7.65
649.521	7.49
649.85	7.49
650.179	7.13
650.508	7.74
650.837	7.73
651.165	7.82
651.494	7.55
651.822	6.94
652.151	7.35
652.479	7.77
652.808	7.47
653.136	7.8
653.465	7.55
653.793	7.74
654.121	7.6
654.449	7.84
654.777	7.58
655.105	8.02
655.433	7.44
655.761	7.64
656.089	7.93
656.417	7.81
656.745	8.08
657.073	7.88
657.4	7.94
657.728	8.12
658.056	7.86
658.383	7.73
658.711	8.11
659.038	8.05
659.365	8.19
659.693	7.78
660.02	8.5
660.347	7.98
660.674	7.85
661.001	8.15
661.329	7.94
661.656	8.14
661.982	8.21
662.309	7.93
662.636	7.87
662.963	8.25
663.29	8.08
663.616	8.39
663.943	8.68
664.27	8.26
664.596	8.61
664.923	8.44
665.249	8.35
665.576	8.49
665.902	8.21
666.228	8.38
666.554	8.44
666.881	8.27
667.207	7.92
667.533	8.96
667.859	8.62
668.185	8.69
668.511	8.43
668.837	8.4
669.162	8.64
669.488	8.35
669.814	8.44
670.139	8.66
670.465	8.54
670.791	8.53
671.116	8.85
671.442	8.29
671.767	8.75
672.092	9.1
672.418	9.02
672.743	8.74
673.068	8.89
673.393	8.81
673.718	9.5
674.043	9.05
674.368	8.82
674.693	9.12
675.018	8.5
675.343	9.16
675.667	8.57
675.992	9.45
676.317	9.37
676.641	9.42
676.966	8.62
677.29	8.35
677.615	9.6
677.939	9.3
678.264	9.1
678.588	9.51
678.912	8.85
679.236	9.08
679.56	10.02
679.885	9.57
680.209	9.3
680.532	8.82
680.856	9.69
681.18	9.26
681.504	9.37
681.828	8.88
682.152	9.78
682.475	9.45
682.799	9.48
683.122	9.26
683.446	9.27
683.769	9.92
684.093	9.6
684.416	9.68
684.739	9.5
685.062	9.73
685.386	9.74
685.709	10.02
686.032	9.86
686.355	9.38
686.678	9.87
687.001	9.85
687.324	9.64
687.646	10.09
687.969	10.26
688.292	10.07
688.614	10
688.937	9.54
689.26	10.3
689.582	10.25
689.904	9.28
690.227	10.8
690.549	10.3
690.871	10.32
691.194	10.87
691.516	10.52
691.838	9.45
692.16	10.27
692.482	10.06
692.804	10.29
693.126	10.13
693.448	10.85
693.769	10.52
694.091	10.26
694.413	10.54
694.735	9.61
695.056	10.65
695.378	9.76
695.699	10.43
696.021	10.8
696.342	10.45
696.663	10.97
696.984	11.06
697.306	10.04
697.627	10.09
697.948	10.35
698.269	11.08
698.59	10.81
698.911	10.43
699.232	11.33
699.553	10.11
699.873	10.64
700.194	10.48
700.515	10.66
700.835	10.58
701.156	10.61
701.477	10.59
701.797	10.74
702.117	11.14
702.438	11.03
702.758	11.05
703.078	10.85
703.398	10.63
703.719	11.26
704.039	10.86
704.359	10.74
704.679	10.44
704.999	10.89
705.319	11.29
705.638	10.84
705.958	10.11
706.278	11.22
706.597	11.25
706.917	9.95
707.237	11.5
707.556	10.97
707.876	11.43
708.195	11.52
708.514	11.61
708.834	11.47
709.153	11.87
709.472	11.56
709.791	11.77
710.11	11.34
710.429	11.24
710.748	11.43
711.067	11.92
711.386	11.82
711.705	11.73
712.023	12.08
712.342	11.81
712.661	10.92
712.979	11.97
713.298	11.78
713.616	11.67
713.935	12.41
714.253	12.04
714.572	11.63
714.89	12.8
715.208	11.55
715.526	12.41
715.844	11.77
716.162	11.85
716.48	11.62
716.798	11.37
717.116	11.76
717.434	12.62
717.752	12.57
718.069	12.74
718.387	13.02
718.705	11.75
719.022	12.81
719.34	12.7
719.657	11.55
719.975	12.04
720.292	12.21
720.609	11.66
720.927	12.53
721.244	13.05
721.561	12.8
721.878	12.43
722.195	12.72
722.512	12.6
722.829	12.32
723.146	13.33
723.463	12.62
723.779	13.36
724.096	12.09
724.413	12.64
724.729	11.4
725.046	12.68
725.362	12.91
725.679	12.33
725.995	12.25
726.311	13.48
726.628	12.62
726.944	13.39
727.26	14.36
727.576	12.7
727.892	10.91
728.208	13.8
728.524	12.6
728.84	13.36
729.156	13.27
729.472	13.21
729.787	13.88
730.103	13.28
730.419	12.73
730.734	12.77
731.05	12.94
731.365	12.2
731.681	12.97
731.996	12.17
732.311	13.56
732.626	13.14
732.942	13.53
733.257	12.75
733.572	13.91
733.887	13.92
734.202	13.31
734.517	13.12
734.832	13.38
735.146	12.9
735.461	12.75
735.776	13.82
736.091	15.17
736.405	13.89
736.72	12.55
737.034	13.54
737.349	14.69
737.663	13.68
737.977	14.68
738.292	13.34
738.606	14.27
738.92	14.03
739.234	14.26
739.548	13.94
739.862	13.92
740.176	14.23
740.49	13.49
740.804	14.36
741.117	13.79
741.431	14
741.745	14.19
742.058	15.94
742.372	14.96
742.685	13.94
742.999	17
743.312	14.92
743.626	13.89
743.939	12.96
744.252	13.03
744.565	15.13
744.878	14.91
745.191	14.38
745.505	14.48
745.817	16
746.13	13.9
746.443	14.23
746.756	13.35
747.069	15.62
747.381	14.76
747.694	15.74
748.007	13.32
748.319	15.81
748.632	15.46
748.944	15.15
749.256	15.48
749.569	15.44
749.881	15.69
750.193	15.46
750.505	13.86
750.817	14.52
751.129	15.27
751.441	15.83
751.753	15.32
752.065	16.1
752.377	14.47
752.689	14.1
753	18.11
753.312	14.76
753.624	14.28
753.935	15.49
754.247	14.09
754.558	14.08
754.869	14.2
755.181	15.27
755.492	15.01
755.803	15.27
756.114	15.38
756.425	16.61
756.736	14.55
757.047	14.59
757.358	16.51
757.669	17.19
757.98	14.89
758.291	15.68
758.601	16.47
758.912	16.56
759.223	14.67
759.533	15.8
759.844	15.48
760.154	15.63
760.464	15.58
760.775	17.42
761.085	14.32
761.395	15.84
761.705	16.09
762.016	16.3
762.326	16.9
762.636	15.74
762.945	15.5
763.255	15.7
763.565	17.04
763.875	16.93
764.185	16.99
764.494	15.54
764.804	14.84
765.113	15.69
765.423	16.65
765.732	16.04
766.042	16.49
766.351	15.21
766.66	17.12
766.97	16.17
767.279	16.08
767.588	16.31
767.897	17.14
768.206	18.48
768.515	17.72
768.824	16.21
769.133	15.92
769.441	17.58
769.75	16.68
770.059	15.49
770.367	15.59
770.676	17.02
770.984	18.57
771.293	16.49
771.601	18.69
771.91	17.18
772.218	18.31
772.526	16.4
772.834	16.62
773.142	17.55
773.45	19.11
773.758	18.99
774.066	15.09
774.374	15.52
774.682	18.72
774.99	17.26
775.298	18.89
775.605	14.25
775.913	17.38
776.22	16.96
776.528	16.87
776.835	19.73
777.143	16.26
777.45	18.48
777.757	17.37
778.065	19.25
778.372	16.33
778.679	14.55
778.986	16.07
779.293	16.74
779.6	16.61
779.907	16.87
780.214	17.69
780.52	19.68
780.827	18.43
781.134	19.48
781.44	18.15
781.747	19.25
782.053	18.95
782.36	18.05
782.666	18.21
782.973	16.59
783.279	13.2
783.585	15.79
783.891	15.13
784.197	15.47
784.503	18.83
784.809	18.79
785.115	20.92
785.421	17.58
785.727	17.43
786.033	20.42
786.339	18.76
786.644	19.73
786.95	16.46
787.255	20.14
787.561	18.61
787.866	17.55
788.172	19.29
788.477	15.27
788.782	15.75
789.088	18.16
789.393	20.31
789.698	19.03
790.003	20.04
790.308	19.46
790.613	20.85
790.918	19.01
791.223	20.49
791.527	14.27
791.832	18.88
792.137	21.08
792.441	21.46
792.746	18.53
793.05	17.67
793.355	19.13
793.659	20.14
793.963	19.54
794.268	20.77
794.572	18.21
794.876	20.3
795.18	18.51
795.484	18.65
795.788	22.39
796.092	17.66
796.396	18.38
796.7	19.54
797.004	18.19
797.307	18.44
797.611	20.53
797.915	18.79
798.218	23.67
798.522	16.46
798.825	13.5
799.128	19.98
799.432	19.55
799.735	19.33
800.038	20.51
800.341	23.82
800.644	15.69
800.947	23.08
801.25	21.22
801.553	16.75
801.856	21.08
802.159	19.08
802.462	20.27
802.764	20.4
803.067	20.77
803.37	15.22
803.672	19.45
803.975	23.79
804.277	13.86
804.579	19.46
804.882	21.67
805.184	20.98
805.486	18.68
805.788	23.29
806.09	21.38
806.392	16.46
806.694	13.18
806.996	21.05
807.298	17.54
807.6	22.2
807.902	22.62
808.203	18.32
808.505	16.32
808.807	18.11
809.108	15.74
809.409	22.99
809.711	20.13
810.012	20.48
810.313	18.68
810.615	18.56
810.916	18.66
811.217	18.48
811.518	19.46
811.819	21.01
812.12	18.06
812.421	22.2
812.722	16.65
813.023	19.43
813.323	18.01
813.624	21.91
813.925	20.56
814.225	24.47
814.526	23.14
814.826	25.52
815.126	18.85
815.427	23.39
815.727	22.13
816.027	21.26
816.327	19.66
816.627	21.75
816.927	21.49
817.227	18.34
817.527	18.08
817.827	20.07
818.127	22.4
818.427	18.64
818.727	22.13
819.026	21.59
819.326	20.07
819.625	22.93
819.925	20.06
820.224	26.34
820.524	21.32
820.823	21.16
821.122	20.94
821.421	19.62
821.72	20.25
822.019	22.25
822.318	21.42
822.617	20.8
822.916	23.94
823.215	21.97
823.514	22.03
823.813	21.72
824.111	23.91
824.41	22.76
824.709	22.97
825.007	23.15
825.306	22.07
825.604	22.37
825.902	23.1
826.201	23.57
826.499	23.07
826.797	23.66
827.095	22.53
827.393	22.37
827.691	25.62
827.989	24.41
828.287	23.71
828.585	24.21
828.882	23.43
829.18	24.11
829.478	22.95
829.775	23.5
830.073	23.36
830.37	24.07
830.668	23.42
830.965	23.15
831.263	24.13
831.56	23.42
831.857	19.6
832.154	26.95
832.451	24.29
832.748	20.09
833.045	21.11
833.342	21.93
833.639	21.92
833.936	21.96
834.232	26.35
834.529	20.34
834.826	23.33
835.122	24.68
835.419	26.06
835.715	23.73
836.012	24.07
836.308	25.1
836.604	23.04
836.901	25.7
837.197	22.38
837.493	24.6
837.789	23.58
838.085	25.83
838.381	22.77
838.677	24.98
838.972	21.99
839.268	21.51
839.564	21.45
839.86	21.5
840.155	21.92
840.451	16.18
840.746	20.74
841.042	22.04
841.337	15.49
841.632	17.26
841.928	27.2
842.223	25.97
842.518	23.88
842.813	16.55
843.108	25.74
843.403	24.14
843.698	15.29
843.993	22.02
844.287	27.31
844.582	29.6
844.877	26.24
845.171	23.81
845.466	35.23
845.761	8.12
846.055	28.7
846.349	17.42
846.644	35.56
846.938	19.33
847.232	33.03
847.526	34.58
847.82	15.67
848.114	19.3
848.408	34.08
848.702	20.57
848.996	28.39
849.29	19.71
849.584	16.09
849.877	32.73
850.171	9.66
850.465	17.16
850.758	16.97
851.052	29.68
851.345	37.27
851.638	28.43
851.932	22.42
852.225	25.69
852.518	35.11
852.811	12.03
853.104	20.98
853.397	12.56
853.69	38.5
853.983	21.45
854.276	11.54
854.569	20.31
854.861	48.86
855.154	30.95
855.447	34.39
855.739	17.83
856.032	31.72
856.324	21.88
856.616	37.5
856.909	29.27
857.201	23.87
857.493	17.03
857.785	11.86
858.077	14.39
858.369	8.71
858.661	5.82
858.953	31.9
859.245	11.71
859.537	21.09
859.829	23.5
860.12	29.99
860.412	28
860.703	33.61
860.995	21.24
861.286	2.63
861.578	33.04
861.869	23.38
862.16	-17.33
862.452	0.83
862.743	31.66
863.034	36.2
863.325	30.18
863.616	27.56
863.907	47.3
864.198	23.95
864.488	15.81
864.779	21.59
865.07	48.37
865.36	10.78
865.651	4.04
865.941	30.12
866.232	22.1
866.522	26.61
866.813	4.05
867.103	23.81
867.393	26.07
867.683	39.26
867.973	26.19
868.263	31.61
868.553	24.51
868.843	50.36
869.133	10.55
869.423	7.85
869.713	14.81
870.002	30.59
870.292	16.36
870.582	7
870.871	22.58
871.161	35.83
871.45	21.98
871.739	4.65
872.029	25.83
872.318	31.11
872.607	-3.72
872.896	-12.82
873.185	26.39
873.474	5.09
873.763	38.26
874.052	35.37
874.341	32.72
874.63	36.16
874.918	26.48
875.207	18.7
875.496	31.93
875.784	6.11
876.073	13.34
876.361	10.8
876.649	2.29
876.938	23.76
877.226	29.5
877.514	32.58
877.802	15.44
878.09	34.53
878.378	43.81
878.666	12.83
878.954	19.97
879.242	30.14
879.53	16.97
879.817	41.29
880.105	14.98
880.392	34.36
880.68	10.79
880.967	17.67
881.255	23.74
881.542	23.24
881.83	29.7
882.117	14.82
882.404	35.93
882.691	23
882.978	30.94
883.265	43.56
883.552	25.85
883.839	25.29
884.126	30
884.413	22.91
884.699	22.85
884.986	36.86
885.273	27.5
885.559	27.5
885.846	27.5
