Data from 1697-1_forehead_Reflection__0__121.txt Node

Date: Fri Nov 11 17:04:21 CST 2022
User: ToomeyLab
Spectrometer: FLMS14357
Trigger mode: 0
Integration Time (sec): 1.000000E-2
Scans to average: 100
Electric dark correction enabled: true
Nonlinearity correction enabled: false
Boxcar width: 0
XAxis mode: Wavelengths
Number of Pixels in Spectrum: 2048
>>>>>Begin Spectral Data<<<<<
189.047	57.34
189.435	57.34
189.823	57.34
190.211	20641.94
190.599	-404.68
190.987	280.13
191.375	-74.15
191.763	168.49
192.151	201.12
192.538	-310.26
192.926	-205.25
193.314	-135.38
193.702	-776.13
194.089	-181.29
194.477	-12.32
194.864	40.33
195.252	128.65
195.639	94.67
196.027	94.43
196.414	37.97
196.801	395.95
197.189	106.37
197.576	92.76
197.963	21.16
198.351	31.05
198.738	-22.2
199.125	14.52
199.512	18.36
199.899	-9.67
200.286	31.42
200.673	79.87
201.06	-1.25
201.447	44.58
201.833	24.06
202.22	57.88
202.607	26.32
202.994	5.68
203.38	31.97
203.767	15.43
204.154	-30.92
204.54	25.83
204.927	24.32
205.313	41.59
205.699	15.23
206.086	37.72
206.472	10.53
206.858	-0.4
207.245	74.02
207.631	63.12
208.017	34.51
208.403	-0
208.789	-36.61
209.175	3.84
209.561	18.83
209.947	14.91
210.333	22.06
210.719	18.84
211.105	28.55
211.491	-129.3
211.876	32.45
212.262	-22.45
212.648	13.8
213.034	13.08
213.419	11.6
213.805	12.61
214.19	-29.66
214.576	35.01
214.961	-1.42
215.346	-34.67
215.732	-58.28
216.117	28.97
216.502	15.5
216.888	28.01
217.273	-8.61
217.658	9.12
218.043	4.27
218.428	-6.42
218.813	29.76
219.198	-33.28
219.583	2.28
219.968	17.41
220.353	-9.32
220.738	-4.36
221.122	-20.7
221.507	24.62
221.892	7.17
222.276	10.46
222.661	17.95
223.046	12.2
223.43	5.44
223.815	3.38
224.199	2.47
224.583	11.54
224.968	16.77
225.352	3.58
225.736	11.33
226.121	5
226.505	11.04
226.889	10.25
227.273	5.78
227.657	2.39
228.041	5.19
228.425	6.46
228.809	7.47
229.193	3.82
229.577	5.11
229.961	4.91
230.344	5.02
230.728	5.35
231.112	5.03
231.495	4.78
231.879	4.23
232.263	3.66
232.646	5.17
233.03	3.85
233.413	3.46
233.797	5.36
234.18	7.03
234.563	2.08
234.946	5.56
235.33	3.34
235.713	3.98
236.096	3.64
236.479	5.16
236.862	7.5
237.245	5.34
237.628	5.98
238.011	4.69
238.394	6.41
238.777	4.76
239.16	4.61
239.543	6.83
239.925	6.23
240.308	2.99
240.691	4.1
241.073	4.14
241.456	3.34
241.838	4.67
242.221	4.74
242.603	4.1
242.986	5.08
243.368	4.62
243.75	5.02
244.133	4.73
244.515	5.01
244.897	5.24
245.279	4.82
245.661	4.45
246.043	5.37
246.425	5.52
246.807	5.02
247.189	4.3
247.571	3.74
247.953	4.57
248.335	5.13
248.717	4.89
249.098	4.99
249.48	5.18
249.862	5.02
250.243	4.89
250.625	4.87
251.006	5.57
251.388	5.18
251.769	6.06
252.151	5.64
252.532	5.96
252.913	4.6
253.295	5.33
253.676	4.83
254.057	4.53
254.438	5.08
254.819	4.96
255.2	6.02
255.581	5.87
255.962	5.75
256.343	6.01
256.724	5.41
257.105	4.93
257.486	6.22
257.867	5.22
258.247	4.69
258.628	4.19
259.009	5.74
259.389	5.05
259.77	5.94
260.15	4.83
260.531	5.01
260.911	5.11
261.292	5.09
261.672	4.83
262.052	5.03
262.432	5.16
262.813	5.22
263.193	5.09
263.573	6
263.953	4.7
264.333	5.36
264.713	4.51
265.093	5.59
265.473	5.51
265.853	4.99
266.233	4.72
266.612	5.28
266.992	5.63
267.372	5.63
267.752	4.67
268.131	5.17
268.511	5.08
268.89	5.97
269.27	4.89
269.649	4.43
270.029	4.35
270.408	4.58
270.787	5.18
271.167	5.17
271.546	5.26
271.925	5.47
272.304	5.44
272.683	4.9
273.062	5.02
273.441	4.83
273.82	4.63
274.199	5.16
274.578	5.12
274.957	4.2
275.336	4.84
275.715	5.01
276.093	5.21
276.472	4.83
276.851	4.67
277.229	4.53
277.608	4.76
277.986	5.03
278.365	5.42
278.743	4.67
279.122	4.66
279.5	4.73
279.878	4.68
280.257	4.98
280.635	4.66
281.013	5.28
281.391	4.87
281.769	5.61
282.147	5.19
282.525	4.76
282.903	5.08
283.281	4.75
283.659	4.93
284.037	5.35
284.415	4.87
284.792	4.73
285.17	5.04
285.548	4.79
285.925	5.11
286.303	4.97
286.68	5.04
287.058	4.63
287.435	5.09
287.813	5.11
288.19	4.83
288.567	5.13
288.945	4.96
289.322	4.92
289.699	4.98
290.076	4.35
290.453	4.82
290.83	5.55
291.207	5.18
291.584	5.26
291.961	5
292.338	5.24
292.715	5.01
293.092	4.83
293.469	5.65
293.845	5.71
294.222	5.58
294.599	6.14
294.975	5.7
295.352	5.21
295.728	5.38
296.105	5.46
296.481	5.48
296.858	5.49
297.234	5.59
297.61	5.65
297.986	5.2
298.363	5.85
298.739	5.77
299.115	5.57
299.491	5.62
299.867	5.73
300.243	5.8
300.619	6.06
300.995	6.06
301.371	5.69
301.746	6.27
302.122	6.47
302.498	5.67
302.874	6.08
303.249	6.28
303.625	6.19
304	5.87
304.376	6.84
304.751	6.39
305.127	6.5
305.502	6.52
305.878	6.63
306.253	6.57
306.628	6.8
307.003	6.56
307.378	6.83
307.754	6.65
308.129	7.11
308.504	6.8
308.879	6.44
309.254	6.43
309.629	6.76
310.003	6.98
310.378	6.41
310.753	6.93
311.128	6.95
311.502	6.78
311.877	7.35
312.252	7.06
312.626	7.36
313.001	7.34
313.375	7.36
313.75	7.61
314.124	7.28
314.498	7.96
314.873	7.52
315.247	7.58
315.621	7.43
315.995	6.93
316.369	7.74
316.743	7.34
317.117	7.78
317.491	7.88
317.865	8.19
318.239	8.11
318.613	8.22
318.987	8.07
319.361	7.66
319.734	7.66
320.108	7.72
320.482	8.13
320.855	8.06
321.229	8.23
321.602	8.09
321.976	8.2
322.349	8.48
322.723	8.93
323.096	8.97
323.469	8.43
323.843	9.31
324.216	8.62
324.589	8.98
324.962	9.16
325.335	9.17
325.708	8.63
326.081	9.07
326.454	8.53
326.827	9.11
327.2	8.35
327.573	9.09
327.945	9.23
328.318	8.93
328.691	9.47
329.063	9.21
329.436	9.28
329.809	8.85
330.181	9.61
330.553	9.15
330.926	9.4
331.298	9.41
331.671	9.16
332.043	10.11
332.415	9.13
332.787	9.68
333.159	9.77
333.532	9.29
333.904	9.38
334.276	9.47
334.648	9.53
335.02	9.8
335.391	9.62
335.763	9.68
336.135	9.73
336.507	9.95
336.879	9.5
337.25	9.04
337.622	9.8
337.993	9.9
338.365	10.09
338.736	9.73
339.108	9.97
339.479	10.2
339.851	9.28
340.222	9.82
340.593	9.87
340.964	9.96
341.336	9.7
341.707	10.31
342.078	10.08
342.449	10.07
342.82	10.22
343.191	10.39
343.562	10.52
343.933	9.85
344.303	10.5
344.674	10.41
345.045	10.06
345.416	9.86
345.786	10.33
346.157	9.74
346.527	10.29
346.898	10.31
347.268	10.55
347.639	10.58
348.009	10.3
348.38	10.53
348.75	10.91
349.12	10.73
349.49	10.48
349.861	10.58
350.231	10.63
350.601	10.76
350.971	10.93
351.341	10.52
351.711	10.67
352.081	10.32
352.45	10.67
352.82	10.9
353.19	10.66
353.56	11.24
353.929	11.46
354.299	10.96
354.669	11.3
355.038	10.67
355.408	10.72
355.777	11.1
356.147	11.16
356.516	11.23
356.885	11.02
357.254	11.14
357.624	11.25
357.993	11.27
358.362	11.36
358.731	11.32
359.1	11.23
359.469	11.26
359.838	11.6
360.207	11.41
360.576	11.61
360.945	11.44
361.314	11.6
361.682	11.51
362.051	11.17
362.42	11.39
362.788	11.41
363.157	11.51
363.525	11.64
363.894	11.68
364.262	11.38
364.631	11.6
364.999	11.71
365.367	12
365.735	11.75
366.104	11.66
366.472	11.86
366.84	11.66
367.208	11.88
367.576	11.84
367.944	12.23
368.312	11.83
368.68	11.99
369.048	11.75
369.416	11.94
369.783	11.84
370.151	11.86
370.519	12.38
370.886	12.24
371.254	12.24
371.621	12.12
371.989	11.81
372.356	12.34
372.724	12.44
373.091	12.18
373.458	12.39
373.826	12.45
374.193	12.37
374.56	12.38
374.927	12.52
375.294	12.69
375.661	13.1
376.028	12.96
376.395	12.68
376.762	12.51
377.129	12.64
377.496	12.71
377.863	12.82
378.229	12.89
378.596	12.82
378.963	12.58
379.329	12.77
379.696	12.49
380.062	12.91
380.429	12.74
380.795	12.87
381.161	13.07
381.528	12.88
381.894	13.13
382.26	13.09
382.626	13.27
382.993	13.23
383.359	13.08
383.725	13.43
384.091	13.23
384.457	13.12
384.823	13.37
385.188	13.24
385.554	13.38
385.92	13.27
386.286	13.42
386.651	13.26
387.017	13.22
387.383	13.49
387.748	13.25
388.114	13.58
388.479	13.54
388.845	13.78
389.21	13.57
389.575	13.61
389.94	13.83
390.306	13.77
390.671	13.49
391.036	13.78
391.401	13.76
391.766	13.83
392.131	13.44
392.496	13.83
392.861	13.82
393.226	13.84
393.591	13.75
393.956	14.14
394.32	14.22
394.685	14.2
395.05	14.26
395.414	14.23
395.779	14.06
396.143	14.24
396.508	14.05
396.872	14.04
397.236	14.39
397.601	14.12
397.965	14.43
398.329	14.28
398.694	14.2
399.058	14.44
399.422	14.37
399.786	14.41
400.15	14.48
400.514	14.44
400.878	14.71
401.242	14.46
401.605	14.51
401.969	14.55
402.333	14.56
402.697	14.44
403.06	14.68
403.424	14.61
403.787	14.66
404.151	14.81
404.514	14.59
404.878	14.84
405.241	14.82
405.604	14.84
405.968	14.78
406.331	14.82
406.694	14.87
407.057	14.81
407.42	15.22
407.783	14.94
408.146	15.02
408.509	15.03
408.872	15.22
409.235	15.16
409.598	14.87
409.961	14.98
410.323	15.29
410.686	15.58
411.049	15.2
411.411	15.14
411.774	15.25
412.136	15.3
412.499	15.55
412.861	15.33
413.223	15.38
413.586	15.46
413.948	15.57
414.31	15.63
414.672	15.58
415.035	15.93
415.397	15.62
415.759	15.7
416.121	15.69
416.483	15.81
416.845	15.71
417.206	15.54
417.568	15.79
417.93	15.83
418.292	15.44
418.653	15.82
419.015	15.85
419.377	15.85
419.738	15.91
420.1	15.7
420.461	15.78
420.822	15.81
421.184	15.82
421.545	15.71
421.906	15.78
422.267	15.81
422.629	15.79
422.99	15.86
423.351	15.83
423.712	15.78
424.073	15.99
424.434	15.99
424.795	16.2
425.155	16.17
425.516	16.15
425.877	16.11
426.238	16.04
426.598	16.13
426.959	16.1
427.32	16.23
427.68	16.31
428.041	16.56
428.401	16.53
428.761	16.62
429.122	16.59
429.482	16.82
429.842	16.83
430.202	16.82
430.563	16.71
430.923	16.95
431.283	16.87
431.643	17.1
432.003	17.12
432.363	16.96
432.722	17.04
433.082	16.91
433.442	17.09
433.802	16.99
434.161	17.06
434.521	17.18
434.881	17.02
435.24	17.06
435.6	17.17
435.959	17.06
436.319	17.11
436.678	17.12
437.037	17.22
437.396	17.21
437.756	17.23
438.115	17.22
438.474	17.47
438.833	17.46
439.192	17.42
439.551	17.48
439.91	17.66
440.269	17.57
440.628	17.62
440.987	17.69
441.345	17.53
441.704	17.51
442.063	17.65
442.421	17.61
442.78	17.6
443.138	17.59
443.497	17.55
443.855	17.67
444.214	17.86
444.572	18
444.93	18
445.288	18
445.647	17.84
446.005	17.74
446.363	18.12
446.721	17.9
447.079	17.92
447.437	17.84
447.795	17.79
448.153	17.96
448.51	17.8
448.868	17.99
449.226	17.83
449.584	18.03
449.941	18.1
450.299	18.26
450.656	18.2
451.014	18.44
451.371	18.42
451.729	18.46
452.086	18.66
452.443	18.61
452.801	18.76
453.158	18.72
453.515	18.67
453.872	18.71
454.229	18.7
454.586	18.73
454.943	18.76
455.3	18.71
455.657	18.89
456.014	18.81
456.371	19.02
456.727	19.04
457.084	18.79
457.441	19.02
457.797	19.12
458.154	19.23
458.51	19.19
458.867	19.39
459.223	19.31
459.58	19.46
459.936	19.34
460.292	19.26
460.648	19.3
461.005	19.15
461.361	19.13
461.717	19.01
462.073	19.19
462.429	19.14
462.785	19.16
463.141	19.42
463.496	19.5
463.852	19.61
464.208	19.72
464.564	19.79
464.919	19.6
465.275	19.57
465.631	20.03
465.986	19.85
466.342	20.01
466.697	19.98
467.052	19.97
467.408	19.99
467.763	20.04
468.118	20.02
468.473	20.08
468.829	20.07
469.184	20.29
469.539	20.31
469.894	20.06
470.249	20.16
470.603	20.26
470.958	20.61
471.313	20.32
471.668	20.41
472.023	20.46
472.377	20.51
472.732	20.4
473.086	20.56
473.441	20.55
473.795	20.77
474.15	20.68
474.504	20.96
474.859	20.68
475.213	20.77
475.567	20.74
475.921	20.92
476.275	20.98
476.63	20.94
476.984	20.81
477.338	21.1
477.692	20.83
478.045	20.98
478.399	21.09
478.753	21.06
479.107	21.01
479.461	21.06
479.814	21.1
480.168	21.2
480.521	21.15
480.875	21.28
481.228	21.39
481.582	21.22
481.935	21.38
482.289	21.33
482.642	21.19
482.995	21.42
483.348	21.21
483.701	21.23
484.055	21.23
484.408	21.18
484.761	21.02
485.114	20.88
485.466	20.72
485.819	20.73
486.172	20.72
486.525	20.72
486.878	20.84
487.23	20.9
487.583	21.13
487.936	21.3
488.288	21.29
488.641	21.26
488.993	21.13
489.345	21.13
489.698	21.23
490.05	21.19
490.402	21.18
490.754	21.36
491.107	21.53
491.459	21.74
491.811	21.81
492.163	21.87
492.515	21.97
492.866	21.84
493.218	21.62
493.57	21.62
493.922	21.67
494.274	21.66
494.625	21.76
494.977	21.93
495.328	22.04
495.68	22.3
496.031	22.64
496.383	22.63
496.734	22.68
497.086	22.74
497.437	22.79
497.788	22.84
498.139	22.72
498.49	22.59
498.842	22.67
499.193	22.69
499.544	22.72
499.894	22.87
500.245	22.89
500.596	22.92
500.947	22.96
501.298	23.15
501.648	23.21
501.999	23.11
502.35	23.29
502.7	23.26
503.051	23.28
503.401	23.47
503.752	23.48
504.102	23.47
504.452	23.63
504.803	23.5
505.153	23.55
505.503	23.53
505.853	23.64
506.203	23.74
506.553	23.72
506.903	23.63
507.253	23.86
507.603	23.68
507.953	23.93
508.303	23.9
508.652	23.89
509.002	23.79
509.352	23.94
509.701	24.01
510.051	23.99
510.4	23.93
510.75	24.02
511.099	24.04
511.449	24.11
511.798	24.05
512.147	24.06
512.496	23.97
512.846	24.24
513.195	24.28
513.544	24.25
513.893	24.43
514.242	24.28
514.591	24.3
514.939	24.36
515.288	24.37
515.637	24.56
515.986	24.6
516.334	24.72
516.683	24.66
517.032	24.81
517.38	24.85
517.729	24.8
518.077	24.87
518.426	25.06
518.774	24.85
519.122	24.72
519.47	24.75
519.819	24.79
520.167	24.72
520.515	24.78
520.863	24.78
521.211	24.84
521.559	24.84
521.907	25.05
522.255	25.02
522.602	25.27
522.95	25.33
523.298	25.42
523.645	25.4
523.993	25.61
524.341	25.56
524.688	25.63
525.036	25.74
525.383	25.57
525.73	25.7
526.078	25.61
526.425	25.56
526.772	25.53
527.119	25.63
527.466	25.49
527.814	25.5
528.161	25.4
528.508	25.51
528.854	25.57
529.201	25.62
529.548	25.63
529.895	25.49
530.242	25.44
530.588	25.37
530.935	25.36
531.282	25.39
531.628	25.34
531.975	25.6
532.321	25.67
532.667	25.91
533.014	26.08
533.36	26.18
533.706	26.26
534.052	26.34
534.399	26.25
534.745	26.15
535.091	26.16
535.437	26.07
535.783	26.07
536.129	26.06
536.474	26.39
536.82	26.42
537.166	26.64
537.512	26.81
537.857	26.81
538.203	26.76
538.549	26.7
538.894	26.67
539.239	26.68
539.585	26.86
539.93	27.11
540.276	27.13
540.621	27.27
540.966	27.4
541.311	27.41
541.656	27.45
542.001	27.43
542.346	27.26
542.691	27.09
543.036	27
543.381	26.83
543.726	26.92
544.071	26.96
544.415	27.02
544.76	27.2
545.105	27.33
545.449	27.51
545.794	27.52
546.138	27.75
546.483	27.68
546.827	27.84
547.171	27.78
547.516	27.88
547.86	28.01
548.204	28.04
548.548	27.97
548.892	28.06
549.236	28.04
549.58	28.25
549.924	28.3
550.268	28.53
550.612	28.51
550.956	28.65
551.3	28.88
551.643	28.91
551.987	28.92
552.33	28.98
552.674	28.79
553.017	28.95
553.361	29.03
553.704	29.09
554.048	28.85
554.391	29.01
554.734	28.88
555.077	29.15
555.42	29.14
555.764	29.34
556.107	29.36
556.45	29.08
556.793	29.3
557.135	29.44
557.478	29.58
557.821	29.74
558.164	29.86
558.507	29.62
558.849	29.63
559.192	29.81
559.534	29.98
559.877	29.86
560.219	29.84
560.562	29.73
560.904	29.9
561.246	29.97
561.589	30.23
561.931	30.07
562.273	30.44
562.615	30.09
562.957	30.26
563.299	30.26
563.641	30.35
563.983	30.23
564.325	30.24
564.667	30.56
565.008	30.46
565.35	30.48
565.692	30.31
566.033	30.74
566.375	30.59
566.716	30.81
567.058	30.64
567.399	30.75
567.741	30.77
568.082	30.83
568.423	30.57
568.764	30.9
569.105	30.84
569.447	30.93
569.788	30.95
570.129	30.93
570.47	30.95
570.811	31.24
571.151	31.24
571.492	31.18
571.833	31.3
572.174	31.48
572.514	31.32
572.855	31.41
573.195	31.49
573.536	31.34
573.876	31.35
574.217	31.3
574.557	31.31
574.898	31.67
575.238	31.49
575.578	31.68
575.918	31.53
576.258	31.78
576.598	32
576.938	31.84
577.278	31.8
577.618	31.87
577.958	31.95
578.298	32
578.638	32.06
578.977	32.13
579.317	32.3
579.657	32.29
579.996	32.43
580.336	32.32
580.675	32.52
581.014	32.48
581.354	32.52
581.693	32.5
582.032	32.6
582.372	32.54
582.711	32.5
583.05	32.79
583.389	32.98
583.728	32.81
584.067	33.21
584.406	32.91
584.745	33.22
585.083	32.95
585.422	32.86
585.761	33.27
586.1	33.02
586.438	33.32
586.777	33.11
587.115	33.33
587.454	33.54
587.792	33.48
588.13	33.29
588.469	33.22
588.807	33.43
589.145	33.65
589.483	33.52
589.821	33.5
590.159	33.77
590.497	33.68
590.835	33.6
591.173	33.7
591.511	33.38
591.849	33.73
592.187	34.01
592.524	33.71
592.862	34.11
593.2	34.1
593.537	33.92
593.875	34.29
594.212	33.96
594.55	34.23
594.887	34.1
595.224	34.33
595.561	34.19
595.899	34.19
596.236	34.52
596.573	34.37
596.91	34.57
597.247	34.34
597.584	34.45
597.921	34.55
598.258	34.67
598.594	34.4
598.931	34.4
599.268	34.49
599.604	34.52
599.941	34.57
600.277	34.61
600.614	35.03
600.95	34.76
601.287	35.02
601.623	35.09
601.959	34.93
602.296	34.87
602.632	35
602.968	35.08
603.304	35.74
603.64	35.15
603.976	35.28
604.312	35.4
604.648	35.33
604.984	35.44
605.319	35.1
605.655	35.47
605.991	35.4
606.326	35.28
606.662	35.28
606.998	35.35
607.333	35.47
607.668	35.49
608.004	35.7
608.339	35.84
608.674	35.6
609.01	35.6
609.345	36.17
609.68	36.19
610.015	36.14
610.35	36.08
610.685	35.92
611.02	35.97
611.355	35.92
611.689	36.35
612.024	36.2
612.359	35.91
612.694	36.01
613.028	36.39
613.363	36.37
613.697	36.48
614.032	36.38
614.366	36.29
614.7	36.65
615.035	36.72
615.369	36.63
615.703	36.81
616.037	36.87
616.371	36.93
616.705	36.84
617.039	36.88
617.373	37.42
617.707	37.18
618.041	36.85
618.375	37.28
618.709	37.43
619.042	37.17
619.376	37.27
619.71	36.97
620.043	37.3
620.377	37.21
620.71	37.09
621.043	37.47
621.377	37.4
621.71	37.85
622.043	37.3
622.376	37.7
622.709	38.03
623.043	37.44
623.376	37.62
623.709	38.11
624.041	38.01
624.374	37.69
624.707	37.89
625.04	38.17
625.373	38.21
625.705	37.82
626.038	38.03
626.37	37.66
626.703	37.96
627.035	37.83
627.368	37.85
627.7	38.16
628.032	38.38
628.365	38.64
628.697	38.3
629.029	38.48
629.361	38.31
629.693	38.29
630.025	38.33
630.357	38.13
630.689	38.76
631.021	38.66
631.353	38.4
631.684	38.38
632.016	38.7
632.348	38.64
632.679	38.91
633.011	39.19
633.342	38.82
633.674	39.04
634.005	39.29
634.336	39.02
634.668	38.83
634.999	38.71
635.33	39.06
635.661	39.49
635.992	39.38
636.323	39.37
636.654	39.31
636.985	39.29
637.316	39.05
637.647	39.43
637.977	38.89
638.308	39.26
638.639	39.57
638.969	39.97
639.3	39.31
639.63	39.73
639.961	39.79
640.291	39.81
640.622	39.71
640.952	39.93
641.282	39.82
641.612	40.03
641.943	39.56
642.273	40.05
642.603	39.7
642.933	40.06
643.263	39.84
643.592	40.29
643.922	40.11
644.252	40.47
644.582	40.26
644.911	40.1
645.241	40.16
645.571	39.9
645.9	40.32
646.23	40.66
646.559	40.13
646.888	40.53
647.218	40.03
647.547	40.37
647.876	40.22
648.205	40.5
648.534	40.49
648.863	40.97
649.192	40.97
649.521	41.39
649.85	40.82
650.179	40.96
650.508	40.39
650.837	40.78
651.165	41.03
651.494	40.86
651.822	40.7
652.151	40.67
652.479	41.19
652.808	41.01
653.136	41.46
653.465	41.6
653.793	41.45
654.121	41.02
654.449	40.95
654.777	41.56
655.105	41.39
655.433	41.22
655.761	41.11
656.089	41.73
656.417	41.31
656.745	41.76
657.073	41.74
657.4	41.28
657.728	41.84
658.056	41.02
658.383	41.27
658.711	41.84
659.038	41.58
659.365	41.28
659.693	42.03
660.02	41.93
660.347	41.89
660.674	41.7
661.001	41.93
661.329	42.11
661.656	42.09
661.982	42.36
662.309	42.09
662.636	42.21
662.963	42.27
663.29	42.1
663.616	42.54
663.943	42.52
664.27	41.87
664.596	42.4
664.923	42.77
665.249	42.57
665.576	42.71
665.902	42.41
666.228	42.9
666.554	42.21
666.881	43.05
667.207	42.57
667.533	42.93
667.859	41.94
668.185	42.47
668.511	43.17
668.837	43.11
669.162	43.14
669.488	42.65
669.814	43.03
670.139	43.07
670.465	43.48
670.791	42.62
671.116	43.25
671.442	42.92
671.767	43.68
672.092	42.86
672.418	43.15
672.743	43.4
673.068	43.28
673.393	43.33
673.718	42.88
674.043	43.4
674.368	42.69
674.693	43.11
675.018	43.42
675.343	43.37
675.667	43.46
675.992	43.39
676.317	44.06
676.641	43.59
676.966	43.72
677.29	43.54
677.615	44.54
677.939	43.42
678.264	43.76
678.588	43.96
678.912	44.08
679.236	44.26
679.56	44.1
679.885	44.39
680.209	44.36
680.532	44.02
680.856	44.49
681.18	43.58
681.504	43.93
681.828	43.83
682.152	44.77
682.475	43.73
682.799	44.35
683.122	45.03
683.446	44.37
683.769	44.64
684.093	43.91
684.416	44.7
684.739	44.97
685.062	44.27
685.386	44.38
685.709	44.9
686.032	44.65
686.355	44.38
686.678	44.99
687.001	45.06
687.324	44.48
687.646	44.97
687.969	44.72
688.292	45.08
688.614	44.46
688.937	44.75
689.26	44.73
689.582	45.39
689.904	44.97
690.227	45.62
690.549	44.59
690.871	45.16
691.194	44.36
691.516	45.57
691.838	45.23
692.16	45.44
692.482	45.27
692.804	45.57
693.126	45.71
693.448	45.21
693.769	45.91
694.091	45.64
694.413	45.56
694.735	45.57
695.056	45.45
695.378	45.5
695.699	45.27
696.021	45.4
696.342	45.82
696.663	45.78
696.984	45.82
697.306	45.78
697.627	46.32
697.948	46.16
698.269	45.66
698.59	46.27
698.911	46.01
699.232	47.14
699.553	45.78
699.873	46.94
700.194	46.27
700.515	46.54
700.835	46.37
701.156	46.76
701.477	47.02
701.797	46.59
702.117	46.5
702.438	46.43
702.758	46.35
703.078	46.42
703.398	46.53
703.719	46.13
704.039	46.23
704.359	47.43
704.679	46.96
704.999	46.69
705.319	47.22
705.638	46.88
705.958	46.69
706.278	47.41
706.597	46.96
706.917	46.45
707.237	47.08
707.556	46.26
707.876	46.98
708.195	47.22
708.514	47.31
708.834	46.18
709.153	47.01
709.472	47.84
709.791	47.79
710.11	47.32
710.429	46.84
710.748	48.18
711.067	47.14
711.386	47.53
711.705	47.52
712.023	47.34
712.342	48.16
712.661	47.46
712.979	48.45
713.298	48
713.616	48.34
713.935	48.27
714.253	48
714.572	47.28
714.89	47.85
715.208	47.62
715.526	46.9
715.844	48.77
716.162	47.57
716.48	48.15
716.798	47.49
717.116	47.4
717.434	48.24
717.752	47.39
718.069	47.65
718.387	48.61
718.705	48.6
719.022	48.8
719.34	49.4
719.657	48.2
719.975	47.92
720.292	48.36
720.609	47.9
720.927	48.57
721.244	49.07
721.561	47.9
721.878	49.34
722.195	48.35
722.512	48.88
722.829	49.73
723.146	48.51
723.463	48.57
723.779	49.37
724.096	49.52
724.413	48.6
724.729	48.26
725.046	47.45
725.362	48.79
725.679	48.35
725.995	48.22
726.311	48.3
726.628	49.57
726.944	49.77
727.26	48.9
727.576	46.35
727.892	47.63
728.208	49.88
728.524	50.08
728.84	49.04
729.156	49.38
729.472	49.65
729.787	49.44
730.103	48.21
730.419	49.1
730.734	49.52
731.05	50.01
731.365	49.29
731.681	48.52
731.996	48.77
732.311	50
732.626	49.03
732.942	48.88
733.257	49.61
733.572	49.7
733.887	49.25
734.202	49.01
734.517	49.67
734.832	50.37
735.146	49.1
735.461	49.64
735.776	49.66
736.091	49.24
736.405	49.12
736.72	49.48
737.034	48.6
737.349	50.77
737.663	48.56
737.977	50.6
738.292	49.89
738.606	48.66
738.92	49.55
739.234	51.25
739.548	50.56
739.862	50.67
740.176	50.31
740.49	50.03
740.804	49.13
741.117	49.96
741.431	49.24
741.745	48.32
742.058	50.33
742.372	49.4
742.685	50.15
742.999	49.14
743.312	50.07
743.626	49.36
743.939	50.43
744.252	47.85
744.565	51.49
744.878	51.5
745.191	50.46
745.505	50.78
745.817	51.04
746.13	50.94
746.443	51.78
746.756	50.13
747.069	49.58
747.381	51.85
747.694	50.84
748.007	51.49
748.319	51.73
748.632	48.65
748.944	51.62
749.256	50.8
749.569	52.41
749.881	51.1
750.193	52.63
750.505	51.41
750.817	50.64
751.129	51.39
751.441	52.49
751.753	51.88
752.065	51.12
752.377	52.09
752.689	50.95
753	52.61
753.312	52.93
753.624	52.13
753.935	52.17
754.247	51.78
754.558	51.59
754.869	50.54
755.181	51.37
755.492	50.51
755.803	49.44
756.114	51.77
756.425	52.78
756.736	51.53
757.047	50.82
757.358	50.35
757.669	52.69
757.98	53.03
758.291	51.93
758.601	52.85
758.912	52.43
759.223	50.95
759.533	50.53
759.844	51.58
760.154	51.39
760.464	52.38
760.775	51.77
761.085	51.38
761.395	52.02
761.705	52.31
762.016	51.88
762.326	52.84
762.636	50.98
762.945	51.94
763.255	53.48
763.565	53.39
763.875	53.94
764.185	52.79
764.494	51.28
764.804	51.72
765.113	53.83
765.423	52.61
765.732	51.67
766.042	51.75
766.351	52.46
766.66	52.13
766.97	51.3
767.279	51.79
767.588	51.6
767.897	52.26
768.206	52.08
768.515	52.55
768.824	52.09
769.133	51.73
769.441	52.08
769.75	51.1
770.059	52.28
770.367	53.43
770.676	51.11
770.984	51.29
771.293	51.95
771.601	53.27
771.91	53.2
772.218	52.06
772.526	54.57
772.834	53.11
773.142	51.02
773.45	53.76
773.758	53.56
774.066	51.72
774.374	52.7
774.682	52.98
774.99	54.93
775.298	55.57
775.605	53.53
775.913	55.13
776.22	52.14
776.528	54.11
776.835	53.38
777.143	53.19
777.45	53.98
777.757	50.82
778.065	53.54
778.372	57.47
778.679	50.61
778.986	55.32
779.293	55.41
779.6	52.61
779.907	50.77
780.214	51.77
780.52	56.17
780.827	54.18
781.134	52.63
781.44	53.26
781.747	53.63
782.053	53.66
782.36	52.86
782.666	53.94
782.973	52.78
783.279	53.4
783.585	51.71
783.891	50.41
784.197	51.52
784.503	52.12
784.809	55.05
785.115	54.31
785.421	51.12
785.727	52.43
786.033	55.36
786.339	53.82
786.644	53.13
786.95	55
787.255	54.89
787.561	55.84
787.866	60.74
788.172	53.96
788.477	53.18
788.782	52.7
789.088	56.55
789.393	56.6
789.698	55.77
790.003	54.77
790.308	54.31
790.613	54.31
790.918	56.93
791.223	54.62
791.527	53.4
791.832	53.46
792.137	54.4
792.441	55.76
792.746	53.82
793.05	54.23
793.355	54.16
793.659	54.13
793.963	51.99
794.268	53.27
794.572	55.74
794.876	51.92
795.18	57.18
795.484	55.55
795.788	58.16
796.092	53.73
796.396	53.58
796.7	57.15
797.004	52.38
797.307	57.14
797.611	56.82
797.915	52.73
798.218	55.78
798.522	53.23
798.825	53.47
799.128	55.89
799.432	56.1
799.735	57.1
800.038	55.3
800.341	55.21
800.644	54.74
800.947	52.49
801.25	55.73
801.553	53.24
801.856	57.38
802.159	55.68
802.462	56.26
802.764	56.22
803.067	57.56
803.37	51.53
803.672	50.71
803.975	59.09
804.277	53.67
804.579	56.05
804.882	55.13
805.184	52.94
805.486	51.21
805.788	55.24
806.09	60.11
806.392	54.48
806.694	51.32
806.996	58.99
807.298	55.71
807.6	52.96
807.902	55.89
808.203	51.59
808.505	56.19
808.807	54.31
809.108	52.58
809.409	57.3
809.711	56.05
810.012	53.3
810.313	53.82
810.615	54.55
810.916	51.47
811.217	53.59
811.518	51.39
811.819	55.16
812.12	52.11
812.421	51.09
812.722	52.69
813.023	58.54
813.323	52.66
813.624	57.42
813.925	52.19
814.225	58.75
814.526	53.97
814.826	50.49
815.126	56.02
815.427	56.45
815.727	55.39
816.027	55.35
816.327	56.58
816.627	54.99
816.927	59.2
817.227	54.72
817.527	51.69
817.827	55.46
818.127	57.91
818.427	52.65
818.727	55.81
819.026	54.07
819.326	55.08
819.625	59.07
819.925	55.64
820.224	53.88
820.524	53.39
820.823	58.84
821.122	54.01
821.421	63.22
821.72	57.57
822.019	57.11
822.318	54.24
822.617	57.92
822.916	54.91
823.215	54.03
823.514	54.15
823.813	58.98
824.111	56.45
824.41	56.09
824.709	57
825.007	56.94
825.306	56
825.604	57.19
825.902	56.71
826.201	57.43
826.499	57.04
826.797	57.38
827.095	55.14
827.393	56.51
827.691	55.77
827.989	55.08
828.287	56.28
828.585	55.36
828.882	55.24
829.18	59.62
829.478	58.62
829.775	56.09
830.073	56.77
830.37	57.02
830.668	57.14
830.965	55.27
831.263	56.41
831.56	57.04
831.857	55.08
832.154	55.82
832.451	57.21
832.748	58.41
833.045	56.8
833.342	60.05
833.639	57.83
833.936	58.94
834.232	54.25
834.529	52.52
834.826	56.01
835.122	57.85
835.419	57.65
835.715	55.39
836.012	60.5
836.308	54.18
836.604	56.71
836.901	57.43
837.197	55.95
837.493	57.16
837.789	55.01
838.085	55.84
838.381	58.52
838.677	56.34
838.972	53.88
839.268	58.36
839.564	57.46
839.86	55.8
840.155	54.93
840.451	59.57
840.746	55.21
841.042	50.63
841.337	54.98
841.632	47.2
841.928	52.31
842.223	48.44
842.518	64.02
842.813	48.93
843.108	61.97
843.403	61.95
843.698	56.67
843.993	55.59
844.287	58.19
844.582	62.44
844.877	54.49
845.171	58.11
845.466	61.24
845.761	37.79
846.055	45.85
846.349	58.86
846.644	62.44
846.938	42.53
847.232	51.32
847.526	61.88
847.82	61.48
848.114	55.59
848.408	63.66
848.702	40.72
848.996	57.89
849.29	54.65
849.584	50.99
849.877	74.22
850.171	51.38
850.465	47.85
850.758	28.64
851.052	54.06
851.345	59.34
851.638	48.65
851.932	55.73
852.225	69.13
852.518	50.43
852.811	58.06
853.104	40.74
853.397	69.57
853.69	41.72
853.983	44.97
854.276	58.98
854.569	74.86
854.861	66.56
855.154	67.95
855.447	61.04
855.739	49.97
856.032	67.96
856.324	43.53
856.616	43.63
856.909	62.52
857.201	50.38
857.493	51.44
857.785	47.95
858.077	56.4
858.369	59.5
858.661	46.77
858.953	75.45
859.245	59.78
859.537	53.69
859.829	47.52
860.12	49.28
860.412	45.02
860.703	78.97
860.995	63.95
861.286	58.72
861.578	32.73
861.869	35.9
862.16	34.01
862.452	36.41
862.743	53.57
863.034	50.9
863.325	50.99
863.616	56.36
863.907	76.15
864.198	70.64
864.488	65.41
864.779	63.36
865.07	48.02
865.36	50.67
865.651	58.74
865.941	64.64
866.232	53.86
866.522	41.47
866.813	51.87
867.103	51.52
867.393	47.05
867.683	54.95
867.973	40.36
868.263	65.83
868.553	61.57
868.843	64.9
869.133	54.09
869.423	46.09
869.713	71.69
870.002	54.18
870.292	63.22
870.582	68.1
870.871	48.12
871.161	54.32
871.45	68.17
871.739	53.57
872.029	44.56
872.318	58.36
872.607	60.13
872.896	69.13
873.185	56.27
873.474	23.02
873.763	67.84
874.052	42
874.341	67.51
874.63	63.82
874.918	84.74
875.207	74.26
875.496	68.25
875.784	46.84
876.073	34.06
876.361	50.43
876.649	38.35
876.938	46.32
877.226	74.85
877.514	42.68
877.802	73.84
878.09	64.94
878.378	46.51
878.666	43.67
878.954	26.44
879.242	46.06
879.53	40.47
879.817	64.1
880.105	35.09
880.392	35.62
880.68	34.25
880.967	14.98
881.255	25.29
881.542	49.77
881.83	53.69
882.117	43.09
882.404	38.25
882.691	61.06
882.978	41.91
883.265	42.93
883.552	55.5
883.839	65
884.126	37.82
884.413	60.18
884.699	61.61
884.986	57.47
885.273	57.22
885.559	57.22
885.846	57.22
