Data from 1697-1_chest_Reflection__5__115.txt Node

Date: Fri Nov 11 17:01:06 CST 2022
User: ToomeyLab
Spectrometer: FLMS14357
Trigger mode: 0
Integration Time (sec): 1.000000E-2
Scans to average: 100
Electric dark correction enabled: true
Nonlinearity correction enabled: false
Boxcar width: 0
XAxis mode: Wavelengths
Number of Pixels in Spectrum: 2048
>>>>>Begin Spectral Data<<<<<
189.047	59.46
189.435	59.46
189.823	59.46
190.211	-3725.81
190.599	-321.61
190.987	201.61
191.375	-203.2
191.763	-45.82
192.151	14.03
192.538	226.87
192.926	167.82
193.314	-167.95
193.702	-106.86
194.089	-380.53
194.477	67.86
194.864	-38.32
195.252	183.38
195.639	73.95
196.027	42.68
196.414	63
196.801	610.75
197.189	76.49
197.576	123.58
197.963	24.24
198.351	24.67
198.738	-52.34
199.125	-5.89
199.512	13.63
199.899	8.47
200.286	-8.59
200.673	30.55
201.06	-36.21
201.447	3.1
201.833	16.15
202.22	31.9
202.607	25.01
202.994	10.9
203.38	31.95
203.767	34.11
204.154	-61.31
204.54	6.15
204.927	-6
205.313	16.09
205.699	0.44
206.086	26.82
206.472	8.2
206.858	-15.3
207.245	-4.59
207.631	-0.84
208.017	1.38
208.403	25.3
208.789	-72.91
209.175	5.17
209.561	39.16
209.947	2.11
210.333	31.39
210.719	47.95
211.105	-38.85
211.491	-56.63
211.876	36.04
212.262	-11.56
212.648	-1.04
213.034	-4.47
213.419	29.15
213.805	0.8
214.19	-22.39
214.576	15.44
214.961	-5.89
215.346	-55.06
215.732	-53.78
216.117	44.11
216.502	33.91
216.888	7.25
217.273	14.98
217.658	20.22
218.043	-4.6
218.428	-34.56
218.813	25.47
219.198	-23.63
219.583	13.84
219.968	1.7
220.353	-4.36
220.738	-6.22
221.122	-37.28
221.507	21.49
221.892	0.64
222.276	14.06
222.661	1.96
223.046	4.31
223.43	-0.85
223.815	5.33
224.199	-2.09
224.583	2.81
224.968	12.4
225.352	-6.86
225.736	12.24
226.121	7.41
226.505	4.64
226.889	5.46
227.273	3.17
227.657	-1.24
228.041	4.16
228.425	3.04
228.809	9.46
229.193	-1.98
229.577	3.38
229.961	2.69
230.344	2.83
230.728	2.64
231.112	2.38
231.495	2.82
231.879	1.62
232.263	1.66
232.646	2.9
233.03	1.96
233.413	1.36
233.797	2.2
234.18	2.93
234.563	1.95
234.946	4.06
235.33	2.18
235.713	2.91
236.096	1.41
236.479	2.85
236.862	4.44
237.245	2.09
237.628	2.41
238.011	3.16
238.394	2.56
238.777	2.68
239.16	3.39
239.543	1.59
239.925	3.68
240.308	3.02
240.691	2.67
241.073	2.51
241.456	1.93
241.838	2.48
242.221	2.88
242.603	1.99
242.986	2.66
243.368	2.43
243.75	3.08
244.133	2.75
244.515	3.07
244.897	2.51
245.279	2.19
245.661	2.41
246.043	3.02
246.425	3.51
246.807	3.13
247.189	2.2
247.571	1.99
247.953	2.63
248.335	3.02
248.717	2.71
249.098	2.84
249.48	2.91
249.862	2.71
250.243	2.54
250.625	2.76
251.006	3.44
251.388	3.05
251.769	3.43
252.151	1.77
252.532	3.03
252.913	2.05
253.295	2.66
253.676	2.81
254.057	2.71
254.438	3
254.819	2.67
255.2	3.46
255.581	2.79
255.962	2.34
256.343	3.79
256.724	2.85
257.105	2.24
257.486	3.14
257.867	2.49
258.247	3.45
258.628	2.03
259.009	3.19
259.389	3.24
259.77	3.64
260.15	3.32
260.531	2.21
260.911	2.51
261.292	2.6
261.672	2.6
262.052	2.66
262.432	2.96
262.813	2.84
263.193	2.85
263.573	3.4
263.953	2.52
264.333	3.49
264.713	2.5
265.093	2.96
265.473	3.87
265.853	2.85
266.233	2.29
266.612	2.08
266.992	3.35
267.372	2.99
267.752	2.72
268.131	2.72
268.511	3.06
268.89	3.1
269.27	2.43
269.649	2.22
270.029	2.58
270.408	2.33
270.787	3.34
271.167	2.7
271.546	3.15
271.925	3.29
272.304	3.1
272.683	2.69
273.062	2.96
273.441	2.03
273.82	2.52
274.199	2.82
274.578	2.98
274.957	2.48
275.336	2.71
275.715	2.69
276.093	2.97
276.472	2.94
276.851	2.72
277.229	2.55
277.608	3.26
277.986	2.65
278.365	2.83
278.743	2.34
279.122	2.46
279.5	2.51
279.878	2.35
280.257	2.79
280.635	2.77
281.013	2.5
281.391	2.54
281.769	3.19
282.147	2.36
282.525	2.13
282.903	2.87
283.281	2.69
283.659	2.65
284.037	2.3
284.415	2.87
284.792	3.08
285.17	2.82
285.548	2.71
285.925	2.88
286.303	2.54
286.68	2.76
287.058	2.86
287.435	2.83
287.813	2.85
288.19	2.81
288.567	2.69
288.945	2.36
289.322	2.93
289.699	3.01
290.076	2.55
290.453	2.97
290.83	2.95
291.207	2.32
291.584	2.71
291.961	2.56
292.338	2.77
292.715	2.95
293.092	2.35
293.469	3.32
293.845	2.86
294.222	3.46
294.599	3.06
294.975	2.57
295.352	2.59
295.728	2.64
296.105	2.81
296.481	2.68
296.858	2.67
297.234	2.58
297.61	2.71
297.986	2.51
298.363	2.89
298.739	3.22
299.115	2.93
299.491	3.04
299.867	2.92
300.243	2.41
300.619	2.61
300.995	2.6
301.371	2.36
301.746	2.86
302.122	2.93
302.498	2.36
302.874	3.19
303.249	3.04
303.625	2.91
304	2.15
304.376	2.82
304.751	3.26
305.127	3.03
305.502	3.3
305.878	3.04
306.253	3.03
306.628	3.2
307.003	2.9
307.378	3.23
307.754	3.29
308.129	3.11
308.504	2.95
308.879	2.49
309.254	2.56
309.629	2.93
310.003	3.19
310.378	2.93
310.753	2.87
311.128	3.33
311.502	2.56
311.877	3.23
312.252	2.82
312.626	2.91
313.001	2.98
313.375	3.02
313.75	3.17
314.124	3.2
314.498	3.19
314.873	2.98
315.247	3.08
315.621	2.92
315.995	2.68
316.369	3.31
316.743	2.9
317.117	3
317.491	3.27
317.865	3.13
318.239	3.08
318.613	3.13
318.987	2.74
319.361	3.29
319.734	2.69
320.108	3.36
320.482	2.65
320.855	3.12
321.229	3.46
321.602	2.98
321.976	2.28
322.349	3.02
322.723	3.09
323.096	3.15
323.469	2.87
323.843	3.47
324.216	2.44
324.589	2.9
324.962	3.02
325.335	3.36
325.708	2.81
326.081	3.08
326.454	3.25
326.827	3.15
327.2	2.94
327.573	3.31
327.945	2.82
328.318	3.3
328.691	3.59
329.063	3.59
329.436	3.01
329.809	2.69
330.181	3.34
330.553	3.5
330.926	2.84
331.298	3.36
331.671	3.16
332.043	3.39
332.415	3.26
332.787	3.25
333.159	3.32
333.532	2.66
333.904	2.89
334.276	3.3
334.648	3.4
335.02	3.23
335.391	3.61
335.763	3.09
336.135	3.67
336.507	2.97
336.879	3.32
337.25	2.86
337.622	3.94
337.993	3.27
338.365	2.95
338.736	3.16
339.108	3.11
339.479	3.44
339.851	2.43
340.222	2.9
340.593	2.47
340.964	3.22
341.336	2.79
341.707	3.37
342.078	3.17
342.449	3.24
342.82	2.99
343.191	3.42
343.562	3.08
343.933	2.77
344.303	3.97
344.674	3.14
345.045	3.19
345.416	2.98
345.786	3.42
346.157	3.12
346.527	3.16
346.898	3.12
347.268	3.2
347.639	3.31
348.009	3.09
348.38	3.16
348.75	3.2
349.12	3.19
349.49	2.81
349.861	2.93
350.231	3.31
350.601	3.53
350.971	3.41
351.341	3.53
351.711	2.86
352.081	2.83
352.45	3.34
352.82	3.56
353.19	2.96
353.56	3.58
353.929	3.34
354.299	3.45
354.669	3.61
355.038	3.37
355.408	2.97
355.777	3.32
356.147	3.28
356.516	3.31
356.885	3.28
357.254	3.65
357.624	3.56
357.993	3.14
358.362	3.06
358.731	2.88
359.1	2.96
359.469	3.25
359.838	3.18
360.207	3.18
360.576	3.45
360.945	3.69
361.314	3.33
361.682	3.26
362.051	3.4
362.42	3.28
362.788	3.22
363.157	3.33
363.525	3.36
363.894	3.29
364.262	3.09
364.631	3.18
364.999	3.36
365.367	3.29
365.735	3.29
366.104	3.12
366.472	3.42
366.84	3.2
367.208	3.38
367.576	3.5
367.944	3.69
368.312	3.38
368.68	3.58
369.048	3.22
369.416	3.42
369.783	2.71
370.151	3.19
370.519	3.55
370.886	3.23
371.254	3.09
371.621	3.47
371.989	3.31
372.356	3.18
372.724	3.49
373.091	3.48
373.458	3.12
373.826	3.66
374.193	3.41
374.56	3.45
374.927	3.42
375.294	3.38
375.661	3.69
376.028	3.53
376.395	3.34
376.762	3.38
377.129	3.45
377.496	3.43
377.863	3.4
378.229	3.77
378.596	3.34
378.963	3.16
379.329	3.37
379.696	3.49
380.062	3.41
380.429	3.26
380.795	3.3
381.161	3.8
381.528	3.64
381.894	3.6
382.26	3.29
382.626	3.48
382.993	3.73
383.359	3.49
383.725	3.44
384.091	3.4
384.457	3.33
384.823	3.63
385.188	3.55
385.554	3.46
385.92	3.61
386.286	3.31
386.651	3.33
387.017	3.49
387.383	3.47
387.748	3.39
388.114	3.45
388.479	3.58
388.845	3.33
389.21	3.47
389.575	3.39
389.94	3.68
390.306	3.24
390.671	3.56
391.036	3.52
391.401	3.47
391.766	3.44
392.131	3.26
392.496	3.57
392.861	3.62
393.226	3.37
393.591	3.27
393.956	3.65
394.32	3.49
394.685	3.83
395.05	3.82
395.414	3.7
395.779	3.49
396.143	3.82
396.508	3.52
396.872	3.63
397.236	3.56
397.601	3.66
397.965	3.52
398.329	3.51
398.694	3.62
399.058	3.34
399.422	3.63
399.786	3.72
400.15	3.76
400.514	3.54
400.878	3.61
401.242	3.72
401.605	3.5
401.969	3.61
402.333	3.81
402.697	3.49
403.06	3.53
403.424	3.64
403.787	3.83
404.151	3.5
404.514	3.79
404.878	3.73
405.241	3.68
405.604	3.53
405.968	3.73
406.331	3.5
406.694	3.75
407.057	3.78
407.42	3.72
407.783	3.78
408.146	3.76
408.509	3.67
408.872	3.95
409.235	3.84
409.598	3.68
409.961	3.83
410.323	3.71
410.686	3.67
411.049	3.63
411.411	3.51
411.774	3.59
412.136	3.67
412.499	3.77
412.861	3.69
413.223	3.83
413.586	3.59
413.948	3.62
414.31	3.74
414.672	3.83
415.035	3.82
415.397	3.98
415.759	3.96
416.121	3.77
416.483	3.65
416.845	3.83
417.206	3.71
417.568	3.69
417.93	3.74
418.292	3.55
418.653	3.84
419.015	3.75
419.377	3.74
419.738	3.81
420.1	3.69
420.461	3.62
420.822	3.71
421.184	3.64
421.545	3.61
421.906	3.68
422.267	3.73
422.629	3.67
422.99	3.7
423.351	3.73
423.712	3.64
424.073	3.72
424.434	3.59
424.795	3.77
425.155	3.8
425.516	3.84
425.877	3.74
426.238	3.67
426.598	3.66
426.959	3.71
427.32	3.8
427.68	3.84
428.041	3.87
428.401	3.64
428.761	3.78
429.122	3.77
429.482	3.87
429.842	3.87
430.202	3.85
430.563	3.73
430.923	3.63
431.283	3.84
431.643	3.92
432.003	3.97
432.363	4.09
432.722	3.87
433.082	3.81
433.442	3.91
433.802	3.88
434.161	3.81
434.521	3.85
434.881	3.82
435.24	3.91
435.6	3.89
435.959	3.7
436.319	3.81
436.678	3.76
437.037	3.83
437.396	3.88
437.756	3.84
438.115	3.83
438.474	3.73
438.833	3.87
439.192	3.98
439.551	3.78
439.91	3.74
440.269	3.91
440.628	3.98
440.987	4.02
441.345	3.96
441.704	3.84
442.063	3.94
442.421	3.82
442.78	3.83
443.138	3.77
443.497	3.89
443.855	3.85
444.214	3.82
444.572	3.93
444.93	3.95
445.288	4.05
445.647	3.8
446.005	3.93
446.363	3.98
446.721	3.81
447.079	3.88
447.437	3.9
447.795	3.88
448.153	3.92
448.51	3.82
448.868	3.88
449.226	3.89
449.584	3.99
449.941	3.88
450.299	3.99
450.656	4
451.014	4.01
451.371	4.01
451.729	3.99
452.086	3.94
452.443	4.17
452.801	4.09
453.158	3.95
453.515	4.01
453.872	4
454.229	4.08
454.586	4.06
454.943	3.94
455.3	3.91
455.657	4.05
456.014	3.94
456.371	3.95
456.727	4.21
457.084	4.06
457.441	4.1
457.797	4.1
458.154	4.08
458.51	4.12
458.867	4.07
459.223	4.08
459.58	4.16
459.936	4.1
460.292	4.05
460.648	4.03
461.005	4.14
461.361	4.09
461.717	4.01
462.073	4.12
462.429	4.1
462.785	4.04
463.141	4.12
463.496	4.1
463.852	4.13
464.208	4.09
464.564	4.14
464.919	4.09
465.275	4.13
465.631	4.27
465.986	4.06
466.342	4.18
466.697	4.22
467.052	4.3
467.408	4.12
467.763	4.17
468.118	4.2
468.473	4.26
468.829	4.21
469.184	4.29
469.539	4.42
469.894	4.32
470.249	4.16
470.603	4.07
470.958	4.22
471.313	4.44
471.668	4.35
472.023	4.34
472.377	4.35
472.732	4.36
473.086	4.16
473.441	4.38
473.795	4.28
474.15	4.35
474.504	4.31
474.859	4.4
475.213	4.28
475.567	4.34
475.921	4.52
476.275	4.27
476.63	4.47
476.984	4.4
477.338	4.32
477.692	4.37
478.045	4.29
478.399	4.32
478.753	4.45
479.107	4.39
479.461	4.37
479.814	4.32
480.168	4.51
480.521	4.33
480.875	4.4
481.228	4.51
481.582	4.33
481.935	4.34
482.289	4.43
482.642	4.33
482.995	4.43
483.348	4.31
483.701	4.38
484.055	4.31
484.408	4.31
484.761	4.22
485.114	4.19
485.466	4.1
485.819	4.13
486.172	4.15
486.525	4.18
486.878	4.25
487.23	4.24
487.583	4.34
487.936	4.3
488.288	4.26
488.641	4.3
488.993	4.29
489.345	4.22
489.698	4.25
490.05	4.25
490.402	4.28
490.754	4.37
491.107	4.42
491.459	4.49
491.811	4.42
492.163	4.46
492.515	4.38
492.866	4.34
493.218	4.29
493.57	4.31
493.922	4.36
494.274	4.42
494.625	4.35
494.977	4.43
495.328	4.55
495.68	4.54
496.031	4.5
496.383	4.65
496.734	4.6
497.086	4.57
497.437	4.67
497.788	4.71
498.139	4.51
498.49	4.6
498.842	4.64
499.193	4.57
499.544	4.56
499.894	4.75
500.245	4.66
500.596	4.69
500.947	4.68
501.298	4.81
501.648	4.8
501.999	4.77
502.35	4.67
502.7	4.85
503.051	4.72
503.401	4.63
503.752	4.65
504.102	4.7
504.452	4.86
504.803	4.76
505.153	4.81
505.503	4.77
505.853	4.75
506.203	4.88
506.553	4.9
506.903	4.74
507.253	4.89
507.603	4.81
507.953	4.93
508.303	4.88
508.652	4.74
509.002	4.81
509.352	5.09
509.701	4.86
510.051	4.85
510.4	4.81
510.75	4.89
511.099	4.85
511.449	4.93
511.798	4.86
512.147	4.93
512.496	4.89
512.846	4.86
513.195	4.89
513.544	4.97
513.893	4.91
514.242	4.98
514.591	4.94
514.939	4.98
515.288	5.02
515.637	4.97
515.986	5.13
516.334	5.05
516.683	5.03
517.032	4.97
517.38	4.97
517.729	5.08
518.077	5.05
518.426	5.14
518.774	4.92
519.122	5.03
519.47	4.97
519.819	4.98
520.167	4.97
520.515	5.08
520.863	5.08
521.211	5.1
521.559	5.08
521.907	5.07
522.255	5.13
522.602	5.2
522.95	5.22
523.298	5.17
523.645	5.19
523.993	5.34
524.341	5.38
524.688	5.3
525.036	5.35
525.383	5.28
525.73	5.19
526.078	5.34
526.425	5.18
526.772	5.31
527.119	5.19
527.466	5.14
527.814	5.19
528.161	5.29
528.508	5.17
528.854	5.28
529.201	5.27
529.548	5.23
529.895	5.15
530.242	5.14
530.588	5.11
530.935	5.14
531.282	5.26
531.628	5.23
531.975	5.3
532.321	5.3
532.667	5.38
533.014	5.38
533.36	5.47
533.706	5.48
534.052	5.48
534.399	5.36
534.745	5.35
535.091	5.28
535.437	5.39
535.783	5.33
536.129	5.5
536.474	5.6
536.82	5.5
537.166	5.63
537.512	5.6
537.857	5.66
538.203	5.53
538.549	5.52
538.894	5.61
539.239	5.65
539.585	5.69
539.93	5.8
540.276	5.72
540.621	5.79
540.966	5.82
541.311	5.85
541.656	5.7
542.001	5.75
542.346	5.83
542.691	5.65
543.036	5.64
543.381	5.56
543.726	5.67
544.071	5.68
544.415	5.79
544.76	5.74
545.105	5.91
545.449	5.84
545.794	5.92
546.138	5.94
546.483	6.01
546.827	5.99
547.171	6
547.516	5.95
547.86	5.98
548.204	6.01
548.548	5.96
548.892	6.06
549.236	6.11
549.58	6.22
549.924	6.27
550.268	6.31
550.612	6.28
550.956	6.27
551.3	6.32
551.643	6.4
551.987	6.35
552.33	6.28
552.674	6.37
553.017	6.31
553.361	6.48
553.704	6.46
554.048	6.46
554.391	6.36
554.734	6.28
555.077	6.54
555.42	6.4
555.764	6.42
556.107	6.55
556.45	6.52
556.793	6.64
557.135	6.8
557.478	6.61
557.821	6.66
558.164	6.9
558.507	6.55
558.849	6.58
559.192	6.73
559.534	6.62
559.877	6.85
560.219	6.69
560.562	6.88
560.904	6.67
561.246	6.8
561.589	6.94
561.931	6.88
562.273	6.86
562.615	6.85
562.957	6.87
563.299	7.13
563.641	6.95
563.983	6.91
564.325	6.94
564.667	6.95
565.008	6.97
565.35	7.03
565.692	7
566.033	7.3
566.375	7.11
566.716	7.19
567.058	7.1
567.399	7.22
567.741	7.28
568.082	7.21
568.423	7.14
568.764	7.29
569.105	7.3
569.447	7.17
569.788	7.49
570.129	7.38
570.47	7.28
570.811	7.29
571.151	7.47
571.492	7.39
571.833	7.44
572.174	7.5
572.514	7.65
572.855	7.6
573.195	7.67
573.536	7.58
573.876	7.59
574.217	7.52
574.557	7.56
574.898	7.74
575.238	7.6
575.578	7.76
575.918	7.7
576.258	7.92
576.598	7.85
576.938	7.79
577.278	7.86
577.618	7.76
577.958	8.03
578.298	7.99
578.638	7.96
578.977	7.92
579.317	7.83
579.657	8.02
579.996	7.99
580.336	8.17
580.675	8.07
581.014	8.28
581.354	8.17
581.693	8.18
582.032	8.17
582.372	8.37
582.711	8.37
583.05	8.44
583.389	8.27
583.728	8.47
584.067	8.42
584.406	8.43
584.745	8.56
585.083	8.46
585.422	8.5
585.761	8.45
586.1	8.6
586.438	8.41
586.777	8.65
587.115	8.7
587.454	8.62
587.792	8.67
588.13	8.64
588.469	8.85
588.807	8.76
589.145	8.95
589.483	8.89
589.821	8.74
590.159	9.04
590.497	9.05
590.835	9.07
591.173	9.01
591.511	8.99
591.849	8.93
592.187	8.91
592.524	9.03
592.862	9.1
593.2	9.19
593.537	8.71
593.875	9.27
594.212	9.05
594.55	9.18
594.887	9.34
595.224	9.24
595.561	9.42
595.899	9.11
596.236	9.33
596.573	9.29
596.91	9.55
597.247	9.31
597.584	9.42
597.921	9.21
598.258	9.55
598.594	9.43
598.931	9.56
599.268	9.4
599.604	9.59
599.941	9.61
600.277	9.42
600.614	10
600.95	9.65
601.287	9.64
601.623	9.81
601.959	9.76
602.296	9.87
602.632	9.94
602.968	9.81
603.304	10.04
603.64	9.9
603.976	10.06
604.312	9.88
604.648	9.81
604.984	10.02
605.319	10.01
605.655	9.95
605.991	9.88
606.326	9.98
606.662	9.92
606.998	10.15
607.333	10.21
607.668	10.28
608.004	10.26
608.339	10.54
608.674	10.16
609.01	10.31
609.345	10.42
609.68	10.69
610.015	10.55
610.35	10.67
610.685	10.6
611.02	10.66
611.355	10.36
611.689	10.77
612.024	10.65
612.359	10.46
612.694	10.65
613.028	10.73
613.363	10.85
613.697	10.75
614.032	10.99
614.366	10.44
614.7	10.68
615.035	11.17
615.369	11.28
615.703	11.23
616.037	11.32
616.371	11.24
616.705	11.19
617.039	11.13
617.373	11.19
617.707	11.36
618.041	11.25
618.375	11.56
618.709	11.2
619.042	11.46
619.376	11.51
619.71	11.58
620.043	11.57
620.377	11.43
620.71	11.23
621.043	11.68
621.377	11.49
621.71	11.41
622.043	11.54
622.376	11.8
622.709	11.9
623.043	11.59
623.376	11.9
623.709	11.64
624.041	11.87
624.374	11.9
624.707	11.9
625.04	12.07
625.373	12.05
625.705	12.03
626.038	11.93
626.37	12.42
626.703	12.3
627.035	12.15
627.368	12.12
627.7	12.14
628.032	12.05
628.365	12.38
628.697	12.23
629.029	12.18
629.361	12.33
629.693	12.4
630.025	12.18
630.357	12.3
630.689	12.53
631.021	12.66
631.353	12.42
631.684	12.79
632.016	12.51
632.348	12.6
632.679	12.66
633.011	12.82
633.342	12.53
633.674	12.74
634.005	12.62
634.336	12.77
634.668	12.85
634.999	12.48
635.33	13.22
635.661	13.07
635.992	13.17
636.323	13.07
636.654	13.26
636.985	13.1
637.316	13.19
637.647	13.13
637.977	12.68
638.308	13.27
638.639	13.46
638.969	13.54
639.3	13.28
639.63	13.48
639.961	13.39
640.291	13.6
640.622	13.29
640.952	13.52
641.282	13.64
641.612	13.93
641.943	13.47
642.273	13.79
642.603	13.85
642.933	13.47
643.263	13.45
643.592	14.19
643.922	13.52
644.252	14.12
644.582	13.91
644.911	14.11
645.241	14.51
645.571	13.83
645.9	14.22
646.23	14.07
646.559	14.27
646.888	14.17
647.218	13.68
647.547	14.17
647.876	13.83
648.205	14.28
648.534	14.38
648.863	14.49
649.192	14.57
649.521	14.46
649.85	14.49
650.179	14.17
650.508	14.47
650.837	14.72
651.165	15.06
651.494	14.72
651.822	14.55
652.151	14.88
652.479	14.92
652.808	14.58
653.136	14.5
653.465	15.15
653.793	15.14
654.121	14.96
654.449	15.09
654.777	15.1
655.105	15.39
655.433	14.94
655.761	15.07
656.089	15.4
656.417	15.59
656.745	15.2
657.073	14.88
657.4	15.48
657.728	15.54
658.056	14.54
658.383	15.58
658.711	15.37
659.038	15.15
659.365	15.27
659.693	15.56
660.02	15.89
660.347	15.6
660.674	15.44
661.001	15.73
661.329	15.47
661.656	15.57
661.982	15.91
662.309	15.94
662.636	15.99
662.963	16.04
663.29	16.08
663.616	15.92
663.943	16.11
664.27	15.45
664.596	15.97
664.923	16.43
665.249	16.41
665.576	16.1
665.902	16.5
666.228	15.83
666.554	16.13
666.881	16.24
667.207	16.03
667.533	16.34
667.859	16.09
668.185	16.14
668.511	16.71
668.837	16.45
669.162	16.31
669.488	16.38
669.814	16.29
670.139	16.86
670.465	16.95
670.791	16.7
671.116	16.22
671.442	16.62
671.767	16.89
672.092	16.51
672.418	16.73
672.743	16.88
673.068	16.73
673.393	16.56
673.718	16.98
674.043	16.56
674.368	17.09
674.693	17.2
675.018	17.08
675.343	17.51
675.667	17.02
675.992	17.17
676.317	17.58
676.641	17.82
676.966	16.55
677.29	16.87
677.615	17.48
677.939	17.34
678.264	17.27
678.588	17.71
678.912	17.97
679.236	17.26
679.56	17.9
679.885	17.5
680.209	17.25
680.532	17.38
680.856	18.01
681.18	17.6
681.504	18.2
681.828	17.34
682.152	18.28
682.475	17.67
682.799	18
683.122	18
683.446	17.87
683.769	18.36
684.093	18.02
684.416	18.07
684.739	18.42
685.062	18.49
685.386	18.48
685.709	18.44
686.032	18.28
686.355	18.08
686.678	18.05
687.001	18.75
687.324	18.41
687.646	18.64
687.969	18.15
688.292	18.97
688.614	17.84
688.937	18.58
689.26	18.64
689.582	18.89
689.904	18.85
690.227	19.19
690.549	19.05
690.871	19.27
691.194	19.17
691.516	19.15
691.838	18.65
692.16	19.03
692.482	19.39
692.804	19.52
693.126	19.21
693.448	19.06
693.769	19.93
694.091	19.25
694.413	19.38
694.735	19.06
695.056	19.98
695.378	19.24
695.699	19.04
696.021	19.25
696.342	19.38
696.663	19.55
696.984	19.76
697.306	19.46
697.627	19.86
697.948	19.29
698.269	20.69
698.59	20.15
698.911	19.36
699.232	19.57
699.553	19.17
699.873	19
700.194	19.87
700.515	20.12
700.835	20.12
701.156	20.4
701.477	20.33
701.797	20.22
702.117	20.16
702.438	19.81
702.758	21
703.078	19.99
703.398	19.9
703.719	19.85
704.039	20.22
704.359	20.29
704.679	18.86
704.999	19.68
705.319	20.51
705.638	21.38
705.958	19.64
706.278	21.14
706.597	20.69
706.917	19.47
707.237	20.98
707.556	21.23
707.876	21.86
708.195	20.75
708.514	21.38
708.834	20.69
709.153	20.77
709.472	20.83
709.791	21.33
710.11	21.29
710.429	20.24
710.748	21.37
711.067	21.47
711.386	21.73
711.705	20.84
712.023	22.09
712.342	22.09
712.661	20.61
712.979	21.64
713.298	21.89
713.616	21.17
713.935	21.61
714.253	22.1
714.572	21.28
714.89	21.94
715.208	21.75
715.526	21.53
715.844	21.21
716.162	21.56
716.48	21.14
716.798	21.84
717.116	21.34
717.434	22.19
717.752	22.21
718.069	21.67
718.387	22.5
718.705	22.14
719.022	23.15
719.34	21.95
719.657	22.13
719.975	21.91
720.292	22.72
720.609	20.63
720.927	21.93
721.244	23.51
721.561	22.52
721.878	22.19
722.195	22.66
722.512	22.86
722.829	22.72
723.146	22.15
723.463	23.21
723.779	22.69
724.096	23.58
724.413	22.4
724.729	21.41
725.046	22.26
725.362	22.03
725.679	23.1
725.995	23.11
726.311	22.9
726.628	22.74
726.944	23.53
727.26	24.03
727.576	23.62
727.892	21.25
728.208	23.74
728.524	23.28
728.84	23.44
729.156	23.28
729.472	23.05
729.787	22.86
730.103	23.85
730.419	23.47
730.734	23.41
731.05	24.88
731.365	23.03
731.681	21.5
731.996	22.91
732.311	22.61
732.626	23.25
732.942	22.84
733.257	23.44
733.572	25.39
733.887	23.2
734.202	23.82
734.517	23.49
734.832	23.84
735.146	24.79
735.461	23.07
735.776	23.48
736.091	24.86
736.405	24.41
736.72	23.65
737.034	24.73
737.349	24.7
737.663	23.68
737.977	25.29
738.292	24.28
738.606	24.14
738.92	24.33
739.234	25.09
739.548	24.38
739.862	22.88
740.176	23.23
740.49	24.31
740.804	24.37
741.117	24.3
741.431	25.26
741.745	23.48
742.058	24.53
742.372	24.58
742.685	24.18
742.999	24.47
743.312	25.94
743.626	24.01
743.939	25.89
744.252	24.96
744.565	25.06
744.878	26.07
745.191	24.47
745.505	24.68
745.817	26.83
746.13	25.99
746.443	24.22
746.756	24.31
747.069	25.07
747.381	26.33
747.694	25.94
748.007	25.6
748.319	25.83
748.632	25.03
748.944	25.02
749.256	25.09
749.569	25.96
749.881	25.95
750.193	26.37
750.505	24.88
750.817	24.53
751.129	25.58
751.441	25.43
751.753	26.55
752.065	25.63
752.377	26.3
752.689	25.24
753	27.95
753.312	25.04
753.624	25.74
753.935	25.77
754.247	25.22
754.558	25.14
754.869	25.03
755.181	25.69
755.492	24.87
755.803	25.89
756.114	26.38
756.425	27.33
756.736	25.42
757.047	25.77
757.358	26.04
757.669	27.6
757.98	25.56
758.291	25.13
758.601	27.63
758.912	26.8
759.223	27.09
759.533	25.49
759.844	26.34
760.154	26.99
760.464	27.79
760.775	26.49
761.085	25.87
761.395	27.41
761.705	26.41
762.016	25.72
762.326	25.42
762.636	28.1
762.945	25.96
763.255	27.86
763.565	26.75
763.875	28.31
764.185	27.31
764.494	26.12
764.804	27.08
765.113	28.44
765.423	27.67
765.732	27.11
766.042	27.25
766.351	27.13
766.66	27.6
766.97	27.19
767.279	27.4
767.588	29.2
767.897	28.89
768.206	28.2
768.515	26.59
768.824	26.44
769.133	28.24
769.441	27.11
769.75	24.89
770.059	27.37
770.367	26.22
770.676	26.67
770.984	26.84
771.293	28.41
771.601	27.63
771.91	29.35
772.218	27.86
772.526	27.52
772.834	26.01
773.142	28.69
773.45	28.56
773.758	27.42
774.066	27.03
774.374	30.01
774.682	29.35
774.99	24.48
775.298	28.57
775.605	26.36
775.913	28.5
776.22	27.66
776.528	28.91
776.835	29.61
777.143	29.26
777.45	29.38
777.757	27.56
778.065	28.8
778.372	30.34
778.679	27.23
778.986	28.59
779.293	31.26
779.6	27.66
779.907	29.44
780.214	27.77
780.52	30.41
780.827	29.25
781.134	28.44
781.44	27.97
781.747	32.62
782.053	29.33
782.36	27.64
782.666	29.46
782.973	28.55
783.279	25.25
783.585	27.83
783.891	29.49
784.197	29.22
784.503	27.46
784.809	29.53
785.115	26.18
785.421	27.35
785.727	26.99
786.033	28.7
786.339	27.08
786.644	28.9
786.95	27.8
787.255	29.32
787.561	29.47
787.866	29.74
788.172	31.12
788.477	28.61
788.782	30.15
789.088	30.69
789.393	30.92
789.698	31.24
790.003	31.76
790.308	33.32
790.613	32
790.918	31.58
791.223	30.65
791.527	26.71
791.832	31.59
792.137	29.69
792.441	32.07
792.746	30.68
793.05	29.55
793.355	33.22
793.659	30.15
793.963	29.5
794.268	29.64
794.572	29.45
794.876	28.52
795.18	27.97
795.484	28.11
795.788	28.93
796.092	30.92
796.396	30.54
796.7	27.73
797.004	27.54
797.307	32.14
797.611	30.19
797.915	30.98
798.218	30.16
798.522	31.52
798.825	29.26
799.128	34.5
799.432	31.36
799.735	33.2
800.038	31.81
800.341	31.1
800.644	28.98
800.947	31.6
801.25	32.57
801.553	26.95
801.856	31.86
802.159	33.96
802.462	29.47
802.764	30.42
803.067	31.3
803.37	26.3
803.672	28.83
803.975	35.14
804.277	30.33
804.579	32.93
804.882	32.02
805.184	28.51
805.486	32.54
805.788	29.04
806.09	33.8
806.392	28.89
806.694	31.78
806.996	36.04
807.298	31.2
807.6	32.44
807.902	32.05
808.203	29.31
808.505	29.33
808.807	29.39
809.108	28.19
809.409	29.26
809.711	33.05
810.012	32.66
810.313	29.7
810.615	32.71
810.916	32.05
811.217	27.42
811.518	33.16
811.819	30.75
812.12	37.62
812.421	33.07
812.722	31.4
813.023	31
813.323	34.71
813.624	35.74
813.925	31.93
814.225	31.82
814.526	32.16
814.826	33.86
815.126	32.31
815.427	34.16
815.727	31.82
816.027	29.1
816.327	28.94
816.627	27.29
816.927	34.24
817.227	29.03
817.527	32
817.827	32.75
818.127	32.87
818.427	29.67
818.727	29.86
819.026	30.27
819.326	34.4
819.625	30.38
819.925	36.11
820.224	33.79
820.524	26.14
820.823	40.59
821.122	31.75
821.421	32.72
821.72	29.17
822.019	33.77
822.318	30.4
822.617	30.49
822.916	34.48
823.215	34.25
823.514	33.7
823.813	33.66
824.111	34.21
824.41	31.88
824.709	32.84
825.007	32.17
825.306	34.16
825.604	33.81
825.902	34.06
826.201	33.73
826.499	34.27
826.797	34.24
827.095	33.99
827.393	35.06
827.691	34.61
827.989	32.01
828.287	34.44
828.585	35.91
828.882	32.39
829.18	35.05
829.478	33.72
829.775	33.35
830.073	35.41
830.37	34.19
830.668	34.29
830.965	33.93
831.263	33.33
831.56	35.94
831.857	31.15
832.154	35.75
832.451	33.1
832.748	33.29
833.045	33.11
833.342	35.15
833.639	32.95
833.936	39.39
834.232	33.11
834.529	33.35
834.826	36.34
835.122	33.96
835.419	33.88
835.715	28.06
836.012	29.42
836.308	36.07
836.604	31.06
836.901	33.91
837.197	36.37
837.493	31.93
837.789	32.41
838.085	36.4
838.381	35.37
838.677	34.46
838.972	32.03
839.268	34.2
839.564	33.66
839.86	37.4
840.155	37.71
840.451	31.46
840.746	32.65
841.042	43.7
841.337	37.62
841.632	33.29
841.928	35.5
842.223	24.94
842.518	36.05
842.813	26.86
843.108	41.05
843.403	35.33
843.698	39.05
843.993	33.94
844.287	34.37
844.582	39.71
844.877	25.57
845.171	33.32
845.466	34.43
845.761	36.68
846.055	33.06
846.349	38.45
846.644	46.05
846.938	24.96
847.232	34.09
847.526	36.28
847.82	38.46
848.114	38.05
848.408	40.15
848.702	17.44
848.996	34.15
849.29	34.1
849.584	32.06
849.877	27.3
850.171	26.95
850.465	47.3
850.758	39.05
851.052	33.85
851.345	41.53
851.638	24.1
851.932	34.28
852.225	36.49
852.518	47.78
852.811	18.65
853.104	26.33
853.397	31.97
853.69	45.14
853.983	18.1
854.276	25.15
854.569	33.04
854.861	45.3
855.154	29.81
855.447	25.03
855.739	36.2
856.032	35.85
856.324	27.37
856.616	43.26
856.909	21.28
857.201	36.7
857.493	19.98
857.785	28.48
858.077	35.31
858.369	35.35
858.661	25.93
858.953	54.13
859.245	37.66
859.537	25.5
859.829	29.43
860.12	25.04
860.412	23.46
860.703	34.68
860.995	15.18
861.286	16.53
861.578	27.93
861.869	25.63
862.16	-3.56
862.452	32.02
862.743	30.12
863.034	28.85
863.325	36.77
863.616	50.83
863.907	45.2
864.198	9.1
864.488	18.01
864.779	28.57
865.07	32.25
865.36	21.23
865.651	23.48
865.941	47.44
866.232	40.43
866.522	39.44
866.813	35.22
867.103	25.49
867.393	38.33
867.683	26.44
867.973	32.65
868.263	32.9
868.553	51.31
868.843	46.54
869.133	77.28
869.423	23.1
869.713	24.85
870.002	33.32
870.292	18.17
870.582	48.46
870.871	13.61
871.161	38.74
871.45	4.79
871.739	33.5
872.029	19.27
872.318	39.71
872.607	26.7
872.896	9
873.185	29.08
873.474	18.42
873.763	41.97
874.052	32.75
874.341	24.71
874.63	30.58
874.918	29.79
875.207	25.72
875.496	35.36
875.784	50.7
876.073	20.58
876.361	1.52
876.649	-0.38
876.938	22.87
877.226	33.59
877.514	29.42
877.802	33.25
878.09	18.56
878.378	37.64
878.666	31.62
878.954	27.48
879.242	31.06
879.53	32.9
879.817	42.59
880.105	18.09
880.392	7.62
880.68	16
880.967	10.7
881.255	37.77
881.542	26.25
881.83	14.45
882.117	20.5
882.404	39.85
882.691	51.28
882.978	30.81
883.265	24.17
883.552	31.2
883.839	47
884.126	30.37
884.413	23.83
884.699	38.3
884.986	39.99
885.273	38.92
885.559	38.92
885.846	38.92
