Data from 21-8_chest_Reflection__2__17.txt Node

Date: Thu Dec 15 16:34:35 CST 2022
User: ToomeyLab
Spectrometer: FLMS14357
Trigger mode: 0
Integration Time (sec): 1.000000E-2
Scans to average: 100
Electric dark correction enabled: true
Nonlinearity correction enabled: false
Boxcar width: 0
XAxis mode: Wavelengths
Number of Pixels in Spectrum: 2048
>>>>>Begin Spectral Data<<<<<
189.047	-109.14
189.435	-109.14
189.823	-109.14
190.211	-25.23
190.599	54.08
190.987	89.32
191.375	181.51
191.763	-0.96
192.151	108.36
192.538	221.52
192.926	111.47
193.314	-357.64
193.702	61.12
194.089	-46.71
194.477	24.45
194.864	126.97
195.252	86.44
195.639	47.28
196.027	135.18
196.414	-71.7
196.801	-63.98
197.189	123.74
197.576	-11.7
197.963	-169.58
198.351	16.54
198.738	-20.68
199.125	-68.48
199.512	33.16
199.899	-51.33
200.286	-6.93
200.673	52
201.06	39.43
201.447	22.22
201.833	45.04
202.22	24.85
202.607	-18.67
202.994	-3.92
203.38	6.44
203.767	9.4
204.154	0.98
204.54	-6.04
204.927	22.27
205.313	37.41
205.699	14.66
206.086	38.4
206.472	31.98
206.858	-6.31
207.245	-6.02
207.631	4.64
208.017	41.35
208.403	3.74
208.789	18.55
209.175	-5.21
209.561	-52.85
209.947	9.54
210.333	7.66
210.719	33.1
211.105	40.85
211.491	22.66
211.876	12.69
212.262	27.63
212.648	21.83
213.034	-18.57
213.419	1.64
213.805	-23.96
214.19	-12.93
214.576	1.41
214.961	44.08
215.346	-0.83
215.732	-15.95
216.117	20.81
216.502	13.65
216.888	20.76
217.273	-10.52
217.658	2.16
218.043	9.69
218.428	16.28
218.813	1.16
219.198	-6.97
219.583	2.37
219.968	5.51
220.353	5.62
220.738	5.78
221.122	17.97
221.507	12.55
221.892	-18.08
222.276	-6.98
222.661	-20.16
223.046	5.49
223.43	20.24
223.815	5.96
224.199	0.84
224.583	5.01
224.968	4.81
225.352	1.22
225.736	0.19
226.121	4.39
226.505	-1.69
226.889	6.4
227.273	-0.03
227.657	1.53
228.041	1.22
228.425	-0.58
228.809	2.61
229.193	5.16
229.577	1.99
229.961	2.23
230.344	3.4
230.728	3.57
231.112	2.89
231.495	1.66
231.879	3.12
232.263	2.85
232.646	3.05
233.03	4.22
233.413	3.19
233.797	2.95
234.18	2.76
234.563	4.71
234.946	2.93
235.33	3.08
235.713	2.08
236.096	3.07
236.479	4.13
236.862	3.16
237.245	4.6
237.628	4.2
238.011	3.88
238.394	1.45
238.777	3.31
239.16	4.74
239.543	4.22
239.925	4.61
240.308	2.52
240.691	3.55
241.073	3.25
241.456	3.17
241.838	4.08
242.221	3.55
242.603	3.92
242.986	3.32
243.368	3.39
243.75	3.59
244.133	3.68
244.515	3.1
244.897	3.4
245.279	3.35
245.661	3.52
246.043	3.78
246.425	3.81
246.807	3.72
247.189	3.66
247.571	3.7
247.953	3.48
248.335	3.39
248.717	3.29
249.098	3.43
249.48	3.18
249.862	3.54
250.243	3.43
250.625	3.66
251.006	4.19
251.388	4
251.769	2.44
252.151	3.49
252.532	3.29
252.913	3.29
253.295	3.7
253.676	3.48
254.057	3.29
254.438	3.09
254.819	3.31
255.2	3.64
255.581	4.04
255.962	4.86
256.343	4.7
256.724	3.09
257.105	2.85
257.486	2.13
257.867	3.21
258.247	2.98
258.628	2.86
259.009	2.88
259.389	2.41
259.77	3.06
260.15	4.09
260.531	3.3
260.911	3.19
261.292	3.28
261.672	3.13
262.052	3.37
262.432	3.2
262.813	3.33
263.193	3.39
263.573	3.07
263.953	2.63
264.333	3.38
264.713	4.11
265.093	3.58
265.473	2.68
265.853	3.46
266.233	3.73
266.612	2.4
266.992	2.6
267.372	3.83
267.752	3.75
268.131	3.51
268.511	3.26
268.89	3.76
269.27	3.05
269.649	2.73
270.029	3.35
270.408	3.66
270.787	3.49
271.167	3.4
271.546	3.49
271.925	3.23
272.304	3.04
272.683	2.68
273.062	2.97
273.441	2.77
273.82	2.73
274.199	2.84
274.578	3.05
274.957	3.03
275.336	3.22
275.715	3.3
276.093	3.18
276.472	2.98
276.851	2.86
277.229	2.98
277.608	2.7
277.986	3.25
278.365	3
278.743	3.07
279.122	3.24
279.5	2.92
279.878	2.51
280.257	3.17
280.635	3.18
281.013	2.92
281.391	2.61
281.769	3.61
282.147	2.95
282.525	2.82
282.903	2.68
283.281	3.56
283.659	3.14
284.037	2.88
284.415	2.51
284.792	2.87
285.17	2.72
285.548	2.68
285.925	3.05
286.303	3.67
286.68	3
287.058	2.94
287.435	3.04
287.813	2.96
288.19	2.82
288.567	2.85
288.945	2.84
289.322	3.05
289.699	2.91
290.076	2.66
290.453	2.85
290.83	3.24
291.207	3
291.584	3.61
291.961	3.01
292.338	3.1
292.715	2.91
293.092	3.47
293.469	3.34
293.845	3.11
294.222	3.73
294.599	3.15
294.975	3.06
295.352	2.83
295.728	3.16
296.105	3.06
296.481	3.44
296.858	3.5
297.234	2.7
297.61	3.32
297.986	3.58
298.363	3.33
298.739	3.56
299.115	3.38
299.491	3.49
299.867	3.27
300.243	3.09
300.619	3.05
300.995	3.31
301.371	4.24
301.746	3.81
302.122	2.88
302.498	3.26
302.874	3.71
303.249	3.35
303.625	2.99
304	3.9
304.376	3.87
304.751	3.32
305.127	3.8
305.502	3.91
305.878	3.62
306.253	2.97
306.628	4.11
307.003	3.38
307.378	3.34
307.754	4.05
308.129	3.59
308.504	3.56
308.879	3.49
309.254	4.26
309.629	3.8
310.003	3.53
310.378	4.29
310.753	3.49
311.128	3.54
311.502	3.81
311.877	4
312.252	3.94
312.626	4.11
313.001	4.02
313.375	4.06
313.75	4.3
314.124	4.01
314.498	4.14
314.873	3.67
315.247	3.95
315.621	4.59
315.995	3.89
316.369	3.73
316.743	3.84
317.117	3.97
317.491	4.31
317.865	3.97
318.239	4.39
318.613	3.84
318.987	3.31
319.361	3.86
319.734	4.4
320.108	3.82
320.482	4.25
320.855	4.24
321.229	3.8
321.602	4.41
321.976	3.54
322.349	4.5
322.723	4.15
323.096	3.96
323.469	4.23
323.843	3.98
324.216	4.23
324.589	4.34
324.962	3.94
325.335	3.93
325.708	4.29
326.081	3.9
326.454	4.37
326.827	4.19
327.2	3.6
327.573	4.19
327.945	4.02
328.318	3.93
328.691	4.47
329.063	3.78
329.436	3.85
329.809	4.34
330.181	5.02
330.553	4.37
330.926	4.21
331.298	4.07
331.671	4.49
332.043	4.58
332.415	3.7
332.787	4.41
333.159	3.99
333.532	4.02
333.904	4.56
334.276	4.49
334.648	4.31
335.02	4.1
335.391	3.94
335.763	4.31
336.135	4.59
336.507	4.41
336.879	4.45
337.25	4.14
337.622	4.33
337.993	4.33
338.365	4.43
338.736	4.39
339.108	4.25
339.479	4.15
339.851	4.25
340.222	4.49
340.593	4.22
340.964	4.47
341.336	3.89
341.707	3.94
342.078	4.06
342.449	4.29
342.82	4.29
343.191	4.23
343.562	4.39
343.933	4.13
344.303	4.63
344.674	4.43
345.045	4.39
345.416	4.32
345.786	4.47
346.157	3.98
346.527	4
346.898	3.87
347.268	4.39
347.639	4.49
348.009	4.23
348.38	4.39
348.75	4.66
349.12	4.32
349.49	4.3
349.861	4.24
350.231	4.24
350.601	4.26
350.971	3.69
351.341	4.53
351.711	4.28
352.081	3.94
352.45	4.02
352.82	3.79
353.19	4.18
353.56	4.19
353.929	3.88
354.299	3.78
354.669	4.47
355.038	4.53
355.408	4.33
355.777	4.42
356.147	4.5
356.516	4.06
356.885	4.26
357.254	4.11
357.624	3.95
357.993	4.34
358.362	4.24
358.731	4.48
359.1	4.22
359.469	4.06
359.838	4.27
360.207	4.33
360.576	4.4
360.945	4.22
361.314	4.23
361.682	3.91
362.051	4.32
362.42	4.1
362.788	4.27
363.157	4.22
363.525	4.09
363.894	4.13
364.262	4.31
364.631	4.4
364.999	4.18
365.367	4.18
365.735	4.07
366.104	4.25
366.472	4.16
366.84	4.39
367.208	4.63
367.576	4.13
367.944	4.46
368.312	4.16
368.68	4.55
369.048	4.27
369.416	4.12
369.783	4.44
370.151	4.43
370.519	4.66
370.886	4.63
371.254	4.38
371.621	4.56
371.989	4.49
372.356	4.6
372.724	4.11
373.091	4.05
373.458	4.5
373.826	4.27
374.193	4.56
374.56	4.49
374.927	4.26
375.294	4.54
375.661	4.47
376.028	4.09
376.395	4.37
376.762	4.46
377.129	4.29
377.496	4.46
377.863	4.28
378.229	4.75
378.596	4.55
378.963	4.54
379.329	4.34
379.696	4.32
380.062	4.42
380.429	4.11
380.795	4.57
381.161	4.23
381.528	3.99
381.894	4.34
382.26	4.63
382.626	4.52
382.993	4.61
383.359	4.16
383.725	4.32
384.091	4.57
384.457	4.49
384.823	4.65
385.188	4.42
385.554	4.66
385.92	4.47
386.286	4.48
386.651	4.16
387.017	4.6
387.383	4.45
387.748	4.85
388.114	4.72
388.479	4.34
388.845	4.36
389.21	4.57
389.575	4.85
389.94	4.7
390.306	4.36
390.671	4.52
391.036	4.41
391.401	4.41
391.766	4.71
392.131	4.62
392.496	4.51
392.861	4.32
393.226	4.37
393.591	4.48
393.956	4.54
394.32	4.6
394.685	4.53
395.05	4.59
395.414	4.42
395.779	4.56
396.143	4.2
396.508	4.39
396.872	4.35
397.236	4.67
397.601	4.43
397.965	4.65
398.329	4.57
398.694	4.3
399.058	4.57
399.422	4.33
399.786	4.42
400.15	4.41
400.514	4.54
400.878	4.8
401.242	4.65
401.605	4.45
401.969	4.48
402.333	4.36
402.697	4.84
403.06	4.5
403.424	4.5
403.787	4.5
404.151	4.64
404.514	4.64
404.878	4.33
405.241	4.59
405.604	4.43
405.968	4.46
406.331	4.6
406.694	4.57
407.057	4.58
407.42	4.63
407.783	4.66
408.146	4.33
408.509	4.62
408.872	4.49
409.235	4.67
409.598	4.3
409.961	4.64
410.323	4.62
410.686	4.65
411.049	4.67
411.411	4.38
411.774	4.53
412.136	4.5
412.499	4.93
412.861	4.32
413.223	4.45
413.586	4.51
413.948	4.67
414.31	4.74
414.672	4.77
415.035	4.8
415.397	4.59
415.759	4.47
416.121	4.71
416.483	4.5
416.845	4.67
417.206	4.57
417.568	4.42
417.93	4.77
418.292	4.55
418.653	4.45
419.015	4.52
419.377	4.53
419.738	4.56
420.1	4.53
420.461	4.39
420.822	4.61
421.184	4.62
421.545	4.53
421.906	4.4
422.267	4.43
422.629	4.43
422.99	4.45
423.351	4.56
423.712	4.58
424.073	4.65
424.434	4.66
424.795	4.43
425.155	4.48
425.516	4.54
425.877	4.57
426.238	4.5
426.598	4.57
426.959	4.63
427.32	4.54
427.68	4.6
428.041	4.68
428.401	4.56
428.761	4.71
429.122	4.68
429.482	4.61
429.842	4.68
430.202	4.8
430.563	4.72
430.923	4.54
431.283	4.84
431.643	5.01
432.003	4.76
432.363	4.89
432.722	4.84
433.082	4.71
433.442	4.76
433.802	4.63
434.161	4.72
434.521	4.7
434.881	4.65
435.24	4.76
435.6	4.68
435.959	4.66
436.319	4.84
436.678	4.78
437.037	4.78
437.396	4.84
437.756	4.66
438.115	4.74
438.474	4.7
438.833	4.73
439.192	4.78
439.551	4.79
439.91	4.75
440.269	4.76
440.628	4.74
440.987	4.9
441.345	4.69
441.704	4.73
442.063	4.68
442.421	4.69
442.78	4.72
443.138	4.69
443.497	4.72
443.855	4.91
444.214	4.75
444.572	4.94
444.93	4.83
445.288	4.71
445.647	4.83
446.005	4.8
446.363	4.8
446.721	4.73
447.079	4.59
447.437	4.78
447.795	4.75
448.153	4.74
448.51	4.8
448.868	4.75
449.226	4.79
449.584	4.76
449.941	4.88
450.299	4.82
450.656	4.82
451.014	4.84
451.371	4.86
451.729	4.89
452.086	4.94
452.443	4.99
452.801	4.99
453.158	5.01
453.515	4.86
453.872	4.97
454.229	4.72
454.586	4.81
454.943	4.88
455.3	5.01
455.657	4.89
456.014	5
456.371	4.98
456.727	5.05
457.084	5.15
457.441	4.97
457.797	5.11
458.154	4.98
458.51	4.92
458.867	4.99
459.223	4.81
459.58	4.81
459.936	4.86
460.292	4.93
460.648	4.82
461.005	4.81
461.361	4.86
461.717	4.84
462.073	4.92
462.429	4.98
462.785	5.14
463.141	5
463.496	5.04
463.852	5.07
464.208	4.95
464.564	5.07
464.919	5.05
465.275	4.99
465.631	5.19
465.986	5.17
466.342	4.9
466.697	5.05
467.052	5.14
467.408	5.2
467.763	4.98
468.118	4.78
468.473	5.11
468.829	4.99
469.184	5.23
469.539	4.83
469.894	5.16
470.249	5.24
470.603	5
470.958	5.22
471.313	5.2
471.668	5.15
472.023	5.15
472.377	5.16
472.732	5.19
473.086	4.99
473.441	5.04
473.795	5.28
474.15	5.04
474.504	5.07
474.859	4.91
475.213	5.17
475.567	5
475.921	5.16
476.275	5.15
476.63	5.24
476.984	5.06
477.338	5.28
477.692	5.19
478.045	5.09
478.399	5.14
478.753	5.09
479.107	5.23
479.461	5.14
479.814	5.11
480.168	5.17
480.521	5.24
480.875	5.19
481.228	5.22
481.582	5.1
481.935	5.34
482.289	5.19
482.642	5.26
482.995	5.06
483.348	5.05
483.701	5.08
484.055	5.1
484.408	5.05
484.761	4.97
485.114	4.81
485.466	4.78
485.819	4.81
486.172	4.9
486.525	4.99
486.878	5.07
487.23	5.16
487.583	5.19
487.936	5.07
488.288	5.03
488.641	4.95
488.993	4.93
489.345	4.96
489.698	4.98
490.05	5.06
490.402	5.1
490.754	5.11
491.107	5.17
491.459	5.26
491.811	5.24
492.163	5.19
492.515	5.13
492.866	5.03
493.218	5.01
493.57	5.14
493.922	5.12
494.274	5.26
494.625	5.32
494.977	5.33
495.328	5.43
495.68	5.31
496.031	5.35
496.383	5.32
496.734	5.32
497.086	5.45
497.437	5.45
497.788	5.43
498.139	5.32
498.49	5.39
498.842	5.43
499.193	5.36
499.544	5.39
499.894	5.36
500.245	5.47
500.596	5.52
500.947	5.46
501.298	5.47
501.648	5.52
501.999	5.55
502.35	5.4
502.7	5.61
503.051	5.46
503.401	5.47
503.752	5.53
504.102	5.37
504.452	5.47
504.803	5.5
505.153	5.53
505.503	5.52
505.853	5.53
506.203	5.53
506.553	5.45
506.903	5.51
507.253	5.61
507.603	5.54
507.953	5.53
508.303	5.56
508.652	5.4
509.002	5.58
509.352	5.54
509.701	5.41
510.051	5.57
510.4	5.49
510.75	5.44
511.099	5.5
511.449	5.67
511.798	5.5
512.147	5.51
512.496	5.63
512.846	5.53
513.195	5.53
513.544	5.66
513.893	5.6
514.242	5.66
514.591	5.52
514.939	5.66
515.288	5.84
515.637	5.7
515.986	5.71
516.334	5.71
516.683	5.68
517.032	5.77
517.38	5.61
517.729	5.61
518.077	5.74
518.426	5.7
518.774	5.61
519.122	5.65
519.47	5.65
519.819	5.65
520.167	5.67
520.515	5.67
520.863	5.63
521.211	5.69
521.559	5.63
521.907	5.89
522.255	5.72
522.602	5.79
522.95	5.73
523.298	5.86
523.645	5.88
523.993	5.76
524.341	5.86
524.688	5.82
525.036	5.8
525.383	5.78
525.73	5.74
526.078	5.86
526.425	5.87
526.772	5.81
527.119	5.71
527.466	5.76
527.814	5.74
528.161	5.87
528.508	5.91
528.854	5.89
529.201	5.74
529.548	5.72
529.895	5.59
530.242	5.58
530.588	5.62
530.935	5.72
531.282	5.71
531.628	5.84
531.975	5.9
532.321	5.91
532.667	5.93
533.014	6.06
533.36	6.05
533.706	5.84
534.052	6.02
534.399	5.87
534.745	5.85
535.091	5.78
535.437	5.91
535.783	5.99
536.129	5.99
536.474	6.08
536.82	6.21
537.166	6.06
537.512	6.01
537.857	5.98
538.203	5.98
538.549	6.04
538.894	6.08
539.239	6.13
539.585	6.22
539.93	6.18
540.276	6.2
540.621	6.36
540.966	6.27
541.311	6.38
541.656	6.18
542.001	6.17
542.346	6.08
542.691	6
543.036	5.98
543.381	5.98
543.726	6.16
544.071	6.2
544.415	6.23
544.76	6.24
545.105	6.23
545.449	6.33
545.794	6.38
546.138	6.38
546.483	6.41
546.827	6.37
547.171	6.41
547.516	6.41
547.86	6.39
548.204	6.5
548.548	6.4
548.892	6.44
549.236	6.47
549.58	6.56
549.924	6.75
550.268	6.65
550.612	6.68
550.956	6.68
551.3	6.8
551.643	6.71
551.987	6.75
552.33	6.9
552.674	6.71
553.017	6.67
553.361	6.81
553.704	6.7
554.048	6.59
554.391	6.68
554.734	6.63
555.077	6.76
555.42	6.65
555.764	6.77
556.107	6.97
556.45	6.92
556.793	7.12
557.135	6.86
557.478	6.92
557.821	7.01
558.164	6.86
558.507	6.91
558.849	7.11
559.192	6.82
559.534	6.76
559.877	6.85
560.219	6.98
560.562	7.03
560.904	7.05
561.246	6.92
561.589	7.44
561.931	7.11
562.273	7
562.615	6.97
562.957	7.03
563.299	7.09
563.641	7.19
563.983	7.03
564.325	7.06
564.667	7.19
565.008	7.1
565.35	6.91
565.692	7.11
566.033	7.21
566.375	7.21
566.716	7.13
567.058	7.16
567.399	7.23
567.741	7.14
568.082	7.16
568.423	7.1
568.764	7.27
569.105	7.35
569.447	7.28
569.788	7.29
570.129	7.4
570.47	7.4
570.811	7.33
571.151	7.47
571.492	7.37
571.833	7.24
572.174	7.48
572.514	7.51
572.855	7.57
573.195	7.38
573.536	7.59
573.876	7.51
574.217	7.5
574.557	7.46
574.898	7.38
575.238	7.8
575.578	7.71
575.918	7.58
576.258	7.88
576.598	7.44
576.938	7.62
577.278	7.75
577.618	7.68
577.958	7.84
578.298	7.7
578.638	7.75
578.977	7.74
579.317	7.89
579.657	7.91
579.996	7.9
580.336	7.79
580.675	7.74
581.014	8.12
581.354	7.68
581.693	7.97
582.032	8.12
582.372	8.14
582.711	8.17
583.05	7.9
583.389	7.95
583.728	8.06
584.067	8.09
584.406	8.24
584.745	7.9
585.083	8.13
585.422	8.05
585.761	8.15
586.1	8.08
586.438	8.03
586.777	8.17
587.115	8.35
587.454	8.03
587.792	8.15
588.13	8.18
588.469	8.33
588.807	8.35
589.145	8.42
589.483	8.21
589.821	8.3
590.159	8.56
590.497	8.35
590.835	8.52
591.173	8.51
591.511	8.52
591.849	8.48
592.187	8.38
592.524	8.67
592.862	8.53
593.2	8.49
593.537	8.67
593.875	8.52
594.212	8.65
594.55	8.5
594.887	8.65
595.224	8.71
595.561	8.53
595.899	8.78
596.236	8.6
596.573	8.71
596.91	8.77
597.247	8.84
597.584	8.84
597.921	8.57
598.258	8.81
598.594	8.73
598.931	8.54
599.268	8.7
599.604	8.88
599.941	8.91
600.277	8.98
600.614	8.85
600.95	8.83
601.287	8.8
601.623	8.73
601.959	9.35
602.296	9.04
602.632	9.09
602.968	8.98
603.304	9.19
603.64	9.25
603.976	8.93
604.312	9.03
604.648	9.18
604.984	9.15
605.319	9.15
605.655	9.15
605.991	9.11
606.326	9.2
606.662	8.97
606.998	9.3
607.333	9.12
607.668	9.33
608.004	9.26
608.339	9.33
608.674	9.36
609.01	9.62
609.345	9.16
609.68	9.37
610.015	9.65
610.35	9.34
610.685	9.15
611.02	9.07
611.355	9.28
611.689	9.34
612.024	9.53
612.359	9.52
612.694	9.57
613.028	9.53
613.363	9.73
613.697	9.66
614.032	9.75
614.366	9.72
614.7	9.94
615.035	9.67
615.369	9.89
615.703	9.84
616.037	9.68
616.371	9.69
616.705	10.07
617.039	9.96
617.373	10.11
617.707	9.68
618.041	9.65
618.375	9.45
618.709	10
619.042	9.95
619.376	9.94
619.71	9.81
620.043	10.3
620.377	9.8
620.71	9.86
621.043	10.09
621.377	10.21
621.71	10.51
622.043	10.35
622.376	10.34
622.709	10.4
623.043	10.02
623.376	10.09
623.709	10.49
624.041	10.39
624.374	10.25
624.707	10.47
625.04	10.23
625.373	10.37
625.705	10.4
626.038	10.38
626.37	10.38
626.703	10.45
627.035	10.51
627.368	10.85
627.7	10.42
628.032	10.47
628.365	10.71
628.697	10.47
629.029	10.4
629.361	10.86
629.693	10.54
630.025	10.71
630.357	10.85
630.689	10.58
631.021	10.84
631.353	11.06
631.684	10.62
632.016	10.76
632.348	10.62
632.679	11.24
633.011	10.72
633.342	10.63
633.674	10.51
634.005	10.56
634.336	11.14
634.668	10.91
634.999	10.67
635.33	11.1
635.661	10.56
635.992	10.85
636.323	10.79
636.654	11.12
636.985	11.24
637.316	10.65
637.647	11.35
637.977	11.15
638.308	11.47
638.639	11.32
638.969	11.33
639.3	11.37
639.63	11.32
639.961	11.5
640.291	11.39
640.622	11.28
640.952	11.3
641.282	11.16
641.612	11.42
641.943	11.3
642.273	11.27
642.603	11.78
642.933	11.85
643.263	11.84
643.592	11.79
643.922	11.55
644.252	11.67
644.582	11.84
644.911	11.79
645.241	11.3
645.571	11.42
645.9	11.58
646.23	11.96
646.559	11.36
646.888	11.96
647.218	12.07
647.547	11.67
647.876	11.75
648.205	11.58
648.534	11.9
648.863	11.86
649.192	12
649.521	11.72
649.85	11.96
650.179	12.11
650.508	12.12
650.837	12.23
651.165	11.9
651.494	11.96
651.822	12.08
652.151	11.99
652.479	12.19
652.808	11.97
653.136	11.76
653.465	12.15
653.793	12.04
654.121	12.52
654.449	11.93
654.777	11.9
655.105	12.1
655.433	12.44
655.761	12.41
656.089	12.48
656.417	12.66
656.745	12.87
657.073	12.06
657.4	12.83
657.728	11.94
658.056	12.26
658.383	12.45
658.711	12.64
659.038	13.11
659.365	12.67
659.693	12.73
660.02	12.27
660.347	12.57
660.674	12.44
661.001	12.97
661.329	12.5
661.656	12.86
661.982	12.53
662.309	12.72
662.636	12.64
662.963	12.85
663.29	12.49
663.616	13.09
663.943	12.66
664.27	12.91
664.596	13.01
664.923	13.04
665.249	12.68
665.576	13.06
665.902	12.46
666.228	12.39
666.554	13.3
666.881	12.63
667.207	13.03
667.533	13.47
667.859	13.15
668.185	13.07
668.511	13.57
668.837	13.4
669.162	13.13
669.488	12.38
669.814	13.13
670.139	12.85
670.465	13.81
670.791	13.2
671.116	13.38
671.442	13.12
671.767	14.13
672.092	13.23
672.418	13.52
672.743	13.65
673.068	13.14
673.393	13.81
673.718	13.45
674.043	13.19
674.368	13.67
674.693	13.86
675.018	14
675.343	14.02
675.667	13.34
675.992	13.81
676.317	13.2
676.641	13.72
676.966	13.87
677.29	13.38
677.615	13.7
677.939	14.51
678.264	14.31
678.588	14.4
678.912	13.51
679.236	14.07
679.56	13.09
679.885	13.71
680.209	14.25
680.532	14.2
680.856	14.14
681.18	14.42
681.504	14.5
681.828	14.4
682.152	13.7
682.475	13.95
682.799	13.83
683.122	14.46
683.446	13.73
683.769	13.67
684.093	14.24
684.416	14.1
684.739	14.17
685.062	14.58
685.386	14.44
685.709	14.62
686.032	14.59
686.355	14.49
686.678	14.95
687.001	14.17
687.324	14.86
687.646	14.42
687.969	14.3
688.292	14.91
688.614	14.5
688.937	14.23
689.26	14.88
689.582	14.64
689.904	15.3
690.227	14.97
690.549	15.43
690.871	15.33
691.194	15.25
691.516	14.37
691.838	14.19
692.16	14.41
692.482	14.5
692.804	15.22
693.126	14.38
693.448	14.93
693.769	14.38
694.091	15.44
694.413	14.28
694.735	14.59
695.056	14.47
695.378	15.66
695.699	15.34
696.021	15.98
696.342	14.91
696.663	15.6
696.984	14.77
697.306	14.45
697.627	16.24
697.948	14.83
698.269	15.36
698.59	15.41
698.911	15.14
699.232	15.81
699.553	15.52
699.873	15.56
700.194	15.37
700.515	15.42
700.835	15.33
701.156	16.37
701.477	15.76
701.797	15.47
702.117	15.19
702.438	15.65
702.758	15.42
703.078	16.01
703.398	14.99
703.719	15.7
704.039	16.57
704.359	16.18
704.679	15.36
704.999	16.6
705.319	15.38
705.638	16.06
705.958	15.99
706.278	15.95
706.597	15.65
706.917	16.51
707.237	15.87
707.556	16.63
707.876	17.08
708.195	16.92
708.514	16.64
708.834	15.89
709.153	15.9
709.472	17.14
709.791	16.23
710.11	16.41
710.429	16
710.748	16.53
711.067	16.46
711.386	17.24
711.705	16.17
712.023	17.04
712.342	16.39
712.661	16.52
712.979	16.94
713.298	15.79
713.616	16.52
713.935	16.16
714.253	16.75
714.572	16.16
714.89	16.99
715.208	16.41
715.526	16.46
715.844	16.51
716.162	17.3
716.48	16.12
716.798	17.35
717.116	16.89
717.434	16.41
717.752	17.01
718.069	17.44
718.387	15.87
718.705	16.75
719.022	17.53
719.34	15.93
719.657	16.91
719.975	16.69
720.292	15.88
720.609	16.28
720.927	18.04
721.244	17.58
721.561	17.03
721.878	17.77
722.195	18.51
722.512	18.35
722.829	16.84
723.146	16.55
723.463	17.36
723.779	16.12
724.096	17.14
724.413	18.28
724.729	18.12
725.046	17.27
725.362	17.62
725.679	17.07
725.995	17.57
726.311	17.57
726.628	18.56
726.944	18.03
727.26	17.69
727.576	17.54
727.892	15.95
728.208	17.99
728.524	16.31
728.84	17.68
729.156	17.14
729.472	17.71
729.787	16.79
730.103	17.55
730.419	16.88
730.734	17.37
731.05	18.16
731.365	18.53
731.681	18.74
731.996	18.26
732.311	17.04
732.626	19.02
732.942	17.48
733.257	17.15
733.572	16.93
733.887	20.03
734.202	18.41
734.517	17.73
734.832	18.48
735.146	18.45
735.461	18.56
735.776	18.85
736.091	20.53
736.405	17.01
736.72	17.33
737.034	17.07
737.349	19.55
737.663	18.65
737.977	20.05
738.292	17.48
738.606	18.99
738.92	18.66
739.234	18.43
739.548	18.28
739.862	18.22
740.176	17.57
740.49	17.98
740.804	18.5
741.117	18.17
741.431	18.33
741.745	17.18
742.058	16.96
742.372	18.21
742.685	19.59
742.999	18.54
743.312	19.77
743.626	19.47
743.939	17.43
744.252	20.28
744.565	20.39
744.878	18.61
745.191	19.8
745.505	16.98
745.817	19.15
746.13	19.72
746.443	19.06
746.756	18.47
747.069	20.31
747.381	18.16
747.694	20
748.007	19.23
748.319	20.15
748.632	18.41
748.944	18.61
749.256	19.07
749.569	18.87
749.881	18.3
750.193	18.29
750.505	19.73
750.817	20.2
751.129	18.71
751.441	19.65
751.753	20.48
752.065	18.43
752.377	20.32
752.689	18.85
753	20.61
753.312	20.41
753.624	17.35
753.935	17.65
754.247	18
754.558	18.91
754.869	21.01
755.181	20.21
755.492	19.07
755.803	19.6
756.114	18.98
756.425	18.9
756.736	20.39
757.047	19.09
757.358	20.6
757.669	19.56
757.98	19
758.291	20.87
758.601	19.94
758.912	19.61
759.223	20.06
759.533	20
759.844	19.42
760.154	20.38
760.464	20.02
760.775	20.28
761.085	20.36
761.395	18.77
761.705	20.84
762.016	20.25
762.326	21.87
762.636	19.56
762.945	20.31
763.255	21.33
763.565	21.5
763.875	20.83
764.185	22.2
764.494	19.7
764.804	18.79
765.113	20.85
765.423	19.85
765.732	21.13
766.042	21.35
766.351	21.01
766.66	21.92
766.97	20.32
767.279	21.6
767.588	19.86
767.897	20.35
768.206	20.79
768.515	21.68
768.824	19.66
769.133	19.9
769.441	19.98
769.75	20.05
770.059	21.73
770.367	22.79
770.676	18.79
770.984	19.2
771.293	20.32
771.601	20.66
771.91	19.33
772.218	20.21
772.526	19.41
772.834	18.73
773.142	20.44
773.45	19.83
773.758	21.45
774.066	23.39
774.374	23.07
774.682	19.58
774.99	20.48
775.298	20.21
775.605	18.04
775.913	17.51
776.22	20.13
776.528	20.11
776.835	23.31
777.143	23.75
777.45	18.66
777.757	21.16
778.065	21.53
778.372	18.3
778.679	25.32
778.986	21.15
779.293	18.62
779.6	21.55
779.907	20.89
780.214	23.28
780.52	22.06
780.827	19.12
781.134	20.04
781.44	25.39
781.747	21.91
782.053	20.87
782.36	21.87
782.666	22.29
782.973	17.17
783.279	22.04
783.585	24.45
783.891	23.66
784.197	21.81
784.503	21.05
784.809	25.27
785.115	26.01
785.421	25.77
785.727	22.37
786.033	23.54
786.339	23.95
786.644	20.69
786.95	22.29
787.255	17.72
787.561	20.41
787.866	20.71
788.172	22.46
788.477	23.15
788.782	20.44
789.088	17.91
789.393	26.09
789.698	18.55
790.003	20.63
790.308	21.4
790.613	20.35
790.918	23.59
791.223	23.71
791.527	24
791.832	25.3
792.137	25.7
792.441	23.06
792.746	26.26
793.05	21.21
793.355	24.48
793.659	22.43
793.963	19.67
794.268	21.21
794.572	23.48
794.876	20.98
795.18	24.19
795.484	20.36
795.788	22.64
796.092	20.98
796.396	20.77
796.7	19.51
797.004	21.82
797.307	21.81
797.611	23.69
797.915	22.8
798.218	25.32
798.522	19.36
798.825	25.72
799.128	25.56
799.432	19.24
799.735	24.03
800.038	21.78
800.341	22.33
800.644	18.96
800.947	20.45
801.25	24.47
801.553	23.45
801.856	25.61
802.159	23.32
802.462	22.95
802.764	27.97
803.067	22.97
803.37	19.62
803.672	17.38
803.975	21.15
804.277	22.14
804.579	24.26
804.882	22.83
805.184	21.57
805.486	24.07
805.788	23.92
806.09	20.58
806.392	25.55
806.694	23.06
806.996	25.52
807.298	19.47
807.6	26.41
807.902	22.66
808.203	20.88
808.505	20.08
808.807	28.07
809.108	23.66
809.409	29.83
809.711	25.58
810.012	23.4
810.313	27.76
810.615	25.52
810.916	26.61
811.217	24.35
811.518	19.95
811.819	29.85
812.12	29.3
812.421	23.15
812.722	25.14
813.023	29.63
813.323	18.91
813.624	28.83
813.925	27.55
814.225	25.26
814.526	16.63
814.826	25.93
815.126	20.07
815.427	23.46
815.727	26.41
816.027	27.27
816.327	27.21
816.627	21.28
816.927	17.51
817.227	19.26
817.527	24.66
817.827	26.55
818.127	17.36
818.427	19.2
818.727	22.45
819.026	23.92
819.326	26.44
819.625	23.61
819.925	24.59
820.224	28.79
820.524	19.1
820.823	25.56
821.122	14.93
821.421	21.58
821.72	18.87
822.019	20.62
822.318	27.23
822.617	28.03
822.916	23.42
823.215	24.56
823.514	25.19
823.813	24.88
824.111	24.18
824.41	24.51
824.709	25.68
825.007	25.39
825.306	25.88
825.604	24.88
825.902	25.68
826.201	25.48
826.499	25.63
826.797	25.4
827.095	26.62
827.393	26.1
827.691	27.61
827.989	24.92
828.287	27.45
828.585	24.4
828.882	23.78
829.18	24.51
829.478	28.29
829.775	26.83
830.073	25.78
830.37	27.21
830.668	24.63
830.965	26.35
831.263	26.54
831.56	26.86
831.857	27.24
832.154	27.27
832.451	27.36
832.748	23.81
833.045	23.84
833.342	29.08
833.639	23.58
833.936	22.6
834.232	24.57
834.529	26.12
834.826	27.35
835.122	19.48
835.419	27.77
835.715	27.01
836.012	25.35
836.308	29.62
836.604	25.43
836.901	25.76
837.197	26.81
837.493	30.48
837.789	28.33
838.085	22
838.381	25.98
838.677	29.29
838.972	24.42
839.268	22.08
839.564	28.36
839.86	29.11
840.155	27.93
840.451	32.27
840.746	21.98
841.042	22
841.337	25.52
841.632	26.01
841.928	27.48
842.223	21
842.518	27.04
842.813	24.02
843.108	26.69
843.403	25.18
843.698	22.79
843.993	36.92
844.287	26.88
844.582	23.81
844.877	29.99
845.171	32.25
845.466	20.96
845.761	26.28
846.055	37.21
846.349	27.12
846.644	28.21
846.938	22.96
847.232	18.91
847.526	33.74
847.82	23.49
848.114	12.11
848.408	9.89
848.702	20.17
848.996	29.1
849.29	37.56
849.584	21.6
849.877	20.5
850.171	18.86
850.465	21.09
850.758	26.57
851.052	20.62
851.345	32.03
851.638	42.41
851.932	17.8
852.225	36.35
852.518	35.36
852.811	4.13
853.104	33.71
853.397	38.18
853.69	23.71
853.983	29.01
854.276	27.34
854.569	15.23
854.861	20.36
855.154	21.36
855.447	48.87
855.739	11.02
856.032	36.91
856.324	40.6
856.616	28.47
856.909	43.51
857.201	18.16
857.493	8.64
857.785	21.99
858.077	16.37
858.369	25.15
858.661	31.63
858.953	31.42
859.245	25.58
859.537	30.24
859.829	13.41
860.12	35.74
860.412	30.17
860.703	20.7
860.995	33.4
861.286	10.52
861.578	32.62
861.869	23.78
862.16	28.26
862.452	-3.97
862.743	11.52
863.034	21.84
863.325	27.05
863.616	18.48
863.907	40.12
864.198	20.22
864.488	29.47
864.779	23.37
865.07	23.87
865.36	50.97
865.651	45.34
865.941	27.25
866.232	46.38
866.522	12.54
866.813	7.86
867.103	6.95
867.393	20.09
867.683	31.99
867.973	15.42
868.263	23.49
868.553	34.36
868.843	12.01
869.133	18.86
869.423	37.14
869.713	22
870.002	19.57
870.292	18.58
870.582	21.23
870.871	14.59
871.161	23.79
871.45	26.64
871.739	39.18
872.029	18.32
872.318	22.76
872.607	45.91
872.896	8.64
873.185	26.35
873.474	14.78
873.763	46.23
874.052	57.06
874.341	31.76
874.63	12.76
874.918	38.1
875.207	27.57
875.496	36.6
875.784	28.54
876.073	27.96
876.361	41.84
876.649	37.65
876.938	14.89
877.226	23.28
877.514	35.47
877.802	32.75
878.09	36.93
878.378	9.24
878.666	44.44
878.954	24.09
879.242	53.63
879.53	23.29
879.817	-0.76
880.105	33.24
880.392	37.77
880.68	27.5
880.967	26.96
881.255	34.07
881.542	3.16
881.83	45.97
882.117	29.16
882.404	22.93
882.691	25.19
882.978	31.51
883.265	33.73
883.552	31.78
883.839	29.28
884.126	33.81
884.413	27.54
884.699	30.95
884.986	32.86
885.273	31.52
885.559	31.52
885.846	31.52
