Data from 0035_chest_Reflection__4__19.txt Node

Date: Fri Nov 04 14:47:15 CDT 2022
User: ToomeyLab
Spectrometer: FLMS14357
Trigger mode: 0
Integration Time (sec): 1.000000E-2
Scans to average: 100
Electric dark correction enabled: true
Nonlinearity correction enabled: false
Boxcar width: 0
XAxis mode: Wavelengths
Number of Pixels in Spectrum: 2048
>>>>>Begin Spectral Data<<<<<
189.047	107.79
189.435	107.79
189.823	107.79
190.211	337.43
190.599	25.47
190.987	427.96
191.375	209.96
191.763	0.81
192.151	195.58
192.538	19.17
192.926	-58.82
193.314	0.87
193.702	-2.55
194.089	318.87
194.477	17.04
194.864	126.09
195.252	2.19
195.639	110.6
196.027	-10.35
196.414	-43.77
196.801	47.93
197.189	-1010.19
197.576	35.04
197.963	-798.13
198.351	12.28
198.738	3.69
199.125	-13.89
199.512	24.67
199.899	19.75
200.286	12.51
200.673	39
201.06	10.23
201.447	27.5
201.833	24.72
202.22	6.49
202.607	-9.83
202.994	-2.19
203.38	50.35
203.767	48.46
204.154	48.01
204.54	27.41
204.927	7.53
205.313	26.97
205.699	32.38
206.086	41.5
206.472	46.41
206.858	35.35
207.245	53.52
207.631	-15.37
208.017	13.71
208.403	21.88
208.789	18.12
209.175	16.46
209.561	-2.51
209.947	5.34
210.333	42.34
210.719	10.21
211.105	-12.58
211.491	35.15
211.876	12.66
212.262	25.75
212.648	34.64
213.034	16.1
213.419	8.33
213.805	-7.53
214.19	23.63
214.576	-16.29
214.961	-0.3
215.346	0.68
215.732	-1.97
216.117	-1.41
216.502	22.95
216.888	18.55
217.273	20.49
217.658	3.52
218.043	36.55
218.428	6.83
218.813	6.89
219.198	-33.13
219.583	23.19
219.968	1.15
220.353	7.54
220.738	-1.06
221.122	-1.73
221.507	17.15
221.892	13.96
222.276	11.99
222.661	10.98
223.046	10.31
223.43	5.61
223.815	7.5
224.199	-3.23
224.583	-0.12
224.968	6.14
225.352	-0.75
225.736	8.36
226.121	6.17
226.505	10.41
226.889	4.95
227.273	-0.61
227.657	3.47
228.041	6.9
228.425	7.49
228.809	3.33
229.193	4.08
229.577	3.5
229.961	3.62
230.344	3.75
230.728	3.85
231.112	4.66
231.495	3.79
231.879	5.45
232.263	3.85
232.646	5.04
233.03	5.01
233.413	5.36
233.797	5.38
234.18	5.92
234.563	6.9
234.946	4.22
235.33	3.76
235.713	5.08
236.096	4.62
236.479	3.39
236.862	4.01
237.245	5.14
237.628	3.48
238.011	4.66
238.394	4.5
238.777	3.65
239.16	4.06
239.543	5.11
239.925	1.42
240.308	4.01
240.691	2.71
241.073	3.27
241.456	4.58
241.838	2.13
242.221	4.11
242.603	3.05
242.986	4.69
243.368	4.52
243.75	4.6
244.133	4.22
244.515	4.2
244.897	3.97
245.279	4.05
245.661	4.11
246.043	4.24
246.425	4.28
246.807	4.3
247.189	4.53
247.571	4.52
247.953	3.78
248.335	3.84
248.717	3.83
249.098	4.27
249.48	3.91
249.862	4.31
250.243	4.24
250.625	4.59
251.006	4.75
251.388	4.38
251.769	4.33
252.151	4.22
252.532	4.71
252.913	3.59
253.295	4.22
253.676	4.33
254.057	4.2
254.438	4.78
254.819	3.87
255.2	4.46
255.581	4.69
255.962	4.54
256.343	3.33
256.724	4.6
257.105	5.01
257.486	4.73
257.867	3.89
258.247	4.4
258.628	3.57
259.009	3.87
259.389	3.95
259.77	4.26
260.15	3.72
260.531	4.41
260.911	3.82
261.292	3.7
261.672	3.99
262.052	3.73
262.432	4.02
262.813	4.23
263.193	4.13
263.573	3.65
263.953	4.15
264.333	3.68
264.713	3.83
265.093	3.88
265.473	3.52
265.853	3.87
266.233	4.06
266.612	3.32
266.992	4.59
267.372	4.04
267.752	3.58
268.131	3.95
268.511	3.29
268.89	4.01
269.27	3.87
269.649	3.82
270.029	3.75
270.408	4.23
270.787	4.19
271.167	4.29
271.546	3.91
271.925	4.2
272.304	3.19
272.683	3.29
273.062	3.7
273.441	3.44
273.82	3.56
274.199	3.99
274.578	3.86
274.957	3.86
275.336	3.54
275.715	3.74
276.093	4.06
276.472	3.81
276.851	4.35
277.229	3.16
277.608	3.23
277.986	3.69
278.365	4.15
278.743	3.61
279.122	3.54
279.5	2.96
279.878	4.05
280.257	3.55
280.635	3.77
281.013	3.04
281.391	3.71
281.769	3.6
282.147	3.15
282.525	3.67
282.903	3.6
283.281	4.1
283.659	4.07
284.037	3.79
284.415	3.86
284.792	4.02
285.17	3.54
285.548	3.68
285.925	3.75
286.303	3.89
286.68	3.93
287.058	3.17
287.435	3.45
287.813	3.5
288.19	3.87
288.567	4.03
288.945	3.83
289.322	4.01
289.699	3.76
290.076	3.99
290.453	4.15
290.83	3.8
291.207	3.71
291.584	3.73
291.961	3.62
292.338	4.22
292.715	4.33
293.092	3.09
293.469	4.12
293.845	3.95
294.222	4.13
294.599	3.79
294.975	4.2
295.352	4.19
295.728	4.3
296.105	4.28
296.481	4.07
296.858	4.21
297.234	4.32
297.61	4.34
297.986	4.16
298.363	4.17
298.739	4.06
299.115	4.13
299.491	4.16
299.867	4.17
300.243	3.94
300.619	4
300.995	4.41
301.371	4.05
301.746	3.92
302.122	4.27
302.498	3.96
302.874	4.1
303.249	3.91
303.625	4.09
304	4.48
304.376	4.75
304.751	4.48
305.127	4.26
305.502	4.29
305.878	4.33
306.253	4.27
306.628	5.13
307.003	4.3
307.378	3.94
307.754	4.61
308.129	3.77
308.504	4.05
308.879	3.76
309.254	4.7
309.629	3.99
310.003	4.22
310.378	4.07
310.753	4.66
311.128	4.24
311.502	4.58
311.877	4.16
312.252	4.23
312.626	4.36
313.001	4.39
313.375	4.23
313.75	4.37
314.124	4.55
314.498	3.92
314.873	4.26
315.247	4.12
315.621	3.63
315.995	4.55
316.369	4.68
316.743	3.83
317.117	4.45
317.491	3.85
317.865	4.27
318.239	4.37
318.613	4.58
318.987	5.03
319.361	4.12
319.734	3.72
320.108	4.23
320.482	4.14
320.855	4.85
321.229	4.65
321.602	4.9
321.976	4.74
322.349	4.56
322.723	4.5
323.096	4.36
323.469	4.32
323.843	4.05
324.216	4.56
324.589	4.27
324.962	5.19
325.335	4.29
325.708	4.83
326.081	4.89
326.454	4.68
326.827	4.11
327.2	4.94
327.573	4.68
327.945	4.44
328.318	4.29
328.691	4.77
329.063	4.43
329.436	4.01
329.809	4.18
330.181	4.4
330.553	4.5
330.926	3.92
331.298	4.46
331.671	4.58
332.043	4.73
332.415	4.38
332.787	4.05
333.159	4.39
333.532	4.46
333.904	4.22
334.276	4.19
334.648	4.23
335.02	4.6
335.391	4.71
335.763	4.26
336.135	4.86
336.507	4.39
336.879	4.4
337.25	4.12
337.622	4.56
337.993	4.35
338.365	4.17
338.736	4.55
339.108	4.67
339.479	4.68
339.851	4.65
340.222	4.84
340.593	4.71
340.964	4.64
341.336	4.31
341.707	4.9
342.078	4.75
342.449	4.57
342.82	4.43
343.191	4.29
343.562	4.53
343.933	4.38
344.303	4.7
344.674	4.37
345.045	4.45
345.416	4.96
345.786	4.61
346.157	4.6
346.527	4.93
346.898	4.39
347.268	4.62
347.639	4.41
348.009	4.42
348.38	4.42
348.75	4.69
349.12	4.16
349.49	4.17
349.861	4.76
350.231	4.34
350.601	4.49
350.971	4.62
351.341	4.26
351.711	4.82
352.081	4.29
352.45	4.48
352.82	4.49
353.19	4.29
353.56	4.4
353.929	4.29
354.299	4.71
354.669	4.3
355.038	4.68
355.408	4.73
355.777	4.42
356.147	4.43
356.516	4.74
356.885	4.84
357.254	4.41
357.624	4.68
357.993	4.42
358.362	4.84
358.731	4.69
359.1	4.45
359.469	4.64
359.838	4.64
360.207	4.75
360.576	4.71
360.945	4.38
361.314	4.79
361.682	4.78
362.051	4.3
362.42	4.65
362.788	4.55
363.157	4.54
363.525	4.66
363.894	4.61
364.262	4.42
364.631	4.65
364.999	4.64
365.367	4.15
365.735	4.61
366.104	4.68
366.472	4.37
366.84	4.57
367.208	4.59
367.576	4.63
367.944	4.6
368.312	4.5
368.68	4.61
369.048	4.74
369.416	4.3
369.783	4.59
370.151	4.49
370.519	4.93
370.886	4.59
371.254	4.5
371.621	4.76
371.989	4.5
372.356	4.85
372.724	4.78
373.091	4.83
373.458	4.97
373.826	4.72
374.193	4.66
374.56	4.71
374.927	4.44
375.294	4.77
375.661	4.58
376.028	4.68
376.395	4.62
376.762	4.98
377.129	4.59
377.496	4.45
377.863	4.5
378.229	4.6
378.596	4.85
378.963	4.68
379.329	4.65
379.696	4.57
380.062	4.96
380.429	4.72
380.795	4.83
381.161	4.62
381.528	4.88
381.894	4.89
382.26	4.79
382.626	4.88
382.993	4.91
383.359	4.85
383.725	5.09
384.091	4.86
384.457	4.97
384.823	4.66
385.188	4.47
385.554	4.72
385.92	4.36
386.286	4.59
386.651	5.26
387.017	4.72
387.383	5.25
387.748	4.56
388.114	4.91
388.479	4.85
388.845	4.82
389.21	4.69
389.575	4.74
389.94	4.75
390.306	4.84
390.671	4.87
391.036	4.87
391.401	4.8
391.766	4.63
392.131	4.91
392.496	4.72
392.861	4.87
393.226	4.75
393.591	4.92
393.956	4.83
394.32	4.66
394.685	4.77
395.05	4.52
395.414	4.74
395.779	4.58
396.143	4.76
396.508	4.62
396.872	4.83
397.236	5.19
397.601	4.79
397.965	5.15
398.329	4.67
398.694	4.89
399.058	5.2
399.422	4.9
399.786	5.13
400.15	4.81
400.514	4.97
400.878	4.82
401.242	4.91
401.605	4.86
401.969	4.88
402.333	4.87
402.697	5.1
403.06	4.82
403.424	4.58
403.787	4.76
404.151	4.9
404.514	4.76
404.878	4.88
405.241	5.08
405.604	5.14
405.968	4.85
406.331	5
406.694	4.92
407.057	4.84
407.42	4.91
407.783	4.83
408.146	5
408.509	4.97
408.872	4.9
409.235	5.21
409.598	5.05
409.961	5.02
410.323	4.87
410.686	4.83
411.049	5.05
411.411	4.84
411.774	4.83
412.136	4.88
412.499	5.03
412.861	4.97
413.223	4.91
413.586	4.96
413.948	5.2
414.31	4.93
414.672	5.17
415.035	5.28
415.397	5.27
415.759	5.22
416.121	4.85
416.483	5.01
416.845	4.98
417.206	5.07
417.568	5.1
417.93	5.1
418.292	5.09
418.653	5.04
419.015	5.24
419.377	4.94
419.738	4.84
420.1	4.8
420.461	5.01
420.822	5.08
421.184	5.12
421.545	4.96
421.906	5.04
422.267	4.95
422.629	4.88
422.99	5
423.351	5.04
423.712	5.09
424.073	5.02
424.434	4.98
424.795	5.01
425.155	5.05
425.516	5.07
425.877	5.12
426.238	5.06
426.598	5.01
426.959	4.95
427.32	5.09
427.68	5.17
428.041	5.12
428.401	5.12
428.761	5.13
429.122	5.02
429.482	5.16
429.842	5.37
430.202	5.27
430.563	5.11
430.923	5.17
431.283	5.41
431.643	5.24
432.003	5.28
432.363	5.3
432.722	5.17
433.082	5.34
433.442	5.26
433.802	5.11
434.161	5.18
434.521	5.25
434.881	5.13
435.24	5.23
435.6	5.18
435.959	5.13
436.319	5.29
436.678	5.36
437.037	5.15
437.396	5.38
437.756	5.58
438.115	5.33
438.474	5.32
438.833	5.37
439.192	5.23
439.551	5.36
439.91	5.24
440.269	5.35
440.628	5.24
440.987	5.19
441.345	5.16
441.704	5.34
442.063	5.42
442.421	5.25
442.78	5.26
443.138	5.11
443.497	5.25
443.855	5.42
444.214	5.42
444.572	5.52
444.93	5.43
445.288	5.32
445.647	5.3
446.005	5.36
446.363	5.38
446.721	5.21
447.079	5.31
447.437	5.29
447.795	5.22
448.153	5.26
448.51	5.25
448.868	5.29
449.226	5.29
449.584	5.34
449.941	5.36
450.299	5.41
450.656	5.41
451.014	5.44
451.371	5.53
451.729	5.52
452.086	5.56
452.443	5.59
452.801	5.58
453.158	5.56
453.515	5.57
453.872	5.41
454.229	5.43
454.586	5.56
454.943	5.55
455.3	5.66
455.657	5.49
456.014	5.51
456.371	5.63
456.727	5.5
457.084	5.58
457.441	5.55
457.797	5.61
458.154	5.58
458.51	5.74
458.867	5.59
459.223	5.72
459.58	5.49
459.936	5.6
460.292	5.61
460.648	5.65
461.005	5.6
461.361	5.56
461.717	5.5
462.073	5.55
462.429	5.43
462.785	5.47
463.141	5.47
463.496	5.69
463.852	5.62
464.208	5.63
464.564	5.82
464.919	5.75
465.275	5.48
465.631	5.78
465.986	5.76
466.342	5.8
466.697	5.77
467.052	5.77
467.408	5.71
467.763	5.78
468.118	5.8
468.473	5.77
468.829	5.78
469.184	5.7
469.539	5.81
469.894	5.67
470.249	5.86
470.603	5.81
470.958	5.59
471.313	5.84
471.668	5.74
472.023	5.65
472.377	5.79
472.732	5.86
473.086	5.95
473.441	5.71
473.795	5.67
474.15	5.82
474.504	5.84
474.859	5.72
475.213	5.72
475.567	5.81
475.921	5.95
476.275	6.01
476.63	5.84
476.984	6
477.338	6.01
477.692	5.95
478.045	5.86
478.399	5.68
478.753	5.72
479.107	5.88
479.461	5.85
479.814	6.02
480.168	6.03
480.521	5.87
480.875	6.05
481.228	5.9
481.582	6.05
481.935	5.91
482.289	5.86
482.642	6.03
482.995	5.98
483.348	6.03
483.701	5.88
484.055	5.92
484.408	5.96
484.761	5.91
485.114	5.82
485.466	5.72
485.819	5.69
486.172	5.69
486.525	5.68
486.878	5.72
487.23	5.83
487.583	5.86
487.936	5.87
488.288	5.95
488.641	5.85
488.993	5.89
489.345	5.87
489.698	5.86
490.05	5.87
490.402	5.86
490.754	5.89
491.107	5.94
491.459	5.95
491.811	6.08
492.163	6.19
492.515	6.12
492.866	6.07
493.218	6.04
493.57	5.9
493.922	5.93
494.274	5.97
494.625	6.03
494.977	6.15
495.328	6.16
495.68	6.14
496.031	6.27
496.383	6.23
496.734	6.28
497.086	6.18
497.437	6.36
497.788	6.17
498.139	6.33
498.49	6.27
498.842	6.25
499.193	6.18
499.544	6.27
499.894	6.23
500.245	6.35
500.596	6.34
500.947	6.36
501.298	6.5
501.648	6.34
501.999	6.57
502.35	6.41
502.7	6.44
503.051	6.44
503.401	6.48
503.752	6.47
504.102	6.39
504.452	6.46
504.803	6.37
505.153	6.61
505.503	6.53
505.853	6.5
506.203	6.52
506.553	6.46
506.903	6.54
507.253	6.59
507.603	6.67
507.953	6.7
508.303	6.67
508.652	6.6
509.002	6.57
509.352	6.62
509.701	6.63
510.051	6.49
510.4	6.53
510.75	6.59
511.099	6.55
511.449	6.51
511.798	6.56
512.147	6.73
512.496	6.63
512.846	6.8
513.195	6.63
513.544	6.74
513.893	6.73
514.242	6.74
514.591	6.55
514.939	6.7
515.288	6.67
515.637	6.72
515.986	6.7
516.334	7.03
516.683	6.88
517.032	6.88
517.38	6.92
517.729	6.88
518.077	7
518.426	7.05
518.774	6.95
519.122	6.84
519.47	6.95
519.819	6.93
520.167	6.92
520.515	6.91
520.863	6.94
521.211	6.91
521.559	6.92
521.907	6.87
522.255	6.84
522.602	7.11
522.95	7
523.298	6.97
523.645	7.1
523.993	7.12
524.341	7.17
524.688	7.2
525.036	7.05
525.383	7.32
525.73	7.07
526.078	7.24
526.425	7.14
526.772	7.07
527.119	7.12
527.466	7.13
527.814	7.06
528.161	7.1
528.508	7.14
528.854	7.17
529.201	7.24
529.548	7.14
529.895	7.16
530.242	6.97
530.588	6.98
530.935	7.01
531.282	7.07
531.628	7.04
531.975	7.06
532.321	7.17
532.667	7.21
533.014	7.38
533.36	7.35
533.706	7.43
534.052	7.49
534.399	7.31
534.745	7.31
535.091	7.3
535.437	7.29
535.783	7.33
536.129	7.33
536.474	7.4
536.82	7.36
537.166	7.6
537.512	7.62
537.857	7.64
538.203	7.65
538.549	7.52
538.894	7.61
539.239	7.55
539.585	7.62
539.93	7.66
540.276	7.69
540.621	7.85
540.966	7.87
541.311	7.71
541.656	7.91
542.001	7.77
542.346	7.83
542.691	7.72
543.036	7.64
543.381	7.64
543.726	7.6
544.071	7.61
544.415	7.68
544.76	7.74
545.105	7.85
545.449	7.85
545.794	7.81
546.138	8.04
546.483	8.07
546.827	8.02
547.171	8
547.516	8.17
547.86	8.07
548.204	8.09
548.548	7.94
548.892	7.98
549.236	8.03
549.58	8.19
549.924	8.27
550.268	8.15
550.612	8.13
550.956	8.16
551.3	8.31
551.643	8.31
551.987	8.34
552.33	8.43
552.674	8.51
553.017	8.49
553.361	8.28
553.704	8.3
554.048	8.52
554.391	8.42
554.734	8.61
555.077	8.48
555.42	8.52
555.764	8.5
556.107	8.56
556.45	8.8
556.793	8.6
557.135	8.69
557.478	8.69
557.821	8.76
558.164	8.68
558.507	8.7
558.849	8.77
559.192	8.82
559.534	8.84
559.877	8.93
560.219	8.6
560.562	8.85
560.904	8.73
561.246	8.76
561.589	9.09
561.931	9.01
562.273	9.03
562.615	9.2
562.957	9.07
563.299	9.05
563.641	9
563.983	8.97
564.325	9.21
564.667	9.21
565.008	9.04
565.35	9.25
565.692	9.17
566.033	9.28
566.375	9.14
566.716	9.31
567.058	9.24
567.399	9.22
567.741	9.18
568.082	9.21
568.423	9.26
568.764	9.33
569.105	9.29
569.447	9.26
569.788	9.35
570.129	9.51
570.47	9.48
570.811	9.45
571.151	9.53
571.492	9.56
571.833	9.68
572.174	9.53
572.514	9.72
572.855	9.46
573.195	9.57
573.536	9.64
573.876	9.78
574.217	9.62
574.557	9.74
574.898	9.61
575.238	9.73
575.578	9.73
575.918	9.68
576.258	9.93
576.598	9.87
576.938	9.99
577.278	9.8
577.618	9.94
577.958	9.95
578.298	9.94
578.638	9.95
578.977	9.86
579.317	9.98
579.657	10.1
579.996	10.08
580.336	10.06
580.675	10.14
581.014	10.14
581.354	10.14
581.693	10.13
582.032	10.17
582.372	10.32
582.711	10.31
583.05	10.32
583.389	10.21
583.728	10.51
584.067	10.44
584.406	10.48
584.745	10.46
585.083	10.45
585.422	10.48
585.761	10.43
586.1	10.6
586.438	10.75
586.777	10.45
587.115	10.78
587.454	10.78
587.792	10.8
588.13	11.09
588.469	10.86
588.807	10.85
589.145	10.79
589.483	10.83
589.821	10.93
590.159	10.81
590.497	10.91
590.835	10.99
591.173	10.88
591.511	10.74
591.849	10.91
592.187	10.95
592.524	10.99
592.862	10.81
593.2	10.74
593.537	10.73
593.875	11.11
594.212	11.14
594.55	11.26
594.887	11.08
595.224	11.37
595.561	11.34
595.899	11.22
596.236	11.24
596.573	11.54
596.91	11.46
597.247	11.52
597.584	11.39
597.921	11.4
598.258	11.66
598.594	11.39
598.931	11.36
599.268	11.5
599.604	11.53
599.941	11.5
600.277	11.53
600.614	11.61
600.95	11.54
601.287	11.62
601.623	11.8
601.959	11.81
602.296	11.72
602.632	11.92
602.968	11.93
603.304	11.65
603.64	11.75
603.976	11.98
604.312	11.94
604.648	11.7
604.984	11.9
605.319	11.88
605.655	12
605.991	11.93
606.326	11.99
606.662	11.96
606.998	12.03
607.333	12.15
607.668	12.13
608.004	12.13
608.339	11.93
608.674	12.14
609.01	12.41
609.345	12.38
609.68	12.36
610.015	12.44
610.35	12.54
610.685	12.48
611.02	12.58
611.355	12.45
611.689	12.31
612.024	12.42
612.359	12.7
612.694	12.31
613.028	12.52
613.363	12.83
613.697	12.61
614.032	12.45
614.366	12.55
614.7	12.96
615.035	12.72
615.369	12.9
615.703	12.72
616.037	12.55
616.371	12.9
616.705	13.07
617.039	12.87
617.373	13.03
617.707	13
618.041	13.01
618.375	13.08
618.709	13.37
619.042	13.07
619.376	13.09
619.71	13.12
620.043	13.44
620.377	13.29
620.71	13.33
621.043	12.7
621.377	13.07
621.71	13.27
622.043	13.28
622.376	13.52
622.709	13.55
623.043	13.05
623.376	13.48
623.709	13.61
624.041	13.67
624.374	13.48
624.707	13.23
625.04	14.24
625.373	13.4
625.705	13.21
626.038	13.61
626.37	13.79
626.703	13.69
627.035	13.56
627.368	13.65
627.7	13.78
628.032	13.91
628.365	13.8
628.697	13.78
629.029	13.77
629.361	13.72
629.693	13.71
630.025	13.99
630.357	13.8
630.689	13.92
631.021	14.13
631.353	13.98
631.684	14.33
632.016	14.21
632.348	14.12
632.679	14.07
633.011	14.13
633.342	14.38
633.674	14.51
634.005	14.52
634.336	14.47
634.668	14.3
634.999	14.53
635.33	14.29
635.661	14.08
635.992	14.5
636.323	14.41
636.654	14.77
636.985	14.45
637.316	14.58
637.647	14.69
637.977	14.65
638.308	14.63
638.639	14.75
638.969	14.55
639.3	14.61
639.63	14.68
639.961	14.38
640.291	14.7
640.622	14.6
640.952	14.75
641.282	14.67
641.612	15.12
641.943	14.85
642.273	14.51
642.603	15.07
642.933	15
643.263	15.1
643.592	14.95
643.922	15.3
644.252	14.65
644.582	15.28
644.911	15.16
645.241	15.59
645.571	15.43
645.9	15.4
646.23	15
646.559	14.81
646.888	15.37
647.218	16.01
647.547	15.58
647.876	15.52
648.205	15.13
648.534	15.7
648.863	15.78
649.192	15.38
649.521	15.73
649.85	15.68
650.179	15.85
650.508	15.67
650.837	15.55
651.165	15.37
651.494	15.77
651.822	15.57
652.151	15.6
652.479	15.78
652.808	15.5
653.136	16.08
653.465	16.19
653.793	15.71
654.121	15.61
654.449	16.22
654.777	15.81
655.105	16.29
655.433	16.1
655.761	15.87
656.089	16.28
656.417	16.36
656.745	16.22
657.073	16.33
657.4	15.83
657.728	16.32
658.056	16.26
658.383	16.45
658.711	15.78
659.038	15.95
659.365	16.15
659.693	16.32
660.02	16.83
660.347	16.29
660.674	16.08
661.001	16.17
661.329	16.47
661.656	16.79
661.982	16.55
662.309	16.36
662.636	16.5
662.963	16.98
663.29	16.62
663.616	16.47
663.943	16.5
664.27	17.18
664.596	16.96
664.923	17.06
665.249	16.8
665.576	16.62
665.902	16.44
666.228	16.86
666.554	17.58
666.881	17.65
667.207	16.88
667.533	16.81
667.859	17.39
668.185	16.98
668.511	17.01
668.837	17.22
669.162	17.42
669.488	16.84
669.814	17.09
670.139	17.53
670.465	17.72
670.791	16.99
671.116	17.49
671.442	17.8
671.767	17.44
672.092	17.41
672.418	17.38
672.743	17.67
673.068	17.41
673.393	17.41
673.718	16.93
674.043	17.69
674.368	17.31
674.693	17.83
675.018	17.32
675.343	17
675.667	17.25
675.992	17.76
676.317	17.97
676.641	17.47
676.966	17.5
677.29	17.49
677.615	17.64
677.939	17.97
678.264	17.83
678.588	17.57
678.912	17.85
679.236	18.29
679.56	17.9
679.885	17.41
680.209	17.84
680.532	17.64
680.856	18.18
681.18	18.24
681.504	17.95
681.828	18.1
682.152	18.73
682.475	18.21
682.799	18.21
683.122	18.28
683.446	18.11
683.769	18.36
684.093	17.88
684.416	18.25
684.739	18.66
685.062	18.56
685.386	18.82
685.709	18.43
686.032	18.62
686.355	18.52
686.678	18.23
687.001	18.61
687.324	18.57
687.646	18.53
687.969	18.63
688.292	18.92
688.614	18.95
688.937	18.73
689.26	19.1
689.582	19.03
689.904	18.08
690.227	18.51
690.549	18.44
690.871	17.95
691.194	18.53
691.516	19.3
691.838	19.04
692.16	18.96
692.482	18.74
692.804	19.08
693.126	18.7
693.448	19.04
693.769	18.98
694.091	19.04
694.413	19.42
694.735	18.78
695.056	18.79
695.378	19.12
695.699	18.91
696.021	19
696.342	19.44
696.663	20.1
696.984	19.13
697.306	19.22
697.627	20.17
697.948	19.96
698.269	19.97
698.59	20.26
698.911	20.25
699.232	19.53
699.553	19.45
699.873	19.96
700.194	19.68
700.515	19.89
700.835	20.03
701.156	19.67
701.477	19.32
701.797	20.03
702.117	20.03
702.438	19.7
702.758	19.78
703.078	20.06
703.398	20.42
703.719	19.72
704.039	19.82
704.359	19.97
704.679	19.89
704.999	20.27
705.319	20.14
705.638	20.16
705.958	19.34
706.278	20.41
706.597	19.33
706.917	19.96
707.237	20.78
707.556	20.34
707.876	19.67
708.195	19.33
708.514	21.33
708.834	20.46
709.153	19.71
709.472	20.92
709.791	20.27
710.11	20.77
710.429	20.43
710.748	20.48
711.067	20.93
711.386	20.29
711.705	20.75
712.023	20.26
712.342	20.34
712.661	21.09
712.979	21.15
713.298	20.73
713.616	20.77
713.935	21.17
714.253	20.58
714.572	21.24
714.89	20.31
715.208	20.62
715.526	20.47
715.844	21.5
716.162	21.04
716.48	20.3
716.798	20.27
717.116	20.74
717.434	21.69
717.752	20.14
718.069	21.02
718.387	21.63
718.705	20.91
719.022	21.25
719.34	21.14
719.657	20.97
719.975	21.67
720.292	21.42
720.609	21.06
720.927	21.66
721.244	21.22
721.561	21.53
721.878	21.49
722.195	21.81
722.512	21.56
722.829	21.47
723.146	22.38
723.463	20.78
723.779	22
724.096	21.93
724.413	21.73
724.729	20.5
725.046	21.18
725.362	20.56
725.679	21.47
725.995	23.37
726.311	21.06
726.628	21.24
726.944	22.24
727.26	21.65
727.576	21.55
727.892	22.36
728.208	20.76
728.524	22.07
728.84	21.57
729.156	22.04
729.472	20.49
729.787	21.35
730.103	22.47
730.419	20.43
730.734	20.96
731.05	21.92
731.365	23.03
731.681	23.01
731.996	21.79
732.311	22.01
732.626	21.32
732.942	21.98
733.257	22.42
733.572	21.78
733.887	22
734.202	23.04
734.517	21.22
734.832	22.87
735.146	23.99
735.461	22.89
735.776	22.23
736.091	22.18
736.405	22.59
736.72	22.19
737.034	23.24
737.349	23.51
737.663	23.47
737.977	21.57
738.292	23.23
738.606	22.82
738.92	21.93
739.234	22.35
739.548	23.11
739.862	22.52
740.176	22.55
740.49	23.61
740.804	23.17
741.117	21.93
741.431	21.16
741.745	22.19
742.058	21.21
742.372	22.8
742.685	22.71
742.999	23.78
743.312	22.22
743.626	22.1
743.939	24.28
744.252	22.67
744.565	22.71
744.878	25.61
745.191	22.35
745.505	22.19
745.817	22.93
746.13	24.23
746.443	23.97
746.756	21.79
747.069	21.53
747.381	21.54
747.694	23.2
748.007	22.96
748.319	23.86
748.632	25.18
748.944	22.94
749.256	24.95
749.569	22.79
749.881	22.93
750.193	23.89
750.505	23.41
750.817	23.76
751.129	24.46
751.441	22.78
751.753	23.52
752.065	22.25
752.377	22.58
752.689	23.07
753	23.16
753.312	21.44
753.624	22.8
753.935	24.22
754.247	25.24
754.558	23.66
754.869	23.76
755.181	23.29
755.492	23.12
755.803	22.52
756.114	23.22
756.425	24.39
756.736	24.4
757.047	23.98
757.358	23.67
757.669	26.66
757.98	23.62
758.291	24.81
758.601	23.39
758.912	26.34
759.223	23.99
759.533	24.17
759.844	22.97
760.154	23.58
760.464	24.18
760.775	23.27
761.085	24.64
761.395	22.32
761.705	23.82
762.016	22.71
762.326	25.33
762.636	24.18
762.945	23.9
763.255	23.47
763.565	23.57
763.875	23.61
764.185	25.19
764.494	26.04
764.804	23.88
765.113	24.26
765.423	24.75
765.732	24.09
766.042	23.96
766.351	24.43
766.66	24.24
766.97	24.62
767.279	24.33
767.588	25.31
767.897	23.28
768.206	21.59
768.515	24.17
768.824	23.44
769.133	25.24
769.441	25.39
769.75	24.77
770.059	23.76
770.367	24.34
770.676	25.62
770.984	22.87
771.293	24.21
771.601	26.86
771.91	26.03
772.218	23.53
772.526	23.41
772.834	24.14
773.142	24.22
773.45	24.95
773.758	26.81
774.066	27.2
774.374	26.51
774.682	25.42
774.99	24.21
775.298	26.88
775.605	26.58
775.913	26.86
776.22	24.4
776.528	25.92
776.835	26.35
777.143	24.63
777.45	27.47
777.757	24.86
778.065	25.24
778.372	27.29
778.679	24.13
778.986	23.49
779.293	25.27
779.6	25.33
779.907	23.88
780.214	27.32
780.52	23.86
780.827	21.8
781.134	25.35
781.44	24.95
781.747	22.59
782.053	25.31
782.36	23.91
782.666	28.24
782.973	27.15
783.279	25.43
783.585	25.84
783.891	24.02
784.197	22.35
784.503	24.86
784.809	27.37
785.115	28.12
785.421	23.71
785.727	29.63
786.033	28.59
786.339	23.26
786.644	24.55
786.95	26.73
787.255	26.09
787.561	26.61
787.866	28.82
788.172	26.92
788.477	26.38
788.782	25.53
789.088	28.33
789.393	25.38
789.698	26.13
790.003	31.63
790.308	27.41
790.613	24.05
790.918	26.56
791.223	26.67
791.527	27.05
791.832	28.7
792.137	29.45
792.441	25.61
792.746	27.83
793.05	24.16
793.355	28.06
793.659	26.76
793.963	24.6
794.268	27.69
794.572	26.61
794.876	26.81
795.18	27.52
795.484	30.38
795.788	28.85
796.092	25.01
796.396	24.76
796.7	26.48
797.004	27.7
797.307	29.43
797.611	23.7
797.915	28.29
798.218	28.78
798.522	27.88
798.825	24.7
799.128	29.78
799.432	26.83
799.735	26.56
800.038	22.91
800.341	25.85
800.644	23.35
800.947	25.12
801.25	26.75
801.553	27
801.856	27.41
802.159	29.39
802.462	22.77
802.764	29.06
803.067	25.37
803.37	24.73
803.672	27.75
803.975	24.81
804.277	24.17
804.579	23.8
804.882	29.12
805.184	26.69
805.486	26.18
805.788	24.36
806.09	21.98
806.392	25.86
806.694	27.2
806.996	26.55
807.298	33.14
807.6	26.1
807.902	29.84
808.203	26.53
808.505	31.04
808.807	26.75
809.108	27.75
809.409	29
809.711	28.39
810.012	29.79
810.313	34.81
810.615	25.99
810.916	31.14
811.217	26.44
811.518	23.88
811.819	28.96
812.12	25.7
812.421	33.48
812.722	30.42
813.023	29.41
813.323	17.39
813.624	25.47
813.925	28.43
814.225	24.09
814.526	26.59
814.826	28.36
815.126	31.81
815.427	23.48
815.727	31.19
816.027	31.95
816.327	25.7
816.627	30.28
816.927	24.59
817.227	29.24
817.527	27.49
817.827	32.63
818.127	29.57
818.427	34.49
818.727	31.01
819.026	30.47
819.326	32.79
819.625	31.53
819.925	28.22
820.224	29.67
820.524	34.26
820.823	27.89
821.122	31.8
821.421	26.55
821.72	28.45
822.019	26.43
822.318	28.03
822.617	30.45
822.916	28.13
823.215	27.14
823.514	28.58
823.813	26.19
824.111	27.26
824.41	27.06
824.709	28.04
825.007	28.2
825.306	28.26
825.604	28.37
825.902	28.06
826.201	28.31
826.499	29.5
826.797	28.88
827.095	29.04
827.393	28.57
827.691	29.79
827.989	28.9
828.287	29.97
828.585	29.85
828.882	30.61
829.18	30.07
829.478	30.81
829.775	28.51
830.073	27.83
830.37	28.03
830.668	28.73
830.965	28.48
831.263	28.54
831.56	29.71
831.857	29.61
832.154	30.09
832.451	30.88
832.748	27.13
833.045	32.16
833.342	26.65
833.639	30.71
833.936	26.84
834.232	30
834.529	26.61
834.826	26.84
835.122	35.63
835.419	25.45
835.715	25.83
836.012	25.54
836.308	31.1
836.604	29.59
836.901	26.8
837.197	28.99
837.493	31.34
837.789	27.51
838.085	33.06
838.381	30.74
838.677	25.57
838.972	32.12
839.268	25.75
839.564	29.66
839.86	28.12
840.155	32.38
840.451	33.2
840.746	26.02
841.042	34.58
841.337	31.36
841.632	28.31
841.928	26.45
842.223	34.07
842.518	26.37
842.813	26.75
843.108	25.91
843.403	34.21
843.698	27.65
843.993	33.42
844.287	34.92
844.582	40.15
844.877	23.1
845.171	32.67
845.466	28.2
845.761	34.72
846.055	19.59
846.349	27.23
846.644	34.68
846.938	27.16
847.232	47.56
847.526	36.24
847.82	29.91
848.114	35.75
848.408	36.08
848.702	22.26
848.996	24.64
849.29	40.77
849.584	48.42
849.877	34.04
850.171	36.42
850.465	40.36
850.758	30.29
851.052	31.47
851.345	32.12
851.638	33.8
851.932	23.69
852.225	38.21
852.518	15.26
852.811	14.88
853.104	38.31
853.397	13.51
853.69	23.57
853.983	26.63
854.276	28.81
854.569	16.96
854.861	25.31
855.154	15.52
855.447	26.57
855.739	22.86
856.032	32.62
856.324	22.82
856.616	27.22
856.909	31.61
857.201	21.55
857.493	40.29
857.785	17.22
858.077	31.51
858.369	21.21
858.661	19.22
858.953	36.07
859.245	39.28
859.537	20.36
859.829	28.61
860.12	23.44
860.412	21.37
860.703	36.78
860.995	32.5
861.286	38.53
861.578	40.45
861.869	30.59
862.16	29.05
862.452	22.33
862.743	19.65
863.034	-1.04
863.325	25.85
863.616	43.19
863.907	26.97
864.198	35.03
864.488	41.22
864.779	28.8
865.07	42.1
865.36	27.93
865.651	35.67
865.941	30.98
866.232	44.18
866.522	28.71
866.813	34.92
867.103	44.47
867.393	32.26
867.683	27.43
867.973	24.16
868.263	52.54
868.553	25.52
868.843	41.18
869.133	35.01
869.423	31.98
869.713	28.35
870.002	11.07
870.292	38.67
870.582	11.64
870.871	46.97
871.161	42.58
871.45	30.43
871.739	24.75
872.029	39.61
872.318	30.39
872.607	24.82
872.896	34.22
873.185	46.04
873.474	18.91
873.763	45.04
874.052	29.77
874.341	34.17
874.63	15.83
874.918	33.56
875.207	31.47
875.496	40.75
875.784	18.43
876.073	36.79
876.361	56.99
876.649	37.62
876.938	19.74
877.226	16.5
877.514	24.2
877.802	63.12
878.09	27.52
878.378	48.26
878.666	26.13
878.954	39.64
879.242	34.22
879.53	45.63
879.817	17.89
880.105	15.82
880.392	43.04
880.68	41.35
880.967	34.35
881.255	61.79
881.542	24.27
881.83	59.37
882.117	53.11
882.404	29.04
882.691	36.56
882.978	26.12
883.265	30.26
883.552	29.03
883.839	6.16
884.126	31.87
884.413	32.74
884.699	30.69
884.986	35.55
885.273	34.81
885.559	34.81
885.846	34.81
