Data from 0035_chest_Reflection__0__15.txt Node

Date: Fri Nov 04 14:46:11 CDT 2022
User: ToomeyLab
Spectrometer: FLMS14357
Trigger mode: 0
Integration Time (sec): 1.000000E-2
Scans to average: 100
Electric dark correction enabled: true
Nonlinearity correction enabled: false
Boxcar width: 0
XAxis mode: Wavelengths
Number of Pixels in Spectrum: 2048
>>>>>Begin Spectral Data<<<<<
189.047	38.45
189.435	38.45
189.823	38.45
190.211	285.38
190.599	71.65
190.987	-1742.47
191.375	10.03
191.763	21.91
192.151	258.47
192.538	-33.76
192.926	563.45
193.314	12.95
193.702	42.27
194.089	29.51
194.477	121.01
194.864	117.64
195.252	133.66
195.639	245.92
196.027	24.22
196.414	220.77
196.801	228.56
197.189	348.73
197.576	57.45
197.963	-698.6
198.351	6.6
198.738	24.77
199.125	-41.96
199.512	-7.17
199.899	22.29
200.286	25.94
200.673	13.36
201.06	28.55
201.447	42.63
201.833	29.36
202.22	0.82
202.607	4.26
202.994	-0.19
203.38	27.96
203.767	16.29
204.154	19.03
204.54	50.83
204.927	24.93
205.313	26.18
205.699	57.4
206.086	37.42
206.472	49.43
206.858	31.23
207.245	32.03
207.631	13.69
208.017	29.66
208.403	34.78
208.789	17.63
209.175	18.1
209.561	6.69
209.947	23.26
210.333	35.82
210.719	13.52
211.105	11.29
211.491	13.54
211.876	30.73
212.262	22.38
212.648	15.97
213.034	17.86
213.419	-2.84
213.805	19.26
214.19	-4.05
214.576	-4.33
214.961	25.6
215.346	-5.06
215.732	23.71
216.117	4.17
216.502	-5.38
216.888	-2.67
217.273	23.01
217.658	15.39
218.043	11.27
218.428	18.41
218.813	32.48
219.198	-22.87
219.583	24.71
219.968	-3.22
220.353	-6.9
220.738	7.18
221.122	-2.51
221.507	13.11
221.892	5.83
222.276	8.7
222.661	15.14
223.046	15.22
223.43	1.45
223.815	15.66
224.199	7.34
224.583	12.65
224.968	13.42
225.352	12.68
225.736	10.49
226.121	10.12
226.505	14.03
226.889	3.72
227.273	6.79
227.657	3.25
228.041	9.48
228.425	9.67
228.809	6.45
229.193	7.92
229.577	4.22
229.961	5.48
230.344	4.48
230.728	4.1
231.112	5.89
231.495	4.56
231.879	6.34
232.263	4.21
232.646	5.53
233.03	5.62
233.413	7.08
233.797	6.26
234.18	4.21
234.563	7.22
234.946	3.04
235.33	6.25
235.713	6.63
236.096	6.03
236.479	6.9
236.862	5.09
237.245	6.27
237.628	4.14
238.011	4.63
238.394	6.07
238.777	4.59
239.16	7.14
239.543	7.12
239.925	3.72
240.308	4.21
240.691	6.56
241.073	3.53
241.456	4.85
241.838	3.25
242.221	5.13
242.603	4.79
242.986	4.76
243.368	6.02
243.75	4.66
244.133	4.64
244.515	5.06
244.897	4.66
245.279	4.71
245.661	5.47
246.043	5.63
246.425	5.57
246.807	4.44
247.189	5.16
247.571	5.53
247.953	4.53
248.335	4.94
248.717	4.64
249.098	4.88
249.48	4.81
249.862	4.69
250.243	5.13
250.625	4.96
251.006	4.81
251.388	4.89
251.769	4.99
252.151	4.28
252.532	4.74
252.913	4.36
253.295	5.18
253.676	5.28
254.057	4.71
254.438	5.35
254.819	5.43
255.2	5.4
255.581	5.8
255.962	5.33
256.343	6
256.724	4.21
257.105	5.55
257.486	4.37
257.867	5.39
258.247	5.42
258.628	4.89
259.009	5.19
259.389	4.99
259.77	5.15
260.15	5.15
260.531	5.18
260.911	4.21
261.292	4.51
261.672	4.72
262.052	4.75
262.432	4.49
262.813	4.7
263.193	4.69
263.573	4.14
263.953	4.88
264.333	4.49
264.713	5.05
265.093	4.52
265.473	4.49
265.853	4.4
266.233	5.38
266.612	4.93
266.992	4.92
267.372	4.98
267.752	4.65
268.131	4.22
268.511	4.56
268.89	4.57
269.27	4.34
269.649	4.98
270.029	4.45
270.408	4.79
270.787	5.08
271.167	4.79
271.546	4.45
271.925	4.88
272.304	4.34
272.683	4.45
273.062	4.49
273.441	4.08
273.82	4.28
274.199	4.95
274.578	4.37
274.957	5.02
275.336	4.32
275.715	4.48
276.093	4.47
276.472	4.67
276.851	4.81
277.229	4.85
277.608	4.37
277.986	4.73
278.365	4.8
278.743	4.41
279.122	4.44
279.5	4.33
279.878	4.92
280.257	4.91
280.635	4.9
281.013	4.8
281.391	4.53
281.769	4.75
282.147	4.04
282.525	4.6
282.903	4.35
283.281	4.45
283.659	4.88
284.037	4.75
284.415	4.48
284.792	4.36
285.17	4.13
285.548	4.36
285.925	4.33
286.303	4.46
286.68	4.54
287.058	4.36
287.435	4.42
287.813	4.22
288.19	4.15
288.567	4.56
288.945	4.8
289.322	4.54
289.699	4.98
290.076	4.17
290.453	5
290.83	4.84
291.207	3.95
291.584	4.49
291.961	4.69
292.338	4.6
292.715	4.53
293.092	4.13
293.469	4.94
293.845	4.8
294.222	4.7
294.599	4.93
294.975	4.74
295.352	4.29
295.728	4.99
296.105	4.78
296.481	4.94
296.858	4.29
297.234	4.55
297.61	4.58
297.986	4.63
298.363	4.6
298.739	4.2
299.115	4.81
299.491	4.51
299.867	4.85
300.243	4.48
300.619	4.39
300.995	4.51
301.371	5.08
301.746	4.32
302.122	4.43
302.498	4.67
302.874	4.37
303.249	4.59
303.625	4.74
304	4.78
304.376	5.2
304.751	4.63
305.127	5.01
305.502	4.36
305.878	4.87
306.253	4.49
306.628	4.83
307.003	4.52
307.378	4.62
307.754	4.94
308.129	4.39
308.504	4.46
308.879	4.34
309.254	4.66
309.629	4.78
310.003	4.97
310.378	4.47
310.753	5.08
311.128	4.45
311.502	4.87
311.877	4.85
312.252	4.69
312.626	4.73
313.001	4.75
313.375	4.52
313.75	4.79
314.124	4.65
314.498	4.61
314.873	5.13
315.247	4.87
315.621	4.81
315.995	5.16
316.369	4.85
316.743	4.77
317.117	4.5
317.491	4
317.865	5.16
318.239	4.78
318.613	5.06
318.987	5.17
319.361	4.5
319.734	4.54
320.108	4.88
320.482	5.06
320.855	5.13
321.229	4.79
321.602	5.08
321.976	5.11
322.349	5.55
322.723	4.76
323.096	4.48
323.469	4.75
323.843	4.88
324.216	5.15
324.589	4.76
324.962	5.11
325.335	4.55
325.708	5.08
326.081	4.87
326.454	5.4
326.827	4.89
327.2	4.4
327.573	4.61
327.945	4.98
328.318	4.69
328.691	4.7
329.063	4.86
329.436	4.97
329.809	5.21
330.181	4.86
330.553	5
330.926	4.91
331.298	5.48
331.671	5
332.043	4.76
332.415	4.72
332.787	4.7
333.159	5.31
333.532	5
333.904	4.92
334.276	4.93
334.648	5.04
335.02	4.68
335.391	4.73
335.763	4.36
336.135	4.91
336.507	4.95
336.879	4.33
337.25	5.04
337.622	4.96
337.993	4.82
338.365	4.35
338.736	4.94
339.108	4.77
339.479	4.76
339.851	4.59
340.222	5.12
340.593	5
340.964	4.96
341.336	5.04
341.707	4.99
342.078	5.2
342.449	5.18
342.82	4.65
343.191	4.83
343.562	4.97
343.933	4.72
344.303	4.86
344.674	4.29
345.045	4.51
345.416	5.17
345.786	4.84
346.157	4.76
346.527	4.84
346.898	4.77
347.268	4.51
347.639	4.98
348.009	4.97
348.38	4.66
348.75	4.93
349.12	4.6
349.49	4.62
349.861	4.75
350.231	4.34
350.601	4.83
350.971	4.63
351.341	4.72
351.711	5.03
352.081	4.64
352.45	4.67
352.82	4.83
353.19	4.99
353.56	4.83
353.929	4.94
354.299	4.97
354.669	4.89
355.038	5.03
355.408	4.72
355.777	4.82
356.147	5.17
356.516	5.09
356.885	5.04
357.254	4.8
357.624	4.71
357.993	4.75
358.362	5.06
358.731	4.69
359.1	4.69
359.469	4.88
359.838	4.77
360.207	4.67
360.576	4.92
360.945	4.78
361.314	4.89
361.682	4.98
362.051	4.57
362.42	4.78
362.788	4.86
363.157	4.72
363.525	4.87
363.894	4.72
364.262	4.67
364.631	4.85
364.999	4.63
365.367	4.54
365.735	5.04
366.104	4.87
366.472	4.41
366.84	4.83
367.208	4.76
367.576	4.95
367.944	4.72
368.312	4.97
368.68	4.78
369.048	4.87
369.416	4.63
369.783	4.81
370.151	4.85
370.519	5.19
370.886	4.7
371.254	4.79
371.621	5.02
371.989	4.92
372.356	5.04
372.724	4.78
373.091	4.95
373.458	5.04
373.826	5
374.193	4.68
374.56	4.75
374.927	4.81
375.294	4.93
375.661	4.64
376.028	4.83
376.395	4.88
376.762	4.71
377.129	4.84
377.496	4.61
377.863	4.84
378.229	4.88
378.596	4.96
378.963	4.81
379.329	4.76
379.696	4.82
380.062	4.8
380.429	5.04
380.795	4.98
381.161	4.86
381.528	5.17
381.894	4.84
382.26	4.6
382.626	4.76
382.993	4.84
383.359	5.1
383.725	4.85
384.091	4.9
384.457	5.16
384.823	4.98
385.188	4.62
385.554	4.95
385.92	4.87
386.286	4.95
386.651	5.14
387.017	4.91
387.383	5.17
387.748	4.89
388.114	5.07
388.479	4.83
388.845	4.66
389.21	5.01
389.575	4.93
389.94	4.99
390.306	4.88
390.671	4.75
391.036	5.09
391.401	4.78
391.766	4.76
392.131	4.77
392.496	4.94
392.861	5.19
393.226	4.97
393.591	4.97
393.956	4.86
394.32	4.86
394.685	5.05
395.05	4.83
395.414	4.92
395.779	4.93
396.143	4.95
396.508	4.85
396.872	4.83
397.236	5.2
397.601	5.05
397.965	5.23
398.329	4.74
398.694	4.87
399.058	5.02
399.422	5.09
399.786	5.08
400.15	4.97
400.514	4.88
400.878	4.92
401.242	5.05
401.605	4.83
401.969	4.93
402.333	5.19
402.697	5.23
403.06	4.93
403.424	4.96
403.787	4.97
404.151	4.85
404.514	5.13
404.878	5.11
405.241	5.01
405.604	4.86
405.968	5.06
406.331	5.07
406.694	4.88
407.057	4.9
407.42	5.01
407.783	4.96
408.146	5
408.509	4.9
408.872	5.07
409.235	4.99
409.598	5.01
409.961	5.27
410.323	5.1
410.686	5.12
411.049	5.14
411.411	5.08
411.774	4.93
412.136	4.99
412.499	5.01
412.861	5.01
413.223	4.99
413.586	5.3
413.948	5.33
414.31	5.1
414.672	5.14
415.035	5.3
415.397	5.43
415.759	5.08
416.121	4.97
416.483	4.99
416.845	5.03
417.206	5.11
417.568	5.19
417.93	5.18
418.292	5.14
418.653	4.97
419.015	5.18
419.377	5.13
419.738	4.93
420.1	4.87
420.461	4.94
420.822	5.04
421.184	5.1
421.545	4.99
421.906	5.09
422.267	5
422.629	4.97
422.99	4.95
423.351	4.95
423.712	5.01
424.073	4.93
424.434	5
424.795	4.96
425.155	5
425.516	5.06
425.877	5.07
426.238	5.02
426.598	5.07
426.959	4.95
427.32	5.04
427.68	5.1
428.041	5.12
428.401	5.26
428.761	5.15
429.122	5.08
429.482	5.07
429.842	5.25
430.202	5
430.563	5.31
430.923	5.17
431.283	5.23
431.643	5.13
432.003	5.15
432.363	5.3
432.722	5.13
433.082	5.15
433.442	5.13
433.802	5.18
434.161	5.29
434.521	5.17
434.881	5.19
435.24	5.24
435.6	5.27
435.959	5.29
436.319	5.24
436.678	5.31
437.037	5.19
437.396	5.3
437.756	5.34
438.115	5.45
438.474	5.3
438.833	5.11
439.192	5.23
439.551	5.27
439.91	5.24
440.269	5.25
440.628	5.24
440.987	5.31
441.345	5.06
441.704	5.32
442.063	5.23
442.421	5.21
442.78	5.21
443.138	5.18
443.497	5.25
443.855	5.37
444.214	5.38
444.572	5.3
444.93	5.39
445.288	5.34
445.647	5.34
446.005	5.39
446.363	5.3
446.721	5.29
447.079	5.31
447.437	5.28
447.795	5.22
448.153	5.19
448.51	5.11
448.868	5.25
449.226	5.24
449.584	5.21
449.941	5.31
450.299	5.36
450.656	5.48
451.014	5.29
451.371	5.42
451.729	5.6
452.086	5.48
452.443	5.38
452.801	5.5
453.158	5.62
453.515	5.47
453.872	5.46
454.229	5.29
454.586	5.48
454.943	5.49
455.3	5.53
455.657	5.35
456.014	5.42
456.371	5.44
456.727	5.45
457.084	5.5
457.441	5.46
457.797	5.6
458.154	5.53
458.51	5.72
458.867	5.69
459.223	5.44
459.58	5.47
459.936	5.55
460.292	5.42
460.648	5.61
461.005	5.53
461.361	5.4
461.717	5.43
462.073	5.47
462.429	5.35
462.785	5.4
463.141	5.41
463.496	5.54
463.852	5.59
464.208	5.48
464.564	5.75
464.919	5.65
465.275	5.54
465.631	5.58
465.986	5.51
466.342	5.77
466.697	5.53
467.052	5.52
467.408	5.61
467.763	5.51
468.118	5.65
468.473	5.78
468.829	5.64
469.184	5.66
469.539	5.65
469.894	5.82
470.249	5.78
470.603	5.85
470.958	5.67
471.313	5.83
471.668	5.79
472.023	5.78
472.377	5.73
472.732	5.77
473.086	5.87
473.441	5.68
473.795	5.65
474.15	5.75
474.504	5.85
474.859	5.61
475.213	5.66
475.567	5.74
475.921	5.8
476.275	5.87
476.63	5.74
476.984	5.86
477.338	5.89
477.692	5.75
478.045	5.8
478.399	5.79
478.753	5.79
479.107	5.85
479.461	5.84
479.814	5.91
480.168	6.01
480.521	5.76
480.875	5.96
481.228	5.89
481.582	6.01
481.935	5.84
482.289	5.82
482.642	5.92
482.995	5.8
483.348	5.87
483.701	5.78
484.055	5.73
484.408	5.84
484.761	5.74
485.114	5.63
485.466	5.54
485.819	5.52
486.172	5.51
486.525	5.55
486.878	5.61
487.23	5.66
487.583	5.72
487.936	5.77
488.288	5.77
488.641	5.78
488.993	5.74
489.345	5.74
489.698	5.72
490.05	5.71
490.402	5.73
490.754	5.8
491.107	5.85
491.459	5.85
491.811	5.99
492.163	6.01
492.515	5.88
492.866	5.86
493.218	5.88
493.57	5.82
493.922	5.78
494.274	5.85
494.625	5.9
494.977	6
495.328	6
495.68	6.01
496.031	6.13
496.383	6.04
496.734	6.17
497.086	6.1
497.437	6.36
497.788	6.21
498.139	6.19
498.49	6.22
498.842	6.1
499.193	6.13
499.544	6.15
499.894	6.22
500.245	6.21
500.596	6.19
500.947	6.27
501.298	6.32
501.648	6.25
501.999	6.45
502.35	6.35
502.7	6.29
503.051	6.4
503.401	6.41
503.752	6.5
504.102	6.35
504.452	6.23
504.803	6.22
505.153	6.43
505.503	6.45
505.853	6.44
506.203	6.4
506.553	6.35
506.903	6.5
507.253	6.39
507.603	6.57
507.953	6.67
508.303	6.64
508.652	6.52
509.002	6.5
509.352	6.5
509.701	6.53
510.051	6.37
510.4	6.49
510.75	6.58
511.099	6.47
511.449	6.42
511.798	6.51
512.147	6.49
512.496	6.63
512.846	6.62
513.195	6.5
513.544	6.56
513.893	6.66
514.242	6.7
514.591	6.64
514.939	6.74
515.288	6.74
515.637	6.65
515.986	6.77
516.334	6.89
516.683	6.76
517.032	6.77
517.38	6.77
517.729	6.74
518.077	6.8
518.426	6.91
518.774	6.85
519.122	6.73
519.47	6.86
519.819	6.74
520.167	6.68
520.515	6.85
520.863	6.85
521.211	6.86
521.559	6.86
521.907	6.79
522.255	6.82
522.602	7.01
522.95	6.95
523.298	7.02
523.645	7.01
523.993	7.18
524.341	7.15
524.688	7.05
525.036	7.14
525.383	7.28
525.73	7.15
526.078	7.19
526.425	7.06
526.772	7.04
527.119	7.13
527.466	7.06
527.814	6.97
528.161	7.07
528.508	7.19
528.854	7.28
529.201	7.17
529.548	7.14
529.895	7.06
530.242	6.96
530.588	6.92
530.935	7.02
531.282	7.02
531.628	7
531.975	7.05
532.321	7.21
532.667	7.17
533.014	7.34
533.36	7.32
533.706	7.42
534.052	7.41
534.399	7.32
534.745	7.29
535.091	7.33
535.437	7.25
535.783	7.33
536.129	7.39
536.474	7.43
536.82	7.41
537.166	7.54
537.512	7.59
537.857	7.68
538.203	7.67
538.549	7.53
538.894	7.63
539.239	7.63
539.585	7.64
539.93	7.72
540.276	7.78
540.621	7.85
540.966	7.83
541.311	7.93
541.656	7.95
542.001	7.87
542.346	7.93
542.691	7.8
543.036	7.71
543.381	7.71
543.726	7.71
544.071	7.67
544.415	7.85
544.76	7.86
545.105	7.87
545.449	8
545.794	8.02
546.138	8.11
546.483	8.28
546.827	8.07
547.171	8.05
547.516	8.2
547.86	8.33
548.204	8.23
548.548	8.2
548.892	8.08
549.236	8.29
549.58	8.41
549.924	8.39
550.268	8.5
550.612	8.55
550.956	8.43
551.3	8.62
551.643	8.78
551.987	8.68
552.33	8.57
552.674	8.56
553.017	8.66
553.361	8.77
553.704	8.74
554.048	8.85
554.391	8.94
554.734	8.78
555.077	8.6
555.42	8.85
555.764	9
556.107	8.92
556.45	9.14
556.793	9.05
557.135	8.98
557.478	8.95
557.821	9.32
558.164	9.07
558.507	9.2
558.849	9.19
559.192	9.16
559.534	9.2
559.877	9.19
560.219	9.23
560.562	9.29
560.904	9.25
561.246	9.31
561.589	9.54
561.931	9.55
562.273	9.56
562.615	9.68
562.957	9.6
563.299	9.39
563.641	9.5
563.983	9.45
564.325	9.58
564.667	9.63
565.008	9.5
565.35	9.91
565.692	9.89
566.033	9.79
566.375	9.72
566.716	10.04
567.058	10.16
567.399	9.8
567.741	9.76
568.082	9.88
568.423	10.02
568.764	9.95
569.105	9.99
569.447	10.06
569.788	10.03
570.129	10.26
570.47	10.18
570.811	10.14
571.151	10.21
571.492	10.1
571.833	10.37
572.174	10.15
572.514	10.47
572.855	10.21
573.195	10.27
573.536	10.35
573.876	10.49
574.217	10.56
574.557	10.5
574.898	10.52
575.238	10.55
575.578	10.6
575.918	10.74
576.258	10.74
576.598	10.93
576.938	10.77
577.278	10.8
577.618	10.89
577.958	10.77
578.298	11.04
578.638	11.21
578.977	10.98
579.317	11.2
579.657	11.21
579.996	11.05
580.336	11.26
580.675	11.34
581.014	11.2
581.354	11.3
581.693	11.34
582.032	11.38
582.372	11.64
582.711	11.4
583.05	11.33
583.389	11.44
583.728	11.48
584.067	11.61
584.406	11.5
584.745	11.57
585.083	11.62
585.422	11.76
585.761	11.84
586.1	11.9
586.438	12.11
586.777	11.93
587.115	11.97
587.454	12.21
587.792	11.93
588.13	12.37
588.469	12.28
588.807	12.12
589.145	12.22
589.483	12.24
589.821	12.42
590.159	12.2
590.497	12.42
590.835	12.39
591.173	12.26
591.511	12.28
591.849	12.5
592.187	12.36
592.524	12.65
592.862	12.2
593.2	12.44
593.537	12.38
593.875	12.74
594.212	12.65
594.55	12.67
594.887	12.79
595.224	12.9
595.561	12.9
595.899	12.76
596.236	13
596.573	12.9
596.91	12.85
597.247	13.06
597.584	12.86
597.921	12.92
598.258	13.17
598.594	13.17
598.931	13.13
599.268	13.15
599.604	13.06
599.941	13.09
600.277	13.26
600.614	13.48
600.95	13.23
601.287	13.52
601.623	13.61
601.959	13.7
602.296	13.8
602.632	14
602.968	13.92
603.304	13.7
603.64	13.75
603.976	14.07
604.312	14.06
604.648	13.88
604.984	13.9
605.319	13.78
605.655	13.93
605.991	14.07
606.326	14.08
606.662	13.8
606.998	14.01
607.333	14.07
607.668	13.94
608.004	14.16
608.339	14.13
608.674	14.2
609.01	14.31
609.345	14.59
609.68	14.46
610.015	14.55
610.35	14.43
610.685	14.63
611.02	14.51
611.355	14.7
611.689	14.55
612.024	14.84
612.359	14.88
612.694	14.9
613.028	15.12
613.363	14.92
613.697	15.19
614.032	15.17
614.366	15.1
614.7	15.16
615.035	15.07
615.369	15.54
615.703	15.38
616.037	15.39
616.371	15.27
616.705	15.3
617.039	15.73
617.373	15.51
617.707	15.76
618.041	15.55
618.375	15.55
618.709	15.61
619.042	15.94
619.376	15.92
619.71	15.88
620.043	16.24
620.377	16.13
620.71	16.02
621.043	15.83
621.377	15.96
621.71	15.86
622.043	15.99
622.376	16.38
622.709	16.22
623.043	16.04
623.376	16.16
623.709	16.37
624.041	16.71
624.374	16.37
624.707	16.36
625.04	16.76
625.373	16.39
625.705	16.57
626.038	16.98
626.37	17.33
626.703	16.66
627.035	16.6
627.368	16.79
627.7	17.14
628.032	16.93
628.365	16.74
628.697	16.89
629.029	16.99
629.361	17.01
629.693	16.88
630.025	17.13
630.357	17.3
630.689	16.97
631.021	17.38
631.353	17.09
631.684	17.36
632.016	17.32
632.348	17.26
632.679	17.55
633.011	17.68
633.342	17.77
633.674	17.7
634.005	17.96
634.336	17.91
634.668	17.99
634.999	18.06
635.33	17.86
635.661	17.7
635.992	18.23
636.323	18.02
636.654	18.22
636.985	18.18
637.316	18.02
637.647	18.16
637.977	17.97
638.308	18.25
638.639	18.35
638.969	18.2
639.3	18.22
639.63	18.41
639.961	18.36
640.291	18.45
640.622	18.77
640.952	19.02
641.282	18.53
641.612	19.08
641.943	18.95
642.273	18.88
642.603	19.06
642.933	18.59
643.263	19.14
643.592	19.18
643.922	19.11
644.252	19.34
644.582	19.66
644.911	18.94
645.241	19.3
645.571	19.81
645.9	19.73
646.23	19.63
646.559	19.57
646.888	19.18
647.218	19.48
647.547	19.41
647.876	19.42
648.205	19.51
648.534	20.11
648.863	20.13
649.192	19.42
649.521	20.06
649.85	20.01
650.179	20.16
650.508	19.7
650.837	19.37
651.165	20
651.494	20.02
651.822	19.86
652.151	20.32
652.479	20.32
652.808	19.98
653.136	20.28
653.465	20.56
653.793	20.56
654.121	20.68
654.449	20.63
654.777	20.65
655.105	20.63
655.433	20.64
655.761	20.65
656.089	21.05
656.417	20.89
656.745	20.93
657.073	21.4
657.4	20.82
657.728	21.07
658.056	21.05
658.383	21.05
658.711	20.92
659.038	20.85
659.365	21
659.693	21.49
660.02	21.25
660.347	21.48
660.674	21.31
661.001	21.09
661.329	21.51
661.656	21.67
661.982	21.34
662.309	21.58
662.636	21.27
662.963	21.31
663.29	21.75
663.616	21.16
663.943	21.55
664.27	22.04
664.596	22.34
664.923	21.96
665.249	22.29
665.576	21.68
665.902	21.46
666.228	22.1
666.554	22.44
666.881	22.24
667.207	22.07
667.533	21.49
667.859	22.41
668.185	22.42
668.511	22
668.837	22.44
669.162	22.39
669.488	22.78
669.814	22.94
670.139	22.61
670.465	23
670.791	22.38
671.116	23.22
671.442	22.8
671.767	22.22
672.092	22.98
672.418	23.08
672.743	23.62
673.068	22.9
673.393	22.89
673.718	22.78
674.043	22.59
674.368	23.21
674.693	23.03
675.018	23.54
675.343	22.84
675.667	23.29
675.992	23.39
676.317	23.96
676.641	24.14
676.966	22.95
677.29	23.8
677.615	24.02
677.939	24.08
678.264	23.6
678.588	23.46
678.912	23.77
679.236	24.28
679.56	23.84
679.885	24.03
680.209	23.25
680.532	23.67
680.856	24.28
681.18	23.73
681.504	24.66
681.828	23.73
682.152	24.25
682.475	24.18
682.799	24.33
683.122	24.09
683.446	24.35
683.769	24.73
684.093	24.66
684.416	24.41
684.739	24.67
685.062	24.75
685.386	24.5
685.709	24.98
686.032	25.01
686.355	25.16
686.678	24.73
687.001	24.81
687.324	24.59
687.646	26.06
687.969	24.86
688.292	25.17
688.614	25.68
688.937	25.74
689.26	25.47
689.582	25.64
689.904	24.75
690.227	24.89
690.549	25.23
690.871	25.09
691.194	25.64
691.516	25.73
691.838	26.39
692.16	25.59
692.482	25.58
692.804	26.01
693.126	25.76
693.448	26.45
693.769	25.73
694.091	25.88
694.413	26
694.735	24.83
695.056	25.61
695.378	26.26
695.699	26.69
696.021	25.89
696.342	26.11
696.663	26.35
696.984	26.63
697.306	25.96
697.627	26.56
697.948	26.51
698.269	27.04
698.59	26.91
698.911	26.88
699.232	26.24
699.553	25.69
699.873	25.95
700.194	25.99
700.515	26.89
700.835	26.56
701.156	26.48
701.477	26.66
701.797	26.42
702.117	26.17
702.438	27.03
702.758	27.28
703.078	26.81
703.398	27.23
703.719	26.67
704.039	26.69
704.359	26.52
704.679	28.08
704.999	27.42
705.319	27.5
705.638	26.52
705.958	27.56
706.278	28.36
706.597	27.61
706.917	27.53
707.237	27.04
707.556	27.79
707.876	27.31
708.195	27.71
708.514	27.44
708.834	28.35
709.153	26.96
709.472	28.28
709.791	27.88
710.11	28.11
710.429	27.79
710.748	28.06
711.067	27.18
711.386	28.7
711.705	27.9
712.023	27.93
712.342	27.74
712.661	28.86
712.979	29.04
713.298	28.79
713.616	28.85
713.935	27.97
714.253	28.41
714.572	28.12
714.89	28.24
715.208	28.13
715.526	29.43
715.844	29.44
716.162	28.53
716.48	27.91
716.798	28.31
717.116	29.6
717.434	29.7
717.752	28.6
718.069	28.53
718.387	28.76
718.705	28.98
719.022	28.83
719.34	29.29
719.657	28.89
719.975	29.3
720.292	28.73
720.609	29.1
720.927	29.77
721.244	30.22
721.561	29.52
721.878	29.94
722.195	29.99
722.512	29.98
722.829	29.62
723.146	29.73
723.463	28.81
723.779	30.1
724.096	29.65
724.413	29.55
724.729	30.72
725.046	29.01
725.362	30.33
725.679	30.89
725.995	30.8
726.311	29.56
726.628	29.77
726.944	30.43
727.26	29.42
727.576	30.65
727.892	30.35
728.208	30.83
728.524	29.91
728.84	30.45
729.156	29.27
729.472	29.89
729.787	30.38
730.103	30.19
730.419	29.74
730.734	29.98
731.05	30.42
731.365	30.93
731.681	31.19
731.996	30.25
732.311	30.27
732.626	30.46
732.942	31.52
733.257	32.3
733.572	30.69
733.887	31.03
734.202	30.85
734.517	31.38
734.832	31.24
735.146	32.33
735.461	32.29
735.776	32.75
736.091	32.24
736.405	32.11
736.72	31.12
737.034	32.8
737.349	31.2
737.663	33.02
737.977	31.39
738.292	32.54
738.606	31.25
738.92	31.11
739.234	31.3
739.548	30.24
739.862	32.87
740.176	31.97
740.49	33.26
740.804	30.14
741.117	31.85
741.431	32.34
741.745	30.33
742.058	31.79
742.372	32.04
742.685	31.89
742.999	34.45
743.312	32.38
743.626	31.5
743.939	32.02
744.252	33.13
744.565	32.46
744.878	32.86
745.191	31.87
745.505	31.97
745.817	31.83
746.13	32.92
746.443	32.91
746.756	34.38
747.069	33.66
747.381	33.49
747.694	32.57
748.007	31.52
748.319	32.9
748.632	32.93
748.944	32.94
749.256	33.11
749.569	33.15
749.881	34.06
750.193	33
750.505	32.33
750.817	33.41
751.129	34.2
751.441	32.53
751.753	33.25
752.065	32.88
752.377	33.16
752.689	33.13
753	33.28
753.312	33.43
753.624	33.54
753.935	32.06
754.247	34.84
754.558	34.12
754.869	34.29
755.181	31.94
755.492	32.09
755.803	34.31
756.114	33.03
756.425	34.42
756.736	34.86
757.047	34.44
757.358	34.33
757.669	34.9
757.98	34.5
758.291	34.2
758.601	32.88
758.912	33.29
759.223	33.01
759.533	33.01
759.844	33.96
760.154	35.43
760.464	34.51
760.775	32.43
761.085	34.09
761.395	34.25
761.705	34.78
762.016	33.1
762.326	34.82
762.636	34.4
762.945	33.61
763.255	34.54
763.565	34.74
763.875	35.33
764.185	34.09
764.494	34.51
764.804	35.39
765.113	33.71
765.423	35.86
765.732	36.09
766.042	34.44
766.351	36.18
766.66	34.58
766.97	34.95
767.279	34.31
767.588	35.4
767.897	34.11
768.206	34.7
768.515	35.22
768.824	34.92
769.133	33.96
769.441	35.04
769.75	36.65
770.059	34.01
770.367	34.38
770.676	36.89
770.984	34.17
771.293	35.07
771.601	36.41
771.91	34.44
772.218	35.54
772.526	35.06
772.834	34.2
773.142	35.6
773.45	36.24
773.758	36.66
774.066	38.27
774.374	36.15
774.682	36.22
774.99	36.01
775.298	37.52
775.605	35.02
775.913	35.79
776.22	36.15
776.528	37.12
776.835	34.2
777.143	38.62
777.45	39.31
777.757	36.27
778.065	38.83
778.372	36.99
778.679	34.56
778.986	34.48
779.293	33.02
779.6	37.13
779.907	36.06
780.214	36.5
780.52	36.64
780.827	34.17
781.134	33.87
781.44	33.64
781.747	33.38
782.053	35.94
782.36	35.8
782.666	38.45
782.973	37.52
783.279	37.94
783.585	36.96
783.891	37.39
784.197	34.81
784.503	34.03
784.809	35.69
785.115	40.51
785.421	37.57
785.727	38.41
786.033	39.52
786.339	40.98
786.644	34.61
786.95	36.5
787.255	35.04
787.561	34.43
787.866	37.38
788.172	41.12
788.477	35.87
788.782	35.3
789.088	37.76
789.393	39.47
789.698	37.08
790.003	43.06
790.308	39.72
790.613	38.39
790.918	38.72
791.223	35.62
791.527	38.16
791.832	40.07
792.137	39.18
792.441	38.58
792.746	41.33
793.05	35.47
793.355	38.16
793.659	40.12
793.963	37.13
794.268	39.78
794.572	37.36
794.876	34.86
795.18	37.32
795.484	37.98
795.788	39.57
796.092	37.8
796.396	35.54
796.7	36.33
797.004	38.49
797.307	36.91
797.611	38.96
797.915	40.71
798.218	37.75
798.522	37.22
798.825	37
799.128	41.24
799.432	37.05
799.735	40.56
800.038	35.28
800.341	40.39
800.644	39.21
800.947	38.92
801.25	39.32
801.553	39.78
801.856	41.11
802.159	43.38
802.462	37.61
802.764	37.14
803.067	37.6
803.37	34.78
803.672	37.64
803.975	41.94
804.277	32.54
804.579	36.86
804.882	35.79
805.184	36.73
805.486	38.7
805.788	36.76
806.09	35.36
806.392	36.78
806.694	40.73
806.996	41.13
807.298	42.08
807.6	36.62
807.902	37.84
808.203	40.81
808.505	42.41
808.807	37.55
809.108	40.22
809.409	36.47
809.711	42.15
810.012	39.68
810.313	43.86
810.615	36.17
810.916	46.4
811.217	37.37
811.518	34.69
811.819	41.6
812.12	42.19
812.421	39.95
812.722	41.22
813.023	39.87
813.323	36.8
813.624	42.1
813.925	38.75
814.225	39.64
814.526	38.08
814.826	40.87
815.126	42.8
815.427	39.78
815.727	44.97
816.027	42.19
816.327	40.78
816.627	41.05
816.927	32.57
817.227	41.26
817.527	38.44
817.827	41.62
818.127	37.59
818.427	46.68
818.727	43.95
819.026	49.43
819.326	40.79
819.625	40.47
819.925	48.46
820.224	36.83
820.524	45.64
820.823	32.32
821.122	47.62
821.421	43.06
821.72	40.06
822.019	43.1
822.318	41.07
822.617	44.54
822.916	41.37
823.215	39.61
823.514	44.62
823.813	43.12
824.111	40.92
824.41	40.48
824.709	41.79
825.007	40.53
825.306	41.73
825.604	41.62
825.902	40.64
826.201	41.05
826.499	41.81
826.797	40.85
827.095	41.39
827.393	42.34
827.691	41.58
827.989	40.4
828.287	43.23
828.585	43.11
828.882	44.28
829.18	42.25
829.478	44.76
829.775	41.37
830.073	41.1
830.37	40.77
830.668	42.17
830.965	43.36
831.263	42.06
831.56	45.3
831.857	43.61
832.154	44.59
832.451	45.44
832.748	40.56
833.045	42.1
833.342	41.18
833.639	46.74
833.936	44.66
834.232	48.5
834.529	40.79
834.826	43.49
835.122	43.22
835.419	42.18
835.715	36.95
836.012	39.41
836.308	43.11
836.604	42.86
836.901	41.95
837.197	42.81
837.493	46.16
837.789	39.97
838.085	45.32
838.381	42.89
838.677	40.48
838.972	42.32
839.268	37.29
839.564	42.7
839.86	40.49
840.155	41.96
840.451	47.39
840.746	46.3
841.042	44.45
841.337	38.59
841.632	31.9
841.928	45.4
842.223	50.56
842.518	46.18
842.813	40.98
843.108	41.29
843.403	45.83
843.698	43.15
843.993	48.39
844.287	38.46
844.582	39.18
844.877	42.28
845.171	50.55
845.466	42.02
845.761	41.28
846.055	41.3
846.349	42.88
846.644	51.98
846.938	44.54
847.232	52.65
847.526	47.3
847.82	39.15
848.114	48.53
848.408	47.75
848.702	33.09
848.996	33.15
849.29	43.99
849.584	50.69
849.877	51.72
850.171	45.53
850.465	49.04
850.758	47.8
851.052	48.43
851.345	55.06
851.638	34.91
851.932	59.44
852.225	54.08
852.518	33.77
852.811	15
853.104	48.51
853.397	28.54
853.69	51.63
853.983	33.79
854.276	59.04
854.569	35.25
854.861	34.26
855.154	29.19
855.447	48.1
855.739	47.16
856.032	38.67
856.324	31.79
856.616	50.99
856.909	27.44
857.201	44.96
857.493	52.81
857.785	46.69
858.077	30.87
858.369	31.18
858.661	36.66
858.953	46.98
859.245	52.65
859.537	48.54
859.829	43.81
860.12	32.18
860.412	49.62
860.703	45.61
860.995	36.02
861.286	72.67
861.578	50.15
861.869	61.03
862.16	43.04
862.452	19.45
862.743	37.71
863.034	42.89
863.325	43.49
863.616	53.83
863.907	55.42
864.198	32.13
864.488	40
864.779	44.85
865.07	33.24
865.36	37.81
865.651	42.43
865.941	55.75
866.232	54.8
866.522	44.58
866.813	54.67
867.103	34.42
867.393	73.73
867.683	70.79
867.973	34.11
868.263	47.76
868.553	45.87
868.843	44.06
869.133	52.06
869.423	45.8
869.713	22.06
870.002	51.71
870.292	49.99
870.582	34.19
870.871	38.68
871.161	47.19
871.45	50.98
871.739	30.99
872.029	54.91
872.318	57.38
872.607	49.31
872.896	40.18
873.185	62.95
873.474	19.8
873.763	51.16
874.052	39.05
874.341	67.03
874.63	47.67
874.918	42.11
875.207	30.69
875.496	64.33
875.784	44.18
876.073	48.68
876.361	76.84
876.649	25.2
876.938	33.02
877.226	42.78
877.514	60.54
877.802	63.71
878.09	52.27
878.378	48.56
878.666	56.07
878.954	54.82
879.242	44.12
879.53	39.89
879.817	32.6
880.105	36.29
880.392	38.46
880.68	43.98
880.967	48.69
881.255	45.68
881.542	35.3
881.83	33.06
882.117	55.56
882.404	53.94
882.691	34.55
882.978	54.93
883.265	47.87
883.552	51.52
883.839	31.52
884.126	47.81
884.413	47.49
884.699	44.38
884.986	49.47
885.273	46.69
885.559	46.69
885.846	46.69
