Data from 0035_crown_Reflection__1__21.txt Node

Date: Fri Nov 04 14:49:04 CDT 2022
User: ToomeyLab
Spectrometer: FLMS14357
Trigger mode: 0
Integration Time (sec): 1.000000E-2
Scans to average: 100
Electric dark correction enabled: true
Nonlinearity correction enabled: false
Boxcar width: 0
XAxis mode: Wavelengths
Number of Pixels in Spectrum: 2048
>>>>>Begin Spectral Data<<<<<
189.047	129.66
189.435	129.66
189.823	129.66
190.211	377.58
190.599	169.81
190.987	-1826.88
191.375	-124.89
191.763	67.07
192.151	164.85
192.538	22.05
192.926	510.08
193.314	-82.74
193.702	30.38
194.089	168.66
194.477	172.09
194.864	110.15
195.252	90.53
195.639	311.42
196.027	-24.59
196.414	214.29
196.801	231.17
197.189	-307.64
197.576	37.08
197.963	668.22
198.351	-29.1
198.738	29.21
199.125	-18.82
199.512	2.55
199.899	23.82
200.286	37.18
200.673	9.1
201.06	9.66
201.447	42.73
201.833	-27.83
202.22	29.26
202.607	27.78
202.994	21.74
203.38	26.71
203.767	-30.78
204.154	35.34
204.54	40.18
204.927	7.88
205.313	21.43
205.699	25.51
206.086	52.37
206.472	50.54
206.858	31.73
207.245	43.19
207.631	13.46
208.017	10.15
208.403	33.72
208.789	29.27
209.175	0.88
209.561	3.53
209.947	14.15
210.333	47.86
210.719	9.9
211.105	24.73
211.491	30.45
211.876	24.18
212.262	18.37
212.648	38.45
213.034	45.16
213.419	6.45
213.805	-2.18
214.19	28.46
214.576	-8.94
214.961	23.59
215.346	3.65
215.732	-7.94
216.117	-1.4
216.502	23.44
216.888	-14.13
217.273	-5.26
217.658	26.89
218.043	6.47
218.428	6.77
218.813	5.95
219.198	-3.18
219.583	-1.14
219.968	-6.35
220.353	-0.58
220.738	4.82
221.122	-2.19
221.507	14.31
221.892	9.5
222.276	-13.28
222.661	12.81
223.046	-4.46
223.43	0.9
223.815	8.1
224.199	4.78
224.583	5.14
224.968	4.08
225.352	0.82
225.736	11.37
226.121	8.3
226.505	11.43
226.889	0.97
227.273	4.22
227.657	3.62
228.041	8.95
228.425	8.19
228.809	2.45
229.193	9.31
229.577	3.4
229.961	4.16
230.344	3.8
230.728	4.02
231.112	5.45
231.495	4.39
231.879	4.92
232.263	3.28
232.646	4.66
233.03	4.25
233.413	4.56
233.797	4.49
234.18	3.6
234.563	5.76
234.946	3.9
235.33	5.2
235.713	5.32
236.096	4.59
236.479	4.93
236.862	4.31
237.245	4.65
237.628	3.2
238.011	5.99
238.394	5.16
238.777	5.58
239.16	5.12
239.543	5.75
239.925	3.65
240.308	4.63
240.691	3.65
241.073	3.29
241.456	4.94
241.838	3.1
242.221	4.13
242.603	4.24
242.986	5.39
243.368	4.86
243.75	4.75
244.133	4.25
244.515	4.65
244.897	4.2
245.279	4.32
245.661	4.55
246.043	3.96
246.425	4.31
246.807	4.22
247.189	4.25
247.571	4.74
247.953	3.9
248.335	4.02
248.717	4.14
249.098	4.21
249.48	4.09
249.862	4.18
250.243	4.61
250.625	4.46
251.006	4.4
251.388	3.99
251.769	4.54
252.151	3.81
252.532	3.08
252.913	4.48
253.295	4.47
253.676	3.91
254.057	4.52
254.438	4.73
254.819	4.12
255.2	4.94
255.581	4.71
255.962	3.86
256.343	3.69
256.724	3.39
257.105	5.06
257.486	4.64
257.867	4.78
258.247	4.65
258.628	3.68
259.009	4.61
259.389	3.78
259.77	3.99
260.15	4.3
260.531	3.86
260.911	4.01
261.292	3.73
261.672	3.86
262.052	3.67
262.432	3.69
262.813	4.25
263.193	3.84
263.573	3.87
263.953	3.55
264.333	3.52
264.713	4
265.093	3.05
265.473	3.86
265.853	3.97
266.233	4.49
266.612	3.98
266.992	3.9
267.372	3.9
267.752	3.81
268.131	3.49
268.511	3.82
268.89	3.9
269.27	3.77
269.649	3.33
270.029	3.58
270.408	3.85
270.787	4.22
271.167	3.82
271.546	4.15
271.925	3.96
272.304	3.6
272.683	3.63
273.062	3.59
273.441	3.51
273.82	3.68
274.199	4.15
274.578	3.42
274.957	3.65
275.336	3.42
275.715	3.52
276.093	4.03
276.472	3.75
276.851	3.37
277.229	3.42
277.608	3.29
277.986	3.85
278.365	3.83
278.743	3.95
279.122	3.3
279.5	2.86
279.878	4.05
280.257	4
280.635	3.3
281.013	3.47
281.391	3.85
281.769	3.22
282.147	3.08
282.525	3.35
282.903	3.15
283.281	3.65
283.659	3.67
284.037	3.6
284.415	3.51
284.792	3.65
285.17	3.2
285.548	3.46
285.925	3.51
286.303	3.63
286.68	3.55
287.058	2.84
287.435	3.14
287.813	3.17
288.19	3.61
288.567	3.53
288.945	3.2
289.322	3.44
289.699	3.53
290.076	3.24
290.453	3.73
290.83	2.72
291.207	3.11
291.584	3.65
291.961	3.41
292.338	3.69
292.715	3.39
293.092	2.84
293.469	3.87
293.845	3.27
294.222	3.46
294.599	3.8
294.975	3.73
295.352	3.03
295.728	3.58
296.105	3.43
296.481	3.4
296.858	3.52
297.234	3.48
297.61	3.25
297.986	3.37
298.363	3.4
298.739	3.49
299.115	3.4
299.491	3.26
299.867	3.59
300.243	3.27
300.619	3.05
300.995	3.3
301.371	3.02
301.746	3.06
302.122	3.17
302.498	3.02
302.874	3.18
303.249	2.81
303.625	3.84
304	2.99
304.376	3.51
304.751	3.42
305.127	3.36
305.502	3
305.878	3.02
306.253	3.09
306.628	3.96
307.003	2.68
307.378	3.19
307.754	3.19
308.129	3.15
308.504	2.84
308.879	3.28
309.254	2.95
309.629	3.67
310.003	3.85
310.378	3.45
310.753	3.6
311.128	2.96
311.502	3.27
311.877	3.19
312.252	3.08
312.626	3.38
313.001	3.26
313.375	2.77
313.75	3.23
314.124	2.85
314.498	3
314.873	3.44
315.247	3.06
315.621	2.62
315.995	3.22
316.369	3
316.743	2.93
317.117	2.93
317.491	2.75
317.865	3.13
318.239	3.24
318.613	3.5
318.987	2.98
319.361	2.74
319.734	2.67
320.108	2.88
320.482	3.28
320.855	3.24
321.229	3.01
321.602	3.06
321.976	3.23
322.349	3.1
322.723	3.01
323.096	3.25
323.469	3.51
323.843	2.95
324.216	3.04
324.589	2.94
324.962	3.47
325.335	2.83
325.708	3.3
326.081	3.34
326.454	3.38
326.827	2.95
327.2	2.88
327.573	3.15
327.945	3
328.318	3.33
328.691	2.79
329.063	3.06
329.436	3.02
329.809	2.91
330.181	3.19
330.553	3.03
330.926	3.26
331.298	3.48
331.671	3.39
332.043	2.87
332.415	3.04
332.787	2.73
333.159	3.56
333.532	3.38
333.904	2.7
334.276	2.67
334.648	3.1
335.02	3.17
335.391	3.19
335.763	3.15
336.135	3.23
336.507	3.29
336.879	2.53
337.25	3.08
337.622	3.07
337.993	2.68
338.365	3.02
338.736	3.17
339.108	3.01
339.479	3.38
339.851	3.05
340.222	3.16
340.593	3.45
340.964	2.78
341.336	2.99
341.707	2.94
342.078	3.42
342.449	2.89
342.82	2.86
343.191	2.85
343.562	3.48
343.933	3.17
344.303	3.15
344.674	2.81
345.045	3.05
345.416	3.72
345.786	3.3
346.157	3.1
346.527	3.07
346.898	2.86
347.268	3.4
347.639	3.1
348.009	3.23
348.38	2.64
348.75	3.09
349.12	3.14
349.49	2.8
349.861	2.82
350.231	2.75
350.601	2.9
350.971	2.96
351.341	3.16
351.711	3.22
352.081	2.84
352.45	3
352.82	3.07
353.19	3.2
353.56	3.42
353.929	3.18
354.299	3.01
354.669	2.99
355.038	3.42
355.408	3
355.777	3.1
356.147	3.37
356.516	3.44
356.885	3.2
357.254	3.26
357.624	3.18
357.993	2.85
358.362	3.14
358.731	2.89
359.1	2.86
359.469	3.25
359.838	3.29
360.207	3.45
360.576	3.33
360.945	3.09
361.314	3.18
361.682	3.03
362.051	2.74
362.42	3.31
362.788	3.1
363.157	3.02
363.525	3.19
363.894	3.29
364.262	3.12
364.631	3.1
364.999	3.35
365.367	2.83
365.735	3.07
366.104	3.31
366.472	3.1
366.84	3.04
367.208	3.12
367.576	3.27
367.944	3
368.312	3.09
368.68	3.37
369.048	2.87
369.416	3.07
369.783	3.48
370.151	3.59
370.519	3.43
370.886	3.08
371.254	3.32
371.621	3.3
371.989	3.07
372.356	3.28
372.724	3.39
373.091	3.17
373.458	3.2
373.826	3.24
374.193	3.3
374.56	3.39
374.927	3.4
375.294	3.18
375.661	3.2
376.028	3.14
376.395	3.53
376.762	3.44
377.129	3.43
377.496	3.07
377.863	3.37
378.229	3.18
378.596	3.14
378.963	3.47
379.329	3.27
379.696	3.18
380.062	2.91
380.429	3.34
380.795	3.28
381.161	2.86
381.528	3.66
381.894	3.63
382.26	3.15
382.626	3.03
382.993	3.18
383.359	3.7
383.725	3.29
384.091	3.26
384.457	3.47
384.823	3.48
385.188	3.1
385.554	3.45
385.92	3.01
386.286	3.39
386.651	3.72
387.017	3.18
387.383	3.4
387.748	3.32
388.114	3.62
388.479	3.25
388.845	3.25
389.21	3.35
389.575	3.24
389.94	3.57
390.306	3.3
390.671	3.25
391.036	3.27
391.401	3.39
391.766	3.16
392.131	3.28
392.496	3.28
392.861	3.43
393.226	3.47
393.591	3.58
393.956	3.26
394.32	3.17
394.685	3.38
395.05	3.09
395.414	3.47
395.779	3.28
396.143	3.38
396.508	3.23
396.872	3.2
397.236	3.38
397.601	3.32
397.965	3.56
398.329	3.31
398.694	3.27
399.058	3.55
399.422	3.48
399.786	3.52
400.15	3.32
400.514	3.35
400.878	3.19
401.242	3.56
401.605	3.43
401.969	3.49
402.333	3.33
402.697	3.57
403.06	3.36
403.424	3.23
403.787	3.38
404.151	3.36
404.514	3.56
404.878	3.4
405.241	3.3
405.604	3.35
405.968	3.37
406.331	3.57
406.694	3.32
407.057	3.42
407.42	3.39
407.783	3.6
408.146	3.42
408.509	3.45
408.872	3.47
409.235	3.5
409.598	3.32
409.961	3.51
410.323	3.4
410.686	3.49
411.049	3.56
411.411	3.52
411.774	3.51
412.136	3.38
412.499	3.29
412.861	3.56
413.223	3.43
413.586	3.31
413.948	3.49
414.31	3.49
414.672	3.53
415.035	3.56
415.397	3.64
415.759	3.5
416.121	3.29
416.483	3.55
416.845	3.35
417.206	3.57
417.568	3.52
417.93	3.42
418.292	3.53
418.653	3.28
419.015	3.49
419.377	3.39
419.738	3.42
420.1	3.3
420.461	3.43
420.822	3.36
421.184	3.45
421.545	3.37
421.906	3.41
422.267	3.3
422.629	3.31
422.99	3.35
423.351	3.38
423.712	3.38
424.073	3.39
424.434	3.33
424.795	3.3
425.155	3.37
425.516	3.37
425.877	3.42
426.238	3.33
426.598	3.41
426.959	3.38
427.32	3.44
427.68	3.49
428.041	3.48
428.401	3.47
428.761	3.48
429.122	3.5
429.482	3.57
429.842	3.56
430.202	3.53
430.563	3.59
430.923	3.49
431.283	3.54
431.643	3.42
432.003	3.58
432.363	3.53
432.722	3.55
433.082	3.41
433.442	3.44
433.802	3.34
434.161	3.62
434.521	3.47
434.881	3.46
435.24	3.58
435.6	3.51
435.959	3.44
436.319	3.51
436.678	3.56
437.037	3.42
437.396	3.66
437.756	3.59
438.115	3.61
438.474	3.6
438.833	3.47
439.192	3.53
439.551	3.39
439.91	3.39
440.269	3.57
440.628	3.53
440.987	3.53
441.345	3.42
441.704	3.52
442.063	3.59
442.421	3.35
442.78	3.32
443.138	3.39
443.497	3.47
443.855	3.58
444.214	3.64
444.572	3.39
444.93	3.57
445.288	3.44
445.647	3.51
446.005	3.56
446.363	3.63
446.721	3.44
447.079	3.45
447.437	3.36
447.795	3.37
448.153	3.44
448.51	3.34
448.868	3.4
449.226	3.43
449.584	3.49
449.941	3.49
450.299	3.53
450.656	3.52
451.014	3.44
451.371	3.65
451.729	3.65
452.086	3.58
452.443	3.6
452.801	3.75
453.158	3.53
453.515	3.69
453.872	3.63
454.229	3.48
454.586	3.49
454.943	3.55
455.3	3.6
455.657	3.51
456.014	3.47
456.371	3.61
456.727	3.57
457.084	3.55
457.441	3.65
457.797	3.56
458.154	3.56
458.51	3.78
458.867	3.53
459.223	3.45
459.58	3.44
459.936	3.62
460.292	3.45
460.648	3.67
461.005	3.48
461.361	3.47
461.717	3.48
462.073	3.48
462.429	3.42
462.785	3.51
463.141	3.47
463.496	3.57
463.852	3.63
464.208	3.82
464.564	3.7
464.919	3.55
465.275	3.4
465.631	3.65
465.986	3.4
466.342	3.57
466.697	3.76
467.052	3.68
467.408	3.54
467.763	3.62
468.118	3.56
468.473	3.77
468.829	3.7
469.184	3.56
469.539	3.76
469.894	3.61
470.249	3.75
470.603	3.74
470.958	3.7
471.313	3.63
471.668	3.61
472.023	3.66
472.377	3.6
472.732	3.65
473.086	3.72
473.441	3.51
473.795	3.63
474.15	3.55
474.504	3.76
474.859	3.53
475.213	3.61
475.567	3.49
475.921	3.54
476.275	3.67
476.63	3.6
476.984	3.88
477.338	3.75
477.692	3.72
478.045	3.6
478.399	3.57
478.753	3.66
479.107	3.58
479.461	3.64
479.814	3.59
480.168	3.69
480.521	3.49
480.875	3.67
481.228	3.63
481.582	3.62
481.935	3.5
482.289	3.49
482.642	3.66
482.995	3.57
483.348	3.63
483.701	3.59
484.055	3.47
484.408	3.57
484.761	3.44
485.114	3.41
485.466	3.3
485.819	3.33
486.172	3.32
486.525	3.37
486.878	3.39
487.23	3.48
487.583	3.52
487.936	3.46
488.288	3.48
488.641	3.41
488.993	3.38
489.345	3.41
489.698	3.38
490.05	3.36
490.402	3.39
490.754	3.48
491.107	3.57
491.459	3.47
491.811	3.61
492.163	3.61
492.515	3.54
492.866	3.51
493.218	3.46
493.57	3.42
493.922	3.4
494.274	3.43
494.625	3.52
494.977	3.51
495.328	3.54
495.68	3.59
496.031	3.72
496.383	3.54
496.734	3.62
497.086	3.52
497.437	3.69
497.788	3.52
498.139	3.61
498.49	3.63
498.842	3.56
499.193	3.57
499.544	3.51
499.894	3.53
500.245	3.64
500.596	3.64
500.947	3.6
501.298	3.61
501.648	3.71
501.999	3.73
502.35	3.7
502.7	3.6
503.051	3.66
503.401	3.76
503.752	3.76
504.102	3.58
504.452	3.69
504.803	3.65
505.153	3.63
505.503	3.7
505.853	3.57
506.203	3.56
506.553	3.6
506.903	3.69
507.253	3.65
507.603	3.79
507.953	3.69
508.303	3.75
508.652	3.57
509.002	3.64
509.352	3.64
509.701	3.65
510.051	3.45
510.4	3.61
510.75	3.66
511.099	3.51
511.449	3.51
511.798	3.59
512.147	3.57
512.496	3.59
512.846	3.67
513.195	3.54
513.544	3.57
513.893	3.61
514.242	3.63
514.591	3.61
514.939	3.71
515.288	3.57
515.637	3.57
515.986	3.63
516.334	3.75
516.683	3.7
517.032	3.61
517.38	3.6
517.729	3.69
518.077	3.66
518.426	3.66
518.774	3.75
519.122	3.46
519.47	3.63
519.819	3.56
520.167	3.52
520.515	3.55
520.863	3.51
521.211	3.53
521.559	3.6
521.907	3.55
522.255	3.61
522.602	3.53
522.95	3.54
523.298	3.62
523.645	3.57
523.993	3.68
524.341	3.6
524.688	3.57
525.036	3.66
525.383	3.65
525.73	3.63
526.078	3.66
526.425	3.62
526.772	3.54
527.119	3.49
527.466	3.54
527.814	3.41
528.161	3.49
528.508	3.48
528.854	3.63
529.201	3.54
529.548	3.49
529.895	3.44
530.242	3.34
530.588	3.33
530.935	3.39
531.282	3.39
531.628	3.45
531.975	3.41
532.321	3.54
532.667	3.47
533.014	3.57
533.36	3.55
533.706	3.56
534.052	3.55
534.399	3.46
534.745	3.44
535.091	3.43
535.437	3.38
535.783	3.41
536.129	3.44
536.474	3.62
536.82	3.5
537.166	3.61
537.512	3.68
537.857	3.59
538.203	3.56
538.549	3.44
538.894	3.45
539.239	3.53
539.585	3.49
539.93	3.5
540.276	3.6
540.621	3.56
540.966	3.67
541.311	3.5
541.656	3.52
542.001	3.45
542.346	3.55
542.691	3.44
543.036	3.45
543.381	3.37
543.726	3.37
544.071	3.35
544.415	3.5
544.76	3.53
545.105	3.53
545.449	3.53
545.794	3.54
546.138	3.58
546.483	3.61
546.827	3.51
547.171	3.47
547.516	3.52
547.86	3.56
548.204	3.54
548.548	3.42
548.892	3.42
549.236	3.6
549.58	3.52
549.924	3.64
550.268	3.51
550.612	3.55
550.956	3.52
551.3	3.6
551.643	3.63
551.987	3.66
552.33	3.55
552.674	3.55
553.017	3.65
553.361	3.48
553.704	3.56
554.048	3.63
554.391	3.65
554.734	3.54
555.077	3.56
555.42	3.71
555.764	3.6
556.107	3.62
556.45	3.73
556.793	3.63
557.135	3.76
557.478	3.56
557.821	3.61
558.164	3.55
558.507	3.68
558.849	3.65
559.192	3.52
559.534	3.73
559.877	3.57
560.219	3.7
560.562	3.54
560.904	3.62
561.246	3.58
561.589	3.75
561.931	3.66
562.273	3.61
562.615	3.75
562.957	3.55
563.299	3.59
563.641	3.61
563.983	3.62
564.325	3.64
564.667	3.46
565.008	3.51
565.35	3.61
565.692	3.48
566.033	3.7
566.375	3.53
566.716	3.74
567.058	3.89
567.399	3.64
567.741	3.43
568.082	3.55
568.423	3.54
568.764	3.64
569.105	3.54
569.447	3.49
569.788	3.63
570.129	3.66
570.47	3.71
570.811	3.41
571.151	3.64
571.492	3.79
571.833	3.74
572.174	3.59
572.514	3.72
572.855	3.5
573.195	3.53
573.536	3.53
573.876	3.52
574.217	3.49
574.557	3.6
574.898	3.49
575.238	3.52
575.578	3.66
575.918	3.47
576.258	3.73
576.598	3.63
576.938	3.54
577.278	3.54
577.618	3.59
577.958	3.43
578.298	3.61
578.638	3.65
578.977	3.38
579.317	3.57
579.657	3.77
579.996	3.52
580.336	3.72
580.675	3.68
581.014	3.57
581.354	3.68
581.693	3.61
582.032	3.52
582.372	3.62
582.711	3.48
583.05	3.62
583.389	3.52
583.728	3.68
584.067	3.51
584.406	3.44
584.745	3.69
585.083	3.56
585.422	3.63
585.761	3.42
586.1	3.72
586.438	3.72
586.777	3.7
587.115	3.58
587.454	3.67
587.792	3.7
588.13	4.07
588.469	3.72
588.807	3.83
589.145	3.67
589.483	3.8
589.821	3.54
590.159	3.53
590.497	3.57
590.835	3.67
591.173	3.52
591.511	3.33
591.849	3.64
592.187	3.4
592.524	3.58
592.862	3.39
593.2	3.62
593.537	3.58
593.875	3.7
594.212	3.61
594.55	3.65
594.887	3.39
595.224	3.6
595.561	3.71
595.899	3.47
596.236	3.43
596.573	3.59
596.91	3.68
597.247	3.79
597.584	3.45
597.921	3.48
598.258	3.71
598.594	3.57
598.931	3.45
599.268	3.66
599.604	3.51
599.941	3.43
600.277	3.61
600.614	3.28
600.95	3.57
601.287	3.52
601.623	3.57
601.959	3.63
602.296	3.62
602.632	3.54
602.968	3.72
603.304	3.4
603.64	3.66
603.976	3.69
604.312	3.71
604.648	3.58
604.984	3.47
605.319	3.49
605.655	3.57
605.991	3.34
606.326	3.55
606.662	3.49
606.998	3.5
607.333	3.6
607.668	3.52
608.004	3.55
608.339	3.59
608.674	3.55
609.01	3.77
609.345	3.55
609.68	3.54
610.015	3.66
610.35	3.65
610.685	3.49
611.02	3.64
611.355	3.67
611.689	3.57
612.024	3.6
612.359	3.76
612.694	3.38
613.028	3.48
613.363	3.66
613.697	3.56
614.032	3.74
614.366	3.6
614.7	3.75
615.035	3.59
615.369	3.99
615.703	3.54
616.037	3.84
616.371	3.73
616.705	3.47
617.039	3.58
617.373	3.58
617.707	3.68
618.041	3.49
618.375	3.68
618.709	3.57
619.042	3.34
619.376	3.5
619.71	3.74
620.043	4.02
620.377	3.9
620.71	3.84
621.043	3.72
621.377	3.69
621.71	3.37
622.043	3.65
622.376	3.63
622.709	3.72
623.043	3.52
623.376	3.59
623.709	3.68
624.041	3.98
624.374	3.55
624.707	3.78
625.04	4.15
625.373	3.5
625.705	3.62
626.038	4.1
626.37	3.83
626.703	3.66
627.035	3.42
627.368	3.41
627.7	3.62
628.032	3.67
628.365	3.77
628.697	3.56
629.029	3.59
629.361	3.49
629.693	3.54
630.025	3.65
630.357	3.55
630.689	3.89
631.021	3.74
631.353	3.49
631.684	3.75
632.016	3.37
632.348	3.76
632.679	3.54
633.011	3.59
633.342	4.1
633.674	3.7
634.005	3.92
634.336	3.38
634.668	3.72
634.999	3.66
635.33	3.83
635.661	3.56
635.992	3.59
636.323	3.81
636.654	3.83
636.985	3.88
637.316	3.78
637.647	3.73
637.977	3.74
638.308	3.74
638.639	3.99
638.969	3.81
639.3	3.41
639.63	3.48
639.961	3.25
640.291	3.03
640.622	3.93
640.952	3.76
641.282	3.64
641.612	3.55
641.943	3.48
642.273	3.35
642.603	3.87
642.933	3.68
643.263	3.66
643.592	3.89
643.922	3.88
644.252	3.37
644.582	3.87
644.911	3.79
645.241	3.67
645.571	4.02
645.9	3.68
646.23	3.22
646.559	3.75
646.888	3.85
647.218	3.95
647.547	3.79
647.876	3.91
648.205	3.71
648.534	3.95
648.863	4.08
649.192	3.99
649.521	3.87
649.85	3.62
650.179	3.73
650.508	3.71
650.837	3.56
651.165	3.43
651.494	3.78
651.822	3.32
652.151	4.07
652.479	3.98
652.808	3.31
653.136	3.43
653.465	4
653.793	3.9
654.121	3.9
654.449	3.55
654.777	3.93
655.105	3.72
655.433	3.64
655.761	3.76
656.089	4.14
656.417	3.99
656.745	3.92
657.073	3.83
657.4	3.56
657.728	4
658.056	4
658.383	3.77
658.711	3.63
659.038	3.98
659.365	3.57
659.693	3.9
660.02	3.61
660.347	3.81
660.674	3.91
661.001	3.84
661.329	3.84
661.656	3.97
661.982	3.58
662.309	3.66
662.636	3.62
662.963	3.73
663.29	3.68
663.616	3.71
663.943	3.88
664.27	3.83
664.596	3.62
664.923	4.08
665.249	3.99
665.576	4.01
665.902	3.51
666.228	3.38
666.554	4.28
666.881	4.25
667.207	3.92
667.533	3.76
667.859	4.18
668.185	3.95
668.511	3.68
668.837	3.73
669.162	4.13
669.488	4.3
669.814	3.97
670.139	4.15
670.465	3.41
670.791	3.23
671.116	3.78
671.442	3.68
671.767	4.04
672.092	3.85
672.418	3.71
672.743	3.83
673.068	4.14
673.393	3.72
673.718	3.41
674.043	3.96
674.368	3.29
674.693	3.97
675.018	3.9
675.343	3.04
675.667	3.89
675.992	3.9
676.317	4.21
676.641	3.67
676.966	3.48
677.29	3.38
677.615	3.99
677.939	4.12
678.264	3.66
678.588	3.65
678.912	4.26
679.236	4.23
679.56	3.83
679.885	3.94
680.209	3.65
680.532	3.79
680.856	4.15
681.18	4.57
681.504	4.05
681.828	3.96
682.152	4.2
682.475	4.09
682.799	4.05
683.122	3.99
683.446	3.77
683.769	4.69
684.093	4.03
684.416	3.76
684.739	4.27
685.062	3.84
685.386	3.89
685.709	4.47
686.032	4.28
686.355	3.71
686.678	3.51
687.001	3.62
687.324	3.96
687.646	3.53
687.969	4.7
688.292	4.02
688.614	4.63
688.937	4.75
689.26	4.26
689.582	4.37
689.904	3.97
690.227	3.79
690.549	3.22
690.871	3.94
691.194	4.42
691.516	4.28
691.838	4.31
692.16	3.94
692.482	4.62
692.804	3.47
693.126	4.16
693.448	4.69
693.769	3.97
694.091	4.04
694.413	3.79
694.735	3.48
695.056	3.47
695.378	3.74
695.699	4.01
696.021	3.86
696.342	4.12
696.663	4.7
696.984	3.7
697.306	4.66
697.627	4.13
697.948	3.75
698.269	4.33
698.59	4.84
698.911	4.21
699.232	3.63
699.553	3.19
699.873	3.9
700.194	4.37
700.515	4.52
700.835	4.34
701.156	3.78
701.477	4.18
701.797	4.38
702.117	4.33
702.438	3.79
702.758	4.56
703.078	4.27
703.398	4.27
703.719	3.75
704.039	4
704.359	4.16
704.679	4.64
704.999	4.66
705.319	3.8
705.638	4.17
705.958	4.22
706.278	4.14
706.597	4.37
706.917	3.99
707.237	4.72
707.556	4.6
707.876	3.88
708.195	3.74
708.514	4.94
708.834	4.83
709.153	3.9
709.472	4.78
709.791	3.31
710.11	5.06
710.429	4.38
710.748	4.24
711.067	3.73
711.386	4.36
711.705	4.2
712.023	4.32
712.342	4.09
712.661	4.5
712.979	5.42
713.298	5.57
713.616	4.33
713.935	4.1
714.253	4.2
714.572	3.57
714.89	4.23
715.208	3.75
715.526	3.41
715.844	3.67
716.162	3.72
716.48	4.19
716.798	3.86
717.116	4.59
717.434	5.43
717.752	3.63
718.069	4.43
718.387	4.08
718.705	3.54
719.022	4.23
719.34	2.98
719.657	4.33
719.975	3.54
720.292	4.26
720.609	5.18
720.927	4.86
721.244	4.77
721.561	4.37
721.878	4.61
722.195	4.71
722.512	4.96
722.829	4.39
723.146	5.35
723.463	4.73
723.779	4.34
724.096	4.44
724.413	4.66
724.729	4.24
725.046	5.51
725.362	5.25
725.679	4.95
725.995	5.23
726.311	3.96
726.628	4.39
726.944	4.8
727.26	3.26
727.576	4.81
727.892	4.12
728.208	3.06
728.524	4.6
728.84	4.67
729.156	3.75
729.472	3.45
729.787	4.72
730.103	3.82
730.419	3.79
730.734	4.43
731.05	5.04
731.365	4.46
731.681	6.13
731.996	5.13
732.311	4.97
732.626	4.58
732.942	5.09
733.257	4.24
733.572	3.9
733.887	4.21
734.202	5.07
734.517	4.24
734.832	4.76
735.146	4.42
735.461	5.2
735.776	5.13
736.091	4.17
736.405	5.24
736.72	3.9
737.034	5.66
737.349	4.63
737.663	6.83
737.977	3.51
738.292	4.94
738.606	5.06
738.92	5.31
739.234	4.24
739.548	4.24
739.862	4.45
740.176	3.9
740.49	5.15
740.804	6.16
741.117	4.64
741.431	3.5
741.745	3.58
742.058	2.84
742.372	4.15
742.685	4.67
742.999	6.31
743.312	6.42
743.626	4.65
743.939	4.27
744.252	4.02
744.565	4.18
744.878	5.98
745.191	5.27
745.505	3.38
745.817	4.64
746.13	5.75
746.443	4.6
746.756	5.35
747.069	5.16
747.381	5.91
747.694	6.43
748.007	4.51
748.319	4.43
748.632	6.92
748.944	4.84
749.256	5.12
749.569	5.32
749.881	4.29
750.193	6.32
750.505	2.86
750.817	4.89
751.129	5.51
751.441	4.94
751.753	4.47
752.065	3.94
752.377	6.61
752.689	5.11
753	4.25
753.312	4.31
753.624	4.8
753.935	5.44
754.247	4.7
754.558	4.36
754.869	4.51
755.181	5.54
755.492	2.94
755.803	4.66
756.114	3.82
756.425	5.35
756.736	6.31
757.047	4.22
757.358	4.21
757.669	5.58
757.98	6.13
758.291	5.6
758.601	4.5
758.912	6.26
759.223	4.92
759.533	5.74
759.844	1.82
760.154	6.94
760.464	6.17
760.775	3.8
761.085	5.69
761.395	4.02
761.705	4.74
762.016	5.41
762.326	6.25
762.636	5.27
762.945	6.48
763.255	5.9
763.565	5.36
763.875	4.13
764.185	4.91
764.494	7.33
764.804	5.54
765.113	3.52
765.423	4.99
765.732	5.36
766.042	4.32
766.351	5.22
766.66	4.57
766.97	6.05
767.279	5.53
767.588	5.55
767.897	6.05
768.206	4.17
768.515	5.41
768.824	5.5
769.133	3.9
769.441	3.87
769.75	5.39
770.059	2.8
770.367	5.01
770.676	7.4
770.984	5.5
771.293	5.41
771.601	5.72
771.91	7.04
772.218	5.96
772.526	6.07
772.834	4.12
773.142	4.48
773.45	4.46
773.758	6.72
774.066	7.37
774.374	7
774.682	6.79
774.99	4.16
775.298	6
775.605	3.71
775.913	5.69
776.22	2.72
776.528	5.38
776.835	6.31
777.143	5.59
777.45	8.44
777.757	5.62
778.065	3.93
778.372	6.03
778.679	5.66
778.986	0.07
779.293	6.29
779.6	8.7
779.907	5.47
780.214	3.76
780.52	5.5
780.827	4.97
781.134	6.71
781.44	4.82
781.747	4.16
782.053	4.47
782.36	4.4
782.666	8.77
782.973	5.89
783.279	6.9
783.585	8.64
783.891	4.99
784.197	4.15
784.503	-0.8
784.809	8.22
785.115	9.63
785.421	3.1
785.727	6.61
786.033	10.36
786.339	3.55
786.644	5.64
786.95	6.85
787.255	7.13
787.561	5.42
787.866	4.97
788.172	9.39
788.477	5.87
788.782	7.17
789.088	6.84
789.393	3.46
789.698	3.75
790.003	9.94
790.308	6.63
790.613	5.35
790.918	7.7
791.223	8.19
791.527	6.47
791.832	4.64
792.137	5.48
792.441	5.62
792.746	7.44
793.05	6.27
793.355	6.49
793.659	11.66
793.963	3.91
794.268	5.63
794.572	5.46
794.876	7.42
795.18	2.76
795.484	11.01
795.788	8.41
796.092	2.28
796.396	5.09
796.7	8.76
797.004	5.63
797.307	5.11
797.611	3.82
797.915	5.57
798.218	6.63
798.522	3.14
798.825	1.95
799.128	8.79
799.432	4.49
799.735	4.58
800.038	2.76
800.341	4.34
800.644	5.87
800.947	8.49
801.25	9.23
801.553	4.8
801.856	6.12
802.159	6.68
802.462	1.99
802.764	6.56
803.067	4.05
803.37	4.28
803.672	7.05
803.975	9.29
804.277	2.45
804.579	4.73
804.882	3.35
805.184	6.81
805.486	9.14
805.788	4.09
806.09	1.64
806.392	6.12
806.694	8.75
806.996	3.33
807.298	8.74
807.6	5.9
807.902	5.93
808.203	8.77
808.505	11.68
808.807	6.85
809.108	8.09
809.409	7.23
809.711	9.48
810.012	10.78
810.313	17.27
810.615	2.77
810.916	5.92
811.217	7.07
811.518	4.63
811.819	2.34
812.12	7.76
812.421	11.42
812.722	1.26
813.023	3.19
813.323	-0.45
813.624	4.39
813.925	8.94
814.225	9.93
814.526	11.43
814.826	10.36
815.126	1.22
815.427	-0.3
815.727	10.06
816.027	14.03
816.327	10.27
816.627	6.51
816.927	2.78
817.227	8.6
817.527	4.67
817.827	8.85
818.127	4.55
818.427	12.17
818.727	6.2
819.026	10.29
819.326	7.83
819.625	11.07
819.925	7.6
820.224	9.54
820.524	7.38
820.823	0.99
821.122	10.65
821.421	7.2
821.72	11.06
822.019	5.75
822.318	5.75
822.617	5.15
822.916	7.81
823.215	1.28
823.514	6.28
823.813	6.95
824.111	5.78
824.41	4.66
824.709	4.07
825.007	4.76
825.306	6.45
825.604	6.6
825.902	5.29
826.201	6.42
826.499	6.85
826.797	5.94
827.095	6.32
827.393	6.13
827.691	8.6
827.989	6.23
828.287	8.24
828.585	7.97
828.882	6.9
829.18	7.32
829.478	6.49
829.775	4.76
830.073	4.95
830.37	5.39
830.668	6.4
830.965	7.78
831.263	7.12
831.56	6.22
831.857	7.98
832.154	8.94
832.451	11.69
832.748	5.87
833.045	6.17
833.342	9.54
833.639	9.37
833.936	1.59
834.232	9.9
834.529	3.66
834.826	9.24
835.122	7.83
835.419	3.97
835.715	2.12
836.012	6.36
836.308	10.52
836.604	7.07
836.901	3.1
837.197	6.46
837.493	10.09
837.789	6.33
838.085	10.89
838.381	7.82
838.677	5.64
838.972	8.49
839.268	0.39
839.564	12.6
839.86	8.54
840.155	5.64
840.451	5.73
840.746	14.56
841.042	7.8
841.337	6.95
841.632	6.34
841.928	3.42
842.223	13.15
842.518	7.91
842.813	20.12
843.108	4.56
843.403	10.9
843.698	8.24
843.993	11.83
844.287	4.86
844.582	5.29
844.877	8.52
845.171	4.93
845.466	8.27
845.761	8.66
846.055	-8.21
846.349	11.26
846.644	11.18
846.938	16.46
847.232	20.75
847.526	21.85
847.82	1.57
848.114	12.52
848.408	24.61
848.702	4.83
848.996	-8.62
849.29	2.95
849.584	-11.53
849.877	19.06
850.171	13.06
850.465	11.5
850.758	6.71
851.052	19.9
851.345	-7.34
851.638	14.95
851.932	16.57
852.225	10.29
852.518	-1.11
852.811	9.23
853.104	23.17
853.397	-1.08
853.69	-27.13
853.983	25.85
854.276	18.87
854.569	9.76
854.861	9.15
855.154	4.19
855.447	23.08
855.739	16.88
856.032	12.5
856.324	-8.74
856.616	4.54
856.909	-6.68
857.201	-1.08
857.493	21.48
857.785	1.97
858.077	6.65
858.369	1.27
858.661	0.89
858.953	-3.96
859.245	11.78
859.537	14.8
859.829	14.27
860.12	16.57
860.412	-6.58
860.703	20.21
860.995	31.95
861.286	17.53
861.578	21.22
861.869	20.6
862.16	-7.51
862.452	-0.94
862.743	10.17
863.034	-1.6
863.325	18.54
863.616	13.07
863.907	21.61
864.198	13.38
864.488	17.86
864.779	26.47
865.07	2.36
865.36	9.71
865.651	22.14
865.941	2.5
866.232	11.37
866.522	7.28
866.813	10.87
867.103	21.69
867.393	-4.15
867.683	13.12
867.973	16.55
868.263	14.36
868.553	1.69
868.843	19.17
869.133	10.97
869.423	33.15
869.713	5.05
870.002	3.52
870.292	18.26
870.582	-8.4
870.871	9.3
871.161	23.57
871.45	21.19
871.739	14.72
872.029	38.19
872.318	2.47
872.607	1.46
872.896	18.22
873.185	38.04
873.474	6.43
873.763	-22.73
874.052	0.03
874.341	28.99
874.63	11.25
874.918	12.86
875.207	6.25
875.496	28.98
875.784	-2.53
876.073	26.85
876.361	23.21
876.649	27.37
876.938	22.58
877.226	-10.85
877.514	11.73
877.802	24.06
878.09	20.12
878.378	8.91
878.666	25.14
878.954	17
879.242	-11.2
879.53	12.29
879.817	-11.98
880.105	34.21
880.392	11.55
880.68	7.53
880.967	-8.43
881.255	18.85
881.542	36.44
881.83	-5.44
882.117	15.05
882.404	20.58
882.691	-20.03
882.978	11.18
883.265	4.22
883.552	7.14
883.839	10.32
884.126	15.87
884.413	1.77
884.699	13.63
884.986	15.57
885.273	11.27
885.559	11.27
885.846	11.27
