Data from 0021_crown_Reflection__1__22.txt Node

Date: Thu Oct 20 20:31:35 CDT 2022
User: ToomeyLab
Spectrometer: FLMS14357
Trigger mode: 0
Integration Time (sec): 1.000000E-2
Scans to average: 100
Electric dark correction enabled: true
Nonlinearity correction enabled: false
Boxcar width: 0
XAxis mode: Wavelengths
Number of Pixels in Spectrum: 2048
>>>>>Begin Spectral Data<<<<<
189.047	154.26
189.435	154.26
189.823	154.26
190.211	11.95
190.599	82.88
190.987	-10.57
191.375	238.17
191.763	-21.1
192.151	-228.69
192.538	-65.37
192.926	68.11
193.314	829.49
193.702	228.14
194.089	15.11
194.477	-11.62
194.864	-484.6
195.252	131.16
195.639	140.46
196.027	125.79
196.414	832.46
196.801	-1188.66
197.189	-300.6
197.576	312.99
197.963	-190.09
198.351	35.83
198.738	-2.95
199.125	51.4
199.512	12.22
199.899	38.34
200.286	-19.18
200.673	30.85
201.06	29.48
201.447	32.49
201.833	-31
202.22	-17.38
202.607	50.43
202.994	41.67
203.38	17.87
203.767	42.49
204.154	6.96
204.54	1.69
204.927	0.66
205.313	20.44
205.699	47.43
206.086	-5.16
206.472	-4.61
206.858	21.96
207.245	26.84
207.631	-11.43
208.017	29.45
208.403	50.63
208.789	22.89
209.175	44.79
209.561	-0.97
209.947	26.57
210.333	33.18
210.719	23.59
211.105	-29.82
211.491	14.51
211.876	16.44
212.262	12.85
212.648	-10.93
213.034	20.49
213.419	11.71
213.805	16.52
214.19	18.77
214.576	19.21
214.961	5.87
215.346	-19.03
215.732	27.61
216.117	46.18
216.502	22.03
216.888	34.33
217.273	22.36
217.658	11.84
218.043	-21.68
218.428	23.26
218.813	-24.19
219.198	12.12
219.583	-0.89
219.968	9.83
220.353	11.24
220.738	5.75
221.122	3.62
221.507	-13.34
221.892	9.54
222.276	10.13
222.661	12.73
223.046	15.34
223.43	8.72
223.815	0.02
224.199	1.66
224.583	9.38
224.968	3.62
225.352	8.22
225.736	5.08
226.121	11.36
226.505	10
226.889	6.45
227.273	4.56
227.657	8.72
228.041	8.3
228.425	6.51
228.809	8.62
229.193	7.78
229.577	6.02
229.961	6.27
230.344	7.21
230.728	7.04
231.112	6.7
231.495	7.12
231.879	5.53
232.263	6.82
232.646	7.7
233.03	4.5
233.413	7.28
233.797	3.98
234.18	5.62
234.563	4.1
234.946	5.8
235.33	5.83
235.713	8.29
236.096	6.63
236.479	5.91
236.862	8.34
237.245	7.6
237.628	4.99
238.011	6.27
238.394	5.09
238.777	5.23
239.16	5.61
239.543	6.59
239.925	6.23
240.308	6.56
240.691	6.45
241.073	7.77
241.456	6.93
241.838	6.37
242.221	7.2
242.603	7.17
242.986	6.22
243.368	6.13
243.75	6.6
244.133	6.58
244.515	6.26
244.897	5.87
245.279	6.39
245.661	6.23
246.043	6.86
246.425	6.52
246.807	7.2
247.189	6.94
247.571	6.08
247.953	6.32
248.335	6.17
248.717	5.98
249.098	5.89
249.48	6.23
249.862	6.09
250.243	6.2
250.625	6.75
251.006	7.01
251.388	6.67
251.769	6.15
252.151	5.6
252.532	6.16
252.913	6.24
253.295	5.47
253.676	6
254.057	6.53
254.438	6.3
254.819	7.43
255.2	5.38
255.581	5.68
255.962	4.88
256.343	6.81
256.724	6.65
257.105	6.65
257.486	6.78
257.867	5.7
258.247	6.55
258.628	5.55
259.009	5.86
259.389	5.18
259.77	6.13
260.15	6.17
260.531	5.8
260.911	5.56
261.292	5.56
261.672	5.66
262.052	5.69
262.432	6.13
262.813	5.43
263.193	6.21
263.573	5.2
263.953	6.19
264.333	5.65
264.713	5.58
265.093	6.64
265.473	6.21
265.853	5.84
266.233	6.02
266.612	5.74
266.992	5.49
267.372	5.78
267.752	6
268.131	5.5
268.511	5.45
268.89	5.32
269.27	6.03
269.649	5.93
270.029	5.32
270.408	5.73
270.787	5.31
271.167	6.06
271.546	5.37
271.925	5.84
272.304	5.74
272.683	5.52
273.062	5.55
273.441	5.75
273.82	5.74
274.199	5.37
274.578	5.66
274.957	5.66
275.336	5.44
275.715	5.43
276.093	5.46
276.472	5.64
276.851	5.99
277.229	4.76
277.608	5.24
277.986	5.04
278.365	5.58
278.743	5.41
279.122	5.88
279.5	4.61
279.878	5.06
280.257	5.4
280.635	5.18
281.013	5.73
281.391	5.69
281.769	5.39
282.147	5.93
282.525	5.23
282.903	5.51
283.281	5.26
283.659	5.16
284.037	4.95
284.415	5.28
284.792	5.21
285.17	5.16
285.548	5.31
285.925	5.73
286.303	5.18
286.68	5.21
287.058	5.25
287.435	5.05
287.813	5.04
288.19	5.3
288.567	4.85
288.945	5.25
289.322	4.51
289.699	5.57
290.076	5.21
290.453	5.15
290.83	4.98
291.207	5.29
291.584	4.85
291.961	5.03
292.338	5.06
292.715	4.72
293.092	4.97
293.469	5.26
293.845	4.86
294.222	4.98
294.599	5.65
294.975	4.88
295.352	5.49
295.728	5.5
296.105	5.07
296.481	4.99
296.858	5.33
297.234	5.17
297.61	4.65
297.986	4.89
298.363	5.16
298.739	4.88
299.115	5
299.491	4.99
299.867	5.08
300.243	5.22
300.619	5.11
300.995	4.92
301.371	4.65
301.746	5.05
302.122	4.65
302.498	5.66
302.874	4.84
303.249	4.79
303.625	4.59
304	5.34
304.376	5.09
304.751	4.68
305.127	3.98
305.502	4.9
305.878	4.25
306.253	4.66
306.628	4.96
307.003	4.09
307.378	4.76
307.754	5
308.129	4.39
308.504	5.05
308.879	5.16
309.254	4.68
309.629	4.79
310.003	4.56
310.378	4.56
310.753	5.01
311.128	4.75
311.502	4.68
311.877	4.97
312.252	4.77
312.626	4.69
313.001	4.68
313.375	4.71
313.75	4.85
314.124	4.67
314.498	4.79
314.873	5.08
315.247	5.11
315.621	4.91
315.995	4.84
316.369	4.08
316.743	5.36
317.117	4.74
317.491	4.37
317.865	5.22
318.239	5.02
318.613	5.01
318.987	5.01
319.361	4.63
319.734	5.11
320.108	5.23
320.482	4.47
320.855	4.71
321.229	4.87
321.602	4.98
321.976	4.64
322.349	4.52
322.723	4.42
323.096	4.46
323.469	4.75
323.843	4.67
324.216	4.53
324.589	5.08
324.962	5.04
325.335	4.1
325.708	4.76
326.081	4.97
326.454	4.59
326.827	4.79
327.2	4.71
327.573	5.11
327.945	4.73
328.318	4.51
328.691	4.61
329.063	4.12
329.436	4.23
329.809	4.6
330.181	4.71
330.553	4.35
330.926	4.54
331.298	3.85
331.671	4.77
332.043	4.5
332.415	4.9
332.787	4.74
333.159	4.13
333.532	4.28
333.904	4.44
334.276	4.93
334.648	4.26
335.02	4.4
335.391	4.52
335.763	4.23
336.135	4.75
336.507	4.77
336.879	4.56
337.25	3.98
337.622	4.32
337.993	4.8
338.365	4.46
338.736	4.6
339.108	4.26
339.479	4.69
339.851	4.98
340.222	4.52
340.593	4.28
340.964	4.77
341.336	4.23
341.707	4.89
342.078	4.96
342.449	4.53
342.82	4.52
343.191	4.3
343.562	4.55
343.933	4.68
344.303	5.27
344.674	4.06
345.045	4.2
345.416	4.28
345.786	4.72
346.157	4.79
346.527	4.45
346.898	4.24
347.268	4.51
347.639	4.71
348.009	4.52
348.38	4.76
348.75	4.4
349.12	4.27
349.49	4.43
349.861	4.93
350.231	4.1
350.601	4.65
350.971	4.52
351.341	4.37
351.711	4.39
352.081	5.05
352.45	4.17
352.82	4.54
353.19	5.09
353.56	4.54
353.929	4.87
354.299	4.46
354.669	4.86
355.038	4.23
355.408	4.56
355.777	4.72
356.147	4.52
356.516	4.68
356.885	4.78
357.254	4.83
357.624	4.13
357.993	4.34
358.362	4.46
358.731	4.74
359.1	4.72
359.469	4.79
359.838	4.5
360.207	5.15
360.576	4.55
360.945	4.21
361.314	4.7
361.682	4.67
362.051	4.73
362.42	4.26
362.788	4.58
363.157	4.57
363.525	4.63
363.894	4.83
364.262	4.54
364.631	4.85
364.999	4.44
365.367	4.36
365.735	4.74
366.104	4.57
366.472	4.43
366.84	4.38
367.208	4.56
367.576	4.68
367.944	4.73
368.312	4.76
368.68	5.34
369.048	4.56
369.416	4.89
369.783	4.74
370.151	4.8
370.519	4.95
370.886	4.61
371.254	4.82
371.621	4.51
371.989	4.52
372.356	4.73
372.724	5.06
373.091	4.88
373.458	4.76
373.826	4.59
374.193	4.62
374.56	4.74
374.927	4.89
375.294	5.06
375.661	4.81
376.028	4.61
376.395	4.8
376.762	4.77
377.129	5.11
377.496	4.91
377.863	5.05
378.229	4.77
378.596	4.75
378.963	4.79
379.329	4.81
379.696	4.92
380.062	4.85
380.429	5.02
380.795	4.97
381.161	4.8
381.528	4.76
381.894	4.73
382.26	4.92
382.626	4.67
382.993	5.07
383.359	4.84
383.725	5.11
384.091	4.84
384.457	4.72
384.823	4.99
385.188	4.86
385.554	5.09
385.92	4.92
386.286	5.11
386.651	4.86
387.017	4.74
387.383	4.96
387.748	4.87
388.114	5.03
388.479	5.11
388.845	4.88
389.21	4.73
389.575	4.77
389.94	5.01
390.306	5.03
390.671	4.93
391.036	5.17
391.401	4.77
391.766	4.94
392.131	4.63
392.496	4.74
392.861	4.96
393.226	5.06
393.591	4.79
393.956	4.77
394.32	4.89
394.685	4.93
395.05	4.58
395.414	4.96
395.779	4.97
396.143	5.08
396.508	4.93
396.872	4.99
397.236	5.29
397.601	5.08
397.965	5.08
398.329	4.75
398.694	5.03
399.058	5.2
399.422	4.66
399.786	4.94
400.15	4.66
400.514	4.91
400.878	4.89
401.242	5.26
401.605	5.19
401.969	5.1
402.333	4.9
402.697	5.13
403.06	4.93
403.424	5.04
403.787	4.93
404.151	5.04
404.514	4.91
404.878	5.02
405.241	4.94
405.604	5.32
405.968	5.15
406.331	5.12
406.694	4.82
407.057	5
407.42	4.93
407.783	4.93
408.146	5.08
408.509	5.42
408.872	5.34
409.235	4.77
409.598	5.17
409.961	5.09
410.323	5.05
410.686	5.18
411.049	4.9
411.411	5.12
411.774	5.13
412.136	5.08
412.499	5.23
412.861	5.2
413.223	5.2
413.586	5.17
413.948	5.06
414.31	4.97
414.672	5.01
415.035	5.34
415.397	5.12
415.759	4.94
416.121	4.98
416.483	5.08
416.845	5.17
417.206	5.05
417.568	5.12
417.93	4.85
418.292	5.13
418.653	4.95
419.015	5.02
419.377	5.08
419.738	5.16
420.1	4.94
420.461	5.15
420.822	5.08
421.184	5.03
421.545	4.94
421.906	5
422.267	4.87
422.629	5.03
422.99	4.92
423.351	5.02
423.712	4.96
424.073	5.04
424.434	5.05
424.795	4.99
425.155	4.95
425.516	5.04
425.877	5.01
426.238	5.04
426.598	4.92
426.959	5.07
427.32	5.24
427.68	5.13
428.041	5.29
428.401	5.29
428.761	5.34
429.122	5.34
429.482	5.22
429.842	5.31
430.202	5.2
430.563	5.13
430.923	5.38
431.283	5.15
431.643	5.27
432.003	5.35
432.363	5.2
432.722	5.23
433.082	5.42
433.442	5.31
433.802	5.24
434.161	5.25
434.521	5.23
434.881	5.24
435.24	5.21
435.6	5.26
435.959	5.28
436.319	5.35
436.678	5.24
437.037	5.47
437.396	5.23
437.756	5.12
438.115	5.35
438.474	5.26
438.833	5.25
439.192	5.11
439.551	5.14
439.91	5.38
440.269	5.25
440.628	5.23
440.987	5.32
441.345	5.22
441.704	5.21
442.063	5.23
442.421	5.17
442.78	5.27
443.138	5.33
443.497	5.33
443.855	5.41
444.214	5.43
444.572	5.35
444.93	5.36
445.288	5.44
445.647	5.35
446.005	5.4
446.363	5.32
446.721	5.3
447.079	5.27
447.437	5.24
447.795	5.23
448.153	5.24
448.51	5.23
448.868	5.22
449.226	5.18
449.584	5.35
449.941	5.37
450.299	5.47
450.656	5.39
451.014	5.33
451.371	5.47
451.729	5.4
452.086	5.3
452.443	5.52
452.801	5.57
453.158	5.44
453.515	5.42
453.872	5.27
454.229	5.44
454.586	5.46
454.943	5.47
455.3	5.42
455.657	5.27
456.014	5.47
456.371	5.41
456.727	5.59
457.084	5.32
457.441	5.41
457.797	5.62
458.154	5.41
458.51	5.4
458.867	5.44
459.223	5.45
459.58	5.53
459.936	5.31
460.292	5.25
460.648	5.22
461.005	5.36
461.361	5.19
461.717	5.27
462.073	5.32
462.429	5.45
462.785	5.44
463.141	5.46
463.496	5.47
463.852	5.57
464.208	5.66
464.564	5.44
464.919	5.68
465.275	5.51
465.631	5.43
465.986	5.51
466.342	5.35
466.697	5.44
467.052	5.7
467.408	5.37
467.763	5.5
468.118	5.63
468.473	5.51
468.829	5.45
469.184	5.43
469.539	5.36
469.894	5.48
470.249	5.34
470.603	5.53
470.958	5.5
471.313	5.5
471.668	5.39
472.023	5.41
472.377	5.49
472.732	5.54
473.086	5.48
473.441	5.39
473.795	5.56
474.15	5.5
474.504	5.46
474.859	5.5
475.213	5.35
475.567	5.58
475.921	5.42
476.275	5.51
476.63	5.57
476.984	5.46
477.338	5.65
477.692	5.69
478.045	5.56
478.399	5.59
478.753	5.52
479.107	5.44
479.461	5.47
479.814	5.37
480.168	5.48
480.521	5.34
480.875	5.59
481.228	5.58
481.582	5.48
481.935	5.59
482.289	5.48
482.642	5.47
482.995	5.47
483.348	5.47
483.701	5.51
484.055	5.37
484.408	5.39
484.761	5.29
485.114	5.14
485.466	5.11
485.819	5.21
486.172	5.25
486.525	5.32
486.878	5.39
487.23	5.41
487.583	5.45
487.936	5.36
488.288	5.37
488.641	5.29
488.993	5.24
489.345	5.27
489.698	5.34
490.05	5.4
490.402	5.4
490.754	5.38
491.107	5.38
491.459	5.41
491.811	5.62
492.163	5.47
492.515	5.41
492.866	5.31
493.218	5.3
493.57	5.4
493.922	5.44
494.274	5.58
494.625	5.57
494.977	5.49
495.328	5.58
495.68	5.54
496.031	5.65
496.383	5.59
496.734	5.72
497.086	5.59
497.437	5.62
497.788	5.6
498.139	5.61
498.49	5.47
498.842	5.51
499.193	5.51
499.544	5.59
499.894	5.58
500.245	5.55
500.596	5.53
500.947	5.83
501.298	5.58
501.648	5.62
501.999	5.56
502.35	5.66
502.7	5.72
503.051	5.72
503.401	5.72
503.752	5.7
504.102	5.67
504.452	5.67
504.803	5.83
505.153	5.65
505.503	5.65
505.853	5.45
506.203	5.52
506.553	5.64
506.903	5.71
507.253	5.57
507.603	5.67
507.953	5.61
508.303	5.83
508.652	5.65
509.002	5.65
509.352	5.65
509.701	5.61
510.051	5.48
510.4	5.51
510.75	5.59
511.099	5.55
511.449	5.63
511.798	5.66
512.147	5.69
512.496	5.58
512.846	5.64
513.195	5.6
513.544	5.59
513.893	5.65
514.242	5.75
514.591	5.65
514.939	5.7
515.288	5.73
515.637	5.8
515.986	5.74
516.334	5.64
516.683	5.8
517.032	5.62
517.38	5.74
517.729	5.79
518.077	5.65
518.426	5.58
518.774	5.63
519.122	5.63
519.47	5.61
519.819	5.49
520.167	5.62
520.515	5.64
520.863	5.66
521.211	5.59
521.559	5.72
521.907	5.6
522.255	5.68
522.602	5.66
522.95	5.67
523.298	5.55
523.645	5.66
523.993	5.67
524.341	5.7
524.688	5.67
525.036	5.77
525.383	5.81
525.73	5.74
526.078	5.72
526.425	5.66
526.772	5.54
527.119	5.54
527.466	5.58
527.814	5.6
528.161	5.76
528.508	5.63
528.854	5.63
529.201	5.53
529.548	5.49
529.895	5.39
530.242	5.4
530.588	5.44
530.935	5.46
531.282	5.53
531.628	5.5
531.975	5.56
532.321	5.7
532.667	5.56
533.014	5.73
533.36	5.65
533.706	5.63
534.052	5.52
534.399	5.54
534.745	5.53
535.091	5.56
535.437	5.53
535.783	5.61
536.129	5.69
536.474	5.62
536.82	5.61
537.166	5.76
537.512	5.7
537.857	5.61
538.203	5.68
538.549	5.61
538.894	5.66
539.239	5.67
539.585	5.66
539.93	5.66
540.276	5.79
540.621	5.81
540.966	5.71
541.311	5.66
541.656	5.76
542.001	5.63
542.346	5.57
542.691	5.48
543.036	5.49
543.381	5.53
543.726	5.63
544.071	5.55
544.415	5.54
544.76	5.66
545.105	5.68
545.449	5.63
545.794	5.7
546.138	5.82
546.483	5.76
546.827	5.61
547.171	5.6
547.516	5.7
547.86	5.73
548.204	5.64
548.548	5.69
548.892	5.67
549.236	5.65
549.58	5.65
549.924	5.77
550.268	5.82
550.612	5.77
550.956	5.64
551.3	5.8
551.643	5.75
551.987	5.85
552.33	6.11
552.674	5.85
553.017	5.68
553.361	5.91
553.704	5.82
554.048	5.88
554.391	5.79
554.734	5.73
555.077	5.81
555.42	5.88
555.764	5.97
556.107	5.87
556.45	5.93
556.793	5.82
557.135	5.86
557.478	5.93
557.821	5.86
558.164	5.69
558.507	5.78
558.849	5.77
559.192	5.87
559.534	5.93
559.877	5.92
560.219	5.75
560.562	5.98
560.904	6.08
561.246	5.75
561.589	5.77
561.931	5.82
562.273	5.87
562.615	5.79
562.957	5.79
563.299	5.84
563.641	5.89
563.983	5.8
564.325	5.83
564.667	5.89
565.008	6
565.35	5.77
565.692	5.88
566.033	5.87
566.375	5.77
566.716	5.77
567.058	5.68
567.399	5.92
567.741	5.89
568.082	5.78
568.423	5.85
568.764	5.92
569.105	5.92
569.447	6.02
569.788	5.8
570.129	5.81
570.47	5.88
570.811	5.84
571.151	5.91
571.492	5.9
571.833	6.12
572.174	5.84
572.514	5.74
572.855	5.88
573.195	5.89
573.536	5.77
573.876	5.84
574.217	5.79
574.557	5.74
574.898	5.85
575.238	5.99
575.578	5.86
575.918	5.9
576.258	5.83
576.598	5.79
576.938	5.66
577.278	5.72
577.618	5.89
577.958	6.09
578.298	5.91
578.638	5.77
578.977	5.78
579.317	5.62
579.657	6.02
579.996	6.12
580.336	5.81
580.675	5.8
581.014	5.76
581.354	5.93
581.693	5.91
582.032	6
582.372	5.93
582.711	5.83
583.05	5.8
583.389	5.85
583.728	5.73
584.067	5.95
584.406	5.79
584.745	5.92
585.083	6.14
585.422	5.95
585.761	6.23
586.1	5.89
586.438	5.91
586.777	5.97
587.115	6.1
587.454	6.04
587.792	5.68
588.13	5.87
588.469	5.89
588.807	5.79
589.145	5.8
589.483	5.81
589.821	5.57
590.159	5.75
590.497	5.86
590.835	6.1
591.173	6.11
591.511	5.9
591.849	6.14
592.187	5.91
592.524	5.93
592.862	5.82
593.2	5.7
593.537	5.88
593.875	5.93
594.212	5.74
594.55	5.88
594.887	6.22
595.224	5.62
595.561	6.13
595.899	5.74
596.236	6.01
596.573	5.9
596.91	6.01
597.247	5.8
597.584	5.95
597.921	6.01
598.258	5.84
598.594	5.77
598.931	5.79
599.268	5.83
599.604	5.86
599.941	6.06
600.277	5.86
600.614	5.67
600.95	6.09
601.287	6
601.623	5.93
601.959	5.82
602.296	5.6
602.632	5.88
602.968	6.06
603.304	5.81
603.64	5.81
603.976	5.87
604.312	5.92
604.648	5.77
604.984	5.55
605.319	5.81
605.655	5.78
605.991	5.64
606.326	5.81
606.662	5.65
606.998	5.78
607.333	5.78
607.668	6.02
608.004	5.9
608.339	5.64
608.674	5.81
609.01	5.6
609.345	5.65
609.68	5.96
610.015	5.93
610.35	5.76
610.685	5.65
611.02	5.83
611.355	5.84
611.689	5.88
612.024	5.82
612.359	5.98
612.694	5.91
613.028	5.92
613.363	5.8
613.697	5.95
614.032	6.06
614.366	6.06
614.7	6.03
615.035	5.84
615.369	5.88
615.703	5.71
616.037	5.96
616.371	5.64
616.705	6.27
617.039	6.21
617.373	6.17
617.707	5.98
618.041	5.9
618.375	5.7
618.709	5.85
619.042	5.81
619.376	5.67
619.71	5.67
620.043	5.84
620.377	5.78
620.71	5.6
621.043	5.98
621.377	6.03
621.71	6.28
622.043	6.02
622.376	5.88
622.709	5.88
623.043	6.41
623.376	5.52
623.709	5.85
624.041	5.62
624.374	5.87
624.707	5.85
625.04	6.01
625.373	6.18
625.705	5.87
626.038	5.81
626.37	5.85
626.703	5.94
627.035	5.67
627.368	5.65
627.7	5.93
628.032	6.01
628.365	5.82
628.697	5.57
629.029	5.89
629.361	5.97
629.693	5.9
630.025	5.85
630.357	5.71
630.689	5.87
631.021	5.8
631.353	5.83
631.684	5.95
632.016	5.87
632.348	5.81
632.679	5.96
633.011	5.66
633.342	5.85
633.674	5.59
634.005	6.04
634.336	6.15
634.668	6.01
634.999	5.87
635.33	5.53
635.661	5.87
635.992	5.86
636.323	6.01
636.654	5.59
636.985	5.84
637.316	6.01
637.647	5.92
637.977	5.85
638.308	5.55
638.639	5.9
638.969	5.55
639.3	5.6
639.63	5.84
639.961	6.03
640.291	5.68
640.622	6.13
640.952	6.16
641.282	6.56
641.612	5.87
641.943	6.06
642.273	6.31
642.603	5.83
642.933	5.65
643.263	5.82
643.592	5.91
643.922	5.97
644.252	5.69
644.582	5.56
644.911	5.7
645.241	6.26
645.571	5.97
645.9	6.12
646.23	5.71
646.559	5.93
646.888	5.97
647.218	5.89
647.547	6.37
647.876	6.01
648.205	6.23
648.534	5.66
648.863	5.6
649.192	5.9
649.521	6.09
649.85	6.34
650.179	5.77
650.508	5.77
650.837	5.67
651.165	6.07
651.494	5.84
651.822	5.83
652.151	5.73
652.479	5.76
652.808	6.27
653.136	5.92
653.465	5.83
653.793	5.46
654.121	6.39
654.449	6.16
654.777	5.37
655.105	5.87
655.433	6
655.761	5.66
656.089	5.95
656.417	6.04
656.745	5.2
657.073	6.11
657.4	6.01
657.728	6.39
658.056	5.94
658.383	5.93
658.711	6.01
659.038	5.71
659.365	5.87
659.693	5.68
660.02	5.83
660.347	6.24
660.674	5.53
661.001	5.72
661.329	5.89
661.656	5.8
661.982	5.65
662.309	5.7
662.636	5.67
662.963	6.03
663.29	5.56
663.616	6.05
663.943	5.93
664.27	6
664.596	5.57
664.923	6.03
665.249	5.95
665.576	6.16
665.902	6.14
666.228	6.8
666.554	5.63
666.881	6.06
667.207	6.22
667.533	6.16
667.859	6.37
668.185	6.02
668.511	6.09
668.837	5.78
669.162	5.85
669.488	6.14
669.814	5.96
670.139	5.78
670.465	6.02
670.791	5.74
671.116	6.41
671.442	6.3
671.767	6.41
672.092	6.08
672.418	5.73
672.743	5.88
673.068	5.72
673.393	6
673.718	5.84
674.043	6.1
674.368	5.89
674.693	5.33
675.018	5.87
675.343	5.53
675.667	5.93
675.992	5.48
676.317	6.03
676.641	5.2
676.966	6.28
677.29	6.45
677.615	5.76
677.939	5.94
678.264	6.1
678.588	6.24
678.912	5.7
679.236	6.36
679.56	5.46
679.885	5.79
680.209	6.1
680.532	6.04
680.856	5.67
681.18	5.98
681.504	5.52
681.828	6.44
682.152	5.62
682.475	5.82
682.799	5.91
683.122	6.09
683.446	6.54
683.769	5.8
684.093	5.86
684.416	6.59
684.739	5.76
685.062	6.22
685.386	6.51
685.709	6.17
686.032	6.34
686.355	6.61
686.678	6.15
687.001	6.17
687.324	6.31
687.646	6.75
687.969	6.39
688.292	5.47
688.614	6.02
688.937	6
689.26	5.76
689.582	6.04
689.904	6.28
690.227	5.87
690.549	5.86
690.871	5.81
691.194	5.75
691.516	5.56
691.838	6.34
692.16	6.38
692.482	6.54
692.804	6.59
693.126	6.65
693.448	6.76
693.769	6.8
694.091	6.49
694.413	5.47
694.735	6.02
695.056	5.95
695.378	6.51
695.699	6.34
696.021	5.41
696.342	5.87
696.663	6.84
696.984	6.44
697.306	6.17
697.627	6.17
697.948	5.91
698.269	5.67
698.59	5.9
698.911	5.71
699.232	5.7
699.553	5.62
699.873	6.22
700.194	5.83
700.515	6.43
700.835	6.05
701.156	6.64
701.477	6.44
701.797	6.1
702.117	6.68
702.438	6.33
702.758	5.86
703.078	6.08
703.398	6.52
703.719	6.28
704.039	5.49
704.359	6.34
704.679	6.86
704.999	5.08
705.319	6.46
705.638	6.66
705.958	5.92
706.278	6.18
706.597	6.5
706.917	6.06
707.237	5.54
707.556	5.78
707.876	5.55
708.195	5.68
708.514	5.75
708.834	6.18
709.153	6.15
709.472	6.57
709.791	5.72
710.11	6.9
710.429	6.29
710.748	6.44
711.067	5.69
711.386	6.74
711.705	5.84
712.023	6.45
712.342	5.82
712.661	6.75
712.979	6.73
713.298	6.77
713.616	6.24
713.935	5.79
714.253	5.92
714.572	6.64
714.89	7.05
715.208	5.13
715.526	7.05
715.844	6.42
716.162	6.7
716.48	6.39
716.798	6.3
717.116	6.92
717.434	6.18
717.752	5.46
718.069	7.04
718.387	6.46
718.705	6.04
719.022	7.3
719.34	7.02
719.657	7.35
719.975	6.44
720.292	6.65
720.609	5.46
720.927	7.59
721.244	6.26
721.561	6.34
721.878	5.39
722.195	6.73
722.512	6.81
722.829	7.74
723.146	5.74
723.463	5.52
723.779	6.82
724.096	6.75
724.413	6.74
724.729	6.87
725.046	7.5
725.362	7.92
725.679	6.69
725.995	6.8
726.311	6.58
726.628	6.53
726.944	7.64
727.26	7.05
727.576	7.59
727.892	6.88
728.208	5.79
728.524	7.19
728.84	6.64
729.156	7.25
729.472	5
729.787	7.79
730.103	7.15
730.419	7.71
730.734	7.3
731.05	6.49
731.365	6.16
731.681	7.56
731.996	5.79
732.311	6.54
732.626	7.02
732.942	7.27
733.257	7.19
733.572	6.86
733.887	6.87
734.202	7.17
734.517	7.05
734.832	6.49
735.146	7.29
735.461	6.72
735.776	6.91
736.091	8.24
736.405	6.76
736.72	6.71
737.034	7.04
737.349	5.72
737.663	7.17
737.977	6.4
738.292	6.03
738.606	6.25
738.92	6.28
739.234	8.5
739.548	7.65
739.862	6.7
740.176	7.54
740.49	6.89
740.804	7.98
741.117	6.16
741.431	8.37
741.745	7.12
742.058	6.56
742.372	8.94
742.685	5.34
742.999	6.95
743.312	7.4
743.626	6.97
743.939	7.49
744.252	7.23
744.565	5.47
744.878	5.9
745.191	7.25
745.505	6.49
745.817	8.01
746.13	6.27
746.443	4.85
746.756	6.45
747.069	6.84
747.381	5.53
747.694	5.6
748.007	6.39
748.319	6.62
748.632	6.55
748.944	4.63
749.256	7.23
749.569	7.02
749.881	6.97
750.193	6.07
750.505	6.6
750.817	6
751.129	6.59
751.441	6.19
751.753	7.51
752.065	7.71
752.377	7.16
752.689	5.08
753	7.19
753.312	7.27
753.624	8.51
753.935	6.02
754.247	7.46
754.558	5.97
754.869	6.68
755.181	7.78
755.492	7.23
755.803	8.95
756.114	7.51
756.425	6.91
756.736	7.36
757.047	9.87
757.358	7.65
757.669	8.23
757.98	7.31
758.291	7.6
758.601	6.98
758.912	6.92
759.223	6.65
759.533	6.53
759.844	7.55
760.154	6.55
760.464	6.28
760.775	7.04
761.085	7.54
761.395	5.72
761.705	7.35
762.016	7.2
762.326	6.18
762.636	6.85
762.945	8.07
763.255	8.27
763.565	6.41
763.875	8.44
764.185	6.11
764.494	7.72
764.804	8.43
765.113	8.63
765.423	8.07
765.732	8.25
766.042	7.29
766.351	7.65
766.66	7.85
766.97	7.87
767.279	8.55
767.588	8.14
767.897	9.2
768.206	6.66
768.515	7.75
768.824	9.56
769.133	6.05
769.441	8.62
769.75	7.57
770.059	6.59
770.367	8.34
770.676	7.06
770.984	6.82
771.293	8.87
771.601	7.62
771.91	5.93
772.218	8.43
772.526	7.49
772.834	6.99
773.142	6.69
773.45	6.8
773.758	8.45
774.066	5.04
774.374	9.08
774.682	8.61
774.99	7.36
775.298	6.83
775.605	8.23
775.913	8.5
776.22	5.1
776.528	10.12
776.835	9.65
777.143	9.56
777.45	8.25
777.757	8.68
778.065	5.49
778.372	7.48
778.679	5.33
778.986	10.21
779.293	6.25
779.6	10.99
779.907	5.03
780.214	12.46
780.52	6.28
780.827	8.72
781.134	5.5
781.44	3.99
781.747	8.72
782.053	6.68
782.36	7.29
782.666	7.9
782.973	7.55
783.279	10.73
783.585	8.48
783.891	9.71
784.197	9.51
784.503	10.49
784.809	6.19
785.115	8.56
785.421	10.69
785.727	7.97
786.033	6.04
786.339	8.72
786.644	4.67
786.95	10.36
787.255	9.61
787.561	5.74
787.866	9.63
788.172	6.25
788.477	7.29
788.782	8.78
789.088	12.11
789.393	9.91
789.698	8.32
790.003	11.77
790.308	0.59
790.613	8.1
790.918	8.87
791.223	10.75
791.527	6.54
791.832	8.22
792.137	8.37
792.441	10.73
792.746	9.14
793.05	8.2
793.355	9.86
793.659	12.06
793.963	6.59
794.268	4.99
794.572	10.64
794.876	10.87
795.18	4.24
795.484	5.14
795.788	8.03
796.092	8.57
796.396	5.54
796.7	11.86
797.004	3.03
797.307	6.15
797.611	12.29
797.915	6.23
798.218	5.59
798.522	8.51
798.825	5.28
799.128	9.54
799.432	9
799.735	10.57
800.038	7.5
800.341	7.01
800.644	8.72
800.947	8.17
801.25	10.36
801.553	11.39
801.856	12.5
802.159	5.52
802.462	7.09
802.764	7.02
803.067	2.23
803.37	9.79
803.672	9.37
803.975	8.24
804.277	4.78
804.579	11
804.882	9.32
805.184	11.85
805.486	10.86
805.788	7.37
806.09	10.85
806.392	9.23
806.694	6.84
806.996	7.38
807.298	11.74
807.6	5.93
807.902	11.64
808.203	7.29
808.505	10.15
808.807	8.44
809.108	6.89
809.409	9.06
809.711	13.28
810.012	11.56
810.313	12.02
810.615	13.07
810.916	11.44
811.217	9.41
811.518	14.69
811.819	14.99
812.12	9.74
812.421	0.99
812.722	11.39
813.023	10.54
813.323	6.1
813.624	9.31
813.925	14.13
814.225	8.31
814.526	7.97
814.826	13.52
815.126	11.21
815.427	7.07
815.727	10.45
816.027	9.82
816.327	13.85
816.627	8.83
816.927	8.76
817.227	9.99
817.527	14.89
817.827	9.3
818.127	7.35
818.427	8.75
818.727	9.98
819.026	10.57
819.326	9.04
819.625	3.64
819.925	10.01
820.224	7.28
820.524	9.89
820.823	15.28
821.122	13.33
821.421	4.34
821.72	6.46
822.019	11.51
822.318	11.7
822.617	6.67
822.916	7.83
823.215	8.87
823.514	7.11
823.813	11.18
824.111	9.13
824.41	7.33
824.709	9.56
825.007	8.71
825.306	8.01
825.604	9.07
825.902	8.03
826.201	8.89
826.499	9.14
826.797	8.04
827.095	8.64
827.393	8.02
827.691	8.67
827.989	7.56
828.287	6.41
828.585	8.24
828.882	9.65
829.18	5.54
829.478	8.41
829.775	9.18
830.073	8.94
830.37	9.07
830.668	7.5
830.965	9.87
831.263	8.42
831.56	10.4
831.857	5.57
832.154	8.13
832.451	11.19
832.748	8.84
833.045	8.73
833.342	13.49
833.639	7.49
833.936	9.36
834.232	10.71
834.529	9.45
834.826	17.34
835.122	11.92
835.419	11.23
835.715	9.56
836.012	9.54
836.308	8.19
836.604	9.42
836.901	5.92
837.197	7.04
837.493	11.01
837.789	6.89
838.085	12.66
838.381	6.33
838.677	13.46
838.972	10.62
839.268	12.83
839.564	5.06
839.86	15.84
840.155	18.89
840.451	5.19
840.746	15.69
841.042	11.64
841.337	17.51
841.632	-4.06
841.928	8.9
842.223	9.26
842.518	2.05
842.813	9.66
843.108	10.11
843.403	1.02
843.698	12.46
843.993	11.72
844.287	22.77
844.582	11.46
844.877	21.15
845.171	11.77
845.466	8.42
845.761	15.15
846.055	12.64
846.349	7.47
846.644	10.64
846.938	14.2
847.232	20.48
847.526	4.01
847.82	14.37
848.114	9.78
848.408	6.61
848.702	11.79
848.996	15.85
849.29	20.36
849.584	-0.66
849.877	-17.71
850.171	-1.76
850.465	11.87
850.758	29.79
851.052	29.39
851.345	19.31
851.638	-2.83
851.932	16.36
852.225	18.37
852.518	-2.85
852.811	10.86
853.104	27.85
853.397	-2.19
853.69	3.16
853.983	29.82
854.276	13.47
854.569	2.94
854.861	26.99
855.154	22.06
855.447	22.39
855.739	7.51
856.032	26.87
856.324	26
856.616	24.47
856.909	6.15
857.201	19.98
857.493	15.07
857.785	8.09
858.077	19.23
858.369	8.34
858.661	17.97
858.953	3.79
859.245	22.58
859.537	39.31
859.829	16.26
860.12	12.71
860.412	29.15
860.703	10.79
860.995	17.47
861.286	5.61
861.578	13.27
861.869	31.95
862.16	18.53
862.452	13.2
862.743	24.74
863.034	2.18
863.325	8.86
863.616	25.54
863.907	15.91
864.198	16.5
864.488	1.25
864.779	14.66
865.07	13.15
865.36	-3.43
865.651	-12.16
865.941	8.86
866.232	3.93
866.522	22.33
866.813	12.11
867.103	40.42
867.393	17.78
867.683	8.63
867.973	12.24
868.263	5.06
868.553	34.22
868.843	3.86
869.133	22.25
869.423	-2.4
869.713	24.52
870.002	6.55
870.292	15.94
870.582	35.56
870.871	7.28
871.161	21.32
871.45	-4.31
871.739	-8.87
872.029	27.92
872.318	-2.29
872.607	5.35
872.896	17.02
873.185	3.85
873.474	29.35
873.763	10.44
874.052	29.83
874.341	26.87
874.63	18.59
874.918	20.7
875.207	16.38
875.496	-10.27
875.784	7.68
876.073	18.06
876.361	20.66
876.649	24.47
876.938	-23.74
877.226	31.65
877.514	7.67
877.802	31.79
878.09	6.88
878.378	33.27
878.666	-14.05
878.954	8.8
879.242	34.89
879.53	36.69
879.817	3.31
880.105	23.36
880.392	38.32
880.68	-5
880.967	-5.9
881.255	27.45
881.542	6.87
881.83	13.69
882.117	33.46
882.404	12.61
882.691	12.29
882.978	22.28
883.265	0.24
883.552	12.62
883.839	6.79
884.126	7.93
884.413	7.67
884.699	10.41
884.986	12.1
885.273	9.04
885.559	9.04
885.846	9.04
