Data from 0021_chest_Reflection__3__19.txt Node

Date: Thu Oct 20 20:30:25 CDT 2022
User: ToomeyLab
Spectrometer: FLMS14357
Trigger mode: 0
Integration Time (sec): 1.000000E-2
Scans to average: 100
Electric dark correction enabled: true
Nonlinearity correction enabled: false
Boxcar width: 0
XAxis mode: Wavelengths
Number of Pixels in Spectrum: 2048
>>>>>Begin Spectral Data<<<<<
189.047	170.4
189.435	170.4
189.823	170.4
190.211	129.49
190.599	39.76
190.987	-125.92
191.375	171.7
191.763	-64.85
192.151	74.72
192.538	-139.86
192.926	27.7
193.314	9.22
193.702	101.07
194.089	-71.1
194.477	30.61
194.864	-480.49
195.252	29.15
195.639	184.85
196.027	98.69
196.414	5.8
196.801	-759.51
197.189	-51.69
197.576	423.82
197.963	301.54
198.351	9.44
198.738	41.44
199.125	41.41
199.512	-0.68
199.899	-5.04
200.286	-18.41
200.673	8.5
201.06	41.87
201.447	36.78
201.833	18.76
202.22	31.14
202.607	16.15
202.994	33.72
203.38	1.82
203.767	21.03
204.154	-5.8
204.54	39.06
204.927	-3.38
205.313	21.84
205.699	11.99
206.086	60.33
206.472	17.86
206.858	17.91
207.245	18.98
207.631	-5.78
208.017	36.73
208.403	40.52
208.789	-5.57
209.175	14.58
209.561	22.84
209.947	11.07
210.333	8.43
210.719	12.98
211.105	-32.29
211.491	3.59
211.876	12.04
212.262	-7.1
212.648	0.64
213.034	15.66
213.419	1.54
213.805	-14.46
214.19	34.37
214.576	3.1
214.961	5.12
215.346	-1.53
215.732	18.58
216.117	-9.86
216.502	17.7
216.888	6.26
217.273	28
217.658	14.77
218.043	1.12
218.428	-10.81
218.813	-17.37
219.198	3.56
219.583	32.19
219.968	8.13
220.353	-4.57
220.738	14.12
221.122	14.75
221.507	-1.75
221.892	14.76
222.276	2.82
222.661	17.58
223.046	11.52
223.43	7.82
223.815	-7.05
224.199	3.55
224.583	-0.46
224.968	11.81
225.352	3.65
225.736	2.03
226.121	4.89
226.505	9.49
226.889	4.8
227.273	4.8
227.657	6
228.041	4.58
228.425	3.32
228.809	1.91
229.193	2.27
229.577	3.12
229.961	2.36
230.344	3.19
230.728	4.09
231.112	2.72
231.495	3.34
231.879	3.19
232.263	3.79
232.646	2.66
233.03	0.52
233.413	4.88
233.797	3.63
234.18	1.24
234.563	1.44
234.946	3.44
235.33	2.19
235.713	4.58
236.096	2.82
236.479	2.31
236.862	3.51
237.245	4.18
237.628	1.58
238.011	2.05
238.394	2.7
238.777	2.54
239.16	0.59
239.543	2.44
239.925	2.57
240.308	3.19
240.691	3.19
241.073	1.82
241.456	1.87
241.838	2.26
242.221	2.89
242.603	3.34
242.986	3.07
243.368	2.5
243.75	2.75
244.133	2.35
244.515	2.69
244.897	2.86
245.279	2.81
245.661	3.03
246.043	1.68
246.425	2.64
246.807	3.3
247.189	2.68
247.571	2.45
247.953	2.71
248.335	2.63
248.717	2.79
249.098	2.6
249.48	2.63
249.862	2.85
250.243	2.39
250.625	2.42
251.006	2.98
251.388	2.99
251.769	2.79
252.151	2.94
252.532	3.11
252.913	2.58
253.295	2.46
253.676	2.79
254.057	2.84
254.438	3.31
254.819	3.85
255.2	2.29
255.581	2.62
255.962	1.75
256.343	3.66
256.724	2.14
257.105	2.86
257.486	3.08
257.867	1.55
258.247	2.21
258.628	2.54
259.009	2.57
259.389	2.25
259.77	3.07
260.15	2.77
260.531	3.12
260.911	2.21
261.292	2.49
261.672	2.63
262.052	2.72
262.432	3.01
262.813	2.94
263.193	2.76
263.573	2.48
263.953	2.5
264.333	2.41
264.713	2.37
265.093	2.27
265.473	4.35
265.853	2.15
266.233	2.61
266.612	2.09
266.992	3.44
267.372	2.74
267.752	2.52
268.131	2.14
268.511	2.68
268.89	2.85
269.27	2.68
269.649	2.61
270.029	3.33
270.408	2.47
270.787	2.43
271.167	3.4
271.546	2.5
271.925	2.95
272.304	2.5
272.683	2.5
273.062	2.54
273.441	2.77
273.82	2.44
274.199	2.25
274.578	2.84
274.957	3.05
275.336	2.46
275.715	2.44
276.093	3.36
276.472	2.69
276.851	2.8
277.229	1.6
277.608	2.37
277.986	1.71
278.365	2.51
278.743	2.25
279.122	3.18
279.5	1.88
279.878	2.65
280.257	2.53
280.635	2.98
281.013	3.05
281.391	2.47
281.769	2.22
282.147	2.86
282.525	2.5
282.903	2.08
283.281	2.54
283.659	2.32
284.037	2.4
284.415	2.81
284.792	2.41
285.17	2.54
285.548	2.46
285.925	2.76
286.303	2.65
286.68	2.79
287.058	2.5
287.435	2.27
287.813	2.38
288.19	2.69
288.567	1.97
288.945	2.65
289.322	1.97
289.699	2.94
290.076	2.72
290.453	2.5
290.83	2.73
291.207	2.54
291.584	2.13
291.961	2.53
292.338	2.31
292.715	2.21
293.092	2.91
293.469	2.94
293.845	2.18
294.222	2.2
294.599	2.87
294.975	2.58
295.352	2.85
295.728	2.98
296.105	2.09
296.481	3.21
296.858	2.82
297.234	2.31
297.61	2.38
297.986	2.32
298.363	2.48
298.739	2.9
299.115	2.69
299.491	2.76
299.867	2.36
300.243	2.61
300.619	2.3
300.995	2.81
301.371	2.71
301.746	2.63
302.122	2.43
302.498	2.74
302.874	2.74
303.249	2.6
303.625	3
304	3.02
304.376	2.5
304.751	2.27
305.127	2.32
305.502	2.44
305.878	2.63
306.253	2.64
306.628	2.65
307.003	2.62
307.378	3.01
307.754	2.89
308.129	2.62
308.504	2.3
308.879	2.81
309.254	2.96
309.629	2.63
310.003	3.16
310.378	3.09
310.753	2.92
311.128	2.26
311.502	2.74
311.877	2.8
312.252	2.54
312.626	2.62
313.001	2.64
313.375	2.98
313.75	2.56
314.124	2.51
314.498	2.83
314.873	2.99
315.247	2.89
315.621	3.01
315.995	2.8
316.369	2.62
316.743	2.97
317.117	2.76
317.491	2.56
317.865	3.44
318.239	2.75
318.613	3.05
318.987	3.03
319.361	3.17
319.734	3.19
320.108	3.21
320.482	2.63
320.855	2.93
321.229	3.33
321.602	3.37
321.976	2.72
322.349	3.06
322.723	3.45
323.096	2.59
323.469	3.08
323.843	3.27
324.216	3.57
324.589	3.02
324.962	2.62
325.335	2.55
325.708	3.13
326.081	3.35
326.454	3.19
326.827	2.71
327.2	3.17
327.573	2.92
327.945	2.88
328.318	2.75
328.691	2.61
329.063	2.59
329.436	2.67
329.809	3.47
330.181	2.98
330.553	2.73
330.926	2.85
331.298	2.76
331.671	3.28
332.043	2.52
332.415	3.03
332.787	2.97
333.159	2.85
333.532	3.27
333.904	2.87
334.276	2.86
334.648	2.91
335.02	2.79
335.391	2.9
335.763	2.83
336.135	2.6
336.507	2.68
336.879	2.89
337.25	2.82
337.622	2.87
337.993	2.98
338.365	2.78
338.736	3.21
339.108	2.82
339.479	3.38
339.851	3.58
340.222	2.56
340.593	2.96
340.964	2.85
341.336	2.91
341.707	3.19
342.078	3.07
342.449	2.51
342.82	3.07
343.191	3.08
343.562	3
343.933	3.04
344.303	3.47
344.674	2.52
345.045	2.95
345.416	3.11
345.786	3.29
346.157	3.03
346.527	2.86
346.898	2.68
347.268	2.79
347.639	3.01
348.009	2.97
348.38	3.24
348.75	2.9
349.12	2.56
349.49	3.04
349.861	3.53
350.231	2.68
350.601	3.29
350.971	3.12
351.341	2.69
351.711	2.71
352.081	3
352.45	3.06
352.82	2.62
353.19	3.26
353.56	2.75
353.929	3.22
354.299	2.82
354.669	3.35
355.038	2.82
355.408	2.78
355.777	2.94
356.147	2.74
356.516	2.84
356.885	3.38
357.254	3.47
357.624	2.79
357.993	2.94
358.362	3.24
358.731	3.16
359.1	3.07
359.469	3.19
359.838	3.28
360.207	3.18
360.576	3.16
360.945	2.93
361.314	2.88
361.682	2.9
362.051	3.19
362.42	2.83
362.788	2.81
363.157	2.93
363.525	3.05
363.894	3.06
364.262	3.02
364.631	3.23
364.999	2.74
365.367	2.82
365.735	3.01
366.104	3.02
366.472	3.05
366.84	2.64
367.208	2.96
367.576	3.16
367.944	3.18
368.312	3.06
368.68	3.52
369.048	3
369.416	2.84
369.783	2.9
370.151	3.19
370.519	3.19
370.886	2.83
371.254	3.23
371.621	2.99
371.989	2.85
372.356	2.93
372.724	3.46
373.091	2.92
373.458	2.93
373.826	3.05
374.193	2.97
374.56	3.21
374.927	3.1
375.294	3.01
375.661	3.1
376.028	2.93
376.395	2.68
376.762	2.88
377.129	3.38
377.496	3.05
377.863	3
378.229	2.84
378.596	3.24
378.963	3.13
379.329	3.14
379.696	3.12
380.062	3.07
380.429	3.46
380.795	3.24
381.161	3.42
381.528	2.77
381.894	3.17
382.26	3.11
382.626	3.43
382.993	3.2
383.359	2.98
383.725	2.85
384.091	3.12
384.457	3.22
384.823	2.84
385.188	3.14
385.554	3.28
385.92	3.16
386.286	3.21
386.651	3.36
387.017	2.97
387.383	3.41
387.748	2.95
388.114	3.1
388.479	3.55
388.845	3.44
389.21	3.12
389.575	3.05
389.94	3.26
390.306	2.93
390.671	2.94
391.036	3.43
391.401	3.07
391.766	3.33
392.131	3.31
392.496	3.03
392.861	3.23
393.226	3.01
393.591	3.04
393.956	2.88
394.32	3.03
394.685	3.2
395.05	2.99
395.414	3.28
395.779	3.11
396.143	3.24
396.508	3
396.872	3.12
397.236	3.2
397.601	3.23
397.965	3.19
398.329	2.91
398.694	3.06
399.058	3.13
399.422	2.93
399.786	3.1
400.15	3
400.514	2.93
400.878	3.24
401.242	3.36
401.605	3.13
401.969	3.21
402.333	3.08
402.697	3.06
403.06	2.9
403.424	3.19
403.787	2.77
404.151	3.04
404.514	3.05
404.878	3.13
405.241	3.08
405.604	3.38
405.968	3.06
406.331	3.27
406.694	3.26
407.057	3.02
407.42	3.22
407.783	2.95
408.146	3.23
408.509	3.12
408.872	3.02
409.235	3.16
409.598	3.33
409.961	3.16
410.323	3.36
410.686	3.12
411.049	3.04
411.411	3.1
411.774	3.18
412.136	3.18
412.499	3.14
412.861	3.19
413.223	3.3
413.586	3.19
413.948	3.17
414.31	3.28
414.672	3.2
415.035	3.15
415.397	3.21
415.759	3.12
416.121	3.22
416.483	3.36
416.845	3.38
417.206	3.1
417.568	3.15
417.93	2.86
418.292	3.27
418.653	3.08
419.015	3.15
419.377	3.07
419.738	3.22
420.1	3.01
420.461	3.18
420.822	3.14
421.184	3.15
421.545	3.07
421.906	3.09
422.267	2.97
422.629	3.14
422.99	3.04
423.351	3.11
423.712	3.11
424.073	3.08
424.434	3.11
424.795	3.09
425.155	3.21
425.516	3.08
425.877	3.11
426.238	3.23
426.598	3.12
426.959	3.21
427.32	3.24
427.68	3.1
428.041	3.27
428.401	3.31
428.761	3.41
429.122	3.26
429.482	3.48
429.842	3.39
430.202	3.26
430.563	3.2
430.923	3.34
431.283	3.22
431.643	3.26
432.003	3.33
432.363	3.31
432.722	3.38
433.082	3.39
433.442	3.42
433.802	3.43
434.161	3.29
434.521	3.26
434.881	3.31
435.24	3.29
435.6	3.47
435.959	3.31
436.319	3.44
436.678	3.33
437.037	3.39
437.396	3.41
437.756	3.37
438.115	3.28
438.474	3.41
438.833	3.18
439.192	3.18
439.551	3.21
439.91	3.47
440.269	3.36
440.628	3.25
440.987	3.29
441.345	3.34
441.704	3.37
442.063	3.19
442.421	3.27
442.78	3.24
443.138	3.4
443.497	3.3
443.855	3.43
444.214	3.36
444.572	3.34
444.93	3.49
445.288	3.38
445.647	3.37
446.005	3.32
446.363	3.31
446.721	3.36
447.079	3.25
447.437	3.19
447.795	3.19
448.153	3.27
448.51	3.29
448.868	3.2
449.226	3.32
449.584	3.45
449.941	3.42
450.299	3.29
450.656	3.38
451.014	3.42
451.371	3.47
451.729	3.38
452.086	3.46
452.443	3.41
452.801	3.5
453.158	3.5
453.515	3.37
453.872	3.4
454.229	3.5
454.586	3.46
454.943	3.58
455.3	3.44
455.657	3.33
456.014	3.6
456.371	3.6
456.727	3.51
457.084	3.5
457.441	3.18
457.797	3.54
458.154	3.48
458.51	3.46
458.867	3.49
459.223	3.53
459.58	3.51
459.936	3.43
460.292	3.46
460.648	3.51
461.005	3.28
461.361	3.28
461.717	3.4
462.073	3.46
462.429	3.56
462.785	3.41
463.141	3.48
463.496	3.48
463.852	3.67
464.208	3.42
464.564	3.61
464.919	3.75
465.275	3.4
465.631	3.41
465.986	3.53
466.342	3.51
466.697	3.42
467.052	3.6
467.408	3.54
467.763	3.41
468.118	3.69
468.473	3.45
468.829	3.54
469.184	3.45
469.539	3.48
469.894	3.42
470.249	3.33
470.603	3.52
470.958	3.61
471.313	3.56
471.668	3.4
472.023	3.57
472.377	3.46
472.732	3.52
473.086	3.51
473.441	3.57
473.795	3.71
474.15	3.65
474.504	3.57
474.859	3.62
475.213	3.69
475.567	3.49
475.921	3.65
476.275	3.61
476.63	3.65
476.984	3.67
477.338	3.59
477.692	3.64
478.045	3.68
478.399	3.73
478.753	3.61
479.107	3.52
479.461	3.65
479.814	3.59
480.168	3.53
480.521	3.51
480.875	3.51
481.228	3.61
481.582	3.6
481.935	3.54
482.289	3.61
482.642	3.63
482.995	3.57
483.348	3.55
483.701	3.58
484.055	3.61
484.408	3.46
484.761	3.35
485.114	3.28
485.466	3.28
485.819	3.37
486.172	3.45
486.525	3.54
486.878	3.58
487.23	3.6
487.583	3.57
487.936	3.49
488.288	3.48
488.641	3.4
488.993	3.38
489.345	3.43
489.698	3.49
490.05	3.55
490.402	3.58
490.754	3.64
491.107	3.62
491.459	3.66
491.811	3.68
492.163	3.64
492.515	3.57
492.866	3.45
493.218	3.4
493.57	3.53
493.922	3.63
494.274	3.77
494.625	3.71
494.977	3.69
495.328	3.73
495.68	3.77
496.031	3.92
496.383	3.69
496.734	3.72
497.086	3.72
497.437	3.74
497.788	3.68
498.139	3.69
498.49	3.65
498.842	3.73
499.193	3.74
499.544	3.79
499.894	3.72
500.245	3.64
500.596	3.83
500.947	3.78
501.298	3.83
501.648	3.88
501.999	3.83
502.35	4
502.7	3.93
503.051	3.89
503.401	3.97
503.752	3.78
504.102	3.61
504.452	3.85
504.803	3.97
505.153	3.82
505.503	3.87
505.853	3.84
506.203	3.76
506.553	3.97
506.903	3.9
507.253	3.77
507.603	3.87
507.953	3.95
508.303	4.12
508.652	3.86
509.002	3.95
509.352	3.94
509.701	3.74
510.051	3.83
510.4	3.81
510.75	3.8
511.099	3.78
511.449	3.94
511.798	3.94
512.147	3.93
512.496	3.86
512.846	3.9
513.195	3.9
513.544	3.88
513.893	3.91
514.242	3.95
514.591	3.92
514.939	3.99
515.288	4.05
515.637	4.02
515.986	4.1
516.334	4
516.683	4.1
517.032	4.01
517.38	3.91
517.729	4.05
518.077	4.05
518.426	4.01
518.774	4.1
519.122	3.96
519.47	3.96
519.819	3.92
520.167	4.02
520.515	3.95
520.863	4.02
521.211	4.08
521.559	4.06
521.907	4
522.255	4.07
522.602	4.18
522.95	3.97
523.298	4.12
523.645	4.04
523.993	4.19
524.341	4.17
524.688	4.05
525.036	4.17
525.383	4.13
525.73	4.06
526.078	4.12
526.425	4.13
526.772	4.02
527.119	4.01
527.466	4.04
527.814	4.14
528.161	4.19
528.508	4.13
528.854	4.2
529.201	4.01
529.548	3.98
529.895	3.92
530.242	3.91
530.588	3.97
530.935	4.06
531.282	4.13
531.628	4.11
531.975	4.18
532.321	4.28
532.667	4.17
533.014	4.25
533.36	4.15
533.706	4.26
534.052	4.12
534.399	4.16
534.745	4.11
535.091	4.08
535.437	4.2
535.783	4.31
536.129	4.32
536.474	4.28
536.82	4.3
537.166	4.46
537.512	4.38
537.857	4.3
538.203	4.35
538.549	4.29
538.894	4.34
539.239	4.45
539.585	4.37
539.93	4.36
540.276	4.58
540.621	4.52
540.966	4.54
541.311	4.4
541.656	4.45
542.001	4.33
542.346	4.29
542.691	4.28
543.036	4.25
543.381	4.32
543.726	4.47
544.071	4.38
544.415	4.39
544.76	4.44
545.105	4.5
545.449	4.47
545.794	4.61
546.138	4.63
546.483	4.72
546.827	4.62
547.171	4.55
547.516	4.55
547.86	4.71
548.204	4.62
548.548	4.69
548.892	4.71
549.236	4.68
549.58	4.72
549.924	4.72
550.268	4.71
550.612	4.88
550.956	4.77
551.3	4.88
551.643	4.8
551.987	4.75
552.33	5.04
552.674	5.05
553.017	4.89
553.361	5.05
553.704	4.88
554.048	4.79
554.391	5.04
554.734	4.85
555.077	4.79
555.42	4.99
555.764	5.07
556.107	5.29
556.45	5.08
556.793	5.12
557.135	5.12
557.478	5.25
557.821	5.15
558.164	4.98
558.507	5.12
558.849	5.26
559.192	5.3
559.534	5.3
559.877	5.25
560.219	5.22
560.562	5.29
560.904	5.35
561.246	5.22
561.589	5.19
561.931	5.31
562.273	5.21
562.615	5.31
562.957	5.38
563.299	5.45
563.641	5.29
563.983	5.35
564.325	5.33
564.667	5.49
565.008	5.3
565.35	5.39
565.692	5.46
566.033	5.44
566.375	5.35
566.716	5.4
567.058	5.25
567.399	5.55
567.741	5.45
568.082	5.51
568.423	5.54
568.764	5.57
569.105	5.7
569.447	5.76
569.788	5.54
570.129	5.41
570.47	5.72
570.811	5.62
571.151	5.62
571.492	5.86
571.833	5.89
572.174	5.55
572.514	5.64
572.855	5.83
573.195	5.7
573.536	5.64
573.876	5.69
574.217	5.63
574.557	5.83
574.898	5.87
575.238	5.92
575.578	5.94
575.918	5.82
576.258	6
576.598	5.94
576.938	5.86
577.278	6.02
577.618	5.78
577.958	6.09
578.298	6.07
578.638	6.12
578.977	5.95
579.317	5.9
579.657	6.1
579.996	6.31
580.336	5.92
580.675	6.05
581.014	6.47
581.354	6.42
581.693	6.32
582.032	6.4
582.372	6.24
582.711	6.26
583.05	6.48
583.389	6.41
583.728	6.49
584.067	6.41
584.406	6.38
584.745	6.45
585.083	6.55
585.422	6.46
585.761	6.54
586.1	6.54
586.438	6.61
586.777	6.7
587.115	6.64
587.454	6.82
587.792	6.51
588.13	6.43
588.469	6.68
588.807	6.63
589.145	6.78
589.483	6.57
589.821	6.54
590.159	6.69
590.497	6.85
590.835	6.89
591.173	6.85
591.511	6.87
591.849	6.97
592.187	6.9
592.524	6.84
592.862	6.99
593.2	6.79
593.537	7.14
593.875	6.92
594.212	7.07
594.55	7.03
594.887	7.27
595.224	6.89
595.561	6.96
595.899	7.03
596.236	7.36
596.573	6.94
596.91	7.23
597.247	7.13
597.584	7.31
597.921	7.29
598.258	7.19
598.594	7.31
598.931	7.44
599.268	7.26
599.604	7.29
599.941	7.53
600.277	7.44
600.614	7.34
600.95	7.67
601.287	7.44
601.623	7.7
601.959	7.54
602.296	7.49
602.632	7.76
602.968	7.57
603.304	7.56
603.64	7.62
603.976	7.66
604.312	7.6
604.648	7.72
604.984	7.51
605.319	7.83
605.655	7.63
605.991	7.52
606.326	7.77
606.662	7.6
606.998	7.91
607.333	7.76
607.668	7.95
608.004	8.09
608.339	8.07
608.674	8.04
609.01	7.92
609.345	7.83
609.68	8.14
610.015	8.09
610.35	8.11
610.685	7.99
611.02	8.1
611.355	8.1
611.689	8.24
612.024	8.3
612.359	8.06
612.694	8.17
613.028	8.27
613.363	8.07
613.697	8.6
614.032	8.63
614.366	8.68
614.7	8.66
615.035	8.44
615.369	8.36
615.703	8.33
616.037	8.56
616.371	8.74
616.705	8.89
617.039	8.91
617.373	8.89
617.707	8.51
618.041	8.48
618.375	8.45
618.709	8.88
619.042	8.73
619.376	8.64
619.71	8.85
620.043	9.07
620.377	8.76
620.71	8.66
621.043	8.84
621.377	8.72
621.71	9.03
622.043	9.21
622.376	9.18
622.709	9.23
623.043	9.5
623.376	9.33
623.709	9.21
624.041	9.11
624.374	9.5
624.707	9.27
625.04	9.26
625.373	9.57
625.705	9.25
626.038	9.3
626.37	9.16
626.703	9.41
627.035	9.53
627.368	9.41
627.7	9.72
628.032	9.45
628.365	9.44
628.697	9.22
629.029	9.37
629.361	9.78
629.693	9.38
630.025	9.62
630.357	9.44
630.689	9.75
631.021	9.83
631.353	9.38
631.684	9.92
632.016	10.01
632.348	10.14
632.679	10.11
633.011	9.45
633.342	9.57
633.674	9.97
634.005	10.2
634.336	10.04
634.668	10.03
634.999	10.13
635.33	9.84
635.661	10.13
635.992	9.92
636.323	10.25
636.654	10.01
636.985	9.99
637.316	10.33
637.647	10.21
637.977	10.25
638.308	10.3
638.639	10.52
638.969	10.4
639.3	10.68
639.63	10.8
639.961	10.94
640.291	10.43
640.622	10.13
640.952	10.81
641.282	10.55
641.612	10.63
641.943	10.75
642.273	11.05
642.603	10.57
642.933	10.57
643.263	10.93
643.592	10.41
643.922	10.7
644.252	10.91
644.582	10.64
644.911	10.75
645.241	11.38
645.571	10.66
645.9	10.95
646.23	10.88
646.559	11.15
646.888	10.88
647.218	11.14
647.547	11.88
647.876	10.79
648.205	11.39
648.534	10.77
648.863	10.86
649.192	11.29
649.521	11.66
649.85	11.49
650.179	11.47
650.508	11.36
650.837	11.13
651.165	11.5
651.494	11.59
651.822	11.43
652.151	11.43
652.479	11.52
652.808	11.85
653.136	11.33
653.465	11.51
653.793	11.32
654.121	11.25
654.449	11.76
654.777	11.35
655.105	11.9
655.433	12.23
655.761	11.88
656.089	12.01
656.417	11.78
656.745	11.83
657.073	12.06
657.4	11.74
657.728	12.35
658.056	12.07
658.383	12.62
658.711	12.26
659.038	11.79
659.365	11.99
659.693	11.95
660.02	11.97
660.347	12.26
660.674	11.98
661.001	12.09
661.329	12.15
661.656	12.09
661.982	11.99
662.309	12.22
662.636	12.09
662.963	12.47
663.29	12.28
663.616	13.03
663.943	12.57
664.27	12.69
664.596	12.36
664.923	12.58
665.249	13.33
665.576	12.7
665.902	13.14
666.228	13.28
666.554	13.01
666.881	12.78
667.207	13.15
667.533	13.04
667.859	13.18
668.185	13.44
668.511	12.96
668.837	13.66
669.162	13.22
669.488	12.63
669.814	13
670.139	13.6
670.465	13.41
670.791	13.1
671.116	13.25
671.442	13.53
671.767	13.54
672.092	13.4
672.418	12.53
672.743	13.73
673.068	13.27
673.393	13.32
673.718	13.38
674.043	13.64
674.368	13.65
674.693	12.86
675.018	13.38
675.343	13.63
675.667	13.95
675.992	13.53
676.317	13.78
676.641	12.57
676.966	14.44
677.29	14.05
677.615	13.95
677.939	14.51
678.264	13.99
678.588	13.86
678.912	13.48
679.236	14.57
679.56	13.61
679.885	13.72
680.209	14.27
680.532	13.6
680.856	14.1
681.18	13.85
681.504	13.71
681.828	14.67
682.152	14.15
682.475	14.33
682.799	14.06
683.122	14.01
683.446	14.66
683.769	14.37
684.093	14.57
684.416	14.55
684.739	14.31
685.062	14.83
685.386	15.2
685.709	15.31
686.032	15.2
686.355	15.1
686.678	14.56
687.001	15.51
687.324	14.84
687.646	15.36
687.969	14.9
688.292	15.1
688.614	15.53
688.937	13.79
689.26	14.8
689.582	14.65
689.904	15.07
690.227	14.92
690.549	15.48
690.871	14.89
691.194	15.01
691.516	15.16
691.838	15.3
692.16	15.59
692.482	15.01
692.804	15.64
693.126	15.22
693.448	15.78
693.769	15.27
694.091	15.49
694.413	15.39
694.735	15.53
695.056	16.07
695.378	15.32
695.699	14.97
696.021	15.38
696.342	15.35
696.663	15.51
696.984	15.73
697.306	15.35
697.627	15.53
697.948	15.47
698.269	15.16
698.59	15.27
698.911	15.58
699.232	15.51
699.553	15.18
699.873	14.99
700.194	15.61
700.515	15.98
700.835	15.81
701.156	16.73
701.477	15.91
701.797	16.53
702.117	16.53
702.438	16.16
702.758	15.87
703.078	16.57
703.398	17.02
703.719	16.54
704.039	16.48
704.359	16.63
704.679	15.89
704.999	16.01
705.319	16.85
705.638	17.23
705.958	16.29
706.278	16.78
706.597	16.33
706.917	16.86
707.237	16.78
707.556	15.74
707.876	16.84
708.195	16.88
708.514	17.28
708.834	17.52
709.153	17.05
709.472	17.48
709.791	17.32
710.11	18.25
710.429	17.03
710.748	17.22
711.067	16.48
711.386	17.43
711.705	17.92
712.023	17.78
712.342	17.47
712.661	17.18
712.979	17.69
713.298	17.83
713.616	16.44
713.935	16.95
714.253	17.47
714.572	18.3
714.89	18.55
715.208	16.51
715.526	18.25
715.844	18.33
716.162	18.13
716.48	17.46
716.798	17.48
717.116	18.63
717.434	17.31
717.752	17.3
718.069	18.44
718.387	17.77
718.705	17.69
719.022	18
719.34	17.79
719.657	17.38
719.975	18.52
720.292	18.9
720.609	17.58
720.927	18.93
721.244	17.17
721.561	18.43
721.878	17.19
722.195	18.89
722.512	19.33
722.829	19.25
723.146	18.29
723.463	18.44
723.779	18.29
724.096	19.37
724.413	18.94
724.729	18.94
725.046	18.2
725.362	19.82
725.679	19.71
725.995	18.73
726.311	17.52
726.628	19.17
726.944	18.82
727.26	19.51
727.576	18.36
727.892	19.07
728.208	18.5
728.524	18.87
728.84	18.66
729.156	19.23
729.472	18.48
729.787	18.65
730.103	19.13
730.419	19.72
730.734	19.25
731.05	19.28
731.365	19.62
731.681	19.91
731.996	17.88
732.311	18.74
732.626	18.97
732.942	22.23
733.257	18.85
733.572	20.07
733.887	19.77
734.202	19.86
734.517	19.51
734.832	19.85
735.146	20.11
735.461	20.15
735.776	19.57
736.091	21.14
736.405	19.81
736.72	20.7
737.034	20.91
737.349	19.57
737.663	20.52
737.977	21.18
738.292	19.42
738.606	19.85
738.92	19.29
739.234	21.27
739.548	20.53
739.862	20.28
740.176	21.53
740.49	20.69
740.804	20.49
741.117	18.98
741.431	21.67
741.745	20.23
742.058	20.83
742.372	21.73
742.685	19.9
742.999	20.64
743.312	20.46
743.626	20.6
743.939	21.34
744.252	20.64
744.565	20.38
744.878	20.8
745.191	19.8
745.505	22.29
745.817	22.84
746.13	21.35
746.443	21.8
746.756	20.6
747.069	20.43
747.381	20.78
747.694	19.9
748.007	20.43
748.319	22.61
748.632	19.87
748.944	21.61
749.256	20.52
749.569	21.72
749.881	20.43
750.193	20.93
750.505	21
750.817	20.48
751.129	21.91
751.441	21.37
751.753	21.58
752.065	21.42
752.377	20.34
752.689	19.79
753	21.27
753.312	20.51
753.624	21.77
753.935	21.63
754.247	23.04
754.558	21.37
754.869	22.21
755.181	22.84
755.492	22.41
755.803	23.42
756.114	22.53
756.425	23.7
756.736	22.72
757.047	23.18
757.358	22.39
757.669	23.34
757.98	21.15
758.291	23.54
758.601	20.69
758.912	24.42
759.223	22.11
759.533	22
759.844	24.22
760.154	22.47
760.464	22.21
760.775	23.72
761.085	23.23
761.395	23.95
761.705	23.07
762.016	23.25
762.326	21.84
762.636	22.58
762.945	22.7
763.255	22.67
763.565	22.01
763.875	22.56
764.185	20.96
764.494	22.13
764.804	23.31
765.113	22.4
765.423	23.67
765.732	23.61
766.042	22.95
766.351	23.24
766.66	24.08
766.97	22.48
767.279	24.07
767.588	23.89
767.897	23.4
768.206	23.16
768.515	25.11
768.824	25.93
769.133	23.8
769.441	24.06
769.75	21.9
770.059	23.16
770.367	23.41
770.676	24.65
770.984	26.28
771.293	25.84
771.601	23.95
771.91	21.73
772.218	22.76
772.526	25.97
772.834	24.82
773.142	24.08
773.45	26.35
773.758	26.13
774.066	23.71
774.374	23.93
774.682	25.69
774.99	23.64
775.298	25.47
775.605	23.2
775.913	25.98
776.22	24.74
776.528	23
776.835	21.2
777.143	25.94
777.45	25.36
777.757	26.48
778.065	21.7
778.372	23.45
778.679	19.02
778.986	24.58
779.293	23.31
779.6	24.96
779.907	25.07
780.214	27.08
780.52	23.62
780.827	27.09
781.134	24.6
781.44	22.66
781.747	26.53
782.053	22.8
782.36	23.74
782.666	20.24
782.973	24.59
783.279	26.04
783.585	26.02
783.891	24.89
784.197	27.01
784.503	25.34
784.809	24.18
785.115	26.84
785.421	27.29
785.727	22.06
786.033	21.4
786.339	26.48
786.644	25.77
786.95	30.28
787.255	27.95
787.561	25.59
787.866	26.18
788.172	20.5
788.477	22.18
788.782	28.18
789.088	27.93
789.393	26.64
789.698	23.74
790.003	25.59
790.308	24.63
790.613	26.62
790.918	26.43
791.223	28.27
791.527	25.01
791.832	28.16
792.137	22.24
792.441	29.45
792.746	24.07
793.05	24.75
793.355	27.85
793.659	29.77
793.963	24.83
794.268	25.43
794.572	26.63
794.876	26.89
795.18	20.38
795.484	22.33
795.788	26.31
796.092	23.21
796.396	25.47
796.7	25.54
797.004	21.12
797.307	24.81
797.611	26.67
797.915	27.86
798.218	25.43
798.522	27.02
798.825	24.56
799.128	24.89
799.432	26.48
799.735	27.08
800.038	25.17
800.341	25.94
800.644	26.68
800.947	26.17
801.25	28.53
801.553	28.32
801.856	27.72
802.159	20.33
802.462	28.07
802.764	31.19
803.067	21.76
803.37	26.41
803.672	25.88
803.975	30.92
804.277	27.76
804.579	26.67
804.882	25.35
805.184	26.1
805.486	27.93
805.788	27.36
806.09	27.37
806.392	24.1
806.694	24.54
806.996	28.15
807.298	28.76
807.6	23.21
807.902	28.24
808.203	25.37
808.505	31.59
808.807	27.9
809.108	25.22
809.409	27.72
809.711	34.09
810.012	28
810.313	28.5
810.615	33.94
810.916	29.74
811.217	22.57
811.518	26.19
811.819	26.84
812.12	27.74
812.421	26.17
812.722	27.63
813.023	24.35
813.323	24.3
813.624	25.55
813.925	29.75
814.225	23.94
814.526	28.07
814.826	35.45
815.126	31.99
815.427	25.07
815.727	30.23
816.027	26.84
816.327	32.64
816.627	28.17
816.927	28.93
817.227	23.87
817.527	33.03
817.827	23.59
818.127	24.58
818.427	22.39
818.727	28.44
819.026	27.87
819.326	24.96
819.625	26.25
819.925	33.39
820.224	28.64
820.524	22.5
820.823	29.18
821.122	32.71
821.421	27.45
821.72	28.94
822.019	29.24
822.318	31.34
822.617	28.7
822.916	29.7
823.215	28.11
823.514	27.26
823.813	30.83
824.111	29
824.41	30.52
824.709	29.04
825.007	29.74
825.306	30.03
825.604	29.8
825.902	29.49
826.201	30.11
826.499	28.54
826.797	30.33
827.095	30.18
827.393	31.07
827.691	31.43
827.989	29.94
828.287	29.98
828.585	30.08
828.882	30.9
829.18	28.76
829.478	30.84
829.775	30.77
830.073	29.46
830.37	30.31
830.668	30.86
830.965	32.38
831.263	32.01
831.56	32.03
831.857	30.16
832.154	30.09
832.451	29.02
832.748	26.1
833.045	31.28
833.342	36.77
833.639	27.41
833.936	31.61
834.232	34.1
834.529	31.23
834.826	36.12
835.122	29
835.419	32.67
835.715	28.38
836.012	30.62
836.308	29.69
836.604	30.81
836.901	29.2
837.197	30.42
837.493	32.05
837.789	30.82
838.085	29.93
838.381	33.13
838.677	35.25
838.972	31.94
839.268	28.21
839.564	27.88
839.86	31.36
840.155	27.84
840.451	27.03
840.746	32.96
841.042	27.64
841.337	24.94
841.632	30.31
841.928	42.78
842.223	26.36
842.518	30.36
842.813	31.9
843.108	32.71
843.403	29.58
843.698	35.57
843.993	33.42
844.287	35.41
844.582	34.85
844.877	31.79
845.171	37.64
845.466	19.83
845.761	33.56
846.055	28.06
846.349	31.92
846.644	27.77
846.938	29.5
847.232	46.46
847.526	43.52
847.82	37.46
848.114	40.57
848.408	27.38
848.702	41.97
848.996	45.39
849.29	53
849.584	39.26
849.877	20.96
850.171	29.27
850.465	41.93
850.758	43.78
851.052	31.44
851.345	43.7
851.638	13.37
851.932	19.37
852.225	36.07
852.518	37.99
852.811	32.11
853.104	36.07
853.397	22.71
853.69	28.25
853.983	55.83
854.276	39.83
854.569	24.4
854.861	40.41
855.154	28.88
855.447	47.43
855.739	21.11
856.032	41.5
856.324	41.02
856.616	47.28
856.909	31.99
857.201	17.43
857.493	35.62
857.785	35.6
858.077	46.22
858.369	29.9
858.661	36.56
858.953	34.49
859.245	33.49
859.537	37.04
859.829	22.53
860.12	10.72
860.412	38.5
860.703	50.07
860.995	42.16
861.286	36.01
861.578	33.22
861.869	40.56
862.16	40.99
862.452	29.69
862.743	44.79
863.034	40.36
863.325	49.52
863.616	25.76
863.907	35.6
864.198	16.21
864.488	29.54
864.779	27.36
865.07	44.62
865.36	19.33
865.651	26.72
865.941	49.18
866.232	41.29
866.522	31.89
866.813	36.47
867.103	43.88
867.393	32.92
867.683	29.34
867.973	26.21
868.263	27.16
868.553	37.15
868.843	3.95
869.133	46.51
869.423	60.27
869.713	33.94
870.002	18.76
870.292	41.93
870.582	63.51
870.871	14.27
871.161	33.94
871.45	36.86
871.739	16.04
872.029	21.39
872.318	46.59
872.607	17.63
872.896	36.56
873.185	22.05
873.474	45.45
873.763	38.48
874.052	66.28
874.341	29.73
874.63	48.44
874.918	39.42
875.207	36.03
875.496	41.75
875.784	30.84
876.073	37.07
876.361	44.29
876.649	65.42
876.938	44.25
877.226	55.31
877.514	40.64
877.802	17.8
878.09	31.19
878.378	37.5
878.666	-0.94
878.954	13.55
879.242	39.15
879.53	33.47
879.817	28.6
880.105	39.12
880.392	24.8
880.68	21.39
880.967	16.1
881.255	54.95
881.542	29.61
881.83	53.68
882.117	48.85
882.404	41.65
882.691	44.23
882.978	35.41
883.265	40.52
883.552	35.99
883.839	21.71
884.126	36
884.413	36.82
884.699	36.37
884.986	34.8
885.273	36.08
885.559	36.08
885.846	36.08
