Data from 0021_crown_Reflection__3__24.txt Node

Date: Thu Oct 20 20:31:55 CDT 2022
User: ToomeyLab
Spectrometer: FLMS14357
Trigger mode: 0
Integration Time (sec): 1.000000E-2
Scans to average: 100
Electric dark correction enabled: true
Nonlinearity correction enabled: false
Boxcar width: 0
XAxis mode: Wavelengths
Number of Pixels in Spectrum: 2048
>>>>>Begin Spectral Data<<<<<
189.047	428.25
189.435	428.25
189.823	428.25
190.211	122.54
190.599	97.27
190.987	49.98
191.375	-240.34
191.763	60.74
192.151	229.21
192.538	48.19
192.926	27.53
193.314	-215.21
193.702	262.34
194.089	100.1
194.477	-80.17
194.864	-324.64
195.252	34.12
195.639	221.9
196.027	58.48
196.414	467.54
196.801	-834.41
197.189	-174.35
197.576	100.33
197.963	625.81
198.351	1.89
198.738	10.83
199.125	60.88
199.512	30.15
199.899	5.71
200.286	-34.12
200.673	25.88
201.06	-0.99
201.447	19.3
201.833	20.16
202.22	-20.63
202.607	43.05
202.994	24.29
203.38	-18.26
203.767	3.49
204.154	16.47
204.54	-1.15
204.927	25.54
205.313	24.97
205.699	33.53
206.086	34.23
206.472	-1.69
206.858	17.29
207.245	26.9
207.631	7.89
208.017	8.71
208.403	22
208.789	12.79
209.175	47.52
209.561	0.84
209.947	41.81
210.333	38.33
210.719	22.01
211.105	-10.63
211.491	-20.22
211.876	7.08
212.262	-36.55
212.648	-18.89
213.034	7.48
213.419	14.66
213.805	18.15
214.19	16.43
214.576	2.98
214.961	13.48
215.346	32.57
215.732	10.07
216.117	20.73
216.502	18.22
216.888	40.75
217.273	40.28
217.658	20.02
218.043	-20.48
218.428	-3.77
218.813	-20.85
219.198	15.27
219.583	31.16
219.968	9.24
220.353	4.21
220.738	26.03
221.122	18.85
221.507	-2.56
221.892	-5.79
222.276	19.14
222.661	5.87
223.046	7.2
223.43	7.36
223.815	-11.03
224.199	13.22
224.583	6.98
224.968	5.72
225.352	8.73
225.736	4.2
226.121	16.27
226.505	7.23
226.889	2.07
227.273	9.22
227.657	11.71
228.041	7.74
228.425	9.69
228.809	7.78
229.193	8.68
229.577	7.63
229.961	6.19
230.344	7.89
230.728	7.79
231.112	7.1
231.495	7.93
231.879	6.42
232.263	8.09
232.646	6.89
233.03	6.11
233.413	8.11
233.797	5.12
234.18	7.26
234.563	5.79
234.946	7.18
235.33	6.61
235.713	9.34
236.096	6.38
236.479	6.53
236.862	8.84
237.245	7.4
237.628	8.06
238.011	5.65
238.394	6.58
238.777	8.75
239.16	6.65
239.543	7.16
239.925	8.07
240.308	7.95
240.691	6.93
241.073	8.16
241.456	6.52
241.838	6.68
242.221	8.08
242.603	7.49
242.986	6.95
243.368	6.82
243.75	6.98
244.133	6.81
244.515	6.75
244.897	7.25
245.279	6.65
245.661	7.1
246.043	6.78
246.425	6.33
246.807	8.34
247.189	7.24
247.571	6.84
247.953	6.84
248.335	6.79
248.717	6.61
249.098	6.47
249.48	6.82
249.862	6.78
250.243	6.45
250.625	7.37
251.006	6.84
251.388	7.38
251.769	6.82
252.151	6.71
252.532	6.01
252.913	6.61
253.295	6.63
253.676	6.36
254.057	6.43
254.438	6.82
254.819	7.95
255.2	5.79
255.581	6.56
255.962	6.64
256.343	7.83
256.724	7.36
257.105	5.31
257.486	5.94
257.867	6.78
258.247	6.42
258.628	5.33
259.009	6.17
259.389	5.96
259.77	6.59
260.15	6.95
260.531	6.52
260.911	6.19
261.292	6.16
261.672	5.85
262.052	6.04
262.432	6.14
262.813	6.24
263.193	6.34
263.573	6.22
263.953	6.13
264.333	6.66
264.713	6.24
265.093	5.91
265.473	6.65
265.853	6.38
266.233	6.09
266.612	5.76
266.992	6.91
267.372	6.55
267.752	6.18
268.131	5.86
268.511	6.02
268.89	5.99
269.27	6.24
269.649	6.18
270.029	6.32
270.408	6.11
270.787	6.19
271.167	6.75
271.546	5.97
271.925	5.47
272.304	6.13
272.683	6.13
273.062	6.2
273.441	5.86
273.82	5.77
274.199	6.14
274.578	6.15
274.957	6.15
275.336	5.96
275.715	5.31
276.093	5.98
276.472	6.07
276.851	5.94
277.229	5.2
277.608	5.75
277.986	5.39
278.365	5.96
278.743	6
279.122	6.52
279.5	5.28
279.878	5.66
280.257	5.54
280.635	5.91
281.013	5.83
281.391	6.17
281.769	5.73
282.147	5.91
282.525	5.75
282.903	5.74
283.281	5.73
283.659	5.63
284.037	5.52
284.415	5.81
284.792	5.18
285.17	5.77
285.548	5.68
285.925	5.74
286.303	5.73
286.68	5.67
287.058	5.69
287.435	5.61
287.813	5.45
288.19	5.9
288.567	5.39
288.945	6.34
289.322	5.34
289.699	5.9
290.076	5.48
290.453	5.35
290.83	5.41
291.207	5.54
291.584	5.17
291.961	5.5
292.338	5.04
292.715	5.22
293.092	5.93
293.469	5.64
293.845	5.75
294.222	5.06
294.599	5.53
294.975	5.52
295.352	5.78
295.728	5.88
296.105	5.4
296.481	5.31
296.858	5.64
297.234	5.63
297.61	5.03
297.986	5.1
298.363	5.04
298.739	5.49
299.115	5.56
299.491	5.49
299.867	5.05
300.243	5.48
300.619	4.99
300.995	4.69
301.371	5.37
301.746	5.46
302.122	4.83
302.498	5.61
302.874	5.05
303.249	5.22
303.625	4.79
304	5.31
304.376	4.89
304.751	5.02
305.127	4.18
305.502	4.96
305.878	5.09
306.253	5.23
306.628	5.52
307.003	5.18
307.378	4.92
307.754	5.49
308.129	5.23
308.504	4.74
308.879	5.38
309.254	4.92
309.629	5.15
310.003	5
310.378	5.14
310.753	5.31
311.128	4.62
311.502	4.91
311.877	4.94
312.252	4.91
312.626	5.18
313.001	5.16
313.375	5.02
313.75	4.71
314.124	5.28
314.498	4.81
314.873	4.92
315.247	5.45
315.621	4.95
315.995	5.17
316.369	4.83
316.743	5.16
317.117	4.68
317.491	4.08
317.865	5.16
318.239	5.15
318.613	5.24
318.987	5.62
319.361	4.98
319.734	5.32
320.108	5.12
320.482	4.82
320.855	4.87
321.229	4.41
321.602	5.3
321.976	4.81
322.349	4.96
322.723	5.3
323.096	4.76
323.469	5.46
323.843	5.07
324.216	4.75
324.589	4.65
324.962	5.11
325.335	4.32
325.708	4.87
326.081	4.86
326.454	4.69
326.827	4.79
327.2	5.9
327.573	5.19
327.945	5.09
328.318	4.58
328.691	4.99
329.063	4.41
329.436	4.06
329.809	5.1
330.181	5.39
330.553	4.69
330.926	4.77
331.298	4.16
331.671	5.2
332.043	4.45
332.415	4.96
332.787	4.62
333.159	4.41
333.532	4.85
333.904	4.81
334.276	5.03
334.648	4.46
335.02	4.41
335.391	4.54
335.763	4.94
336.135	5
336.507	4.65
336.879	4.51
337.25	4.76
337.622	4.86
337.993	4.87
338.365	4.64
338.736	4.82
339.108	4.71
339.479	4.82
339.851	5.18
340.222	4.52
340.593	4.52
340.964	5.01
341.336	4.45
341.707	5.07
342.078	4.78
342.449	4.6
342.82	4.86
343.191	4.88
343.562	4.6
343.933	4.57
344.303	5.39
344.674	4.21
345.045	4.44
345.416	4.52
345.786	4.98
346.157	4.55
346.527	4.3
346.898	4.69
347.268	4.57
347.639	4.91
348.009	4.73
348.38	4.9
348.75	4.53
349.12	4.52
349.49	4.55
349.861	4.86
350.231	4.52
350.601	4.71
350.971	5.04
351.341	4.62
351.711	4.83
352.081	5.13
352.45	4.64
352.82	4.42
353.19	4.53
353.56	4.66
353.929	5.08
354.299	4.39
354.669	5.09
355.038	4.8
355.408	4.56
355.777	4.72
356.147	4.98
356.516	5.08
356.885	5.05
357.254	5.06
357.624	4.87
357.993	4.61
358.362	5.08
358.731	4.98
359.1	4.99
359.469	5.1
359.838	4.9
360.207	5.17
360.576	4.75
360.945	4.75
361.314	5.11
361.682	4.66
362.051	4.81
362.42	4.55
362.788	4.81
363.157	5.04
363.525	4.99
363.894	4.69
364.262	4.71
364.631	5
364.999	4.78
365.367	4.52
365.735	5.07
366.104	4.83
366.472	4.92
366.84	4.45
367.208	5.26
367.576	4.68
367.944	5.23
368.312	4.86
368.68	5.15
369.048	4.77
369.416	5.14
369.783	4.87
370.151	4.86
370.519	4.99
370.886	5.02
371.254	4.94
371.621	4.92
371.989	4.44
372.356	5.13
372.724	5.26
373.091	4.86
373.458	4.9
373.826	4.75
374.193	5.02
374.56	5.02
374.927	5.1
375.294	5.03
375.661	5.02
376.028	4.81
376.395	5.05
376.762	4.88
377.129	5.28
377.496	4.79
377.863	4.91
378.229	4.81
378.596	4.97
378.963	5.01
379.329	4.77
379.696	4.91
380.062	5.09
380.429	4.96
380.795	4.79
381.161	4.84
381.528	4.84
381.894	5.02
382.26	4.83
382.626	5.14
382.993	5.41
383.359	5.01
383.725	4.95
384.091	4.74
384.457	4.65
384.823	5.04
385.188	5.03
385.554	4.99
385.92	4.95
386.286	5.15
386.651	5.04
387.017	4.91
387.383	5.02
387.748	5.01
388.114	4.96
388.479	5.39
388.845	5.22
389.21	5.32
389.575	4.79
389.94	5.24
390.306	4.96
390.671	5.05
391.036	5.16
391.401	5.03
391.766	5.3
392.131	5.02
392.496	4.91
392.861	5.25
393.226	5.22
393.591	5.11
393.956	4.96
394.32	5.1
394.685	5.31
395.05	4.75
395.414	5.39
395.779	5.15
396.143	5.31
396.508	5.13
396.872	5.07
397.236	5.26
397.601	5.09
397.965	5.29
398.329	5.03
398.694	5.29
399.058	5.29
399.422	5.15
399.786	5.1
400.15	5.01
400.514	4.84
400.878	5.16
401.242	5.34
401.605	5.2
401.969	5.07
402.333	4.91
402.697	4.97
403.06	5.1
403.424	5.25
403.787	4.91
404.151	5.33
404.514	4.93
404.878	5.19
405.241	5.2
405.604	5.4
405.968	5.21
406.331	5.08
406.694	5.16
407.057	4.95
407.42	5.28
407.783	5.24
408.146	5.24
408.509	5.25
408.872	5.38
409.235	5.17
409.598	5.19
409.961	5.02
410.323	5.25
410.686	5.15
411.049	5.31
411.411	5.27
411.774	5.33
412.136	5.39
412.499	5.27
412.861	5.2
413.223	5.39
413.586	5.35
413.948	5.13
414.31	5.19
414.672	5.13
415.035	5.3
415.397	5.42
415.759	5.37
416.121	5.19
416.483	5.48
416.845	5.56
417.206	5.33
417.568	5.22
417.93	4.92
418.292	5.35
418.653	5.23
419.015	5.29
419.377	5.32
419.738	5.42
420.1	5.16
420.461	5.4
420.822	5.38
421.184	5.18
421.545	5.11
421.906	5.21
422.267	5.15
422.629	5.26
422.99	5.09
423.351	5.15
423.712	5.06
424.073	5.15
424.434	5.23
424.795	5.2
425.155	5.26
425.516	5.08
425.877	5.15
426.238	5.21
426.598	5.11
426.959	5.15
427.32	5.27
427.68	5.29
428.041	5.41
428.401	5.46
428.761	5.44
429.122	5.33
429.482	5.33
429.842	5.43
430.202	5.41
430.563	5.44
430.923	5.43
431.283	5.49
431.643	5.38
432.003	5.46
432.363	5.24
432.722	5.35
433.082	5.46
433.442	5.51
433.802	5.59
434.161	5.33
434.521	5.45
434.881	5.29
435.24	5.13
435.6	5.37
435.959	5.44
436.319	5.3
436.678	5.35
437.037	5.59
437.396	5.4
437.756	5.22
438.115	5.37
438.474	5.41
438.833	5.32
439.192	5.3
439.551	5.52
439.91	5.5
440.269	5.45
440.628	5.46
440.987	5.52
441.345	5.38
441.704	5.38
442.063	5.28
442.421	5.4
442.78	5.4
443.138	5.45
443.497	5.42
443.855	5.46
444.214	5.45
444.572	5.49
444.93	5.33
445.288	5.44
445.647	5.33
446.005	5.38
446.363	5.4
446.721	5.42
447.079	5.29
447.437	5.38
447.795	5.31
448.153	5.23
448.51	5.32
448.868	5.33
449.226	5.29
449.584	5.42
449.941	5.48
450.299	5.3
450.656	5.42
451.014	5.32
451.371	5.53
451.729	5.39
452.086	5.42
452.443	5.57
452.801	5.49
453.158	5.6
453.515	5.49
453.872	5.27
454.229	5.44
454.586	5.43
454.943	5.46
455.3	5.53
455.657	5.56
456.014	5.47
456.371	5.33
456.727	5.53
457.084	5.52
457.441	5.43
457.797	5.59
458.154	5.43
458.51	5.42
458.867	5.43
459.223	5.42
459.58	5.49
459.936	5.49
460.292	5.51
460.648	5.55
461.005	5.36
461.361	5.18
461.717	5.36
462.073	5.34
462.429	5.38
462.785	5.34
463.141	5.52
463.496	5.42
463.852	5.56
464.208	5.47
464.564	5.5
464.919	5.67
465.275	5.31
465.631	5.59
465.986	5.47
466.342	5.48
466.697	5.28
467.052	5.53
467.408	5.52
467.763	5.45
468.118	5.55
468.473	5.53
468.829	5.55
469.184	5.29
469.539	5.43
469.894	5.4
470.249	5.2
470.603	5.48
470.958	5.47
471.313	5.43
471.668	5.37
472.023	5.38
472.377	5.45
472.732	5.41
473.086	5.48
473.441	5.43
473.795	5.45
474.15	5.5
474.504	5.39
474.859	5.53
475.213	5.44
475.567	5.56
475.921	5.42
476.275	5.47
476.63	5.5
476.984	5.49
477.338	5.4
477.692	5.5
478.045	5.51
478.399	5.53
478.753	5.57
479.107	5.39
479.461	5.53
479.814	5.4
480.168	5.54
480.521	5.4
480.875	5.37
481.228	5.6
481.582	5.36
481.935	5.43
482.289	5.42
482.642	5.6
482.995	5.41
483.348	5.42
483.701	5.46
484.055	5.45
484.408	5.42
484.761	5.38
485.114	5.25
485.466	5.15
485.819	5.16
486.172	5.1
486.525	5.18
486.878	5.21
487.23	5.26
487.583	5.33
487.936	5.38
488.288	5.34
488.641	5.34
488.993	5.26
489.345	5.25
489.698	5.26
490.05	5.26
490.402	5.28
490.754	5.41
491.107	5.34
491.459	5.36
491.811	5.46
492.163	5.49
492.515	5.45
492.866	5.38
493.218	5.28
493.57	5.26
493.922	5.27
494.274	5.33
494.625	5.31
494.977	5.33
495.328	5.44
495.68	5.32
496.031	5.54
496.383	5.47
496.734	5.47
497.086	5.55
497.437	5.63
497.788	5.51
498.139	5.52
498.49	5.37
498.842	5.38
499.193	5.38
499.544	5.44
499.894	5.44
500.245	5.45
500.596	5.42
500.947	5.4
501.298	5.43
501.648	5.41
501.999	5.47
502.35	5.65
502.7	5.59
503.051	5.66
503.401	5.57
503.752	5.35
504.102	5.44
504.452	5.55
504.803	5.64
505.153	5.41
505.503	5.46
505.853	5.44
506.203	5.46
506.553	5.29
506.903	5.46
507.253	5.37
507.603	5.48
507.953	5.46
508.303	5.68
508.652	5.52
509.002	5.51
509.352	5.46
509.701	5.5
510.051	5.41
510.4	5.5
510.75	5.48
511.099	5.54
511.449	5.57
511.798	5.54
512.147	5.45
512.496	5.46
512.846	5.45
513.195	5.5
513.544	5.49
513.893	5.49
514.242	5.48
514.591	5.58
514.939	5.53
515.288	5.56
515.637	5.56
515.986	5.56
516.334	5.55
516.683	5.46
517.032	5.56
517.38	5.44
517.729	5.66
518.077	5.58
518.426	5.61
518.774	5.61
519.122	5.53
519.47	5.53
519.819	5.51
520.167	5.46
520.515	5.46
520.863	5.45
521.211	5.5
521.559	5.52
521.907	5.48
522.255	5.59
522.602	5.52
522.95	5.45
523.298	5.54
523.645	5.58
523.993	5.64
524.341	5.6
524.688	5.61
525.036	5.57
525.383	5.65
525.73	5.53
526.078	5.62
526.425	5.69
526.772	5.49
527.119	5.56
527.466	5.52
527.814	5.49
528.161	5.62
528.508	5.44
528.854	5.53
529.201	5.5
529.548	5.5
529.895	5.45
530.242	5.39
530.588	5.33
530.935	5.31
531.282	5.31
531.628	5.33
531.975	5.35
532.321	5.5
532.667	5.45
533.014	5.53
533.36	5.46
533.706	5.62
534.052	5.49
534.399	5.51
534.745	5.47
535.091	5.43
535.437	5.45
535.783	5.41
536.129	5.45
536.474	5.44
536.82	5.52
537.166	5.55
537.512	5.58
537.857	5.62
538.203	5.54
538.549	5.47
538.894	5.48
539.239	5.5
539.585	5.45
539.93	5.47
540.276	5.55
540.621	5.55
540.966	5.62
541.311	5.64
541.656	5.76
542.001	5.58
542.346	5.54
542.691	5.45
543.036	5.45
543.381	5.4
543.726	5.46
544.071	5.36
544.415	5.39
544.76	5.45
545.105	5.55
545.449	5.47
545.794	5.53
546.138	5.53
546.483	5.54
546.827	5.53
547.171	5.42
547.516	5.54
547.86	5.53
548.204	5.52
548.548	5.52
548.892	5.48
549.236	5.57
549.58	5.47
549.924	5.55
550.268	5.62
550.612	5.67
550.956	5.6
551.3	5.54
551.643	5.44
551.987	5.59
552.33	5.88
552.674	5.67
553.017	5.46
553.361	5.7
553.704	5.54
554.048	5.58
554.391	5.64
554.734	5.58
555.077	5.5
555.42	5.64
555.764	5.58
556.107	5.53
556.45	5.68
556.793	5.68
557.135	5.7
557.478	5.68
557.821	5.65
558.164	5.45
558.507	5.84
558.849	5.58
559.192	5.7
559.534	5.79
559.877	5.8
560.219	5.79
560.562	5.65
560.904	5.82
561.246	5.65
561.589	5.46
561.931	5.83
562.273	5.64
562.615	5.68
562.957	5.65
563.299	5.72
563.641	5.68
563.983	5.57
564.325	5.58
564.667	5.71
565.008	5.69
565.35	5.68
565.692	5.66
566.033	5.69
566.375	5.55
566.716	5.46
567.058	5.54
567.399	5.89
567.741	5.63
568.082	5.4
568.423	5.58
568.764	5.62
569.105	5.51
569.447	5.7
569.788	5.57
570.129	5.79
570.47	5.82
570.811	5.6
571.151	5.54
571.492	5.68
571.833	5.71
572.174	5.67
572.514	5.65
572.855	5.69
573.195	5.6
573.536	5.69
573.876	5.45
574.217	5.52
574.557	5.6
574.898	5.68
575.238	5.71
575.578	5.74
575.918	5.74
576.258	5.68
576.598	5.62
576.938	5.47
577.278	5.55
577.618	5.53
577.958	5.69
578.298	5.56
578.638	5.51
578.977	5.44
579.317	5.33
579.657	5.76
579.996	5.7
580.336	5.61
580.675	5.55
581.014	5.67
581.354	5.67
581.693	5.56
582.032	5.78
582.372	5.63
582.711	5.4
583.05	5.58
583.389	5.53
583.728	5.71
584.067	5.63
584.406	5.57
584.745	5.66
585.083	5.59
585.422	5.59
585.761	5.98
586.1	5.61
586.438	5.66
586.777	5.78
587.115	5.65
587.454	5.74
587.792	5.45
588.13	5.5
588.469	5.77
588.807	5.45
589.145	5.59
589.483	5.59
589.821	5.47
590.159	5.53
590.497	5.73
590.835	5.96
591.173	5.61
591.511	5.67
591.849	5.6
592.187	5.65
592.524	5.65
592.862	5.67
593.2	5.58
593.537	5.84
593.875	5.51
594.212	5.55
594.55	5.68
594.887	5.8
595.224	5.62
595.561	5.62
595.899	5.68
596.236	5.71
596.573	5.58
596.91	5.69
597.247	5.73
597.584	5.54
597.921	5.58
598.258	5.64
598.594	5.7
598.931	5.55
599.268	5.59
599.604	5.62
599.941	5.84
600.277	5.8
600.614	5.37
600.95	5.73
601.287	5.54
601.623	5.65
601.959	5.58
602.296	5.6
602.632	5.75
602.968	5.75
603.304	5.66
603.64	5.62
603.976	5.84
604.312	5.73
604.648	5.49
604.984	5.81
605.319	5.7
605.655	5.68
605.991	5.38
606.326	5.43
606.662	5.6
606.998	5.77
607.333	5.52
607.668	5.56
608.004	5.59
608.339	5.53
608.674	5.6
609.01	5.45
609.345	5.6
609.68	5.77
610.015	5.65
610.35	5.82
610.685	5.58
611.02	5.75
611.355	5.54
611.689	5.73
612.024	5.64
612.359	5.43
612.694	5.54
613.028	5.47
613.363	5.67
613.697	5.66
614.032	5.62
614.366	5.54
614.7	5.52
615.035	5.68
615.369	5.71
615.703	5.74
616.037	5.72
616.371	5.39
616.705	5.84
617.039	5.51
617.373	5.49
617.707	5.54
618.041	5.65
618.375	5.43
618.709	5.72
619.042	5.6
619.376	5.71
619.71	5.65
620.043	5.77
620.377	5.73
620.71	5.53
621.043	5.98
621.377	5.64
621.71	5.77
622.043	5.48
622.376	5.62
622.709	5.41
623.043	5.7
623.376	5.51
623.709	5.53
624.041	5.55
624.374	5.7
624.707	5.4
625.04	5.65
625.373	5.91
625.705	5.89
626.038	5.5
626.37	5.93
626.703	5.96
627.035	5.62
627.368	5.84
627.7	5.81
628.032	5.8
628.365	5.6
628.697	5.42
629.029	5.47
629.361	5.72
629.693	5.31
630.025	5.59
630.357	5.61
630.689	5.48
631.021	5.5
631.353	5.74
631.684	5.62
632.016	5.71
632.348	5.7
632.679	6.09
633.011	5.55
633.342	5.48
633.674	5.59
634.005	5.9
634.336	5.71
634.668	5.73
634.999	5.53
635.33	5.2
635.661	5.66
635.992	5.42
636.323	5.77
636.654	5.61
636.985	5.75
637.316	5.6
637.647	5.43
637.977	5.65
638.308	5.71
638.639	5.14
638.969	5.28
639.3	5.62
639.63	5.96
639.961	5.68
640.291	5.53
640.622	5.47
640.952	5.72
641.282	5.71
641.612	5.79
641.943	5.71
642.273	6.35
642.603	5.51
642.933	5.59
643.263	5.41
643.592	5.45
643.922	5.65
644.252	5.38
644.582	6.06
644.911	5.65
645.241	5.77
645.571	5.68
645.9	5.35
646.23	5.68
646.559	5.72
646.888	5.61
647.218	5.88
647.547	5.68
647.876	5.76
648.205	6
648.534	5.38
648.863	5.49
649.192	5.51
649.521	6.06
649.85	5.96
650.179	5.93
650.508	6.02
650.837	5.74
651.165	5.36
651.494	5.72
651.822	5.76
652.151	5.45
652.479	5.75
652.808	5.99
653.136	5.42
653.465	5.6
653.793	5.68
654.121	5.85
654.449	5.33
654.777	5.28
655.105	5.62
655.433	5.97
655.761	5.68
656.089	5.7
656.417	5.61
656.745	5.55
657.073	5.83
657.4	5.69
657.728	6.18
658.056	5.75
658.383	5.81
658.711	6.15
659.038	5.52
659.365	5.37
659.693	5.55
660.02	5.71
660.347	5.9
660.674	5.38
661.001	6
661.329	5.79
661.656	5.83
661.982	5.51
662.309	5.62
662.636	5.69
662.963	5.92
663.29	5.33
663.616	5.91
663.943	5.38
664.27	5.51
664.596	5.28
664.923	5.7
665.249	6.41
665.576	5.83
665.902	5.97
666.228	6.17
666.554	5.62
666.881	5.99
667.207	5.76
667.533	6.08
667.859	5.96
668.185	6.09
668.511	5.39
668.837	5.64
669.162	5.51
669.488	5.46
669.814	5.5
670.139	6.14
670.465	5.85
670.791	5.63
671.116	5.81
671.442	5.71
671.767	6.09
672.092	5.43
672.418	5.49
672.743	6.04
673.068	5.33
673.393	5.47
673.718	6.11
674.043	6.02
674.368	6.48
674.693	5.13
675.018	5.84
675.343	5.37
675.667	6.21
675.992	5.88
676.317	5.61
676.641	5.35
676.966	6.14
677.29	5.78
677.615	5.36
677.939	6.44
678.264	6.24
678.588	6.39
678.912	5.48
679.236	6.49
679.56	5.48
679.885	6.27
680.209	5.95
680.532	5.14
680.856	5.44
681.18	5.3
681.504	5.07
681.828	6.28
682.152	6.09
682.475	5.54
682.799	5.61
683.122	5.55
683.446	5.94
683.769	5.41
684.093	6.08
684.416	6.42
684.739	5.84
685.062	6.17
685.386	6.17
685.709	6.54
686.032	6.1
686.355	6.39
686.678	5.27
687.001	6.28
687.324	6.09
687.646	6.76
687.969	6.19
688.292	5.35
688.614	6.03
688.937	4.81
689.26	5.93
689.582	5.36
689.904	5.61
690.227	5.83
690.549	5.8
690.871	5.71
691.194	5.9
691.516	5.54
691.838	5.93
692.16	6.19
692.482	6.07
692.804	6.23
693.126	6.3
693.448	6.73
693.769	5.87
694.091	6.13
694.413	5.34
694.735	5.98
695.056	5.86
695.378	6.52
695.699	5.77
696.021	6.15
696.342	5.7
696.663	6
696.984	6.98
697.306	5.94
697.627	5.4
697.948	6.21
698.269	5.26
698.59	5.95
698.911	5.34
699.232	6.06
699.553	6.57
699.873	5.63
700.194	5.92
700.515	5.95
700.835	6.23
701.156	6.68
701.477	6.36
701.797	6.14
702.117	6.7
702.438	6.05
702.758	5.66
703.078	6.25
703.398	6.31
703.719	5.76
704.039	6.1
704.359	5.92
704.679	5.98
704.999	6.01
705.319	5.98
705.638	6.82
705.958	5.66
706.278	6.64
706.597	5.44
706.917	5.52
707.237	6.01
707.556	5.91
707.876	5.74
708.195	6.51
708.514	5.43
708.834	6.8
709.153	6.48
709.472	6.31
709.791	5.79
710.11	6.36
710.429	5.11
710.748	5.37
711.067	6.29
711.386	6.3
711.705	6.46
712.023	6.8
712.342	6.01
712.661	6.51
712.979	6.44
713.298	6.17
713.616	5.66
713.935	4.62
714.253	5.67
714.572	6.56
714.89	6.92
715.208	5.79
715.526	6.21
715.844	6.39
716.162	5.69
716.48	6.28
716.798	6.39
717.116	6.74
717.434	5.95
717.752	6.23
718.069	6.48
718.387	6.57
718.705	5.12
719.022	6.72
719.34	6.93
719.657	6.77
719.975	5.92
720.292	6.72
720.609	5.23
720.927	6.42
721.244	6.19
721.561	7.13
721.878	5.65
722.195	6.21
722.512	6.87
722.829	7.45
723.146	5.78
723.463	5.99
723.779	6.35
724.096	5.43
724.413	6.84
724.729	6.52
725.046	6.62
725.362	8.7
725.679	7.38
725.995	7.15
726.311	6.84
726.628	6.35
726.944	7.68
727.26	7.23
727.576	6.21
727.892	6.38
728.208	6.19
728.524	6.84
728.84	7.63
729.156	7.56
729.472	6.64
729.787	7.93
730.103	6.19
730.419	7.53
730.734	6.53
731.05	6.26
731.365	7.02
731.681	6.73
731.996	5.94
732.311	7.06
732.626	6.65
732.942	7.83
733.257	6.42
733.572	7.15
733.887	6.21
734.202	7.26
734.517	5.64
734.832	6.3
735.146	6.87
735.461	5.06
735.776	7.32
736.091	6.5
736.405	5.78
736.72	7.32
737.034	7.09
737.349	6.05
737.663	7.21
737.977	5.51
738.292	6.08
738.606	5.58
738.92	6.31
739.234	7.69
739.548	7.17
739.862	5.12
740.176	6.07
740.49	6.63
740.804	6.79
741.117	6.92
741.431	7.85
741.745	6.35
742.058	8.22
742.372	7.01
742.685	7.74
742.999	5.79
743.312	7.32
743.626	5.39
743.939	8.37
744.252	7.83
744.565	5.84
744.878	6.88
745.191	7.43
745.505	7.86
745.817	7.54
746.13	6.53
746.443	6.58
746.756	8.26
747.069	5.03
747.381	7.08
747.694	4.94
748.007	7.19
748.319	6.47
748.632	7.41
748.944	6.79
749.256	6.48
749.569	6.78
749.881	7.43
750.193	6.1
750.505	7.19
750.817	5.33
751.129	7.35
751.441	7.73
751.753	6.63
752.065	7.43
752.377	5.14
752.689	6.74
753	7.31
753.312	8.02
753.624	6.75
753.935	6.14
754.247	6.73
754.558	5.29
754.869	7.2
755.181	6.19
755.492	7.23
755.803	9.17
756.114	7.41
756.425	7.02
756.736	8.16
757.047	8.1
757.358	8.07
757.669	6.07
757.98	6.65
758.291	6.6
758.601	5.38
758.912	7.06
759.223	6.6
759.533	7.37
759.844	6.45
760.154	6
760.464	6.6
760.775	7.35
761.085	7.04
761.395	6.32
761.705	7.2
762.016	8.59
762.326	6.13
762.636	9.42
762.945	7.79
763.255	7.73
763.565	6.89
763.875	9.28
764.185	5.71
764.494	7.14
764.804	8.14
765.113	7.35
765.423	7.24
765.732	7.41
766.042	7.13
766.351	8.18
766.66	7.54
766.97	6.39
767.279	7.63
767.588	8.26
767.897	6.86
768.206	6.27
768.515	8.87
768.824	8.92
769.133	7.46
769.441	7.17
769.75	7.15
770.059	5.32
770.367	6.34
770.676	9.16
770.984	8.08
771.293	6.04
771.601	7.38
771.91	8.25
772.218	7.98
772.526	8.25
772.834	8.94
773.142	6.36
773.45	6.25
773.758	8.23
774.066	4.97
774.374	7.11
774.682	8.17
774.99	6.58
775.298	7.71
775.605	7.59
775.913	8.26
776.22	8.84
776.528	8.58
776.835	7.18
777.143	10.61
777.45	7.99
777.757	10.42
778.065	6.64
778.372	8.01
778.679	6.97
778.986	10.53
779.293	3.88
779.6	7.9
779.907	5.1
780.214	8.52
780.52	7.19
780.827	11.09
781.134	5.29
781.44	3.99
781.747	7.54
782.053	5.26
782.36	7.92
782.666	6.49
782.973	8.41
783.279	9.41
783.585	7.53
783.891	8.25
784.197	9.53
784.503	12.4
784.809	4.94
785.115	9.04
785.421	9.58
785.727	5.2
786.033	6.9
786.339	9.99
786.644	5.92
786.95	13.16
787.255	8.35
787.561	6.48
787.866	8.86
788.172	4.37
788.477	6.11
788.782	7.6
789.088	9.37
789.393	9.58
789.698	8.27
790.003	11.29
790.308	4.21
790.613	10.22
790.918	12.25
791.223	8.92
791.527	6.65
791.832	6.72
792.137	10.21
792.441	9.6
792.746	10.02
793.05	7.65
793.355	6.15
793.659	10.35
793.963	5.68
794.268	3.11
794.572	7.07
794.876	9.86
795.18	6.54
795.484	9.33
795.788	11.25
796.092	3.9
796.396	4.1
796.7	9.41
797.004	5.68
797.307	6.45
797.611	12.07
797.915	9.1
798.218	8.68
798.522	7.16
798.825	3.85
799.128	9.44
799.432	8.34
799.735	9.46
800.038	5.18
800.341	9.72
800.644	7.39
800.947	7.68
801.25	12.32
801.553	7.88
801.856	8.4
802.159	6.82
802.462	7.14
802.764	10.53
803.067	-0.58
803.37	7.5
803.672	9.24
803.975	14.73
804.277	6.51
804.579	7.65
804.882	11.31
805.184	10
805.486	11.05
805.788	10.05
806.09	9.07
806.392	13.36
806.694	6.35
806.996	10.82
807.298	10.26
807.6	6.68
807.902	7.5
808.203	10.87
808.505	7.26
808.807	6.9
809.108	4.72
809.409	6.17
809.711	8.84
810.012	13.75
810.313	11.65
810.615	12.03
810.916	12.35
811.217	9.14
811.518	10.73
811.819	9.74
812.12	8.26
812.421	5.38
812.722	12.78
813.023	5.92
813.323	7.94
813.624	5.96
813.925	11.34
814.225	8.87
814.526	8.5
814.826	9.1
815.126	11.52
815.427	3.58
815.727	9.8
816.027	9.46
816.327	8.32
816.627	4.57
816.927	17.27
817.227	2.94
817.527	10.72
817.827	4
818.127	8.51
818.427	9.78
818.727	8.21
819.026	7.76
819.326	10.21
819.625	6.35
819.925	12.31
820.224	3.03
820.524	6.52
820.823	9.38
821.122	9.35
821.421	6.01
821.72	11.1
822.019	10.96
822.318	5.95
822.617	7.23
822.916	3.95
823.215	8.81
823.514	8.97
823.813	10.35
824.111	9.05
824.41	8.11
824.709	8.79
825.007	8.77
825.306	8.49
825.604	8.09
825.902	8.5
826.201	9.11
826.499	8.91
826.797	7.47
827.095	9.69
827.393	8.23
827.691	6.08
827.989	7.84
828.287	8.42
828.585	7.42
828.882	11.28
829.18	6.28
829.478	10.01
829.775	6.73
830.073	7.84
830.37	10.02
830.668	8.59
830.965	11.4
831.263	9.56
831.56	9.39
831.857	8.37
832.154	7.75
832.451	9.46
832.748	10.14
833.045	9.15
833.342	10.36
833.639	11.17
833.936	11.53
834.232	10.27
834.529	2.33
834.826	12.09
835.122	12
835.419	11.03
835.715	6.56
836.012	9.67
836.308	5.31
836.604	9.99
836.901	6.91
837.197	8.87
837.493	10.84
837.789	8.52
838.085	10.15
838.381	10.93
838.677	12.11
838.972	9.8
839.268	11.75
839.564	4.97
839.86	10.5
840.155	13.69
840.451	3.8
840.746	7.81
841.042	7.11
841.337	16.85
841.632	7.38
841.928	11.74
842.223	10.13
842.518	6.71
842.813	7.66
843.108	13.48
843.403	3.24
843.698	13.24
843.993	11.95
844.287	7.9
844.582	13.21
844.877	8.9
845.171	8.8
845.466	11.79
845.761	8.34
846.055	11.13
846.349	7.17
846.644	9.45
846.938	3.54
847.232	22.11
847.526	14.97
847.82	5.08
848.114	21.97
848.408	-0.22
848.702	9.28
848.996	21.35
849.29	-3.33
849.584	14.76
849.877	-17.88
850.171	0.79
850.465	16.05
850.758	17.33
851.052	4.48
851.345	20.58
851.638	1.93
851.932	2.26
852.225	17.14
852.518	2.98
852.811	7.74
853.104	27.25
853.397	6.44
853.69	-3.75
853.983	26.06
854.276	3.62
854.569	-2.96
854.861	24.36
855.154	16.08
855.447	29.05
855.739	10.54
856.032	14.93
856.324	18.45
856.616	20.88
856.909	17.11
857.201	8.27
857.493	1.25
857.785	18.29
858.077	19.11
858.369	12.71
858.661	7.66
858.953	19.95
859.245	14.14
859.537	24.38
859.829	-6.42
860.12	2.76
860.412	30.74
860.703	-4.04
860.995	4.59
861.286	11.75
861.578	4.36
861.869	12.77
862.16	22.98
862.452	-0.89
862.743	20.45
863.034	21.31
863.325	8.76
863.616	0.42
863.907	11.77
864.198	5.5
864.488	26.14
864.779	15.8
865.07	12.93
865.36	5.26
865.651	-25.38
865.941	24.79
866.232	23.61
866.522	39.21
866.813	-6.55
867.103	13.01
867.393	21.17
867.683	-1.89
867.973	17.39
868.263	10.87
868.553	33.23
868.843	-1.93
869.133	32.68
869.423	5.11
869.713	4.88
870.002	30.61
870.292	2.32
870.582	34.78
870.871	8.54
871.161	-12.42
871.45	4.28
871.739	6.9
872.029	25.81
872.318	6.92
872.607	5.5
872.896	17.98
873.185	-6.72
873.474	31.58
873.763	17.01
874.052	26.61
874.341	14.11
874.63	13.61
874.918	18.71
875.207	8.27
875.496	11.4
875.784	-4.71
876.073	24.79
876.361	23.55
876.649	8.44
876.938	16.33
877.226	34.16
877.514	3.14
877.802	12.99
878.09	-12.49
878.378	18.46
878.666	-8
878.954	-67.89
879.242	20.93
879.53	25.76
879.817	24.08
880.105	9.31
880.392	23.23
880.68	11.16
880.967	5.21
881.255	36.29
881.542	-6.82
881.83	32.86
882.117	-18.86
882.404	4.65
882.691	12.57
882.978	19.53
883.265	1.63
883.552	14.64
883.839	11.95
884.126	11.03
884.413	7.93
884.699	5.15
884.986	6.8
885.273	12.51
885.559	12.51
885.846	12.51
