Data from 0021_chest_Reflection__2__18.txt Node

Date: Thu Oct 20 20:30:13 CDT 2022
User: ToomeyLab
Spectrometer: FLMS14357
Trigger mode: 0
Integration Time (sec): 1.000000E-2
Scans to average: 100
Electric dark correction enabled: true
Nonlinearity correction enabled: false
Boxcar width: 0
XAxis mode: Wavelengths
Number of Pixels in Spectrum: 2048
>>>>>Begin Spectral Data<<<<<
189.047	163.38
189.435	163.38
189.823	163.38
190.211	121.18
190.599	124.27
190.987	-107.93
191.375	-128.77
191.763	-64.98
192.151	206.5
192.538	-118.34
192.926	92.47
193.314	258.53
193.702	184.71
194.089	39.77
194.477	-89.86
194.864	-473.31
195.252	9.61
195.639	123.02
196.027	79.61
196.414	598.55
196.801	6.07
197.189	317.89
197.576	622.08
197.963	-24.44
198.351	27.76
198.738	-2.75
199.125	4.32
199.512	-1.3
199.899	1.48
200.286	-6.84
200.673	22.95
201.06	33.04
201.447	40.13
201.833	27.13
202.22	21.02
202.607	32.35
202.994	35.55
203.38	-27.62
203.767	-2.29
204.154	-16.03
204.54	18.95
204.927	22.16
205.313	1.54
205.699	37.31
206.086	30.31
206.472	7.7
206.858	49.76
207.245	2.75
207.631	-70.34
208.017	4.96
208.403	37.63
208.789	1.19
209.175	24.64
209.561	12.19
209.947	32.24
210.333	20.83
210.719	29.11
211.105	8.79
211.491	13
211.876	-2.08
212.262	-39.44
212.648	-26.97
213.034	3.8
213.419	18.39
213.805	23.61
214.19	4.33
214.576	19.88
214.961	-13.29
215.346	17.56
215.732	13.49
216.117	-0.88
216.502	29.24
216.888	51.59
217.273	21.46
217.658	22.85
218.043	-25.57
218.428	-10.29
218.813	15.89
219.198	12.09
219.583	24.54
219.968	-0.72
220.353	8.33
220.738	5.01
221.122	-0.6
221.507	-5.61
221.892	5.53
222.276	1.39
222.661	0.04
223.046	2.24
223.43	7.44
223.815	-5.65
224.199	2.71
224.583	4.25
224.968	6.24
225.352	5.09
225.736	5.22
226.121	3.97
226.505	10.56
226.889	2.77
227.273	1.39
227.657	2.89
228.041	2.25
228.425	0.78
228.809	4.09
229.193	1.56
229.577	2.06
229.961	0.11
230.344	2.07
230.728	1.98
231.112	1.27
231.495	1.97
231.879	1.45
232.263	1.74
232.646	1.94
233.03	-0.15
233.413	0.49
233.797	2.53
234.18	1.3
234.563	1.22
234.946	0.93
235.33	-0.38
235.713	3.93
236.096	0.5
236.479	-0.21
236.862	4.53
237.245	1.01
237.628	1.49
238.011	0.33
238.394	1.29
238.777	1.73
239.16	0.9
239.543	2.44
239.925	1.29
240.308	2.61
240.691	0.52
241.073	2.41
241.456	0.46
241.838	0.47
242.221	2.54
242.603	2.19
242.986	1.5
243.368	1.33
243.75	1.79
244.133	1.25
244.515	1.5
244.897	1.22
245.279	1.32
245.661	0.99
246.043	1.37
246.425	1.99
246.807	2.11
247.189	1.28
247.571	1.38
247.953	1.2
248.335	1.27
248.717	1.49
249.098	1.26
249.48	1.41
249.862	1.69
250.243	1.21
250.625	1.75
251.006	2.54
251.388	1.73
251.769	0.77
252.151	1.46
252.532	2.12
252.913	2.31
253.295	1.32
253.676	1.21
254.057	1.04
254.438	1.84
254.819	2.11
255.2	2.01
255.581	2.64
255.962	1.67
256.343	2.62
256.724	0.75
257.105	2.43
257.486	1.08
257.867	1.56
258.247	1.08
258.628	1.41
259.009	1.16
259.389	0.65
259.77	1.76
260.15	1.36
260.531	1.65
260.911	1.18
261.292	1.23
261.672	1.27
262.052	1.26
262.432	1.46
262.813	1.38
263.193	1.44
263.573	1.68
263.953	1.09
264.333	1.56
264.713	1.25
265.093	1.13
265.473	2.23
265.853	1.2
266.233	0.59
266.612	1.67
266.992	2.59
267.372	2.12
267.752	1.48
268.131	1.02
268.511	1.6
268.89	1.05
269.27	1.66
269.649	1.33
270.029	1.35
270.408	1.09
270.787	1.38
271.167	2.06
271.546	0.59
271.925	1.75
272.304	1.62
272.683	1.27
273.062	1.58
273.441	1.54
273.82	1.18
274.199	1.45
274.578	1.84
274.957	1.69
275.336	1.61
275.715	0.82
276.093	1.76
276.472	1.39
276.851	1.49
277.229	0.68
277.608	0.89
277.986	0.98
278.365	1.46
278.743	1.52
279.122	1.8
279.5	0.81
279.878	1.38
280.257	1.14
280.635	1.18
281.013	1.75
281.391	1.22
281.769	1.03
282.147	1.8
282.525	1
282.903	1.48
283.281	0.83
283.659	1.67
284.037	1.37
284.415	1.74
284.792	1.14
285.17	1.28
285.548	1.15
285.925	1.75
286.303	1.6
286.68	1.43
287.058	1.39
287.435	1.52
287.813	1.11
288.19	1.58
288.567	0.81
288.945	1.95
289.322	0.97
289.699	1.9
290.076	2.07
290.453	1.85
290.83	1.52
291.207	1.5
291.584	0.82
291.961	1.4
292.338	1.26
292.715	0.87
293.092	1.16
293.469	1.93
293.845	1.55
294.222	1.33
294.599	1.35
294.975	1.51
295.352	1.66
295.728	1.84
296.105	1.42
296.481	1.68
296.858	1.84
297.234	1.28
297.61	1.3
297.986	1.31
298.363	1.47
298.739	1.76
299.115	1.63
299.491	1.71
299.867	1.37
300.243	1.37
300.619	1.56
300.995	1.32
301.371	1.49
301.746	1.45
302.122	1.17
302.498	1.78
302.874	1.47
303.249	1.61
303.625	1.23
304	1.77
304.376	1.24
304.751	1.62
305.127	0.96
305.502	1.18
305.878	1.59
306.253	1.51
306.628	1.64
307.003	1.6
307.378	1.91
307.754	1.69
308.129	2.02
308.504	1.52
308.879	2.05
309.254	1.75
309.629	1.71
310.003	1.69
310.378	2.02
310.753	1.53
311.128	1.32
311.502	1.87
311.877	1.43
312.252	1.58
312.626	1.58
313.001	1.69
313.375	1.85
313.75	1.52
314.124	1.41
314.498	1.56
314.873	1.99
315.247	2.04
315.621	1.68
315.995	1.56
316.369	1.19
316.743	2.09
317.117	1.26
317.491	2.16
317.865	2.19
318.239	1.76
318.613	1.88
318.987	1.78
319.361	1.93
319.734	2.25
320.108	1.99
320.482	1.4
320.855	2.15
321.229	1.67
321.602	2.11
321.976	1.95
322.349	1.99
322.723	2.19
323.096	1.33
323.469	1.71
323.843	2.45
324.216	1.85
324.589	1.79
324.962	2.25
325.335	1.26
325.708	1.84
326.081	2.13
326.454	1.85
326.827	2.16
327.2	2.13
327.573	1.87
327.945	1.94
328.318	1.92
328.691	1.93
329.063	1.44
329.436	1.77
329.809	2.29
330.181	1.88
330.553	1.46
330.926	1.31
331.298	1.55
331.671	2.05
332.043	1.84
332.415	1.8
332.787	2.11
333.159	1.7
333.532	2.02
333.904	1.76
334.276	2.12
334.648	1.42
335.02	1.61
335.391	2.37
335.763	2.29
336.135	1.64
336.507	2.08
336.879	1.84
337.25	1.56
337.622	1.58
337.993	2.13
338.365	2.12
338.736	1.63
339.108	1.67
339.479	2.08
339.851	2.09
340.222	1.74
340.593	1.83
340.964	1.58
341.336	1.91
341.707	2.06
342.078	1.79
342.449	2.2
342.82	1.62
343.191	1.84
343.562	2.26
343.933	1.81
344.303	2.19
344.674	1.19
345.045	1.91
345.416	1.83
345.786	1.82
346.157	1.8
346.527	1.29
346.898	1.91
347.268	1.91
347.639	2.2
348.009	1.48
348.38	1.93
348.75	1.64
349.12	1.53
349.49	1.9
349.861	1.98
350.231	1.62
350.601	2.04
350.971	1.88
351.341	2.19
351.711	1.67
352.081	2.31
352.45	1.52
352.82	1.66
353.19	2.2
353.56	1.44
353.929	1.96
354.299	1.64
354.669	2.2
355.038	1.82
355.408	1.19
355.777	2
356.147	1.83
356.516	2.1
356.885	2.19
357.254	2.3
357.624	1.58
357.993	1.45
358.362	2.23
358.731	2.06
359.1	1.85
359.469	2.18
359.838	1.98
360.207	2.21
360.576	2
360.945	1.73
361.314	2.24
361.682	1.85
362.051	1.93
362.42	1.55
362.788	1.68
363.157	1.91
363.525	2
363.894	1.91
364.262	1.56
364.631	2.04
364.999	1.71
365.367	1.52
365.735	1.73
366.104	1.73
366.472	2.11
366.84	1.46
367.208	1.76
367.576	2.22
367.944	2.28
368.312	2.16
368.68	2.3
369.048	1.69
369.416	1.93
369.783	1.81
370.151	1.98
370.519	2.42
370.886	1.94
371.254	2.14
371.621	1.81
371.989	1.58
372.356	1.86
372.724	2.24
373.091	1.71
373.458	1.96
373.826	1.97
374.193	1.96
374.56	2.32
374.927	2.07
375.294	1.93
375.661	1.98
376.028	2.09
376.395	1.91
376.762	1.74
377.129	2.15
377.496	1.95
377.863	1.94
378.229	1.72
378.596	1.65
378.963	1.93
379.329	1.82
379.696	2.06
380.062	1.96
380.429	2.04
380.795	2.01
381.161	1.97
381.528	1.95
381.894	1.98
382.26	1.76
382.626	2.12
382.993	2.22
383.359	2.05
383.725	1.92
384.091	1.88
384.457	1.71
384.823	1.75
385.188	2.01
385.554	1.92
385.92	1.87
386.286	1.88
386.651	1.79
387.017	1.66
387.383	2.1
387.748	2.06
388.114	1.98
388.479	1.94
388.845	1.97
389.21	1.8
389.575	1.65
389.94	2.14
390.306	1.59
390.671	1.74
391.036	2.16
391.401	1.75
391.766	1.86
392.131	1.88
392.496	1.65
392.861	1.87
393.226	2.08
393.591	1.69
393.956	1.65
394.32	1.92
394.685	2.08
395.05	1.67
395.414	1.94
395.779	1.82
396.143	1.94
396.508	2.01
396.872	1.66
397.236	2.13
397.601	2.27
397.965	2.06
398.329	1.83
398.694	1.95
399.058	1.98
399.422	1.76
399.786	2
400.15	1.89
400.514	1.89
400.878	2.03
401.242	2.16
401.605	1.89
401.969	1.76
402.333	1.89
402.697	2.06
403.06	1.82
403.424	1.89
403.787	1.69
404.151	1.81
404.514	1.73
404.878	1.91
405.241	1.85
405.604	2.03
405.968	1.79
406.331	1.9
406.694	2.08
407.057	1.68
407.42	1.94
407.783	2.03
408.146	2.08
408.509	2.1
408.872	2.05
409.235	1.8
409.598	1.82
409.961	1.71
410.323	1.88
410.686	1.92
411.049	1.65
411.411	2
411.774	2.14
412.136	1.83
412.499	1.93
412.861	1.86
413.223	1.98
413.586	2.21
413.948	1.89
414.31	1.84
414.672	2.07
415.035	2.08
415.397	1.96
415.759	1.81
416.121	1.83
416.483	2.13
416.845	2.14
417.206	1.96
417.568	1.83
417.93	1.63
418.292	2.09
418.653	1.89
419.015	1.91
419.377	1.91
419.738	1.93
420.1	1.78
420.461	1.81
420.822	1.89
421.184	1.95
421.545	1.84
421.906	1.88
422.267	1.84
422.629	1.99
422.99	1.82
423.351	1.88
423.712	1.88
424.073	1.79
424.434	1.78
424.795	1.85
425.155	1.84
425.516	1.74
425.877	1.78
426.238	1.97
426.598	1.87
426.959	1.87
427.32	1.93
427.68	1.97
428.041	1.96
428.401	2.01
428.761	1.99
429.122	2.13
429.482	2.07
429.842	1.97
430.202	1.97
430.563	1.99
430.923	2.02
431.283	2.05
431.643	1.93
432.003	2.12
432.363	2.03
432.722	1.94
433.082	1.93
433.442	2
433.802	2.11
434.161	2.03
434.521	2.05
434.881	2
435.24	1.88
435.6	2.1
435.959	1.99
436.319	2.06
436.678	2.08
437.037	2.16
437.396	2.14
437.756	2.01
438.115	2.14
438.474	2.1
438.833	1.92
439.192	1.91
439.551	1.97
439.91	2.09
440.269	1.96
440.628	2.01
440.987	2.14
441.345	2.09
441.704	1.98
442.063	1.97
442.421	1.94
442.78	1.93
443.138	2.07
443.497	2.04
443.855	2.03
444.214	1.93
444.572	1.91
444.93	2.09
445.288	2.12
445.647	1.97
446.005	2.02
446.363	2.09
446.721	1.98
447.079	2.05
447.437	2.03
447.795	1.94
448.153	1.89
448.51	1.96
448.868	2
449.226	1.97
449.584	2.16
449.941	2.02
450.299	2.05
450.656	2.07
451.014	2.07
451.371	2.08
451.729	2.13
452.086	2.03
452.443	2.11
452.801	2.16
453.158	1.93
453.515	2.03
453.872	1.96
454.229	2.17
454.586	2.13
454.943	2.2
455.3	2.1
455.657	2.11
456.014	2.28
456.371	2.17
456.727	2.16
457.084	2.06
457.441	2.02
457.797	2.35
458.154	2.11
458.51	2.12
458.867	2.06
459.223	2.07
459.58	2.02
459.936	2.02
460.292	2.08
460.648	2.06
461.005	2.03
461.361	1.9
461.717	2.02
462.073	1.98
462.429	2.15
462.785	1.99
463.141	2.14
463.496	2.15
463.852	2.26
464.208	2.29
464.564	2.26
464.919	2.2
465.275	2.11
465.631	2.1
465.986	2.11
466.342	2.08
466.697	1.98
467.052	2.13
467.408	2.15
467.763	2
468.118	2.15
468.473	2.1
468.829	2.17
469.184	2.15
469.539	2.15
469.894	2.2
470.249	2.03
470.603	2.1
470.958	2.16
471.313	2.31
471.668	1.98
472.023	2.25
472.377	2.21
472.732	2.18
473.086	2.19
473.441	2.11
473.795	2.3
474.15	2.14
474.504	2.15
474.859	2.24
475.213	2.12
475.567	2.3
475.921	2.19
476.275	2.14
476.63	2.14
476.984	2.31
477.338	2.22
477.692	2.29
478.045	2.28
478.399	2.17
478.753	2.11
479.107	2.01
479.461	2.22
479.814	2.09
480.168	2.26
480.521	1.98
480.875	2.09
481.228	2.13
481.582	2.21
481.935	2.28
482.289	2.28
482.642	2.11
482.995	2.12
483.348	2.09
483.701	2.09
484.055	2.09
484.408	2.13
484.761	2
485.114	1.94
485.466	1.95
485.819	2
486.172	2.07
486.525	2.15
486.878	2.12
487.23	2.15
487.583	2.16
487.936	2.1
488.288	2.09
488.641	2.06
488.993	2.07
489.345	2.01
489.698	2.08
490.05	2.14
490.402	2.13
490.754	2.23
491.107	2.14
491.459	2.19
491.811	2.24
492.163	2.15
492.515	2.17
492.866	2.07
493.218	2.01
493.57	2.11
493.922	2.23
494.274	2.28
494.625	2.3
494.977	2.26
495.328	2.27
495.68	2.26
496.031	2.35
496.383	2.17
496.734	2.23
497.086	2.28
497.437	2.23
497.788	2.12
498.139	2.26
498.49	2.19
498.842	2.17
499.193	2.16
499.544	2.33
499.894	2.25
500.245	2.22
500.596	2.18
500.947	2.33
501.298	2.31
501.648	2.31
501.999	2.39
502.35	2.4
502.7	2.44
503.051	2.27
503.401	2.3
503.752	2.23
504.102	2.3
504.452	2.41
504.803	2.45
505.153	2.32
505.503	2.25
505.853	2.2
506.203	2.27
506.553	2.29
506.903	2.33
507.253	2.32
507.603	2.39
507.953	2.38
508.303	2.53
508.652	2.34
509.002	2.41
509.352	2.36
509.701	2.33
510.051	2.42
510.4	2.3
510.75	2.36
511.099	2.29
511.449	2.43
511.798	2.52
512.147	2.27
512.496	2.35
512.846	2.34
513.195	2.42
513.544	2.43
513.893	2.43
514.242	2.43
514.591	2.46
514.939	2.43
515.288	2.44
515.637	2.48
515.986	2.44
516.334	2.42
516.683	2.36
517.032	2.5
517.38	2.35
517.729	2.41
518.077	2.49
518.426	2.4
518.774	2.47
519.122	2.36
519.47	2.46
519.819	2.36
520.167	2.42
520.515	2.48
520.863	2.41
521.211	2.44
521.559	2.57
521.907	2.39
522.255	2.5
522.602	2.56
522.95	2.47
523.298	2.48
523.645	2.55
523.993	2.56
524.341	2.62
524.688	2.62
525.036	2.69
525.383	2.63
525.73	2.49
526.078	2.54
526.425	2.5
526.772	2.45
527.119	2.46
527.466	2.46
527.814	2.46
528.161	2.57
528.508	2.5
528.854	2.62
529.201	2.44
529.548	2.41
529.895	2.39
530.242	2.36
530.588	2.42
530.935	2.47
531.282	2.51
531.628	2.52
531.975	2.58
532.321	2.61
532.667	2.53
533.014	2.62
533.36	2.57
533.706	2.64
534.052	2.47
534.399	2.56
534.745	2.49
535.091	2.54
535.437	2.56
535.783	2.56
536.129	2.66
536.474	2.65
536.82	2.61
537.166	2.71
537.512	2.71
537.857	2.6
538.203	2.65
538.549	2.72
538.894	2.71
539.239	2.76
539.585	2.71
539.93	2.64
540.276	2.79
540.621	2.74
540.966	2.77
541.311	2.81
541.656	2.85
542.001	2.72
542.346	2.67
542.691	2.59
543.036	2.62
543.381	2.66
543.726	2.71
544.071	2.73
544.415	2.69
544.76	2.74
545.105	2.78
545.449	2.75
545.794	2.8
546.138	2.84
546.483	2.98
546.827	2.82
547.171	2.7
547.516	2.87
547.86	2.82
548.204	2.83
548.548	2.84
548.892	2.9
549.236	2.94
549.58	2.78
549.924	2.99
550.268	2.93
550.612	2.97
550.956	3.04
551.3	2.93
551.643	2.93
551.987	3.18
552.33	3.27
552.674	3.03
553.017	2.91
553.361	3.18
553.704	3.1
554.048	3.12
554.391	3.1
554.734	3.15
555.077	3
555.42	3.14
555.764	3.14
556.107	3.18
556.45	3.26
556.793	3.27
557.135	3.13
557.478	3.32
557.821	3.21
558.164	3.03
558.507	3.23
558.849	3.07
559.192	3.4
559.534	3.42
559.877	3.21
560.219	3.24
560.562	3.4
560.904	3.56
561.246	3.02
561.589	3.32
561.931	3.37
562.273	3.24
562.615	3.27
562.957	3.27
563.299	3.42
563.641	3.32
563.983	3.36
564.325	3.42
564.667	3.46
565.008	3.54
565.35	3.41
565.692	3.5
566.033	3.5
566.375	3.23
566.716	3.24
567.058	3.3
567.399	3.5
567.741	3.44
568.082	3.43
568.423	3.59
568.764	3.45
569.105	3.39
569.447	3.59
569.788	3.45
570.129	3.47
570.47	3.43
570.811	3.41
571.151	3.44
571.492	3.69
571.833	3.71
572.174	3.55
572.514	3.46
572.855	3.7
573.195	3.7
573.536	3.62
573.876	3.62
574.217	3.48
574.557	3.66
574.898	3.84
575.238	3.96
575.578	3.88
575.918	3.69
576.258	3.72
576.598	3.54
576.938	3.82
577.278	3.82
577.618	3.51
577.958	3.99
578.298	3.88
578.638	3.73
578.977	3.71
579.317	3.66
579.657	3.71
579.996	3.87
580.336	3.72
580.675	3.95
581.014	4.1
581.354	4.12
581.693	3.89
582.032	4.08
582.372	3.89
582.711	3.77
583.05	4.08
583.389	4.07
583.728	4.03
584.067	4.13
584.406	3.95
584.745	4.04
585.083	4.08
585.422	4.27
585.761	4.02
586.1	4.3
586.438	4.08
586.777	4.08
587.115	4.2
587.454	4.25
587.792	4.17
588.13	4.14
588.469	4.19
588.807	4.28
589.145	4.19
589.483	4.44
589.821	4.22
590.159	4.29
590.497	4.33
590.835	4.57
591.173	4.38
591.511	4.26
591.849	4.36
592.187	4.25
592.524	4.39
592.862	4.32
593.2	4.3
593.537	4.68
593.875	4.27
594.212	4.29
594.55	4.17
594.887	4.79
595.224	4.43
595.561	4.55
595.899	4.49
596.236	4.64
596.573	4.7
596.91	4.68
597.247	4.44
597.584	4.61
597.921	4.57
598.258	4.5
598.594	4.6
598.931	4.59
599.268	4.66
599.604	4.57
599.941	4.75
600.277	4.76
600.614	4.61
600.95	4.79
601.287	4.71
601.623	4.91
601.959	4.79
602.296	4.85
602.632	4.68
602.968	4.82
603.304	4.6
603.64	4.81
603.976	4.89
604.312	4.98
604.648	4.89
604.984	4.81
605.319	5.08
605.655	4.84
605.991	4.78
606.326	4.92
606.662	4.71
606.998	5.1
607.333	4.81
607.668	5.07
608.004	5.14
608.339	4.98
608.674	5.18
609.01	4.96
609.345	5.03
609.68	5.27
610.015	5.29
610.35	5.09
610.685	5.01
611.02	5.16
611.355	5.1
611.689	5.02
612.024	5.14
612.359	4.89
612.694	5.11
613.028	5.38
613.363	4.9
613.697	5.48
614.032	5.41
614.366	5.68
614.7	5.57
615.035	5.21
615.369	5.09
615.703	5.23
616.037	5.39
616.371	5.41
616.705	5.44
617.039	5.74
617.373	5.81
617.707	5.4
618.041	5.64
618.375	5.08
618.709	5.63
619.042	5.68
619.376	5.29
619.71	5.31
620.043	5.67
620.377	5.67
620.71	5.44
621.043	5.66
621.377	5.67
621.71	6.03
622.043	5.57
622.376	5.9
622.709	5.86
623.043	5.91
623.376	6.19
623.709	5.73
624.041	5.52
624.374	5.81
624.707	6.17
625.04	5.67
625.373	6.19
625.705	6.11
626.038	5.52
626.37	6.11
626.703	5.91
627.035	5.96
627.368	5.85
627.7	6.2
628.032	5.92
628.365	6
628.697	5.86
629.029	6.07
629.361	6.18
629.693	6.11
630.025	6.09
630.357	5.82
630.689	6.39
631.021	6.21
631.353	6.1
631.684	6.45
632.016	6.53
632.348	6.56
632.679	6.42
633.011	6.2
633.342	6.46
633.674	6.42
634.005	6.31
634.336	6.33
634.668	6.4
634.999	6.29
635.33	6.09
635.661	6.54
635.992	6.16
636.323	6.6
636.654	5.94
636.985	6.34
637.316	6.34
637.647	6.41
637.977	6.63
638.308	6.45
638.639	6.52
638.969	6.3
639.3	6.72
639.63	6.8
639.961	6.75
640.291	6.7
640.622	6.37
640.952	6.82
641.282	6.77
641.612	6.69
641.943	7.21
642.273	7.51
642.603	6.44
642.933	6.96
643.263	6.68
643.592	6.2
643.922	6.88
644.252	7.35
644.582	6.76
644.911	6.4
645.241	6.97
645.571	7.13
645.9	7.09
646.23	6.88
646.559	6.91
646.888	6.96
647.218	7.22
647.547	7.11
647.876	7.21
648.205	7.5
648.534	7.01
648.863	6.81
649.192	6.93
649.521	7.47
649.85	7.33
650.179	7.46
650.508	7.42
650.837	7.15
651.165	7.11
651.494	7.17
651.822	7.12
652.151	6.95
652.479	7.36
652.808	7.79
653.136	7.56
653.465	7.46
653.793	7.45
654.121	7.7
654.449	7.62
654.777	7.22
655.105	7.91
655.433	7.87
655.761	7.59
656.089	7.64
656.417	7.33
656.745	7.08
657.073	7.58
657.4	7.12
657.728	8.17
658.056	7.99
658.383	7.68
658.711	8.37
659.038	7.82
659.365	7.32
659.693	7.27
660.02	7.31
660.347	8.05
660.674	7.92
661.001	7.74
661.329	7.91
661.656	7.68
661.982	7.62
662.309	7.8
662.636	7.83
662.963	7.97
663.29	7.96
663.616	8.31
663.943	7.62
664.27	8.17
664.596	7.54
664.923	7.99
665.249	8.29
665.576	8.22
665.902	8.45
666.228	8.7
666.554	7.89
666.881	8.38
667.207	8.87
667.533	8.04
667.859	7.83
668.185	8.9
668.511	8.15
668.837	8.91
669.162	8.52
669.488	8.57
669.814	8.62
670.139	8.89
670.465	8.32
670.791	8.29
671.116	8.46
671.442	8.7
671.767	8.4
672.092	8.77
672.418	8.19
672.743	8.7
673.068	8.89
673.393	8.66
673.718	8.94
674.043	8.93
674.368	8.52
674.693	8.45
675.018	9.06
675.343	8.22
675.667	9.19
675.992	8.38
676.317	8.52
676.641	7.81
676.966	9.1
677.29	9.05
677.615	8.01
677.939	9.11
678.264	9.16
678.588	8.6
678.912	8.37
679.236	8.91
679.56	8.62
679.885	9.14
680.209	9.32
680.532	8.59
680.856	8.74
681.18	8.37
681.504	8.75
681.828	9.52
682.152	8.83
682.475	9.04
682.799	8.89
683.122	9.65
683.446	9.35
683.769	9.19
684.093	9.05
684.416	9.6
684.739	9.45
685.062	10.05
685.386	9.55
685.709	9.69
686.032	9.8
686.355	9.56
686.678	9.76
687.001	10.2
687.324	9.38
687.646	10.12
687.969	9.95
688.292	9.6
688.614	10.06
688.937	9.14
689.26	9.04
689.582	9.84
689.904	9.84
690.227	9.62
690.549	9.78
690.871	10.08
691.194	9.83
691.516	9.76
691.838	9.76
692.16	9.85
692.482	9.91
692.804	9.93
693.126	10.3
693.448	10.77
693.769	9.61
694.091	10.35
694.413	10.4
694.735	9.88
695.056	10.37
695.378	10.1
695.699	9.77
696.021	10.27
696.342	10.13
696.663	10.61
696.984	10.89
697.306	9.76
697.627	9.77
697.948	10.19
698.269	9.66
698.59	10.41
698.911	9.74
699.232	10.16
699.553	9.67
699.873	10.28
700.194	9.73
700.515	10.13
700.835	10.44
701.156	10.44
701.477	10.66
701.797	10.33
702.117	10.33
702.438	9.98
702.758	10.56
703.078	10.61
703.398	10.87
703.719	9.57
704.039	10.68
704.359	9.62
704.679	10.2
704.999	9.64
705.319	10.33
705.638	11.26
705.958	10.6
706.278	10.89
706.597	10.28
706.917	11.25
707.237	10.64
707.556	10.99
707.876	10.96
708.195	10.9
708.514	10.55
708.834	11.05
709.153	10.86
709.472	11.51
709.791	10.97
710.11	11.68
710.429	9.84
710.748	11.59
711.067	10.21
711.386	11.84
711.705	10.61
712.023	11.65
712.342	11.17
712.661	11
712.979	11.25
713.298	11.43
713.616	10.98
713.935	10.05
714.253	11.24
714.572	11.39
714.89	12.23
715.208	10.99
715.526	12.09
715.844	11.68
716.162	11.43
716.48	10.39
716.798	11.14
717.116	11.98
717.434	11.68
717.752	10.41
718.069	11.81
718.387	12.73
718.705	11.28
719.022	11.38
719.34	11.42
719.657	11.96
719.975	11.68
720.292	13.2
720.609	10.85
720.927	12.82
721.244	11.94
721.561	12.13
721.878	11.57
722.195	11.67
722.512	12.81
722.829	12.07
723.146	11.65
723.463	11.22
723.779	11.86
724.096	13.23
724.413	12.16
724.729	12.01
725.046	12.37
725.362	13.83
725.679	12.56
725.995	12.95
726.311	12.79
726.628	12.22
726.944	12.31
727.26	12.44
727.576	12.1
727.892	11.95
728.208	11.44
728.524	12.03
728.84	11.55
729.156	12.29
729.472	13.5
729.787	11.87
730.103	12.05
730.419	12.77
730.734	12.24
731.05	12.85
731.365	12.31
731.681	12.86
731.996	12.1
732.311	12.6
732.626	12.94
732.942	14.3
733.257	12.2
733.572	13.18
733.887	13.56
734.202	12.7
734.517	12.27
734.832	12.66
735.146	12.48
735.461	12.23
735.776	13.57
736.091	13.93
736.405	12.63
736.72	14.48
737.034	13.59
737.349	13.02
737.663	13.65
737.977	12.42
738.292	12.67
738.606	12.83
738.92	12.37
739.234	14.53
739.548	12.93
739.862	12.58
740.176	13.18
740.49	14.48
740.804	12.86
741.117	12.81
741.431	14.73
741.745	13.24
742.058	13.2
742.372	14.21
742.685	13.46
742.999	13.2
743.312	13.68
743.626	14.7
743.939	13.46
744.252	13.64
744.565	12.9
744.878	14.32
745.191	14.04
745.505	14.11
745.817	15.01
746.13	13.45
746.443	13.85
746.756	12.92
747.069	13.8
747.381	13.97
747.694	13.63
748.007	13.27
748.319	12.6
748.632	14.04
748.944	12.39
749.256	13.23
749.569	14.77
749.881	13.84
750.193	13.8
750.505	13.93
750.817	12.55
751.129	14.44
751.441	14.74
751.753	13.43
752.065	13.83
752.377	13.55
752.689	11.98
753	13.62
753.312	14.74
753.624	13.78
753.935	12.87
754.247	14.58
754.558	13.22
754.869	14.43
755.181	15
755.492	16.01
755.803	15.99
756.114	14.54
756.425	15.49
756.736	13.86
757.047	17.55
757.358	15.71
757.669	15.6
757.98	12.18
758.291	15.77
758.601	14.54
758.912	16.03
759.223	15.69
759.533	16.14
759.844	13.79
760.154	14.2
760.464	13.74
760.775	13.82
761.085	14.39
761.395	14.13
761.705	15.43
762.016	14.32
762.326	15.05
762.636	14.66
762.945	15.46
763.255	13.7
763.565	15.18
763.875	14.14
764.185	14.12
764.494	16.09
764.804	15.68
765.113	14.76
765.423	16.02
765.732	15.81
766.042	16.35
766.351	16.86
766.66	14.69
766.97	15.41
767.279	14.78
767.588	14.95
767.897	15.82
768.206	15.01
768.515	14.7
768.824	15.46
769.133	15.94
769.441	14.71
769.75	15.34
770.059	14.67
770.367	15.02
770.676	16.56
770.984	15.11
771.293	15.63
771.601	13.63
771.91	16.47
772.218	15.05
772.526	16.63
772.834	16.27
773.142	12.62
773.45	15.55
773.758	16.67
774.066	13.53
774.374	14.75
774.682	19.03
774.99	18.18
775.298	14.8
775.605	14.9
775.913	15.77
776.22	15.12
776.528	18.86
776.835	15.88
777.143	16.9
777.45	15.05
777.757	17.91
778.065	15.85
778.372	17.73
778.679	16.83
778.986	17.95
779.293	15.63
779.6	17.84
779.907	17.67
780.214	19.16
780.52	13.91
780.827	14.41
781.134	13.15
781.44	12.93
781.747	16.93
782.053	14.82
782.36	13.45
782.666	13.72
782.973	16.45
783.279	18.21
783.585	17.46
783.891	17.46
784.197	19.17
784.503	15.45
784.809	16.53
785.115	19.19
785.421	18.5
785.727	16.98
786.033	12.98
786.339	19.03
786.644	16.52
786.95	19.47
787.255	14.14
787.561	15.99
787.866	17.26
788.172	12.27
788.477	15.91
788.782	19.13
789.088	18.27
789.393	15.25
789.698	19
790.003	16.42
790.308	16.08
790.613	18.5
790.918	18.25
791.223	20.12
791.527	16.34
791.832	20.04
792.137	17.93
792.441	20.7
792.746	15.92
793.05	15.18
793.355	17.32
793.659	17.65
793.963	19.42
794.268	14.97
794.572	15.74
794.876	18.07
795.18	17.66
795.484	15.66
795.788	16.43
796.092	13.37
796.396	16.44
796.7	18.39
797.004	14.25
797.307	14.4
797.611	21.5
797.915	17.65
798.218	18.48
798.522	19.3
798.825	15.1
799.128	19.22
799.432	20.35
799.735	18.58
800.038	15.99
800.341	16.96
800.644	17.99
800.947	20.09
801.25	23.31
801.553	19.41
801.856	22.7
802.159	18.14
802.462	16.57
802.764	19.93
803.067	11.27
803.37	18.66
803.672	16.79
803.975	18.82
804.277	16.92
804.579	16.43
804.882	19
805.184	20.9
805.486	16.74
805.788	19.89
806.09	21.55
806.392	18.93
806.694	18.01
806.996	17.1
807.298	20.24
807.6	18
807.902	21.5
808.203	19
808.505	21.14
808.807	15.46
809.108	18.91
809.409	17.2
809.711	21.08
810.012	14.63
810.313	15.76
810.615	18.31
810.916	22.87
811.217	18.26
811.518	20.51
811.819	17.37
812.12	17.22
812.421	14.89
812.722	16.14
813.023	19.83
813.323	20.64
813.624	22.09
813.925	23.75
814.225	15.66
814.526	19.56
814.826	21.84
815.126	19.11
815.427	12.37
815.727	18.07
816.027	19.23
816.327	17.54
816.627	17.24
816.927	25.02
817.227	17.25
817.527	20.92
817.827	15.16
818.127	18.29
818.427	20.12
818.727	14.44
819.026	21.7
819.326	22.15
819.625	17.79
819.925	19.17
820.224	20.79
820.524	14.38
820.823	14.34
821.122	17.92
821.421	17.45
821.72	20.96
822.019	20.68
822.318	19.31
822.617	21.57
822.916	17.7
823.215	20.87
823.514	20.9
823.813	21.89
824.111	21.07
824.41	18.32
824.709	19.48
825.007	19.99
825.306	19.85
825.604	19.95
825.902	20.26
826.201	20.26
826.499	20
826.797	20.5
827.095	19.19
827.393	21.13
827.691	19.17
827.989	20.52
828.287	19.56
828.585	19.92
828.882	20.03
829.18	19.78
829.478	19.91
829.775	19.82
830.073	20.27
830.37	19.91
830.668	18.16
830.965	23.04
831.263	20.89
831.56	20.18
831.857	20.77
832.154	19.38
832.451	22.73
832.748	18.81
833.045	20.86
833.342	22.9
833.639	19.33
833.936	22.31
834.232	21.38
834.529	23.46
834.826	25.88
835.122	21.21
835.419	23.83
835.715	24.49
836.012	19.85
836.308	19.22
836.604	20.47
836.901	20.91
837.197	16.51
837.493	22.25
837.789	21.23
838.085	21.55
838.381	23.39
838.677	23.36
838.972	24.91
839.268	27.61
839.564	15.85
839.86	19.76
840.155	22.25
840.451	17.59
840.746	27.63
841.042	22
841.337	22.18
841.632	17.13
841.928	25.84
842.223	23.24
842.518	23.71
842.813	21.42
843.108	20.65
843.403	19.59
843.698	21.93
843.993	21.93
844.287	30.51
844.582	22.65
844.877	26.78
845.171	20.86
845.466	23.92
845.761	28.01
846.055	32.09
846.349	15.39
846.644	24.29
846.938	23.1
847.232	30.45
847.526	21.64
847.82	24.03
848.114	28.8
848.408	18.16
848.702	12.82
848.996	25.06
849.29	27.93
849.584	18.36
849.877	24.62
850.171	16.95
850.465	32.31
850.758	31.63
851.052	20.22
851.345	42.34
851.638	14.15
851.932	23.7
852.225	18.04
852.518	22.41
852.811	5.72
853.104	35.78
853.397	19.4
853.69	20.47
853.983	9.96
854.276	25.85
854.569	23.22
854.861	26.57
855.154	33.72
855.447	18.86
855.739	24.63
856.032	39.06
856.324	39.24
856.616	37.9
856.909	16.44
857.201	24.48
857.493	11.11
857.785	27.33
858.077	20.8
858.369	34.12
858.661	14.56
858.953	24.7
859.245	39.47
859.537	33.54
859.829	42.19
860.12	4.42
860.412	30.94
860.703	18.86
860.995	19.56
861.286	12.82
861.578	31.02
861.869	14.95
862.16	24.53
862.452	30.99
862.743	31.48
863.034	27.45
863.325	14.98
863.616	32.39
863.907	28.03
864.198	12.26
864.488	8.75
864.779	35.38
865.07	16.11
865.36	-5.76
865.651	11.57
865.941	20.21
866.232	20.43
866.522	35.37
866.813	26.2
867.103	33.86
867.393	15.99
867.683	21.92
867.973	38.8
868.263	41.09
868.553	38.35
868.843	25.15
869.133	45.21
869.423	6.97
869.713	27.12
870.002	28.29
870.292	30.28
870.582	49.26
870.871	25.22
871.161	11.68
871.45	26.88
871.739	6.52
872.029	21.56
872.318	32.72
872.607	51.12
872.896	17.44
873.185	28.88
873.474	31.27
873.763	28.39
874.052	49.67
874.341	16.94
874.63	54.94
874.918	41.65
875.207	31.74
875.496	38.28
875.784	40.8
876.073	-3.39
876.361	42.73
876.649	19.28
876.938	31.09
877.226	30.54
877.514	16.21
877.802	34.44
878.09	17.02
878.378	26.18
878.666	2.39
878.954	-16.64
879.242	54.11
879.53	23.4
879.817	28.62
880.105	34.4
880.392	38.47
880.68	4.42
880.967	17.45
881.255	43.77
881.542	12.3
881.83	35.11
882.117	20.29
882.404	35.5
882.691	23.44
882.978	36.54
883.265	25.55
883.552	35.18
883.839	26.41
884.126	28.86
884.413	23.26
884.699	26.75
884.986	27.8
885.273	26.31
885.559	26.31
885.846	26.31
