Data from 0032_crown_Reflection__1__158.txt Node

Date: Thu Oct 20 22:10:38 CDT 2022
User: ToomeyLab
Spectrometer: FLMS14357
Trigger mode: 0
Integration Time (sec): 1.000000E-2
Scans to average: 100
Electric dark correction enabled: true
Nonlinearity correction enabled: false
Boxcar width: 0
XAxis mode: Wavelengths
Number of Pixels in Spectrum: 2048
>>>>>Begin Spectral Data<<<<<
189.047	16.97
189.435	16.97
189.823	16.97
190.211	184.1
190.599	25.33
190.987	-197.58
191.375	13.15
191.763	53.54
192.151	-4.4
192.538	-21.29
192.926	88.1
193.314	699.4
193.702	-560.58
194.089	107.73
194.477	3.37
194.864	-41.17
195.252	84.68
195.639	-470.79
196.027	202.23
196.414	80.11
196.801	154.91
197.189	-163.55
197.576	144.83
197.963	280.7
198.351	29.49
198.738	39.2
199.125	12.11
199.512	10.59
199.899	2.86
200.286	-23.35
200.673	-2.26
201.06	31.79
201.447	-23.65
201.833	-22.38
202.22	17.28
202.607	-22.1
202.994	-45.1
203.38	-176.44
203.767	17.61
204.154	-9.89
204.54	-23.51
204.927	-18.94
205.313	48.74
205.699	5.07
206.086	-18.31
206.472	27.02
206.858	-18.35
207.245	11.78
207.631	-47.65
208.017	-10.85
208.403	-90.43
208.789	-9.1
209.175	3.07
209.561	21.79
209.947	8.78
210.333	10.76
210.719	-1.05
211.105	-15.49
211.491	-62.61
211.876	-10.27
212.262	3.08
212.648	-27.97
213.034	-15.14
213.419	-32.07
213.805	-18.37
214.19	-34.87
214.576	-27.84
214.961	-41.19
215.346	-15.75
215.732	-37.61
216.117	-34.18
216.502	-11.69
216.888	-25.81
217.273	-6.96
217.658	1.78
218.043	8.29
218.428	-8.36
218.813	-5.42
219.198	-26.33
219.583	-2.46
219.968	12.57
220.353	-15.18
220.738	4.66
221.122	0.08
221.507	-6.2
221.892	-8.03
222.276	-7.44
222.661	5.34
223.046	3.72
223.43	-4.82
223.815	-6.67
224.199	-17.73
224.583	-1.76
224.968	0.45
225.352	3.45
225.736	-1.55
226.121	-6.52
226.505	0.19
226.889	1.85
227.273	-6.47
227.657	-2.97
228.041	-5.83
228.425	1.46
228.809	0.63
229.193	0.34
229.577	-0.86
229.961	1.75
230.344	0.56
230.728	0.75
231.112	1.01
231.495	-0.2
231.879	2.03
232.263	-0.01
232.646	0.42
233.03	-0.33
233.413	-1.64
233.797	-0.49
234.18	0.45
234.563	-0.25
234.946	1.22
235.33	0.42
235.713	-0.59
236.096	-1.43
236.479	-0.27
236.862	0.44
237.245	-0.14
237.628	0.17
238.011	0.94
238.394	0.66
238.777	-0.73
239.16	-2.43
239.543	0.16
239.925	-0.72
240.308	1.75
240.691	2.13
241.073	0.51
241.456	0.31
241.838	1.23
242.221	-0.7
242.603	1.18
242.986	0.76
243.368	1.14
243.75	1.09
244.133	1.16
244.515	0.88
244.897	0.69
245.279	-0.22
245.661	0.99
246.043	1.76
246.425	0.85
246.807	0.87
247.189	0.68
247.571	1.12
247.953	0.88
248.335	1.05
248.717	0.95
249.098	0.9
249.48	0.82
249.862	1.28
250.243	0.59
250.625	1.62
251.006	1.41
251.388	1.06
251.769	0.53
252.151	0.66
252.532	0.37
252.913	0.51
253.295	0.63
253.676	1.11
254.057	0.04
254.438	0.77
254.819	1.44
255.2	1.59
255.581	0.31
255.962	1.28
256.343	-0.59
256.724	-0.12
257.105	-0.14
257.486	1.58
257.867	0.88
258.247	1.11
258.628	1.09
259.009	-0.23
259.389	0.89
259.77	0.83
260.15	1.09
260.531	1.19
260.911	1.19
261.292	0.93
261.672	1.22
262.052	0.91
262.432	1.04
262.813	0.71
263.193	0.88
263.573	0.81
263.953	1.01
264.333	0.44
264.713	0.8
265.093	0.15
265.473	1.13
265.853	1.19
266.233	0.99
266.612	1.51
266.992	0.31
267.372	1.37
267.752	0.64
268.131	1.23
268.511	1.02
268.89	0.36
269.27	1.04
269.649	0.33
270.029	0.51
270.408	0.77
270.787	0.6
271.167	0.77
271.546	0.77
271.925	1.18
272.304	0.96
272.683	0.87
273.062	0.47
273.441	1.28
273.82	1.45
274.199	0.76
274.578	0.5
274.957	0.99
275.336	0.96
275.715	0.67
276.093	1.24
276.472	1.67
276.851	1.6
277.229	0.82
277.608	0.84
277.986	1.35
278.365	0.44
278.743	0.7
279.122	1.14
279.5	0.5
279.878	1.21
280.257	0.98
280.635	0.3
281.013	0.37
281.391	1.07
281.769	1.07
282.147	0.33
282.525	0.56
282.903	0.76
283.281	0.52
283.659	0.32
284.037	0.11
284.415	0.48
284.792	0.28
285.17	0.99
285.548	0.86
285.925	0.6
286.303	0.91
286.68	1.08
287.058	0.69
287.435	0.58
287.813	0.71
288.19	0.92
288.567	0.76
288.945	1.17
289.322	0.64
289.699	0.4
290.076	0.65
290.453	0.43
290.83	0.65
291.207	0.86
291.584	0.75
291.961	0.69
292.338	0.48
292.715	0.73
293.092	1.29
293.469	1.27
293.845	0.93
294.222	1.41
294.599	1.72
294.975	0.9
295.352	1.27
295.728	0.66
296.105	1.37
296.481	0.42
296.858	0.9
297.234	1.05
297.61	0.85
297.986	0.82
298.363	0.82
298.739	1.09
299.115	0.94
299.491	0.96
299.867	0.45
300.243	0.78
300.619	0.88
300.995	0.36
301.371	0.46
301.746	0.71
302.122	1.54
302.498	0.73
302.874	0.94
303.249	1.29
303.625	1.1
304	1.5
304.376	0.43
304.751	1
305.127	0.64
305.502	1.15
305.878	1.42
306.253	0.57
306.628	1.07
307.003	0.86
307.378	0.17
307.754	0.85
308.129	1.17
308.504	1.04
308.879	1.22
309.254	0.86
309.629	1.11
310.003	0.58
310.378	1.06
310.753	1.14
311.128	0.78
311.502	1.2
311.877	1.24
312.252	0.75
312.626	0.77
313.001	0.88
313.375	0.89
313.75	0.83
314.124	0.88
314.498	0.86
314.873	0.8
315.247	0.45
315.621	0.76
315.995	0.17
316.369	1.33
316.743	0.8
317.117	0.84
317.491	1.31
317.865	0.61
318.239	1.4
318.613	1.21
318.987	1.11
319.361	1.32
319.734	0.57
320.108	1.38
320.482	0.73
320.855	1.22
321.229	1.72
321.602	0.52
321.976	0.62
322.349	0.83
322.723	1.46
323.096	1.33
323.469	0.88
323.843	1.52
324.216	0.76
324.589	1.93
324.962	0.81
325.335	1.41
325.708	0.96
326.081	1.27
326.454	1.1
326.827	1.09
327.2	1.1
327.573	0.76
327.945	0.98
328.318	0.73
328.691	1.51
329.063	1.14
329.436	0.85
329.809	1.34
330.181	0.96
330.553	0.81
330.926	0.96
331.298	0.98
331.671	1.36
332.043	1.44
332.415	0.99
332.787	1.43
333.159	1.08
333.532	1.3
333.904	0.96
334.276	0.89
334.648	0.78
335.02	0.95
335.391	0.98
335.763	0.67
336.135	1.53
336.507	1
336.879	1.35
337.25	0.92
337.622	1.31
337.993	0.78
338.365	1.43
338.736	0.93
339.108	0.98
339.479	1.2
339.851	0.89
340.222	1.09
340.593	1.26
340.964	1.06
341.336	0.96
341.707	1.06
342.078	0.83
342.449	0.92
342.82	1.16
343.191	1.23
343.562	1.04
343.933	1.42
344.303	0.81
344.674	0.9
345.045	1.35
345.416	1.13
345.786	1.07
346.157	0.97
346.527	0.96
346.898	0.98
347.268	0.98
347.639	1.36
348.009	1.48
348.38	1.35
348.75	0.71
349.12	1.43
349.49	1.39
349.861	1.46
350.231	0.98
350.601	1.64
350.971	1.67
351.341	1.33
351.711	1.19
352.081	1
352.45	1.15
352.82	1.05
353.19	1.11
353.56	1.6
353.929	1.14
354.299	1.33
354.669	1.08
355.038	1.31
355.408	0.69
355.777	1.43
356.147	1.37
356.516	1.39
356.885	1.24
357.254	1.35
357.624	1.2
357.993	1.03
358.362	1.33
358.731	1.28
359.1	0.76
359.469	1.32
359.838	1.24
360.207	1.78
360.576	1.21
360.945	1.43
361.314	1.1
361.682	1.13
362.051	1.09
362.42	1.12
362.788	1.33
363.157	1.1
363.525	1.24
363.894	1.26
364.262	1.34
364.631	0.96
364.999	1.33
365.367	1.44
365.735	1
366.104	1.19
366.472	1.14
366.84	1.21
367.208	1.43
367.576	1.17
367.944	1.42
368.312	1.05
368.68	1.27
369.048	0.96
369.416	1.1
369.783	1.19
370.151	1.4
370.519	1.28
370.886	1.1
371.254	1.34
371.621	1.08
371.989	1.31
372.356	1.11
372.724	1.25
373.091	1.42
373.458	1.25
373.826	1.21
374.193	1.39
374.56	0.89
374.927	1.11
375.294	1.35
375.661	1.26
376.028	0.8
376.395	1.3
376.762	1.19
377.129	1.15
377.496	1.16
377.863	0.96
378.229	1.27
378.596	1.29
378.963	1.38
379.329	1.47
379.696	1.23
380.062	1.22
380.429	1.69
380.795	1.37
381.161	1.45
381.528	1.17
381.894	1.12
382.26	1.06
382.626	1.18
382.993	1.15
383.359	1.33
383.725	1.25
384.091	1.26
384.457	1.18
384.823	1.14
385.188	1.38
385.554	1.06
385.92	1.04
386.286	1.18
386.651	0.96
387.017	1.34
387.383	1.35
387.748	1.53
388.114	1.33
388.479	1.23
388.845	1.32
389.21	1.34
389.575	1.16
389.94	1.2
390.306	1.25
390.671	1.48
391.036	1.2
391.401	0.99
391.766	1.44
392.131	1.19
392.496	1.09
392.861	1.26
393.226	1.3
393.591	1.44
393.956	1.3
394.32	1.27
394.685	1.54
395.05	1.15
395.414	1.32
395.779	1.26
396.143	1.25
396.508	1.42
396.872	1.52
397.236	1.21
397.601	1.49
397.965	1.36
398.329	1.23
398.694	1.38
399.058	1.1
399.422	1.36
399.786	1.39
400.15	1.41
400.514	1.53
400.878	1.39
401.242	1.44
401.605	1.59
401.969	1.38
402.333	1.33
402.697	1.64
403.06	1.17
403.424	1.23
403.787	1.32
404.151	1.2
404.514	1.41
404.878	1.31
405.241	1.4
405.604	1.46
405.968	1.23
406.331	1.41
406.694	1.33
407.057	1.34
407.42	1.45
407.783	1.4
408.146	1.45
408.509	1.32
408.872	1.24
409.235	1.2
409.598	1.38
409.961	1.35
410.323	1.48
410.686	1.42
411.049	1.25
411.411	1.19
411.774	1.23
412.136	1.38
412.499	1.51
412.861	1.35
413.223	1.38
413.586	1.36
413.948	1.32
414.31	1.21
414.672	1.45
415.035	1.52
415.397	1.35
415.759	1.52
416.121	1.54
416.483	1.34
416.845	1.31
417.206	1.28
417.568	1.35
417.93	1.3
418.292	1.45
418.653	1.46
419.015	1.38
419.377	1.37
419.738	1.33
420.1	1.43
420.461	1.43
420.822	1.41
421.184	1.27
421.545	1.43
421.906	1.25
422.267	1.32
422.629	1.39
422.99	1.37
423.351	1.41
423.712	1.38
424.073	1.43
424.434	1.37
424.795	1.4
425.155	1.44
425.516	1.35
425.877	1.29
426.238	1.43
426.598	1.39
426.959	1.37
427.32	1.47
427.68	1.38
428.041	1.34
428.401	1.36
428.761	1.4
429.122	1.35
429.482	1.28
429.842	1.34
430.202	1.44
430.563	1.43
430.923	1.55
431.283	1.45
431.643	1.29
432.003	1.3
432.363	1.59
432.722	1.52
433.082	1.41
433.442	1.43
433.802	1.33
434.161	1.42
434.521	1.29
434.881	1.43
435.24	1.27
435.6	1.38
435.959	1.49
436.319	1.48
436.678	1.25
437.037	1.53
437.396	1.52
437.756	1.42
438.115	1.38
438.474	1.34
438.833	1.36
439.192	1.43
439.551	1.45
439.91	1.37
440.269	1.4
440.628	1.41
440.987	1.38
441.345	1.58
441.704	1.48
442.063	1.51
442.421	1.33
442.78	1.42
443.138	1.42
443.497	1.48
443.855	1.42
444.214	1.52
444.572	1.49
444.93	1.34
445.288	1.31
445.647	1.53
446.005	1.41
446.363	1.47
446.721	1.35
447.079	1.38
447.437	1.42
447.795	1.3
448.153	1.35
448.51	1.41
448.868	1.44
449.226	1.39
449.584	1.36
449.941	1.48
450.299	1.5
450.656	1.41
451.014	1.51
451.371	1.63
451.729	1.17
452.086	1.64
452.443	1.37
452.801	1.49
453.158	1.4
453.515	1.46
453.872	1.35
454.229	1.37
454.586	1.47
454.943	1.41
455.3	1.42
455.657	1.45
456.014	1.57
456.371	1.37
456.727	1.47
457.084	1.33
457.441	1.55
457.797	1.43
458.154	1.51
458.51	1.32
458.867	1.53
459.223	1.53
459.58	1.49
459.936	1.53
460.292	1.46
460.648	1.36
461.005	1.31
461.361	1.42
461.717	1.47
462.073	1.54
462.429	1.56
462.785	1.55
463.141	1.67
463.496	1.62
463.852	1.56
464.208	1.48
464.564	1.43
464.919	1.61
465.275	1.6
465.631	1.32
465.986	1.55
466.342	1.43
466.697	1.38
467.052	1.41
467.408	1.3
467.763	1.55
468.118	1.59
468.473	1.57
468.829	1.44
469.184	1.5
469.539	1.43
469.894	1.34
470.249	1.63
470.603	1.43
470.958	1.57
471.313	1.48
471.668	1.46
472.023	1.49
472.377	1.48
472.732	1.51
473.086	1.58
473.441	1.37
473.795	1.66
474.15	1.53
474.504	1.45
474.859	1.53
475.213	1.64
475.567	1.74
475.921	1.31
476.275	1.76
476.63	1.69
476.984	1.55
477.338	1.53
477.692	1.53
478.045	1.59
478.399	1.54
478.753	1.39
479.107	1.47
479.461	1.51
479.814	1.51
480.168	1.52
480.521	1.54
480.875	1.69
481.228	1.55
481.582	1.42
481.935	1.62
482.289	1.43
482.642	1.38
482.995	1.47
483.348	1.63
483.701	1.44
484.055	1.41
484.408	1.42
484.761	1.42
485.114	1.33
485.466	1.36
485.819	1.44
486.172	1.47
486.525	1.5
486.878	1.57
487.23	1.53
487.583	1.45
487.936	1.54
488.288	1.5
488.641	1.49
488.993	1.42
489.345	1.45
489.698	1.46
490.05	1.51
490.402	1.57
490.754	1.54
491.107	1.56
491.459	1.57
491.811	1.5
492.163	1.46
492.515	1.47
492.866	1.49
493.218	1.41
493.57	1.45
493.922	1.48
494.274	1.55
494.625	1.57
494.977	1.59
495.328	1.47
495.68	1.52
496.031	1.58
496.383	1.58
496.734	1.54
497.086	1.55
497.437	1.6
497.788	1.54
498.139	1.43
498.49	1.6
498.842	1.4
499.193	1.56
499.544	1.56
499.894	1.62
500.245	1.61
500.596	1.44
500.947	1.64
501.298	1.62
501.648	1.53
501.999	1.62
502.35	1.5
502.7	1.57
503.051	1.62
503.401	1.56
503.752	1.61
504.102	1.43
504.452	1.68
504.803	1.55
505.153	1.53
505.503	1.73
505.853	1.55
506.203	1.53
506.553	1.65
506.903	1.58
507.253	1.66
507.603	1.73
507.953	1.62
508.303	1.72
508.652	1.55
509.002	1.53
509.352	1.57
509.701	1.59
510.051	1.57
510.4	1.52
510.75	1.53
511.099	1.55
511.449	1.57
511.798	1.61
512.147	1.61
512.496	1.65
512.846	1.73
513.195	1.65
513.544	1.59
513.893	1.6
514.242	1.48
514.591	1.64
514.939	1.62
515.288	1.65
515.637	1.71
515.986	1.58
516.334	1.64
516.683	1.57
517.032	1.49
517.38	1.61
517.729	1.62
518.077	1.66
518.426	1.65
518.774	1.63
519.122	1.57
519.47	1.63
519.819	1.59
520.167	1.54
520.515	1.6
520.863	1.52
521.211	1.61
521.559	1.64
521.907	1.56
522.255	1.59
522.602	1.53
522.95	1.73
523.298	1.51
523.645	1.62
523.993	1.64
524.341	1.74
524.688	1.6
525.036	1.76
525.383	1.69
525.73	1.52
526.078	1.7
526.425	1.64
526.772	1.61
527.119	1.53
527.466	1.6
527.814	1.59
528.161	1.55
528.508	1.6
528.854	1.61
529.201	1.58
529.548	1.51
529.895	1.5
530.242	1.48
530.588	1.53
530.935	1.6
531.282	1.59
531.628	1.65
531.975	1.68
532.321	1.69
532.667	1.58
533.014	1.65
533.36	1.6
533.706	1.6
534.052	1.55
534.399	1.63
534.745	1.54
535.091	1.59
535.437	1.64
535.783	1.62
536.129	1.62
536.474	1.62
536.82	1.67
537.166	1.68
537.512	1.57
537.857	1.66
538.203	1.69
538.549	1.56
538.894	1.68
539.239	1.68
539.585	1.71
539.93	1.69
540.276	1.85
540.621	1.65
540.966	1.6
541.311	1.53
541.656	1.67
542.001	1.59
542.346	1.55
542.691	1.52
543.036	1.52
543.381	1.58
543.726	1.59
544.071	1.6
544.415	1.67
544.76	1.63
545.105	1.65
545.449	1.65
545.794	1.7
546.138	1.76
546.483	1.73
546.827	1.56
547.171	1.58
547.516	1.66
547.86	1.6
548.204	1.69
548.548	1.65
548.892	1.69
549.236	1.72
549.58	1.71
549.924	1.71
550.268	1.8
550.612	1.93
550.956	1.65
551.3	1.76
551.643	1.72
551.987	1.93
552.33	1.65
552.674	1.66
553.017	1.62
553.361	1.76
553.704	1.7
554.048	1.75
554.391	1.72
554.734	1.7
555.077	1.65
555.42	1.8
555.764	1.58
556.107	1.63
556.45	1.7
556.793	1.79
557.135	1.77
557.478	1.71
557.821	1.68
558.164	1.77
558.507	1.61
558.849	1.77
559.192	1.81
559.534	1.9
559.877	1.72
560.219	1.82
560.562	1.78
560.904	1.78
561.246	1.76
561.589	1.78
561.931	1.68
562.273	1.76
562.615	1.78
562.957	1.57
563.299	1.67
563.641	1.69
563.983	1.91
564.325	1.7
564.667	1.78
565.008	1.72
565.35	1.82
565.692	1.74
566.033	1.64
566.375	1.64
566.716	1.71
567.058	1.72
567.399	1.87
567.741	1.64
568.082	1.7
568.423	1.9
568.764	1.68
569.105	1.97
569.447	1.96
569.788	1.68
570.129	1.64
570.47	1.77
570.811	1.67
571.151	1.76
571.492	1.68
571.833	1.76
572.174	1.79
572.514	1.79
572.855	1.86
573.195	1.68
573.536	1.69
573.876	1.66
574.217	1.71
574.557	1.82
574.898	1.84
575.238	1.95
575.578	1.6
575.918	1.79
576.258	1.76
576.598	1.73
576.938	1.81
577.278	1.72
577.618	1.82
577.958	1.66
578.298	1.73
578.638	1.85
578.977	1.9
579.317	1.75
579.657	1.64
579.996	2.04
580.336	1.9
580.675	2.12
581.014	1.82
581.354	1.91
581.693	1.88
582.032	1.91
582.372	1.8
582.711	1.75
583.05	1.98
583.389	1.64
583.728	1.77
584.067	1.82
584.406	1.95
584.745	1.7
585.083	1.66
585.422	1.89
585.761	1.94
586.1	1.92
586.438	2.18
586.777	2.02
587.115	1.94
587.454	2.08
587.792	1.79
588.13	1.8
588.469	2.11
588.807	1.63
589.145	1.79
589.483	1.71
589.821	1.72
590.159	1.94
590.497	1.93
590.835	1.76
591.173	1.88
591.511	1.88
591.849	1.88
592.187	1.7
592.524	1.89
592.862	1.84
593.2	1.82
593.537	1.83
593.875	1.78
594.212	1.76
594.55	1.79
594.887	1.72
595.224	2.01
595.561	1.84
595.899	2.12
596.236	2.05
596.573	2.04
596.91	1.7
597.247	1.96
597.584	1.92
597.921	1.89
598.258	1.81
598.594	1.86
598.931	1.93
599.268	1.75
599.604	1.73
599.941	1.95
600.277	1.83
600.614	2
600.95	2.05
601.287	1.77
601.623	1.83
601.959	2
602.296	1.62
602.632	1.52
602.968	2.12
603.304	1.87
603.64	2.04
603.976	2.01
604.312	2.02
604.648	1.95
604.984	1.66
605.319	1.89
605.655	1.87
605.991	1.73
606.326	1.95
606.662	1.9
606.998	1.93
607.333	1.75
607.668	1.87
608.004	1.85
608.339	2.09
608.674	1.92
609.01	2.07
609.345	1.81
609.68	1.86
610.015	1.89
610.35	1.89
610.685	1.91
611.02	1.82
611.355	1.96
611.689	1.87
612.024	1.91
612.359	1.7
612.694	1.97
613.028	1.98
613.363	1.67
613.697	1.93
614.032	1.97
614.366	1.96
614.7	1.83
615.035	1.67
615.369	1.99
615.703	1.94
616.037	2.02
616.371	1.81
616.705	2
617.039	1.97
617.373	2
617.707	2.33
618.041	1.85
618.375	1.7
618.709	1.78
619.042	2.07
619.376	1.48
619.71	1.89
620.043	2.06
620.377	2.02
620.71	2.05
621.043	2.23
621.377	1.66
621.71	1.89
622.043	1.48
622.376	2.28
622.709	2.46
623.043	2.05
623.376	2.14
623.709	2.06
624.041	2.04
624.374	2.08
624.707	1.79
625.04	2.08
625.373	2.16
625.705	2.07
626.038	2.09
626.37	1.48
626.703	1.88
627.035	2.11
627.368	1.96
627.7	2.08
628.032	1.97
628.365	1.99
628.697	2.33
629.029	2.12
629.361	2
629.693	2.27
630.025	2.03
630.357	2.01
630.689	2.01
631.021	2.21
631.353	2.05
631.684	1.89
632.016	1.79
632.348	1.99
632.679	1.85
633.011	1.93
633.342	2.29
633.674	1.89
634.005	2.12
634.336	2.05
634.668	2.1
634.999	2.01
635.33	2.24
635.661	2.15
635.992	1.97
636.323	2.49
636.654	2.11
636.985	2.27
637.316	1.99
637.647	2.14
637.977	2.72
638.308	1.99
638.639	2.36
638.969	2.24
639.3	1.96
639.63	2.07
639.961	1.9
640.291	1.87
640.622	2.58
640.952	2.1
641.282	2.18
641.612	2.56
641.943	2.03
642.273	2.1
642.603	2.09
642.933	2.28
643.263	1.98
643.592	2.14
643.922	2.16
644.252	2.18
644.582	1.87
644.911	2.24
645.241	1.95
645.571	1.85
645.9	2.3
646.23	2.13
646.559	2.14
646.888	1.82
647.218	2.02
647.547	1.65
647.876	2.02
648.205	2
648.534	2.09
648.863	2.13
649.192	2.4
649.521	2.27
649.85	2.58
650.179	1.97
650.508	2.15
650.837	2.05
651.165	1.86
651.494	1.96
651.822	2.37
652.151	2.55
652.479	1.98
652.808	2.25
653.136	2
653.465	2.48
653.793	2.35
654.121	2.44
654.449	2.64
654.777	2.32
655.105	2.38
655.433	2.18
655.761	2.14
656.089	1.77
656.417	2.32
656.745	2.23
657.073	2.25
657.4	2.39
657.728	2.22
658.056	2.03
658.383	2.44
658.711	2.36
659.038	2.1
659.365	2.11
659.693	2.41
660.02	1.95
660.347	2.31
660.674	2.35
661.001	1.98
661.329	2.17
661.656	2.13
661.982	2.14
662.309	2.28
662.636	2.45
662.963	1.72
663.29	2.19
663.616	2.24
663.943	2.3
664.27	2.42
664.596	2.35
664.923	2.28
665.249	2.61
665.576	2.95
665.902	2.13
666.228	2.24
666.554	2.34
666.881	2.25
667.207	3.06
667.533	2.28
667.859	1.83
668.185	3.02
668.511	2.4
668.837	1.79
669.162	2.57
669.488	2.05
669.814	2.11
670.139	2.2
670.465	2.54
670.791	2.54
671.116	2.75
671.442	2.61
671.767	2.58
672.092	2.15
672.418	2.07
672.743	2.01
673.068	1.82
673.393	1.89
673.718	1.8
674.043	2.29
674.368	2.28
674.693	2.31
675.018	2.4
675.343	1.97
675.667	2.31
675.992	2.65
676.317	2.53
676.641	2.71
676.966	2.28
677.29	1.74
677.615	2.87
677.939	2.01
678.264	2.18
678.588	2.53
678.912	2.64
679.236	2.37
679.56	2.13
679.885	2.43
680.209	1.95
680.532	2.37
680.856	2.72
681.18	2.74
681.504	2.02
681.828	2.28
682.152	2.63
682.475	2.43
682.799	2.65
683.122	2.05
683.446	2.18
683.769	2.63
684.093	2.1
684.416	2.7
684.739	2.47
685.062	2.38
685.386	2.05
685.709	1.83
686.032	3.02
686.355	2.41
686.678	2.62
687.001	2.55
687.324	2.87
687.646	2.64
687.969	2.36
688.292	3.2
688.614	2.33
688.937	2.15
689.26	2.26
689.582	1.85
689.904	2.45
690.227	2.21
690.549	2.95
690.871	2.32
691.194	3.03
691.516	2.55
691.838	2.51
692.16	1.71
692.482	3.04
692.804	2.11
693.126	2.39
693.448	2.77
693.769	2.18
694.091	2.07
694.413	2.46
694.735	3.04
695.056	2.55
695.378	2.77
695.699	2.5
696.021	2.17
696.342	2.15
696.663	3.01
696.984	2.39
697.306	2.77
697.627	2.77
697.948	2.43
698.269	2.32
698.59	2.52
698.911	1.54
699.232	2.97
699.553	3.28
699.873	2.45
700.194	2.83
700.515	2.4
700.835	2.73
701.156	2.41
701.477	2
701.797	2.44
702.117	1.99
702.438	1.83
702.758	2.78
703.078	2.81
703.398	2.7
703.719	1.44
704.039	2.96
704.359	3.31
704.679	2.29
704.999	3.03
705.319	2.97
705.638	2.48
705.958	1.83
706.278	3.5
706.597	2.2
706.917	2.85
707.237	1.74
707.556	2.52
707.876	2.37
708.195	1.6
708.514	2.1
708.834	2.19
709.153	2.28
709.472	2.41
709.791	2.34
710.11	2.41
710.429	3.47
710.748	2.12
711.067	2.59
711.386	1.97
711.705	2.97
712.023	2.53
712.342	2.15
712.661	1.76
712.979	2.52
713.298	2.7
713.616	1.91
713.935	2.57
714.253	2
714.572	2.6
714.89	2.76
715.208	2.62
715.526	1.47
715.844	2.74
716.162	1.73
716.48	2.46
716.798	2.85
717.116	2.05
717.434	2.58
717.752	2.49
718.069	2.4
718.387	2.52
718.705	2.64
719.022	1.72
719.34	2.14
719.657	2.71
719.975	2.98
720.292	1.7
720.609	2.97
720.927	2.24
721.244	2.71
721.561	3.48
721.878	3.38
722.195	2.5
722.512	3.17
722.829	3.11
723.146	2.72
723.463	2.49
723.779	0.96
724.096	2.5
724.413	3.23
724.729	1.99
725.046	2.89
725.362	3.95
725.679	4.05
725.995	3.14
726.311	3.96
726.628	2.87
726.944	2.27
727.26	1.97
727.576	2.93
727.892	1.91
728.208	2.38
728.524	2.56
728.84	2.49
729.156	4.29
729.472	2.42
729.787	2.64
730.103	2.27
730.419	2.31
730.734	1.9
731.05	1.52
731.365	2.71
731.681	2.96
731.996	2.65
732.311	1.31
732.626	3.18
732.942	2.23
733.257	3.19
733.572	1.82
733.887	3.35
734.202	2.65
734.517	2.88
734.832	2.18
735.146	2.17
735.461	2.24
735.776	3.04
736.091	1.36
736.405	1.56
736.72	2.04
737.034	2.21
737.349	4.16
737.663	1.84
737.977	2.15
738.292	2.93
738.606	2.14
738.92	2.73
739.234	3.35
739.548	2.53
739.862	3.42
740.176	2.78
740.49	3.15
740.804	2.95
741.117	2.6
741.431	1.52
741.745	3.88
742.058	5.19
742.372	1.09
742.685	1.92
742.999	1.65
743.312	4.55
743.626	1.78
743.939	3.03
744.252	2.77
744.565	3.51
744.878	3.02
745.191	2.58
745.505	4.24
745.817	1.68
746.13	3.06
746.443	3.76
746.756	1.93
747.069	4.16
747.381	1.85
747.694	3.72
748.007	1.84
748.319	2.39
748.632	2.53
748.944	2.43
749.256	2.2
749.569	4.25
749.881	1.94
750.193	3.8
750.505	2.54
750.817	4.28
751.129	1.13
751.441	1.53
751.753	3.19
752.065	2.6
752.377	3.72
752.689	3.34
753	3.26
753.312	2.42
753.624	0.25
753.935	1.99
754.247	1.22
754.558	3.98
754.869	3.16
755.181	1.74
755.492	2.91
755.803	3.36
756.114	4.24
756.425	2.67
756.736	1.32
757.047	1.98
757.358	3.5
757.669	5.01
757.98	4.34
758.291	3.37
758.601	1.41
758.912	1.71
759.223	3.82
759.533	3.91
759.844	2.98
760.154	3.21
760.464	1.64
760.775	4.31
761.085	3.15
761.395	3.35
761.705	3.33
762.016	2.59
762.326	2.65
762.636	2.95
762.945	0.91
763.255	1.22
763.565	3.62
763.875	3.6
764.185	2.28
764.494	3.81
764.804	1.94
765.113	2.27
765.423	3.32
765.732	3.15
766.042	3.96
766.351	2.22
766.66	3.57
766.97	3.31
767.279	3.86
767.588	2.91
767.897	2.04
768.206	3.27
768.515	2.62
768.824	2.49
769.133	4.38
769.441	2.21
769.75	2.42
770.059	3.42
770.367	4.19
770.676	4.8
770.984	1.81
771.293	1.2
771.601	0.91
771.91	3.09
772.218	3.55
772.526	3.41
772.834	3.17
773.142	4.62
773.45	3.17
773.758	1.69
774.066	1.86
774.374	2.25
774.682	2.82
774.99	2.11
775.298	3.36
775.605	2.42
775.913	2.96
776.22	1.64
776.528	1.85
776.835	0.23
777.143	3.93
777.45	3.05
777.757	2.09
778.065	4.97
778.372	-0.18
778.679	3.42
778.986	3.73
779.293	2.23
779.6	6.26
779.907	5.54
780.214	1.44
780.52	5.96
780.827	0.76
781.134	5.17
781.44	3.94
781.747	3.24
782.053	2.89
782.36	5.38
782.666	5.64
782.973	-2.09
783.279	4.61
783.585	4.41
783.891	2.6
784.197	-0.33
784.503	3.91
784.809	4.19
785.115	-1.54
785.421	2.21
785.727	1.66
786.033	2.94
786.339	2.88
786.644	1.27
786.95	5.69
787.255	2.41
787.561	-3.9
787.866	4.94
788.172	2.76
788.477	3.72
788.782	0.99
789.088	3.48
789.393	7.26
789.698	1.08
790.003	3.18
790.308	2.46
790.613	3.23
790.918	1.92
791.223	0.32
791.527	1.94
791.832	3.43
792.137	3.35
792.441	4.92
792.746	3.07
793.05	4.21
793.355	3.99
793.659	3
793.963	2.96
794.268	4.81
794.572	2.21
794.876	3.75
795.18	2.69
795.484	2.61
795.788	0.99
796.092	0.93
796.396	2.38
796.7	0.56
797.004	5.43
797.307	-2.76
797.611	0.86
797.915	0.33
798.218	0.05
798.522	3.03
798.825	4.86
799.128	3.2
799.432	5.54
799.735	6.4
800.038	2.91
800.341	5.29
800.644	3.01
800.947	6.29
801.25	1.2
801.553	0.04
801.856	2.41
802.159	1.06
802.462	1.46
802.764	4.11
803.067	3.35
803.37	3.11
803.672	3.04
803.975	2.79
804.277	4.13
804.579	1.14
804.882	-2.73
805.184	4.36
805.486	4.45
805.788	0.42
806.09	5.96
806.392	2.95
806.694	0.72
806.996	2.09
807.298	-1.77
807.6	0.09
807.902	5.04
808.203	3.47
808.505	0.93
808.807	1.72
809.108	5.7
809.409	5.8
809.711	7.77
810.012	8.45
810.313	6.75
810.615	1.26
810.916	5.2
811.217	0.96
811.518	1.91
811.819	2.35
812.12	3.12
812.421	1.42
812.722	4.23
813.023	7.28
813.323	8.86
813.624	5.25
813.925	4.09
814.225	1.38
814.526	1.67
814.826	4.49
815.126	-1.98
815.427	-1.2
815.727	2.77
816.027	-1.69
816.327	4.34
816.627	-0.55
816.927	2.6
817.227	6.79
817.527	2.96
817.827	0.84
818.127	3.52
818.427	1.83
818.727	5.98
819.026	3.98
819.326	0.71
819.625	0.12
819.925	-0.09
820.224	3.24
820.524	6.75
820.823	6.78
821.122	0.95
821.421	3.6
821.72	5.51
822.019	3.47
822.318	6.7
822.617	7.3
822.916	2.71
823.215	3.26
823.514	4.89
823.813	3.82
824.111	4.65
824.41	5.19
824.709	5.28
825.007	4.34
825.306	4.35
825.604	4.98
825.902	4.28
826.201	5.61
826.499	3.8
826.797	5.48
827.095	3.25
827.393	4.75
827.691	3.54
827.989	3.92
828.287	6.61
828.585	4.47
828.882	4.42
829.18	4.34
829.478	3.71
829.775	2.65
830.073	3.72
830.37	4.39
830.668	4.17
830.965	6.47
831.263	4.07
831.56	3.53
831.857	3.18
832.154	3.96
832.451	6.48
832.748	6.71
833.045	0.58
833.342	1.24
833.639	6.57
833.936	0.3
834.232	6.47
834.529	5.29
834.826	4.51
835.122	5.01
835.419	0.22
835.715	1.39
836.012	1.4
836.308	1.06
836.604	4.1
836.901	3.88
837.197	3.62
837.493	3.81
837.789	2.35
838.085	7.94
838.381	2.9
838.677	6.92
838.972	4.41
839.268	8.09
839.564	3.1
839.86	1.19
840.155	-1.53
840.451	3.89
840.746	8.32
841.042	7.53
841.337	-2.89
841.632	1.26
841.928	-0.14
842.223	6.36
842.518	-7.92
842.813	8.11
843.108	8.76
843.403	6.2
843.698	1.7
843.993	10.24
844.287	1.38
844.582	1.66
844.877	-2.55
845.171	1.71
845.466	-8.83
845.761	-2.43
846.055	4.12
846.349	16.2
846.644	5.59
846.938	1.91
847.232	-3.66
847.526	-2.15
847.82	-5.16
848.114	-13.07
848.408	5.34
848.702	-13.82
848.996	-8.7
849.29	-11.52
849.584	1.42
849.877	1.07
850.171	-2.11
850.465	8.34
850.758	16.63
851.052	6.61
851.345	1.7
851.638	5.57
851.932	7.75
852.225	-14.43
852.518	-7.41
852.811	-1.78
853.104	7.89
853.397	0.57
853.69	2.42
853.983	9.81
854.276	-17.51
854.569	-14.09
854.861	-15.2
855.154	-17.22
855.447	-4.19
855.739	2.18
856.032	-0.55
856.324	-3.49
856.616	-22.05
856.909	-19.78
857.201	2.76
857.493	13.84
857.785	11.38
858.077	4.4
858.369	13.78
858.661	16.05
858.953	-21.05
859.245	-12.03
859.537	18.4
859.829	7.32
860.12	9.94
860.412	0.86
860.703	9.01
860.995	1.11
861.286	-16.88
861.578	12.99
861.869	-21.9
862.16	-17.81
862.452	-6.69
862.743	16.83
863.034	-6.13
863.325	-14.24
863.616	-4.36
863.907	6.78
864.198	-13.5
864.488	11.63
864.779	14.08
865.07	-1.7
865.36	-7.72
865.651	2.2
865.941	2.67
866.232	24.06
866.522	-10.45
866.813	-21.19
867.103	-10.04
867.393	-3.57
867.683	-1.47
867.973	-5
868.263	-3.33
868.553	-6.48
868.843	-33.7
869.133	-3.75
869.423	-13.47
869.713	-9.47
870.002	-2.63
870.292	-7.33
870.582	4
870.871	-8.66
871.161	12
871.45	-12.68
871.739	3.72
872.029	33.78
872.318	14.9
872.607	11.44
872.896	-2.08
873.185	-18
873.474	-13.43
873.763	-13.43
874.052	3.5
874.341	9.22
874.63	-16
874.918	-11.69
875.207	17.6
875.496	22.16
875.784	29.85
876.073	-7.34
876.361	-37.76
876.649	0.81
876.938	-14.28
877.226	7.88
877.514	-8.99
877.802	-17.99
878.09	14.87
878.378	-6.22
878.666	13.35
878.954	15.05
879.242	8.12
879.53	-13.7
879.817	-7.38
880.105	-11.65
880.392	-11.9
880.68	18.88
880.967	-6.63
881.255	4.86
881.542	-6.96
881.83	20.91
882.117	-4.22
882.404	6.69
882.691	-24.03
882.978	9.86
883.265	9.09
883.552	-8.92
883.839	1.69
884.126	20.16
884.413	-4.75
884.699	5.42
884.986	1.74
885.273	5.91
885.559	5.91
885.846	5.91
