Data from 2019-1_chest_Reflection__2__177.txt Node

Date: Fri Nov 11 18:16:10 CST 2022
User: ToomeyLab
Spectrometer: FLMS14357
Trigger mode: 0
Integration Time (sec): 1.000000E-2
Scans to average: 100
Electric dark correction enabled: true
Nonlinearity correction enabled: false
Boxcar width: 0
XAxis mode: Wavelengths
Number of Pixels in Spectrum: 2048
>>>>>Begin Spectral Data<<<<<
189.047	87.73
189.435	87.73
189.823	87.73
190.211	-334.38
190.599	142.37
190.987	0.26
191.375	163
191.763	49.03
192.151	-470.05
192.538	21.71
192.926	443.95
193.314	-167.06
193.702	684.01
194.089	-140.88
194.477	127
194.864	-100.75
195.252	-41.37
195.639	-227.18
196.027	22.74
196.414	104.32
196.801	-94.19
197.189	-635.08
197.576	108.89
197.963	-35.89
198.351	22.15
198.738	2.75
199.125	-7.31
199.512	-18.98
199.899	38.96
200.286	-20.72
200.673	15.23
201.06	5.98
201.447	4.96
201.833	60.46
202.22	-14.88
202.607	-1.75
202.994	41.68
203.38	15.59
203.767	23.19
204.154	-53.02
204.54	24.83
204.927	7.51
205.313	6.22
205.699	-1.92
206.086	-35.07
206.472	-17.69
206.858	34.36
207.245	3.03
207.631	-7.25
208.017	-30.22
208.403	-12.72
208.789	5.98
209.175	-24.65
209.561	-1.07
209.947	43.04
210.333	22.76
210.719	-6.72
211.105	-4.21
211.491	31.24
211.876	-16.77
212.262	-52.96
212.648	24.44
213.034	-31
213.419	-8.03
213.805	-0.75
214.19	13.98
214.576	3.12
214.961	-7.83
215.346	-23.21
215.732	26.16
216.117	21.98
216.502	41.84
216.888	-13.18
217.273	8.81
217.658	-2.24
218.043	16.22
218.428	11.17
218.813	-16.49
219.198	14.1
219.583	2.31
219.968	-11.21
220.353	-5.47
220.738	6.76
221.122	-34.37
221.507	25.85
221.892	4.8
222.276	5.3
222.661	16.03
223.046	-1.09
223.43	-3.42
223.815	0.42
224.199	-3.46
224.583	13.35
224.968	10.87
225.352	14.54
225.736	5.3
226.121	4.11
226.505	5.14
226.889	2.99
227.273	10.03
227.657	10.15
228.041	1.75
228.425	-0.14
228.809	2.6
229.193	4.14
229.577	4.18
229.961	3.04
230.344	2.65
230.728	3.18
231.112	3.13
231.495	3.57
231.879	3.59
232.263	3.63
232.646	3.4
233.03	1.82
233.413	2.97
233.797	1.45
234.18	1.51
234.563	1.34
234.946	1.11
235.33	3.35
235.713	1.91
236.096	3.12
236.479	0.88
236.862	1.97
237.245	2.5
237.628	2.65
238.011	1.06
238.394	3.49
238.777	1.47
239.16	3.7
239.543	5.04
239.925	2.7
240.308	4.4
240.691	5.07
241.073	2.3
241.456	3.77
241.838	3.42
242.221	3.39
242.603	2.51
242.986	3.23
243.368	3.51
243.75	3.39
244.133	3.27
244.515	3.71
244.897	3.51
245.279	3.69
245.661	3.56
246.043	2.5
246.425	2.83
246.807	3.58
247.189	3.14
247.571	3.6
247.953	3.24
248.335	3.38
248.717	3.42
249.098	3.32
249.48	3.13
249.862	3.11
250.243	3.44
250.625	2.84
251.006	2.85
251.388	3.41
251.769	3.04
252.151	3.45
252.532	3.13
252.913	3.6
253.295	2.86
253.676	3.69
254.057	3.16
254.438	2.77
254.819	3.33
255.2	3.97
255.581	3.37
255.962	2.72
256.343	3.22
256.724	3.14
257.105	4.45
257.486	2.9
257.867	3.39
258.247	3.57
258.628	3.08
259.009	2.79
259.389	2.7
259.77	3.74
260.15	2.86
260.531	3.03
260.911	3
261.292	3.08
261.672	3.16
262.052	3.11
262.432	2.86
262.813	3.26
263.193	3
263.573	2.41
263.953	2.92
264.333	2.91
264.713	3.48
265.093	3.13
265.473	3.35
265.853	3.11
266.233	3.52
266.612	2.94
266.992	2.28
267.372	4.12
267.752	3.81
268.131	2.81
268.511	2.98
268.89	3.56
269.27	3.01
269.649	3.1
270.029	2.9
270.408	3.66
270.787	2.88
271.167	2.97
271.546	3.33
271.925	3.26
272.304	3.38
272.683	3
273.062	3.06
273.441	2.6
273.82	3.43
274.199	3.23
274.578	3.1
274.957	3.22
275.336	2.77
275.715	2.91
276.093	2.77
276.472	2.95
276.851	3.24
277.229	3.05
277.608	2.97
277.986	2.95
278.365	3.01
278.743	3.07
279.122	3.35
279.5	2.65
279.878	2.52
280.257	3
280.635	2.46
281.013	2.8
281.391	3.47
281.769	2.37
282.147	3.41
282.525	3.22
282.903	2.96
283.281	3.63
283.659	2.96
284.037	2.99
284.415	2.81
284.792	3
285.17	3.05
285.548	3.1
285.925	3.11
286.303	2.87
286.68	2.73
287.058	2.82
287.435	3.15
287.813	3.17
288.19	2.88
288.567	2.64
288.945	2.39
289.322	2.85
289.699	2.92
290.076	2.79
290.453	3.08
290.83	3.03
291.207	2.95
291.584	3.13
291.961	2.95
292.338	3.1
292.715	3.11
293.092	3.31
293.469	2.7
293.845	2.61
294.222	3.6
294.599	3.4
294.975	2.36
295.352	3.43
295.728	2.98
296.105	2.81
296.481	3.41
296.858	3.29
297.234	3.19
297.61	2.82
297.986	3.03
298.363	3.24
298.739	2.95
299.115	3.23
299.491	3.07
299.867	3.18
300.243	2.88
300.619	3.37
300.995	3.25
301.371	3.29
301.746	2.78
302.122	3.05
302.498	3.33
302.874	3.55
303.249	3.23
303.625	3.54
304	3.34
304.376	3.16
304.751	3.6
305.127	3.39
305.502	3.1
305.878	3.37
306.253	3.41
306.628	3.15
307.003	3.62
307.378	2.76
307.754	3.28
308.129	3.3
308.504	2.67
308.879	3.68
309.254	3.42
309.629	3.41
310.003	3.52
310.378	3.42
310.753	3.17
311.128	3.75
311.502	2.51
311.877	3.14
312.252	3.53
312.626	3.42
313.001	3.56
313.375	2.84
313.75	3.22
314.124	3.1
314.498	3.02
314.873	3
315.247	3.17
315.621	3.67
315.995	3.07
316.369	2.87
316.743	2.96
317.117	3.14
317.491	3.18
317.865	4.01
318.239	3.59
318.613	3.26
318.987	3.25
319.361	3.47
319.734	3.72
320.108	3.04
320.482	3.25
320.855	2.77
321.229	3.08
321.602	2.79
321.976	3.26
322.349	3.75
322.723	3.47
323.096	3.18
323.469	3.54
323.843	3.17
324.216	2.78
324.589	3.5
324.962	3.22
325.335	2.6
325.708	3.16
326.081	3.17
326.454	3.02
326.827	3.08
327.2	3.59
327.573	3.01
327.945	3.42
328.318	3.7
328.691	3.04
329.063	3.4
329.436	3.24
329.809	3.75
330.181	3.05
330.553	3.06
330.926	3.21
331.298	3.15
331.671	3.09
332.043	3.04
332.415	3
332.787	3.45
333.159	2.96
333.532	3.15
333.904	3.48
334.276	3.1
334.648	3.21
335.02	3.58
335.391	2.96
335.763	3.26
336.135	3.69
336.507	3.53
336.879	3.37
337.25	3.62
337.622	3.73
337.993	3.66
338.365	3.91
338.736	3.06
339.108	3.39
339.479	3.7
339.851	3.51
340.222	3.37
340.593	3.52
340.964	3.25
341.336	2.98
341.707	3.47
342.078	3
342.449	3.23
342.82	3.53
343.191	3.62
343.562	3.51
343.933	3
344.303	3.04
344.674	3.29
345.045	3.4
345.416	3.13
345.786	3.21
346.157	3.86
346.527	3.5
346.898	3.31
347.268	3.25
347.639	3.43
348.009	3.32
348.38	3.48
348.75	3.48
349.12	3.61
349.49	3.42
349.861	3.11
350.231	3.72
350.601	3.3
350.971	3.41
351.341	3.22
351.711	3.42
352.081	3.55
352.45	3.14
352.82	3.77
353.19	3.96
353.56	3.9
353.929	3
354.299	3.37
354.669	3.81
355.038	3.98
355.408	3.21
355.777	3.83
356.147	3.64
356.516	3.1
356.885	3.33
357.254	3.88
357.624	3.27
357.993	3.27
358.362	3.61
358.731	3.23
359.1	3.13
359.469	3.31
359.838	3.6
360.207	3.7
360.576	3.32
360.945	3.36
361.314	3.5
361.682	3.36
362.051	3.49
362.42	3.3
362.788	3.44
363.157	3.14
363.525	3.33
363.894	3.41
364.262	3.2
364.631	3.44
364.999	3.49
365.367	3.61
365.735	3.65
366.104	3.33
366.472	3.37
366.84	3.64
367.208	3.36
367.576	3.68
367.944	3.41
368.312	3.01
368.68	3.23
369.048	3.39
369.416	3.58
369.783	3.51
370.151	3.4
370.519	3.29
370.886	3.3
371.254	3.47
371.621	3.86
371.989	3.62
372.356	3.39
372.724	3.46
373.091	3.47
373.458	3.37
373.826	3.53
374.193	3.45
374.56	3.28
374.927	3.12
375.294	3.47
375.661	3.35
376.028	3.6
376.395	3.61
376.762	3.61
377.129	3.34
377.496	3.78
377.863	3.19
378.229	3.6
378.596	3.6
378.963	3.43
379.329	3.44
379.696	3.62
380.062	3.26
380.429	3.28
380.795	3.71
381.161	3.52
381.528	3.98
381.894	3.53
382.26	3.47
382.626	3.39
382.993	3.6
383.359	3.74
383.725	3.61
384.091	3.45
384.457	3.48
384.823	3.47
385.188	3.49
385.554	3.75
385.92	3.8
386.286	3.57
386.651	3.43
387.017	3.49
387.383	3.52
387.748	3.54
388.114	3.32
388.479	3.62
388.845	3.43
389.21	3.37
389.575	3.33
389.94	3.48
390.306	3.5
390.671	3.58
391.036	3.65
391.401	3.73
391.766	3.76
392.131	3.48
392.496	3.46
392.861	3.41
393.226	3.59
393.591	3.79
393.956	3.73
394.32	3.62
394.685	3.55
395.05	3.49
395.414	3.78
395.779	3.45
396.143	3.69
396.508	3.73
396.872	3.49
397.236	3.36
397.601	3.64
397.965	3.5
398.329	3.7
398.694	3.96
399.058	3.55
399.422	3.59
399.786	3.74
400.15	3.67
400.514	3.7
400.878	3.47
401.242	3.65
401.605	3.45
401.969	3.65
402.333	3.54
402.697	3.87
403.06	3.5
403.424	3.46
403.787	3.71
404.151	3.71
404.514	3.67
404.878	3.75
405.241	3.71
405.604	3.67
405.968	3.54
406.331	3.5
406.694	3.73
407.057	3.68
407.42	3.53
407.783	3.5
408.146	3.88
408.509	3.46
408.872	3.64
409.235	3.83
409.598	3.5
409.961	3.78
410.323	3.63
410.686	3.89
411.049	3.67
411.411	3.81
411.774	3.58
412.136	3.54
412.499	3.73
412.861	3.67
413.223	3.49
413.586	3.69
413.948	3.6
414.31	3.85
414.672	3.58
415.035	3.61
415.397	3.8
415.759	3.91
416.121	3.76
416.483	3.68
416.845	3.47
417.206	3.88
417.568	3.79
417.93	3.71
418.292	3.55
418.653	3.58
419.015	3.71
419.377	3.7
419.738	3.8
420.1	3.7
420.461	3.74
420.822	3.76
421.184	3.73
421.545	3.64
421.906	3.67
422.267	3.7
422.629	3.64
422.99	3.6
423.351	3.71
423.712	3.55
424.073	3.68
424.434	3.63
424.795	3.69
425.155	3.56
425.516	3.65
425.877	3.62
426.238	3.66
426.598	3.67
426.959	3.61
427.32	3.69
427.68	3.75
428.041	3.66
428.401	3.79
428.761	3.8
429.122	3.72
429.482	3.79
429.842	3.76
430.202	3.68
430.563	3.84
430.923	3.79
431.283	3.83
431.643	3.69
432.003	3.98
432.363	3.81
432.722	3.92
433.082	3.81
433.442	3.93
433.802	3.55
434.161	3.95
434.521	3.91
434.881	3.76
435.24	3.89
435.6	3.77
435.959	3.66
436.319	3.86
436.678	3.74
437.037	3.97
437.396	3.86
437.756	3.93
438.115	3.76
438.474	3.89
438.833	3.94
439.192	3.8
439.551	3.9
439.91	3.79
440.269	3.88
440.628	3.84
440.987	3.83
441.345	3.87
441.704	3.84
442.063	3.89
442.421	3.86
442.78	3.9
443.138	3.83
443.497	3.81
443.855	3.86
444.214	3.91
444.572	3.97
444.93	3.85
445.288	3.76
445.647	3.94
446.005	3.78
446.363	3.89
446.721	3.94
447.079	3.83
447.437	3.86
447.795	3.86
448.153	3.79
448.51	3.85
448.868	3.94
449.226	3.94
449.584	3.96
449.941	3.84
450.299	3.82
450.656	4.02
451.014	3.98
451.371	4.02
451.729	3.92
452.086	3.95
452.443	4.04
452.801	3.99
453.158	3.95
453.515	4.04
453.872	3.96
454.229	4.12
454.586	3.98
454.943	3.93
455.3	3.93
455.657	3.97
456.014	3.97
456.371	4.04
456.727	3.97
457.084	4.27
457.441	4
457.797	3.92
458.154	4.19
458.51	4.06
458.867	4.03
459.223	4.02
459.58	4.01
459.936	3.95
460.292	4.1
460.648	3.93
461.005	4.01
461.361	3.95
461.717	4.03
462.073	3.96
462.429	3.91
462.785	4.09
463.141	4
463.496	4.05
463.852	4.11
464.208	4.19
464.564	3.99
464.919	4.08
465.275	4.04
465.631	4.1
465.986	3.95
466.342	4.14
466.697	4.05
467.052	4.14
467.408	4.38
467.763	4.31
468.118	4.14
468.473	4.14
468.829	4
469.184	4.12
469.539	4.14
469.894	4.12
470.249	4.17
470.603	4.22
470.958	4.17
471.313	4
471.668	4.07
472.023	4.21
472.377	4.25
472.732	4.36
473.086	4.31
473.441	4.34
473.795	4.26
474.15	4.21
474.504	4.33
474.859	4.27
475.213	4.23
475.567	4.37
475.921	4.21
476.275	4.13
476.63	4.15
476.984	4.36
477.338	4.14
477.692	4.21
478.045	4.14
478.399	4.09
478.753	4.26
479.107	4.34
479.461	4.28
479.814	4.29
480.168	4.27
480.521	4.26
480.875	4.26
481.228	4.29
481.582	4.31
481.935	4.3
482.289	4.3
482.642	4.32
482.995	4.27
483.348	4.13
483.701	4.25
484.055	4.18
484.408	4.07
484.761	4.12
485.114	3.99
485.466	3.97
485.819	4.04
486.172	4.05
486.525	4.1
486.878	4.18
487.23	4.18
487.583	4.22
487.936	4.16
488.288	4.21
488.641	4.18
488.993	4.14
489.345	4.12
489.698	4.13
490.05	4.16
490.402	4.13
490.754	4.24
491.107	4.16
491.459	4.27
491.811	4.26
492.163	4.28
492.515	4.25
492.866	4.21
493.218	4.16
493.57	4.22
493.922	4.19
494.274	4.25
494.625	4.34
494.977	4.24
495.328	4.42
495.68	4.47
496.031	4.42
496.383	4.46
496.734	4.43
497.086	4.44
497.437	4.51
497.788	4.53
498.139	4.43
498.49	4.45
498.842	4.41
499.193	4.45
499.544	4.47
499.894	4.48
500.245	4.53
500.596	4.56
500.947	4.41
501.298	4.55
501.648	4.62
501.999	4.52
502.35	4.56
502.7	4.48
503.051	4.63
503.401	4.62
503.752	4.52
504.102	4.63
504.452	4.56
504.803	4.54
505.153	4.65
505.503	4.62
505.853	4.67
506.203	4.75
506.553	4.71
506.903	4.72
507.253	4.75
507.603	4.69
507.953	4.7
508.303	4.68
508.652	4.86
509.002	4.69
509.352	4.66
509.701	4.61
510.051	4.7
510.4	4.71
510.75	4.69
511.099	4.69
511.449	4.71
511.798	4.76
512.147	4.74
512.496	4.6
512.846	4.67
513.195	4.72
513.544	4.72
513.893	4.71
514.242	4.71
514.591	4.72
514.939	4.79
515.288	4.73
515.637	4.83
515.986	4.86
516.334	4.81
516.683	4.82
517.032	4.86
517.38	4.76
517.729	4.78
518.077	4.86
518.426	4.83
518.774	4.77
519.122	4.79
519.47	4.8
519.819	4.88
520.167	4.8
520.515	4.8
520.863	4.8
521.211	4.75
521.559	4.88
521.907	4.99
522.255	4.91
522.602	4.9
522.95	5
523.298	4.98
523.645	4.99
523.993	4.96
524.341	4.89
524.688	4.97
525.036	5.05
525.383	5.07
525.73	5.06
526.078	5.02
526.425	5.01
526.772	4.98
527.119	4.94
527.466	4.91
527.814	4.82
528.161	4.94
528.508	4.96
528.854	5
529.201	5.01
529.548	4.93
529.895	4.81
530.242	4.85
530.588	4.82
530.935	4.88
531.282	4.91
531.628	4.95
531.975	5
532.321	5.06
532.667	5.04
533.014	5.1
533.36	5.24
533.706	5.09
534.052	5.17
534.399	5.07
534.745	5.02
535.091	5
535.437	5.07
535.783	5.06
536.129	5.16
536.474	5.24
536.82	5.24
537.166	5.35
537.512	5.26
537.857	5.32
538.203	5.26
538.549	5.27
538.894	5.23
539.239	5.33
539.585	5.26
539.93	5.3
540.276	5.47
540.621	5.54
540.966	5.38
541.311	5.49
541.656	5.42
542.001	5.42
542.346	5.44
542.691	5.3
543.036	5.27
543.381	5.26
543.726	5.31
544.071	5.34
544.415	5.42
544.76	5.36
545.105	5.37
545.449	5.4
545.794	5.55
546.138	5.54
546.483	5.53
546.827	5.51
547.171	5.62
547.516	5.66
547.86	5.55
548.204	5.61
548.548	5.58
548.892	5.59
549.236	5.7
549.58	5.72
549.924	5.77
550.268	5.81
550.612	5.87
550.956	5.66
551.3	5.92
551.643	5.87
551.987	5.88
552.33	5.97
552.674	5.88
553.017	5.82
553.361	6.05
553.704	6.03
554.048	6.02
554.391	5.87
554.734	5.98
555.077	6.02
555.42	5.98
555.764	5.96
556.107	5.93
556.45	6.09
556.793	6.25
557.135	6.15
557.478	6.01
557.821	6.1
558.164	6.18
558.507	5.97
558.849	6.23
559.192	6.24
559.534	6.22
559.877	6.3
560.219	6.28
560.562	6.17
560.904	6.24
561.246	6.28
561.589	6.34
561.931	6.29
562.273	6.48
562.615	6.25
562.957	6.35
563.299	6.42
563.641	6.43
563.983	6.38
564.325	6.3
564.667	6.45
565.008	6.41
565.35	6.69
565.692	6.52
566.033	6.49
566.375	6.48
566.716	6.46
567.058	6.6
567.399	6.59
567.741	6.66
568.082	6.6
568.423	6.56
568.764	6.62
569.105	6.57
569.447	6.73
569.788	6.79
570.129	6.7
570.47	6.75
570.811	6.62
571.151	6.72
571.492	6.82
571.833	6.82
572.174	6.66
572.514	6.74
572.855	6.79
573.195	6.68
573.536	6.82
573.876	6.83
574.217	6.91
574.557	6.84
574.898	7.07
575.238	7.08
575.578	6.85
575.918	6.81
576.258	7.07
576.598	7.06
576.938	7.07
577.278	7.08
577.618	7.06
577.958	7.1
578.298	7.2
578.638	7.14
578.977	7.31
579.317	7.31
579.657	7.31
579.996	7.22
580.336	7.37
580.675	7.17
581.014	7.41
581.354	7.47
581.693	7.4
582.032	7.36
582.372	7.28
582.711	7.37
583.05	7.51
583.389	7.66
583.728	7.57
584.067	7.7
584.406	7.42
584.745	7.79
585.083	7.7
585.422	7.57
585.761	7.59
586.1	7.79
586.438	7.65
586.777	7.53
587.115	7.84
587.454	7.66
587.792	7.8
588.13	7.74
588.469	7.81
588.807	7.77
589.145	7.91
589.483	7.8
589.821	8.11
590.159	8.08
590.497	7.64
590.835	8.1
591.173	7.91
591.511	8.01
591.849	8.03
592.187	8.09
592.524	8.01
592.862	8.03
593.2	7.97
593.537	8.03
593.875	8.03
594.212	8.16
594.55	8.23
594.887	8.15
595.224	8.27
595.561	8.07
595.899	8.08
596.236	8.36
596.573	8.19
596.91	8.27
597.247	8.22
597.584	8.43
597.921	8.37
598.258	8.42
598.594	8.33
598.931	8.26
599.268	8.36
599.604	8.25
599.941	8.5
600.277	8.37
600.614	8.4
600.95	8.62
601.287	8.37
601.623	8.56
601.959	8.5
602.296	8.74
602.632	8.44
602.968	8.72
603.304	8.64
603.64	8.89
603.976	8.9
604.312	8.66
604.648	8.84
604.984	8.73
605.319	8.85
605.655	8.56
605.991	8.76
606.326	8.92
606.662	8.88
606.998	8.79
607.333	9.06
607.668	8.98
608.004	8.98
608.339	9.12
608.674	9.17
609.01	8.85
609.345	9.07
609.68	9.12
610.015	9.09
610.35	9.31
610.685	9.35
611.02	9.18
611.355	9.15
611.689	9.22
612.024	9.11
612.359	9.12
612.694	9.54
613.028	9.38
613.363	9.38
613.697	9.3
614.032	9.46
614.366	9.56
614.7	9.43
615.035	9.54
615.369	9.65
615.703	9.35
616.037	9.44
616.371	9.57
616.705	9.97
617.039	9.83
617.373	9.7
617.707	10.09
618.041	9.88
618.375	9.71
618.709	9.65
619.042	9.9
619.376	9.91
619.71	10.09
620.043	9.84
620.377	9.59
620.71	10.08
621.043	9.92
621.377	10.06
621.71	9.98
622.043	9.88
622.376	10.18
622.709	9.85
623.043	10.44
623.376	10.1
623.709	9.89
624.041	10.18
624.374	10.17
624.707	10.03
625.04	10.1
625.373	10.09
625.705	10.09
626.038	10.21
626.37	9.98
626.703	10.42
627.035	10.49
627.368	10.49
627.7	10.69
628.032	10.4
628.365	10.55
628.697	10.59
629.029	10.6
629.361	10.55
629.693	10.43
630.025	10.89
630.357	10.82
630.689	10.59
631.021	10.41
631.353	10.9
631.684	10.69
632.016	10.83
632.348	10.55
632.679	10.76
633.011	10.88
633.342	11.05
633.674	10.98
634.005	10.61
634.336	11.11
634.668	10.9
634.999	11.02
635.33	10.8
635.661	10.8
635.992	11.22
636.323	10.83
636.654	10.9
636.985	11.11
637.316	11.13
637.647	11.16
637.977	11.41
638.308	11.22
638.639	10.92
638.969	11.27
639.3	11.33
639.63	11.32
639.961	11.42
640.291	11.64
640.622	11.34
640.952	11.94
641.282	11.68
641.612	11.64
641.943	11.98
642.273	11.6
642.603	11.7
642.933	11.77
643.263	11.7
643.592	11.93
643.922	11.6
644.252	12.23
644.582	12.06
644.911	11.91
645.241	11.62
645.571	11.74
645.9	11.61
646.23	11.9
646.559	11.67
646.888	11.65
647.218	12.17
647.547	12.3
647.876	12.03
648.205	11.95
648.534	12.04
648.863	12.18
649.192	12.5
649.521	11.78
649.85	12.47
650.179	12.34
650.508	12.61
650.837	12.16
651.165	12.03
651.494	12.24
651.822	12.42
652.151	12.82
652.479	12.31
652.808	12.31
653.136	12.34
653.465	12.44
653.793	12.52
654.121	12.47
654.449	12.62
654.777	12.38
655.105	12.78
655.433	12.37
655.761	13.25
656.089	12.72
656.417	12.39
656.745	12.68
657.073	12.45
657.4	13.35
657.728	12.54
658.056	12.67
658.383	12.52
658.711	12.6
659.038	13.23
659.365	13.33
659.693	12.75
660.02	13.1
660.347	13.15
660.674	12.75
661.001	13.05
661.329	13.27
661.656	13.24
661.982	13.57
662.309	13.28
662.636	13.36
662.963	13.34
663.29	13.32
663.616	13.48
663.943	13.08
664.27	13.61
664.596	13.14
664.923	12.42
665.249	13.06
665.576	13.49
665.902	13.81
666.228	13.16
666.554	13.86
666.881	13.8
667.207	13.47
667.533	13.81
667.859	13.31
668.185	13
668.511	13.31
668.837	13.51
669.162	13.98
669.488	14.44
669.814	13.28
670.139	13.7
670.465	14.2
670.791	13.58
671.116	13.43
671.442	13.65
671.767	13.97
672.092	13.67
672.418	14.51
672.743	13.96
673.068	14.29
673.393	14.59
673.718	14.43
674.043	13.87
674.368	14.59
674.693	15.1
675.018	14.47
675.343	14.1
675.667	14.73
675.992	14.51
676.317	14.47
676.641	14.15
676.966	14.35
677.29	14.1
677.615	14.72
677.939	14.81
678.264	14.83
678.588	14.87
678.912	14.64
679.236	14.17
679.56	14.04
679.885	14.85
680.209	14.14
680.532	14.01
680.856	14.75
681.18	14.88
681.504	15.26
681.828	14.56
682.152	14.65
682.475	15.01
682.799	15.1
683.122	14.76
683.446	15.14
683.769	15.27
684.093	14.97
684.416	15.53
684.739	15.45
685.062	14.74
685.386	14.59
685.709	15.24
686.032	15.35
686.355	14.69
686.678	15.08
687.001	14.79
687.324	15.78
687.646	15.32
687.969	14.78
688.292	14.8
688.614	15.08
688.937	15.01
689.26	15.47
689.582	15.56
689.904	14.65
690.227	15.73
690.549	16.05
690.871	15.48
691.194	15.48
691.516	15.41
691.838	15.48
692.16	15.31
692.482	15.49
692.804	15.91
693.126	15.33
693.448	15.98
693.769	15.69
694.091	15.97
694.413	15.83
694.735	15.87
695.056	15.08
695.378	16.49
695.699	16.45
696.021	16.11
696.342	16.49
696.663	15.43
696.984	16.34
697.306	16.4
697.627	15.89
697.948	15.91
698.269	17.15
698.59	16.26
698.911	16.9
699.232	15.74
699.553	16.42
699.873	16.34
700.194	16.24
700.515	16.61
700.835	16.29
701.156	16.77
701.477	16.32
701.797	16.61
702.117	16.3
702.438	16.7
702.758	17.4
703.078	16.77
703.398	16.25
703.719	16.18
704.039	17.53
704.359	17.46
704.679	16.4
704.999	16.77
705.319	17.02
705.638	16.72
705.958	16.86
706.278	17.01
706.597	16.88
706.917	17.05
707.237	18.57
707.556	17.12
707.876	16.53
708.195	18.02
708.514	17.21
708.834	17.06
709.153	16.65
709.472	17.12
709.791	17.61
710.11	17.04
710.429	17.22
710.748	17.35
711.067	16.97
711.386	17.94
711.705	17.36
712.023	16.97
712.342	17.13
712.661	17.66
712.979	18.28
713.298	17.91
713.616	17.08
713.935	17.91
714.253	17.03
714.572	17.78
714.89	18.14
715.208	17.96
715.526	18.06
715.844	17.41
716.162	16.66
716.48	17.48
716.798	17.31
717.116	17.37
717.434	18.23
717.752	17.81
718.069	16.86
718.387	17.96
718.705	18.38
719.022	17.63
719.34	18.52
719.657	17.52
719.975	18.2
720.292	18.19
720.609	18.01
720.927	17.99
721.244	17.93
721.561	17.52
721.878	18.76
722.195	18.21
722.512	17.89
722.829	17.9
723.146	17.41
723.463	19.06
723.779	17.97
724.096	17.5
724.413	18.46
724.729	17.89
725.046	17.79
725.362	18.54
725.679	17.9
725.995	17.97
726.311	18.7
726.628	17.43
726.944	18.66
727.26	18.87
727.576	19.34
727.892	18.72
728.208	19.25
728.524	18.87
728.84	19.25
729.156	18.11
729.472	20.11
729.787	18.95
730.103	17.63
730.419	18.4
730.734	19.18
731.05	18.55
731.365	19
731.681	18.11
731.996	18.12
732.311	19.02
732.626	17.31
732.942	19.33
733.257	19.6
733.572	18.9
733.887	18.62
734.202	19.63
734.517	19.92
734.832	20.08
735.146	19.43
735.461	18.3
735.776	18.87
736.091	19.32
736.405	20.43
736.72	18.59
737.034	20.59
737.349	19.08
737.663	19.24
737.977	20.07
738.292	19.44
738.606	20.84
738.92	19.22
739.234	21.76
739.548	20.39
739.862	20.03
740.176	19.96
740.49	19.95
740.804	18.71
741.117	20.43
741.431	19.78
741.745	20.99
742.058	20.37
742.372	19.55
742.685	20.1
742.999	20.6
743.312	20.7
743.626	16.89
743.939	20.43
744.252	20.3
744.565	18.47
744.878	19.08
745.191	19.71
745.505	20.27
745.817	19.33
746.13	17.79
746.443	20.88
746.756	18.81
747.069	20.8
747.381	22.1
747.694	19.28
748.007	20.57
748.319	19.19
748.632	20.47
748.944	19.92
749.256	20.78
749.569	19.46
749.881	18.66
750.193	19.66
750.505	20.91
750.817	21.53
751.129	19.23
751.441	21.56
751.753	19.8
752.065	20.46
752.377	21.56
752.689	20.42
753	21.87
753.312	21.87
753.624	22.13
753.935	21.69
754.247	20.91
754.558	21.5
754.869	22.09
755.181	21.92
755.492	20.31
755.803	21.75
756.114	21.55
756.425	20.84
756.736	20.85
757.047	20.8
757.358	22.45
757.669	20.24
757.98	20.63
758.291	21.44
758.601	21.22
758.912	20.7
759.223	20.1
759.533	20.31
759.844	21.35
760.154	20.54
760.464	19.19
760.775	21.65
761.085	19.98
761.395	21.27
761.705	22.11
762.016	20.22
762.326	20.54
762.636	20.74
762.945	21.8
763.255	21.43
763.565	21.67
763.875	19.53
764.185	22.28
764.494	21.65
764.804	20.27
765.113	19.47
765.423	22.46
765.732	21.22
766.042	21.55
766.351	22.04
766.66	22.76
766.97	21.14
767.279	21.6
767.588	22.45
767.897	22.01
768.206	20.67
768.515	22.82
768.824	21.89
769.133	21.89
769.441	22.15
769.75	22.11
770.059	20.43
770.367	22.09
770.676	21.88
770.984	22.53
771.293	19.21
771.601	20.23
771.91	20.55
772.218	21.7
772.526	22.5
772.834	22.37
773.142	21.52
773.45	23
773.758	23.18
774.066	22.31
774.374	19.34
774.682	22.64
774.99	22.39
775.298	21.87
775.605	18.21
775.913	21.94
776.22	23.82
776.528	25.12
776.835	23.56
777.143	22.38
777.45	21.93
777.757	24.97
778.065	24.11
778.372	20.62
778.679	21.63
778.986	20.07
779.293	21.42
779.6	21.75
779.907	22.58
780.214	23.34
780.52	22.16
780.827	23.64
781.134	23.92
781.44	22.19
781.747	20.02
782.053	22.47
782.36	23.7
782.666	23.06
782.973	19.78
783.279	21.19
783.585	25.39
783.891	22.2
784.197	21.21
784.503	21.28
784.809	22.99
785.115	23.51
785.421	22
785.727	24.57
786.033	20.93
786.339	21.67
786.644	22.7
786.95	20.92
787.255	20.57
787.561	22.64
787.866	23.23
788.172	21.3
788.477	23.61
788.782	21.06
789.088	20.25
789.393	26.04
789.698	22.05
790.003	24.31
790.308	27.53
790.613	25.37
790.918	24.37
791.223	21.87
791.527	25.24
791.832	26.02
792.137	23.24
792.441	25.08
792.746	24.63
793.05	24.53
793.355	19.77
793.659	23.81
793.963	22.49
794.268	21.59
794.572	21.24
794.876	22.34
795.18	26.53
795.484	22.69
795.788	25.4
796.092	21.68
796.396	22.29
796.7	23.47
797.004	27.5
797.307	18.74
797.611	24.32
797.915	22.58
798.218	20.87
798.522	24.29
798.825	25.06
799.128	24.22
799.432	21.9
799.735	23.21
800.038	16.23
800.341	25.02
800.644	25.83
800.947	23.51
801.25	22.43
801.553	21.73
801.856	21.93
802.159	20.43
802.462	21.95
802.764	24.38
803.067	24.63
803.37	24.19
803.672	19.15
803.975	23.6
804.277	24.53
804.579	25.69
804.882	23.79
805.184	24.63
805.486	22.87
805.788	22.63
806.09	23.98
806.392	26.58
806.694	23.51
806.996	21.4
807.298	24.4
807.6	19.24
807.902	24.51
808.203	25.58
808.505	23.26
808.807	25.47
809.108	23.98
809.409	21.97
809.711	29.83
810.012	26.22
810.313	25.68
810.615	22.74
810.916	23.57
811.217	22.89
811.518	21.33
811.819	20.91
812.12	22.62
812.421	28.34
812.722	23.3
813.023	23.03
813.323	23.28
813.624	22.32
813.925	21
814.225	25.75
814.526	26.02
814.826	21.13
815.126	24.13
815.427	22.84
815.727	27.61
816.027	24.14
816.327	20.39
816.627	27.47
816.927	24.9
817.227	25.41
817.527	23.8
817.827	24.77
818.127	22.48
818.427	24.2
818.727	32.53
819.026	23.01
819.326	23.31
819.625	23.75
819.925	22.31
820.224	25.08
820.524	30.67
820.823	24.13
821.122	23.3
821.421	22.81
821.72	22.26
822.019	25.88
822.318	28.57
822.617	26.64
822.916	30.68
823.215	26.95
823.514	25.85
823.813	25.7
824.111	26.04
824.41	25.45
824.709	26.48
825.007	25.76
825.306	24.88
825.604	26.46
825.902	25.85
826.201	25.2
826.499	25.92
826.797	23.95
827.095	25.73
827.393	26.25
827.691	25.29
827.989	27.14
828.287	23.5
828.585	24.27
828.882	27.31
829.18	27.36
829.478	25.74
829.775	25.4
830.073	26.77
830.37	25.06
830.668	27.44
830.965	27.41
831.263	25.57
831.56	23.82
831.857	26.07
832.154	25.24
832.451	25.67
832.748	25.21
833.045	26.47
833.342	25.57
833.639	25.65
833.936	23.59
834.232	25.37
834.529	22.45
834.826	27.39
835.122	26.3
835.419	33.59
835.715	28.18
836.012	26.99
836.308	26.63
836.604	24.95
836.901	26.63
837.197	27.2
837.493	24.83
837.789	25.43
838.085	25.28
838.381	24.12
838.677	22.45
838.972	27.87
839.268	25.96
839.564	27.16
839.86	20.72
840.155	28.53
840.451	19.64
840.746	33.92
841.042	24.51
841.337	17.44
841.632	31.97
841.928	27.36
842.223	32.42
842.518	22.65
842.813	22.98
843.108	20.89
843.403	21.95
843.698	26.51
843.993	28.42
844.287	22.46
844.582	32.72
844.877	25.76
845.171	32.37
845.466	23.29
845.761	29.18
846.055	22.33
846.349	27.82
846.644	26.05
846.938	26.32
847.232	25.06
847.526	32.39
847.82	24
848.114	9.93
848.408	17.52
848.702	22.74
848.996	39.61
849.29	30.53
849.584	23.74
849.877	31.63
850.171	24.44
850.465	26.63
850.758	37.55
851.052	31.59
851.345	24.57
851.638	31.4
851.932	31.03
852.225	21.32
852.518	23.78
852.811	45.7
853.104	14
853.397	27.82
853.69	23.55
853.983	21.9
854.276	37.23
854.569	13.33
854.861	17.19
855.154	21.97
855.447	25.24
855.739	24.84
856.032	23.64
856.324	15.86
856.616	32.36
856.909	27.25
857.201	24.93
857.493	22.88
857.785	34.14
858.077	8.84
858.369	12.01
858.661	31.16
858.953	25.53
859.245	54.68
859.537	26.11
859.829	33.89
860.12	22.31
860.412	23.32
860.703	6.11
860.995	18.36
861.286	31.41
861.578	21.28
861.869	31.73
862.16	43.6
862.452	33.89
862.743	31.67
863.034	21.12
863.325	8.66
863.616	33.06
863.907	19.88
864.198	38.84
864.488	33.92
864.779	25.47
865.07	20.79
865.36	10.42
865.651	30.45
865.941	48.2
866.232	23.92
866.522	33.04
866.813	31.57
867.103	18.38
867.393	29.97
867.683	8.05
867.973	39.68
868.263	5.42
868.553	22
868.843	16.45
869.133	20.85
869.423	30.88
869.713	18.79
870.002	25.49
870.292	16.04
870.582	15.66
870.871	22.45
871.161	13.85
871.45	27.55
871.739	31.24
872.029	32.26
872.318	12.31
872.607	-3.6
872.896	13.97
873.185	24.43
873.474	43.47
873.763	20.38
874.052	44.79
874.341	22.13
874.63	32.36
874.918	38.56
875.207	6.44
875.496	37.98
875.784	30.28
876.073	26.72
876.361	49.3
876.649	6.43
876.938	26.08
877.226	27.9
877.514	23.06
877.802	7.18
878.09	16.55
878.378	20.17
878.666	27.89
878.954	43.62
879.242	34.97
879.53	11.61
879.817	35.63
880.105	24.56
880.392	28.32
880.68	24.77
880.967	7.96
881.255	12.85
881.542	21.01
881.83	3.63
882.117	24.7
882.404	4.29
882.691	2.03
882.978	21.04
883.265	37.41
883.552	18.42
883.839	26.56
884.126	19.18
884.413	20.76
884.699	32.85
884.986	39.37
885.273	25.71
885.559	25.71
885.846	25.71
