Data from 2019-1_crown_Reflection__2__182.txt Node

Date: Fri Nov 11 18:18:54 CST 2022
User: ToomeyLab
Spectrometer: FLMS14357
Trigger mode: 0
Integration Time (sec): 1.000000E-2
Scans to average: 100
Electric dark correction enabled: true
Nonlinearity correction enabled: false
Boxcar width: 0
XAxis mode: Wavelengths
Number of Pixels in Spectrum: 2048
>>>>>Begin Spectral Data<<<<<
189.047	77.83
189.435	77.83
189.823	77.83
190.211	-579.18
190.599	-23.17
190.987	-70.97
191.375	20.61
191.763	151.46
192.151	151.67
192.538	84.78
192.926	-354.47
193.314	-126.51
193.702	437.56
194.089	-54.05
194.477	167.54
194.864	1005.97
195.252	9.74
195.639	-514.71
196.027	168.81
196.414	14.12
196.801	-43.4
197.189	232.63
197.576	-4.77
197.963	16.66
198.351	0.27
198.738	-1.51
199.125	-6.03
199.512	-33.44
199.899	7.41
200.286	-56.12
200.673	-44.05
201.06	-51.17
201.447	-9.74
201.833	8.65
202.22	-19.79
202.607	14.38
202.994	6.9
203.38	-19.88
203.767	21.57
204.154	-43.43
204.54	35.57
204.927	-19.92
205.313	-25.39
205.699	5.93
206.086	-76.69
206.472	-77.12
206.858	-5.41
207.245	17.34
207.631	-20.3
208.017	-4.92
208.403	-10.05
208.789	32.41
209.175	-15.01
209.561	3.13
209.947	0.13
210.333	16.65
210.719	9.77
211.105	10.92
211.491	12.55
211.876	-4.09
212.262	-45.53
212.648	12.18
213.034	14.09
213.419	-33.51
213.805	-2.61
214.19	-16.34
214.576	17.86
214.961	13.85
215.346	-35.49
215.732	-5.3
216.117	8.99
216.502	11.32
216.888	-27.25
217.273	-11.22
217.658	-22.49
218.043	-5.39
218.428	-4.82
218.813	9.3
219.198	-2.55
219.583	-11.06
219.968	-8.87
220.353	-18.89
220.738	-1.2
221.122	-35.9
221.507	11.25
221.892	-2.56
222.276	-11.12
222.661	-4.65
223.046	-13.51
223.43	6.75
223.815	1.52
224.199	-7.39
224.583	12
224.968	0.59
225.352	14.78
225.736	4.04
226.121	-6.72
226.505	7.7
226.889	0.54
227.273	3.35
227.657	6.19
228.041	6.11
228.425	-0.76
228.809	-2.1
229.193	1.06
229.577	4.98
229.961	2.32
230.344	2.86
230.728	3.1
231.112	3.02
231.495	3.54
231.879	3.35
232.263	2.81
232.646	1.97
233.03	2.67
233.413	2.14
233.797	2.72
234.18	0.86
234.563	2.74
234.946	0.48
235.33	4.63
235.713	2.14
236.096	3.57
236.479	1.09
236.862	2.24
237.245	4.47
237.628	3.22
238.011	1.55
238.394	1.27
238.777	4.3
239.16	3.48
239.543	4.44
239.925	0.4
240.308	3.83
240.691	3.59
241.073	2.46
241.456	2.57
241.838	2.16
242.221	3.25
242.603	1.65
242.986	3.53
243.368	3.47
243.75	3.68
244.133	3.36
244.515	4.01
244.897	3.58
245.279	4.14
245.661	3.34
246.043	3.53
246.425	3.09
246.807	3.18
247.189	3.49
247.571	3.85
247.953	3.78
248.335	3.96
248.717	4.21
249.098	4.18
249.48	3.74
249.862	3.78
250.243	4.28
250.625	3.54
251.006	3.47
251.388	4.29
251.769	4.02
252.151	3.01
252.532	4.63
252.913	4.29
253.295	3.29
253.676	4.5
254.057	4.16
254.438	3.68
254.819	3.93
255.2	5.15
255.581	3.51
255.962	3.67
256.343	3.73
256.724	4.01
257.105	3.08
257.486	2.85
257.867	3.91
258.247	3.95
258.628	3.7
259.009	3.77
259.389	3.58
259.77	4.29
260.15	3.47
260.531	3.94
260.911	3.57
261.292	3.74
261.672	3.68
262.052	3.63
262.432	3.32
262.813	3.75
263.193	3.76
263.573	3.33
263.953	3.5
264.333	3.61
264.713	3.97
265.093	3.67
265.473	4.02
265.853	4.51
266.233	3.38
266.612	3.58
266.992	3.3
267.372	3.39
267.752	3.46
268.131	3.97
268.511	3.66
268.89	3.84
269.27	3.5
269.649	3.77
270.029	3.42
270.408	3.45
270.787	4.07
271.167	3.89
271.546	3.12
271.925	3.02
272.304	3.59
272.683	3.7
273.062	3.62
273.441	3.25
273.82	3.6
274.199	3.13
274.578	3.68
274.957	3.62
275.336	3.48
275.715	3.24
276.093	3.33
276.472	3.54
276.851	3.31
277.229	3.35
277.608	2.97
277.986	3.44
278.365	2.79
278.743	3.49
279.122	3.34
279.5	3.17
279.878	3.45
280.257	3.28
280.635	3.5
281.013	3.06
281.391	3.39
281.769	3.1
282.147	3.65
282.525	3.34
282.903	4.07
283.281	3.91
283.659	3.5
284.037	3.76
284.415	2.91
284.792	3.96
285.17	3.18
285.548	3.57
285.925	3.34
286.303	3.13
286.68	3.15
287.058	3.61
287.435	3.61
287.813	3.68
288.19	3.48
288.567	3.09
288.945	3.5
289.322	3.49
289.699	3.26
290.076	3.27
290.453	3.52
290.83	3.35
291.207	3.39
291.584	3.95
291.961	3.9
292.338	3.56
292.715	3.63
293.092	3.77
293.469	3.61
293.845	4.03
294.222	4.3
294.599	3.55
294.975	3.63
295.352	4.27
295.728	3.73
296.105	4.32
296.481	4.46
296.858	4.44
297.234	4.5
297.61	4.48
297.986	4.11
298.363	4.38
298.739	4.34
299.115	4.67
299.491	4.54
299.867	4.64
300.243	4.12
300.619	4.34
300.995	4.28
301.371	4.68
301.746	3.97
302.122	4.55
302.498	5.06
302.874	5.13
303.249	4.35
303.625	4.41
304	4.84
304.376	4.63
304.751	4.62
305.127	4.6
305.502	4.15
305.878	4.63
306.253	4.7
306.628	4.56
307.003	5.06
307.378	4.4
307.754	4.35
308.129	4.84
308.504	4.37
308.879	5.05
309.254	4.9
309.629	4.99
310.003	5.21
310.378	5.01
310.753	4.78
311.128	4.83
311.502	4.52
311.877	4.6
312.252	5.21
312.626	4.87
313.001	4.79
313.375	4.39
313.75	5.12
314.124	5.01
314.498	4.51
314.873	4.88
315.247	4.91
315.621	4.97
315.995	4.9
316.369	4.3
316.743	4.83
317.117	4.85
317.491	4.72
317.865	5.26
318.239	5.33
318.613	5.02
318.987	4.65
319.361	5.06
319.734	5.32
320.108	4.68
320.482	5.08
320.855	4.75
321.229	4.68
321.602	4.88
321.976	5.48
322.349	5.69
322.723	5.22
323.096	4.97
323.469	5.35
323.843	4.97
324.216	5.11
324.589	5.49
324.962	4.34
325.335	5.08
325.708	5.28
326.081	4.9
326.454	4.88
326.827	5.15
327.2	5.46
327.573	4.97
327.945	5.64
328.318	4.99
328.691	4.76
329.063	4.91
329.436	5.22
329.809	4.94
330.181	4.86
330.553	5.05
330.926	4.83
331.298	5.18
331.671	5.02
332.043	5.34
332.415	4.76
332.787	5.07
333.159	5.16
333.532	4.96
333.904	5.29
334.276	4.69
334.648	4.96
335.02	5.15
335.391	5.17
335.763	5.17
336.135	5.32
336.507	5.43
336.879	5.4
337.25	5.2
337.622	5.26
337.993	5.54
338.365	5.27
338.736	4.68
339.108	5.23
339.479	5.06
339.851	5.05
340.222	4.54
340.593	5.01
340.964	4.96
341.336	5.17
341.707	5.21
342.078	5.39
342.449	5.26
342.82	5.12
343.191	5.21
343.562	5.11
343.933	4.59
344.303	5.01
344.674	5.08
345.045	5.24
345.416	4.98
345.786	4.96
346.157	4.95
346.527	5.09
346.898	5.04
347.268	4.89
347.639	5.35
348.009	4.87
348.38	5.29
348.75	4.87
349.12	5.21
349.49	5.14
349.861	4.71
350.231	5.42
350.601	5.01
350.971	5.05
351.341	5.05
351.711	4.97
352.081	5.22
352.45	5.14
352.82	5.29
353.19	5.16
353.56	5.28
353.929	5.04
354.299	5.14
354.669	5.11
355.038	5.09
355.408	4.47
355.777	5.08
356.147	4.95
356.516	4.83
356.885	5.13
357.254	5.64
357.624	4.97
357.993	4.98
358.362	4.91
358.731	5.18
359.1	5.04
359.469	5.04
359.838	4.97
360.207	5.12
360.576	4.94
360.945	4.99
361.314	5.34
361.682	5.04
362.051	5.18
362.42	5.04
362.788	5.13
363.157	4.96
363.525	5.05
363.894	5.04
364.262	4.89
364.631	4.92
364.999	5.15
365.367	5.04
365.735	5.39
366.104	5.24
366.472	5.26
366.84	5.15
367.208	5.27
367.576	5.23
367.944	4.96
368.312	4.88
368.68	4.99
369.048	4.9
369.416	4.99
369.783	5.28
370.151	4.79
370.519	4.96
370.886	4.91
371.254	4.79
371.621	5.07
371.989	5.47
372.356	5.05
372.724	4.8
373.091	5.08
373.458	5
373.826	5.29
374.193	5.13
374.56	5.14
374.927	5
375.294	5.18
375.661	5.41
376.028	5.48
376.395	5.33
376.762	5.2
377.129	5.13
377.496	5.29
377.863	4.87
378.229	5.01
378.596	5.16
378.963	5.16
379.329	5.24
379.696	5.03
380.062	4.8
380.429	4.92
380.795	4.76
381.161	5.04
381.528	5.18
381.894	4.92
382.26	4.97
382.626	5.01
382.993	5.13
383.359	4.95
383.725	5.13
384.091	4.95
384.457	5.08
384.823	5
385.188	4.99
385.554	5.1
385.92	5.22
386.286	5.08
386.651	4.79
387.017	5.08
387.383	5.17
387.748	5.25
388.114	4.91
388.479	5.08
388.845	5.08
389.21	4.95
389.575	4.9
389.94	5.2
390.306	4.93
390.671	5.06
391.036	5.23
391.401	5.21
391.766	5.36
392.131	5.23
392.496	5.09
392.861	4.97
393.226	5.07
393.591	5.25
393.956	5.29
394.32	5.37
394.685	5.06
395.05	5.04
395.414	5.17
395.779	5.15
396.143	5.09
396.508	5.12
396.872	4.96
397.236	5.14
397.601	5.04
397.965	5.07
398.329	5.24
398.694	5.27
399.058	5.35
399.422	5.29
399.786	5.26
400.15	5.1
400.514	5.25
400.878	5.29
401.242	5.18
401.605	5.12
401.969	5.26
402.333	5.06
402.697	5.46
403.06	5.15
403.424	5.19
403.787	5.17
404.151	5.36
404.514	5.24
404.878	4.87
405.241	5.33
405.604	5.15
405.968	5.11
406.331	5.08
406.694	5.08
407.057	5.2
407.42	5.09
407.783	4.99
408.146	5.08
408.509	4.99
408.872	5.24
409.235	5.21
409.598	5.14
409.961	5.41
410.323	5.23
410.686	5.47
411.049	5.25
411.411	5.3
411.774	5.42
412.136	5.07
412.499	5.36
412.861	5.24
413.223	5.26
413.586	5.18
413.948	5.13
414.31	5.37
414.672	5.06
415.035	5.13
415.397	5.3
415.759	5.25
416.121	5.24
416.483	5.14
416.845	4.98
417.206	5.24
417.568	5.3
417.93	5.28
418.292	5.14
418.653	5.3
419.015	5.08
419.377	5.27
419.738	5.37
420.1	5.27
420.461	5.34
420.822	5.23
421.184	5.21
421.545	5.24
421.906	5.21
422.267	5.18
422.629	5.21
422.99	5.21
423.351	5.14
423.712	5.14
424.073	5.09
424.434	5.2
424.795	5.24
425.155	5.23
425.516	5.15
425.877	5.23
426.238	5.17
426.598	5.25
426.959	5.25
427.32	5.23
427.68	5.4
428.041	5.18
428.401	5.36
428.761	5.25
429.122	5.32
429.482	5.31
429.842	5.27
430.202	5.21
430.563	5.31
430.923	5.35
431.283	5.28
431.643	5.25
432.003	5.3
432.363	5.33
432.722	5.32
433.082	5.45
433.442	5.39
433.802	5.2
434.161	5.42
434.521	5.45
434.881	5.34
435.24	5.53
435.6	5.38
435.959	5.31
436.319	5.41
436.678	5.37
437.037	5.54
437.396	5.35
437.756	5.34
438.115	5.29
438.474	5.37
438.833	5.53
439.192	5.38
439.551	5.35
439.91	5.48
440.269	5.4
440.628	5.47
440.987	5.49
441.345	5.43
441.704	5.36
442.063	5.49
442.421	5.38
442.78	5.42
443.138	5.43
443.497	5.31
443.855	5.48
444.214	5.47
444.572	5.48
444.93	5.54
445.288	5.47
445.647	5.52
446.005	5.47
446.363	5.43
446.721	5.5
447.079	5.46
447.437	5.39
447.795	5.4
448.153	5.5
448.51	5.45
448.868	5.48
449.226	5.4
449.584	5.52
449.941	5.49
450.299	5.39
450.656	5.51
451.014	5.47
451.371	5.61
451.729	5.5
452.086	5.58
452.443	5.68
452.801	5.55
453.158	5.52
453.515	5.59
453.872	5.59
454.229	5.52
454.586	5.51
454.943	5.73
455.3	5.62
455.657	5.55
456.014	5.7
456.371	5.71
456.727	5.59
457.084	5.58
457.441	5.6
457.797	5.58
458.154	5.7
458.51	5.61
458.867	5.63
459.223	5.61
459.58	5.67
459.936	5.7
460.292	5.61
460.648	5.66
461.005	5.8
461.361	5.6
461.717	5.63
462.073	5.61
462.429	5.46
462.785	5.51
463.141	5.5
463.496	5.66
463.852	5.75
464.208	5.67
464.564	5.71
464.919	5.7
465.275	5.74
465.631	5.63
465.986	5.66
466.342	5.75
466.697	5.69
467.052	5.72
467.408	5.98
467.763	5.75
468.118	5.78
468.473	5.69
468.829	5.67
469.184	5.57
469.539	5.74
469.894	5.7
470.249	5.83
470.603	5.71
470.958	5.69
471.313	5.57
471.668	5.83
472.023	5.79
472.377	5.98
472.732	5.66
473.086	5.75
473.441	5.97
473.795	5.81
474.15	5.76
474.504	5.92
474.859	5.81
475.213	5.89
475.567	6.01
475.921	5.87
476.275	5.72
476.63	5.8
476.984	5.93
477.338	5.9
477.692	5.84
478.045	5.89
478.399	5.78
478.753	5.86
479.107	5.92
479.461	5.84
479.814	5.85
480.168	5.86
480.521	5.86
480.875	5.78
481.228	5.76
481.582	5.95
481.935	5.85
482.289	5.82
482.642	5.78
482.995	5.81
483.348	5.89
483.701	5.79
484.055	5.86
484.408	5.76
484.761	5.71
485.114	5.64
485.466	5.62
485.819	5.59
486.172	5.55
486.525	5.57
486.878	5.61
487.23	5.61
487.583	5.69
487.936	5.65
488.288	5.75
488.641	5.8
488.993	5.75
489.345	5.72
489.698	5.69
490.05	5.66
490.402	5.68
490.754	5.78
491.107	5.75
491.459	5.81
491.811	5.73
492.163	5.87
492.515	5.9
492.866	5.77
493.218	5.73
493.57	5.77
493.922	5.79
494.274	5.76
494.625	5.87
494.977	5.75
495.328	5.99
495.68	6.01
496.031	5.93
496.383	5.98
496.734	5.99
497.086	5.87
497.437	6.18
497.788	6.06
498.139	6.04
498.49	5.96
498.842	5.93
499.193	6.02
499.544	5.93
499.894	5.98
500.245	6.05
500.596	5.99
500.947	5.98
501.298	6.13
501.648	6.03
501.999	6.08
502.35	6.08
502.7	6.08
503.051	6.08
503.401	6.06
503.752	6.15
504.102	6.08
504.452	6.08
504.803	6.08
505.153	6.13
505.503	6.03
505.853	6.07
506.203	6.25
506.553	6.15
506.903	6.24
507.253	6.18
507.603	6.2
507.953	6.24
508.303	6.1
508.652	6.24
509.002	6.15
509.352	6.13
509.701	6.12
510.051	6.09
510.4	6.22
510.75	6.16
511.099	6.19
511.449	6.23
511.798	6.13
512.147	6.14
512.496	6.05
512.846	6.26
513.195	6.18
513.544	6.21
513.893	6.17
514.242	6.07
514.591	6.17
514.939	6.21
515.288	6.23
515.637	6.24
515.986	6.23
516.334	6.23
516.683	6.25
517.032	6.24
517.38	6.34
517.729	6.1
518.077	6.37
518.426	6.12
518.774	6.22
519.122	6.25
519.47	6.18
519.819	6.24
520.167	6.19
520.515	6.18
520.863	6.17
521.211	6.27
521.559	6.18
521.907	6.29
522.255	6.23
522.602	6.33
522.95	6.25
523.298	6.3
523.645	6.16
523.993	6.35
524.341	6.33
524.688	6.29
525.036	6.36
525.383	6.47
525.73	6.44
526.078	6.31
526.425	6.22
526.772	6.26
527.119	6.31
527.466	6.25
527.814	6.18
528.161	6.19
528.508	6.26
528.854	6.28
529.201	6.27
529.548	6.21
529.895	6.14
530.242	6.2
530.588	6.19
530.935	6.13
531.282	6.12
531.628	6.13
531.975	6.21
532.321	6.26
532.667	6.23
533.014	6.28
533.36	6.4
533.706	6.35
534.052	6.37
534.399	6.27
534.745	6.32
535.091	6.24
535.437	6.24
535.783	6.21
536.129	6.3
536.474	6.36
536.82	6.36
537.166	6.4
537.512	6.37
537.857	6.51
538.203	6.43
538.549	6.48
538.894	6.42
539.239	6.44
539.585	6.4
539.93	6.51
540.276	6.49
540.621	6.59
540.966	6.51
541.311	6.58
541.656	6.55
542.001	6.55
542.346	6.43
542.691	6.4
543.036	6.4
543.381	6.41
543.726	6.36
544.071	6.32
544.415	6.38
544.76	6.39
545.105	6.43
545.449	6.4
545.794	6.52
546.138	6.53
546.483	6.47
546.827	6.56
547.171	6.61
547.516	6.57
547.86	6.62
548.204	6.52
548.548	6.61
548.892	6.59
549.236	6.54
549.58	6.55
549.924	6.58
550.268	6.6
550.612	6.7
550.956	6.65
551.3	6.68
551.643	6.69
551.987	6.57
552.33	6.84
552.674	6.81
553.017	6.89
553.361	6.78
553.704	6.8
554.048	6.77
554.391	6.69
554.734	6.75
555.077	6.69
555.42	6.83
555.764	6.78
556.107	6.67
556.45	6.74
556.793	7.09
557.135	6.99
557.478	6.94
557.821	6.81
558.164	6.91
558.507	6.9
558.849	6.84
559.192	6.94
559.534	6.96
559.877	7
560.219	6.74
560.562	6.96
560.904	6.96
561.246	6.84
561.589	6.98
561.931	6.92
562.273	7.09
562.615	6.85
562.957	6.86
563.299	7.03
563.641	7.03
563.983	6.95
564.325	6.85
564.667	6.88
565.008	6.9
565.35	7.07
565.692	7.03
566.033	7.26
566.375	7.01
566.716	6.94
567.058	6.95
567.399	7.16
567.741	7.08
568.082	7.09
568.423	6.95
568.764	6.92
569.105	7.05
569.447	7.12
569.788	7.27
570.129	7.08
570.47	7.17
570.811	7.06
571.151	6.94
571.492	7.17
571.833	6.82
572.174	6.99
572.514	7.13
572.855	7.08
573.195	6.92
573.536	7.04
573.876	7.03
574.217	7.04
574.557	6.94
574.898	7.28
575.238	7.15
575.578	7.03
575.918	7
576.258	7.23
576.598	7.16
576.938	7.09
577.278	7.09
577.618	7.18
577.958	7.12
578.298	7.23
578.638	7.15
578.977	7.2
579.317	7.32
579.657	7.3
579.996	7.2
580.336	7.43
580.675	7.26
581.014	7.27
581.354	7.48
581.693	7.38
582.032	7.29
582.372	7.21
582.711	7.42
583.05	7.22
583.389	7.39
583.728	7.36
584.067	7.53
584.406	7.31
584.745	7.57
585.083	7.34
585.422	7.3
585.761	7.41
586.1	7.37
586.438	7.2
586.777	7.25
587.115	7.77
587.454	7.54
587.792	7.56
588.13	7.63
588.469	7.42
588.807	7.47
589.145	7.57
589.483	7.36
589.821	7.55
590.159	7.35
590.497	7.36
590.835	7.54
591.173	7.3
591.511	7.66
591.849	7.47
592.187	7.42
592.524	7.32
592.862	7.41
593.2	7.37
593.537	7.26
593.875	7.57
594.212	7.64
594.55	7.57
594.887	7.53
595.224	7.51
595.561	7.58
595.899	7.36
596.236	7.5
596.573	7.6
596.91	7.51
597.247	7.49
597.584	7.47
597.921	7.37
598.258	7.54
598.594	7.53
598.931	7.43
599.268	7.51
599.604	7.53
599.941	7.59
600.277	7.63
600.614	7.57
600.95	7.66
601.287	7.45
601.623	7.56
601.959	7.7
602.296	7.88
602.632	7.67
602.968	7.6
603.304	7.51
603.64	7.79
603.976	8
604.312	7.76
604.648	7.71
604.984	7.74
605.319	7.69
605.655	7.5
605.991	7.81
606.326	7.65
606.662	7.7
606.998	7.72
607.333	7.68
607.668	7.61
608.004	7.82
608.339	7.64
608.674	7.64
609.01	7.66
609.345	7.84
609.68	7.59
610.015	7.68
610.35	7.95
610.685	7.69
611.02	7.65
611.355	7.66
611.689	7.77
612.024	7.58
612.359	7.62
612.694	7.86
613.028	7.84
613.363	7.74
613.697	7.62
614.032	7.77
614.366	7.95
614.7	7.63
615.035	7.73
615.369	7.73
615.703	7.74
616.037	7.86
616.371	7.73
616.705	8.09
617.039	8.05
617.373	8.05
617.707	8.08
618.041	8.14
618.375	7.91
618.709	7.73
619.042	8
619.376	8.03
619.71	7.81
620.043	7.91
620.377	7.85
620.71	8.06
621.043	7.91
621.377	7.93
621.71	7.7
622.043	8
622.376	8.06
622.709	8
623.043	8.17
623.376	7.95
623.709	7.87
624.041	7.96
624.374	8.31
624.707	8.2
625.04	7.77
625.373	8.12
625.705	8.06
626.038	8.1
626.37	7.83
626.703	8.32
627.035	8.14
627.368	7.89
627.7	8.18
628.032	8.06
628.365	8.03
628.697	8.03
629.029	8.02
629.361	8.08
629.693	8.14
630.025	8.36
630.357	8.22
630.689	8.32
631.021	8.19
631.353	8.42
631.684	8.09
632.016	8.29
632.348	8.01
632.679	8.16
633.011	8.19
633.342	8.5
633.674	8.11
634.005	7.69
634.336	8.16
634.668	8.23
634.999	8.43
635.33	8.05
635.661	8.25
635.992	8.41
636.323	8.29
636.654	8.28
636.985	8.33
637.316	8.26
637.647	8.56
637.977	8.28
638.308	8.34
638.639	8.15
638.969	8.25
639.3	8.72
639.63	8.37
639.961	8.37
640.291	8.76
640.622	8.16
640.952	8.63
641.282	8.46
641.612	8.68
641.943	8.54
642.273	8.32
642.603	8.44
642.933	8.3
643.263	8.41
643.592	8.52
643.922	8.71
644.252	8.53
644.582	8.59
644.911	8.29
645.241	8.44
645.571	8.83
645.9	8.49
646.23	8.83
646.559	8.6
646.888	8.68
647.218	8.89
647.547	9.05
647.876	8.35
648.205	8.83
648.534	8.34
648.863	8.32
649.192	8.77
649.521	8.52
649.85	8.6
650.179	8.74
650.508	8.82
650.837	8.3
651.165	8.48
651.494	8.51
651.822	8.38
652.151	9.1
652.479	8.42
652.808	8.92
653.136	8.81
653.465	8.7
653.793	8.83
654.121	8.71
654.449	8.5
654.777	8.44
655.105	8.65
655.433	8.78
655.761	8.73
656.089	8.4
656.417	8.76
656.745	8.75
657.073	8.43
657.4	8.94
657.728	8.91
658.056	8.66
658.383	7.98
658.711	8.39
659.038	8.96
659.365	9.11
659.693	8.88
660.02	8.99
660.347	9.08
660.674	8.71
661.001	8.87
661.329	8.96
661.656	8.75
661.982	8.91
662.309	8.83
662.636	8.91
662.963	8.77
663.29	8.83
663.616	8.88
663.943	9.05
664.27	8.84
664.596	8.85
664.923	8.11
665.249	8.42
665.576	8.74
665.902	9.15
666.228	8.87
666.554	9.2
666.881	9.04
667.207	8.59
667.533	9.22
667.859	8.55
668.185	8.02
668.511	8.36
668.837	9.08
669.162	9.05
669.488	8.86
669.814	9.1
670.139	8.91
670.465	8.89
670.791	8.92
671.116	8.8
671.442	9.1
671.767	9.35
672.092	8.53
672.418	9.4
672.743	8.71
673.068	9.4
673.393	9.11
673.718	8.96
674.043	8.85
674.368	9.23
674.693	9.53
675.018	9.26
675.343	9.15
675.667	9.36
675.992	8.9
676.317	8.79
676.641	8.79
676.966	8.95
677.29	9.63
677.615	8.75
677.939	9.66
678.264	9.62
678.588	9.27
678.912	9.66
679.236	9.14
679.56	8.55
679.885	8.95
680.209	9.06
680.532	8.96
680.856	9.39
681.18	9.29
681.504	9.08
681.828	9.35
682.152	8.87
682.475	9.46
682.799	9.38
683.122	9.39
683.446	10.08
683.769	9.94
684.093	9.42
684.416	9.79
684.739	9.66
685.062	9.37
685.386	8.69
685.709	9.49
686.032	9.52
686.355	9.24
686.678	9.87
687.001	9.07
687.324	9.36
687.646	9.73
687.969	9.6
688.292	8.84
688.614	9.33
688.937	9.5
689.26	9.17
689.582	9.65
689.904	8.79
690.227	9.56
690.549	9.72
690.871	9.31
691.194	9.37
691.516	9
691.838	8.41
692.16	9.01
692.482	9.44
692.804	8.99
693.126	8.99
693.448	9.1
693.769	9.43
694.091	9.98
694.413	9.52
694.735	10.14
695.056	8.94
695.378	9.57
695.699	9.47
696.021	10.33
696.342	10.1
696.663	9.71
696.984	9.68
697.306	10.14
697.627	9.88
697.948	10.24
698.269	9.75
698.59	9.91
698.911	10.12
699.232	9.87
699.553	10.27
699.873	9.71
700.194	9.47
700.515	10.53
700.835	9.76
701.156	10.09
701.477	9.86
701.797	9.94
702.117	9.72
702.438	9.93
702.758	10.16
703.078	9.57
703.398	9.41
703.719	9.45
704.039	10.44
704.359	10.27
704.679	9.24
704.999	9.52
705.319	10.84
705.638	10.2
705.958	10.42
706.278	10.51
706.597	9.48
706.917	10.5
707.237	10.09
707.556	8.53
707.876	9.95
708.195	10.54
708.514	9.79
708.834	9.9
709.153	9.34
709.472	10.31
709.791	10.39
710.11	9.18
710.429	10.26
710.748	10.17
711.067	10.81
711.386	9.88
711.705	9.69
712.023	9.78
712.342	9.71
712.661	10.72
712.979	10.47
713.298	10.89
713.616	9.6
713.935	11.44
714.253	9.17
714.572	10.17
714.89	9.35
715.208	10.29
715.526	10.48
715.844	10.04
716.162	10.59
716.48	10.47
716.798	10.17
717.116	9.98
717.434	10.11
717.752	10.05
718.069	10.04
718.387	10.34
718.705	10.29
719.022	10.63
719.34	10.42
719.657	10.38
719.975	10.38
720.292	10.26
720.609	10.62
720.927	10.75
721.244	11.15
721.561	10.32
721.878	9.91
722.195	10.56
722.512	9.87
722.829	10.41
723.146	10.22
723.463	10.94
723.779	9.52
724.096	10.02
724.413	9.99
724.729	10.02
725.046	9.15
725.362	10.58
725.679	10.15
725.995	9.75
726.311	9.92
726.628	8.94
726.944	10.6
727.26	9.79
727.576	11.62
727.892	10.86
728.208	9.91
728.524	9.77
728.84	10.69
729.156	10.04
729.472	11.8
729.787	10.46
730.103	9.81
730.419	11.09
730.734	10.6
731.05	10.6
731.365	9.88
731.681	10.33
731.996	10.44
732.311	10.43
732.626	8.84
732.942	10.7
733.257	11.02
733.572	9.9
733.887	10.1
734.202	10.95
734.517	11.24
734.832	11.32
735.146	10.81
735.461	10.47
735.776	11.03
736.091	10.47
736.405	10.05
736.72	10.25
737.034	11.92
737.349	9.61
737.663	11.2
737.977	9.91
738.292	12.24
738.606	11.79
738.92	10.6
739.234	11.82
739.548	11.06
739.862	10.51
740.176	10.86
740.49	10.14
740.804	10.62
741.117	9.57
741.431	11.8
741.745	11.27
742.058	11.94
742.372	10.35
742.685	10.65
742.999	9.73
743.312	9.65
743.626	9.02
743.939	11.54
744.252	10.18
744.565	10.28
744.878	10.98
745.191	9.05
745.505	10.46
745.817	9.38
746.13	10.14
746.443	11.99
746.756	9.92
747.069	11.16
747.381	11.06
747.694	9.66
748.007	10.63
748.319	9.78
748.632	10.1
748.944	10.83
749.256	11.24
749.569	11.03
749.881	10.3
750.193	9.8
750.505	9.97
750.817	10.87
751.129	11.71
751.441	10.57
751.753	10.7
752.065	10.69
752.377	10.66
752.689	11.59
753	10.47
753.312	9.64
753.624	11.61
753.935	10.56
754.247	9.99
754.558	10.79
754.869	11.59
755.181	10.51
755.492	10.8
755.803	12.22
756.114	9.66
756.425	9.93
756.736	11.12
757.047	12.46
757.358	11.52
757.669	11.79
757.98	10.69
758.291	11
758.601	11.28
758.912	11.08
759.223	11.22
759.533	11.57
759.844	10.86
760.154	10.96
760.464	9.79
760.775	11.19
761.085	11.23
761.395	12.01
761.705	12.03
762.016	10.52
762.326	10.89
762.636	11.2
762.945	11
763.255	11.87
763.565	10.28
763.875	10.36
764.185	11.05
764.494	9.17
764.804	9.72
765.113	9.76
765.423	11.75
765.732	11.65
766.042	11.06
766.351	11.12
766.66	11.62
766.97	11.19
767.279	10.73
767.588	11.62
767.897	12.01
768.206	10.34
768.515	11.43
768.824	11.34
769.133	11.74
769.441	11.88
769.75	10.79
770.059	9.59
770.367	10.98
770.676	12.13
770.984	11.06
771.293	10.77
771.601	10.69
771.91	9.75
772.218	10.48
772.526	13.15
772.834	12.08
773.142	13.27
773.45	10.95
773.758	13.29
774.066	10.28
774.374	7.22
774.682	12.11
774.99	10.43
775.298	11.94
775.605	11.38
775.913	12.99
776.22	11.83
776.528	11.16
776.835	12.3
777.143	8.48
777.45	10.32
777.757	8.42
778.065	11.72
778.372	9.13
778.679	10.3
778.986	12.81
779.293	10.28
779.6	14.14
779.907	9.19
780.214	14.3
780.52	12.97
780.827	13.31
781.134	15.6
781.44	11.9
781.747	8.65
782.053	9.32
782.36	11.54
782.666	8.64
782.973	8.15
783.279	9.35
783.585	12.62
783.891	8.66
784.197	12.71
784.503	10.53
784.809	12.76
785.115	12.66
785.421	8.86
785.727	10.79
786.033	9.47
786.339	9.55
786.644	11.42
786.95	12.11
787.255	13.27
787.561	10.38
787.866	10.29
788.172	11.97
788.477	7.82
788.782	8.27
789.088	9.76
789.393	15.43
789.698	9.47
790.003	11.36
790.308	12.42
790.613	13.24
790.918	13.31
791.223	12.14
791.527	11.65
791.832	15.09
792.137	13.06
792.441	11.92
792.746	10.01
793.05	12.79
793.355	7.95
793.659	11.66
793.963	11.21
794.268	11.82
794.572	10.75
794.876	9.61
795.18	13.3
795.484	9.08
795.788	11.61
796.092	12.54
796.396	6.69
796.7	11.34
797.004	11.45
797.307	8.46
797.611	11.52
797.915	9.91
798.218	9.24
798.522	12.87
798.825	11.95
799.128	8.29
799.432	13.29
799.735	11.36
800.038	2.33
800.341	12.35
800.644	11.75
800.947	11.93
801.25	9.78
801.553	11.75
801.856	10.44
802.159	11.31
802.462	12.26
802.764	11.69
803.067	16
803.37	13.2
803.672	9.13
803.975	13.83
804.277	12.1
804.579	13.04
804.882	14.48
805.184	12.8
805.486	11.3
805.788	10.42
806.09	15.91
806.392	13.22
806.694	12.41
806.996	9.39
807.298	8.38
807.6	10.77
807.902	12.69
808.203	14.77
808.505	10.4
808.807	11.54
809.108	9.13
809.409	11.96
809.711	9.68
810.012	8.24
810.313	15.68
810.615	12.26
810.916	11.52
811.217	10.26
811.518	7.25
811.819	13.13
812.12	12.87
812.421	9.77
812.722	10.01
813.023	5.58
813.323	11.11
813.624	8.54
813.925	9.14
814.225	8.21
814.526	7.2
814.826	8.88
815.126	10.75
815.427	13.75
815.727	10.1
816.027	7.26
816.327	10.06
816.627	10.47
816.927	14.86
817.227	10.73
817.527	11.03
817.827	13.33
818.127	13.47
818.427	17.27
818.727	17.55
819.026	9.06
819.326	8.82
819.625	17.8
819.925	13.27
820.224	13.03
820.524	13.55
820.823	13.15
821.122	13.73
821.421	7.46
821.72	9.47
822.019	13.58
822.318	14.17
822.617	15.93
822.916	16.1
823.215	13.4
823.514	11.31
823.813	14.96
824.111	14.1
824.41	11.82
824.709	13.85
825.007	14.26
825.306	12.28
825.604	13.67
825.902	13.41
826.201	13.26
826.499	13.01
826.797	12.24
827.095	12.68
827.393	15.19
827.691	12.81
827.989	10.86
828.287	11.91
828.585	13.39
828.882	13.8
829.18	13.51
829.478	13.2
829.775	13.36
830.073	13.58
830.37	12.63
830.668	13.85
830.965	12.47
831.263	11.95
831.56	10.18
831.857	12.71
832.154	12.42
832.451	12.1
832.748	12.24
833.045	12.94
833.342	15.08
833.639	11.09
833.936	11.4
834.232	9.76
834.529	14.34
834.826	7.7
835.122	13.85
835.419	12.98
835.715	12.28
836.012	10.11
836.308	12.03
836.604	10.15
836.901	9.39
837.197	10.46
837.493	11.09
837.789	11.45
838.085	15.01
838.381	5.18
838.677	12.26
838.972	12.73
839.268	15.22
839.564	10.94
839.86	1.99
840.155	11.06
840.451	12.68
840.746	16.16
841.042	6.59
841.337	9.43
841.632	14.6
841.928	17.16
842.223	16.01
842.518	11.36
842.813	8.73
843.108	10.27
843.403	9.74
843.698	3.68
843.993	15.33
844.287	12.23
844.582	20.2
844.877	6.62
845.171	14.93
845.466	-2.27
845.761	28.72
846.055	10.13
846.349	15.32
846.644	3.49
846.938	9.64
847.232	13.9
847.526	22.58
847.82	17.09
848.114	-13.77
848.408	14.43
848.702	6.03
848.996	17.28
849.29	16.32
849.584	8.39
849.877	14.82
850.171	16.1
850.465	13.87
850.758	28.37
851.052	5.9
851.345	-2.67
851.638	0.86
851.932	22.25
852.225	16.56
852.518	2.75
852.811	21.33
853.104	5.29
853.397	-4.5
853.69	15.89
853.983	7.4
854.276	20.18
854.569	5.26
854.861	-3.74
855.154	-2.98
855.447	16.4
855.739	0.63
856.032	22.9
856.324	-6.03
856.616	-6.02
856.909	12.26
857.201	-11.64
857.493	7.02
857.785	15.31
858.077	-7.61
858.369	4
858.661	28.95
858.953	2.75
859.245	1.6
859.537	1.65
859.829	9.16
860.12	9.44
860.412	17.74
860.703	-13
860.995	0.99
861.286	2.41
861.578	16.34
861.869	16.21
862.16	31.1
862.452	14.51
862.743	23.26
863.034	22.62
863.325	-14.06
863.616	3.75
863.907	-14.33
864.198	1.5
864.488	-4.6
864.779	-3.06
865.07	-0.76
865.36	-10.04
865.651	26.9
865.941	5.89
866.232	22.21
866.522	26.04
866.813	1.78
867.103	-5.71
867.393	26.17
867.683	-5.71
867.973	23.32
868.263	-0.9
868.553	13.67
868.843	0.31
869.133	-14.41
869.423	11.33
869.713	7.55
870.002	15.61
870.292	19.6
870.582	25.51
870.871	-5.83
871.161	13.65
871.45	23.37
871.739	0.49
872.029	4.77
872.318	10.76
872.607	-22.59
872.896	6.08
873.185	29.33
873.474	-7
873.763	11.67
874.052	17.82
874.341	0.26
874.63	11.57
874.918	28.16
875.207	-11.12
875.496	8.45
875.784	41.7
876.073	11.85
876.361	11.52
876.649	-10.29
876.938	3.77
877.226	4.87
877.514	31.22
877.802	11.05
878.09	23.4
878.378	7.44
878.666	7.11
878.954	5.02
879.242	22.94
879.53	5
879.817	11.97
880.105	-47.62
880.392	5.38
880.68	-6.49
880.967	10.25
881.255	-3.08
881.542	8.3
881.83	-11.85
882.117	28.92
882.404	-7.89
882.691	5.18
882.978	-2.62
883.265	6.6
883.552	-3.98
883.839	3.31
884.126	4.35
884.413	18.52
884.699	10.57
884.986	20.18
885.273	15.99
885.559	15.99
885.846	15.99
