Data from 0206_forehead_Reflection__3__322.txt Node

Date: Fri Dec 15 19:37:07 CST 2023
User: ToomeyLab
Spectrometer: FLMS14357
Trigger mode: 0
Integration Time (sec): 1.000000E-2
Scans to average: 100
Electric dark correction enabled: true
Nonlinearity correction enabled: false
Boxcar width: 0
XAxis mode: Wavelengths
Number of Pixels in Spectrum: 2048
>>>>>Begin Spectral Data<<<<<
189.047	148.71
189.435	148.71
189.823	148.71
190.211	127.83
190.599	783.7
190.987	69.67
191.375	116.71
191.763	121.99
192.151	1020.56
192.538	158.07
192.926	-10.96
193.314	265.08
193.702	54.71
194.089	230.03
194.477	112.19
194.864	-293.02
195.252	66.19
195.639	154.95
196.027	1482.45
196.414	313.27
196.801	87.56
197.189	222.25
197.576	-128.19
197.963	-160.44
198.351	-23.88
198.738	-107.03
199.125	24.35
199.512	-35.26
199.899	49.04
200.286	-8.4
200.673	-6.46
201.06	-9.6
201.447	18.34
201.833	8.47
202.22	25.62
202.607	14.53
202.994	40.19
203.38	28.36
203.767	-18.06
204.154	2.32
204.54	43.3
204.927	-92.31
205.313	-17.02
205.699	35.66
206.086	44.07
206.472	53.85
206.858	46.58
207.245	30.8
207.631	-4.04
208.017	33.48
208.403	14.38
208.789	7.82
209.175	11.9
209.561	-50.69
209.947	18.51
210.333	-131.89
210.719	38.94
211.105	13.64
211.491	-41.11
211.876	23.73
212.262	36.16
212.648	10.51
213.034	-7.9
213.419	-38.06
213.805	-4.67
214.19	-38.44
214.576	-13.99
214.961	-2.8
215.346	-68.51
215.732	5.07
216.117	-5.36
216.502	-51.29
216.888	18.74
217.273	7.94
217.658	15.69
218.043	11.69
218.428	-38.34
218.813	-22.85
219.198	-34.01
219.583	0.06
219.968	-2.64
220.353	-30.52
220.738	11.34
221.122	-18.54
221.507	-21.29
221.892	-48.27
222.276	5.48
222.661	10.72
223.046	31.5
223.43	-0.82
223.815	6.31
224.199	-17.52
224.583	1.52
224.968	8.16
225.352	5.8
225.736	-9.8
226.121	9.57
226.505	9.55
226.889	14.52
227.273	-3.85
227.657	8.09
228.041	4.47
228.425	3.42
228.809	5.73
229.193	3.95
229.577	1.72
229.961	3.85
230.344	2.33
230.728	3.99
231.112	4.31
231.495	3.65
231.879	4.11
232.263	5.29
232.646	2.87
233.03	4.25
233.413	1.9
233.797	4.76
234.18	3.78
234.563	4.68
234.946	2.6
235.33	5.34
235.713	6.02
236.096	3.9
236.479	5.3
236.862	1.66
237.245	4.86
237.628	2.59
238.011	4.33
238.394	5.98
238.777	2.35
239.16	1.59
239.543	3.69
239.925	5.78
240.308	2.99
240.691	4.77
241.073	5.81
241.456	3.05
241.838	4.34
242.221	2.52
242.603	4.07
242.986	5.44
243.368	4.94
243.75	4.45
244.133	3.39
244.515	4.28
244.897	4.13
245.279	4.32
245.661	3.31
246.043	1.82
246.425	3.12
246.807	4.12
247.189	3.9
247.571	2.85
247.953	3.85
248.335	3.75
248.717	3.8
249.098	3.65
249.48	3.63
249.862	3.86
250.243	3.73
250.625	4.06
251.006	4.15
251.388	2.45
251.769	3.77
252.151	5.14
252.532	3.28
252.913	2.98
253.295	3.59
253.676	3.96
254.057	3.84
254.438	3.84
254.819	3.17
255.2	3.57
255.581	3.26
255.962	3.91
256.343	3.38
256.724	3.84
257.105	4.01
257.486	4.58
257.867	4.69
258.247	4.25
258.628	3.46
259.009	3.32
259.389	3.73
259.77	2.96
260.15	3.06
260.531	3.59
260.911	4.17
261.292	3.83
261.672	4.06
262.052	3.65
262.432	3.88
262.813	3.95
263.193	3.81
263.573	3.93
263.953	3.32
264.333	4.25
264.713	4.74
265.093	2.83
265.473	3.82
265.853	3.96
266.233	3.67
266.612	1.88
266.992	3.56
267.372	3.51
267.752	4.02
268.131	3.05
268.511	4.34
268.89	4.23
269.27	3.66
269.649	3.14
270.029	3.56
270.408	4.7
270.787	3.94
271.167	4.28
271.546	4.32
271.925	3.1
272.304	3.03
272.683	4.06
273.062	3.63
273.441	3.95
273.82	2.95
274.199	3.45
274.578	3.55
274.957	3.18
275.336	3.82
275.715	3.43
276.093	3.52
276.472	3.35
276.851	2.69
277.229	3.18
277.608	2.42
277.986	3.15
278.365	3.53
278.743	3.56
279.122	3.52
279.5	4
279.878	3.65
280.257	3.5
280.635	3.32
281.013	3.49
281.391	3.87
281.769	3.74
282.147	4.49
282.525	4.02
282.903	3.7
283.281	4.07
283.659	3.58
284.037	3.66
284.415	3.75
284.792	3.46
285.17	3.26
285.548	3.55
285.925	3.05
286.303	3.27
286.68	3.14
287.058	3.46
287.435	3.72
287.813	3.57
288.19	3.43
288.567	3.3
288.945	3.75
289.322	3.86
289.699	3.93
290.076	3.48
290.453	3.5
290.83	3.57
291.207	3.53
291.584	3.59
291.961	3.44
292.338	3.72
292.715	3.91
293.092	3.36
293.469	3.58
293.845	3.62
294.222	3.21
294.599	3.54
294.975	3.55
295.352	4.16
295.728	3.27
296.105	3.65
296.481	3.98
296.858	4.28
297.234	3.59
297.61	3.31
297.986	3.87
298.363	3.71
298.739	3.78
299.115	3.52
299.491	3.36
299.867	3.58
300.243	4.06
300.619	3.43
300.995	4.15
301.371	3.71
301.746	3.84
302.122	4.08
302.498	3.93
302.874	3.68
303.249	3.66
303.625	3.76
304	4.12
304.376	3.59
304.751	3.5
305.127	4.38
305.502	2.88
305.878	2.98
306.253	3.94
306.628	4.35
307.003	3.97
307.378	4.6
307.754	4.24
308.129	3.35
308.504	3.82
308.879	3.37
309.254	4.63
309.629	4.26
310.003	4.13
310.378	4.43
310.753	4.36
311.128	4.03
311.502	3.83
311.877	4.43
312.252	3.93
312.626	4.36
313.001	4.26
313.375	4.95
313.75	3.78
314.124	4.7
314.498	4.26
314.873	3.95
315.247	4.13
315.621	4.03
315.995	4.05
316.369	4.5
316.743	4.25
317.117	5.3
317.491	3.83
317.865	4.68
318.239	5.07
318.613	4.65
318.987	4.83
319.361	4.41
319.734	5.27
320.108	5.41
320.482	4.8
320.855	6.19
321.229	4.61
321.602	4.65
321.976	5.03
322.349	5.04
322.723	5.16
323.096	5.58
323.469	4.27
323.843	5.21
324.216	5.38
324.589	4.69
324.962	4.86
325.335	5.05
325.708	5.27
326.081	5.21
326.454	5.48
326.827	5.54
327.2	5.75
327.573	5.03
327.945	5.34
328.318	4.96
328.691	4.95
329.063	5.26
329.436	5.27
329.809	5.11
330.181	5.42
330.553	5.4
330.926	5.61
331.298	5.58
331.671	5.06
332.043	6.42
332.415	5.58
332.787	5.45
333.159	5.77
333.532	5.19
333.904	5.55
334.276	5.62
334.648	5.54
335.02	5.1
335.391	5.62
335.763	5.35
336.135	5.41
336.507	6.35
336.879	5.2
337.25	5.59
337.622	5.48
337.993	5.66
338.365	5.61
338.736	6.05
339.108	5.98
339.479	5.96
339.851	5.57
340.222	5.4
340.593	5.82
340.964	5.58
341.336	6.27
341.707	5.82
342.078	6.18
342.449	6.31
342.82	5.68
343.191	5.96
343.562	6.2
343.933	5.95
344.303	5.73
344.674	6.06
345.045	6.22
345.416	6.17
345.786	5.65
346.157	6.57
346.527	5.8
346.898	5.77
347.268	6.5
347.639	6.25
348.009	5.95
348.38	6.12
348.75	6.27
349.12	6.04
349.49	7.01
349.861	6.48
350.231	5.87
350.601	6.49
350.971	6.42
351.341	6.29
351.711	6.19
352.081	6.98
352.45	6.02
352.82	6.81
353.19	6.3
353.56	6.2
353.929	6.3
354.299	6.54
354.669	6.64
355.038	7.03
355.408	6.52
355.777	6.09
356.147	6.35
356.516	6.24
356.885	6.89
357.254	6.69
357.624	6.96
357.993	6.52
358.362	6.5
358.731	6.42
359.1	7.09
359.469	6.78
359.838	6.87
360.207	6.55
360.576	6.23
360.945	6.67
361.314	7.25
361.682	6.48
362.051	6.77
362.42	6.92
362.788	7.03
363.157	6.72
363.525	7.01
363.894	7.02
364.262	7.03
364.631	6.94
364.999	7.05
365.367	6.65
365.735	7.51
366.104	6.95
366.472	7.11
366.84	7.1
367.208	7.07
367.576	7.4
367.944	7.13
368.312	7.09
368.68	7.01
369.048	6.99
369.416	6.92
369.783	7.22
370.151	7.66
370.519	7.8
370.886	7.62
371.254	7.29
371.621	7.46
371.989	7.84
372.356	6.68
372.724	7.72
373.091	7.31
373.458	7.38
373.826	7.48
374.193	7.6
374.56	7.9
374.927	7.72
375.294	7.65
375.661	7.51
376.028	7.54
376.395	7.39
376.762	7.5
377.129	7.76
377.496	7.99
377.863	7.69
378.229	7.48
378.596	7.95
378.963	7.88
379.329	7.58
379.696	7.94
380.062	8.05
380.429	8.06
380.795	7.5
381.161	8.24
381.528	8.27
381.894	8.03
382.26	7.95
382.626	8.14
382.993	7.88
383.359	8.36
383.725	7.83
384.091	8.11
384.457	8.45
384.823	8
385.188	8.54
385.554	8.13
385.92	8.32
386.286	8.64
386.651	8.44
387.017	8.55
387.383	8.45
387.748	8.27
388.114	8.94
388.479	8.37
388.845	8.66
389.21	8.66
389.575	8.03
389.94	8.81
390.306	8.79
390.671	8.91
391.036	8.36
391.401	8.47
391.766	8.55
392.131	8.52
392.496	8.72
392.861	8.73
393.226	9.06
393.591	8.74
393.956	8.74
394.32	8.81
394.685	8.74
395.05	8.85
395.414	8.99
395.779	8.92
396.143	8.6
396.508	8.95
396.872	8.92
397.236	9.17
397.601	8.77
397.965	9.12
398.329	9.39
398.694	9
399.058	9.3
399.422	9.15
399.786	9.32
400.15	9.48
400.514	9.48
400.878	9.4
401.242	9.63
401.605	9.27
401.969	9.45
402.333	9.46
402.697	9.27
403.06	9.33
403.424	9.5
403.787	9.24
404.151	9.46
404.514	9.54
404.878	9.41
405.241	9.75
405.604	9.7
405.968	9.61
406.331	9.77
406.694	9.74
407.057	9.79
407.42	9.83
407.783	9.37
408.146	9.76
408.509	9.54
408.872	9.77
409.235	9.97
409.598	10.07
409.961	9.98
410.323	10.22
410.686	9.92
411.049	9.73
411.411	10.01
411.774	9.93
412.136	9.97
412.499	10.05
412.861	10.09
413.223	10.08
413.586	10.3
413.948	10.36
414.31	10.22
414.672	9.82
415.035	10.05
415.397	10.52
415.759	10.17
416.121	10.58
416.483	10.2
416.845	10.38
417.206	10.24
417.568	10.47
417.93	10.35
418.292	10.5
418.653	10.57
419.015	10.43
419.377	10.38
419.738	10.59
420.1	10.49
420.461	10.51
420.822	10.5
421.184	10.47
421.545	10.54
421.906	10.51
422.267	10.46
422.629	10.48
422.99	10.52
423.351	10.49
423.712	10.64
424.073	10.59
424.434	10.68
424.795	10.61
425.155	10.65
425.516	10.64
425.877	10.71
426.238	10.75
426.598	10.71
426.959	10.88
427.32	10.98
427.68	11
428.041	10.81
428.401	11.04
428.761	11.09
429.122	11.12
429.482	11.23
429.842	11.22
430.202	11.65
430.563	11.51
430.923	11.37
431.283	11.46
431.643	11.36
432.003	11.27
432.363	11.63
432.722	11.45
433.082	11.58
433.442	11.46
433.802	11.54
434.161	11.62
434.521	11.68
434.881	11.76
435.24	11.55
435.6	11.7
435.959	11.69
436.319	11.8
436.678	11.78
437.037	11.95
437.396	11.73
437.756	11.97
438.115	11.79
438.474	12.2
438.833	11.68
439.192	11.95
439.551	12.29
439.91	12.18
440.269	12.22
440.628	11.82
440.987	12.08
441.345	12.01
441.704	12.09
442.063	11.97
442.421	12.19
442.78	12.26
443.138	12.09
443.497	12.25
443.855	12.28
444.214	12.27
444.572	12.55
444.93	12.48
445.288	12.44
445.647	12.66
446.005	12.38
446.363	12.46
446.721	12.52
447.079	12.39
447.437	12.54
447.795	12.68
448.153	12.38
448.51	12.46
448.868	12.48
449.226	12.43
449.584	12.52
449.941	12.68
450.299	12.74
450.656	12.72
451.014	12.87
451.371	12.88
451.729	12.92
452.086	13.21
452.443	13.3
452.801	13.21
453.158	13.04
453.515	13.04
453.872	13.21
454.229	13.14
454.586	13.17
454.943	13.19
455.3	13.32
455.657	13.23
456.014	13.41
456.371	13.33
456.727	13.5
457.084	13.56
457.441	13.55
457.797	13.58
458.154	13.6
458.51	13.77
458.867	13.66
459.223	13.88
459.58	13.75
459.936	13.77
460.292	13.77
460.648	13.78
461.005	13.62
461.361	13.65
461.717	13.58
462.073	13.57
462.429	13.79
462.785	13.81
463.141	13.72
463.496	14.11
463.852	14.06
464.208	14.08
464.564	14.3
464.919	14.16
465.275	14.15
465.631	14.55
465.986	14.37
466.342	14.24
466.697	14.27
467.052	14.42
467.408	14.33
467.763	14.35
468.118	14.47
468.473	14.48
468.829	14.57
469.184	14.59
469.539	14.62
469.894	14.37
470.249	14.83
470.603	14.72
470.958	14.82
471.313	14.9
471.668	14.8
472.023	15.06
472.377	14.94
472.732	14.99
473.086	14.96
473.441	14.79
473.795	15.15
474.15	15.24
474.504	15.01
474.859	15.19
475.213	15.09
475.567	15.07
475.921	15.15
476.275	15.29
476.63	15.3
476.984	15.2
477.338	15.6
477.692	15.23
478.045	15.39
478.399	15.38
478.753	15.37
479.107	15.41
479.461	15.53
479.814	15.72
480.168	15.77
480.521	15.5
480.875	15.64
481.228	15.62
481.582	15.87
481.935	15.68
482.289	15.68
482.642	15.81
482.995	15.71
483.348	15.62
483.701	15.75
484.055	15.76
484.408	15.87
484.761	15.54
485.114	15.44
485.466	15.19
485.819	15.06
486.172	15.07
486.525	15.26
486.878	15.3
487.23	15.56
487.583	15.72
487.936	15.82
488.288	15.89
488.641	15.88
488.993	15.66
489.345	15.55
489.698	15.6
490.05	15.62
490.402	15.85
490.754	15.92
491.107	16.04
491.459	16.22
491.811	16.38
492.163	16.55
492.515	16.43
492.866	16.43
493.218	16.13
493.57	16.08
493.922	16.13
494.274	16.25
494.625	16.59
494.977	16.63
495.328	16.9
495.68	16.99
496.031	17.14
496.383	17.26
496.734	17.31
497.086	17.29
497.437	17.43
497.788	17.47
498.139	17.36
498.49	17.24
498.842	17.1
499.193	17.23
499.544	17.36
499.894	17.37
500.245	17.48
500.596	17.52
500.947	17.62
501.298	17.72
501.648	17.73
501.999	17.8
502.35	17.8
502.7	17.89
503.051	17.82
503.401	17.98
503.752	18.11
504.102	18.24
504.452	18.16
504.803	18.26
505.153	18.11
505.503	18.1
505.853	18.12
506.203	18.2
506.553	18.17
506.903	18.2
507.253	18.52
507.603	18.29
507.953	18.36
508.303	18.52
508.652	18.45
509.002	18.56
509.352	18.82
509.701	18.65
510.051	18.31
510.4	18.65
510.75	18.58
511.099	18.57
511.449	18.69
511.798	18.69
512.147	18.71
512.496	18.67
512.846	18.84
513.195	18.88
513.544	18.85
513.893	18.98
514.242	18.83
514.591	19.08
514.939	19.1
515.288	19.15
515.637	19.25
515.986	19.26
516.334	19.32
516.683	19.45
517.032	19.53
517.38	19.56
517.729	19.54
518.077	19.58
518.426	19.67
518.774	19.49
519.122	19.54
519.47	19.35
519.819	19.33
520.167	19.39
520.515	19.33
520.863	19.29
521.211	19.44
521.559	19.51
521.907	19.68
522.255	19.65
522.602	19.68
522.95	19.79
523.298	20
523.645	20.13
523.993	20.12
524.341	20.11
524.688	20.17
525.036	20.12
525.383	20.3
525.73	20.33
526.078	20.28
526.425	20.17
526.772	20.25
527.119	20.16
527.466	19.99
527.814	19.85
528.161	20.05
528.508	20.11
528.854	20.11
529.201	20
529.548	19.93
529.895	19.8
530.242	19.56
530.588	19.47
530.935	19.58
531.282	19.71
531.628	19.75
531.975	20.03
532.321	20.2
532.667	20.29
533.014	20.51
533.36	20.71
533.706	20.72
534.052	20.85
534.399	20.52
534.745	20.47
535.091	20.36
535.437	20.41
535.783	20.5
536.129	20.64
536.474	20.73
536.82	21.01
537.166	21.08
537.512	21.3
537.857	21.31
538.203	21.27
538.549	21.12
538.894	21.11
539.239	21.24
539.585	21.34
539.93	21.47
540.276	21.65
540.621	21.71
540.966	21.9
541.311	21.76
541.656	21.85
542.001	21.78
542.346	21.67
542.691	21.31
543.036	21.26
543.381	20.99
543.726	21.1
544.071	21.31
544.415	21.49
544.76	21.53
545.105	21.53
545.449	21.75
545.794	21.96
546.138	21.9
546.483	22.22
546.827	22.26
547.171	22.35
547.516	22.23
547.86	22.13
548.204	22.29
548.548	22.36
548.892	22.34
549.236	22.54
549.58	22.49
549.924	22.5
550.268	22.93
550.612	22.91
550.956	23.11
551.3	23.31
551.643	23.32
551.987	23.07
552.33	23.39
552.674	23.43
553.017	23.3
553.361	23.51
553.704	23.57
554.048	23.19
554.391	23.39
554.734	23.24
555.077	23.33
555.42	23.61
555.764	23.36
556.107	23.43
556.45	23.42
556.793	23.52
557.135	23.68
557.478	23.98
557.821	24.03
558.164	23.9
558.507	23.9
558.849	24.13
559.192	24.09
559.534	24.15
559.877	24.19
560.219	24.21
560.562	24.44
560.904	24.23
561.246	24.46
561.589	24.56
561.931	24.52
562.273	24.45
562.615	24.43
562.957	24.51
563.299	24.46
563.641	24.3
563.983	24.62
564.325	24.44
564.667	24.62
565.008	24.75
565.35	24.89
565.692	24.65
566.033	24.7
566.375	24.92
566.716	24.96
567.058	24.8
567.399	24.68
567.741	24.64
568.082	24.72
568.423	24.65
568.764	24.57
569.105	24.88
569.447	25.01
569.788	25.05
570.129	25.18
570.47	25.13
570.811	25.35
571.151	25.17
571.492	25.38
571.833	25.37
572.174	25.38
572.514	25.69
572.855	25.37
573.195	25.37
573.536	25.17
573.876	25.06
574.217	25.13
574.557	25.33
574.898	25.63
575.238	25.56
575.578	25.63
575.918	25.66
576.258	25.7
576.598	25.74
576.938	25.58
577.278	25.72
577.618	25.74
577.958	26.02
578.298	25.87
578.638	26.03
578.977	25.96
579.317	25.93
579.657	25.99
579.996	26.35
580.336	26.26
580.675	26.32
581.014	26.42
581.354	26.48
581.693	26.62
582.032	26.54
582.372	26.58
582.711	26.82
583.05	26.96
583.389	27
583.728	26.57
584.067	27.23
584.406	26.89
584.745	26.79
585.083	27.05
585.422	27.07
585.761	27.24
586.1	26.97
586.438	26.92
586.777	27.41
587.115	27.42
587.454	27.24
587.792	27.36
588.13	27.23
588.469	27.17
588.807	27.55
589.145	27.15
589.483	27.26
589.821	27.22
590.159	27.66
590.497	27.52
590.835	27.62
591.173	27.31
591.511	27.73
591.849	27.54
592.187	27.57
592.524	27.58
592.862	27.87
593.2	27.6
593.537	27.94
593.875	27.68
594.212	27.97
594.55	28.21
594.887	27.93
595.224	27.97
595.561	28.15
595.899	27.85
596.236	28.03
596.573	28.01
596.91	27.73
597.247	27.95
597.584	28.4
597.921	28.18
598.258	28.15
598.594	28.03
598.931	27.97
599.268	28.33
599.604	28.21
599.941	28.42
600.277	28.2
600.614	28.6
600.95	28.25
601.287	28.47
601.623	28.5
601.959	28.53
602.296	28.45
602.632	28.72
602.968	28.66
603.304	28.65
603.64	29.18
603.976	29.01
604.312	28.69
604.648	28.83
604.984	28.64
605.319	28.95
605.655	28.53
605.991	28.78
606.326	28.81
606.662	28.57
606.998	28.52
607.333	28.8
607.668	28.96
608.004	29.03
608.339	29.38
608.674	29.21
609.01	29.16
609.345	28.96
609.68	29.45
610.015	29.28
610.35	29.08
610.685	29.4
611.02	29.46
611.355	29.31
611.689	29.19
612.024	29.15
612.359	29.35
612.694	29.12
613.028	29.53
613.363	29.75
613.697	29.82
614.032	29.94
614.366	29.89
614.7	29.94
615.035	29.72
615.369	29.79
615.703	29.91
616.037	30.19
616.371	29.49
616.705	29.91
617.039	30.16
617.373	30.14
617.707	30.1
618.041	30.2
618.375	30.06
618.709	30.49
619.042	30.29
619.376	30.12
619.71	30.02
620.043	30.81
620.377	30.69
620.71	30.74
621.043	30.18
621.377	30.89
621.71	30.51
622.043	30.63
622.376	30.47
622.709	30.77
623.043	31.05
623.376	30.8
623.709	30.51
624.041	31.13
624.374	30.53
624.707	30.98
625.04	30.94
625.373	31.06
625.705	30.56
626.038	30.7
626.37	31.01
626.703	30.85
627.035	31.03
627.368	31.06
627.7	31.15
628.032	31.19
628.365	30.85
628.697	30.96
629.029	30.9
629.361	30.85
629.693	30.92
630.025	30.73
630.357	31.69
630.689	31.56
631.021	31.41
631.353	31.12
631.684	30.74
632.016	30.85
632.348	31.79
632.679	31.17
633.011	31.64
633.342	31.78
633.674	31.67
634.005	31.92
634.336	31.6
634.668	31.94
634.999	31.43
635.33	31.89
635.661	32.06
635.992	31.74
636.323	32
636.654	31.95
636.985	31.87
637.316	32.22
637.647	31.74
637.977	32.25
638.308	32.27
638.639	31.65
638.969	32.22
639.3	31.91
639.63	31.98
639.961	32.06
640.291	32.28
640.622	32.5
640.952	31.84
641.282	32.05
641.612	32.53
641.943	32.3
642.273	32.81
642.603	32.43
642.933	32.9
643.263	33.05
643.592	32.24
643.922	32.71
644.252	32.63
644.582	32.54
644.911	32.43
645.241	32.63
645.571	32.31
645.9	33.06
646.23	32.54
646.559	32.08
646.888	32.99
647.218	32.83
647.547	33.22
647.876	33.28
648.205	33.13
648.534	33.1
648.863	32.8
649.192	33.14
649.521	32.9
649.85	33.27
650.179	33.42
650.508	33.17
650.837	33.1
651.165	33.6
651.494	33.7
651.822	33.34
652.151	33.74
652.479	33.54
652.808	33.11
653.136	33.28
653.465	33.56
653.793	33.15
654.121	33.39
654.449	33.87
654.777	33.76
655.105	33.99
655.433	33.26
655.761	33.89
656.089	34.7
656.417	34.9
656.745	33.96
657.073	34.09
657.4	34.93
657.728	33.76
658.056	34.04
658.383	34.19
658.711	34.22
659.038	34.22
659.365	34.5
659.693	34.29
660.02	34.48
660.347	34.22
660.674	34.71
661.001	34.2
661.329	34.03
661.656	34.62
661.982	34.89
662.309	34.65
662.636	34.58
662.963	35.45
663.29	34.97
663.616	35.31
663.943	34.19
664.27	34.82
664.596	34.48
664.923	35.33
665.249	35.81
665.576	35.7
665.902	36
666.228	34.65
666.554	35.78
666.881	35.46
667.207	35.55
667.533	35.26
667.859	35.11
668.185	35.41
668.511	35.23
668.837	35.34
669.162	35.88
669.488	34.76
669.814	35.79
670.139	35.89
670.465	35.85
670.791	36.08
671.116	36.3
671.442	35.68
671.767	35.25
672.092	36.31
672.418	36.29
672.743	36.25
673.068	35.83
673.393	35.56
673.718	35.24
674.043	36.42
674.368	36.09
674.693	36.84
675.018	35.57
675.343	36.14
675.667	36.07
675.992	36.74
676.317	37.33
676.641	36.81
676.966	36.53
677.29	36.43
677.615	36.95
677.939	36.98
678.264	36.99
678.588	36.61
678.912	36.83
679.236	36.45
679.56	36.08
679.885	37.52
680.209	36.41
680.532	36.58
680.856	37.73
681.18	36.21
681.504	36.61
681.828	37.17
682.152	36.88
682.475	36.82
682.799	36.84
683.122	37.18
683.446	37.11
683.769	37.69
684.093	37.45
684.416	37.72
684.739	37.14
685.062	36.96
685.386	37.41
685.709	37.63
686.032	37.52
686.355	38.4
686.678	37.51
687.001	38.05
687.324	37.54
687.646	37.56
687.969	37.46
688.292	38.11
688.614	38.43
688.937	38.05
689.26	37.85
689.582	38.5
689.904	37.31
690.227	38.33
690.549	38.15
690.871	38.17
691.194	38.47
691.516	38.8
691.838	37.47
692.16	38.16
692.482	37.98
692.804	37.82
693.126	38.92
693.448	38.18
693.769	38.9
694.091	38.38
694.413	38.56
694.735	37.65
695.056	38.11
695.378	38.44
695.699	38.49
696.021	37.3
696.342	38.51
696.663	38.94
696.984	38.93
697.306	37.61
697.627	38.87
697.948	38.19
698.269	38.97
698.59	38.9
698.911	38.78
699.232	37.88
699.553	38.33
699.873	39.47
700.194	39.13
700.515	39.46
700.835	38.75
701.156	38.99
701.477	38.45
701.797	38.77
702.117	38.6
702.438	39.48
702.758	38.9
703.078	39.4
703.398	39.12
703.719	38.7
704.039	38.91
704.359	39.59
704.679	39.65
704.999	38.56
705.319	38.91
705.638	39.38
705.958	38.66
706.278	38.89
706.597	38.97
706.917	39.33
707.237	40.2
707.556	39.38
707.876	39.06
708.195	39.19
708.514	38.61
708.834	39.24
709.153	40.01
709.472	39.6
709.791	39.75
710.11	40.31
710.429	40.6
710.748	39.84
711.067	39.53
711.386	39.18
711.705	39.83
712.023	40.08
712.342	39.8
712.661	39.52
712.979	39.31
713.298	40.01
713.616	40.5
713.935	40.33
714.253	39.77
714.572	41.27
714.89	39.85
715.208	39.75
715.526	39.56
715.844	39.95
716.162	40.74
716.48	40.51
716.798	40.74
717.116	40.77
717.434	40.84
717.752	39.7
718.069	40.23
718.387	40.89
718.705	40.65
719.022	39.41
719.34	40.16
719.657	39.31
719.975	41.06
720.292	41.24
720.609	39.71
720.927	40.48
721.244	40.49
721.561	41.28
721.878	41.12
722.195	40.36
722.512	40.92
722.829	40.83
723.146	40.09
723.463	42.04
723.779	40.75
724.096	42.05
724.413	40.68
724.729	40.65
725.046	40.8
725.362	40.9
725.679	40.87
725.995	39.7
726.311	40.81
726.628	41.31
726.944	42.43
727.26	42.47
727.576	43.65
727.892	41.09
728.208	42.06
728.524	41.69
728.84	40.4
729.156	41.09
729.472	42.04
729.787	40.75
730.103	41.61
730.419	41.34
730.734	41.53
731.05	41.38
731.365	40.24
731.681	42.03
731.996	42.35
732.311	42.79
732.626	42.67
732.942	40.8
733.257	41.69
733.572	42.23
733.887	40.58
734.202	42.54
734.517	42.2
734.832	42.51
735.146	41.9
735.461	41.45
735.776	42.63
736.091	40.87
736.405	41.98
736.72	39.56
737.034	42.03
737.349	44.16
737.663	41.52
737.977	42.68
738.292	40.81
738.606	43.22
738.92	42.9
739.234	42.56
739.548	40.49
739.862	42.28
740.176	43.48
740.49	42.47
740.804	43.11
741.117	43.46
741.431	40.13
741.745	41.91
742.058	42.19
742.372	42.24
742.685	42.79
742.999	42.15
743.312	40.53
743.626	43.48
743.939	43.16
744.252	43.7
744.565	40.49
744.878	43.19
745.191	41.35
745.505	43.37
745.817	43.84
746.13	43.07
746.443	43.56
746.756	42.99
747.069	43.74
747.381	44.07
747.694	41.21
748.007	43.22
748.319	43.04
748.632	43.83
748.944	43.19
749.256	40.96
749.569	42.38
749.881	42.81
750.193	43.63
750.505	43.43
750.817	44.26
751.129	43.23
751.441	43.19
751.753	44.68
752.065	44.92
752.377	42.96
752.689	43.84
753	45.14
753.312	43.66
753.624	42.83
753.935	45.52
754.247	44.18
754.558	44.12
754.869	45.17
755.181	44.42
755.492	44.4
755.803	43.12
756.114	44.71
756.425	41.47
756.736	43.6
757.047	43.92
757.358	43.28
757.669	42.97
757.98	42.33
758.291	42.42
758.601	42.63
758.912	44.73
759.223	45.04
759.533	43.46
759.844	42.99
760.154	42.53
760.464	44.67
760.775	43.37
761.085	41.65
761.395	44
761.705	43.82
762.016	42.92
762.326	44.44
762.636	44.76
762.945	41.79
763.255	43.69
763.565	43.56
763.875	44.57
764.185	44.18
764.494	45.09
764.804	46.03
765.113	44.59
765.423	43.37
765.732	43.73
766.042	43.96
766.351	44.36
766.66	45.28
766.97	46.84
767.279	42.31
767.588	44.1
767.897	45.65
768.206	41.92
768.515	42.56
768.824	45.4
769.133	43.51
769.441	43.9
769.75	43.7
770.059	44.83
770.367	44.44
770.676	43.64
770.984	45.78
771.293	45.04
771.601	47.35
771.91	43.21
772.218	45.34
772.526	43.56
772.834	43.32
773.142	44.13
773.45	43.08
773.758	44.01
774.066	43.86
774.374	46.54
774.682	41.4
774.99	44.89
775.298	40.56
775.605	41.91
775.913	48.1
776.22	48.31
776.528	43.47
776.835	45.58
777.143	44.03
777.45	43.67
777.757	42.95
778.065	44.53
778.372	41.96
778.679	44.07
778.986	44.54
779.293	40.19
779.6	43.65
779.907	41.93
780.214	45.25
780.52	42.46
780.827	45.66
781.134	45.08
781.44	42.78
781.747	45.96
782.053	42.25
782.36	44.93
782.666	46.4
782.973	46.55
783.279	45.84
783.585	45.73
783.891	44.28
784.197	43.74
784.503	46.84
784.809	43.08
785.115	45.13
785.421	43.53
785.727	47.42
786.033	40.31
786.339	43.63
786.644	44.92
786.95	47.09
787.255	47.28
787.561	44.4
787.866	46.23
788.172	43.11
788.477	42.45
788.782	47.05
789.088	43.03
789.393	42.96
789.698	41.9
790.003	42.24
790.308	45.44
790.613	45.13
790.918	46.6
791.223	44.05
791.527	43.85
791.832	48.41
792.137	44.22
792.441	44.85
792.746	41.82
793.05	44.58
793.355	45.93
793.659	42.55
793.963	44.42
794.268	49.68
794.572	49.59
794.876	44.76
795.18	46.45
795.484	49.65
795.788	48.24
796.092	44.62
796.396	43
796.7	45.61
797.004	44.2
797.307	40.16
797.611	43.53
797.915	46.72
798.218	39.73
798.522	46.15
798.825	44.04
799.128	38.78
799.432	44.55
799.735	45.44
800.038	47.78
800.341	45.07
800.644	42.37
800.947	48.66
801.25	45.25
801.553	42.81
801.856	45.97
802.159	43.71
802.462	42.04
802.764	50.29
803.067	47.27
803.37	41.2
803.672	34.7
803.975	42.27
804.277	45.67
804.579	39.28
804.882	42.89
805.184	39.88
805.486	42.34
805.788	46.22
806.09	47.47
806.392	44.59
806.694	44.13
806.996	48.13
807.298	43.62
807.6	44.25
807.902	49.11
808.203	45.76
808.505	46.8
808.807	48.75
809.108	40.58
809.409	44.84
809.711	40.11
810.012	41.08
810.313	47
810.615	44.28
810.916	47.15
811.217	44.8
811.518	42.6
811.819	42.52
812.12	42.35
812.421	44.39
812.722	43.71
813.023	46.32
813.323	41.06
813.624	47.78
813.925	43.72
814.225	48.24
814.526	46.01
814.826	41.82
815.126	44.12
815.427	47.07
815.727	47.58
816.027	49.05
816.327	46.92
816.627	40.89
816.927	50.5
817.227	42.28
817.527	46.98
817.827	47.56
818.127	46.94
818.427	45.35
818.727	48.39
819.026	45.25
819.326	42.13
819.625	49.69
819.925	51.47
820.224	44.44
820.524	40.96
820.823	45.49
821.122	42.76
821.421	45.57
821.72	37.12
822.019	43.88
822.318	47.77
822.617	38.34
822.916	44.2
823.215	45.56
823.514	47.15
823.813	45.3
824.111	47.73
824.41	50.79
824.709	47.32
825.007	47
825.306	48.78
825.604	48.89
825.902	48.08
826.201	48.27
826.499	48.97
826.797	48.54
827.095	47.69
827.393	47.45
827.691	47.21
827.989	48.38
828.287	50.01
828.585	48.5
828.882	48.22
829.18	44.97
829.478	48.51
829.775	50.09
830.073	48.59
830.37	47.07
830.668	47.63
830.965	50.07
831.263	48.16
831.56	48.91
831.857	47.56
832.154	48.07
832.451	53.01
832.748	49.43
833.045	50.88
833.342	51.72
833.639	54.73
833.936	45.54
834.232	42.33
834.529	49.78
834.826	49.13
835.122	52.53
835.419	42.69
835.715	46.67
836.012	47.91
836.308	51.11
836.604	46.97
836.901	45.01
837.197	48.49
837.493	44.73
837.789	44.9
838.085	50.68
838.381	51.17
838.677	46.43
838.972	46.86
839.268	46.57
839.564	48.64
839.86	54.51
840.155	40.03
840.451	41.41
840.746	43.13
841.042	46.22
841.337	41.52
841.632	41.52
841.928	52.93
842.223	44.43
842.518	40.32
842.813	65.49
843.108	51.63
843.403	49.31
843.698	46.89
843.993	41.53
844.287	41.26
844.582	44.48
844.877	47.8
845.171	51.71
845.466	41.36
845.761	46.44
846.055	69.23
846.349	51
846.644	42.99
846.938	31.76
847.232	28.42
847.526	35.43
847.82	57.91
848.114	36.21
848.408	41.1
848.702	33.88
848.996	15.08
849.29	52.98
849.584	50.58
849.877	58.66
850.171	43.35
850.465	26.18
850.758	46.36
851.052	34.58
851.345	57.17
851.638	46.79
851.932	41.54
852.225	43.16
852.518	36.32
852.811	46.93
853.104	19.82
853.397	34.48
853.69	53.75
853.983	17.36
854.276	44.82
854.569	46.79
854.861	35.75
855.154	55.08
855.447	20.15
855.739	31.44
856.032	34.24
856.324	39.93
856.616	50.68
856.909	43.48
857.201	41.99
857.493	62.21
857.785	6.16
858.077	38.51
858.369	60.72
858.661	46.36
858.953	28.8
859.245	37.48
859.537	43.33
859.829	42.86
860.12	58.15
860.412	46.58
860.703	60.01
860.995	45.81
861.286	6.82
861.578	23.11
861.869	34.64
862.16	38.92
862.452	48.61
862.743	25.23
863.034	37.88
863.325	17.65
863.616	22.04
863.907	49.37
864.198	5.96
864.488	42.44
864.779	-4.38
865.07	20.16
865.36	43.7
865.651	40.23
865.941	50.97
866.232	25.96
866.522	3.71
866.813	55.78
867.103	29.27
867.393	42.56
867.683	49.8
867.973	21.2
868.263	57.3
868.553	32.06
868.843	40.73
869.133	2.88
869.423	30.54
869.713	42.46
870.002	28.65
870.292	29.83
870.582	38.79
870.871	46.97
871.161	64.58
871.45	37.37
871.739	4.08
872.029	24.66
872.318	46.25
872.607	48.23
872.896	39.89
873.185	38.88
873.474	24.22
873.763	37.88
874.052	17.4
874.341	44.41
874.63	60.08
874.918	11.84
875.207	34.46
875.496	55.08
875.784	30.55
876.073	-4.82
876.361	1.81
876.649	-9.92
876.938	43.76
877.226	45.07
877.514	65.31
877.802	9.75
878.09	37.82
878.378	51.7
878.666	9.88
878.954	51.06
879.242	48.47
879.53	42.9
879.817	83.86
880.105	6.91
880.392	29
880.68	46.35
880.967	5.76
881.255	64.73
881.542	25.97
881.83	6.57
882.117	60.94
882.404	-2.37
882.691	56.73
882.978	29.43
883.265	19.25
883.552	24.96
883.839	72.85
884.126	27.67
884.413	58.15
884.699	57.47
884.986	51.17
885.273	50.09
885.559	50.09
885.846	50.09
