Data from 0206_crown_Reflection__0__314.txt Node

Date: Fri Dec 15 19:35:33 CST 2023
User: ToomeyLab
Spectrometer: FLMS14357
Trigger mode: 0
Integration Time (sec): 1.000000E-2
Scans to average: 100
Electric dark correction enabled: true
Nonlinearity correction enabled: false
Boxcar width: 0
XAxis mode: Wavelengths
Number of Pixels in Spectrum: 2048
>>>>>Begin Spectral Data<<<<<
189.047	109.54
189.435	109.54
189.823	109.54
190.211	256.13
190.599	-167.03
190.987	71.05
191.375	153.18
191.763	408.73
192.151	1033.89
192.538	108.92
192.926	74.42
193.314	400.95
193.702	-88.97
194.089	46.14
194.477	8.27
194.864	-35.36
195.252	100.55
195.639	242.35
196.027	869.68
196.414	315.5
196.801	110.63
197.189	327.35
197.576	155.77
197.963	-276.9
198.351	-72.34
198.738	-185.05
199.125	-34.31
199.512	-48.07
199.899	-10
200.286	12.82
200.673	4.25
201.06	16.43
201.447	-30.3
201.833	9.89
202.22	21.76
202.607	23.28
202.994	4.63
203.38	-12.13
203.767	12.85
204.154	25.62
204.54	8.2
204.927	-59.97
205.313	-53.34
205.699	20.31
206.086	18.22
206.472	2.12
206.858	-11.67
207.245	-52.9
207.631	-30.06
208.017	22.86
208.403	-11.47
208.789	13.23
209.175	57.26
209.561	15.42
209.947	16.04
210.333	-99.29
210.719	-40.84
211.105	11.63
211.491	-80.7
211.876	7.11
212.262	-16.9
212.648	-1.49
213.034	16.22
213.419	-90.54
213.805	-23.57
214.19	-61.79
214.576	-57.51
214.961	-53.18
215.346	-31.15
215.732	-8.44
216.117	25.59
216.502	-41.3
216.888	-32.38
217.273	12.14
217.658	7.97
218.043	11.94
218.428	-46.61
218.813	-35.3
219.198	-77.93
219.583	9.53
219.968	-18.29
220.353	-15.96
220.738	40.62
221.122	3.76
221.507	-18.77
221.892	-41.38
222.276	-26.51
222.661	-6.2
223.046	10.9
223.43	7.2
223.815	5.99
224.199	-22.03
224.583	1.66
224.968	-0.18
225.352	12.8
225.736	-8.84
226.121	-6.01
226.505	4.86
226.889	6.4
227.273	-0.01
227.657	9.57
228.041	6.74
228.425	0.98
228.809	1.19
229.193	-0.23
229.577	2.76
229.961	4
230.344	2.75
230.728	3.14
231.112	2.89
231.495	3.46
231.879	3.19
232.263	4.6
232.646	3.63
233.03	3.59
233.413	1.96
233.797	1.47
234.18	0.71
234.563	4.79
234.946	2.99
235.33	4.08
235.713	3.73
236.096	3.35
236.479	3.36
236.862	0.89
237.245	3.64
237.628	2.44
238.011	4.96
238.394	4.38
238.777	3.58
239.16	0.27
239.543	2.29
239.925	4.93
240.308	3.97
240.691	3.99
241.073	3.26
241.456	1.6
241.838	3.98
242.221	2.98
242.603	3.22
242.986	3.42
243.368	3.62
243.75	3.46
244.133	3.05
244.515	4.01
244.897	4.33
245.279	3.24
245.661	3.79
246.043	2.71
246.425	1.15
246.807	4.69
247.189	3.5
247.571	3.37
247.953	3.74
248.335	3.29
248.717	3.6
249.098	3.47
249.48	3.79
249.862	3.49
250.243	3.56
250.625	3.52
251.006	3.72
251.388	3.32
251.769	3.07
252.151	4.2
252.532	3.85
252.913	3.06
253.295	2.87
253.676	3.16
254.057	3.99
254.438	2.88
254.819	3.12
255.2	2.34
255.581	3.42
255.962	2.58
256.343	2.81
256.724	2.86
257.105	2.69
257.486	1.71
257.867	2.98
258.247	2.77
258.628	3.21
259.009	2.56
259.389	2.77
259.77	2.76
260.15	3.2
260.531	2.54
260.911	3.54
261.292	3.25
261.672	3.63
262.052	3.43
262.432	3.55
262.813	3.54
263.193	3.49
263.573	2.36
263.953	3.01
264.333	3.53
264.713	3.33
265.093	2.91
265.473	3.25
265.853	1.8
266.233	2.86
266.612	0.74
266.992	2.41
267.372	2.88
267.752	2.77
268.131	3.29
268.511	4.25
268.89	3.49
269.27	3.19
269.649	2.68
270.029	3.27
270.408	3.93
270.787	3.39
271.167	4.05
271.546	3.78
271.925	2.22
272.304	3
272.683	2.98
273.062	2.85
273.441	3.33
273.82	2.93
274.199	3.22
274.578	3.11
274.957	2.73
275.336	2.84
275.715	2.87
276.093	2.8
276.472	2.69
276.851	2.62
277.229	2.33
277.608	2.67
277.986	3.05
278.365	2.69
278.743	2.34
279.122	3.12
279.5	2.71
279.878	3
280.257	3.1
280.635	2.32
281.013	2.96
281.391	3.53
281.769	3.35
282.147	3.51
282.525	3.77
282.903	3.14
283.281	3.15
283.659	3.28
284.037	2.97
284.415	3.04
284.792	3.28
285.17	2.64
285.548	3.07
285.925	3.25
286.303	3.19
286.68	2.54
287.058	3.23
287.435	2.86
287.813	3.03
288.19	3.37
288.567	2.59
288.945	3.36
289.322	2.88
289.699	2.98
290.076	2.57
290.453	2.93
290.83	2.6
291.207	2.66
291.584	3.31
291.961	3.67
292.338	3.16
292.715	3.36
293.092	2.85
293.469	2.9
293.845	3.53
294.222	2.63
294.599	2.77
294.975	2.76
295.352	3
295.728	2.79
296.105	3.05
296.481	3.32
296.858	3.28
297.234	3.19
297.61	2.61
297.986	3.13
298.363	3.71
298.739	3.23
299.115	3.05
299.491	2.78
299.867	3.26
300.243	3.4
300.619	2.53
300.995	2.74
301.371	3.25
301.746	2.79
302.122	3.55
302.498	2.64
302.874	3.29
303.249	3.15
303.625	2.99
304	3.3
304.376	2.61
304.751	3.07
305.127	3.7
305.502	2.54
305.878	2.45
306.253	2.5
306.628	4.05
307.003	3.4
307.378	3.44
307.754	3.21
308.129	2.71
308.504	3.04
308.879	2.92
309.254	4.19
309.629	3.4
310.003	3.3
310.378	3.51
310.753	3.3
311.128	3.35
311.502	3.39
311.877	3.46
312.252	2.83
312.626	3.15
313.001	3.48
313.375	3.44
313.75	3.08
314.124	3.69
314.498	3.2
314.873	3.32
315.247	3.23
315.621	3.75
315.995	2.46
316.369	2.97
316.743	3.3
317.117	3.52
317.491	2.84
317.865	3.21
318.239	3.22
318.613	3.73
318.987	4.17
319.361	2.83
319.734	3.35
320.108	3.11
320.482	3.02
320.855	3.58
321.229	3.49
321.602	3.26
321.976	3.34
322.349	3.24
322.723	2.98
323.096	3.99
323.469	2.82
323.843	3.29
324.216	3.59
324.589	2.84
324.962	3.23
325.335	3.02
325.708	3.57
326.081	3.34
326.454	3.52
326.827	3.35
327.2	3.22
327.573	4.33
327.945	2.9
328.318	3.3
328.691	2.97
329.063	3.42
329.436	3.76
329.809	3.64
330.181	3.2
330.553	3.71
330.926	3.17
331.298	3.87
331.671	3.54
332.043	4.2
332.415	3.1
332.787	3.81
333.159	4.06
333.532	4.33
333.904	3.45
334.276	3.41
334.648	4.13
335.02	3.68
335.391	3.85
335.763	3.95
336.135	3.94
336.507	3.67
336.879	3.79
337.25	3.32
337.622	3.66
337.993	3.63
338.365	4.07
338.736	4.49
339.108	3.8
339.479	3.59
339.851	4.09
340.222	3.85
340.593	3.75
340.964	4.1
341.336	4.6
341.707	3.99
342.078	3.9
342.449	4.17
342.82	3.93
343.191	3.82
343.562	3.82
343.933	3.76
344.303	3.96
344.674	3.57
345.045	3.78
345.416	4.5
345.786	3.65
346.157	3.84
346.527	3.27
346.898	3.4
347.268	4.02
347.639	4.09
348.009	3.9
348.38	3.54
348.75	3.46
349.12	4.03
349.49	4.09
349.861	3.91
350.231	4.02
350.601	4.08
350.971	4.01
351.341	3.8
351.711	4.08
352.081	4.04
352.45	3.64
352.82	3.81
353.19	3.66
353.56	3.83
353.929	3.94
354.299	3.53
354.669	3.66
355.038	4.56
355.408	3.83
355.777	3.86
356.147	4.03
356.516	3.97
356.885	3.83
357.254	4.04
357.624	4.11
357.993	3.96
358.362	4.02
358.731	3.75
359.1	3.8
359.469	4.11
359.838	4.29
360.207	3.71
360.576	3.96
360.945	4.11
361.314	4.56
361.682	4.08
362.051	3.94
362.42	4.3
362.788	3.88
363.157	4.12
363.525	4.25
363.894	4.27
364.262	4.31
364.631	4.08
364.999	4.23
365.367	3.6
365.735	4.69
366.104	4.39
366.472	4.24
366.84	3.79
367.208	4.1
367.576	4.67
367.944	4.28
368.312	3.88
368.68	3.61
369.048	4.07
369.416	4.04
369.783	3.81
370.151	4.05
370.519	4.03
370.886	4.27
371.254	4.06
371.621	4.2
371.989	3.96
372.356	3.67
372.724	4.14
373.091	3.74
373.458	4.28
373.826	4.21
374.193	4.15
374.56	4.42
374.927	4.34
375.294	4.32
375.661	4.06
376.028	3.99
376.395	4.11
376.762	3.96
377.129	4.32
377.496	4.18
377.863	4.26
378.229	3.82
378.596	4.14
378.963	4.23
379.329	4.11
379.696	4.34
380.062	4.3
380.429	4.22
380.795	3.95
381.161	4.4
381.528	4.32
381.894	4.1
382.26	4.06
382.626	4.3
382.993	3.68
383.359	4.26
383.725	4
384.091	4.23
384.457	4.42
384.823	4.2
385.188	4.64
385.554	4.1
385.92	4.49
386.286	4.48
386.651	4.4
387.017	4.35
387.383	3.83
387.748	4.18
388.114	4.48
388.479	4.25
388.845	4.39
389.21	4.37
389.575	4.37
389.94	4.55
390.306	4.39
390.671	4.47
391.036	3.92
391.401	3.84
391.766	4.38
392.131	4.32
392.496	4.18
392.861	4.29
393.226	4.6
393.591	4.26
393.956	4.37
394.32	4.29
394.685	4.01
395.05	4.41
395.414	4.42
395.779	4.13
396.143	4.12
396.508	4.5
396.872	4.44
397.236	4.44
397.601	4.18
397.965	4.39
398.329	4.24
398.694	4.23
399.058	4.36
399.422	4.18
399.786	4.74
400.15	4.42
400.514	4.4
400.878	4.35
401.242	4.6
401.605	4.55
401.969	4.45
402.333	4.43
402.697	4.35
403.06	4.26
403.424	4.42
403.787	4.14
404.151	4.5
404.514	4.57
404.878	4.46
405.241	4.49
405.604	4.43
405.968	4.28
406.331	4.34
406.694	4.4
407.057	4.36
407.42	4.73
407.783	4.12
408.146	4.33
408.509	4.5
408.872	4.35
409.235	4.43
409.598	4.66
409.961	4.34
410.323	4.69
410.686	4.31
411.049	4.09
411.411	4.54
411.774	4.3
412.136	4.28
412.499	4.56
412.861	4.56
413.223	4.4
413.586	4.49
413.948	4.39
414.31	4.59
414.672	4.37
415.035	4.29
415.397	4.72
415.759	4.42
416.121	4.49
416.483	4.57
416.845	4.6
417.206	4.62
417.568	4.52
417.93	4.38
418.292	4.53
418.653	4.35
419.015	4.64
419.377	4.64
419.738	4.53
420.1	4.43
420.461	4.59
420.822	4.45
421.184	4.46
421.545	4.5
421.906	4.37
422.267	4.37
422.629	4.47
422.99	4.41
423.351	4.35
423.712	4.41
424.073	4.46
424.434	4.46
424.795	4.5
425.155	4.46
425.516	4.33
425.877	4.41
426.238	4.42
426.598	4.47
426.959	4.55
427.32	4.35
427.68	4.49
428.041	4.5
428.401	4.6
428.761	4.8
429.122	4.53
429.482	4.27
429.842	4.71
430.202	4.58
430.563	4.37
430.923	4.47
431.283	4.62
431.643	4.29
432.003	4.56
432.363	4.54
432.722	4.57
433.082	4.4
433.442	4.48
433.802	4.31
434.161	4.45
434.521	4.8
434.881	4.52
435.24	4.55
435.6	4.56
435.959	4.54
436.319	4.58
436.678	4.45
437.037	4.48
437.396	4.63
437.756	4.5
438.115	4.52
438.474	4.59
438.833	4.45
439.192	4.47
439.551	4.7
439.91	4.35
440.269	4.45
440.628	4.52
440.987	4.54
441.345	4.37
441.704	4.62
442.063	4.59
442.421	4.59
442.78	4.51
443.138	4.54
443.497	4.46
443.855	4.57
444.214	4.62
444.572	4.63
444.93	4.63
445.288	4.74
445.647	4.66
446.005	4.51
446.363	4.59
446.721	4.6
447.079	4.43
447.437	4.52
447.795	4.6
448.153	4.35
448.51	4.49
448.868	4.61
449.226	4.58
449.584	4.55
449.941	4.63
450.299	4.61
450.656	4.63
451.014	4.68
451.371	4.47
451.729	4.45
452.086	4.72
452.443	4.41
452.801	4.8
453.158	4.56
453.515	4.44
453.872	4.63
454.229	4.43
454.586	4.46
454.943	4.51
455.3	4.74
455.657	4.49
456.014	4.59
456.371	4.64
456.727	4.62
457.084	4.64
457.441	4.51
457.797	4.57
458.154	4.71
458.51	4.77
458.867	4.56
459.223	4.82
459.58	4.79
459.936	4.77
460.292	4.65
460.648	4.48
461.005	4.48
461.361	4.57
461.717	4.51
462.073	4.55
462.429	4.52
462.785	4.59
463.141	4.63
463.496	4.69
463.852	4.77
464.208	4.7
464.564	4.59
464.919	4.53
465.275	4.66
465.631	4.74
465.986	4.66
466.342	4.68
466.697	4.43
467.052	4.63
467.408	4.67
467.763	4.62
468.118	4.81
468.473	4.6
468.829	4.64
469.184	4.56
469.539	4.7
469.894	4.57
470.249	4.79
470.603	4.81
470.958	4.77
471.313	4.7
471.668	4.65
472.023	4.6
472.377	4.67
472.732	4.64
473.086	4.46
473.441	4.63
473.795	4.73
474.15	4.7
474.504	4.83
474.859	4.76
475.213	4.56
475.567	4.67
475.921	4.64
476.275	4.89
476.63	4.73
476.984	4.77
477.338	4.76
477.692	4.52
478.045	4.54
478.399	4.55
478.753	4.82
479.107	4.73
479.461	4.72
479.814	4.74
480.168	4.75
480.521	4.62
480.875	4.77
481.228	4.75
481.582	4.66
481.935	4.55
482.289	4.66
482.642	4.74
482.995	4.59
483.348	4.64
483.701	4.55
484.055	4.65
484.408	4.61
484.761	4.56
485.114	4.43
485.466	4.29
485.819	4.3
486.172	4.33
486.525	4.45
486.878	4.51
487.23	4.59
487.583	4.65
487.936	4.69
488.288	4.64
488.641	4.59
488.993	4.44
489.345	4.38
489.698	4.44
490.05	4.44
490.402	4.52
490.754	4.55
491.107	4.64
491.459	4.66
491.811	4.66
492.163	4.76
492.515	4.65
492.866	4.69
493.218	4.53
493.57	4.48
493.922	4.45
494.274	4.62
494.625	4.69
494.977	4.7
495.328	4.84
495.68	4.72
496.031	4.86
496.383	4.73
496.734	4.81
497.086	4.78
497.437	4.65
497.788	4.66
498.139	4.64
498.49	4.78
498.842	4.58
499.193	4.63
499.544	4.7
499.894	4.67
500.245	4.58
500.596	4.65
500.947	4.77
501.298	4.61
501.648	4.75
501.999	4.88
502.35	4.84
502.7	4.71
503.051	4.54
503.401	4.77
503.752	4.82
504.102	4.64
504.452	4.71
504.803	4.74
505.153	4.68
505.503	4.75
505.853	4.62
506.203	4.66
506.553	4.75
506.903	4.66
507.253	4.7
507.603	4.74
507.953	4.77
508.303	4.81
508.652	4.79
509.002	4.7
509.352	4.9
509.701	4.7
510.051	4.76
510.4	4.68
510.75	4.72
511.099	4.64
511.449	4.73
511.798	4.78
512.147	4.72
512.496	4.61
512.846	4.7
513.195	4.79
513.544	4.73
513.893	4.83
514.242	4.72
514.591	4.85
514.939	4.76
515.288	4.66
515.637	4.89
515.986	4.79
516.334	4.8
516.683	4.8
517.032	4.86
517.38	4.81
517.729	4.87
518.077	4.61
518.426	4.83
518.774	4.69
519.122	4.73
519.47	4.77
519.819	4.69
520.167	4.69
520.515	4.72
520.863	4.65
521.211	4.73
521.559	4.79
521.907	4.7
522.255	4.79
522.602	4.75
522.95	4.73
523.298	4.89
523.645	4.89
523.993	4.7
524.341	4.97
524.688	4.86
525.036	4.83
525.383	4.84
525.73	4.96
526.078	4.73
526.425	4.71
526.772	4.69
527.119	4.72
527.466	4.59
527.814	4.66
528.161	4.77
528.508	4.77
528.854	4.72
529.201	4.71
529.548	4.67
529.895	4.59
530.242	4.46
530.588	4.48
530.935	4.57
531.282	4.67
531.628	4.66
531.975	4.73
532.321	4.76
532.667	4.86
533.014	4.82
533.36	4.78
533.706	4.82
534.052	4.76
534.399	4.72
534.745	4.65
535.091	4.61
535.437	4.66
535.783	4.7
536.129	4.76
536.474	4.79
536.82	4.92
537.166	4.92
537.512	4.82
537.857	4.75
538.203	4.79
538.549	4.81
538.894	4.74
539.239	4.82
539.585	4.92
539.93	4.82
540.276	4.98
540.621	4.87
540.966	4.82
541.311	4.72
541.656	4.75
542.001	4.73
542.346	4.77
542.691	4.63
543.036	4.7
543.381	4.54
543.726	4.65
544.071	4.79
544.415	4.85
544.76	4.77
545.105	4.83
545.449	4.87
545.794	4.81
546.138	4.9
546.483	4.97
546.827	4.97
547.171	4.85
547.516	4.99
547.86	4.82
548.204	4.78
548.548	4.74
548.892	4.83
549.236	4.79
549.58	4.86
549.924	4.89
550.268	4.97
550.612	4.93
550.956	5.18
551.3	4.91
551.643	5.14
551.987	4.98
552.33	4.96
552.674	5.03
553.017	4.81
553.361	5
553.704	5.12
554.048	4.86
554.391	4.98
554.734	4.93
555.077	4.95
555.42	4.92
555.764	4.83
556.107	4.8
556.45	4.98
556.793	5.01
557.135	4.99
557.478	5.13
557.821	5.13
558.164	4.93
558.507	4.8
558.849	4.92
559.192	5.03
559.534	4.96
559.877	4.88
560.219	4.87
560.562	5.25
560.904	4.97
561.246	4.97
561.589	5.21
561.931	4.98
562.273	4.94
562.615	5.03
562.957	5.05
563.299	4.84
563.641	5.02
563.983	5.08
564.325	4.97
564.667	5.03
565.008	4.99
565.35	4.96
565.692	4.69
566.033	5
566.375	5.07
566.716	5.26
567.058	5.02
567.399	4.92
567.741	4.92
568.082	4.93
568.423	5.09
568.764	4.99
569.105	5.11
569.447	5.06
569.788	5.07
570.129	5.24
570.47	5.13
570.811	5.24
571.151	5.04
571.492	5.05
571.833	5.13
572.174	5.07
572.514	5.22
572.855	5.18
573.195	5.04
573.536	5.07
573.876	4.97
574.217	4.89
574.557	5.14
574.898	5.1
575.238	5.08
575.578	5.12
575.918	5.18
576.258	5.26
576.598	5.22
576.938	5.05
577.278	5.14
577.618	5.1
577.958	5.03
578.298	5.12
578.638	5.11
578.977	5.09
579.317	5.09
579.657	5.15
579.996	5.29
580.336	5.28
580.675	4.97
581.014	5.27
581.354	5.16
581.693	5.23
582.032	4.81
582.372	5.21
582.711	5.12
583.05	4.87
583.389	5.44
583.728	5.06
584.067	5.22
584.406	5.1
584.745	5.19
585.083	5.21
585.422	5.23
585.761	5.3
586.1	5.3
586.438	5.14
586.777	5.34
587.115	5.22
587.454	5.17
587.792	5.17
588.13	5.28
588.469	5.13
588.807	5.14
589.145	4.89
589.483	5.14
589.821	5.19
590.159	5.31
590.497	5.51
590.835	5.55
591.173	5.17
591.511	5.45
591.849	5.26
592.187	5.23
592.524	5.21
592.862	5.31
593.2	5.42
593.537	5.26
593.875	5.49
594.212	5.2
594.55	5.37
594.887	5.44
595.224	4.97
595.561	5.32
595.899	5.03
596.236	4.99
596.573	5.3
596.91	4.52
597.247	5
597.584	5.51
597.921	5.16
598.258	5.34
598.594	5.19
598.931	5.06
599.268	5.23
599.604	5.23
599.941	5.29
600.277	5.24
600.614	5.22
600.95	5.12
601.287	5.37
601.623	5.11
601.959	5.03
602.296	5.22
602.632	5.2
602.968	5.53
603.304	5.23
603.64	5.03
603.976	5.17
604.312	4.95
604.648	4.82
604.984	5.27
605.319	5.19
605.655	5.35
605.991	5.22
606.326	5.27
606.662	5.37
606.998	5.04
607.333	5.41
607.668	5.19
608.004	5.36
608.339	5.43
608.674	5.66
609.01	5.18
609.345	5.23
609.68	5.59
610.015	5.23
610.35	5.48
610.685	5.19
611.02	5.29
611.355	5.56
611.689	5.19
612.024	5.32
612.359	5.37
612.694	5.53
613.028	5.18
613.363	5.48
613.697	5.8
614.032	5.44
614.366	5.51
614.7	5.46
615.035	5.6
615.369	5.28
615.703	5.27
616.037	5.65
616.371	5.17
616.705	5.22
617.039	5.04
617.373	5.7
617.707	4.99
618.041	4.91
618.375	5.06
618.709	5.74
619.042	5.06
619.376	5.5
619.71	5.57
620.043	5.5
620.377	5.48
620.71	5.77
621.043	5.2
621.377	5.25
621.71	5.48
622.043	5
622.376	5.25
622.709	5.38
623.043	5.92
623.376	5.71
623.709	5.31
624.041	5.6
624.374	5.4
624.707	5.2
625.04	5.81
625.373	4.62
625.705	5.23
626.038	5.51
626.37	5.66
626.703	5.69
627.035	5.81
627.368	5.91
627.7	5.41
628.032	5.48
628.365	5.82
628.697	5.33
629.029	5.23
629.361	5.57
629.693	5.55
630.025	5.65
630.357	5.71
630.689	5.81
631.021	5.31
631.353	5.66
631.684	5.21
632.016	5.26
632.348	5.55
632.679	5.35
633.011	5.7
633.342	5.67
633.674	5.64
634.005	6.02
634.336	5.57
634.668	5.99
634.999	5.37
635.33	5.6
635.661	5.6
635.992	5.44
636.323	5.81
636.654	5.72
636.985	5.45
637.316	5.14
637.647	5.34
637.977	5.76
638.308	5.78
638.639	5.13
638.969	5.62
639.3	5.36
639.63	5.21
639.961	5.41
640.291	5.61
640.622	5.99
640.952	5.42
641.282	6.06
641.612	5.6
641.943	5.41
642.273	5.22
642.603	5.99
642.933	6.05
643.263	5.75
643.592	5.6
643.922	5.62
644.252	5.55
644.582	5.15
644.911	5.24
645.241	5.37
645.571	5.82
645.9	5.34
646.23	5.55
646.559	6.38
646.888	5.48
647.218	5.78
647.547	6.14
647.876	5.69
648.205	5.46
648.534	5.29
648.863	5.46
649.192	5.91
649.521	5.23
649.85	5.76
650.179	6.01
650.508	5.21
650.837	5.2
651.165	5.49
651.494	5.69
651.822	5.53
652.151	5.58
652.479	5.61
652.808	5.45
653.136	5.9
653.465	5.06
653.793	5.52
654.121	5.93
654.449	5.78
654.777	5.57
655.105	5.56
655.433	5.03
655.761	5.55
656.089	6.05
656.417	5.49
656.745	4.98
657.073	5.82
657.4	6.47
657.728	6.13
658.056	5.91
658.383	6.05
658.711	5.77
659.038	6.04
659.365	5.95
659.693	6.16
660.02	5.53
660.347	5.72
660.674	5.48
661.001	5.63
661.329	5.18
661.656	5.63
661.982	5.51
662.309	5.76
662.636	5.6
662.963	6.01
663.29	5.81
663.616	6.05
663.943	5.08
664.27	5.79
664.596	5.83
664.923	5.6
665.249	5.69
665.576	5.91
665.902	6.57
666.228	6.17
666.554	6.74
666.881	5.46
667.207	5.49
667.533	5.82
667.859	6.11
668.185	6.61
668.511	5.48
668.837	5.13
669.162	5.91
669.488	5.23
669.814	5.41
670.139	5.68
670.465	5.95
670.791	5.75
671.116	6.7
671.442	5.98
671.767	5.89
672.092	6.08
672.418	5.98
672.743	6.32
673.068	5.81
673.393	6.2
673.718	5.82
674.043	5.79
674.368	6.42
674.693	6.93
675.018	5.61
675.343	5.91
675.667	6.82
675.992	5.71
676.317	6.4
676.641	6.11
676.966	6.7
677.29	5.88
677.615	5.88
677.939	6.53
678.264	6.36
678.588	5.92
678.912	5.94
679.236	5.96
679.56	5.8
679.885	5.68
680.209	6.26
680.532	5.78
680.856	6.21
681.18	5.75
681.504	6.22
681.828	6.18
682.152	5.96
682.475	6.16
682.799	6.42
683.122	6.5
683.446	6.33
683.769	6.81
684.093	5.71
684.416	6.52
684.739	6.46
685.062	5.78
685.386	6.58
685.709	5.54
686.032	6.25
686.355	6.5
686.678	5.51
687.001	5.88
687.324	6.27
687.646	5.64
687.969	6.19
688.292	6.65
688.614	6.01
688.937	6.68
689.26	6.16
689.582	7.11
689.904	5.5
690.227	6.93
690.549	6.43
690.871	6.6
691.194	5.14
691.516	6.09
691.838	6.08
692.16	5.18
692.482	5.67
692.804	6.15
693.126	6.35
693.448	7.49
693.769	6.78
694.091	5.83
694.413	5.76
694.735	5.88
695.056	6.77
695.378	6.32
695.699	5.69
696.021	5.12
696.342	5.61
696.663	6.2
696.984	5.98
697.306	5.29
697.627	7.58
697.948	6.04
698.269	5.88
698.59	5.99
698.911	5.3
699.232	5.53
699.553	6.05
699.873	6.74
700.194	6.49
700.515	6.49
700.835	6.43
701.156	6.33
701.477	6.2
701.797	5.97
702.117	6.44
702.438	6.37
702.758	6.13
703.078	6.2
703.398	5.8
703.719	6.06
704.039	5.93
704.359	7.05
704.679	6.01
704.999	5.95
705.319	6.46
705.638	6.04
705.958	6.63
706.278	7.07
706.597	6.4
706.917	6.02
707.237	5.92
707.556	6.08
707.876	6.82
708.195	7.04
708.514	5.91
708.834	6.49
709.153	6.38
709.472	6.59
709.791	6.84
710.11	5.02
710.429	6.1
710.748	5.64
711.067	5.89
711.386	5.44
711.705	7.07
712.023	6.14
712.342	5.57
712.661	4.74
712.979	5.46
713.298	7.25
713.616	6.86
713.935	5.73
714.253	5.13
714.572	7.06
714.89	5.62
715.208	7.66
715.526	6.77
715.844	7.1
716.162	7.18
716.48	6.57
716.798	7.53
717.116	7.62
717.434	7.25
717.752	4.94
718.069	6.9
718.387	6.77
718.705	6.44
719.022	5.9
719.34	6.24
719.657	5.25
719.975	7.07
720.292	6.77
720.609	7.06
720.927	6.24
721.244	6.57
721.561	6.26
721.878	7.35
722.195	5.99
722.512	5.83
722.829	4.95
723.146	6.35
723.463	7.46
723.779	5.55
724.096	7.03
724.413	5.08
724.729	5.92
725.046	5.6
725.362	6.67
725.679	6.12
725.995	5.02
726.311	6.46
726.628	6.35
726.944	6.9
727.26	6.69
727.576	6.44
727.892	7.05
728.208	7.07
728.524	5.9
728.84	6.05
729.156	6.59
729.472	6.09
729.787	6.45
730.103	6.52
730.419	6.8
730.734	6.62
731.05	6.19
731.365	4.56
731.681	7.64
731.996	6.2
732.311	6.86
732.626	6.71
732.942	4.8
733.257	6.66
733.572	6.16
733.887	6.43
734.202	7.54
734.517	7.47
734.832	6.88
735.146	6.58
735.461	7.29
735.776	6.18
736.091	6.7
736.405	7.3
736.72	6.5
737.034	6.52
737.349	7.98
737.663	6.88
737.977	7.4
738.292	7.03
738.606	8.59
738.92	7.18
739.234	7.38
739.548	5.78
739.862	5.42
740.176	6.97
740.49	7.68
740.804	8.25
741.117	6.72
741.431	6.62
741.745	6.3
742.058	7.94
742.372	5.51
742.685	6.65
742.999	6.33
743.312	5.88
743.626	7.58
743.939	6.7
744.252	6.9
744.565	4.83
744.878	7.34
745.191	5.3
745.505	4.77
745.817	7.36
746.13	7.54
746.443	7.67
746.756	7.51
747.069	5.66
747.381	8.54
747.694	6.22
748.007	7.18
748.319	6.66
748.632	7.45
748.944	7.4
749.256	6.93
749.569	5.83
749.881	6.27
750.193	10.41
750.505	7.09
750.817	7.5
751.129	7.49
751.441	7.38
751.753	6.54
752.065	7.2
752.377	7.14
752.689	6.43
753	7.49
753.312	5.09
753.624	5.27
753.935	7.29
754.247	8.97
754.558	7.39
754.869	9.23
755.181	6.6
755.492	7.67
755.803	7.57
756.114	7.14
756.425	6.98
756.736	6.83
757.047	8.71
757.358	8.67
757.669	6.49
757.98	8.06
758.291	6.96
758.601	6.69
758.912	3.76
759.223	9.28
759.533	3.69
759.844	4.77
760.154	5.52
760.464	8.96
760.775	9.38
761.085	7.34
761.395	7.52
761.705	6.28
762.016	9.85
762.326	7.7
762.636	6.24
762.945	6.24
763.255	7.18
763.565	5.08
763.875	9.35
764.185	7.56
764.494	7.26
764.804	8.24
765.113	7.71
765.423	7.8
765.732	8.83
766.042	6.76
766.351	6.61
766.66	8.9
766.97	8.47
767.279	6.52
767.588	8.63
767.897	9.09
768.206	6.51
768.515	5.79
768.824	7.03
769.133	5.5
769.441	5.5
769.75	6.6
770.059	8.34
770.367	9.97
770.676	7.32
770.984	8.81
771.293	7.44
771.601	8.5
771.91	3.35
772.218	9.52
772.526	9.27
772.834	7.49
773.142	3.81
773.45	5.88
773.758	8.26
774.066	7.28
774.374	3.92
774.682	7.61
774.99	5.77
775.298	5.63
775.605	7.14
775.913	5.22
776.22	6.77
776.528	7.72
776.835	10.51
777.143	9.05
777.45	6.24
777.757	9.03
778.065	5.37
778.372	4.24
778.679	6.66
778.986	10.31
779.293	7.08
779.6	6.76
779.907	6.06
780.214	11.25
780.52	7.52
780.827	8.67
781.134	3.99
781.44	1.77
781.747	4.83
782.053	5.31
782.36	6.75
782.666	6.39
782.973	9.7
783.279	5.88
783.585	4.46
783.891	10.23
784.197	8.45
784.503	10.04
784.809	3.95
785.115	8.01
785.421	8.1
785.727	8.48
786.033	9.31
786.339	9.56
786.644	10.47
786.95	4.68
787.255	10.34
787.561	7.37
787.866	9.69
788.172	10.15
788.477	3.42
788.782	4.62
789.088	2.41
789.393	5.38
789.698	7.15
790.003	6.65
790.308	3.68
790.613	3.17
790.918	10.75
791.223	10.43
791.527	2.27
791.832	12.86
792.137	4.63
792.441	7.68
792.746	6.59
793.05	3.28
793.355	6.5
793.659	10.33
793.963	6.81
794.268	6.4
794.572	7.53
794.876	9.66
795.18	7.56
795.484	2.81
795.788	9.55
796.092	4.35
796.396	3.97
796.7	7.15
797.004	4.37
797.307	4.12
797.611	10.07
797.915	4.01
798.218	9.6
798.522	4.85
798.825	7.22
799.128	6.33
799.432	6.17
799.735	8.18
800.038	11.04
800.341	5.88
800.644	7.85
800.947	7.17
801.25	8.06
801.553	4.13
801.856	2.09
802.159	0.71
802.462	6.31
802.764	4.36
803.067	5.98
803.37	7.22
803.672	4.85
803.975	3.04
804.277	5.52
804.579	7.77
804.882	7.44
805.184	3.81
805.486	0.86
805.788	13.6
806.09	11.08
806.392	5.75
806.694	8.48
806.996	8.33
807.298	6.7
807.6	8.55
807.902	11.29
808.203	6.11
808.505	2.78
808.807	3.74
809.108	9.6
809.409	11.19
809.711	5.96
810.012	1.04
810.313	6.44
810.615	6.7
810.916	7.33
811.217	5.02
811.518	8.79
811.819	4.43
812.12	2.59
812.421	6.94
812.722	11.41
813.023	8.77
813.323	0.89
813.624	8.37
813.925	13.31
814.225	5.4
814.526	13.09
814.826	14
815.126	-0.95
815.427	6.5
815.727	11.24
816.027	17.37
816.327	-5.06
816.627	6.63
816.927	7.95
817.227	5.44
817.527	4.49
817.827	18.42
818.127	10.03
818.427	9.83
818.727	4.81
819.026	4.14
819.326	11.46
819.625	2.35
819.925	2.22
820.224	10.97
820.524	1.08
820.823	9.58
821.122	1.32
821.421	9.73
821.72	1.22
822.019	6.35
822.318	8.73
822.617	7.92
822.916	5.2
823.215	5.26
823.514	10.63
823.813	9.91
824.111	7
824.41	7.89
824.709	9.39
825.007	10.47
825.306	9.96
825.604	10.92
825.902	10.3
826.201	10.33
826.499	10.25
826.797	9.8
827.095	9.26
827.393	9.13
827.691	9.44
827.989	8.97
828.287	8.72
828.585	8.72
828.882	10.05
829.18	9.58
829.478	10.79
829.775	9.83
830.073	10.03
830.37	10.67
830.668	9.4
830.965	12.11
831.263	9.94
831.56	9.61
831.857	7.5
832.154	9.45
832.451	11.74
832.748	10.71
833.045	11.1
833.342	15.26
833.639	6.2
833.936	10.62
834.232	4.28
834.529	-1.09
834.826	5.39
835.122	8.24
835.419	6.76
835.715	-0.39
836.012	10.76
836.308	0.26
836.604	5.89
836.901	4.19
837.197	8.07
837.493	8.66
837.789	6.55
838.085	7.87
838.381	10.82
838.677	12.21
838.972	6.63
839.268	13.14
839.564	5.71
839.86	9.01
840.155	3.39
840.451	3.62
840.746	10.48
841.042	-3.4
841.337	4.53
841.632	11.09
841.928	12.19
842.223	4.94
842.518	17.13
842.813	19.1
843.108	-0.98
843.403	14.85
843.698	-1.1
843.993	7.4
844.287	-2.16
844.582	-5.56
844.877	5.99
845.171	11.41
845.466	-6.75
845.761	4.69
846.055	6.71
846.349	14.54
846.644	-1.27
846.938	-20.34
847.232	-9.63
847.526	-2.41
847.82	-4.42
848.114	-2.31
848.408	-8.63
848.702	5.72
848.996	-1.99
849.29	21.93
849.584	-5.41
849.877	5.3
850.171	-2.68
850.465	-6.98
850.758	-3.17
851.052	0.04
851.345	9.61
851.638	21.33
851.932	15.66
852.225	2.9
852.518	2.12
852.811	-2.2
853.104	-42.69
853.397	19.61
853.69	-28.02
853.983	-25.99
854.276	6.11
854.569	8.01
854.861	-3.68
855.154	19.71
855.447	-21.81
855.739	-7.78
856.032	-4.68
856.324	8.21
856.616	3.39
856.909	-4.69
857.201	10.7
857.493	-19.93
857.785	-8.82
858.077	1.69
858.369	-8.95
858.661	-9.08
858.953	-4.62
859.245	7.98
859.537	27.24
859.829	-19.78
860.12	-4.11
860.412	7.09
860.703	-20.91
860.995	-7.79
861.286	-25.86
861.578	15.94
861.869	6.06
862.16	2.8
862.452	15.54
862.743	-11.26
863.034	-6.84
863.325	-12.8
863.616	0.45
863.907	-22.98
864.198	-49.62
864.488	14.36
864.779	-2.28
865.07	-4.61
865.36	-8.5
865.651	18.36
865.941	6.77
866.232	-48.82
866.522	4.16
866.813	-19.28
867.103	5.56
867.393	-5.35
867.683	17.32
867.973	-40.19
868.263	-6.18
868.553	11.09
868.843	3.22
869.133	4.52
869.423	2.64
869.713	4.45
870.002	18.7
870.292	5.2
870.582	19.02
870.871	9.51
871.161	-13.61
871.45	-21.69
871.739	-12.49
872.029	-27.56
872.318	5.18
872.607	38.09
872.896	1.21
873.185	13.08
873.474	-89.58
873.763	-1.25
874.052	-40.8
874.341	-0.33
874.63	4.9
874.918	-59.98
875.207	4.23
875.496	3.97
875.784	-31.24
876.073	-33.32
876.361	-48.45
876.649	-13.18
876.938	-4.93
877.226	-13.5
877.514	34.9
877.802	-21.45
878.09	-20.48
878.378	34.35
878.666	-21.95
878.954	-2.55
879.242	8.35
879.53	16.41
879.817	7.14
880.105	-26.19
880.392	18.74
880.68	-10.62
880.967	-5.3
881.255	-0.31
881.542	-38.68
881.83	-62.37
882.117	21.03
882.404	-61.65
882.691	26.66
882.978	-16.6
883.265	-26.37
883.552	21.49
883.839	4.51
884.126	18.76
884.413	15.39
884.699	19.19
884.986	13.55
885.273	14.47
885.559	14.47
885.846	14.47
