Data from 0357_chest_Reflection__2__85.txt Node

Date: Mon Dec 11 18:35:22 CST 2023
User: ToomeyLab
Spectrometer: FLMS14357
Trigger mode: 0
Integration Time (sec): 1.000000E-2
Scans to average: 100
Electric dark correction enabled: true
Nonlinearity correction enabled: false
Boxcar width: 0
XAxis mode: Wavelengths
Number of Pixels in Spectrum: 2048
>>>>>Begin Spectral Data<<<<<
189.047	229.95
189.435	229.95
189.823	229.95
190.211	1022.29
190.599	372.36
190.987	147.39
191.375	187.81
191.763	191.61
192.151	197.07
192.538	29.74
192.926	-1308.25
193.314	0.54
193.702	205.32
194.089	2573.02
194.477	261.65
194.864	86.16
195.252	569.19
195.639	406.02
196.027	124.35
196.414	12.98
196.801	53.46
197.189	-0.24
197.576	42.85
197.963	553.97
198.351	11.99
198.738	-2.75
199.125	12.45
199.512	4.08
199.899	-13.5
200.286	16.29
200.673	-341.62
201.06	32.74
201.447	-23.93
201.833	2.3
202.22	23.79
202.607	-67.43
202.994	-29.09
203.38	-91.53
203.767	40.17
204.154	17.77
204.54	-24.95
204.927	-8.05
205.313	36.46
205.699	-3.39
206.086	-107.11
206.472	7.66
206.858	10.58
207.245	-8.45
207.631	12.62
208.017	12.97
208.403	34.51
208.789	-51.56
209.175	17.96
209.561	-17.15
209.947	11.45
210.333	36.74
210.719	0.72
211.105	21.29
211.491	15.14
211.876	-15.06
212.262	-22.09
212.648	-10.66
213.034	-26.56
213.419	-19.33
213.805	-29.54
214.19	-3.3
214.576	-6.59
214.961	8.14
215.346	-14.1
215.732	-1.15
216.117	3.55
216.502	-20.32
216.888	-17.78
217.273	14.58
217.658	-32.07
218.043	-39.89
218.428	-14.59
218.813	11.64
219.198	-10.84
219.583	-8.18
219.968	4.48
220.353	-18.67
220.738	22.37
221.122	4.1
221.507	36.36
221.892	22.58
222.276	-13.59
222.661	-7.55
223.046	3.98
223.43	2.06
223.815	-5.67
224.199	4.65
224.583	-12.46
224.968	7.66
225.352	-0.95
225.736	2.97
226.121	-4.13
226.505	-4.15
226.889	0.46
227.273	-2.75
227.657	11.42
228.041	1.72
228.425	2.19
228.809	-0.11
229.193	3.43
229.577	3.66
229.961	2.13
230.344	3.5
230.728	3.3
231.112	3.52
231.495	3.87
231.879	3.6
232.263	2.4
232.646	2.89
233.03	2.23
233.413	3.99
233.797	3.6
234.18	4.41
234.563	1.79
234.946	3.04
235.33	5.31
235.713	2.45
236.096	2.78
236.479	4.78
236.862	0.78
237.245	1.18
237.628	2.31
238.011	1.84
238.394	3.55
238.777	1.61
239.16	1.83
239.543	1.89
239.925	2.48
240.308	3.39
240.691	1.52
241.073	3.31
241.456	3.3
241.838	3.66
242.221	4.59
242.603	2.46
242.986	2.79
243.368	3.68
243.75	3.9
244.133	3.55
244.515	2.75
244.897	3.42
245.279	3.09
245.661	3.4
246.043	4
246.425	3.37
246.807	3.36
247.189	3.15
247.571	2.82
247.953	2.48
248.335	3.51
248.717	3.43
249.098	3.14
249.48	3.02
249.862	3.59
250.243	3.09
250.625	3.41
251.006	2.98
251.388	3.24
251.769	3.51
252.151	4.35
252.532	3.53
252.913	3.45
253.295	2.92
253.676	2.97
254.057	3.01
254.438	3.49
254.819	2.96
255.2	2.72
255.581	1.84
255.962	2.68
256.343	3.22
256.724	2.67
257.105	2.99
257.486	1.98
257.867	2.75
258.247	3.68
258.628	2.24
259.009	3.36
259.389	3.12
259.77	2.85
260.15	2.81
260.531	3.08
260.911	2.54
261.292	2.68
261.672	2.78
262.052	2.93
262.432	2.99
262.813	2.81
263.193	2.84
263.573	3.34
263.953	2.74
264.333	2.24
264.713	3.22
265.093	2.58
265.473	3.2
265.853	2.62
266.233	2.62
266.612	2.47
266.992	2.92
267.372	4.19
267.752	3.47
268.131	3.38
268.511	2.45
268.89	2.94
269.27	3.46
269.649	2.48
270.029	3.02
270.408	2.51
270.787	2.8
271.167	2.4
271.546	2.52
271.925	3.12
272.304	2.99
272.683	2.8
273.062	2.56
273.441	2.71
273.82	2.54
274.199	2.88
274.578	3.03
274.957	3.26
275.336	2.59
275.715	2.57
276.093	3.23
276.472	3.35
276.851	3.27
277.229	2.85
277.608	2.26
277.986	2.89
278.365	2.03
278.743	2.48
279.122	2.84
279.5	2.27
279.878	2.5
280.257	2.24
280.635	2.81
281.013	2.79
281.391	3.33
281.769	2.86
282.147	2.26
282.525	2.13
282.903	2.76
283.281	2.52
283.659	2.43
284.037	2.08
284.415	2.59
284.792	2.76
285.17	2.81
285.548	2.82
285.925	2.36
286.303	2.71
286.68	2.93
287.058	2.81
287.435	3.04
287.813	2.8
288.19	3.1
288.567	2.26
288.945	3.24
289.322	2.8
289.699	2.42
290.076	2.49
290.453	3.01
290.83	3.38
291.207	3.31
291.584	3.02
291.961	2.9
292.338	2.6
292.715	2.86
293.092	2.92
293.469	2.9
293.845	3
294.222	3.71
294.599	2.4
294.975	2.68
295.352	2.34
295.728	2.68
296.105	2.69
296.481	2.4
296.858	2.87
297.234	3.2
297.61	3.2
297.986	3.17
298.363	2.62
298.739	2.84
299.115	2.55
299.491	3.28
299.867	2.94
300.243	2.69
300.619	2.52
300.995	3.07
301.371	2.48
301.746	2.68
302.122	2.56
302.498	3.12
302.874	2.92
303.249	3.15
303.625	2.63
304	3.06
304.376	3.36
304.751	2.37
305.127	3.39
305.502	2.9
305.878	2.55
306.253	3.06
306.628	3.13
307.003	3.08
307.378	2.81
307.754	3.2
308.129	2.82
308.504	2.85
308.879	2.07
309.254	3.15
309.629	3.53
310.003	3.02
310.378	2.46
310.753	3.05
311.128	3.32
311.502	2.91
311.877	2.96
312.252	3.13
312.626	3.11
313.001	2.95
313.375	2.71
313.75	2.86
314.124	2.77
314.498	2.94
314.873	2.67
315.247	2.36
315.621	3.35
315.995	3.36
316.369	2.98
316.743	3.06
317.117	2.6
317.491	3.31
317.865	2.27
318.239	3.06
318.613	2.59
318.987	2.86
319.361	3.04
319.734	2.61
320.108	3.02
320.482	2.36
320.855	2.41
321.229	2.34
321.602	2.81
321.976	3.51
322.349	2.57
322.723	2.72
323.096	3.38
323.469	3.54
323.843	2.99
324.216	3.26
324.589	3.56
324.962	2.76
325.335	3.67
325.708	3.25
326.081	3.2
326.454	3.28
326.827	3.37
327.2	3.19
327.573	2.73
327.945	3.34
328.318	2.73
328.691	3.23
329.063	3.31
329.436	2.76
329.809	2.47
330.181	3.03
330.553	3.01
330.926	2.78
331.298	3.26
331.671	3.06
332.043	3.55
332.415	2.9
332.787	3.04
333.159	3.22
333.532	3.31
333.904	3.49
334.276	3.35
334.648	3.73
335.02	3.46
335.391	2.91
335.763	3.15
336.135	3.27
336.507	3.04
336.879	3.47
337.25	2.6
337.622	2.9
337.993	2.93
338.365	2.69
338.736	3.31
339.108	3.49
339.479	2.62
339.851	3.32
340.222	3.39
340.593	2.77
340.964	2.82
341.336	3.46
341.707	3.1
342.078	3.74
342.449	3.26
342.82	3.1
343.191	2.98
343.562	3.11
343.933	3.03
344.303	2.62
344.674	3.02
345.045	2.94
345.416	2.89
345.786	3.76
346.157	2.92
346.527	3.49
346.898	3.46
347.268	3.05
347.639	3.05
348.009	3.41
348.38	3.1
348.75	3.16
349.12	3.55
349.49	3.14
349.861	2.88
350.231	3.11
350.601	3.21
350.971	3.01
351.341	2.55
351.711	3.62
352.081	3.11
352.45	3.31
352.82	2.63
353.19	3.09
353.56	3.07
353.929	2.77
354.299	3.78
354.669	3.44
355.038	3.49
355.408	3.11
355.777	3.07
356.147	3.6
356.516	2.99
356.885	3.15
357.254	3.69
357.624	3.37
357.993	2.74
358.362	3.72
358.731	3.06
359.1	3.23
359.469	2.96
359.838	3.17
360.207	3.61
360.576	3.48
360.945	3.8
361.314	3.46
361.682	2.82
362.051	3.3
362.42	3.67
362.788	2.96
363.157	3.13
363.525	3
363.894	3.33
364.262	3.23
364.631	3.16
364.999	3.14
365.367	3.33
365.735	3.29
366.104	3.26
366.472	3.16
366.84	3.01
367.208	3.23
367.576	3.76
367.944	3.29
368.312	3.24
368.68	3.17
369.048	3.38
369.416	3.09
369.783	3.46
370.151	3.47
370.519	3.98
370.886	3.19
371.254	3.69
371.621	3.41
371.989	3.63
372.356	3.39
372.724	3.58
373.091	3.49
373.458	3.16
373.826	3.45
374.193	3.08
374.56	3.39
374.927	3.5
375.294	3.72
375.661	3.34
376.028	3.61
376.395	3.55
376.762	3.64
377.129	3.73
377.496	3.38
377.863	3.51
378.229	3.46
378.596	3.52
378.963	3.46
379.329	3.37
379.696	3.49
380.062	3.04
380.429	3.47
380.795	3.7
381.161	3.34
381.528	3.74
381.894	3.43
382.26	3.72
382.626	3.66
382.993	3.52
383.359	3.52
383.725	3.33
384.091	3.52
384.457	3.14
384.823	3.79
385.188	3.75
385.554	3.22
385.92	3.37
386.286	3.68
386.651	3.48
387.017	3.65
387.383	3.57
387.748	3.63
388.114	3.32
388.479	3.5
388.845	3.34
389.21	3.42
389.575	3.52
389.94	3.75
390.306	3.39
390.671	3.76
391.036	3.63
391.401	3.66
391.766	3.22
392.131	3.4
392.496	3.63
392.861	3.9
393.226	3.63
393.591	3.65
393.956	3.83
394.32	3.75
394.685	3.55
395.05	3.56
395.414	3.73
395.779	3.58
396.143	3.38
396.508	3.48
396.872	3.73
397.236	3.66
397.601	3.29
397.965	3.66
398.329	3.76
398.694	3.8
399.058	3.57
399.422	3.59
399.786	3.68
400.15	3.66
400.514	3.67
400.878	3.54
401.242	3.63
401.605	3.54
401.969	3.46
402.333	3.38
402.697	3.51
403.06	3.61
403.424	3.73
403.787	3.92
404.151	3.56
404.514	3.56
404.878	3.57
405.241	3.5
405.604	3.64
405.968	3.57
406.331	3.5
406.694	3.63
407.057	3.68
407.42	3.63
407.783	3.59
408.146	3.74
408.509	3.41
408.872	3.56
409.235	3.53
409.598	3.52
409.961	3.82
410.323	3.63
410.686	3.64
411.049	3.73
411.411	3.58
411.774	3.71
412.136	3.5
412.499	3.92
412.861	3.69
413.223	3.61
413.586	3.77
413.948	3.48
414.31	3.63
414.672	3.7
415.035	3.65
415.397	3.64
415.759	3.78
416.121	3.6
416.483	3.66
416.845	3.84
417.206	3.61
417.568	3.89
417.93	3.84
418.292	3.58
418.653	3.55
419.015	3.73
419.377	3.67
419.738	3.81
420.1	3.54
420.461	3.52
420.822	3.63
421.184	3.56
421.545	3.59
421.906	3.59
422.267	3.73
422.629	3.61
422.99	3.66
423.351	3.55
423.712	3.6
424.073	3.67
424.434	3.57
424.795	3.73
425.155	3.62
425.516	3.52
425.877	3.5
426.238	3.64
426.598	3.7
426.959	3.63
427.32	3.64
427.68	3.71
428.041	3.53
428.401	3.61
428.761	3.74
429.122	3.44
429.482	3.61
429.842	3.75
430.202	3.72
430.563	3.62
430.923	3.71
431.283	3.67
431.643	3.84
432.003	3.74
432.363	3.96
432.722	3.73
433.082	3.74
433.442	3.79
433.802	3.63
434.161	3.79
434.521	3.63
434.881	3.75
435.24	3.73
435.6	3.68
435.959	3.79
436.319	3.73
436.678	3.71
437.037	3.72
437.396	3.81
437.756	3.83
438.115	3.96
438.474	3.82
438.833	3.7
439.192	3.67
439.551	3.81
439.91	3.69
440.269	3.75
440.628	3.7
440.987	3.85
441.345	3.8
441.704	3.8
442.063	3.81
442.421	3.74
442.78	3.6
443.138	3.71
443.497	3.68
443.855	3.77
444.214	3.87
444.572	3.71
444.93	4
445.288	3.89
445.647	3.94
446.005	3.7
446.363	3.79
446.721	3.71
447.079	3.82
447.437	3.83
447.795	3.61
448.153	3.87
448.51	3.75
448.868	3.65
449.226	3.68
449.584	3.83
449.941	3.79
450.299	3.78
450.656	3.68
451.014	3.85
451.371	3.72
451.729	3.88
452.086	3.96
452.443	3.97
452.801	3.9
453.158	3.96
453.515	3.75
453.872	3.8
454.229	3.68
454.586	3.8
454.943	3.89
455.3	3.82
455.657	3.91
456.014	3.71
456.371	3.92
456.727	3.94
457.084	3.89
457.441	3.99
457.797	3.85
458.154	3.95
458.51	3.97
458.867	3.65
459.223	3.68
459.58	3.86
459.936	3.98
460.292	3.83
460.648	3.94
461.005	3.77
461.361	3.79
461.717	3.75
462.073	3.84
462.429	3.79
462.785	3.76
463.141	3.8
463.496	4.09
463.852	3.82
464.208	3.81
464.564	3.84
464.919	3.96
465.275	3.91
465.631	3.77
465.986	4.07
466.342	3.93
466.697	3.84
467.052	3.82
467.408	4.09
467.763	3.99
468.118	3.88
468.473	3.76
468.829	4
469.184	4.18
469.539	3.94
469.894	3.69
470.249	3.87
470.603	3.91
470.958	3.92
471.313	4.08
471.668	4.18
472.023	4.19
472.377	4.01
472.732	3.8
473.086	4.08
473.441	4.02
473.795	4.14
474.15	4.01
474.504	4.06
474.859	4.04
475.213	4.03
475.567	4.09
475.921	3.95
476.275	3.92
476.63	3.88
476.984	3.92
477.338	3.74
477.692	4.01
478.045	4.03
478.399	3.95
478.753	3.76
479.107	3.94
479.461	4.02
479.814	3.93
480.168	3.98
480.521	4.04
480.875	3.88
481.228	3.85
481.582	4.11
481.935	3.98
482.289	4.09
482.642	3.99
482.995	3.94
483.348	3.98
483.701	3.75
484.055	4.05
484.408	3.88
484.761	4.03
485.114	3.88
485.466	3.8
485.819	3.77
486.172	3.75
486.525	3.76
486.878	3.81
487.23	3.83
487.583	3.94
487.936	3.9
488.288	3.95
488.641	3.88
488.993	3.78
489.345	3.89
489.698	3.83
490.05	3.79
490.402	3.8
490.754	3.89
491.107	3.91
491.459	3.94
491.811	4.02
492.163	4.01
492.515	3.99
492.866	3.96
493.218	3.84
493.57	3.86
493.922	3.88
494.274	3.95
494.625	3.94
494.977	4.09
495.328	4.11
495.68	4.19
496.031	4.03
496.383	4.16
496.734	4.12
497.086	4.17
497.437	4.21
497.788	4.12
498.139	4.1
498.49	4.08
498.842	4.18
499.193	4.13
499.544	4.01
499.894	4.18
500.245	4.07
500.596	4.13
500.947	4.13
501.298	4.12
501.648	4.14
501.999	4.14
502.35	4.07
502.7	4.27
503.051	4.13
503.401	4.18
503.752	4.1
504.102	4.11
504.452	4.14
504.803	4.28
505.153	4.26
505.503	4.24
505.853	4.29
506.203	4.18
506.553	4.31
506.903	4.06
507.253	4.35
507.603	4.03
507.953	4.32
508.303	4.09
508.652	4.28
509.002	4.1
509.352	4.35
509.701	4.3
510.051	4.15
510.4	4.1
510.75	4.14
511.099	4.22
511.449	4.32
511.798	4.23
512.147	4.33
512.496	4.25
512.846	4.23
513.195	4.37
513.544	4.23
513.893	4.19
514.242	4.28
514.591	4.14
514.939	4.29
515.288	4.37
515.637	4.26
515.986	4.26
516.334	4.31
516.683	4.49
517.032	4.56
517.38	4.3
517.729	4.28
518.077	4.45
518.426	4.36
518.774	4.33
519.122	4.43
519.47	4.43
519.819	4.31
520.167	4.28
520.515	4.28
520.863	4.18
521.211	4.29
521.559	4.25
521.907	4.33
522.255	4.29
522.602	4.45
522.95	4.44
523.298	4.38
523.645	4.58
523.993	4.36
524.341	4.48
524.688	4.39
525.036	4.29
525.383	4.43
525.73	4.49
526.078	4.57
526.425	4.45
526.772	4.36
527.119	4.46
527.466	4.37
527.814	4.41
528.161	4.36
528.508	4.45
528.854	4.41
529.201	4.34
529.548	4.4
529.895	4.33
530.242	4.3
530.588	4.3
530.935	4.27
531.282	4.31
531.628	4.38
531.975	4.44
532.321	4.5
532.667	4.47
533.014	4.38
533.36	4.45
533.706	4.58
534.052	4.48
534.399	4.46
534.745	4.48
535.091	4.4
535.437	4.4
535.783	4.47
536.129	4.57
536.474	4.59
536.82	4.55
537.166	4.58
537.512	4.58
537.857	4.65
538.203	4.54
538.549	4.6
538.894	4.7
539.239	4.66
539.585	4.59
539.93	4.67
540.276	4.69
540.621	4.64
540.966	4.78
541.311	4.77
541.656	4.65
542.001	4.76
542.346	4.73
542.691	4.62
543.036	4.58
543.381	4.54
543.726	4.62
544.071	4.64
544.415	4.62
544.76	4.71
545.105	4.65
545.449	4.63
545.794	4.8
546.138	4.78
546.483	4.82
546.827	4.8
547.171	4.75
547.516	4.72
547.86	4.77
548.204	4.88
548.548	4.9
548.892	4.81
549.236	4.8
549.58	4.93
549.924	4.98
550.268	5
550.612	5.05
550.956	4.91
551.3	4.8
551.643	4.95
551.987	5.21
552.33	5.15
552.674	5.14
553.017	5.12
553.361	5.06
553.704	4.91
554.048	5.13
554.391	5.03
554.734	5.08
555.077	5.26
555.42	5.19
555.764	5.08
556.107	5.26
556.45	5.01
556.793	5
557.135	5.15
557.478	5.14
557.821	5.19
558.164	5.5
558.507	5.03
558.849	5.28
559.192	5.27
559.534	5.08
559.877	5.42
560.219	5.11
560.562	5.51
560.904	5.23
561.246	5.31
561.589	5.3
561.931	5.42
562.273	5.14
562.615	5.38
562.957	5.3
563.299	5.63
563.641	5.39
563.983	5.59
564.325	5.71
564.667	5.52
565.008	5.56
565.35	5.53
565.692	5.42
566.033	5.4
566.375	5.71
566.716	5.34
567.058	5.5
567.399	5.6
567.741	5.35
568.082	5.56
568.423	5.44
568.764	5.63
569.105	5.69
569.447	5.74
569.788	5.64
570.129	5.61
570.47	5.56
570.811	5.52
571.151	5.52
571.492	5.7
571.833	5.67
572.174	5.83
572.514	5.81
572.855	5.57
573.195	5.93
573.536	5.66
573.876	5.84
574.217	5.75
574.557	5.73
574.898	5.67
575.238	6.01
575.578	5.87
575.918	5.78
576.258	5.84
576.598	6.02
576.938	5.78
577.278	5.77
577.618	5.73
577.958	5.8
578.298	6.06
578.638	6.01
578.977	6.22
579.317	5.88
579.657	5.81
579.996	5.91
580.336	6.12
580.675	6.07
581.014	6.04
581.354	6.08
581.693	5.94
582.032	5.58
582.372	6.2
582.711	5.94
583.05	6.21
583.389	6.13
583.728	6.26
584.067	5.92
584.406	6
584.745	6.24
585.083	6.23
585.422	6.35
585.761	6.59
586.1	6.21
586.438	6.03
586.777	6.21
587.115	6.1
587.454	6.32
587.792	6.17
588.13	6.38
588.469	6.35
588.807	6.11
589.145	6.64
589.483	6.55
589.821	6.3
590.159	6.39
590.497	6.49
590.835	6.5
591.173	6.51
591.511	6.46
591.849	6.61
592.187	6.17
592.524	6.39
592.862	6.52
593.2	6.35
593.537	6.61
593.875	6.85
594.212	6.64
594.55	6.58
594.887	6.52
595.224	6.86
595.561	6.71
595.899	6.68
596.236	6.69
596.573	6.72
596.91	6.41
597.247	6.7
597.584	6.5
597.921	6.71
598.258	6.73
598.594	6.78
598.931	6.73
599.268	6.68
599.604	6.84
599.941	6.89
600.277	6.66
600.614	7.01
600.95	6.92
601.287	6.92
601.623	6.87
601.959	7.1
602.296	7.2
602.632	6.91
602.968	7.07
603.304	7.13
603.64	7.14
603.976	7.36
604.312	7.29
604.648	7.05
604.984	7.4
605.319	7.34
605.655	7.19
605.991	6.88
606.326	7.1
606.662	7.13
606.998	6.98
607.333	7.2
607.668	7.13
608.004	6.97
608.339	7.42
608.674	7.24
609.01	7.08
609.345	7.23
609.68	7.27
610.015	7.43
610.35	7.28
610.685	7.14
611.02	7.22
611.355	7.36
611.689	7.42
612.024	7.17
612.359	7.37
612.694	7.39
613.028	7.32
613.363	7.49
613.697	7.61
614.032	7.56
614.366	7.5
614.7	7.43
615.035	7.51
615.369	7.7
615.703	7.89
616.037	7.67
616.371	8.01
616.705	7.76
617.039	7.43
617.373	7.69
617.707	7.68
618.041	7.98
618.375	7.95
618.709	7.85
619.042	7.92
619.376	7.97
619.71	7.79
620.043	7.97
620.377	7.79
620.71	7.9
621.043	7.64
621.377	7.62
621.71	8.15
622.043	7.94
622.376	7.79
622.709	8.48
623.043	8.07
623.376	7.83
623.709	8.57
624.041	8.03
624.374	8.08
624.707	7.96
625.04	8.57
625.373	8.12
625.705	8.14
626.038	7.79
626.37	8.25
626.703	8.05
627.035	8.15
627.368	8.27
627.7	8.26
628.032	8.06
628.365	8.44
628.697	8.21
629.029	8.27
629.361	8.15
629.693	8.62
630.025	8.46
630.357	7.97
630.689	7.84
631.021	8.31
631.353	8.28
631.684	8.6
632.016	8.68
632.348	8.53
632.679	8.64
633.011	8.58
633.342	8.77
633.674	8.95
634.005	8.92
634.336	8.79
634.668	8.25
634.999	8.7
635.33	8.39
635.661	8.75
635.992	8.81
636.323	8.56
636.654	9.07
636.985	8.44
637.316	8.92
637.647	8.26
637.977	8.66
638.308	8.98
638.639	8.41
638.969	8.73
639.3	9.03
639.63	8.5
639.961	8.97
640.291	9.42
640.622	9.06
640.952	9.16
641.282	8.79
641.612	9.05
641.943	8.84
642.273	9.45
642.603	9.04
642.933	9.21
643.263	9.18
643.592	8.96
643.922	9.04
644.252	9
644.582	9.16
644.911	8.98
645.241	9.07
645.571	9.81
645.9	9.15
646.23	9.05
646.559	9.5
646.888	9.28
647.218	9.25
647.547	9.18
647.876	8.98
648.205	8.98
648.534	9.63
648.863	9.62
649.192	9.54
649.521	9.37
649.85	9.42
650.179	9.61
650.508	9.81
650.837	8.84
651.165	9.66
651.494	9.53
651.822	9.59
652.151	9.94
652.479	9.76
652.808	9.58
653.136	9.59
653.465	9.84
653.793	9.69
654.121	10.2
654.449	9.45
654.777	9.95
655.105	9.59
655.433	9.59
655.761	9.94
656.089	9.88
656.417	10.39
656.745	10.07
657.073	10.5
657.4	10.26
657.728	10.12
658.056	9.9
658.383	9.74
658.711	10.43
659.038	10.21
659.365	10.13
659.693	10.07
660.02	9.4
660.347	10.05
660.674	10.11
661.001	9.95
661.329	10.25
661.656	10.02
661.982	10.17
662.309	10.24
662.636	10.51
662.963	10.55
663.29	10.46
663.616	10.25
663.943	9.83
664.27	10.44
664.596	11.12
664.923	10.75
665.249	10.36
665.576	10.11
665.902	10.35
666.228	11.14
666.554	10.26
666.881	10.46
667.207	10.75
667.533	10.04
667.859	10.86
668.185	10.46
668.511	10.65
668.837	11.01
669.162	10.88
669.488	10.51
669.814	10.33
670.139	10.72
670.465	10.73
670.791	10.53
671.116	10.92
671.442	11.33
671.767	10.68
672.092	10.76
672.418	10.88
672.743	10.36
673.068	10.72
673.393	11.01
673.718	9.95
674.043	11.08
674.368	11.25
674.693	10.79
675.018	11.25
675.343	11.26
675.667	11.39
675.992	11.5
676.317	11.1
676.641	11.21
676.966	11.05
677.29	11
677.615	11.53
677.939	10.61
678.264	10.82
678.588	11.56
678.912	11.02
679.236	10.87
679.56	11.66
679.885	11.39
680.209	11.24
680.532	11.84
680.856	11.9
681.18	11.31
681.504	10.96
681.828	10.96
682.152	11.02
682.475	11.46
682.799	11.57
683.122	11.65
683.446	10.82
683.769	11.58
684.093	11.13
684.416	11.98
684.739	11.58
685.062	12.1
685.386	11.7
685.709	11.13
686.032	11.83
686.355	11.86
686.678	12.12
687.001	12.1
687.324	10.36
687.646	11.42
687.969	11.79
688.292	12.16
688.614	11.9
688.937	12.39
689.26	12.01
689.582	11.04
689.904	11.86
690.227	12.17
690.549	11.84
690.871	11.18
691.194	11.55
691.516	11.91
691.838	11.62
692.16	12.72
692.482	12.66
692.804	12.28
693.126	12.05
693.448	11.92
693.769	12.09
694.091	12.79
694.413	12.59
694.735	11.93
695.056	12.64
695.378	12.87
695.699	11.58
696.021	11.75
696.342	12.17
696.663	12.49
696.984	12.47
697.306	13.3
697.627	12.04
697.948	12.73
698.269	12.28
698.59	12.01
698.911	11.94
699.232	12.81
699.553	12.5
699.873	12.14
700.194	12.63
700.515	13.11
700.835	12.21
701.156	12.73
701.477	12.77
701.797	12.41
702.117	12.82
702.438	12.15
702.758	13.18
703.078	12.69
703.398	12.98
703.719	13.55
704.039	13.09
704.359	12.29
704.679	13.36
704.999	13.76
705.319	12.4
705.638	12.17
705.958	12.46
706.278	11.83
706.597	13.37
706.917	12.68
707.237	13.3
707.556	11.96
707.876	13.01
708.195	13.48
708.514	13.98
708.834	14.7
709.153	13.12
709.472	12.64
709.791	13.93
710.11	13.03
710.429	12.92
710.748	12.09
711.067	13.59
711.386	13.68
711.705	12.99
712.023	12.71
712.342	15.01
712.661	12.03
712.979	12.7
713.298	11.79
713.616	13.73
713.935	13.46
714.253	13.15
714.572	11.98
714.89	12.96
715.208	12.74
715.526	12.54
715.844	12.93
716.162	12.74
716.48	14.34
716.798	13.73
717.116	14.29
717.434	13.64
717.752	12.54
718.069	15.09
718.387	12.98
718.705	13.1
719.022	13.61
719.34	14.45
719.657	13.94
719.975	13.7
720.292	15.53
720.609	13.93
720.927	15.93
721.244	14.29
721.561	13.16
721.878	15.52
722.195	13.56
722.512	13
722.829	13.96
723.146	12.92
723.463	13.29
723.779	13.24
724.096	14.44
724.413	12.96
724.729	13.75
725.046	14.43
725.362	14.36
725.679	13.89
725.995	14.57
726.311	14.69
726.628	14.32
726.944	16.32
727.26	13.04
727.576	14.47
727.892	15.76
728.208	14.69
728.524	14.07
728.84	14.45
729.156	14.64
729.472	14.56
729.787	14.91
730.103	15.55
730.419	15.44
730.734	13.52
731.05	14.08
731.365	15.71
731.681	14.26
731.996	14.71
732.311	14.94
732.626	15.38
732.942	14.32
733.257	13.42
733.572	15.14
733.887	14.61
734.202	14.5
734.517	14.74
734.832	15
735.146	14.48
735.461	15.19
735.776	15.27
736.091	15.6
736.405	14.43
736.72	14.5
737.034	14.43
737.349	13.85
737.663	14.59
737.977	16.24
738.292	14.68
738.606	13.09
738.92	13.82
739.234	14.25
739.548	15.17
739.862	15.42
740.176	15.17
740.49	14.7
740.804	16.83
741.117	15.11
741.431	15.57
741.745	13.01
742.058	14.38
742.372	14.28
742.685	13.9
742.999	15.46
743.312	13.36
743.626	12.9
743.939	15.72
744.252	14.93
744.565	15.32
744.878	14.42
745.191	13.29
745.505	14.18
745.817	14.98
746.13	17.72
746.443	14.53
746.756	16.21
747.069	15.32
747.381	14.61
747.694	14.6
748.007	15.77
748.319	15.66
748.632	13.83
748.944	15.01
749.256	15.32
749.569	14.65
749.881	15.24
750.193	17.39
750.505	14.77
750.817	17.12
751.129	16.16
751.441	14.81
751.753	14.69
752.065	16.44
752.377	16.21
752.689	15.83
753	15.17
753.312	16.19
753.624	15.29
753.935	14.43
754.247	14.2
754.558	17.44
754.869	14.16
755.181	14.38
755.492	16.5
755.803	16.18
756.114	15.56
756.425	15.4
756.736	16.62
757.047	15.51
757.358	16.17
757.669	16.35
757.98	15.57
758.291	14.05
758.601	15.23
758.912	15.71
759.223	17.61
759.533	14.82
759.844	17.79
760.154	16.41
760.464	15.73
760.775	17.29
761.085	15.92
761.395	19.86
761.705	17.77
762.016	16.21
762.326	14.16
762.636	20.42
762.945	15.94
763.255	15.85
763.565	16.33
763.875	16.68
764.185	15.73
764.494	15.89
764.804	16.78
765.113	15.22
765.423	17.1
765.732	19.42
766.042	17.15
766.351	17.12
766.66	17.25
766.97	16.13
767.279	18.22
767.588	18.35
767.897	16.38
768.206	16.63
768.515	18.2
768.824	14.84
769.133	15.77
769.441	17.05
769.75	16.97
770.059	17.66
770.367	15.78
770.676	17.16
770.984	17.85
771.293	17.24
771.601	17.62
771.91	16.49
772.218	15.75
772.526	19.63
772.834	17.35
773.142	16.92
773.45	16.42
773.758	14.22
774.066	20.37
774.374	18.3
774.682	18.58
774.99	15.45
775.298	14.61
775.605	16.98
775.913	20.59
776.22	18.21
776.528	18.06
776.835	17.82
777.143	18
777.45	14.3
777.757	18.73
778.065	15.86
778.372	19.08
778.679	21.09
778.986	20.44
779.293	14.54
779.6	17.38
779.907	16.4
780.214	17.27
780.52	17.86
780.827	19.12
781.134	12.72
781.44	12.57
781.747	17.96
782.053	14.07
782.36	16.14
782.666	20.34
782.973	12.55
783.279	20.51
783.585	18.86
783.891	18.28
784.197	18.44
784.503	16.63
784.809	18.23
785.115	18.84
785.421	17.4
785.727	17.82
786.033	17.63
786.339	19.57
786.644	19.23
786.95	20.8
787.255	17.25
787.561	20.36
787.866	18.58
788.172	17.36
788.477	18.87
788.782	15.48
789.088	16.49
789.393	14.49
789.698	16.63
790.003	18.46
790.308	14.56
790.613	15.62
790.918	14.48
791.223	15.74
791.527	15.83
791.832	17.84
792.137	14.97
792.441	16.13
792.746	20.06
793.05	17.08
793.355	21.78
793.659	14.17
793.963	18.59
794.268	17.84
794.572	20.1
794.876	18.19
795.18	21.79
795.484	24.65
795.788	16.13
796.092	17.91
796.396	14.13
796.7	17.97
797.004	18.87
797.307	15.19
797.611	17.97
797.915	22.22
798.218	19.98
798.522	20.26
798.825	16.52
799.128	20.19
799.432	20.56
799.735	15.33
800.038	20.54
800.341	14.26
800.644	18.75
800.947	15.46
801.25	19.6
801.553	16.96
801.856	18.6
802.159	18.28
802.462	24.29
802.764	19.23
803.067	22.14
803.37	18.84
803.672	22.72
803.975	21.13
804.277	18.01
804.579	13.76
804.882	22.82
805.184	24.51
805.486	22.38
805.788	21.9
806.09	13.54
806.392	16.94
806.694	17.23
806.996	20.49
807.298	21.12
807.6	20.42
807.902	24.29
808.203	23.16
808.505	17.88
808.807	21.3
809.108	19.27
809.409	17.32
809.711	10.17
810.012	18.28
810.313	19.16
810.615	13.22
810.916	20.33
811.217	26.15
811.518	12.32
811.819	21.74
812.12	18.84
812.421	16.87
812.722	16.35
813.023	18.94
813.323	21.09
813.624	16.57
813.925	15.99
814.225	18.32
814.526	14.28
814.826	18.53
815.126	20.95
815.427	11.79
815.727	21
816.027	14.96
816.327	17.91
816.627	13.69
816.927	18.64
817.227	20.74
817.527	18.76
817.827	8.27
818.127	15.62
818.427	17.58
818.727	22
819.026	24.42
819.326	22.93
819.625	14.98
819.925	12.83
820.224	18.83
820.524	23.92
820.823	18.12
821.122	24.52
821.421	8.06
821.72	15.27
822.019	14.34
822.318	16.14
822.617	18.25
822.916	22.38
823.215	17.27
823.514	18.5
823.813	21.54
824.111	21.97
824.41	22.99
824.709	20.67
825.007	21.14
825.306	21.93
825.604	21.81
825.902	21.47
826.201	22.2
826.499	20.37
826.797	22.46
827.095	22.97
827.393	21.21
827.691	22.3
827.989	19.84
828.287	20.83
828.585	19.88
828.882	22.81
829.18	20.05
829.478	20.54
829.775	21.97
830.073	22.92
830.37	22.29
830.668	20.38
830.965	21.2
831.263	22.51
831.56	25.01
831.857	23.34
832.154	26.04
832.451	25.09
832.748	22.4
833.045	20.11
833.342	20.88
833.639	20.18
833.936	18.72
834.232	20.55
834.529	22.16
834.826	22.64
835.122	17.71
835.419	24.57
835.715	22.87
836.012	20.98
836.308	24.75
836.604	26.77
836.901	24.35
837.197	20.13
837.493	23.63
837.789	20.23
838.085	22.47
838.381	17.67
838.677	23.79
838.972	27.36
839.268	21.75
839.564	14.69
839.86	23.58
840.155	24.17
840.451	21.58
840.746	28.21
841.042	25.62
841.337	13.1
841.632	23.73
841.928	11.49
842.223	24.51
842.518	23.86
842.813	25.48
843.108	22.43
843.403	8.7
843.698	25.35
843.993	14.17
844.287	18.14
844.582	21.91
844.877	12.91
845.171	10.26
845.466	24.48
845.761	25.26
846.055	22.3
846.349	21.26
846.644	17.3
846.938	25.85
847.232	7.04
847.526	19.63
847.82	-10.86
848.114	-22.15
848.408	19.38
848.702	14.86
848.996	15.36
849.29	18.41
849.584	27.32
849.877	22.65
850.171	1.36
850.465	18.29
850.758	12.66
851.052	11.83
851.345	19.21
851.638	31.75
851.932	45.04
852.225	46.68
852.518	20.93
852.811	21.86
853.104	-10.42
853.397	9.36
853.69	16.67
853.983	-4.68
854.276	30.38
854.569	47.46
854.861	25.8
855.154	-1.21
855.447	-14.89
855.739	38.01
856.032	15.52
856.324	46.26
856.616	17.08
856.909	17.31
857.201	14.19
857.493	5.02
857.785	6.76
858.077	15.38
858.369	43.1
858.661	28.6
858.953	53.45
859.245	7.19
859.537	39.77
859.829	25.09
860.12	24.46
860.412	12.77
860.703	16.65
860.995	29.9
861.286	19.7
861.578	9.99
861.869	26.35
862.16	14.32
862.452	18.5
862.743	11.02
863.034	11.76
863.325	17
863.616	15.5
863.907	2.88
864.198	3.75
864.488	24.38
864.779	19.08
865.07	26.05
865.36	32.14
865.651	15.68
865.941	42.43
866.232	-1.66
866.522	-16.77
866.813	13.52
867.103	18.78
867.393	43.87
867.683	-1.93
867.973	13.39
868.263	-8.9
868.553	12.12
868.843	24.81
869.133	-2.67
869.423	-12.13
869.713	5.56
870.002	-9.35
870.292	35.54
870.582	62.93
870.871	25.98
871.161	51.02
871.45	-17.44
871.739	27.61
872.029	-33.28
872.318	-8.43
872.607	43.7
872.896	21.18
873.185	-20.33
873.474	8.49
873.763	38.56
874.052	20.56
874.341	5.21
874.63	-4.15
874.918	10.99
875.207	5.58
875.496	31.52
875.784	-16.86
876.073	-6.32
876.361	22.43
876.649	26.9
876.938	6.67
877.226	11.95
877.514	1.76
877.802	37.71
878.09	35.66
878.378	39.05
878.666	24.96
878.954	12.17
879.242	24.62
879.53	15.94
879.817	-21.71
880.105	43.14
880.392	101.5
880.68	10.15
880.967	45.62
881.255	32.56
881.542	33.63
881.83	25.53
882.117	16.44
882.404	-4.43
882.691	2.82
882.978	20.15
883.265	-18.71
883.552	27.42
883.839	19.4
884.126	-15.49
884.413	30.27
884.699	17.5
884.986	27.07
885.273	26.79
885.559	26.79
885.846	26.79
