Data from 0357_forehead_Reflection__1__95.txt Node

Date: Mon Dec 11 18:51:07 CST 2023
User: ToomeyLab
Spectrometer: FLMS14357
Trigger mode: 0
Integration Time (sec): 1.000000E-2
Scans to average: 100
Electric dark correction enabled: true
Nonlinearity correction enabled: false
Boxcar width: 0
XAxis mode: Wavelengths
Number of Pixels in Spectrum: 2048
>>>>>Begin Spectral Data<<<<<
189.047	-1202.3
189.435	-1202.3
189.823	-1202.3
190.211	316
190.599	244.46
190.987	47.77
191.375	192.61
191.763	34.28
192.151	140.17
192.538	215.69
192.926	444.33
193.314	-2.39
193.702	136.26
194.089	-2258.73
194.477	150.1
194.864	48.56
195.252	-48.58
195.639	185.94
196.027	151.19
196.414	-34.86
196.801	113.48
197.189	72.46
197.576	133.15
197.963	-2868.25
198.351	-32.21
198.738	-9.16
199.125	-37.89
199.512	20.24
199.899	56.3
200.286	13.86
200.673	-184.47
201.06	117.72
201.447	15.3
201.833	61.72
202.22	72.72
202.607	27.88
202.994	-34.12
203.38	1.08
203.767	41.12
204.154	66.98
204.54	59.02
204.927	-47.59
205.313	2.78
205.699	10.91
206.086	-59.36
206.472	60.08
206.858	29.64
207.245	13.84
207.631	40.67
208.017	0.13
208.403	43.67
208.789	-15.21
209.175	22.62
209.561	-4.02
209.947	1.55
210.333	22.07
210.719	7.6
211.105	27.15
211.491	14.01
211.876	17.11
212.262	-7.44
212.648	-3.54
213.034	11.27
213.419	-4.83
213.805	-3.91
214.19	4.66
214.576	-7.7
214.961	3.69
215.346	-13.35
215.732	20.5
216.117	26.17
216.502	17.84
216.888	12.15
217.273	37.76
217.658	1.05
218.043	-27.92
218.428	-2.27
218.813	16.3
219.198	3.05
219.583	-9.54
219.968	0.37
220.353	-14.28
220.738	37.95
221.122	15.46
221.507	30.93
221.892	-1.11
222.276	4.47
222.661	14.64
223.046	4.43
223.43	2.86
223.815	-0.5
224.199	5.03
224.583	9.76
224.968	8.57
225.352	2.34
225.736	7.67
226.121	3.67
226.505	-3.17
226.889	11.94
227.273	4.9
227.657	9.43
228.041	8.02
228.425	2.71
228.809	1.55
229.193	6.14
229.577	4.96
229.961	5.85
230.344	6.27
230.728	5.77
231.112	4.67
231.495	6.19
231.879	4.26
232.263	5.3
232.646	5.29
233.03	5.96
233.413	4.89
233.797	6
234.18	5.44
234.563	6.57
234.946	3.85
235.33	9.42
235.713	5.36
236.096	5.97
236.479	5.79
236.862	4.62
237.245	5.51
237.628	5.99
238.011	3.48
238.394	4.51
238.777	5.35
239.16	4.29
239.543	5.48
239.925	4.47
240.308	3.84
240.691	5.37
241.073	4.99
241.456	7.18
241.838	7.34
242.221	5.81
242.603	4.81
242.986	5.26
243.368	4.8
243.75	5.15
244.133	5.38
244.515	4.84
244.897	5.48
245.279	5.45
245.661	5.25
246.043	5.75
246.425	5.79
246.807	5.13
247.189	4.9
247.571	5.3
247.953	4.56
248.335	5.22
248.717	5.2
249.098	5.06
249.48	5.08
249.862	5.79
250.243	5.22
250.625	5.19
251.006	5.18
251.388	4.97
251.769	5.76
252.151	6.6
252.532	5.04
252.913	5.46
253.295	6.45
253.676	5.02
254.057	4.67
254.438	5.79
254.819	5.28
255.2	5.03
255.581	4.78
255.962	5.71
256.343	5.65
256.724	5.16
257.105	5.55
257.486	6.5
257.867	5.93
258.247	3.47
258.628	5.81
259.009	6.04
259.389	6.08
259.77	5.01
260.15	5.54
260.531	4.52
260.911	4.9
261.292	5.06
261.672	4.98
262.052	5.15
262.432	5.2
262.813	5.16
263.193	5.14
263.573	5.43
263.953	5.32
264.333	5.14
264.713	5.89
265.093	5.47
265.473	5.44
265.853	4.57
266.233	4.73
266.612	5.05
266.992	6.54
267.372	5.87
267.752	5.43
268.131	5.33
268.511	4.51
268.89	5.6
269.27	6.03
269.649	5.76
270.029	5.64
270.408	5.3
270.787	4.7
271.167	3.78
271.546	4.93
271.925	4.34
272.304	5.32
272.683	4.98
273.062	4.47
273.441	5.31
273.82	5.47
274.199	4.71
274.578	5.49
274.957	5.39
275.336	5.37
275.715	4.94
276.093	5.9
276.472	5.89
276.851	5.18
277.229	5.77
277.608	5.01
277.986	5.5
278.365	5.6
278.743	5.29
279.122	5.13
279.5	5.34
279.878	4.91
280.257	5.1
280.635	5.18
281.013	5.05
281.391	5.46
281.769	5.39
282.147	5.09
282.525	5.18
282.903	5.2
283.281	4.72
283.659	4.9
284.037	4.88
284.415	5.03
284.792	5.69
285.17	5.22
285.548	5.07
285.925	5.08
286.303	5.39
286.68	5.3
287.058	5.15
287.435	5.17
287.813	5.6
288.19	5.18
288.567	5.17
288.945	5.54
289.322	4.98
289.699	5.29
290.076	5.37
290.453	6.13
290.83	6.21
291.207	5.82
291.584	5.6
291.961	6.01
292.338	5.75
292.715	6.05
293.092	5.57
293.469	6.23
293.845	5.78
294.222	6.41
294.599	6.11
294.975	5.4
295.352	5.62
295.728	5.92
296.105	6.16
296.481	6.11
296.858	6.1
297.234	6.48
297.61	6.37
297.986	6.44
298.363	6.43
298.739	6.33
299.115	6.12
299.491	6.38
299.867	6.62
300.243	6.47
300.619	6.43
300.995	6.55
301.371	6.37
301.746	6.5
302.122	6.86
302.498	7.35
302.874	6.93
303.249	6.7
303.625	6.91
304	7.64
304.376	7.29
304.751	7.18
305.127	7.01
305.502	7.24
305.878	7.31
306.253	7.75
306.628	7.38
307.003	7.69
307.378	7.26
307.754	7.72
308.129	7.8
308.504	7.09
308.879	7.38
309.254	8.47
309.629	8.02
310.003	8.55
310.378	7.66
310.753	8.45
311.128	8.42
311.502	7.78
311.877	8.67
312.252	8.47
312.626	8.53
313.001	8.63
313.375	8.58
313.75	8.59
314.124	8.75
314.498	8.93
314.873	8.67
315.247	8.88
315.621	9.41
315.995	9.61
316.369	9.1
316.743	9.6
317.117	9.74
317.491	9.98
317.865	9.32
318.239	9.24
318.613	9.72
318.987	10.23
319.361	10.03
319.734	9.86
320.108	10.1
320.482	9.59
320.855	9.71
321.229	10.24
321.602	10.33
321.976	10.54
322.349	10.64
322.723	10.21
323.096	11.19
323.469	11.22
323.843	10.24
324.216	11.21
324.589	11.19
324.962	10.82
325.335	10.59
325.708	11.4
326.081	11.34
326.454	11.26
326.827	11
327.2	10.63
327.573	11.16
327.945	11.61
328.318	11.24
328.691	11.65
329.063	11.28
329.436	11.08
329.809	10.65
330.181	11.88
330.553	11.72
330.926	11.62
331.298	12.02
331.671	11.4
332.043	12.21
332.415	11.86
332.787	12.11
333.159	12.14
333.532	12.1
333.904	12.31
334.276	12.54
334.648	12.08
335.02	12.16
335.391	12.11
335.763	12.04
336.135	12.96
336.507	12.88
336.879	13.03
337.25	12.41
337.622	12.18
337.993	12.27
338.365	12.51
338.736	12.8
339.108	13.06
339.479	12.86
339.851	12.93
340.222	12.65
340.593	12.6
340.964	13.24
341.336	12.46
341.707	12.58
342.078	13.61
342.449	13.59
342.82	12.76
343.191	13.23
343.562	13.47
343.933	13.34
344.303	13.53
344.674	13.44
345.045	13.68
345.416	13.01
345.786	13.69
346.157	13.25
346.527	13.88
346.898	13.72
347.268	14.07
347.639	13.87
348.009	13.92
348.38	13.59
348.75	13.83
349.12	13.96
349.49	13.85
349.861	13.61
350.231	13.83
350.601	14.06
350.971	14.5
351.341	13.54
351.711	14.14
352.081	14.21
352.45	14.67
352.82	14.34
353.19	14.41
353.56	14.36
353.929	14.2
354.299	14.75
354.669	14.3
355.038	14.42
355.408	14.52
355.777	14.69
356.147	15.03
356.516	14.34
356.885	15.04
357.254	14.84
357.624	14.86
357.993	14.78
358.362	14.77
358.731	15.07
359.1	14.69
359.469	15.09
359.838	15.23
360.207	15.26
360.576	15.58
360.945	15.41
361.314	15.79
361.682	15.39
362.051	15.38
362.42	15.65
362.788	15.56
363.157	15.35
363.525	15.36
363.894	15.58
364.262	15.38
364.631	15.74
364.999	15.44
365.367	15.87
365.735	15.65
366.104	15.57
366.472	15.65
366.84	15.4
367.208	15.72
367.576	16.48
367.944	16.22
368.312	16.18
368.68	16.17
369.048	15.89
369.416	15.85
369.783	16.2
370.151	16.48
370.519	16.69
370.886	16.27
371.254	16.51
371.621	16.29
371.989	16.39
372.356	16.51
372.724	16.99
373.091	17.04
373.458	16.72
373.826	16.56
374.193	16.85
374.56	16.93
374.927	16.8
375.294	16.96
375.661	16.71
376.028	17.37
376.395	17.08
376.762	16.95
377.129	17.21
377.496	16.85
377.863	17.22
378.229	17.46
378.596	17.13
378.963	17.48
379.329	17.36
379.696	17.35
380.062	17.2
380.429	17.55
380.795	17.37
381.161	17.55
381.528	17.47
381.894	17.17
382.26	17.45
382.626	18.05
382.993	17.73
383.359	17.57
383.725	18.01
384.091	17.58
384.457	17.68
384.823	18.26
385.188	18.05
385.554	17.99
385.92	18.06
386.286	17.98
386.651	18.34
387.017	18.36
387.383	18.1
387.748	18.39
388.114	18.49
388.479	18.15
388.845	18.31
389.21	18.3
389.575	18.54
389.94	18.65
390.306	18.47
390.671	18.57
391.036	18.7
391.401	18.86
391.766	18.45
392.131	18.7
392.496	18.89
392.861	19.1
393.226	18.89
393.591	19.05
393.956	18.82
394.32	19.1
394.685	18.84
395.05	19.05
395.414	19.31
395.779	18.96
396.143	19.06
396.508	19.17
396.872	19.21
397.236	18.98
397.601	18.89
397.965	19.78
398.329	19.26
398.694	19.58
399.058	19.3
399.422	19.46
399.786	19.46
400.15	19.33
400.514	19.79
400.878	19.54
401.242	19.47
401.605	19.69
401.969	19.65
402.333	19.59
402.697	19.86
403.06	19.67
403.424	19.79
403.787	20.07
404.151	19.7
404.514	19.76
404.878	20.15
405.241	19.85
405.604	19.97
405.968	20.05
406.331	19.97
406.694	19.94
407.057	20.04
407.42	20.31
407.783	20.21
408.146	20.38
408.509	20.25
408.872	20.21
409.235	20.3
409.598	20.35
409.961	20.57
410.323	20.59
410.686	20.68
411.049	20.57
411.411	20.51
411.774	20.79
412.136	20.41
412.499	20.96
412.861	20.55
413.223	20.75
413.586	20.75
413.948	20.94
414.31	20.7
414.672	20.81
415.035	20.96
415.397	20.8
415.759	20.7
416.121	20.77
416.483	21.24
416.845	20.95
417.206	21.16
417.568	21.24
417.93	21
418.292	20.94
418.653	21.2
419.015	20.93
419.377	21.12
419.738	21.24
420.1	20.99
420.461	21.05
420.822	21.1
421.184	21.05
421.545	21.02
421.906	21.04
422.267	21.18
422.629	20.97
422.99	21.08
423.351	20.99
423.712	21.01
424.073	21.1
424.434	21.12
424.795	21.35
425.155	21.2
425.516	21.42
425.877	21.22
426.238	21.54
426.598	21.36
426.959	21.32
427.32	21.53
427.68	21.58
428.041	21.47
428.401	21.72
428.761	22.02
429.122	21.77
429.482	22.05
429.842	22.13
430.202	21.96
430.563	22.33
430.923	22.39
431.283	22.45
431.643	22.2
432.003	22.66
432.363	22.51
432.722	22.38
433.082	22.39
433.442	22.6
433.802	22.42
434.161	22.59
434.521	22.25
434.881	22.4
435.24	22.53
435.6	22.35
435.959	22.31
436.319	22.45
436.678	22.53
437.037	22.88
437.396	22.85
437.756	22.76
438.115	22.95
438.474	22.85
438.833	23.03
439.192	22.91
439.551	23.12
439.91	22.95
440.269	23.16
440.628	22.86
440.987	23.26
441.345	23.01
441.704	22.96
442.063	23.02
442.421	23
442.78	23.01
443.138	22.93
443.497	22.99
443.855	22.86
444.214	23.05
444.572	23.49
444.93	23.68
445.288	23.28
445.647	23.55
446.005	23.36
446.363	23.41
446.721	23.57
447.079	23.34
447.437	23.49
447.795	23.34
448.153	23.33
448.51	23.32
448.868	23.32
449.226	23.17
449.584	23.43
449.941	23.48
450.299	23.59
450.656	23.63
451.014	23.91
451.371	23.8
451.729	23.95
452.086	23.92
452.443	24.09
452.801	23.93
453.158	24.16
453.515	24.33
453.872	24.48
454.229	24.1
454.586	24.18
454.943	24.16
455.3	24.29
455.657	24.2
456.014	24.37
456.371	24.42
456.727	24.49
457.084	24.52
457.441	24.58
457.797	24.9
458.154	24.36
458.51	24.64
458.867	24.47
459.223	24.65
459.58	24.74
459.936	24.67
460.292	24.6
460.648	24.84
461.005	24.54
461.361	24.66
461.717	24.52
462.073	24.39
462.429	24.45
462.785	24.61
463.141	24.6
463.496	24.81
463.852	24.82
464.208	25.06
464.564	25.15
464.919	25.24
465.275	25.3
465.631	24.94
465.986	25.48
466.342	25.32
466.697	25.49
467.052	25.4
467.408	25.43
467.763	25.41
468.118	25.15
468.473	25.41
468.829	25.62
469.184	25.71
469.539	25.58
469.894	25.35
470.249	25.68
470.603	25.76
470.958	25.67
471.313	25.76
471.668	25.93
472.023	25.73
472.377	25.91
472.732	25.98
473.086	25.91
473.441	25.86
473.795	26
474.15	26.06
474.504	25.92
474.859	26.05
475.213	25.88
475.567	26.23
475.921	26.01
476.275	25.96
476.63	26.22
476.984	26.33
477.338	26.18
477.692	26.55
478.045	26.45
478.399	26.15
478.753	26.04
479.107	26.3
479.461	26.29
479.814	26.3
480.168	26.23
480.521	26.29
480.875	26.41
481.228	26.38
481.582	26.68
481.935	26.32
482.289	26.36
482.642	26.48
482.995	26.42
483.348	26.39
483.701	26.36
484.055	26.42
484.408	26.21
484.761	26.13
485.114	26.09
485.466	25.87
485.819	25.74
486.172	25.65
486.525	25.42
486.878	25.56
487.23	25.72
487.583	26.04
487.936	26.33
488.288	26.44
488.641	26.32
488.993	26.24
489.345	26.23
489.698	26.13
490.05	26.07
490.402	26.06
490.754	26.18
491.107	26.18
491.459	26.41
491.811	26.64
492.163	26.94
492.515	27.03
492.866	26.87
493.218	26.75
493.57	26.61
493.922	26.4
494.274	26.37
494.625	26.6
494.977	26.81
495.328	27.11
495.68	27.34
496.031	27.34
496.383	27.55
496.734	27.53
497.086	27.53
497.437	27.64
497.788	27.68
498.139	27.76
498.49	27.6
498.842	27.72
499.193	27.76
499.544	27.45
499.894	27.75
500.245	27.75
500.596	27.85
500.947	27.89
501.298	27.78
501.648	27.97
501.999	27.9
502.35	28.19
502.7	28.06
503.051	28.13
503.401	28.1
503.752	27.99
504.102	28.28
504.452	28.43
504.803	28.43
505.153	28.48
505.503	28.46
505.853	28.48
506.203	28.42
506.553	28.29
506.903	28.28
507.253	28.54
507.603	28.21
507.953	28.51
508.303	28.64
508.652	28.69
509.002	28.67
509.352	28.79
509.701	28.62
510.051	28.65
510.4	28.54
510.75	28.77
511.099	28.62
511.449	28.51
511.798	28.77
512.147	28.78
512.496	28.67
512.846	28.84
513.195	28.84
513.544	28.86
513.893	28.95
514.242	28.76
514.591	28.99
514.939	28.95
515.288	29.06
515.637	28.98
515.986	29.13
516.334	29.23
516.683	29.23
517.032	29.24
517.38	29.36
517.729	29.2
518.077	29.32
518.426	29.27
518.774	29.47
519.122	29.54
519.47	29.38
519.819	29.21
520.167	29.17
520.515	29.27
520.863	29.07
521.211	29.1
521.559	29.25
521.907	29.22
522.255	29.37
522.602	29.53
522.95	29.48
523.298	29.57
523.645	29.85
523.993	29.82
524.341	29.72
524.688	29.8
525.036	29.88
525.383	29.85
525.73	29.93
526.078	30.07
526.425	29.96
526.772	30.07
527.119	30.04
527.466	29.65
527.814	29.63
528.161	29.57
528.508	29.5
528.854	29.63
529.201	29.58
529.548	29.6
529.895	29.52
530.242	29.48
530.588	29.33
530.935	29.35
531.282	29.14
531.628	29.28
531.975	29.37
532.321	29.66
532.667	29.71
533.014	29.84
533.36	30.14
533.706	30.07
534.052	30.06
534.399	30.05
534.745	30.14
535.091	29.94
535.437	29.89
535.783	29.81
536.129	29.8
536.474	30.01
536.82	30.16
537.166	30.43
537.512	30.58
537.857	30.57
538.203	30.56
538.549	30.59
538.894	30.58
539.239	30.55
539.585	30.39
539.93	30.62
540.276	30.69
540.621	30.93
540.966	31.11
541.311	31.05
541.656	31.1
542.001	31.14
542.346	30.98
542.691	30.81
543.036	30.67
543.381	30.56
543.726	30.33
544.071	30.47
544.415	30.41
544.76	30.61
545.105	30.85
545.449	30.73
545.794	30.95
546.138	31.06
546.483	31.14
546.827	31.27
547.171	31.45
547.516	31.41
547.86	31.55
548.204	31.44
548.548	31.46
548.892	31.51
549.236	31.45
549.58	31.57
549.924	31.59
550.268	31.7
550.612	31.71
550.956	31.92
551.3	31.7
551.643	32.02
551.987	32.41
552.33	32.1
552.674	32.16
553.017	32.28
553.361	32.16
553.704	32.2
554.048	32.29
554.391	32.39
554.734	32.37
555.077	32.31
555.42	32.25
555.764	32.09
556.107	32.23
556.45	32.56
556.793	32.41
557.135	32.45
557.478	32.76
557.821	32.64
558.164	32.59
558.507	32.6
558.849	32.87
559.192	32.89
559.534	32.96
559.877	33.13
560.219	32.95
560.562	32.95
560.904	33.12
561.246	32.93
561.589	32.99
561.931	33.12
562.273	33.01
562.615	33.1
562.957	33.2
563.299	33.18
563.641	33.06
563.983	33.39
564.325	33.12
564.667	33.23
565.008	33.32
565.35	33.79
565.692	33.46
566.033	33.47
566.375	33.34
566.716	33.4
567.058	33.26
567.399	33.37
567.741	33.4
568.082	33.34
568.423	33.3
568.764	33.37
569.105	33.31
569.447	33.63
569.788	33.14
570.129	33.64
570.47	33.75
570.811	33.55
571.151	33.51
571.492	33.67
571.833	33.59
572.174	33.82
572.514	33.97
572.855	33.81
573.195	34.05
573.536	34.03
573.876	33.97
574.217	33.86
574.557	33.87
574.898	33.74
575.238	33.78
575.578	33.68
575.918	34.15
576.258	34.17
576.598	34.01
576.938	34.11
577.278	34.08
577.618	34.05
577.958	34.05
578.298	34.12
578.638	34.16
578.977	34.5
579.317	34.49
579.657	34.3
579.996	34.32
580.336	34.57
580.675	34.69
581.014	34.49
581.354	34.39
581.693	34.59
582.032	34.45
582.372	34.78
582.711	34.72
583.05	34.66
583.389	34.85
583.728	34.82
584.067	34.6
584.406	34.72
584.745	34.81
585.083	35
585.422	34.92
585.761	35.32
586.1	34.92
586.438	34.81
586.777	34.93
587.115	34.93
587.454	35.05
587.792	34.78
588.13	35.06
588.469	35.09
588.807	35.49
589.145	35.51
589.483	35.43
589.821	35.2
590.159	35.38
590.497	35.33
590.835	35.29
591.173	35.62
591.511	35.24
591.849	35.56
592.187	35.28
592.524	35.21
592.862	35.21
593.2	35.22
593.537	35.52
593.875	35.75
594.212	35.75
594.55	35.44
594.887	35.68
595.224	35.85
595.561	35.6
595.899	35.6
596.236	35.77
596.573	35.87
596.91	35.5
597.247	35.75
597.584	35.67
597.921	35.88
598.258	36.01
598.594	35.34
598.931	35.73
599.268	35.77
599.604	35.72
599.941	35.7
600.277	35.6
600.614	35.89
600.95	35.49
601.287	35.95
601.623	35.85
601.959	36.15
602.296	36.04
602.632	35.86
602.968	36.12
603.304	36.17
603.64	36.28
603.976	36.05
604.312	36.55
604.648	36.33
604.984	36.65
605.319	36.26
605.655	36.35
605.991	36.19
606.326	36.24
606.662	35.89
606.998	36.01
607.333	36.3
607.668	36.28
608.004	35.9
608.339	36.18
608.674	36.51
609.01	36.35
609.345	36.53
609.68	36.52
610.015	36.7
610.35	36.26
610.685	36.5
611.02	36.69
611.355	37.07
611.689	36.73
612.024	36.43
612.359	36.44
612.694	36.82
613.028	36.58
613.363	36.94
613.697	36.47
614.032	36.75
614.366	37.04
614.7	37.02
615.035	37.28
615.369	37.24
615.703	36.97
616.037	37.14
616.371	37.1
616.705	37.25
617.039	37.25
617.373	37.16
617.707	37.02
618.041	37.52
618.375	37.32
618.709	37.34
619.042	37.04
619.376	37.23
619.71	37.28
620.043	37.18
620.377	37.37
620.71	37.44
621.043	37.33
621.377	37.12
621.71	37.61
622.043	37.23
622.376	37.23
622.709	37.57
623.043	37.29
623.376	37.81
623.709	37.48
624.041	37.82
624.374	37.23
624.707	37.41
625.04	38.02
625.373	37.94
625.705	38.1
626.038	37.56
626.37	37.91
626.703	38.13
627.035	37.56
627.368	37.77
627.7	37.92
628.032	37.71
628.365	38.21
628.697	37.78
629.029	38.17
629.361	38.09
629.693	38.08
630.025	38.27
630.357	37.64
630.689	37.93
631.021	38.05
631.353	38.2
631.684	38.36
632.016	38.17
632.348	37.95
632.679	38.22
633.011	37.99
633.342	38.58
633.674	38.48
634.005	38.56
634.336	38.34
634.668	38.45
634.999	38.82
635.33	38.52
635.661	38.65
635.992	38.93
636.323	38.69
636.654	38.64
636.985	38.2
637.316	38.44
637.647	38.9
637.977	38.72
638.308	38.67
638.639	38.54
638.969	38.43
639.3	38.93
639.63	38.77
639.961	38.68
640.291	38.86
640.622	38.54
640.952	38.64
641.282	39.04
641.612	39.21
641.943	39.06
642.273	39.26
642.603	39.41
642.933	38.62
643.263	39.25
643.592	38.51
643.922	39.03
644.252	39.11
644.582	39.17
644.911	39.42
645.241	38.64
645.571	39.77
645.9	39.03
646.23	39.34
646.559	39.39
646.888	39.24
647.218	39.43
647.547	39.5
647.876	39.6
648.205	39.04
648.534	38.86
648.863	39.35
649.192	39.49
649.521	39.62
649.85	39.09
650.179	39.7
650.508	39.39
650.837	39.42
651.165	39.94
651.494	39.54
651.822	39.45
652.151	40.13
652.479	39.39
652.808	39.35
653.136	39.46
653.465	39.87
653.793	39.71
654.121	40.19
654.449	40
654.777	39.53
655.105	39.61
655.433	39.58
655.761	39.37
656.089	40
656.417	39.61
656.745	39.81
657.073	40.45
657.4	40.12
657.728	40.15
658.056	39.84
658.383	39.51
658.711	40.3
659.038	40.72
659.365	40.53
659.693	40.1
660.02	39.89
660.347	40.1
660.674	40.27
661.001	40.03
661.329	40.61
661.656	40.39
661.982	40.12
662.309	40.49
662.636	40.07
662.963	40.7
663.29	40.51
663.616	40.46
663.943	40.24
664.27	41.03
664.596	40.47
664.923	40.38
665.249	40.65
665.576	40.27
665.902	40.71
666.228	40.77
666.554	41.03
666.881	41.01
667.207	40.87
667.533	41.14
667.859	40.8
668.185	40.94
668.511	40.44
668.837	41.61
669.162	41.07
669.488	41.16
669.814	41.01
670.139	40.83
670.465	40.94
670.791	40.81
671.116	40.75
671.442	41.28
671.767	40.87
672.092	40.81
672.418	41.18
672.743	40.76
673.068	40.99
673.393	40.26
673.718	41.41
674.043	41.44
674.368	41.17
674.693	41.32
675.018	41.63
675.343	41.19
675.667	41.71
675.992	41.98
676.317	41.12
676.641	41.86
676.966	41.35
677.29	40.79
677.615	41.51
677.939	41.14
678.264	41.7
678.588	41.82
678.912	41.25
679.236	41.44
679.56	41.57
679.885	42.09
680.209	41.24
680.532	41.36
680.856	42.26
681.18	41.4
681.504	41.78
681.828	41.64
682.152	41.27
682.475	41.63
682.799	41.54
683.122	41.96
683.446	41.37
683.769	41.82
684.093	41.8
684.416	41.68
684.739	41.75
685.062	41.63
685.386	41.49
685.709	41.58
686.032	41.8
686.355	41.36
686.678	41.93
687.001	42.74
687.324	41.71
687.646	42.14
687.969	42.88
688.292	43.08
688.614	43
688.937	42.65
689.26	41.65
689.582	42.33
689.904	42.24
690.227	42.81
690.549	42.31
690.871	42.04
691.194	41.93
691.516	42.38
691.838	42.58
692.16	42.14
692.482	41.8
692.804	42.62
693.126	42.92
693.448	41.82
693.769	42.57
694.091	42.42
694.413	42.36
694.735	42.01
695.056	42.29
695.378	42.89
695.699	42.15
696.021	42.95
696.342	43.54
696.663	43.29
696.984	43
697.306	42.94
697.627	41.68
697.948	42.36
698.269	42.58
698.59	42.32
698.911	42.88
699.232	43.18
699.553	43.05
699.873	42.47
700.194	42.59
700.515	43.19
700.835	43.22
701.156	43.18
701.477	42.84
701.797	43.23
702.117	42.7
702.438	42.48
702.758	43.2
703.078	42.08
703.398	42.03
703.719	42.74
704.039	43.05
704.359	43.07
704.679	44.71
704.999	42.72
705.319	43.52
705.638	44.18
705.958	42.67
706.278	44
706.597	44.33
706.917	42.35
707.237	43.24
707.556	42.35
707.876	42.2
708.195	43.04
708.514	43.1
708.834	43.52
709.153	43.76
709.472	43.53
709.791	43.89
710.11	42.99
710.429	43.21
710.748	43.23
711.067	43.92
711.386	44.01
711.705	43.38
712.023	44.47
712.342	44.53
712.661	43.11
712.979	44.16
713.298	43.29
713.616	43.41
713.935	43
714.253	44.27
714.572	44.17
714.89	44.14
715.208	43.78
715.526	44
715.844	43.94
716.162	43.98
716.48	45.59
716.798	44.41
717.116	44.08
717.434	44.43
717.752	43.79
718.069	43.93
718.387	43.93
718.705	43.41
719.022	43.77
719.34	44.54
719.657	43.87
719.975	43.87
720.292	43.71
720.609	45.06
720.927	44.31
721.244	43.43
721.561	44.07
721.878	45.74
722.195	45.37
722.512	43.05
722.829	43.94
723.146	44.22
723.463	46.28
723.779	45.72
724.096	43.72
724.413	44.31
724.729	44.4
725.046	43.79
725.362	42.85
725.679	44.96
725.995	44.31
726.311	43.92
726.628	43.44
726.944	45.77
727.26	45.01
727.576	45.57
727.892	44.77
728.208	45.16
728.524	45.87
728.84	44.87
729.156	44.18
729.472	43.79
729.787	44.57
730.103	44.38
730.419	46.1
730.734	44.74
731.05	44
731.365	44.75
731.681	44.96
731.996	44.52
732.311	45.47
732.626	44.41
732.942	45.3
733.257	43.93
733.572	43.93
733.887	45.53
734.202	46.85
734.517	45.49
734.832	46.17
735.146	44.52
735.461	43.84
735.776	46.62
736.091	47.71
736.405	44.99
736.72	43.82
737.034	45.62
737.349	45.46
737.663	44.49
737.977	46.69
738.292	45.72
738.606	44.13
738.92	45.08
739.234	45.03
739.548	46.08
739.862	46.45
740.176	44.78
740.49	46.74
740.804	46.6
741.117	45.22
741.431	44.78
741.745	45.19
742.058	45.49
742.372	44.92
742.685	43.76
742.999	46.21
743.312	44.77
743.626	45
743.939	43.8
744.252	44.3
744.565	45.88
744.878	44.31
745.191	46.54
745.505	44.59
745.817	46.49
746.13	46.81
746.443	44.01
746.756	45.77
747.069	46.05
747.381	46
747.694	45.95
748.007	45.39
748.319	47.33
748.632	44.72
748.944	47.04
749.256	46.2
749.569	45.33
749.881	46.71
750.193	45.25
750.505	44.28
750.817	46.57
751.129	46.21
751.441	43.29
751.753	44.84
752.065	46.57
752.377	47.75
752.689	46.18
753	46.38
753.312	46.09
753.624	44.09
753.935	43.6
754.247	44.91
754.558	46.78
754.869	43.74
755.181	44.85
755.492	45.89
755.803	46.25
756.114	47.08
756.425	45.08
756.736	46.19
757.047	44.6
757.358	44.17
757.669	46.44
757.98	46.09
758.291	43.86
758.601	47.94
758.912	45.65
759.223	46.92
759.533	46.43
759.844	47.07
760.154	45.92
760.464	48.22
760.775	45.31
761.085	47.55
761.395	45.9
761.705	47.13
762.016	44.16
762.326	45.05
762.636	47.62
762.945	44.72
763.255	46.76
763.565	45.77
763.875	46.48
764.185	46.71
764.494	46.72
764.804	45.21
765.113	47.28
765.423	47.72
765.732	48.62
766.042	48.49
766.351	46.99
766.66	46.73
766.97	47.37
767.279	48.6
767.588	46.55
767.897	45.73
768.206	45.68
768.515	46.06
768.824	47.55
769.133	45.46
769.441	45.61
769.75	47.01
770.059	47.91
770.367	46.26
770.676	46.6
770.984	48.56
771.293	48.09
771.601	47.11
771.91	45.85
772.218	50.47
772.526	47.41
772.834	47.33
773.142	47.46
773.45	46.79
773.758	45.5
774.066	50.72
774.374	45.97
774.682	47.12
774.99	49.46
775.298	49.51
775.605	47.8
775.913	47.67
776.22	48.82
776.528	46.94
776.835	47.42
777.143	48.68
777.45	47.55
777.757	44.28
778.065	46.84
778.372	46.96
778.679	48.46
778.986	43.24
779.293	46.06
779.6	46.15
779.907	43.64
780.214	44.82
780.52	49.94
780.827	49.39
781.134	45.26
781.44	46.99
781.747	46.09
782.053	45.85
782.36	47.36
782.666	48.88
782.973	46.36
783.279	47.67
783.585	47.9
783.891	50.46
784.197	50.81
784.503	48.3
784.809	47.07
785.115	46.07
785.421	43.93
785.727	48.54
786.033	51.37
786.339	45.06
786.644	47.51
786.95	50.26
787.255	48.07
787.561	47.67
787.866	49.82
788.172	48.63
788.477	46.71
788.782	45.1
789.088	49.8
789.393	46.26
789.698	46.56
790.003	45.24
790.308	45.5
790.613	50.34
790.918	46.55
791.223	48.59
791.527	48.86
791.832	48.56
792.137	48.09
792.441	45.3
792.746	49.41
793.05	47.89
793.355	52.96
793.659	49.02
793.963	48.99
794.268	49.91
794.572	46.2
794.876	48.79
795.18	46.62
795.484	50.9
795.788	46.81
796.092	49.15
796.396	43.83
796.7	44.83
797.004	49.71
797.307	49.8
797.611	50.87
797.915	52.89
798.218	49.3
798.522	50.62
798.825	45.48
799.128	49.43
799.432	51.06
799.735	45.98
800.038	49.61
800.341	44.63
800.644	47.65
800.947	48.76
801.25	49.91
801.553	46.97
801.856	52.22
802.159	46.33
802.462	51.35
802.764	47.32
803.067	50.2
803.37	49.64
803.672	49.45
803.975	49.29
804.277	46.45
804.579	46.72
804.882	53.53
805.184	44.02
805.486	49.56
805.788	49.31
806.09	49.83
806.392	50.22
806.694	46.17
806.996	46.89
807.298	47.21
807.6	48.87
807.902	46.07
808.203	54.51
808.505	46.62
808.807	46.58
809.108	53.95
809.409	46.85
809.711	44.87
810.012	48.23
810.313	48.22
810.615	45.18
810.916	55.64
811.217	48.93
811.518	45.7
811.819	47.21
812.12	46.95
812.421	50.69
812.722	50.41
813.023	45.63
813.323	47.03
813.624	47.81
813.925	44.61
814.225	44.16
814.526	48.87
814.826	48.63
815.126	44.91
815.427	47.03
815.727	47.22
816.027	52.02
816.327	46.55
816.627	45.15
816.927	54.32
817.227	48.31
817.527	38.7
817.827	51.32
818.127	52.21
818.427	45.85
818.727	46.34
819.026	49.74
819.326	50.33
819.625	43.13
819.925	53.1
820.224	49.4
820.524	52.12
820.823	50.39
821.122	53.59
821.421	42.77
821.72	47.78
822.019	48.75
822.318	47.56
822.617	47.61
822.916	55.57
823.215	46.93
823.514	49.34
823.813	52.31
824.111	51.11
824.41	53.03
824.709	49.81
825.007	50.55
825.306	50.92
825.604	50.15
825.902	50.03
826.201	49.37
826.499	49.53
826.797	49.74
827.095	48.81
827.393	49.52
827.691	49.43
827.989	47.68
828.287	49.61
828.585	47.72
828.882	51.06
829.18	48.25
829.478	48.19
829.775	50.75
830.073	53.47
830.37	51.98
830.668	50.05
830.965	51.9
831.263	46.52
831.56	49.53
831.857	51
832.154	48.07
832.451	49.96
832.748	46.75
833.045	47.38
833.342	48.75
833.639	52.54
833.936	48.1
834.232	51
834.529	51.78
834.826	56.59
835.122	48.14
835.419	41.14
835.715	55.42
836.012	54.57
836.308	49.36
836.604	54.78
836.901	49.01
837.197	50.86
837.493	49.21
837.789	47.25
838.085	49.77
838.381	47.16
838.677	51.86
838.972	50.29
839.268	45.47
839.564	47.16
839.86	44.94
840.155	49.29
840.451	49.72
840.746	49.54
841.042	47.29
841.337	43.03
841.632	53.97
841.928	40.93
842.223	49.44
842.518	61.73
842.813	53.42
843.108	52.98
843.403	44.73
843.698	54.22
843.993	43.84
844.287	55.41
844.582	47.16
844.877	46.78
845.171	49.1
845.466	50.08
845.761	43.72
846.055	55.41
846.349	38.26
846.644	58.53
846.938	53.79
847.232	49.1
847.526	46.28
847.82	24.54
848.114	40.13
848.408	42.86
848.702	54.38
848.996	43.72
849.29	52.26
849.584	68.11
849.877	54.53
850.171	49.13
850.465	46.64
850.758	39.96
851.052	47.04
851.345	35.79
851.638	50.9
851.932	63.3
852.225	54.43
852.518	39.07
852.811	65.7
853.104	58.43
853.397	35.71
853.69	33.35
853.983	38.42
854.276	68.44
854.569	56.44
854.861	42.55
855.154	31.01
855.447	43.23
855.739	40.66
856.032	46.22
856.324	52.83
856.616	39.78
856.909	6.5
857.201	17.88
857.493	43.95
857.785	26.69
858.077	35.87
858.369	25.21
858.661	75.94
858.953	49.63
859.245	44.25
859.537	57
859.829	59.83
860.12	42.14
860.412	36.38
860.703	38.3
860.995	82.02
861.286	52.41
861.578	43.33
861.869	66.17
862.16	46.67
862.452	21.45
862.743	38.63
863.034	43.36
863.325	13.87
863.616	47.87
863.907	58.19
864.198	63.68
864.488	52.03
864.779	33.91
865.07	52.95
865.36	39.43
865.651	41.15
865.941	41.94
866.232	11.17
866.522	29.01
866.813	45.37
867.103	46.37
867.393	46.88
867.683	26.95
867.973	20.18
868.263	58.41
868.553	59.68
868.843	35.3
869.133	81.73
869.423	4.4
869.713	36.52
870.002	42.81
870.292	56.54
870.582	90.73
870.871	50.31
871.161	65.71
871.45	25.1
871.739	60.38
872.029	68.85
872.318	15.18
872.607	62.49
872.896	47.36
873.185	41.76
873.474	43.21
873.763	43.47
874.052	80.33
874.341	77.45
874.63	35.02
874.918	65.79
875.207	64.64
875.496	33.49
875.784	-5.84
876.073	38.7
876.361	42.72
876.649	54.53
876.938	43.76
877.226	32.23
877.514	26.33
877.802	56.93
878.09	48.63
878.378	79.08
878.666	49.29
878.954	11.77
879.242	82.52
879.53	37.99
879.817	-20.59
880.105	54.06
880.392	56.11
880.68	46.79
880.967	59.43
881.255	20.84
881.542	58.4
881.83	67.83
882.117	43.77
882.404	38.62
882.691	40.75
882.978	58.09
883.265	30.71
883.552	51.93
883.839	49.38
884.126	25.5
884.413	54.53
884.699	36.77
884.986	59.3
885.273	52.38
885.559	52.38
885.846	52.38
