Data from 0357_crown_Reflection__0__99.txt Node

Date: Mon Dec 11 18:53:54 CST 2023
User: ToomeyLab
Spectrometer: FLMS14357
Trigger mode: 0
Integration Time (sec): 1.000000E-2
Scans to average: 100
Electric dark correction enabled: true
Nonlinearity correction enabled: false
Boxcar width: 0
XAxis mode: Wavelengths
Number of Pixels in Spectrum: 2048
>>>>>Begin Spectral Data<<<<<
189.047	81.11
189.435	81.11
189.823	81.11
190.211	-54.86
190.599	193.63
190.987	9.08
191.375	176.37
191.763	116.29
192.151	34.31
192.538	-94.71
192.926	-3026.8
193.314	46.85
193.702	-20.85
194.089	-419.05
194.477	133.42
194.864	50.87
195.252	485.44
195.639	109.24
196.027	113.77
196.414	43.62
196.801	240.07
197.189	55.39
197.576	125.04
197.963	-241.27
198.351	-39.05
198.738	-52.35
199.125	-25.2
199.512	-16.38
199.899	16.03
200.286	22.54
200.673	-180.3
201.06	44.69
201.447	22.19
201.833	26.71
202.22	38.49
202.607	11.11
202.994	30.51
203.38	-44.98
203.767	37.89
204.154	33.22
204.54	-45.23
204.927	-70.81
205.313	33.11
205.699	-83.06
206.086	-45.87
206.472	67.3
206.858	23.73
207.245	16.2
207.631	29.72
208.017	7.84
208.403	26.09
208.789	10.78
209.175	12.71
209.561	-26.62
209.947	-38.87
210.333	58.66
210.719	36.09
211.105	22.02
211.491	14.67
211.876	20.16
212.262	-27.04
212.648	-16.91
213.034	-12.09
213.419	-15
213.805	-12.18
214.19	-8.46
214.576	-4.32
214.961	0.6
215.346	0.95
215.732	16.22
216.117	5.69
216.502	3.9
216.888	-12.45
217.273	3.41
217.658	9.86
218.043	-18.12
218.428	-0.63
218.813	13.02
219.198	0.38
219.583	5.91
219.968	-5.91
220.353	-26.06
220.738	29.96
221.122	14.99
221.507	18.96
221.892	0.88
222.276	-11.98
222.661	-11.68
223.046	-8.24
223.43	7.96
223.815	-12.45
224.199	19.55
224.583	5.38
224.968	11.48
225.352	9.07
225.736	2.79
226.121	0.62
226.505	3.95
226.889	11.57
227.273	4.3
227.657	17.15
228.041	7.28
228.425	1.93
228.809	3.67
229.193	3.75
229.577	4.39
229.961	5.55
230.344	5.15
230.728	5.58
231.112	5.26
231.495	5.11
231.879	4.96
232.263	4.64
232.646	3.75
233.03	2.35
233.413	4.83
233.797	6.41
234.18	4.64
234.563	5.05
234.946	5.55
235.33	5.33
235.713	6.05
236.096	4.63
236.479	6.69
236.862	3.72
237.245	4.58
237.628	4.87
238.011	3.28
238.394	4.8
238.777	4.08
239.16	3.88
239.543	4.67
239.925	5.88
240.308	4.84
240.691	4.86
241.073	5.6
241.456	5.14
241.838	7.79
242.221	6.01
242.603	3.09
242.986	4.7
243.368	3.92
243.75	4.95
244.133	4.7
244.515	4.39
244.897	4.38
245.279	4.46
245.661	4.41
246.043	4.47
246.425	4.4
246.807	5.37
247.189	5.17
247.571	3.68
247.953	4.22
248.335	4.35
248.717	4.45
249.098	4.32
249.48	4
249.862	4.69
250.243	4.59
250.625	4.39
251.006	3.8
251.388	4.42
251.769	4.72
252.151	4.7
252.532	3.82
252.913	4.97
253.295	4.01
253.676	3.55
254.057	4.25
254.438	4.49
254.819	3.18
255.2	3.32
255.581	3.7
255.962	2.87
256.343	4.1
256.724	4.54
257.105	4.32
257.486	3.09
257.867	4.73
258.247	3.16
258.628	3.75
259.009	5.22
259.389	5.24
259.77	3.49
260.15	3.88
260.531	4.38
260.911	3.44
261.292	3.49
261.672	3.7
262.052	3.91
262.432	3.9
262.813	3.93
263.193	3.46
263.573	3.38
263.953	4.42
264.333	3.98
264.713	4.58
265.093	3.97
265.473	3.62
265.853	3.79
266.233	3.92
266.612	4.19
266.992	3.82
267.372	4.55
267.752	4.85
268.131	4.13
268.511	3.82
268.89	4.79
269.27	4.86
269.649	3.99
270.029	4.19
270.408	4.23
270.787	4.02
271.167	3.15
271.546	3.64
271.925	3.16
272.304	3.98
272.683	3.73
273.062	3.53
273.441	3.46
273.82	3.81
274.199	4.02
274.578	4.07
274.957	3.85
275.336	3.75
275.715	3.5
276.093	4.45
276.472	4.07
276.851	3.7
277.229	4.44
277.608	3.87
277.986	4.6
278.365	3.38
278.743	4.03
279.122	3.57
279.5	4.35
279.878	4.03
280.257	3.66
280.635	3.25
281.013	3.96
281.391	3.96
281.769	3.74
282.147	3.67
282.525	3.8
282.903	3.88
283.281	3.7
283.659	3.65
284.037	3.31
284.415	3.68
284.792	4.54
285.17	3.89
285.548	3.96
285.925	3.01
286.303	3.73
286.68	3.63
287.058	3.77
287.435	3.75
287.813	4
288.19	3.58
288.567	3.43
288.945	3.95
289.322	3.38
289.699	3.62
290.076	3.44
290.453	4.36
290.83	3.95
291.207	3.73
291.584	3.95
291.961	3.47
292.338	3.55
292.715	3.84
293.092	3.7
293.469	4.44
293.845	3.46
294.222	4.29
294.599	3.59
294.975	3.81
295.352	3.18
295.728	3.94
296.105	3.67
296.481	3.98
296.858	3.73
297.234	3.93
297.61	4.2
297.986	4.02
298.363	3.63
298.739	4.11
299.115	3.76
299.491	3.8
299.867	3.86
300.243	3.84
300.619	3.98
300.995	3.81
301.371	3.67
301.746	3.32
302.122	3.8
302.498	4.34
302.874	3.7
303.249	3.64
303.625	3.92
304	3.81
304.376	4.2
304.751	3.26
305.127	3.75
305.502	3.61
305.878	3.92
306.253	4.61
306.628	3.68
307.003	4.13
307.378	3.37
307.754	3.71
308.129	3.85
308.504	3.53
308.879	3.6
309.254	4.11
309.629	4.17
310.003	3.97
310.378	3.78
310.753	3.98
311.128	3.92
311.502	3.42
311.877	3.71
312.252	4.11
312.626	4.06
313.001	3.82
313.375	3.54
313.75	3.59
314.124	3.79
314.498	3.82
314.873	3.81
315.247	3.21
315.621	4.3
315.995	4.6
316.369	3.46
316.743	4.74
317.117	3.67
317.491	3.67
317.865	4.08
318.239	3.75
318.613	4.11
318.987	4.11
319.361	4.16
319.734	3.91
320.108	3.54
320.482	4.3
320.855	4.14
321.229	3.58
321.602	4.01
321.976	4.42
322.349	3.71
322.723	3.97
323.096	4.7
323.469	4.32
323.843	4.29
324.216	4.21
324.589	4.2
324.962	3.2
325.335	3.93
325.708	3.83
326.081	4.41
326.454	4.1
326.827	4.38
327.2	3.71
327.573	3.42
327.945	4.83
328.318	4.01
328.691	3.84
329.063	3.65
329.436	3.98
329.809	3.45
330.181	3.96
330.553	4
330.926	3.82
331.298	4.05
331.671	3.61
332.043	4.2
332.415	4.23
332.787	4.2
333.159	4.61
333.532	4.46
333.904	4.35
334.276	4.26
334.648	3.91
335.02	4.04
335.391	4.18
335.763	3.87
336.135	4.02
336.507	4.12
336.879	4.34
337.25	3.83
337.622	3.96
337.993	3.77
338.365	4.07
338.736	4.47
339.108	4.24
339.479	3.85
339.851	4.3
340.222	4
340.593	3.53
340.964	4.06
341.336	4
341.707	3.33
342.078	4.3
342.449	3.97
342.82	3.58
343.191	3.66
343.562	4.07
343.933	3.77
344.303	3.62
344.674	4.26
345.045	4.24
345.416	3.93
345.786	4.04
346.157	3.92
346.527	4.1
346.898	4.06
347.268	4.03
347.639	4.18
348.009	4.25
348.38	3.97
348.75	4.34
349.12	4.46
349.49	3.86
349.861	3.64
350.231	3.62
350.601	4.51
350.971	4.42
351.341	3.8
351.711	3.89
352.081	3.43
352.45	4.58
352.82	3.41
353.19	4.11
353.56	4.05
353.929	4.66
354.299	4.35
354.669	4.63
355.038	4.1
355.408	3.49
355.777	4.13
356.147	4.04
356.516	4.05
356.885	4.24
357.254	3.99
357.624	4.12
357.993	3.7
358.362	3.87
358.731	4.03
359.1	3.98
359.469	3.97
359.838	3.95
360.207	3.74
360.576	4.11
360.945	4.37
361.314	4.24
361.682	4
362.051	4.09
362.42	3.95
362.788	3.9
363.157	4.02
363.525	3.62
363.894	3.97
364.262	3.97
364.631	4.43
364.999	4.2
365.367	4.29
365.735	4.36
366.104	4.04
366.472	4.19
366.84	3.76
367.208	3.85
367.576	4.33
367.944	4.29
368.312	4.22
368.68	4.18
369.048	4.01
369.416	3.81
369.783	3.65
370.151	4.12
370.519	4.44
370.886	3.99
371.254	4.68
371.621	4.04
371.989	4.17
372.356	4.39
372.724	4.19
373.091	4.7
373.458	3.9
373.826	4.2
374.193	4.17
374.56	4.61
374.927	4.55
375.294	4.14
375.661	3.92
376.028	4.43
376.395	4.3
376.762	3.9
377.129	4.55
377.496	4.08
377.863	4.27
378.229	4.21
378.596	4.16
378.963	4.36
379.329	4.08
379.696	4.36
380.062	3.93
380.429	4.09
380.795	4.64
381.161	4.1
381.528	4.07
381.894	4.17
382.26	4.42
382.626	4.11
382.993	4.54
383.359	4.23
383.725	4.16
384.091	4.23
384.457	3.84
384.823	4.04
385.188	4.01
385.554	4.2
385.92	4.24
386.286	4.1
386.651	3.99
387.017	4.35
387.383	4.25
387.748	4.03
388.114	4.04
388.479	4.16
388.845	4.58
389.21	4.36
389.575	4.4
389.94	4.39
390.306	4.32
390.671	4.09
391.036	4.09
391.401	4.38
391.766	4.2
392.131	4.26
392.496	4.2
392.861	4.32
393.226	4.32
393.591	4.35
393.956	4.3
394.32	4.43
394.685	4
395.05	4.44
395.414	4.41
395.779	4.31
396.143	4.07
396.508	3.89
396.872	4.38
397.236	4.29
397.601	4.17
397.965	4.32
398.329	4.08
398.694	4.27
399.058	4.19
399.422	4.38
399.786	4.27
400.15	4.04
400.514	4.36
400.878	4.26
401.242	4.42
401.605	4.41
401.969	4.17
402.333	4.07
402.697	4.28
403.06	4.06
403.424	4.47
403.787	4.52
404.151	4.18
404.514	4.28
404.878	4.04
405.241	4.08
405.604	4.39
405.968	4.22
406.331	4.01
406.694	3.96
407.057	4.3
407.42	4.55
407.783	4.38
408.146	4.31
408.509	4.23
408.872	3.96
409.235	4.1
409.598	4.32
409.961	4.38
410.323	4.29
410.686	4.35
411.049	4.45
411.411	4.39
411.774	4.39
412.136	4.33
412.499	4.19
412.861	3.97
413.223	4.13
413.586	4.42
413.948	4.5
414.31	4.19
414.672	3.97
415.035	4.13
415.397	4.22
415.759	4.63
416.121	4.37
416.483	4.05
416.845	4.42
417.206	4.08
417.568	4.41
417.93	4.52
418.292	4.26
418.653	4.19
419.015	3.92
419.377	4.23
419.738	4.24
420.1	4.22
420.461	4.27
420.822	4.03
421.184	4
421.545	4.07
421.906	4.06
422.267	4.18
422.629	4.12
422.99	4.11
423.351	4.04
423.712	4.03
424.073	4.03
424.434	4.04
424.795	4.24
425.155	4.01
425.516	4.14
425.877	3.96
426.238	4.13
426.598	4.09
426.959	4.06
427.32	4.16
427.68	4.18
428.041	4.08
428.401	4.07
428.761	4.18
429.122	4.05
429.482	4.17
429.842	4.12
430.202	4.24
430.563	4.2
430.923	4.17
431.283	4.17
431.643	4.23
432.003	4.32
432.363	4.36
432.722	4.24
433.082	4.23
433.442	4.2
433.802	4.06
434.161	4.35
434.521	4
434.881	4.15
435.24	4.01
435.6	4.14
435.959	4.05
436.319	4.04
436.678	4.14
437.037	4.19
437.396	4.13
437.756	4.44
438.115	4.34
438.474	4.14
438.833	4.23
439.192	4.23
439.551	4.32
439.91	4.25
440.269	4.31
440.628	4.03
440.987	4.24
441.345	4.13
441.704	4.17
442.063	4.09
442.421	4.08
442.78	4
443.138	4.13
443.497	4.12
443.855	4.21
444.214	4.31
444.572	4.03
444.93	4.27
445.288	4.15
445.647	4.36
446.005	4.02
446.363	4.12
446.721	4.13
447.079	4.08
447.437	4.21
447.795	4.01
448.153	4.16
448.51	4.15
448.868	4
449.226	4.08
449.584	4.11
449.941	4.18
450.299	4.17
450.656	4.15
451.014	4.17
451.371	4.04
451.729	4.25
452.086	4.16
452.443	4.16
452.801	4.3
453.158	4.23
453.515	4.09
453.872	4.14
454.229	4.24
454.586	4.21
454.943	4.13
455.3	4.24
455.657	4.06
456.014	4.25
456.371	4.37
456.727	4.17
457.084	4.19
457.441	4.23
457.797	4.28
458.154	3.99
458.51	4.21
458.867	4.17
459.223	4.1
459.58	4.1
459.936	4.2
460.292	4.34
460.648	4.1
461.005	4.13
461.361	4.06
461.717	4.08
462.073	4.13
462.429	4.14
462.785	4.09
463.141	4.15
463.496	4.32
463.852	4.09
464.208	4.1
464.564	4.09
464.919	4.26
465.275	4.04
465.631	4.09
465.986	4.34
466.342	4.13
466.697	4.27
467.052	4.3
467.408	4.19
467.763	4.32
468.118	4.05
468.473	4.15
468.829	4.26
469.184	4.45
469.539	4.09
469.894	3.9
470.249	4.18
470.603	4.02
470.958	4.2
471.313	4.13
471.668	4.33
472.023	4.27
472.377	4.21
472.732	4.11
473.086	4.29
473.441	4.35
473.795	4.14
474.15	4.18
474.504	4.2
474.859	4.28
475.213	4.18
475.567	4.27
475.921	4.24
476.275	4.25
476.63	4.05
476.984	4.23
477.338	4.01
477.692	4.09
478.045	4.04
478.399	4.03
478.753	4.02
479.107	3.93
479.461	4.29
479.814	4.09
480.168	4.16
480.521	4.22
480.875	4.03
481.228	4.04
481.582	4.29
481.935	4.17
482.289	4.13
482.642	4.12
482.995	4.15
483.348	4.08
483.701	4.02
484.055	4.09
484.408	4.15
484.761	3.98
485.114	4.06
485.466	3.87
485.819	3.8
486.172	3.86
486.525	3.88
486.878	3.94
487.23	3.95
487.583	4.03
487.936	4.02
488.288	4.05
488.641	4.02
488.993	3.86
489.345	3.98
489.698	3.95
490.05	3.92
490.402	3.87
490.754	3.98
491.107	4
491.459	4.08
491.811	4.11
492.163	4.09
492.515	4.09
492.866	4.08
493.218	3.87
493.57	3.92
493.922	3.92
494.274	3.99
494.625	4.03
494.977	4.21
495.328	4.17
495.68	4.27
496.031	4.08
496.383	4.07
496.734	4.12
497.086	3.98
497.437	4.11
497.788	4.2
498.139	4.07
498.49	4.15
498.842	4.14
499.193	4.13
499.544	4.1
499.894	4.1
500.245	4.11
500.596	4.25
500.947	4.12
501.298	4.38
501.648	4.19
501.999	4.12
502.35	4.31
502.7	4.17
503.051	4.04
503.401	4.19
503.752	4.08
504.102	4.27
504.452	4.31
504.803	4.35
505.153	4.27
505.503	4.24
505.853	4.33
506.203	3.95
506.553	4.29
506.903	4.12
507.253	4.16
507.603	4
507.953	4.19
508.303	4.25
508.652	4.12
509.002	4.22
509.352	4.26
509.701	4
510.051	4.16
510.4	4.12
510.75	4.13
511.099	4.05
511.449	4.13
511.798	4.14
512.147	4.28
512.496	4.08
512.846	4.19
513.195	4.34
513.544	4.17
513.893	4.09
514.242	4.11
514.591	4.07
514.939	4.16
515.288	4.23
515.637	4.06
515.986	4.11
516.334	4.18
516.683	4.27
517.032	4.15
517.38	4.22
517.729	4.26
518.077	4.3
518.426	4.29
518.774	4.22
519.122	4.24
519.47	4.11
519.819	4.12
520.167	4.12
520.515	3.99
520.863	4
521.211	4.18
521.559	4.05
521.907	4.12
522.255	4.07
522.602	4.13
522.95	4.11
523.298	4.15
523.645	4.18
523.993	4.1
524.341	4.15
524.688	4.09
525.036	3.91
525.383	4.23
525.73	4.14
526.078	4.14
526.425	4.11
526.772	4.16
527.119	4.07
527.466	4.11
527.814	4.05
528.161	4.02
528.508	3.99
528.854	4.09
529.201	3.95
529.548	4.06
529.895	3.93
530.242	3.89
530.588	3.9
530.935	3.91
531.282	3.96
531.628	3.99
531.975	4.03
532.321	4.04
532.667	4.06
533.014	3.91
533.36	4.06
533.706	4.15
534.052	4.08
534.399	4.07
534.745	4.12
535.091	3.97
535.437	3.96
535.783	4
536.129	4.1
536.474	4.11
536.82	4.1
537.166	4.15
537.512	4.15
537.857	4.11
538.203	4.05
538.549	4.11
538.894	4.16
539.239	4.11
539.585	4.1
539.93	4.07
540.276	4.16
540.621	4.12
540.966	4.19
541.311	4.1
541.656	4.06
542.001	4.12
542.346	4.16
542.691	4.07
543.036	3.97
543.381	3.92
543.726	3.93
544.071	4.02
544.415	3.97
544.76	4
545.105	4.06
545.449	4.03
545.794	4.07
546.138	4.07
546.483	4.04
546.827	4.14
547.171	4.17
547.516	4.17
547.86	4.18
548.204	4.09
548.548	4.06
548.892	4.14
549.236	4.16
549.58	4.2
549.924	4.16
550.268	4.09
550.612	4.18
550.956	4.12
551.3	4.27
551.643	4.22
551.987	4.54
552.33	4.3
552.674	4.42
553.017	4.11
553.361	4.01
553.704	4.13
554.048	4.39
554.391	3.99
554.734	4.13
555.077	4.19
555.42	4.31
555.764	4.16
556.107	4.24
556.45	4.25
556.793	4.3
557.135	4.28
557.478	4.14
557.821	4.15
558.164	4.44
558.507	4.13
558.849	4.34
559.192	4.16
559.534	4.11
559.877	4.34
560.219	4.26
560.562	4.45
560.904	4.39
561.246	4.36
561.589	4.3
561.931	4.22
562.273	4.07
562.615	4.29
562.957	4.4
563.299	4.25
563.641	4.13
563.983	4.42
564.325	4.33
564.667	4.28
565.008	4.17
565.35	4.56
565.692	4.4
566.033	4.4
566.375	4.51
566.716	4.31
567.058	4.1
567.399	4.33
567.741	4.01
568.082	4.11
568.423	4.2
568.764	4.17
569.105	4.36
569.447	4.3
569.788	4.26
570.129	4.28
570.47	4.06
570.811	4.22
571.151	4.23
571.492	4.41
571.833	4.39
572.174	4.42
572.514	4.33
572.855	4.08
573.195	4.15
573.536	4.29
573.876	4.26
574.217	4.24
574.557	4.3
574.898	4.33
575.238	4.38
575.578	4.23
575.918	4.35
576.258	4.47
576.598	4.33
576.938	4.35
577.278	4.29
577.618	4.13
577.958	4.24
578.298	4.49
578.638	4.58
578.977	4.4
579.317	4.21
579.657	4.17
579.996	4.12
580.336	4.33
580.675	4.42
581.014	4.41
581.354	4.18
581.693	4.61
582.032	4.18
582.372	4.43
582.711	4.49
583.05	4.36
583.389	4.35
583.728	4.55
584.067	4.29
584.406	4.38
584.745	4.46
585.083	4.35
585.422	4.33
585.761	4.55
586.1	4.38
586.438	4.14
586.777	4.66
587.115	4.23
587.454	4.44
587.792	4.47
588.13	4.41
588.469	4.44
588.807	4.27
589.145	4.47
589.483	4.46
589.821	4.02
590.159	4.65
590.497	4.51
590.835	4.45
591.173	4.35
591.511	4.6
591.849	4.27
592.187	4.23
592.524	4.43
592.862	4.24
593.2	4.4
593.537	4.38
593.875	4.36
594.212	4.46
594.55	4.45
594.887	4.19
595.224	4.41
595.561	4.41
595.899	4.36
596.236	4.49
596.573	4.29
596.91	4.11
597.247	4.26
597.584	4.16
597.921	4.27
598.258	4.33
598.594	4.2
598.931	4.17
599.268	4.36
599.604	4.33
599.941	4.58
600.277	4.23
600.614	4.41
600.95	4.12
601.287	4.41
601.623	4.66
601.959	4.39
602.296	4.45
602.632	4.5
602.968	4.15
603.304	4.62
603.64	4.41
603.976	4.65
604.312	4.62
604.648	4.36
604.984	4.55
605.319	4.42
605.655	4.34
605.991	4.37
606.326	4.36
606.662	4.22
606.998	4.18
607.333	4.21
607.668	4.28
608.004	4.24
608.339	4.69
608.674	4.67
609.01	4.22
609.345	4.28
609.68	4.08
610.015	4.25
610.35	4.42
610.685	4.19
611.02	4.39
611.355	4.48
611.689	4.39
612.024	4.29
612.359	4.31
612.694	4.31
613.028	4.32
613.363	4.16
613.697	4.37
614.032	4.49
614.366	4.63
614.7	4.6
615.035	4.5
615.369	4.46
615.703	4.47
616.037	4.4
616.371	4.45
616.705	4.24
617.039	4.49
617.373	4.7
617.707	4.55
618.041	4.49
618.375	4.35
618.709	4.71
619.042	4.45
619.376	5.02
619.71	4.6
620.043	4.17
620.377	4.3
620.71	4.89
621.043	4.2
621.377	4.19
621.71	4.78
622.043	4.62
622.376	4.63
622.709	4.64
623.043	4.7
623.376	4.37
623.709	4.63
624.041	4.22
624.374	4.32
624.707	4.64
625.04	4.7
625.373	4.82
625.705	4.57
626.038	4.64
626.37	4.31
626.703	4.68
627.035	4.52
627.368	4.62
627.7	4.39
628.032	4.46
628.365	4.44
628.697	4.37
629.029	4.63
629.361	4.49
629.693	4.48
630.025	4.3
630.357	4.17
630.689	4.32
631.021	4.5
631.353	4.37
631.684	4.48
632.016	4.54
632.348	4.68
632.679	4.85
633.011	4.39
633.342	4.81
633.674	5.16
634.005	4.78
634.336	4.56
634.668	4.32
634.999	4.77
635.33	4.46
635.661	4.3
635.992	4.37
636.323	4.39
636.654	4.98
636.985	4.61
637.316	4.66
637.647	4.7
637.977	4.94
638.308	4.71
638.639	4.59
638.969	4.57
639.3	4.57
639.63	4.69
639.961	4.48
640.291	5.04
640.622	4.55
640.952	4.76
641.282	4.52
641.612	4.98
641.943	4.61
642.273	4.24
642.603	4.99
642.933	4.66
643.263	4.75
643.592	4.62
643.922	4.71
644.252	4.24
644.582	4.19
644.911	4.98
645.241	4.53
645.571	4.68
645.9	4.07
646.23	4.7
646.559	4.76
646.888	4.68
647.218	4.63
647.547	4.36
647.876	4.65
648.205	4.11
648.534	4.52
648.863	4.33
649.192	4.66
649.521	4.74
649.85	4.91
650.179	4.88
650.508	5.03
650.837	4.16
651.165	4.73
651.494	4.3
651.822	4.23
652.151	4.76
652.479	4.71
652.808	4.69
653.136	4.48
653.465	4.89
653.793	4.62
654.121	4.94
654.449	4.54
654.777	4.7
655.105	4.93
655.433	4.86
655.761	4.83
656.089	4.44
656.417	4.39
656.745	4.82
657.073	5.05
657.4	4.87
657.728	4.64
658.056	5.13
658.383	4.83
658.711	5.13
659.038	5.15
659.365	5.07
659.693	5.25
660.02	4.55
660.347	4.56
660.674	4.62
661.001	4.22
661.329	4.71
661.656	4.7
661.982	4.29
662.309	4.73
662.636	4.93
662.963	5.36
663.29	4.57
663.616	4.8
663.943	4.27
664.27	5.08
664.596	5.48
664.923	4.88
665.249	4.98
665.576	4.74
665.902	4.7
666.228	5.04
666.554	4.87
666.881	4.41
667.207	4.9
667.533	5.11
667.859	5.41
668.185	5.21
668.511	5.28
668.837	4.88
669.162	4.59
669.488	4.33
669.814	4.28
670.139	4.75
670.465	4.71
670.791	5.46
671.116	5.59
671.442	5.01
671.767	4.87
672.092	5.15
672.418	4.96
672.743	4.14
673.068	4.91
673.393	5.24
673.718	4.62
674.043	5.28
674.368	4.42
674.693	5.39
675.018	5.06
675.343	5.2
675.667	5.21
675.992	5.39
676.317	4.78
676.641	5.37
676.966	5.65
677.29	4.58
677.615	5.76
677.939	4.45
678.264	5.35
678.588	4.68
678.912	4.14
679.236	4.73
679.56	4.67
679.885	4.75
680.209	5.11
680.532	5.75
680.856	5.78
681.18	5.42
681.504	4.65
681.828	4.54
682.152	4.66
682.475	5.14
682.799	5.25
683.122	4.67
683.446	4.17
683.769	4.44
684.093	5.43
684.416	4.76
684.739	5.16
685.062	4.45
685.386	5.33
685.709	5.39
686.032	4.6
686.355	4.78
686.678	4.96
687.001	5.19
687.324	4.7
687.646	4.5
687.969	5.01
688.292	5.88
688.614	5.32
688.937	6.18
689.26	5.13
689.582	5.33
689.904	4.72
690.227	4.95
690.549	4.94
690.871	4.93
691.194	5.21
691.516	4.31
691.838	4.82
692.16	5.57
692.482	6.13
692.804	5.45
693.126	4.99
693.448	5.2
693.769	4.26
694.091	4.94
694.413	5.53
694.735	4.62
695.056	4.93
695.378	5.86
695.699	4.43
696.021	5.6
696.342	5.46
696.663	5.57
696.984	5.45
697.306	5.55
697.627	6.04
697.948	5.07
698.269	5.22
698.59	5.63
698.911	5.99
699.232	5.6
699.553	5.33
699.873	5.03
700.194	5.44
700.515	5.95
700.835	5.01
701.156	5.29
701.477	4.85
701.797	4.9
702.117	5.61
702.438	5.22
702.758	4.53
703.078	5.53
703.398	5.53
703.719	5.37
704.039	5.58
704.359	5.15
704.679	6.26
704.999	5.68
705.319	4.89
705.638	4
705.958	5.34
706.278	6.13
706.597	6.32
706.917	5.42
707.237	5.58
707.556	4.41
707.876	5.8
708.195	5.95
708.514	5.18
708.834	5.16
709.153	4.52
709.472	4.29
709.791	5.86
710.11	5.83
710.429	4.77
710.748	4.97
711.067	5.27
711.386	5.48
711.705	4.07
712.023	4.6
712.342	6.25
712.661	4.22
712.979	5.05
713.298	5.14
713.616	5.97
713.935	5.6
714.253	5.25
714.572	4.9
714.89	5.79
715.208	5.35
715.526	5.28
715.844	5.25
716.162	5.05
716.48	5.47
716.798	5.74
717.116	6.21
717.434	5.1
717.752	4.61
718.069	5.83
718.387	5.7
718.705	5.01
719.022	5.42
719.34	7.2
719.657	5.18
719.975	6.09
720.292	6.68
720.609	6.03
720.927	5.34
721.244	6.89
721.561	4.35
721.878	6.76
722.195	6.74
722.512	4.61
722.829	4.85
723.146	5.57
723.463	5.98
723.779	4.96
724.096	5.78
724.413	4.67
724.729	5.62
725.046	5.68
725.362	6.27
725.679	5.83
725.995	6.85
726.311	5.6
726.628	5
726.944	5.98
727.26	4.18
727.576	5.92
727.892	5.49
728.208	6.08
728.524	6.38
728.84	4.7
729.156	5.77
729.472	6.45
729.787	5.48
730.103	6.25
730.419	6.88
730.734	5.7
731.05	4.43
731.365	5.7
731.681	5.82
731.996	6.01
732.311	4.91
732.626	6.81
732.942	5.24
733.257	5.94
733.572	4.73
733.887	6.46
734.202	6.32
734.517	4.61
734.832	5.38
735.146	5.03
735.461	6.43
735.776	5.58
736.091	7.02
736.405	4.39
736.72	6.08
737.034	6.85
737.349	3.83
737.663	5.27
737.977	6.48
738.292	6.3
738.606	5.88
738.92	5.63
739.234	5.38
739.548	6.05
739.862	5.97
740.176	5.28
740.49	6.17
740.804	7.2
741.117	7.43
741.431	4.76
741.745	4.82
742.058	7.5
742.372	3.52
742.685	6.6
742.999	7.14
743.312	3.62
743.626	4.05
743.939	5.87
744.252	6.75
744.565	6.81
744.878	4.89
745.191	3.79
745.505	4.94
745.817	5.75
746.13	7.06
746.443	3.95
746.756	7.57
747.069	5.54
747.381	7.06
747.694	6.75
748.007	5.79
748.319	6.47
748.632	5.22
748.944	4.86
749.256	6.06
749.569	6.13
749.881	5.47
750.193	7.65
750.505	5.54
750.817	4.22
751.129	4.9
751.441	4.54
751.753	4.24
752.065	6.03
752.377	5.09
752.689	4.55
753	7.41
753.312	4.88
753.624	8.27
753.935	5.23
754.247	5.7
754.558	7.67
754.869	4.99
755.181	4.33
755.492	5.93
755.803	4.17
756.114	5.66
756.425	7.37
756.736	7.44
757.047	6.52
757.358	4.24
757.669	5.86
757.98	4.64
758.291	4.35
758.601	6.24
758.912	6.22
759.223	6.25
759.533	5.95
759.844	8.08
760.154	6.83
760.464	6.11
760.775	4.48
761.085	5.67
761.395	6.93
761.705	5.73
762.016	6.91
762.326	4.94
762.636	6.58
762.945	4.44
763.255	4.51
763.565	7.11
763.875	6.32
764.185	6.79
764.494	6.18
764.804	4.02
765.113	7.47
765.423	5.13
765.732	7.55
766.042	5.42
766.351	4.96
766.66	6.48
766.97	6.1
767.279	7.24
767.588	6.32
767.897	4.03
768.206	5.64
768.515	7.09
768.824	6.78
769.133	5.8
769.441	4.17
769.75	5.78
770.059	7.67
770.367	7.02
770.676	5.08
770.984	3.6
771.293	4.09
771.601	4.88
771.91	6.78
772.218	6.12
772.526	8.6
772.834	7.59
773.142	4.82
773.45	8.24
773.758	7.73
774.066	6.7
774.374	4.27
774.682	5.72
774.99	4.9
775.298	3.79
775.605	6.21
775.913	9.05
776.22	7.1
776.528	7.56
776.835	6.57
777.143	9.15
777.45	0.95
777.757	4.86
778.065	9.54
778.372	7.26
778.679	7.41
778.986	8.95
779.293	5.05
779.6	8.81
779.907	5.46
780.214	7.62
780.52	8.83
780.827	9.52
781.134	4.19
781.44	3.25
781.747	4.28
782.053	5.63
782.36	9.11
782.666	6.21
782.973	6.67
783.279	8.9
783.585	4.17
783.891	5.67
784.197	5.43
784.503	5.35
784.809	4.23
785.115	9.45
785.421	5.83
785.727	6.6
786.033	6.53
786.339	3.43
786.644	7.74
786.95	9.22
787.255	7.05
787.561	15.08
787.866	8.19
788.172	5.22
788.477	7.97
788.782	4.06
789.088	11.15
789.393	7.22
789.698	8.49
790.003	4.57
790.308	3.36
790.613	6.02
790.918	8.79
791.223	5.96
791.527	4.72
791.832	7.67
792.137	2.52
792.441	10.17
792.746	8.23
793.05	7.34
793.355	11.02
793.659	6.44
793.963	8.59
794.268	6.09
794.572	8.74
794.876	3.98
795.18	5.74
795.484	6.7
795.788	9.18
796.092	10.57
796.396	0.81
796.7	4.07
797.004	8.86
797.307	7.34
797.611	6.01
797.915	8.06
798.218	9.42
798.522	9.55
798.825	5.71
799.128	8.93
799.432	3.62
799.735	5.83
800.038	5.31
800.341	7.48
800.644	7.32
800.947	6.3
801.25	7.41
801.553	6.12
801.856	6.54
802.159	5.51
802.462	11.08
802.764	8.11
803.067	6.69
803.37	11.61
803.672	11.27
803.975	5.05
804.277	8.45
804.579	6.7
804.882	14.23
805.184	9.25
805.486	6.14
805.788	4.89
806.09	3.82
806.392	8.11
806.694	9.7
806.996	5.19
807.298	9.78
807.6	9.46
807.902	14.81
808.203	9.86
808.505	4.03
808.807	3.17
809.108	6.07
809.409	10.08
809.711	4.43
810.012	7.47
810.313	4.23
810.615	3.92
810.916	3.15
811.217	13.68
811.518	1.55
811.819	10.23
812.12	-0.23
812.421	9.89
812.722	3.41
813.023	9.48
813.323	11.47
813.624	8.3
813.925	7.92
814.225	-0.4
814.526	10.07
814.826	8.08
815.126	6.44
815.427	5.12
815.727	-2.38
816.027	9.81
816.327	10.84
816.627	6.78
816.927	2.82
817.227	9.92
817.527	3.06
817.827	7.41
818.127	7.66
818.427	10.26
818.727	8.22
819.026	3.97
819.326	7.33
819.625	6.59
819.925	4.13
820.224	12.67
820.524	11.89
820.823	5.05
821.122	4.96
821.421	10.32
821.72	6.22
822.019	9.66
822.318	3.97
822.617	5.63
822.916	10.24
823.215	9.29
823.514	4.92
823.813	9.21
824.111	9.61
824.41	8.62
824.709	8.06
825.007	8.27
825.306	7.4
825.604	7.04
825.902	8.4
826.201	7.79
826.499	8.61
826.797	9.09
827.095	9.25
827.393	8.19
827.691	7.08
827.989	8.05
828.287	10.61
828.585	9.21
828.882	8.64
829.18	8.56
829.478	8.72
829.775	9.84
830.073	10.51
830.37	6.81
830.668	5.63
830.965	8.6
831.263	7.4
831.56	8.39
831.857	8.77
832.154	5.7
832.451	6.59
832.748	6.4
833.045	6.73
833.342	3.35
833.639	13.52
833.936	11.47
834.232	2.88
834.529	8.97
834.826	10.19
835.122	4.51
835.419	6.55
835.715	8.4
836.012	5.71
836.308	6.76
836.604	9.79
836.901	9.92
837.197	9.04
837.493	14.53
837.789	8.51
838.085	8.8
838.381	4.33
838.677	8.8
838.972	6.47
839.268	6.29
839.564	0.3
839.86	8.44
840.155	5.88
840.451	5.25
840.746	15.96
841.042	6.4
841.337	4.7
841.632	17.13
841.928	-5.28
842.223	19.48
842.518	24.63
842.813	3.24
843.108	6.82
843.403	0.96
843.698	10.16
843.993	-4.75
844.287	-2.37
844.582	2.62
844.877	6.19
845.171	-1.43
845.466	9.87
845.761	-0.2
846.055	4.1
846.349	-3.4
846.644	10.13
846.938	16.41
847.232	-4.82
847.526	5.27
847.82	1.28
848.114	-18.8
848.408	19.69
848.702	11.51
848.996	13.84
849.29	34.53
849.584	12.06
849.877	14.01
850.171	-5.49
850.465	9.6
850.758	2.3
851.052	15.62
851.345	-38.02
851.638	21.56
851.932	23.9
852.225	13.93
852.518	12.98
852.811	24.23
853.104	-2.23
853.397	13.19
853.69	1.14
853.983	-17.86
854.276	5.83
854.569	22.36
854.861	28.48
855.154	-16.04
855.447	-5.02
855.739	1.93
856.032	13.41
856.324	19.32
856.616	24.49
856.909	-6.1
857.201	4.39
857.493	11.19
857.785	-20.18
858.077	-25.26
858.369	14.09
858.661	13.06
858.953	8.42
859.245	-14.75
859.537	8.81
859.829	-9.65
860.12	-3.62
860.412	0.7
860.703	-4.62
860.995	26.3
861.286	4.04
861.578	-16.65
861.869	27.77
862.16	0.41
862.452	6.82
862.743	17.54
863.034	1.45
863.325	-39.91
863.616	28.43
863.907	-15.49
864.198	31.67
864.488	13.78
864.779	4.66
865.07	4.94
865.36	15.8
865.651	31.19
865.941	17.6
866.232	-56.01
866.522	43.28
866.813	20.12
867.103	-25.23
867.393	16.53
867.683	-16.91
867.973	1.35
868.263	3.41
868.553	18.88
868.843	-13.06
869.133	-11.07
869.423	26.4
869.713	-19.2
870.002	-1.16
870.292	-7.93
870.582	36.03
870.871	8.24
871.161	23.29
871.45	-21.55
871.739	2.92
872.029	-0.28
872.318	1.17
872.607	-9.06
872.896	22.21
873.185	3.65
873.474	10.87
873.763	21.79
874.052	28.69
874.341	-9.67
874.63	-0.39
874.918	12.95
875.207	-11.37
875.496	30.44
875.784	8.4
876.073	-20.63
876.361	-4.15
876.649	10.07
876.938	21.64
877.226	-2.73
877.514	26.26
877.802	36.45
878.09	28.58
878.378	-22.82
878.666	-14.77
878.954	1.26
879.242	26.55
879.53	5.85
879.817	-91.02
880.105	22.89
880.392	-10.66
880.68	19.73
880.967	6.36
881.255	8.34
881.542	1.24
881.83	10.99
882.117	4.44
882.404	7.83
882.691	-19.4
882.978	23.85
883.265	-18.23
883.552	16.75
883.839	-5.68
884.126	-6.76
884.413	6.3
884.699	4.76
884.986	-0.07
885.273	9.56
885.559	9.56
885.846	9.56
