Data from 448_crown_Reflection__2__52.txt Node

Date: Tue Dec 12 18:39:13 CST 2023
User: ToomeyLab
Spectrometer: FLMS14357
Trigger mode: 0
Integration Time (sec): 1.000000E-2
Scans to average: 100
Electric dark correction enabled: true
Nonlinearity correction enabled: false
Boxcar width: 0
XAxis mode: Wavelengths
Number of Pixels in Spectrum: 2048
>>>>>Begin Spectral Data<<<<<
189.047	-56.22
189.435	-56.22
189.823	-56.22
190.211	-176.19
190.599	143.58
190.987	99.59
191.375	158.62
191.763	-68.23
192.151	35.73
192.538	-64.97
192.926	50.08
193.314	500.41
193.702	145.93
194.089	102.84
194.477	312.54
194.864	56.63
195.252	500.31
195.639	162.64
196.027	-193.77
196.414	-14.44
196.801	-11.67
197.189	-248.26
197.576	-154.02
197.963	91.67
198.351	6.35
198.738	22.42
199.125	-4.86
199.512	-2.85
199.899	10.87
200.286	16.62
200.673	0.98
201.06	1.45
201.447	-17.56
201.833	-38.87
202.22	4.25
202.607	-135.79
202.994	40.21
203.38	17.97
203.767	30.82
204.154	26.39
204.54	28.71
204.927	-3.22
205.313	36.8
205.699	52.26
206.086	-17.96
206.472	31.43
206.858	7.01
207.245	25.03
207.631	-5.33
208.017	11.44
208.403	-31.74
208.789	29.7
209.175	43.14
209.561	10.51
209.947	23.97
210.333	11.14
210.719	6.4
211.105	-33.45
211.491	37.21
211.876	18.11
212.262	14.75
212.648	-16.46
213.034	14.04
213.419	22.99
213.805	28.82
214.19	33.88
214.576	9.37
214.961	22.86
215.346	32.65
215.732	25.5
216.117	-15.13
216.502	-35.27
216.888	13.45
217.273	-21.89
217.658	3.91
218.043	5.68
218.428	9.3
218.813	17.43
219.198	-8.88
219.583	5.7
219.968	27.41
220.353	18.5
220.738	2.43
221.122	-11.46
221.507	-14.7
221.892	3.61
222.276	2.5
222.661	2.12
223.046	14.34
223.43	8.93
223.815	10.4
224.199	2.8
224.583	-6.37
224.968	6.67
225.352	-2.44
225.736	8.17
226.121	4.26
226.505	5.09
226.889	-0.44
227.273	4.2
227.657	8.01
228.041	7.99
228.425	0.97
228.809	3.33
229.193	-1.43
229.577	4.32
229.961	1.32
230.344	1.88
230.728	3.11
231.112	3.02
231.495	2.64
231.879	4.02
232.263	1.77
232.646	2.11
233.03	3.4
233.413	2.26
233.797	1.79
234.18	0.22
234.563	4.88
234.946	2.33
235.33	2.71
235.713	3.11
236.096	2.03
236.479	1.39
236.862	2.19
237.245	3.43
237.628	1.39
238.011	1.39
238.394	1.98
238.777	2.15
239.16	3.74
239.543	5.53
239.925	2.59
240.308	1.67
240.691	2.76
241.073	2.54
241.456	2.56
241.838	2.46
242.221	2.77
242.603	3.33
242.986	2.82
243.368	3.4
243.75	2.21
244.133	2.87
244.515	3.16
244.897	3.05
245.279	3.03
245.661	2.55
246.043	1.78
246.425	4.4
246.807	1.45
247.189	3.1
247.571	2.94
247.953	2.46
248.335	2.81
248.717	2.66
249.098	2.39
249.48	2.37
249.862	2.3
250.243	2.34
250.625	2.71
251.006	2.68
251.388	3.29
251.769	3.21
252.151	3.02
252.532	2.35
252.913	3.01
253.295	3.05
253.676	1.92
254.057	2.23
254.438	2.82
254.819	2.38
255.2	2.2
255.581	3.01
255.962	2.27
256.343	3.07
256.724	2.31
257.105	3.56
257.486	1.82
257.867	2.89
258.247	2.45
258.628	3.62
259.009	2.87
259.389	2.95
259.77	1.69
260.15	1.83
260.531	2.92
260.911	2.76
261.292	1.9
261.672	2.41
262.052	2.19
262.432	2.54
262.813	2.24
263.193	2.26
263.573	2.76
263.953	2.99
264.333	3.62
264.713	2.36
265.093	3.03
265.473	2.68
265.853	0.98
266.233	1.82
266.612	2.32
266.992	2.09
267.372	2.65
267.752	3.09
268.131	1.46
268.511	1.53
268.89	1.64
269.27	1.8
269.649	2.35
270.029	2.17
270.408	3.27
270.787	2.54
271.167	2.44
271.546	2.89
271.925	2.41
272.304	2.84
272.683	1.95
273.062	2.21
273.441	2.31
273.82	2.12
274.199	2.5
274.578	2.23
274.957	2.07
275.336	2.54
275.715	2.44
276.093	2.13
276.472	2.7
276.851	2.48
277.229	2.12
277.608	2.18
277.986	1.73
278.365	2.58
278.743	2.44
279.122	2.34
279.5	2.11
279.878	1.99
280.257	2.24
280.635	2.05
281.013	2.08
281.391	2.68
281.769	1.67
282.147	2.24
282.525	1.72
282.903	2.17
283.281	2.06
283.659	1.85
284.037	2.24
284.415	1.98
284.792	2.48
285.17	2
285.548	1.92
285.925	2.23
286.303	2.29
286.68	2.21
287.058	2.52
287.435	2.21
287.813	1.9
288.19	2
288.567	2.36
288.945	1.96
289.322	1.91
289.699	2.24
290.076	1.93
290.453	2.23
290.83	2.27
291.207	2.4
291.584	2.09
291.961	2.31
292.338	2.25
292.715	2.48
293.092	1.81
293.469	2.03
293.845	2.32
294.222	2.33
294.599	2.64
294.975	1.72
295.352	2.33
295.728	2.06
296.105	2.22
296.481	2.85
296.858	2.54
297.234	2.46
297.61	2.26
297.986	2.22
298.363	2.36
298.739	2.25
299.115	1.92
299.491	1.97
299.867	2.07
300.243	2.08
300.619	2.22
300.995	2.59
301.371	2.12
301.746	2.42
302.122	3.07
302.498	2.48
302.874	2.39
303.249	2.6
303.625	2.54
304	2.39
304.376	1.96
304.751	2.14
305.127	2.33
305.502	2.58
305.878	2.37
306.253	2
306.628	2.18
307.003	2.34
307.378	2.64
307.754	2.12
308.129	1.94
308.504	2.96
308.879	2.16
309.254	3.11
309.629	2.24
310.003	2.15
310.378	2.46
310.753	2.36
311.128	2.32
311.502	1.79
311.877	1.84
312.252	1.85
312.626	2.24
313.001	1.86
313.375	2.26
313.75	2.59
314.124	2.57
314.498	2.47
314.873	2.03
315.247	2.3
315.621	2.07
315.995	2.38
316.369	2.26
316.743	1.96
317.117	1.67
317.491	1.84
317.865	1.95
318.239	2.33
318.613	2.39
318.987	2.55
319.361	1.74
319.734	2.36
320.108	2.41
320.482	2.37
320.855	1.94
321.229	1.73
321.602	2.98
321.976	2.05
322.349	2.43
322.723	2.33
323.096	2.28
323.469	1.8
323.843	3.18
324.216	2.34
324.589	2.54
324.962	2.39
325.335	2.76
325.708	2.29
326.081	2.22
326.454	1.83
326.827	2.96
327.2	2.24
327.573	1.96
327.945	2.12
328.318	2.63
328.691	1.86
329.063	2.4
329.436	2.49
329.809	2.29
330.181	2
330.553	2.75
330.926	2.63
331.298	2.16
331.671	1.8
332.043	2.05
332.415	2.5
332.787	2.47
333.159	2.39
333.532	1.98
333.904	2.28
334.276	2.79
334.648	1.52
335.02	2.19
335.391	2.27
335.763	1.97
336.135	2.43
336.507	2.48
336.879	2.4
337.25	2.48
337.622	2.03
337.993	1.81
338.365	1.8
338.736	2.47
339.108	2.16
339.479	2.71
339.851	2.03
340.222	1.59
340.593	2.52
340.964	2.41
341.336	2.35
341.707	2.1
342.078	1.39
342.449	2.2
342.82	2.12
343.191	1.96
343.562	2.78
343.933	2.85
344.303	2.35
344.674	2.53
345.045	2.24
345.416	2.53
345.786	1.9
346.157	2.23
346.527	2.74
346.898	2.3
347.268	2.38
347.639	2.71
348.009	2.19
348.38	1.89
348.75	2.54
349.12	2.45
349.49	2.5
349.861	2.41
350.231	2.29
350.601	2.75
350.971	1.86
351.341	2.58
351.711	2.44
352.081	2.53
352.45	2.1
352.82	2.52
353.19	2.37
353.56	1.86
353.929	1.85
354.299	2.33
354.669	2.14
355.038	1.84
355.408	2.17
355.777	2.61
356.147	2.19
356.516	2.86
356.885	2.64
357.254	2.33
357.624	2.4
357.993	2.54
358.362	2.58
358.731	2.58
359.1	1.98
359.469	2.06
359.838	2.46
360.207	2.19
360.576	2.29
360.945	2.22
361.314	2.38
361.682	2.61
362.051	2.64
362.42	2.34
362.788	2.27
363.157	2.77
363.525	2.48
363.894	2.39
364.262	2.31
364.631	1.79
364.999	2.25
365.367	2.57
365.735	1.98
366.104	2.58
366.472	2.06
366.84	2.42
367.208	2.51
367.576	2.6
367.944	2.83
368.312	2.57
368.68	2.43
369.048	2.42
369.416	2.07
369.783	2.56
370.151	2.04
370.519	2.41
370.886	2.49
371.254	2.69
371.621	2.53
371.989	2.31
372.356	2.63
372.724	2.78
373.091	2.42
373.458	2.39
373.826	2.7
374.193	2.37
374.56	2.78
374.927	2.73
375.294	2.55
375.661	2.49
376.028	2.41
376.395	2.82
376.762	2.57
377.129	2.09
377.496	2.71
377.863	2.44
378.229	2.35
378.596	2.36
378.963	2.73
379.329	2.36
379.696	2.14
380.062	2.72
380.429	2.54
380.795	2.69
381.161	2.72
381.528	2.78
381.894	2.32
382.26	2.05
382.626	2.59
382.993	2.54
383.359	2.22
383.725	2.39
384.091	2.26
384.457	2.17
384.823	2.58
385.188	2.36
385.554	2.56
385.92	2.4
386.286	2.71
386.651	2.57
387.017	2.9
387.383	2.44
387.748	2.5
388.114	2.74
388.479	2.9
388.845	2.66
389.21	2.63
389.575	2.37
389.94	2.76
390.306	2.53
390.671	2.67
391.036	2.6
391.401	2.49
391.766	2.51
392.131	2.69
392.496	2.83
392.861	2.15
393.226	2.86
393.591	2.29
393.956	2.47
394.32	2.52
394.685	2.65
395.05	2.44
395.414	2.44
395.779	2.36
396.143	2.73
396.508	2.48
396.872	2.55
397.236	2.55
397.601	2.8
397.965	2.69
398.329	2.55
398.694	2.59
399.058	2.88
399.422	2.64
399.786	2.66
400.15	2.41
400.514	2.78
400.878	2.77
401.242	2.61
401.605	2.77
401.969	2.67
402.333	2.54
402.697	2.53
403.06	2.54
403.424	2.6
403.787	2.26
404.151	2.73
404.514	2.44
404.878	2.53
405.241	2.93
405.604	2.35
405.968	2.44
406.331	2.78
406.694	2.79
407.057	2.63
407.42	2.58
407.783	2.54
408.146	2.6
408.509	2.68
408.872	2.66
409.235	2.59
409.598	2.63
409.961	2.74
410.323	2.55
410.686	2.79
411.049	2.69
411.411	2.65
411.774	2.82
412.136	2.63
412.499	2.68
412.861	2.66
413.223	2.92
413.586	2.61
413.948	2.49
414.31	2.8
414.672	2.71
415.035	2.33
415.397	2.63
415.759	2.76
416.121	2.71
416.483	2.82
416.845	2.55
417.206	2.8
417.568	2.58
417.93	2.76
418.292	2.6
418.653	2.6
419.015	2.63
419.377	2.68
419.738	2.71
420.1	2.7
420.461	2.5
420.822	2.54
421.184	2.57
421.545	2.73
421.906	2.55
422.267	2.54
422.629	2.55
422.99	2.57
423.351	2.5
423.712	2.56
424.073	2.56
424.434	2.59
424.795	2.65
425.155	2.46
425.516	2.54
425.877	2.63
426.238	2.56
426.598	2.54
426.959	2.57
427.32	2.56
427.68	2.55
428.041	2.61
428.401	2.7
428.761	2.51
429.122	2.67
429.482	2.88
429.842	2.69
430.202	2.54
430.563	2.71
430.923	2.7
431.283	2.56
431.643	2.69
432.003	2.47
432.363	2.63
432.722	2.62
433.082	2.62
433.442	2.76
433.802	2.77
434.161	2.58
434.521	2.72
434.881	2.61
435.24	2.61
435.6	2.61
435.959	2.62
436.319	2.66
436.678	2.72
437.037	2.55
437.396	2.6
437.756	2.78
438.115	2.69
438.474	2.62
438.833	2.85
439.192	2.87
439.551	2.67
439.91	2.58
440.269	2.57
440.628	2.67
440.987	2.43
441.345	2.58
441.704	2.62
442.063	2.65
442.421	2.65
442.78	2.57
443.138	2.64
443.497	2.66
443.855	2.53
444.214	2.67
444.572	2.69
444.93	2.65
445.288	2.48
445.647	2.72
446.005	2.6
446.363	2.43
446.721	2.5
447.079	2.58
447.437	2.51
447.795	2.7
448.153	2.59
448.51	2.63
448.868	2.63
449.226	2.62
449.584	2.62
449.941	2.55
450.299	2.67
450.656	2.62
451.014	2.74
451.371	2.7
451.729	2.81
452.086	2.64
452.443	2.75
452.801	2.58
453.158	2.61
453.515	2.65
453.872	2.81
454.229	2.58
454.586	2.54
454.943	2.58
455.3	2.49
455.657	2.72
456.014	2.76
456.371	2.74
456.727	2.83
457.084	2.72
457.441	2.63
457.797	2.7
458.154	2.54
458.51	2.63
458.867	2.75
459.223	2.74
459.58	2.51
459.936	2.44
460.292	2.72
460.648	2.79
461.005	2.74
461.361	2.57
461.717	2.67
462.073	2.64
462.429	2.6
462.785	2.65
463.141	2.62
463.496	2.59
463.852	2.65
464.208	2.68
464.564	2.68
464.919	2.77
465.275	2.85
465.631	2.82
465.986	2.64
466.342	2.59
466.697	2.58
467.052	2.84
467.408	2.87
467.763	2.8
468.118	2.72
468.473	2.85
468.829	2.77
469.184	2.52
469.539	2.73
469.894	2.68
470.249	2.89
470.603	2.76
470.958	2.69
471.313	2.95
471.668	2.76
472.023	2.85
472.377	2.55
472.732	2.81
473.086	2.74
473.441	2.85
473.795	2.76
474.15	2.74
474.504	2.54
474.859	2.7
475.213	2.64
475.567	2.77
475.921	2.81
476.275	2.46
476.63	2.65
476.984	2.72
477.338	2.55
477.692	2.75
478.045	2.74
478.399	2.63
478.753	2.8
479.107	2.74
479.461	2.66
479.814	2.64
480.168	2.52
480.521	2.54
480.875	2.8
481.228	2.76
481.582	2.67
481.935	2.7
482.289	2.68
482.642	2.82
482.995	2.67
483.348	2.54
483.701	2.68
484.055	2.69
484.408	2.6
484.761	2.67
485.114	2.5
485.466	2.5
485.819	2.5
486.172	2.49
486.525	2.54
486.878	2.55
487.23	2.62
487.583	2.53
487.936	2.67
488.288	2.51
488.641	2.58
488.993	2.55
489.345	2.54
489.698	2.51
490.05	2.57
490.402	2.58
490.754	2.55
491.107	2.64
491.459	2.71
491.811	2.68
492.163	2.55
492.515	2.65
492.866	2.5
493.218	2.51
493.57	2.48
493.922	2.49
494.274	2.59
494.625	2.69
494.977	2.67
495.328	2.71
495.68	2.67
496.031	2.83
496.383	2.73
496.734	2.7
497.086	2.61
497.437	2.68
497.788	2.74
498.139	2.55
498.49	2.63
498.842	2.63
499.193	2.64
499.544	2.67
499.894	2.72
500.245	2.72
500.596	2.72
500.947	2.7
501.298	2.78
501.648	2.85
501.999	2.69
502.35	2.63
502.7	2.74
503.051	2.68
503.401	2.75
503.752	2.82
504.102	2.85
504.452	2.67
504.803	2.75
505.153	2.71
505.503	2.84
505.853	2.77
506.203	2.66
506.553	2.7
506.903	2.81
507.253	2.76
507.603	2.65
507.953	2.82
508.303	2.71
508.652	2.77
509.002	2.78
509.352	2.59
509.701	2.71
510.051	2.63
510.4	2.76
510.75	2.67
511.099	2.63
511.449	2.74
511.798	2.6
512.147	2.67
512.496	2.68
512.846	2.74
513.195	2.58
513.544	2.81
513.893	2.72
514.242	2.6
514.591	2.63
514.939	2.71
515.288	2.69
515.637	2.67
515.986	2.7
516.334	2.77
516.683	2.57
517.032	2.75
517.38	2.71
517.729	2.84
518.077	2.69
518.426	2.76
518.774	2.69
519.122	2.71
519.47	2.72
519.819	2.59
520.167	2.57
520.515	2.55
520.863	2.71
521.211	2.55
521.559	2.66
521.907	2.65
522.255	2.64
522.602	2.75
522.95	2.64
523.298	2.7
523.645	2.74
523.993	2.75
524.341	2.67
524.688	2.62
525.036	2.83
525.383	2.66
525.73	2.64
526.078	2.65
526.425	2.6
526.772	2.65
527.119	2.68
527.466	2.61
527.814	2.57
528.161	2.66
528.508	2.67
528.854	2.62
529.201	2.58
529.548	2.56
529.895	2.55
530.242	2.51
530.588	2.48
530.935	2.59
531.282	2.58
531.628	2.62
531.975	2.6
532.321	2.56
532.667	2.56
533.014	2.61
533.36	2.63
533.706	2.6
534.052	2.65
534.399	2.7
534.745	2.63
535.091	2.53
535.437	2.59
535.783	2.57
536.129	2.67
536.474	2.58
536.82	2.72
537.166	2.77
537.512	2.55
537.857	2.71
538.203	2.66
538.549	2.63
538.894	2.65
539.239	2.67
539.585	2.65
539.93	2.75
540.276	2.65
540.621	2.77
540.966	2.61
541.311	2.63
541.656	2.73
542.001	2.68
542.346	2.63
542.691	2.66
543.036	2.5
543.381	2.53
543.726	2.61
544.071	2.53
544.415	2.67
544.76	2.67
545.105	2.58
545.449	2.66
545.794	2.68
546.138	2.59
546.483	2.71
546.827	2.69
547.171	2.64
547.516	2.64
547.86	2.76
548.204	2.79
548.548	2.73
548.892	2.64
549.236	2.69
549.58	2.71
549.924	2.64
550.268	2.79
550.612	2.61
550.956	2.73
551.3	2.82
551.643	2.83
551.987	2.82
552.33	2.87
552.674	2.69
553.017	2.96
553.361	2.94
553.704	2.61
554.048	2.82
554.391	2.71
554.734	2.54
555.077	2.75
555.42	2.76
555.764	2.75
556.107	2.79
556.45	2.55
556.793	2.63
557.135	2.92
557.478	2.66
557.821	2.61
558.164	2.62
558.507	2.85
558.849	2.75
559.192	2.78
559.534	2.84
559.877	2.93
560.219	2.77
560.562	2.66
560.904	2.72
561.246	2.79
561.589	2.82
561.931	2.56
562.273	2.62
562.615	2.68
562.957	2.76
563.299	2.83
563.641	2.85
563.983	2.67
564.325	2.81
564.667	2.79
565.008	2.69
565.35	2.6
565.692	2.94
566.033	2.81
566.375	2.74
566.716	2.58
567.058	2.94
567.399	2.74
567.741	2.76
568.082	2.88
568.423	2.77
568.764	2.86
569.105	2.67
569.447	2.86
569.788	2.71
570.129	2.64
570.47	2.79
570.811	2.66
571.151	2.94
571.492	2.92
571.833	2.68
572.174	2.79
572.514	2.75
572.855	2.62
573.195	2.71
573.536	2.56
573.876	2.8
574.217	2.7
574.557	2.64
574.898	2.75
575.238	2.88
575.578	2.65
575.918	2.65
576.258	2.91
576.598	2.69
576.938	2.78
577.278	2.84
577.618	2.74
577.958	2.87
578.298	2.96
578.638	2.73
578.977	2.79
579.317	2.86
579.657	2.82
579.996	2.77
580.336	2.81
580.675	2.88
581.014	2.9
581.354	2.92
581.693	2.85
582.032	2.74
582.372	2.83
582.711	2.99
583.05	2.94
583.389	2.79
583.728	2.79
584.067	3.09
584.406	2.88
584.745	2.97
585.083	2.67
585.422	2.88
585.761	2.95
586.1	2.66
586.438	2.94
586.777	2.97
587.115	2.99
587.454	2.98
587.792	2.39
588.13	3.07
588.469	2.83
588.807	2.72
589.145	2.95
589.483	2.8
589.821	2.83
590.159	2.9
590.497	2.72
590.835	2.94
591.173	2.85
591.511	2.7
591.849	2.88
592.187	2.77
592.524	2.81
592.862	2.67
593.2	2.46
593.537	2.88
593.875	3.06
594.212	2.75
594.55	2.91
594.887	3.19
595.224	3.05
595.561	2.98
595.899	2.73
596.236	2.8
596.573	2.77
596.91	2.93
597.247	2.78
597.584	2.68
597.921	2.7
598.258	2.82
598.594	2.91
598.931	2.83
599.268	2.73
599.604	2.79
599.941	2.77
600.277	2.85
600.614	3.01
600.95	2.93
601.287	2.78
601.623	3.05
601.959	2.81
602.296	3.12
602.632	2.68
602.968	2.92
603.304	2.91
603.64	3.15
603.976	2.68
604.312	2.77
604.648	2.84
604.984	2.9
605.319	2.86
605.655	2.83
605.991	2.91
606.326	2.64
606.662	2.96
606.998	2.73
607.333	3.02
607.668	2.81
608.004	2.82
608.339	3.07
608.674	2.7
609.01	2.9
609.345	2.98
609.68	2.94
610.015	2.66
610.35	2.82
610.685	2.92
611.02	3.05
611.355	2.96
611.689	2.82
612.024	2.72
612.359	3.01
612.694	2.78
613.028	2.89
613.363	2.79
613.697	2.89
614.032	2.87
614.366	3.08
614.7	2.81
615.035	3.14
615.369	2.86
615.703	3.07
616.037	2.72
616.371	2.99
616.705	2.79
617.039	3.09
617.373	2.83
617.707	2.84
618.041	2.74
618.375	2.84
618.709	2.99
619.042	2.92
619.376	2.91
619.71	2.73
620.043	2.74
620.377	2.75
620.71	2.71
621.043	2.9
621.377	2.5
621.71	3.07
622.043	2.9
622.376	2.99
622.709	3.13
623.043	3.22
623.376	3.19
623.709	3.04
624.041	3.09
624.374	2.99
624.707	2.89
625.04	2.99
625.373	2.69
625.705	2.8
626.038	3
626.37	3.04
626.703	3.01
627.035	2.85
627.368	2.82
627.7	2.61
628.032	2.87
628.365	2.75
628.697	2.81
629.029	2.81
629.361	2.78
629.693	2.92
630.025	2.74
630.357	2.9
630.689	2.64
631.021	3.32
631.353	2.92
631.684	2.73
632.016	2.78
632.348	3.05
632.679	2.58
633.011	3.33
633.342	3.16
633.674	2.92
634.005	2.83
634.336	3.36
634.668	2.9
634.999	2.95
635.33	3.22
635.661	2.72
635.992	2.96
636.323	2.81
636.654	3.09
636.985	2.87
637.316	2.96
637.647	3.03
637.977	3.11
638.308	3.21
638.639	2.88
638.969	3.08
639.3	2.76
639.63	3.1
639.961	2.96
640.291	2.52
640.622	2.89
640.952	3.15
641.282	2.92
641.612	3.52
641.943	3.05
642.273	3.16
642.603	3.3
642.933	2.78
643.263	2.32
643.592	3.25
643.922	3.4
644.252	3.13
644.582	2.49
644.911	3.13
645.241	2.83
645.571	3.34
645.9	2.88
646.23	2.72
646.559	3.17
646.888	3.18
647.218	3.08
647.547	2.9
647.876	3.23
648.205	3.26
648.534	3.5
648.863	3.22
649.192	3.75
649.521	3.28
649.85	2.76
650.179	3.44
650.508	3.23
650.837	3.13
651.165	2.47
651.494	2.56
651.822	2.83
652.151	3.14
652.479	2.97
652.808	3.26
653.136	2.88
653.465	3.13
653.793	2.91
654.121	3.15
654.449	2.88
654.777	3.26
655.105	3.11
655.433	3.01
655.761	3.16
656.089	3.31
656.417	2.88
656.745	2.77
657.073	2.83
657.4	2.96
657.728	2.36
658.056	3.48
658.383	3.01
658.711	3.04
659.038	2.97
659.365	3.12
659.693	2.8
660.02	2.7
660.347	3.16
660.674	3.04
661.001	3.26
661.329	2.89
661.656	2.89
661.982	3.03
662.309	3.28
662.636	2.91
662.963	3.29
663.29	3.46
663.616	3.2
663.943	3.3
664.27	3.66
664.596	3.21
664.923	4.17
665.249	2.56
665.576	3.14
665.902	3.47
666.228	3.03
666.554	2.91
666.881	2.26
667.207	2.99
667.533	3.06
667.859	3.07
668.185	3.74
668.511	3.49
668.837	3
669.162	3.88
669.488	2.98
669.814	3.28
670.139	3.11
670.465	2.31
670.791	3.11
671.116	2.84
671.442	2.87
671.767	3.46
672.092	3.53
672.418	3.34
672.743	3.13
673.068	2.36
673.393	3.61
673.718	3.44
674.043	3.6
674.368	2.56
674.693	2.73
675.018	2.69
675.343	3.15
675.667	3.2
675.992	2.95
676.317	3.16
676.641	2.54
676.966	2.85
677.29	3.05
677.615	3.37
677.939	2.74
678.264	3.36
678.588	3.85
678.912	3.64
679.236	2.73
679.56	3.29
679.885	3.04
680.209	2.9
680.532	3.45
680.856	3.09
681.18	2.98
681.504	3.07
681.828	3.06
682.152	3.17
682.475	3.56
682.799	3.44
683.122	2.91
683.446	3.31
683.769	3.76
684.093	2.88
684.416	2.81
684.739	3.5
685.062	3.27
685.386	3.85
685.709	3.37
686.032	2.59
686.355	2.68
686.678	3.15
687.001	2.95
687.324	2.85
687.646	3.46
687.969	3.04
688.292	2.82
688.614	3.26
688.937	3.21
689.26	2.93
689.582	2.76
689.904	3.64
690.227	3.42
690.549	3.21
690.871	3.63
691.194	3.71
691.516	3.46
691.838	2.49
692.16	3.3
692.482	3.73
692.804	3.59
693.126	3.55
693.448	3.07
693.769	2.85
694.091	3.62
694.413	4.16
694.735	3.25
695.056	2.82
695.378	3.35
695.699	4.18
696.021	2.09
696.342	3.12
696.663	3.4
696.984	2.43
697.306	3.05
697.627	2.87
697.948	3.51
698.269	3.18
698.59	4.17
698.911	3.37
699.232	2.53
699.553	2.95
699.873	4.01
700.194	3.6
700.515	3.56
700.835	3.36
701.156	3.22
701.477	3.58
701.797	3.28
702.117	2.96
702.438	3.23
702.758	2.85
703.078	4.16
703.398	3.46
703.719	3.55
704.039	3.23
704.359	3.1
704.679	4.49
704.999	3.46
705.319	2.48
705.638	3.77
705.958	3.07
706.278	4.7
706.597	3.88
706.917	4.4
707.237	2.68
707.556	3.84
707.876	3.39
708.195	3.57
708.514	3.55
708.834	4.3
709.153	3.45
709.472	3.67
709.791	3.12
710.11	3.49
710.429	3.29
710.748	2.88
711.067	4.42
711.386	2.43
711.705	3.38
712.023	4.13
712.342	3.73
712.661	3.55
712.979	4.47
713.298	3.51
713.616	2.83
713.935	3.99
714.253	3.07
714.572	3.8
714.89	3.57
715.208	3.13
715.526	2.51
715.844	3.03
716.162	4
716.48	2.19
716.798	3.4
717.116	3.94
717.434	3.3
717.752	3.47
718.069	3.5
718.387	3.18
718.705	3.3
719.022	4.59
719.34	3.54
719.657	4.67
719.975	4.46
720.292	4.2
720.609	3.97
720.927	2.87
721.244	3.17
721.561	3.65
721.878	2.48
722.195	2.24
722.512	3.74
722.829	4.65
723.146	2.84
723.463	4.35
723.779	2.53
724.096	3.45
724.413	3.61
724.729	2.63
725.046	4.47
725.362	3.41
725.679	1.29
725.995	2.84
726.311	3.15
726.628	3.96
726.944	4.31
727.26	3.6
727.576	2.32
727.892	2.41
728.208	3.15
728.524	2.49
728.84	3.19
729.156	3.15
729.472	4.46
729.787	3.38
730.103	4.3
730.419	2.71
730.734	2.26
731.05	4.22
731.365	3.58
731.681	4.17
731.996	3.79
732.311	4.26
732.626	5.22
732.942	2.81
733.257	3.9
733.572	3.86
733.887	4.82
734.202	4.11
734.517	2.18
734.832	3.33
735.146	3.33
735.461	4.21
735.776	3.29
736.091	2.13
736.405	4.35
736.72	2.71
737.034	3.27
737.349	3.69
737.663	4.17
737.977	3.4
738.292	4.8
738.606	3.21
738.92	2.3
739.234	4.27
739.548	4.27
739.862	4.27
740.176	2.05
740.49	4.07
740.804	4.13
741.117	2.94
741.431	4.12
741.745	5.26
742.058	3.58
742.372	5.25
742.685	4.15
742.999	3.23
743.312	2.74
743.626	2.59
743.939	6.76
744.252	3.93
744.565	3.28
744.878	3.5
745.191	3.8
745.505	3.82
745.817	5.72
746.13	4.1
746.443	3.98
746.756	5.77
747.069	3.42
747.381	2.63
747.694	1.52
748.007	4.12
748.319	2.45
748.632	4.56
748.944	2.01
749.256	5.57
749.569	3.18
749.881	1.92
750.193	1.17
750.505	2.34
750.817	2.67
751.129	4.05
751.441	5.11
751.753	5.62
752.065	3.5
752.377	2.72
752.689	4.1
753	3.9
753.312	3.47
753.624	3.77
753.935	3.56
754.247	4.04
754.558	2.72
754.869	4.69
755.181	5.09
755.492	4.31
755.803	4.09
756.114	3.61
756.425	5.76
756.736	4.26
757.047	2.41
757.358	4.97
757.669	6.41
757.98	6.6
758.291	4.21
758.601	3.77
758.912	3.49
759.223	3.29
759.533	3.82
759.844	2.96
760.154	6.26
760.464	4.49
760.775	3.19
761.085	3.02
761.395	4.05
761.705	4.28
762.016	4.33
762.326	6.22
762.636	3.73
762.945	4.19
763.255	4.33
763.565	3.14
763.875	3.14
764.185	3.61
764.494	4.26
764.804	5.23
765.113	5.42
765.423	4.53
765.732	3.04
766.042	4.38
766.351	3.79
766.66	3.16
766.97	3.99
767.279	4.58
767.588	4.21
767.897	4.48
768.206	4.31
768.515	5.32
768.824	4.5
769.133	5.92
769.441	5.61
769.75	1.65
770.059	4.43
770.367	1.09
770.676	6.51
770.984	4.12
771.293	4.5
771.601	4.89
771.91	4.17
772.218	3.76
772.526	2.54
772.834	2.09
773.142	6.04
773.45	6.07
773.758	3.52
774.066	6.23
774.374	1.76
774.682	5.03
774.99	-0.21
775.298	3.63
775.605	4.35
775.913	5.04
776.22	5.09
776.528	1.97
776.835	2.75
777.143	6.89
777.45	1.4
777.757	3.35
778.065	2.95
778.372	4.77
778.679	1.2
778.986	7.41
779.293	5.41
779.6	6
779.907	1.08
780.214	5.58
780.52	5.46
780.827	7.84
781.134	5.4
781.44	8.26
781.747	4.12
782.053	3.29
782.36	4.67
782.666	2.13
782.973	1.6
783.279	5.64
783.585	3.25
783.891	5.14
784.197	6.27
784.503	6.79
784.809	4.21
785.115	6.81
785.421	7.17
785.727	4.11
786.033	-0.07
786.339	-1.81
786.644	3.4
786.95	9.46
787.255	4.56
787.561	5.42
787.866	8.48
788.172	4.03
788.477	0.7
788.782	4.02
789.088	11.45
789.393	3.84
789.698	1.21
790.003	3.93
790.308	3.83
790.613	2.87
790.918	3.49
791.223	5.7
791.527	5.98
791.832	5.34
792.137	3.96
792.441	4.82
792.746	5.02
793.05	5.16
793.355	4.91
793.659	8.85
793.963	7.16
794.268	3.15
794.572	4.24
794.876	3.84
795.18	2.32
795.484	0.6
795.788	4.29
796.092	-3.71
796.396	2.16
796.7	-4.11
797.004	7.89
797.307	0.89
797.611	3.75
797.915	-0.39
798.218	4.55
798.522	-0.39
798.825	5.25
799.128	5.07
799.432	3.52
799.735	5.64
800.038	8.17
800.341	6.26
800.644	-0.96
800.947	10.24
801.25	2.85
801.553	2.38
801.856	2.06
802.159	4.44
802.462	7.13
802.764	2.44
803.067	4.68
803.37	2.08
803.672	1.89
803.975	0.29
804.277	8.4
804.579	4.88
804.882	2.69
805.184	4.16
805.486	4.6
805.788	1.87
806.09	4.03
806.392	4.97
806.694	3.7
806.996	1.95
807.298	6.57
807.6	9.17
807.902	5.43
808.203	5.88
808.505	9.33
808.807	1.17
809.108	3.7
809.409	3.03
809.711	5.28
810.012	4.96
810.313	4.17
810.615	3.51
810.916	-0.09
811.217	0.41
811.518	-3.85
811.819	1.36
812.12	5.27
812.421	0.82
812.722	10.47
813.023	6.22
813.323	5.14
813.624	5.42
813.925	13.44
814.225	1.58
814.526	7.16
814.826	12.27
815.126	-3.89
815.427	3.83
815.727	2.09
816.027	-0.4
816.327	-0.86
816.627	8.41
816.927	11.26
817.227	7.95
817.527	4.7
817.827	4.28
818.127	11.21
818.427	1.46
818.727	-2.01
819.026	6.17
819.326	2.44
819.625	9.44
819.925	5.97
820.224	6.89
820.524	1.5
820.823	12.11
821.122	6.83
821.421	6.41
821.72	-0.13
822.019	0.02
822.318	-3.79
822.617	4.93
822.916	-0.74
823.215	5.46
823.514	8.41
823.813	7.23
824.111	5.93
824.41	4.94
824.709	6
825.007	5.9
825.306	4.91
825.604	4.92
825.902	5.81
826.201	5.29
826.499	5.52
826.797	6.54
827.095	5.03
827.393	6.34
827.691	5.65
827.989	5.12
828.287	4.12
828.585	5.76
828.882	8.85
829.18	6.95
829.478	6.13
829.775	5.38
830.073	4.6
830.37	9.51
830.668	5.75
830.965	8.96
831.263	7.26
831.56	5.99
831.857	3.95
832.154	2.52
832.451	5.61
832.748	5.7
833.045	7.4
833.342	11.67
833.639	11.7
833.936	6.64
834.232	8.62
834.529	1.49
834.826	6.44
835.122	5.42
835.419	8.1
835.715	4.19
836.012	4.13
836.308	8.04
836.604	8.27
836.901	5.14
837.197	8.02
837.493	5.98
837.789	10.2
838.085	10.56
838.381	7.65
838.677	5
838.972	8.57
839.268	0.68
839.564	6.63
839.86	7.98
840.155	-4.62
840.451	3.54
840.746	9.79
841.042	3.62
841.337	9.01
841.632	4.72
841.928	7.91
842.223	9.05
842.518	12.12
842.813	7.05
843.108	8.18
843.403	1.64
843.698	6.15
843.993	-0.23
844.287	12.34
844.582	4.4
844.877	11.8
845.171	7.55
845.466	12.11
845.761	8.95
846.055	1.69
846.349	18.97
846.644	12.54
846.938	16.39
847.232	6.07
847.526	8.46
847.82	14.66
848.114	26.24
848.408	-13.96
848.702	8.67
848.996	13.63
849.29	16.3
849.584	-3.85
849.877	15.74
850.171	-0.26
850.465	11.04
850.758	9.01
851.052	-15.76
851.345	2.28
851.638	11.82
851.932	5.62
852.225	-18.33
852.518	17.66
852.811	13.16
853.104	-10.08
853.397	3
853.69	13.26
853.983	22.39
854.276	-6.92
854.569	24.17
854.861	-5.7
855.154	38
855.447	4.06
855.739	27.43
856.032	4.62
856.324	2.16
856.616	-12.85
856.909	9.74
857.201	8.14
857.493	-27.18
857.785	10.24
858.077	1.9
858.369	0.73
858.661	11.17
858.953	15.61
859.245	-4.71
859.537	20.31
859.829	16.09
860.12	-10.84
860.412	-18.73
860.703	-16.69
860.995	-7.47
861.286	-3.64
861.578	24.3
861.869	1.53
862.16	-6.3
862.452	4.09
862.743	-14.25
863.034	25.38
863.325	22.68
863.616	0.16
863.907	-11.95
864.198	11
864.488	22.55
864.779	12.45
865.07	-14.16
865.36	15.4
865.651	-55.88
865.941	-4.17
866.232	0.9
866.522	-18.92
866.813	-10.2
867.103	-8.75
867.393	-5.47
867.683	-13.76
867.973	25.84
868.263	3.48
868.553	12.1
868.843	-23.26
869.133	-4.49
869.423	20.65
869.713	47.4
870.002	-24.34
870.292	16.91
870.582	-23.02
870.871	12.53
871.161	17.1
871.45	25.86
871.739	-29.93
872.029	-13.82
872.318	-7.57
872.607	-6.8
872.896	9.24
873.185	-8.55
873.474	-1.58
873.763	-5.57
874.052	12.9
874.341	12.92
874.63	32.6
874.918	10.97
875.207	9.07
875.496	28.16
875.784	-3.71
876.073	-1.73
876.361	-3.85
876.649	11.37
876.938	31.13
877.226	-3.86
877.514	-60.47
877.802	-16.98
878.09	-26.37
878.378	-3.33
878.666	10.65
878.954	-5.03
879.242	-5.92
879.53	15.95
879.817	-29.88
880.105	16.82
880.392	18
880.68	-4.33
880.967	6.16
881.255	6.91
881.542	-0.95
881.83	8.42
882.117	-3.97
882.404	17.21
882.691	-37.68
882.978	-0.53
883.265	-13.18
883.552	14.34
883.839	11.93
884.126	5.48
884.413	0.62
884.699	4.02
884.986	14.56
885.273	5.69
885.559	5.69
885.846	5.69
