Data from 448_forehead_Reflection__3__58.txt Node

Date: Tue Dec 12 18:41:06 CST 2023
User: ToomeyLab
Spectrometer: FLMS14357
Trigger mode: 0
Integration Time (sec): 1.000000E-2
Scans to average: 100
Electric dark correction enabled: true
Nonlinearity correction enabled: false
Boxcar width: 0
XAxis mode: Wavelengths
Number of Pixels in Spectrum: 2048
>>>>>Begin Spectral Data<<<<<
189.047	-49.68
189.435	-49.68
189.823	-49.68
190.211	75.32
190.599	108.19
190.987	1
191.375	-50.43
191.763	181.36
192.151	42.21
192.538	-109.27
192.926	78.74
193.314	-783.37
193.702	100.57
194.089	86.47
194.477	123.81
194.864	18.23
195.252	57.89
195.639	414.31
196.027	-499.53
196.414	29.65
196.801	-133.25
197.189	20.85
197.576	-86.8
197.963	96.59
198.351	49.41
198.738	63.94
199.125	76.77
199.512	29.75
199.899	20.23
200.286	51.34
200.673	50.17
201.06	55.74
201.447	-11
201.833	28
202.22	24.42
202.607	-41.17
202.994	53.43
203.38	37.38
203.767	42.03
204.154	26.01
204.54	32.01
204.927	14.65
205.313	19.7
205.699	24.02
206.086	47.68
206.472	46.67
206.858	23.01
207.245	30.5
207.631	62.45
208.017	62.59
208.403	-3.12
208.789	49.75
209.175	51.19
209.561	23.7
209.947	16.65
210.333	52.97
210.719	6.34
211.105	31.94
211.491	37.16
211.876	40.42
212.262	54.24
212.648	6.87
213.034	11.44
213.419	24.03
213.805	47.58
214.19	41.16
214.576	28.67
214.961	32.97
215.346	16.02
215.732	38.24
216.117	7.3
216.502	-26.78
216.888	21.67
217.273	24.11
217.658	-2.35
218.043	13.47
218.428	40.69
218.813	18
219.198	-13
219.583	20.61
219.968	35.94
220.353	13.32
220.738	14.96
221.122	30.08
221.507	10.48
221.892	24.25
222.276	14.76
222.661	3.76
223.046	-2.33
223.43	21.65
223.815	20.34
224.199	2.05
224.583	21.3
224.968	22.07
225.352	13.87
225.736	27.77
226.121	9.05
226.505	13.89
226.889	5.68
227.273	6.61
227.657	15.2
228.041	11.47
228.425	4.47
228.809	9.78
229.193	6.7
229.577	7.27
229.961	5.43
230.344	6.28
230.728	7.25
231.112	6.3
231.495	6
231.879	7.63
232.263	6.1
232.646	6.46
233.03	6.99
233.413	5.27
233.797	6.52
234.18	6.78
234.563	6.36
234.946	6.97
235.33	8.75
235.713	6.75
236.096	6.45
236.479	6.3
236.862	7.98
237.245	6.38
237.628	5.56
238.011	7.41
238.394	5.13
238.777	6.47
239.16	6.81
239.543	6.63
239.925	9.13
240.308	6.05
240.691	7.6
241.073	7.55
241.456	6.37
241.838	5.84
242.221	6.68
242.603	6.9
242.986	6.34
243.368	6.33
243.75	5.73
244.133	6.17
244.515	6.28
244.897	6.34
245.279	6.05
245.661	5.01
246.043	6.39
246.425	6.44
246.807	5.99
247.189	6.28
247.571	6.21
247.953	5.98
248.335	6.22
248.717	5.88
249.098	5.83
249.48	5.65
249.862	5.2
250.243	5.28
250.625	6.33
251.006	6.18
251.388	6.83
251.769	6.12
252.151	7.02
252.532	6.52
252.913	6.86
253.295	7.15
253.676	5.35
254.057	5.77
254.438	6.2
254.819	5.37
255.2	5.94
255.581	5.3
255.962	5.4
256.343	7.33
256.724	6.29
257.105	7
257.486	5.6
257.867	5.57
258.247	6.22
258.628	6.98
259.009	5.28
259.389	6.49
259.77	5.12
260.15	5.63
260.531	6.72
260.911	6.05
261.292	5.51
261.672	5.32
262.052	5.74
262.432	5.77
262.813	5.92
263.193	5.93
263.573	6.2
263.953	7.08
264.333	7.2
264.713	6.02
265.093	5.67
265.473	6.61
265.853	5.68
266.233	6.46
266.612	5.93
266.992	6.17
267.372	5.96
267.752	6.82
268.131	5.22
268.511	5.83
268.89	5.6
269.27	5.74
269.649	5.21
270.029	6.2
270.408	6.37
270.787	5.78
271.167	5.68
271.546	5.91
271.925	5.88
272.304	6.25
272.683	5.45
273.062	5.98
273.441	5.93
273.82	5.29
274.199	6.02
274.578	5.83
274.957	5.71
275.336	5.67
275.715	6.15
276.093	4.85
276.472	6.18
276.851	6.93
277.229	5.67
277.608	6.2
277.986	5.47
278.365	5.3
278.743	5.57
279.122	6.02
279.5	5.62
279.878	5.19
280.257	5.58
280.635	5.91
281.013	5.79
281.391	5.5
281.769	5.61
282.147	5.98
282.525	5.24
282.903	5.62
283.281	5.38
283.659	5.67
284.037	6.02
284.415	5.81
284.792	6.12
285.17	5.86
285.548	6.31
285.925	6.09
286.303	5.82
286.68	6.23
287.058	5.87
287.435	5.75
287.813	5.79
288.19	5.8
288.567	6.1
288.945	6
289.322	5.89
289.699	6.25
290.076	5.99
290.453	7.18
290.83	6.09
291.207	6.3
291.584	6.64
291.961	6.31
292.338	6.61
292.715	6.71
293.092	6.09
293.469	6.55
293.845	6.48
294.222	6.64
294.599	6.48
294.975	6.78
295.352	6.84
295.728	7.22
296.105	6.96
296.481	7.36
296.858	6.97
297.234	7.34
297.61	7.15
297.986	7.73
298.363	7.26
298.739	7.29
299.115	6.96
299.491	6.89
299.867	7.3
300.243	7.12
300.619	7.89
300.995	7.7
301.371	8
301.746	7.92
302.122	8.12
302.498	8.22
302.874	7.82
303.249	8.3
303.625	7.8
304	8.25
304.376	8.09
304.751	9.08
305.127	8.4
305.502	8.59
305.878	8.16
306.253	8.25
306.628	8.67
307.003	8.64
307.378	8.92
307.754	9.17
308.129	8.14
308.504	9.42
308.879	8.76
309.254	9.94
309.629	9.51
310.003	9.47
310.378	10
310.753	10.1
311.128	10.17
311.502	9.12
311.877	9.94
312.252	9.4
312.626	9.65
313.001	9.67
313.375	9.59
313.75	10.3
314.124	10.09
314.498	10.21
314.873	10.04
315.247	10.36
315.621	9.88
315.995	11.11
316.369	11.04
316.743	10.37
317.117	10.53
317.491	11.1
317.865	11.36
318.239	11.75
318.613	11.52
318.987	11.7
319.361	11.53
319.734	11.09
320.108	11.88
320.482	11.48
320.855	11.36
321.229	12.15
321.602	11.85
321.976	11.97
322.349	12.13
322.723	12.68
323.096	12.46
323.469	12.26
323.843	13.74
324.216	13.03
324.589	12.45
324.962	12.64
325.335	13.18
325.708	13.41
326.081	13.04
326.454	12.96
326.827	13.4
327.2	12.93
327.573	12.61
327.945	13.05
328.318	13.93
328.691	13.02
329.063	13.81
329.436	13.36
329.809	13.88
330.181	12.66
330.553	13.48
330.926	13.82
331.298	13.97
331.671	13.79
332.043	14.34
332.415	14.31
332.787	14.28
333.159	14.15
333.532	14.87
333.904	14.18
334.276	14.61
334.648	14.47
335.02	14.39
335.391	14.67
335.763	14.72
336.135	14.73
336.507	14.76
336.879	14.78
337.25	15.18
337.622	14.75
337.993	15.08
338.365	15.04
338.736	14.74
339.108	15.43
339.479	15.52
339.851	15.48
340.222	15.13
340.593	15.56
340.964	15.78
341.336	15.61
341.707	15.57
342.078	15.42
342.449	15.98
342.82	16.31
343.191	15.59
343.562	16.21
343.933	16.12
344.303	16.44
344.674	16.45
345.045	16.53
345.416	16.44
345.786	16.12
346.157	16.38
346.527	16.83
346.898	16.63
347.268	16.59
347.639	16.74
348.009	16.56
348.38	16.99
348.75	17.34
349.12	17.51
349.49	16.85
349.861	17.45
350.231	17.07
350.601	17.78
350.971	17.78
351.341	17.32
351.711	17.79
352.081	17.47
352.45	17.75
352.82	17.89
353.19	17.87
353.56	17.93
353.929	17.69
354.299	17.44
354.669	17.97
355.038	17.66
355.408	18.2
355.777	18.64
356.147	17.79
356.516	18.24
356.885	18.41
357.254	18.67
357.624	18.15
357.993	18.34
358.362	18.96
358.731	18.81
359.1	18.64
359.469	18.79
359.838	18.82
360.207	18.72
360.576	19.09
360.945	18.81
361.314	19.34
361.682	19.07
362.051	19.12
362.42	19.35
362.788	19.32
363.157	19.72
363.525	19.42
363.894	19.17
364.262	19.52
364.631	19.42
364.999	19.39
365.367	19.84
365.735	19.5
366.104	20.29
366.472	19.89
366.84	20.19
367.208	20.27
367.576	20.25
367.944	20.13
368.312	20.38
368.68	20.54
369.048	20.49
369.416	20.25
369.783	20.39
370.151	20.67
370.519	20.52
370.886	20.66
371.254	20.92
371.621	20.89
371.989	20.99
372.356	20.97
372.724	20.96
373.091	20.78
373.458	21.12
373.826	21.31
374.193	21.03
374.56	21.54
374.927	21.58
375.294	21.3
375.661	21.54
376.028	21.82
376.395	21.89
376.762	22.03
377.129	21.92
377.496	21.83
377.863	21.44
378.229	21.85
378.596	21.77
378.963	21.85
379.329	21.76
379.696	22.01
380.062	22.22
380.429	22.32
380.795	22.53
381.161	22.77
381.528	22.41
381.894	22.46
382.26	22.43
382.626	22.55
382.993	22.63
383.359	22.52
383.725	22.69
384.091	23
384.457	22.83
384.823	22.88
385.188	23.1
385.554	22.86
385.92	23.03
386.286	23.23
386.651	23.58
387.017	23.5
387.383	23.42
387.748	23.46
388.114	23.32
388.479	23.51
388.845	23.69
389.21	23.45
389.575	23.21
389.94	23.84
390.306	23.52
390.671	23.88
391.036	23.93
391.401	23.99
391.766	24.1
392.131	24.58
392.496	24.17
392.861	23.74
393.226	24.32
393.591	24.14
393.956	24.07
394.32	24.24
394.685	24.37
395.05	24.24
395.414	24.58
395.779	24.38
396.143	24.63
396.508	24.79
396.872	24.64
397.236	24.88
397.601	24.85
397.965	24.81
398.329	24.9
398.694	24.78
399.058	25.22
399.422	24.98
399.786	25.32
400.15	25.1
400.514	25.43
400.878	25.26
401.242	25.37
401.605	25.85
401.969	25.45
402.333	25.52
402.697	25.37
403.06	25.55
403.424	25.75
403.787	25.64
404.151	25.91
404.514	25.59
404.878	25.66
405.241	26.05
405.604	25.71
405.968	25.99
406.331	25.98
406.694	26.05
407.057	25.86
407.42	26.1
407.783	26.43
408.146	26.3
408.509	26.2
408.872	26.12
409.235	26.44
409.598	26.69
409.961	26.66
410.323	26.85
410.686	26.71
411.049	27.03
411.411	26.71
411.774	26.54
412.136	26.8
412.499	26.71
412.861	26.99
413.223	27.3
413.586	26.83
413.948	27.02
414.31	27.06
414.672	27.21
415.035	27.2
415.397	27.33
415.759	27.42
416.121	27.55
416.483	27.33
416.845	27.7
417.206	27.98
417.568	27.56
417.93	27.41
418.292	27.68
418.653	27.89
419.015	27.58
419.377	27.86
419.738	27.51
420.1	27.63
420.461	27.58
420.822	27.7
421.184	27.71
421.545	27.9
421.906	27.78
422.267	27.63
422.629	27.74
422.99	27.72
423.351	27.75
423.712	27.98
424.073	28.04
424.434	28.09
424.795	27.99
425.155	28.3
425.516	28.2
425.877	28.28
426.238	28.21
426.598	28.28
426.959	28.43
427.32	28.51
427.68	28.6
428.041	28.63
428.401	28.64
428.761	28.87
429.122	28.9
429.482	29.02
429.842	29.24
430.202	29.21
430.563	29.49
430.923	29.39
431.283	29.41
431.643	29.51
432.003	29.31
432.363	29.52
432.722	29.3
433.082	29.43
433.442	29.53
433.802	29.41
434.161	29.61
434.521	29.63
434.881	29.54
435.24	29.67
435.6	29.57
435.959	29.7
436.319	29.63
436.678	29.87
437.037	29.88
437.396	29.92
437.756	29.95
438.115	30.13
438.474	30.34
438.833	30.29
439.192	30.12
439.551	30.27
439.91	30.18
440.269	30.05
440.628	30.36
440.987	30.16
441.345	30.29
441.704	30.32
442.063	30.41
442.421	30.38
442.78	30.54
443.138	30.36
443.497	30.38
443.855	30.65
444.214	30.68
444.572	30.81
444.93	30.77
445.288	30.82
445.647	30.93
446.005	31.26
446.363	30.94
446.721	30.81
447.079	30.98
447.437	30.85
447.795	30.85
448.153	30.89
448.51	30.78
448.868	31.02
449.226	31.08
449.584	31.02
449.941	31.01
450.299	31.38
450.656	31.44
451.014	31.5
451.371	31.63
451.729	31.54
452.086	31.69
452.443	32.06
452.801	31.99
453.158	31.96
453.515	32.13
453.872	31.91
454.229	31.87
454.586	32
454.943	32.03
455.3	32.03
455.657	32.19
456.014	32.3
456.371	32.09
456.727	32.07
457.084	32.22
457.441	32.41
457.797	32.46
458.154	32.34
458.51	32.47
458.867	32.59
459.223	32.64
459.58	32.82
459.936	32.54
460.292	32.57
460.648	32.54
461.005	32.37
461.361	32.29
461.717	32.29
462.073	32.19
462.429	32.39
462.785	32.59
463.141	32.79
463.496	32.7
463.852	33.19
464.208	33.13
464.564	33.08
464.919	32.99
465.275	33.44
465.631	33.58
465.986	33.26
466.342	33.36
466.697	33.26
467.052	33.47
467.408	33.65
467.763	33.45
468.118	33.54
468.473	33.54
468.829	33.61
469.184	33.43
469.539	33.6
469.894	33.52
470.249	33.93
470.603	33.78
470.958	33.75
471.313	33.93
471.668	33.77
472.023	33.98
472.377	33.89
472.732	34.15
473.086	34.18
473.441	34.04
473.795	34.02
474.15	34.11
474.504	34.1
474.859	34.18
475.213	34.14
475.567	34.3
475.921	34.22
476.275	34.18
476.63	34.41
476.984	34.6
477.338	34.25
477.692	34.3
478.045	34.33
478.399	34.4
478.753	34.54
479.107	34.33
479.461	34.64
479.814	34.77
480.168	34.52
480.521	34.33
480.875	34.59
481.228	34.77
481.582	34.56
481.935	34.73
482.289	34.84
482.642	35.09
482.995	34.68
483.348	34.92
483.701	34.78
484.055	34.69
484.408	34.3
484.761	34.22
485.114	33.97
485.466	33.79
485.819	34.09
486.172	34.08
486.525	34.07
486.878	34.08
487.23	34.31
487.583	34.54
487.936	34.77
488.288	34.67
488.641	34.69
488.993	34.45
489.345	34.42
489.698	34.29
490.05	34.47
490.402	34.55
490.754	34.75
491.107	34.83
491.459	34.99
491.811	35.16
492.163	35.2
492.515	35.2
492.866	35.27
493.218	34.91
493.57	34.98
493.922	34.83
494.274	35.06
494.625	35.37
494.977	35.59
495.328	35.7
495.68	35.71
496.031	36.17
496.383	36.25
496.734	36.22
497.086	36.22
497.437	36.17
497.788	36.14
498.139	36.26
498.49	36.18
498.842	36.31
499.193	36.05
499.544	36.19
499.894	36.3
500.245	36.34
500.596	36.25
500.947	36.42
501.298	36.51
501.648	36.59
501.999	36.43
502.35	36.7
502.7	36.86
503.051	37.02
503.401	36.87
503.752	36.84
504.102	36.91
504.452	37.04
504.803	36.94
505.153	36.87
505.503	36.84
505.853	37.02
506.203	36.83
506.553	36.94
506.903	37.07
507.253	37.32
507.603	37.11
507.953	36.88
508.303	37.13
508.652	37.26
509.002	37.39
509.352	37.38
509.701	37.42
510.051	37.27
510.4	37.21
510.75	37.07
511.099	37.19
511.449	37.37
511.798	37.2
512.147	37.45
512.496	37.61
512.846	37.65
513.195	37.56
513.544	37.48
513.893	37.56
514.242	37.54
514.591	37.5
514.939	37.5
515.288	37.65
515.637	37.74
515.986	37.75
516.334	37.88
516.683	37.86
517.032	38.09
517.38	38.1
517.729	38.04
518.077	38.05
518.426	38.04
518.774	37.86
519.122	37.91
519.47	37.9
519.819	37.85
520.167	37.78
520.515	37.73
520.863	37.72
521.211	37.69
521.559	37.91
521.907	38.18
522.255	38.19
522.602	38.33
522.95	38.2
523.298	38.28
523.645	38.41
523.993	38.43
524.341	38.78
524.688	38.48
525.036	38.47
525.383	38.63
525.73	38.47
526.078	38.66
526.425	38.49
526.772	38.52
527.119	38.45
527.466	38.34
527.814	38.12
528.161	38.35
528.508	38.21
528.854	38.46
529.201	38.21
529.548	38.34
529.895	38.11
530.242	37.78
530.588	38.07
530.935	38.07
531.282	38.02
531.628	38.07
531.975	38.33
532.321	38.56
532.667	38.56
533.014	38.79
533.36	38.85
533.706	38.91
534.052	38.98
534.399	38.91
534.745	38.84
535.091	38.56
535.437	38.54
535.783	38.66
536.129	38.8
536.474	38.84
536.82	39.09
537.166	39.11
537.512	39.19
537.857	39.22
538.203	39.09
538.549	39.16
538.894	39.08
539.239	39.08
539.585	39.19
539.93	39.58
540.276	39.67
540.621	39.64
540.966	39.85
541.311	39.73
541.656	39.84
542.001	39.64
542.346	39.46
542.691	39.17
543.036	39.2
543.381	39.01
543.726	39.18
544.071	39.08
544.415	39.34
544.76	39.34
545.105	39.49
545.449	39.55
545.794	39.79
546.138	39.77
546.483	39.93
546.827	40.15
547.171	40
547.516	40.24
547.86	39.97
548.204	40.02
548.548	40.02
548.892	40.08
549.236	40.1
549.58	40.1
549.924	40.35
550.268	40.32
550.612	40.54
550.956	40.44
551.3	40.65
551.643	40.62
551.987	40.94
552.33	40.74
552.674	40.91
553.017	40.96
553.361	40.81
553.704	40.83
554.048	40.74
554.391	40.87
554.734	40.98
555.077	40.98
555.42	40.8
555.764	41.09
556.107	41.07
556.45	40.87
556.793	41.12
557.135	41.36
557.478	41.15
557.821	41.14
558.164	41.3
558.507	41.25
558.849	41.47
559.192	41.37
559.534	41.44
559.877	41.52
560.219	41.33
560.562	41.51
560.904	41.34
561.246	41.62
561.589	41.61
561.931	41.73
562.273	41.69
562.615	41.61
562.957	41.49
563.299	41.63
563.641	41.69
563.983	41.71
564.325	41.96
564.667	41.85
565.008	41.63
565.35	41.74
565.692	41.82
566.033	41.89
566.375	41.96
566.716	41.76
567.058	42.06
567.399	41.96
567.741	41.81
568.082	41.71
568.423	41.92
568.764	41.96
569.105	41.88
569.447	42.11
569.788	41.99
570.129	42.02
570.47	42.14
570.811	42.26
571.151	42.06
571.492	42.42
571.833	42.32
572.174	42.33
572.514	42.33
572.855	42.19
573.195	42.31
573.536	41.99
573.876	42.11
574.217	42.39
574.557	42.47
574.898	42.3
575.238	42.45
575.578	42.33
575.918	42.58
576.258	42.54
576.598	42.61
576.938	42.76
577.278	42.84
577.618	42.43
577.958	42.66
578.298	42.61
578.638	42.46
578.977	42.62
579.317	42.79
579.657	42.84
579.996	42.98
580.336	43.21
580.675	43.07
581.014	43.16
581.354	42.84
581.693	43.12
582.032	43.11
582.372	42.87
582.711	42.76
583.05	43.66
583.389	43.21
583.728	43.49
584.067	43.57
584.406	43.62
584.745	43.44
585.083	43.03
585.422	43.39
585.761	43.15
586.1	43.47
586.438	43.54
586.777	43.59
587.115	43.33
587.454	43.85
587.792	43.39
588.13	43.88
588.469	43.66
588.807	43.35
589.145	43.43
589.483	43.58
589.821	43.55
590.159	43.77
590.497	43.52
590.835	43.77
591.173	43.72
591.511	43.93
591.849	43.67
592.187	43.82
592.524	43.68
592.862	43.6
593.2	43.94
593.537	43.6
593.875	43.66
594.212	44.02
594.55	44.02
594.887	44.11
595.224	44.14
595.561	44.01
595.899	43.82
596.236	43.84
596.573	44.04
596.91	44.44
597.247	44.08
597.584	44.05
597.921	44.08
598.258	44.06
598.594	43.98
598.931	43.86
599.268	44.1
599.604	43.7
599.941	44.12
600.277	44.28
600.614	44.02
600.95	44.32
601.287	44.11
601.623	44.34
601.959	44.75
602.296	44.42
602.632	44.56
602.968	44.44
603.304	44.32
603.64	44.4
603.976	44.3
604.312	44.33
604.648	44.37
604.984	44.76
605.319	44.41
605.655	44.4
605.991	44.44
606.326	44.16
606.662	44.54
606.998	44.41
607.333	44.55
607.668	44.64
608.004	44.6
608.339	44.62
608.674	44.45
609.01	44.79
609.345	44.83
609.68	44.62
610.015	44.86
610.35	45.45
610.685	45.14
611.02	44.75
611.355	44.91
611.689	44.68
612.024	45.08
612.359	44.96
612.694	44.92
613.028	44.78
613.363	45.16
613.697	44.99
614.032	45.3
614.366	45.41
614.7	45.05
615.035	45.05
615.369	45.27
615.703	44.94
616.037	45.45
616.371	45.6
616.705	45.45
617.039	45.63
617.373	45.44
617.707	45.06
618.041	45.64
618.375	45.63
618.709	45.5
619.042	45.67
619.376	45.25
619.71	45.45
620.043	45.24
620.377	45.76
620.71	44.82
621.043	45.29
621.377	45.15
621.71	45.73
622.043	45.78
622.376	45.79
622.709	46.04
623.043	45.61
623.376	46.34
623.709	45.71
624.041	46.13
624.374	46.31
624.707	45.75
625.04	45.88
625.373	46.03
625.705	46.06
626.038	45.96
626.37	46.07
626.703	45.75
627.035	46.06
627.368	45.72
627.7	46.4
628.032	45.74
628.365	45.95
628.697	45.82
629.029	45.94
629.361	45.72
629.693	46.23
630.025	45.78
630.357	45.97
630.689	46.24
631.021	45.94
631.353	45.65
631.684	46.2
632.016	45.89
632.348	46.53
632.679	46.32
633.011	46.92
633.342	45.98
633.674	47.09
634.005	46.66
634.336	46.33
634.668	46.31
634.999	46.02
635.33	46.42
635.661	46.55
635.992	46.34
636.323	46.03
636.654	45.98
636.985	46.51
637.316	46.11
637.647	46.65
637.977	46.27
638.308	46.72
638.639	46.26
638.969	46.52
639.3	46.34
639.63	46.66
639.961	46.7
640.291	46.34
640.622	46.61
640.952	46.6
641.282	46.69
641.612	46.49
641.943	46.8
642.273	46.96
642.603	47.03
642.933	46.92
643.263	46.5
643.592	46.9
643.922	47.38
644.252	47.01
644.582	46.62
644.911	47.42
645.241	46.72
645.571	47.47
645.9	47.06
646.23	47.18
646.559	46.88
646.888	47.4
647.218	46.95
647.547	46.98
647.876	46.87
648.205	47.26
648.534	46.66
648.863	46.44
649.192	47.46
649.521	46.89
649.85	47.17
650.179	47.28
650.508	47.63
650.837	47.12
651.165	46.83
651.494	47.51
651.822	47.2
652.151	47.85
652.479	47.27
652.808	47.52
653.136	46.69
653.465	47.43
653.793	47.07
654.121	47.26
654.449	47.4
654.777	47.11
655.105	47.38
655.433	47.85
655.761	47.57
656.089	47.57
656.417	47.33
656.745	47.65
657.073	47.18
657.4	47.89
657.728	47.33
658.056	47.72
658.383	47.13
658.711	47.48
659.038	47.17
659.365	47.1
659.693	47.72
660.02	47.76
660.347	47.82
660.674	47.85
661.001	47.85
661.329	47.49
661.656	47.59
661.982	47.66
662.309	48.12
662.636	48.27
662.963	48.02
663.29	48.17
663.616	48.14
663.943	48.1
664.27	48.24
664.596	47.48
664.923	48.62
665.249	47.91
665.576	47.77
665.902	48.78
666.228	47.91
666.554	48.09
666.881	47.8
667.207	48.61
667.533	48.26
667.859	48.27
668.185	48.32
668.511	48.93
668.837	47.96
669.162	48.47
669.488	48.01
669.814	48.14
670.139	47.81
670.465	47.77
670.791	48.23
671.116	47.88
671.442	48.1
671.767	48.22
672.092	48.74
672.418	47.76
672.743	48.05
673.068	47.82
673.393	48.54
673.718	48.5
674.043	48.72
674.368	47.81
674.693	48.54
675.018	48.8
675.343	48.35
675.667	48.34
675.992	48.69
676.317	47.55
676.641	48.73
676.966	48.74
677.29	48.58
677.615	48.59
677.939	48.03
678.264	48.66
678.588	48.78
678.912	48.27
679.236	48.61
679.56	48.86
679.885	49.05
680.209	49.04
680.532	48.83
680.856	48.5
681.18	48.71
681.504	48.67
681.828	48.31
682.152	48.76
682.475	48.73
682.799	48.86
683.122	48.93
683.446	48.58
683.769	49.15
684.093	48.44
684.416	49.1
684.739	48.62
685.062	48.87
685.386	49.25
685.709	49.1
686.032	48.96
686.355	48.86
686.678	49.45
687.001	49.03
687.324	49.1
687.646	48.92
687.969	48.62
688.292	48.98
688.614	49.09
688.937	49.12
689.26	50.45
689.582	49.4
689.904	49.08
690.227	49.3
690.549	48.6
690.871	49.33
691.194	48.41
691.516	49.54
691.838	48.54
692.16	49.02
692.482	48.98
692.804	48.81
693.126	49.02
693.448	47.82
693.769	49.01
694.091	49.92
694.413	48.77
694.735	49.62
695.056	49.33
695.378	49.09
695.699	48.94
696.021	48.27
696.342	49.62
696.663	47.92
696.984	49.26
697.306	49.32
697.627	49.5
697.948	49.75
698.269	49.67
698.59	49.39
698.911	50.16
699.232	49.14
699.553	49.02
699.873	50.33
700.194	49.84
700.515	48.78
700.835	49.49
701.156	49.86
701.477	49.7
701.797	49.6
702.117	49.32
702.438	49.96
702.758	49.35
703.078	50.85
703.398	50.66
703.719	49.85
704.039	49.17
704.359	49.55
704.679	49.1
704.999	49.75
705.319	48.79
705.638	50.41
705.958	49.62
706.278	50.29
706.597	49.83
706.917	50.23
707.237	49.85
707.556	49.73
707.876	49.33
708.195	50.1
708.514	50.58
708.834	50.38
709.153	49.85
709.472	49.67
709.791	51.22
710.11	49.24
710.429	49.75
710.748	50.12
711.067	50.45
711.386	50.11
711.705	50.92
712.023	49.17
712.342	50.29
712.661	50.12
712.979	51.05
713.298	49.66
713.616	51.54
713.935	50.25
714.253	50.12
714.572	50.38
714.89	49.65
715.208	50.08
715.526	49.45
715.844	49.74
716.162	50.13
716.48	50.4
716.798	50.1
717.116	49.46
717.434	49.08
717.752	50.2
718.069	50.18
718.387	50.61
718.705	49.91
719.022	50.54
719.34	50.63
719.657	50.28
719.975	50.89
720.292	51.9
720.609	50.96
720.927	49.75
721.244	49.91
721.561	51.13
721.878	49.81
722.195	51.1
722.512	50.12
722.829	49.17
723.146	50.1
723.463	49.88
723.779	51.17
724.096	50.23
724.413	49.91
724.729	49.56
725.046	51.93
725.362	50.24
725.679	49.5
725.995	50.54
726.311	51
726.628	51.39
726.944	49.6
727.26	51.4
727.576	49.93
727.892	49.43
728.208	50.53
728.524	50.07
728.84	50.5
729.156	50.56
729.472	50.38
729.787	50.7
730.103	50.06
730.419	49.56
730.734	49.45
731.05	51.61
731.365	51.7
731.681	50.89
731.996	51.55
732.311	51.06
732.626	51.09
732.942	51.56
733.257	50.71
733.572	50.31
733.887	51.68
734.202	52.18
734.517	50.41
734.832	50.92
735.146	51.93
735.461	50.8
735.776	51.4
736.091	51.23
736.405	49.3
736.72	51.51
737.034	51.45
737.349	50.13
737.663	51.43
737.977	50.73
738.292	50.12
738.606	50.86
738.92	50.2
739.234	49.38
739.548	50.63
739.862	51.44
740.176	50.63
740.49	52.29
740.804	51.16
741.117	49.94
741.431	51.21
741.745	52.26
742.058	50.27
742.372	50.45
742.685	49.49
742.999	49.57
743.312	51.78
743.626	51.73
743.939	52.25
744.252	49.68
744.565	52.86
744.878	50.47
745.191	50.12
745.505	50.05
745.817	52.09
746.13	51.57
746.443	51.33
746.756	52.2
747.069	51.8
747.381	49.88
747.694	52.6
748.007	52.69
748.319	51.46
748.632	52.25
748.944	50.79
749.256	51.02
749.569	50.47
749.881	51.8
750.193	51.18
750.505	50.76
750.817	52.93
751.129	53.11
751.441	52.47
751.753	52.68
752.065	50.56
752.377	54.07
752.689	51.48
753	52.33
753.312	51.32
753.624	51.4
753.935	51.41
754.247	51.07
754.558	50.41
754.869	51.73
755.181	52.52
755.492	52.27
755.803	51.71
756.114	52.39
756.425	50.94
756.736	52.88
757.047	50.82
757.358	50.21
757.669	53.19
757.98	52.53
758.291	51.34
758.601	52.93
758.912	52.26
759.223	51.63
759.533	52.61
759.844	52.22
760.154	54.91
760.464	53.09
760.775	52.89
761.085	53.63
761.395	52.08
761.705	52.43
762.016	53.48
762.326	50.28
762.636	53.67
762.945	51.17
763.255	52.47
763.565	53.07
763.875	52.89
764.185	50.64
764.494	54.7
764.804	51.33
765.113	53.71
765.423	51.8
765.732	52.46
766.042	53.16
766.351	52.67
766.66	53.81
766.97	51.77
767.279	54.19
767.588	52.4
767.897	52.4
768.206	52.17
768.515	53.07
768.824	54.26
769.133	51.6
769.441	53.7
769.75	51.47
770.059	51.95
770.367	52.05
770.676	51.78
770.984	52.8
771.293	52.48
771.601	52.79
771.91	55.07
772.218	52.29
772.526	50.4
772.834	51.85
773.142	51.61
773.45	52.06
773.758	50.47
774.066	52.26
774.374	51.16
774.682	51.67
774.99	53.52
775.298	50.74
775.605	51.94
775.913	54.81
776.22	55.66
776.528	52.47
776.835	51.66
777.143	53.18
777.45	54.52
777.757	53.08
778.065	51.41
778.372	53.92
778.679	52.58
778.986	51.89
779.293	52.29
779.6	54.46
779.907	54.05
780.214	54.53
780.52	51.52
780.827	55.72
781.134	51.21
781.44	52.64
781.747	54.75
782.053	53.47
782.36	50.52
782.666	50.41
782.973	49.96
783.279	55.55
783.585	50.41
783.891	54.8
784.197	54.45
784.503	53.64
784.809	52.42
785.115	52.94
785.421	53.78
785.727	54.63
786.033	51.58
786.339	50.19
786.644	53.3
786.95	52.72
787.255	53.3
787.561	53.46
787.866	55.2
788.172	54.21
788.477	50.54
788.782	52.42
789.088	57.61
789.393	51
789.698	55.42
790.003	50.85
790.308	51.32
790.613	52.91
790.918	52.42
791.223	54.9
791.527	52.43
791.832	52.8
792.137	50.84
792.441	51.81
792.746	53.93
793.05	51.06
793.355	54.81
793.659	52.99
793.963	55.82
794.268	57.75
794.572	56.9
794.876	56.25
795.18	48.87
795.484	53.43
795.788	54.67
796.092	51.25
796.396	53.83
796.7	48.03
797.004	53.59
797.307	53.53
797.611	53.06
797.915	48.57
798.218	52.07
798.522	46.59
798.825	55.83
799.128	52.81
799.432	54.47
799.735	54.79
800.038	54.22
800.341	53.4
800.644	51.78
800.947	55.78
801.25	53.1
801.553	53.36
801.856	53.39
802.159	55.36
802.462	54.91
802.764	52.91
803.067	54.24
803.37	51.45
803.672	51.6
803.975	47.85
804.277	53.06
804.579	57.75
804.882	48.87
805.184	50.18
805.486	48.48
805.788	55.13
806.09	51.38
806.392	60.45
806.694	51.81
806.996	47.61
807.298	52.05
807.6	54.13
807.902	52.11
808.203	57.18
808.505	59.3
808.807	55.13
809.108	53.16
809.409	51.77
809.711	51.5
810.012	51.3
810.313	54.22
810.615	51.77
810.916	47.5
811.217	52.64
811.518	53.18
811.819	55.72
812.12	49.11
812.421	54.37
812.722	52.87
813.023	55.69
813.323	48.1
813.624	53.91
813.925	63.01
814.225	51.56
814.526	47.91
814.826	57.79
815.126	51.64
815.427	50.63
815.727	48.5
816.027	54.88
816.327	58.95
816.627	57.96
816.927	56.45
817.227	53.19
817.527	50.01
817.827	55.96
818.127	55.64
818.427	44.8
818.727	42.49
819.026	52.22
819.326	56.3
819.625	50.27
819.925	55.88
820.224	48.39
820.524	55.27
820.823	57.62
821.122	46.79
821.421	56.78
821.72	52.55
822.019	51.1
822.318	52.39
822.617	56.52
822.916	47.48
823.215	51.04
823.514	57.31
823.813	56.64
824.111	56.77
824.41	54.34
824.709	54.28
825.007	53.92
825.306	54.54
825.604	54.09
825.902	54.47
826.201	54.87
826.499	53.74
826.797	54.61
827.095	54.34
827.393	54.26
827.691	54.64
827.989	54.45
828.287	53.62
828.585	56.23
828.882	54.27
829.18	53.88
829.478	53.31
829.775	54.11
830.073	56.27
830.37	56.06
830.668	55.2
830.965	56.13
831.263	54.51
831.56	53.5
831.857	52.31
832.154	55.43
832.451	49.75
832.748	53.26
833.045	56.17
833.342	52.76
833.639	58.57
833.936	51.54
834.232	52.31
834.529	61.28
834.826	54.44
835.122	60.55
835.419	54.87
835.715	52.17
836.012	49.96
836.308	53.75
836.604	54.32
836.901	56.86
837.197	58.02
837.493	56.24
837.789	52.68
838.085	61.84
838.381	55.62
838.677	50.28
838.972	56.67
839.268	47.13
839.564	53.54
839.86	54.08
840.155	47.51
840.451	50.21
840.746	55.18
841.042	45.95
841.337	50.98
841.632	54.57
841.928	60.21
842.223	56
842.518	57.95
842.813	58.55
843.108	57.91
843.403	47.64
843.698	55.67
843.993	52.27
844.287	53.51
844.582	58.68
844.877	55.79
845.171	54.96
845.466	55.98
845.761	41.98
846.055	60.81
846.349	59.71
846.644	39.37
846.938	42.51
847.232	49.82
847.526	60.37
847.82	59.06
848.114	55.23
848.408	47.89
848.702	60.46
848.996	53.83
849.29	60.81
849.584	38.32
849.877	47.59
850.171	52.77
850.465	47.83
850.758	52.22
851.052	57.94
851.345	63.04
851.638	41.3
851.932	46.18
852.225	31.56
852.518	61.08
852.811	59.25
853.104	29.02
853.397	46.65
853.69	55.43
853.983	54.29
854.276	69.35
854.569	67.27
854.861	62.35
855.154	68.7
855.447	52.74
855.739	51.9
856.032	49.14
856.324	34.67
856.616	51.17
856.909	75.99
857.201	54.33
857.493	103.47
857.785	56.63
858.077	60.46
858.369	50.22
858.661	58.65
858.953	52.22
859.245	56.63
859.537	46.47
859.829	77.06
860.12	31.77
860.412	52.96
860.703	43.14
860.995	42.2
861.286	63.56
861.578	39.35
861.869	49.54
862.16	48.98
862.452	58.68
862.743	48.5
863.034	50.33
863.325	61.97
863.616	49.64
863.907	51.48
864.198	81.24
864.488	80.02
864.779	35.67
865.07	31.47
865.36	50.3
865.651	38.3
865.941	32.17
866.232	53.14
866.522	66.89
866.813	43.41
867.103	61.32
867.393	28.91
867.683	42.06
867.973	55.09
868.263	60.81
868.553	52.03
868.843	65.62
869.133	54.43
869.423	26.43
869.713	95.48
870.002	15.43
870.292	41.13
870.582	54.35
870.871	35.9
871.161	22.08
871.45	71.91
871.739	48.64
872.029	3.42
872.318	60.24
872.607	79.07
872.896	66.5
873.185	19.32
873.474	71.3
873.763	36.66
874.052	47.07
874.341	93.49
874.63	49.2
874.918	30.77
875.207	40.88
875.496	48.81
875.784	52.38
876.073	40.17
876.361	61
876.649	34.11
876.938	50.1
877.226	60.34
877.514	22.21
877.802	36.95
878.09	64.27
878.378	39.36
878.666	61.26
878.954	49.14
879.242	47.64
879.53	51.26
879.817	63.82
880.105	10.69
880.392	84.09
880.68	34.71
880.967	78.98
881.255	52.9
881.542	44.46
881.83	54.22
882.117	46.25
882.404	47.37
882.691	5.14
882.978	38.97
883.265	41.59
883.552	43.84
883.839	60.74
884.126	52.43
884.413	50.88
884.699	52.66
884.986	55.44
885.273	53.18
885.559	53.18
885.846	53.18
