Data from 448_crown_Reflection__3__53.txt Node

Date: Tue Dec 12 18:39:27 CST 2023
User: ToomeyLab
Spectrometer: FLMS14357
Trigger mode: 0
Integration Time (sec): 1.000000E-2
Scans to average: 100
Electric dark correction enabled: true
Nonlinearity correction enabled: false
Boxcar width: 0
XAxis mode: Wavelengths
Number of Pixels in Spectrum: 2048
>>>>>Begin Spectral Data<<<<<
189.047	-88.93
189.435	-88.93
189.823	-88.93
190.211	-163.46
190.599	83.54
190.987	155.08
191.375	71.94
191.763	4.83
192.151	132.4
192.538	-47.69
192.926	15.5
193.314	600.41
193.702	73.01
194.089	16.65
194.477	447.85
194.864	215.88
195.252	308.73
195.639	61.98
196.027	-135.44
196.414	-21.01
196.801	-377.42
197.189	642.47
197.576	87.42
197.963	76.96
198.351	32.14
198.738	14.21
199.125	4.21
199.512	5.96
199.899	22.35
200.286	8.19
200.673	7.28
201.06	30.88
201.447	12.78
201.833	15.35
202.22	14.97
202.607	-193.45
202.994	24.43
203.38	27.14
203.767	7.27
204.154	-1.05
204.54	39.58
204.927	-8.21
205.313	34.28
205.699	-32
206.086	7.87
206.472	51.86
206.858	14.71
207.245	20.17
207.631	19.29
208.017	18.55
208.403	20.75
208.789	45.06
209.175	-0.15
209.561	3.29
209.947	-21.24
210.333	33.54
210.719	-2.59
211.105	-33.48
211.491	19.99
211.876	10.02
212.262	27.72
212.648	14.47
213.034	-18.34
213.419	3.94
213.805	28.16
214.19	33.86
214.576	37.41
214.961	9.31
215.346	24.6
215.732	25.36
216.117	-3.91
216.502	24.39
216.888	1.58
217.273	-1.77
217.658	-13.92
218.043	-5.03
218.428	28.06
218.813	12.17
219.198	5.49
219.583	14.95
219.968	17.52
220.353	-10.2
220.738	38.15
221.122	1.08
221.507	-2.57
221.892	-7.21
222.276	26.52
222.661	3.88
223.046	8.58
223.43	5.57
223.815	0.65
224.199	9.91
224.583	12.79
224.968	3.51
225.352	-4.43
225.736	11.3
226.121	3.92
226.505	11.68
226.889	2.65
227.273	8.56
227.657	11.28
228.041	4.88
228.425	-0.53
228.809	3.23
229.193	2.98
229.577	5.38
229.961	2.98
230.344	4.86
230.728	4.59
231.112	4.97
231.495	3.11
231.879	5.62
232.263	4.55
232.646	3.31
233.03	5.56
233.413	1.68
233.797	5.54
234.18	3.22
234.563	3.34
234.946	7.93
235.33	5.7
235.713	4.97
236.096	3.56
236.479	3.67
236.862	4.13
237.245	5.41
237.628	2.87
238.011	4.15
238.394	5.32
238.777	3.85
239.16	4.56
239.543	3.49
239.925	4.78
240.308	4.84
240.691	3.77
241.073	4.22
241.456	4.72
241.838	3.33
242.221	4
242.603	4.43
242.986	3.94
243.368	4.11
243.75	3.78
244.133	3.88
244.515	3.88
244.897	4.13
245.279	4.37
245.661	3.82
246.043	3.38
246.425	4.39
246.807	3.78
247.189	4.6
247.571	4.06
247.953	3.91
248.335	3.78
248.717	3.9
249.098	3.89
249.48	3.68
249.862	3.95
250.243	4.12
250.625	4.66
251.006	4.25
251.388	3.75
251.769	3.81
252.151	3.23
252.532	4.67
252.913	4.4
253.295	4.94
253.676	3.12
254.057	3.19
254.438	3.86
254.819	3.79
255.2	3.46
255.581	3.64
255.962	3.2
256.343	4.34
256.724	4.19
257.105	5.21
257.486	2.62
257.867	4.01
258.247	2.11
258.628	4.34
259.009	3.49
259.389	4.07
259.77	3.25
260.15	4.19
260.531	4.04
260.911	4.04
261.292	3.38
261.672	3.48
262.052	3.27
262.432	3.51
262.813	3.67
263.193	3.64
263.573	4.42
263.953	4.51
264.333	4.72
264.713	3.51
265.093	3.81
265.473	4.5
265.853	3.04
266.233	3.15
266.612	3.44
266.992	3.38
267.372	4.09
267.752	4.32
268.131	2.98
268.511	3.06
268.89	3
269.27	3.02
269.649	3.5
270.029	3.41
270.408	3.85
270.787	3.53
271.167	3.31
271.546	3.83
271.925	4.18
272.304	3.83
272.683	3.19
273.062	3.48
273.441	3.6
273.82	2.5
274.199	3.42
274.578	3.1
274.957	3.19
275.336	3.53
275.715	3.53
276.093	3.09
276.472	3.42
276.851	3.42
277.229	3.16
277.608	3.53
277.986	3.25
278.365	3.61
278.743	3.57
279.122	3.59
279.5	3.92
279.878	2.82
280.257	3.09
280.635	2.82
281.013	3.38
281.391	3.69
281.769	3.5
282.147	3.35
282.525	2.61
282.903	2.58
283.281	2.66
283.659	2.95
284.037	3.42
284.415	2.57
284.792	3.69
285.17	2.92
285.548	3.37
285.925	2.89
286.303	2.85
286.68	3.1
287.058	3.26
287.435	3.15
287.813	2.59
288.19	2.94
288.567	3.13
288.945	3.33
289.322	2.91
289.699	3.32
290.076	3.38
290.453	3.14
290.83	2.83
291.207	3.33
291.584	3.18
291.961	3.41
292.338	3.32
292.715	3.04
293.092	3.23
293.469	3.14
293.845	3.7
294.222	3.97
294.599	3.97
294.975	3.15
295.352	3.49
295.728	3.35
296.105	3.4
296.481	3.9
296.858	3.27
297.234	3.73
297.61	3.47
297.986	3.55
298.363	3.36
298.739	3.61
299.115	2.86
299.491	3.24
299.867	3.38
300.243	3.15
300.619	3.07
300.995	3.53
301.371	3.72
301.746	3.3
302.122	4.53
302.498	3.53
302.874	3.75
303.249	3.96
303.625	3.26
304	3.8
304.376	3.26
304.751	3.36
305.127	3.14
305.502	3.47
305.878	3.53
306.253	3.23
306.628	3.18
307.003	3.46
307.378	3.32
307.754	3.27
308.129	3.18
308.504	4.26
308.879	2.38
309.254	3.61
309.629	3.29
310.003	3.45
310.378	3.31
310.753	3.42
311.128	4.11
311.502	3.1
311.877	3.19
312.252	2.71
312.626	3.13
313.001	3.06
313.375	3.02
313.75	3.67
314.124	3.95
314.498	3.18
314.873	2.99
315.247	3.65
315.621	3.05
315.995	3.7
316.369	3.23
316.743	3.25
317.117	2.98
317.491	3.09
317.865	3.3
318.239	3.58
318.613	3.5
318.987	3.6
319.361	3.32
319.734	2.94
320.108	3.98
320.482	3.2
320.855	3.22
321.229	3.9
321.602	3.28
321.976	3.51
322.349	3.61
322.723	3.08
323.096	3.9
323.469	3.56
323.843	4.26
324.216	3.4
324.589	3.7
324.962	3.77
325.335	3.49
325.708	3.26
326.081	3.75
326.454	3.45
326.827	3.68
327.2	3.55
327.573	2.79
327.945	3.41
328.318	3.86
328.691	3.04
329.063	3.69
329.436	3.81
329.809	3.27
330.181	2.61
330.553	2.96
330.926	4.12
331.298	2.81
331.671	3.62
332.043	3.45
332.415	3.53
332.787	3.57
333.159	3.32
333.532	3.82
333.904	3.15
334.276	3.6
334.648	3.3
335.02	3.17
335.391	3.64
335.763	3.41
336.135	3.84
336.507	4.03
336.879	3.33
337.25	3.57
337.622	3.41
337.993	3.52
338.365	3.04
338.736	3.52
339.108	3.3
339.479	4.02
339.851	3.3
340.222	3.14
340.593	3.35
340.964	3.8
341.336	4.02
341.707	3.32
342.078	3.04
342.449	3.39
342.82	3.61
343.191	3.62
343.562	3.63
343.933	3.72
344.303	3.6
344.674	3.99
345.045	3.62
345.416	3.82
345.786	3.07
346.157	3.13
346.527	3.87
346.898	3.34
347.268	3.32
347.639	3.89
348.009	3.3
348.38	3.39
348.75	4.01
349.12	3.69
349.49	3.45
349.861	3.74
350.231	3.6
350.601	3.82
350.971	3.71
351.341	3.4
351.711	4.11
352.081	3.33
352.45	3.35
352.82	3.69
353.19	3.42
353.56	3.34
353.929	2.93
354.299	3.41
354.669	3.7
355.038	2.75
355.408	3.22
355.777	3.94
356.147	3.13
356.516	3.98
356.885	3.66
357.254	3.35
357.624	3.48
357.993	3.57
358.362	3.65
358.731	3.65
359.1	3.14
359.469	3.48
359.838	3.36
360.207	3.47
360.576	3.38
360.945	3.24
361.314	3.76
361.682	3.61
362.051	3.62
362.42	3.6
362.788	3.2
363.157	3.96
363.525	3.46
363.894	3.24
364.262	3.54
364.631	3.29
364.999	3.74
365.367	3.64
365.735	3.27
366.104	3.68
366.472	3.4
366.84	3.47
367.208	3.68
367.576	3.61
367.944	3.66
368.312	3.29
368.68	3.49
369.048	4.05
369.416	3.35
369.783	3.81
370.151	3.35
370.519	3.76
370.886	3.93
371.254	3.64
371.621	3.84
371.989	3.52
372.356	3.63
372.724	3.77
373.091	3.53
373.458	3.64
373.826	3.77
374.193	3.22
374.56	3.81
374.927	3.56
375.294	3.44
375.661	4.03
376.028	3.77
376.395	3.89
376.762	4.18
377.129	3.6
377.496	3.8
377.863	3.88
378.229	3.54
378.596	3.21
378.963	3.85
379.329	3.54
379.696	3.62
380.062	4.06
380.429	3.6
380.795	3.99
381.161	4.1
381.528	3.84
381.894	3.82
382.26	3.65
382.626	3.78
382.993	3.61
383.359	3.61
383.725	3.58
384.091	3.46
384.457	3.71
384.823	3.76
385.188	3.66
385.554	3.81
385.92	3.55
386.286	4.05
386.651	3.71
387.017	4.21
387.383	3.53
387.748	3.83
388.114	3.74
388.479	3.79
388.845	3.59
389.21	3.78
389.575	3.42
389.94	3.87
390.306	3.7
390.671	3.81
391.036	4.03
391.401	3.9
391.766	3.83
392.131	4.11
392.496	3.85
392.861	3.84
393.226	3.92
393.591	3.73
393.956	3.89
394.32	3.67
394.685	3.81
395.05	3.53
395.414	3.8
395.779	3.58
396.143	4.01
396.508	3.79
396.872	3.86
397.236	3.67
397.601	3.78
397.965	4
398.329	4.09
398.694	3.7
399.058	3.83
399.422	3.68
399.786	4.01
400.15	3.72
400.514	3.99
400.878	3.91
401.242	3.73
401.605	3.83
401.969	3.88
402.333	3.89
402.697	3.81
403.06	3.92
403.424	3.67
403.787	3.51
404.151	3.8
404.514	3.76
404.878	3.93
405.241	3.84
405.604	3.56
405.968	3.72
406.331	4.09
406.694	4.18
407.057	3.66
407.42	3.87
407.783	3.89
408.146	4
408.509	3.85
408.872	3.92
409.235	3.88
409.598	3.8
409.961	3.75
410.323	3.94
410.686	3.9
411.049	4
411.411	4.08
411.774	3.96
412.136	4.18
412.499	3.94
412.861	3.87
413.223	4.25
413.586	3.76
413.948	3.82
414.31	4.17
414.672	4.32
415.035	4.01
415.397	3.8
415.759	3.82
416.121	3.9
416.483	4.1
416.845	4
417.206	4.2
417.568	3.96
417.93	4
418.292	3.92
418.653	3.9
419.015	3.81
419.377	3.85
419.738	3.87
420.1	3.81
420.461	3.93
420.822	4.06
421.184	3.9
421.545	4.08
421.906	3.71
422.267	3.75
422.629	3.93
422.99	3.8
423.351	3.83
423.712	3.82
424.073	3.9
424.434	3.86
424.795	3.95
425.155	3.86
425.516	3.86
425.877	3.91
426.238	3.87
426.598	3.83
426.959	3.83
427.32	3.9
427.68	3.99
428.041	3.91
428.401	3.95
428.761	3.94
429.122	3.89
429.482	4.04
429.842	3.83
430.202	3.83
430.563	4.03
430.923	3.99
431.283	4.04
431.643	4.09
432.003	4.12
432.363	4.01
432.722	4.08
433.082	3.99
433.442	3.97
433.802	4.03
434.161	4.08
434.521	4.06
434.881	4.04
435.24	4.08
435.6	4.07
435.959	4.15
436.319	4.03
436.678	4.11
437.037	4.05
437.396	3.99
437.756	3.99
438.115	3.99
438.474	4.05
438.833	4.11
439.192	4.1
439.551	3.9
439.91	3.9
440.269	3.96
440.628	4.01
440.987	3.93
441.345	4.01
441.704	4.08
442.063	4.06
442.421	4.12
442.78	4.06
443.138	3.96
443.497	4.06
443.855	4.07
444.214	4.12
444.572	4.17
444.93	4.14
445.288	4.01
445.647	4
446.005	4.03
446.363	4.04
446.721	3.91
447.079	4.09
447.437	3.82
447.795	3.99
448.153	3.97
448.51	3.98
448.868	4.04
449.226	4.05
449.584	4.05
449.941	3.91
450.299	4.13
450.656	4.04
451.014	4.14
451.371	4.15
451.729	4.18
452.086	4.16
452.443	4.34
452.801	4.07
453.158	4.14
453.515	4.1
453.872	4.03
454.229	4.13
454.586	4.03
454.943	3.98
455.3	4.01
455.657	4.08
456.014	4.22
456.371	4.34
456.727	4.12
457.084	4.18
457.441	4.2
457.797	4.05
458.154	4.2
458.51	4.01
458.867	4.32
459.223	4.36
459.58	4.25
459.936	4.07
460.292	4.13
460.648	4.27
461.005	4.07
461.361	4.03
461.717	4.1
462.073	4.04
462.429	4.05
462.785	4.02
463.141	4.23
463.496	4.07
463.852	4.44
464.208	4.25
464.564	4.17
464.919	4.25
465.275	4.25
465.631	4.36
465.986	4.19
466.342	4.13
466.697	4.24
467.052	4.37
467.408	4.26
467.763	4.36
468.118	4.22
468.473	4.29
468.829	4.26
469.184	4.09
469.539	4.28
469.894	4.17
470.249	4.32
470.603	4.37
470.958	4.2
471.313	4.34
471.668	4.32
472.023	4.31
472.377	4.28
472.732	4.27
473.086	4.38
473.441	4.3
473.795	4.25
474.15	4.32
474.504	4.03
474.859	4.2
475.213	4.21
475.567	4.29
475.921	4.32
476.275	4.1
476.63	4.3
476.984	4.51
477.338	4.18
477.692	4.32
478.045	4.39
478.399	4.13
478.753	4.28
479.107	4.21
479.461	4.28
479.814	4.31
480.168	4.15
480.521	4.07
480.875	4.28
481.228	4.3
481.582	4.19
481.935	4.23
482.289	4.35
482.642	4.43
482.995	4.16
483.348	4.18
483.701	4.33
484.055	4.28
484.408	4.17
484.761	4.12
485.114	4.05
485.466	3.98
485.819	3.95
486.172	4
486.525	4.02
486.878	4.07
487.23	4.06
487.583	4.08
487.936	4.24
488.288	4.16
488.641	4.07
488.993	4.08
489.345	4.1
489.698	4.09
490.05	4.06
490.402	4.09
490.754	4.06
491.107	4.16
491.459	4.21
491.811	4.25
492.163	4.17
492.515	4.3
492.866	4.09
493.218	4.1
493.57	4.1
493.922	4.11
494.274	4.21
494.625	4.2
494.977	4.38
495.328	4.34
495.68	4.25
496.031	4.35
496.383	4.29
496.734	4.39
497.086	4.35
497.437	4.49
497.788	4.29
498.139	4.3
498.49	4.46
498.842	4.36
499.193	4.33
499.544	4.35
499.894	4.29
500.245	4.42
500.596	4.38
500.947	4.38
501.298	4.47
501.648	4.48
501.999	4.34
502.35	4.43
502.7	4.43
503.051	4.35
503.401	4.47
503.752	4.56
504.102	4.45
504.452	4.41
504.803	4.43
505.153	4.5
505.503	4.5
505.853	4.52
506.203	4.37
506.553	4.36
506.903	4.57
507.253	4.48
507.603	4.39
507.953	4.51
508.303	4.29
508.652	4.56
509.002	4.41
509.352	4.47
509.701	4.42
510.051	4.51
510.4	4.33
510.75	4.36
511.099	4.39
511.449	4.34
511.798	4.27
512.147	4.46
512.496	4.54
512.846	4.34
513.195	4.31
513.544	4.47
513.893	4.51
514.242	4.33
514.591	4.42
514.939	4.45
515.288	4.4
515.637	4.44
515.986	4.45
516.334	4.6
516.683	4.42
517.032	4.48
517.38	4.55
517.729	4.54
518.077	4.38
518.426	4.48
518.774	4.51
519.122	4.45
519.47	4.35
519.819	4.42
520.167	4.41
520.515	4.31
520.863	4.41
521.211	4.38
521.559	4.45
521.907	4.46
522.255	4.5
522.602	4.47
522.95	4.48
523.298	4.59
523.645	4.67
523.993	4.64
524.341	4.55
524.688	4.37
525.036	4.58
525.383	4.55
525.73	4.38
526.078	4.55
526.425	4.53
526.772	4.54
527.119	4.44
527.466	4.49
527.814	4.4
528.161	4.41
528.508	4.45
528.854	4.44
529.201	4.45
529.548	4.43
529.895	4.4
530.242	4.25
530.588	4.27
530.935	4.3
531.282	4.31
531.628	4.41
531.975	4.37
532.321	4.44
532.667	4.38
533.014	4.44
533.36	4.46
533.706	4.39
534.052	4.5
534.399	4.48
534.745	4.46
535.091	4.41
535.437	4.42
535.783	4.33
536.129	4.47
536.474	4.47
536.82	4.47
537.166	4.61
537.512	4.47
537.857	4.61
538.203	4.46
538.549	4.54
538.894	4.53
539.239	4.51
539.585	4.49
539.93	4.56
540.276	4.52
540.621	4.56
540.966	4.58
541.311	4.65
541.656	4.67
542.001	4.59
542.346	4.59
542.691	4.45
543.036	4.44
543.381	4.39
543.726	4.48
544.071	4.43
544.415	4.49
544.76	4.52
545.105	4.58
545.449	4.58
545.794	4.68
546.138	4.56
546.483	4.55
546.827	4.57
547.171	4.64
547.516	4.69
547.86	4.62
548.204	4.64
548.548	4.67
548.892	4.65
549.236	4.64
549.58	4.74
549.924	4.6
550.268	4.78
550.612	4.64
550.956	4.67
551.3	4.77
551.643	4.84
551.987	4.83
552.33	4.99
552.674	4.82
553.017	5.02
553.361	5.04
553.704	4.74
554.048	4.78
554.391	4.86
554.734	4.8
555.077	4.86
555.42	4.75
555.764	4.98
556.107	4.76
556.45	4.69
556.793	4.82
557.135	4.82
557.478	4.85
557.821	4.94
558.164	4.84
558.507	4.79
558.849	4.96
559.192	4.9
559.534	4.81
559.877	5.01
560.219	4.89
560.562	4.96
560.904	4.82
561.246	5.05
561.589	4.8
561.931	4.78
562.273	4.83
562.615	4.73
562.957	4.91
563.299	4.88
563.641	4.98
563.983	4.93
564.325	4.92
564.667	4.88
565.008	4.82
565.35	4.91
565.692	4.87
566.033	5.06
566.375	4.8
566.716	4.74
567.058	4.91
567.399	5.03
567.741	4.85
568.082	4.9
568.423	4.99
568.764	4.97
569.105	4.84
569.447	5.03
569.788	4.96
570.129	4.93
570.47	4.95
570.811	4.87
571.151	4.92
571.492	5.03
571.833	4.99
572.174	4.96
572.514	5.01
572.855	4.9
573.195	4.8
573.536	4.82
573.876	4.94
574.217	4.98
574.557	4.82
574.898	4.97
575.238	5.08
575.578	5.15
575.918	4.93
576.258	5.08
576.598	5.01
576.938	4.89
577.278	5.1
577.618	5.12
577.958	4.99
578.298	5.17
578.638	4.96
578.977	5.01
579.317	5.08
579.657	5.13
579.996	5.3
580.336	5.05
580.675	5.11
581.014	4.92
581.354	5.01
581.693	5.08
582.032	5.03
582.372	5.08
582.711	4.95
583.05	5.38
583.389	5.19
583.728	5.07
584.067	5.31
584.406	5.33
584.745	5.27
585.083	4.88
585.422	5.21
585.761	5.32
586.1	5.19
586.438	5.21
586.777	5.31
587.115	5
587.454	5.22
587.792	4.95
588.13	5.25
588.469	5.23
588.807	5.21
589.145	4.91
589.483	5
589.821	5.42
590.159	5.24
590.497	5.18
590.835	5.27
591.173	5.12
591.511	5.22
591.849	5.02
592.187	5.35
592.524	4.95
592.862	5.22
593.2	5.13
593.537	4.98
593.875	5.37
594.212	5.3
594.55	5.31
594.887	5.62
595.224	5.06
595.561	5.77
595.899	5.15
596.236	5.4
596.573	5.25
596.91	5.32
597.247	5.39
597.584	5.15
597.921	5.15
598.258	5.57
598.594	5.19
598.931	5.3
599.268	5.08
599.604	5.11
599.941	5.13
600.277	5.15
600.614	5.37
600.95	5.34
601.287	5.36
601.623	5.67
601.959	5.32
602.296	5.62
602.632	5.23
602.968	5.08
603.304	5.29
603.64	5.47
603.976	5.26
604.312	5.31
604.648	5.31
604.984	5.35
605.319	5.23
605.655	5.34
605.991	5.35
606.326	5.15
606.662	5.48
606.998	5.05
607.333	5.37
607.668	5.21
608.004	5.49
608.339	5.47
608.674	5.26
609.01	5.27
609.345	5.47
609.68	5.4
610.015	5.14
610.35	5.33
610.685	5.56
611.02	5.52
611.355	5.36
611.689	5.42
612.024	5.33
612.359	5.27
612.694	5.44
613.028	5.42
613.363	5.32
613.697	5.43
614.032	5.6
614.366	5.64
614.7	5.45
615.035	5.54
615.369	5.35
615.703	5.61
616.037	5.46
616.371	5.26
616.705	5.46
617.039	5.68
617.373	5.68
617.707	5.13
618.041	5.35
618.375	5.21
618.709	5.55
619.042	5.56
619.376	5.12
619.71	5.43
620.043	5.36
620.377	5.19
620.71	5.33
621.043	5.55
621.377	5.21
621.71	5.91
622.043	6.15
622.376	5.49
622.709	5.74
623.043	5.55
623.376	5.74
623.709	5.23
624.041	5.82
624.374	5.75
624.707	5.32
625.04	5.46
625.373	5.95
625.705	6.17
626.038	5.78
626.37	5.76
626.703	5.55
627.035	5.6
627.368	5.68
627.7	5.36
628.032	5.48
628.365	5.67
628.697	5.89
629.029	5.41
629.361	5.59
629.693	5.38
630.025	5.37
630.357	5.75
630.689	5.27
631.021	5.88
631.353	5.76
631.684	5.54
632.016	5.7
632.348	5.74
632.679	5.55
633.011	5.79
633.342	5.81
633.674	5.83
634.005	5.51
634.336	5.88
634.668	5.9
634.999	6.02
635.33	5.8
635.661	5.88
635.992	5.77
636.323	5.26
636.654	5.99
636.985	5.55
637.316	5.84
637.647	5.57
637.977	5.93
638.308	6.07
638.639	5.94
638.969	5.68
639.3	5.76
639.63	5.85
639.961	6.01
640.291	5.24
640.622	5.85
640.952	5.66
641.282	5.74
641.612	6.1
641.943	5.79
642.273	5.85
642.603	6.46
642.933	6.18
643.263	5.7
643.592	6.13
643.922	6.27
644.252	6
644.582	5.61
644.911	5.63
645.241	5.62
645.571	6.42
645.9	6.17
646.23	5.75
646.559	5.89
646.888	5.95
647.218	6.12
647.547	5.91
647.876	5.93
648.205	5.85
648.534	6.27
648.863	6.22
649.192	6.77
649.521	6.24
649.85	5.69
650.179	6.39
650.508	6.32
650.837	5.98
651.165	5.57
651.494	5.6
651.822	5.62
652.151	5.86
652.479	6.38
652.808	6.12
653.136	6.4
653.465	6.15
653.793	6.04
654.121	5.96
654.449	6.64
654.777	6.4
655.105	6.32
655.433	6.13
655.761	6.1
656.089	5.9
656.417	6.35
656.745	6.4
657.073	5.78
657.4	6.46
657.728	5.58
658.056	6.48
658.383	5.28
658.711	6.03
659.038	6.25
659.365	6.27
659.693	5.82
660.02	6.06
660.347	6.25
660.674	6.02
661.001	5.87
661.329	6.22
661.656	5.75
661.982	6.14
662.309	6.46
662.636	6.39
662.963	6.4
663.29	6.26
663.616	6.01
663.943	6.52
664.27	6.68
664.596	6.78
664.923	6.25
665.249	5.78
665.576	6.14
665.902	6.31
666.228	6.32
666.554	6.22
666.881	5.98
667.207	6.96
667.533	6.77
667.859	6.29
668.185	5.76
668.511	6.65
668.837	6.33
669.162	7.25
669.488	6.18
669.814	6.56
670.139	5.83
670.465	5.82
670.791	6.16
671.116	6.08
671.442	6.56
671.767	6.14
672.092	7.11
672.418	6.72
672.743	6.39
673.068	5.99
673.393	5.98
673.718	6.6
674.043	6.52
674.368	5.91
674.693	5.79
675.018	6.29
675.343	6.11
675.667	6.26
675.992	6.97
676.317	6.17
676.641	6.44
676.966	6.14
677.29	6.53
677.615	6.49
677.939	6.28
678.264	6.72
678.588	6.41
678.912	6.83
679.236	6.91
679.56	6.14
679.885	6.91
680.209	7
680.532	6.93
680.856	6.92
681.18	6.3
681.504	6.65
681.828	6.51
682.152	6.63
682.475	6.67
682.799	6.71
683.122	6.41
683.446	6.57
683.769	7.55
684.093	6.15
684.416	5.99
684.739	6.98
685.062	6.83
685.386	6.65
685.709	5.9
686.032	6.24
686.355	6.18
686.678	7.21
687.001	6.62
687.324	6.33
687.646	7.62
687.969	6.42
688.292	6.92
688.614	7
688.937	6.75
689.26	6.5
689.582	6.52
689.904	6.09
690.227	6.5
690.549	6.61
690.871	6.65
691.194	7.37
691.516	6.82
691.838	6.48
692.16	7.75
692.482	6.59
692.804	6.54
693.126	6.85
693.448	6.81
693.769	6.92
694.091	7.17
694.413	7.36
694.735	7.13
695.056	6.27
695.378	7.16
695.699	6.98
696.021	5.93
696.342	7.16
696.663	6.43
696.984	5.3
697.306	6.97
697.627	6.67
697.948	7.58
698.269	7.39
698.59	7.14
698.911	6.34
699.232	6.15
699.553	7.04
699.873	8.58
700.194	7.18
700.515	7.04
700.835	6.29
701.156	7.39
701.477	7.32
701.797	7.03
702.117	6.78
702.438	7.4
702.758	6.43
703.078	7.55
703.398	6.99
703.719	7.37
704.039	7.63
704.359	7.1
704.679	8.03
704.999	7.53
705.319	5.75
705.638	8.05
705.958	8.57
706.278	8.28
706.597	7.56
706.917	7.49
707.237	7.31
707.556	7.95
707.876	6.74
708.195	8.02
708.514	6.78
708.834	8.42
709.153	7.14
709.472	7.11
709.791	7.2
710.11	7.11
710.429	6.58
710.748	6.67
711.067	7.78
711.386	7.46
711.705	8.8
712.023	7.05
712.342	7.79
712.661	7.59
712.979	8.2
713.298	7.88
713.616	7.43
713.935	6.33
714.253	7.33
714.572	7.23
714.89	6.92
715.208	7.63
715.526	6.39
715.844	6.99
716.162	7.48
716.48	6.66
716.798	7.25
717.116	7.7
717.434	6.9
717.752	7.2
718.069	7.17
718.387	7.51
718.705	7.4
719.022	8.42
719.34	7.76
719.657	8.16
719.975	7.74
720.292	7.6
720.609	7.51
720.927	8.11
721.244	8.29
721.561	8.31
721.878	7.29
722.195	6.26
722.512	7.69
722.829	7.65
723.146	6.24
723.463	8.34
723.779	7.79
724.096	7.26
724.413	6.68
724.729	8.25
725.046	8.79
725.362	6.98
725.679	7.65
725.995	8.05
726.311	8.03
726.628	7.76
726.944	7.3
727.26	7.26
727.576	7.13
727.892	8.94
728.208	7.23
728.524	7.26
728.84	8.58
729.156	7.23
729.472	9.2
729.787	7.49
730.103	8.53
730.419	5.72
730.734	7.06
731.05	8.97
731.365	7.9
731.681	9.13
731.996	7.19
732.311	7.1
732.626	7.7
732.942	7.85
733.257	8.68
733.572	7.93
733.887	8.35
734.202	8.71
734.517	7.44
734.832	8.58
735.146	7.11
735.461	10.69
735.776	7.19
736.091	7.96
736.405	7.61
736.72	8.04
737.034	8.26
737.349	7.21
737.663	6.46
737.977	7.71
738.292	7.92
738.606	7.49
738.92	7.56
739.234	7.78
739.548	8.46
739.862	8.28
740.176	6.42
740.49	6.5
740.804	9.3
741.117	7.64
741.431	9.35
741.745	10.28
742.058	7.8
742.372	8.66
742.685	8.62
742.999	8.63
743.312	9.22
743.626	8.17
743.939	11.6
744.252	7.91
744.565	9.95
744.878	8.34
745.191	10.09
745.505	8.32
745.817	9.9
746.13	8.8
746.443	8.49
746.756	10.17
747.069	9.33
747.381	6.13
747.694	7.07
748.007	7.85
748.319	8.97
748.632	8.21
748.944	8.25
749.256	9.1
749.569	6.32
749.881	9.7
750.193	7.75
750.505	7.42
750.817	7.8
751.129	8.23
751.441	9.94
751.753	10.03
752.065	8.29
752.377	9.1
752.689	9.4
753	7.84
753.312	8.49
753.624	9.33
753.935	9.22
754.247	9.09
754.558	9.69
754.869	8.84
755.181	9.54
755.492	11.06
755.803	10.91
756.114	9.03
756.425	9.52
756.736	7.37
757.047	8.87
757.358	9.96
757.669	8.57
757.98	9.33
758.291	7.42
758.601	9.22
758.912	7.97
759.223	8.54
759.533	9.84
759.844	8.27
760.154	11.78
760.464	7.96
760.775	11.15
761.085	8.96
761.395	8.06
761.705	9.92
762.016	10.47
762.326	9.49
762.636	8.27
762.945	9.11
763.255	9.03
763.565	7.62
763.875	8.3
764.185	9.34
764.494	10.72
764.804	8.94
765.113	10.65
765.423	8.99
765.732	8.8
766.042	9.21
766.351	9
766.66	9.31
766.97	9.03
767.279	9.74
767.588	9.46
767.897	9.75
768.206	9.42
768.515	11.45
768.824	10.36
769.133	10.84
769.441	9.13
769.75	9.07
770.059	8.86
770.367	9.02
770.676	10.94
770.984	7.06
771.293	8.9
771.601	9.17
771.91	11.55
772.218	9.94
772.526	3.12
772.834	8.62
773.142	9.41
773.45	10.18
773.758	8.17
774.066	14.66
774.374	9.34
774.682	11.37
774.99	4.8
775.298	11.08
775.605	9.11
775.913	10.52
776.22	10.14
776.528	7.72
776.835	9.61
777.143	12.11
777.45	9.02
777.757	7.34
778.065	8.89
778.372	13.12
778.679	12.88
778.986	11.74
779.293	12.63
779.6	10.89
779.907	7.41
780.214	10.64
780.52	11.32
780.827	12.43
781.134	12.37
781.44	11.7
781.747	8.71
782.053	10.11
782.36	9.74
782.666	8.91
782.973	8.03
783.279	11.16
783.585	10.07
783.891	14.26
784.197	11.39
784.503	10.82
784.809	11.96
785.115	14.11
785.421	12.16
785.727	7.68
786.033	10.09
786.339	7.38
786.644	7.96
786.95	15.12
787.255	12.24
787.561	10.54
787.866	11.68
788.172	7.84
788.477	6.22
788.782	10.18
789.088	13.59
789.393	9.61
789.698	10.24
790.003	7.36
790.308	9.24
790.613	11.38
790.918	12.38
791.223	10.74
791.527	13.12
791.832	11.42
792.137	8.39
792.441	12.7
792.746	14.82
793.05	13.81
793.355	9.49
793.659	14.1
793.963	9.9
794.268	10.84
794.572	9.16
794.876	10.64
795.18	12.11
795.484	12.15
795.788	13.64
796.092	7.05
796.396	12.81
796.7	4.54
797.004	14.26
797.307	5.3
797.611	9.87
797.915	8.14
798.218	10.64
798.522	9.07
798.825	11.33
799.128	14.96
799.432	10.99
799.735	15.37
800.038	14.21
800.341	19.31
800.644	5.82
800.947	12.75
801.25	7.94
801.553	7.04
801.856	10.93
802.159	13.16
802.462	11.28
802.764	11.63
803.067	10.42
803.37	8.4
803.672	4.61
803.975	13.24
804.277	12.77
804.579	10.04
804.882	11.89
805.184	14.82
805.486	12.16
805.788	13.09
806.09	13.07
806.392	11.84
806.694	15.84
806.996	5.46
807.298	14.11
807.6	10.58
807.902	10.29
808.203	11
808.505	10.08
808.807	9.4
809.108	8.1
809.409	9.74
809.711	5.83
810.012	11.2
810.313	11.25
810.615	10.77
810.916	8.3
811.217	12.61
811.518	10.42
811.819	13.95
812.12	12.06
812.421	14.23
812.722	13.12
813.023	5.59
813.323	12.29
813.624	10.6
813.925	16.73
814.225	7.24
814.526	10.37
814.826	18.39
815.126	6.22
815.427	13.08
815.727	2.96
816.027	11.92
816.327	17.44
816.627	15.37
816.927	17.28
817.227	12.57
817.527	19.23
817.827	10.88
818.127	16.06
818.427	10.28
818.727	6.45
819.026	10.08
819.326	16.37
819.625	6.9
819.925	9.88
820.224	16.83
820.524	9.96
820.823	16.86
821.122	12.71
821.421	12.34
821.72	3.78
822.019	4.07
822.318	7.01
822.617	10.85
822.916	12.56
823.215	15.38
823.514	10.37
823.813	13.03
824.111	11.45
824.41	12.34
824.709	9.9
825.007	10.45
825.306	10.75
825.604	10.89
825.902	11.77
826.201	10.8
826.499	10.75
826.797	11.28
827.095	12.57
827.393	11.76
827.691	12.09
827.989	10.98
828.287	12.89
828.585	10.99
828.882	11.6
829.18	15.36
829.478	11.82
829.775	12.35
830.073	11.81
830.37	14.23
830.668	10.83
830.965	14.42
831.263	11.46
831.56	13.08
831.857	9.12
832.154	12.49
832.451	9.73
832.748	10.64
833.045	9.3
833.342	16.55
833.639	14.69
833.936	13.82
834.232	15.82
834.529	12.99
834.826	20.84
835.122	16.77
835.419	9.85
835.715	10.17
836.012	12.08
836.308	10.85
836.604	12.99
836.901	9.7
837.197	13.07
837.493	15.89
837.789	10.64
838.085	15.96
838.381	12.6
838.677	11.52
838.972	15.41
839.268	7.32
839.564	11.36
839.86	17.92
840.155	8.99
840.451	10.24
840.746	14.23
841.042	10.67
841.337	8.31
841.632	22.07
841.928	14.93
842.223	22.63
842.518	14.48
842.813	13.5
843.108	14.69
843.403	14.14
843.698	12.04
843.993	8.54
844.287	14.43
844.582	12.37
844.877	15.25
845.171	27.72
845.466	19.59
845.761	18.03
846.055	11.04
846.349	20.59
846.644	23.19
846.938	6.19
847.232	9.24
847.526	20.46
847.82	25.63
848.114	31.74
848.408	14.28
848.702	34.88
848.996	34.74
849.29	14.72
849.584	11.48
849.877	27.59
850.171	17.33
850.465	4.94
850.758	12.31
851.052	9.94
851.345	15.37
851.638	20.95
851.932	16.44
852.225	1.63
852.518	18.12
852.811	23.98
853.104	2.18
853.397	14.94
853.69	14.6
853.983	30.63
854.276	8.24
854.569	10.78
854.861	16.61
855.154	31.86
855.447	22.56
855.739	45.65
856.032	26.64
856.324	11.11
856.616	14.98
856.909	31.91
857.201	14.9
857.493	-7.75
857.785	29.2
858.077	17.48
858.369	18.82
858.661	32.55
858.953	11.57
859.245	13.48
859.537	25.14
859.829	27.9
860.12	18.74
860.412	-5.55
860.703	20.17
860.995	23.66
861.286	30.59
861.578	14.49
861.869	37.85
862.16	13.87
862.452	11.99
862.743	-2.53
863.034	45.29
863.325	32.68
863.616	22.37
863.907	24.65
864.198	13.49
864.488	31.01
864.779	20.21
865.07	2.54
865.36	26.93
865.651	3
865.941	0.17
866.232	-0.97
866.522	30.96
866.813	-8.56
867.103	24.49
867.393	8.98
867.683	52.43
867.973	27.63
868.263	22.75
868.553	32.38
868.843	21.12
869.133	9.44
869.423	14.56
869.713	1.03
870.002	4.71
870.292	18.02
870.582	49.74
870.871	10.33
871.161	16.14
871.45	25.02
871.739	47.98
872.029	-50.97
872.318	24.49
872.607	36.52
872.896	19.13
873.185	-25.14
873.474	18.48
873.763	3.24
874.052	28.93
874.341	44.47
874.63	51.64
874.918	30.28
875.207	20.07
875.496	34.55
875.784	46.03
876.073	21.77
876.361	5.94
876.649	40.91
876.938	40.71
877.226	29.66
877.514	-4.57
877.802	26.23
878.09	0.55
878.378	20.57
878.666	33.98
878.954	34.51
879.242	29.86
879.53	8.38
879.817	-10.16
880.105	11.08
880.392	19.02
880.68	40.53
880.967	43.42
881.255	35.93
881.542	18.18
881.83	13.71
882.117	14.19
882.404	15.58
882.691	-25.68
882.978	16.18
883.265	0.17
883.552	22.4
883.839	4.06
884.126	13.47
884.413	6.12
884.699	21.09
884.986	20.45
885.273	17.52
885.559	17.52
885.846	17.52
