Data from 0069_crown_Reflection__3__307.txt Node

Date: Fri Dec 16 16:32:48 CST 2022
User: ToomeyLab
Spectrometer: FLMS14357
Trigger mode: 0
Integration Time (sec): 1.000000E-2
Scans to average: 100
Electric dark correction enabled: true
Nonlinearity correction enabled: false
Boxcar width: 0
XAxis mode: Wavelengths
Number of Pixels in Spectrum: 2048
>>>>>Begin Spectral Data<<<<<
189.047	-62.59
189.435	-62.59
189.823	-62.59
190.211	-83.24
190.599	69.18
190.987	373.54
191.375	88.53
191.763	79.78
192.151	1778.81
192.538	63.17
192.926	-332.17
193.314	57.38
193.702	126.16
194.089	-16.63
194.477	-138.66
194.864	-21.91
195.252	108.19
195.639	142.22
196.027	-2200.92
196.414	88.94
196.801	255.02
197.189	92.74
197.576	26.63
197.963	-152.11
198.351	-28.65
198.738	-30.06
199.125	23.34
199.512	-22.13
199.899	-45.72
200.286	-39.46
200.673	59.74
201.06	10.04
201.447	23.77
201.833	18.3
202.22	-2.27
202.607	9.8
202.994	22.95
203.38	-46.35
203.767	37.16
204.154	-91.35
204.54	22.19
204.927	-4.48
205.313	0.55
205.699	13.59
206.086	-25.58
206.472	13.42
206.858	28.01
207.245	37.73
207.631	-8.63
208.017	13.41
208.403	34.35
208.789	-10.12
209.175	53.74
209.561	-21.98
209.947	-32.14
210.333	-9.03
210.719	-47.68
211.105	-148.93
211.491	-23.43
211.876	-19.97
212.262	-103.89
212.648	-52.1
213.034	-1.61
213.419	48.5
213.805	11.97
214.19	3.31
214.576	3.64
214.961	-43.53
215.346	-8.09
215.732	3.54
216.117	-52.62
216.502	-3.94
216.888	-24.02
217.273	23.34
217.658	-67.02
218.043	4.84
218.428	-9.86
218.813	-29.67
219.198	-57.67
219.583	2.77
219.968	-23.46
220.353	9.25
220.738	6.82
221.122	-27.21
221.507	6.39
221.892	-2.19
222.276	12.58
222.661	-14.04
223.046	9.41
223.43	-10.65
223.815	5.59
224.199	6.28
224.583	2.21
224.968	16.57
225.352	9.47
225.736	5.27
226.121	4.94
226.505	4.55
226.889	7.11
227.273	10.98
227.657	-0.95
228.041	12.73
228.425	10.44
228.809	11.19
229.193	8.7
229.577	8.68
229.961	9.43
230.344	10.54
230.728	10.56
231.112	10.1
231.495	8.14
231.879	9.8
232.263	10.01
232.646	9.58
233.03	8.6
233.413	6.64
233.797	12.56
234.18	7.39
234.563	8.82
234.946	8.91
235.33	10.06
235.713	9.94
236.096	9.87
236.479	10.46
236.862	9.73
237.245	9.79
237.628	10.33
238.011	9.05
238.394	10.98
238.777	9.65
239.16	7.61
239.543	9.69
239.925	10.07
240.308	8.54
240.691	8.3
241.073	9.14
241.456	9.41
241.838	9.16
242.221	10.17
242.603	9.3
242.986	9.88
243.368	9.49
243.75	9.17
244.133	9.52
244.515	9.26
244.897	7.9
245.279	8.86
245.661	7.9
246.043	8.63
246.425	8.69
246.807	8.82
247.189	9.05
247.571	9.54
247.953	9.38
248.335	9.46
248.717	9.13
249.098	9.44
249.48	9.16
249.862	9.22
250.243	9.06
250.625	9.15
251.006	9.71
251.388	9.46
251.769	8.42
252.151	8.37
252.532	9.38
252.913	9.39
253.295	9.09
253.676	9.53
254.057	9.26
254.438	8.28
254.819	8.1
255.2	8.78
255.581	7.61
255.962	7.6
256.343	8.75
256.724	7.72
257.105	8.78
257.486	7.82
257.867	7.67
258.247	8.16
258.628	9.08
259.009	8.33
259.389	9.23
259.77	8.54
260.15	8.88
260.531	8.68
260.911	8.84
261.292	8.56
261.672	8.43
262.052	8.23
262.432	8.16
262.813	8.71
263.193	8.18
263.573	8.39
263.953	8.19
264.333	8.62
264.713	7.54
265.093	7.26
265.473	9.4
265.853	8.58
266.233	7.37
266.612	8.31
266.992	7.66
267.372	8.14
267.752	7.75
268.131	8.15
268.511	8.6
268.89	8.7
269.27	8.42
269.649	8.63
270.029	8.53
270.408	7.84
270.787	7.69
271.167	8.3
271.546	7.67
271.925	8.25
272.304	8.48
272.683	7.96
273.062	8.16
273.441	7.97
273.82	8.08
274.199	8.38
274.578	7.62
274.957	7.65
275.336	7.28
275.715	8.05
276.093	8.02
276.472	7.74
276.851	8.2
277.229	8.08
277.608	7.3
277.986	8.12
278.365	7.41
278.743	7.51
279.122	7.84
279.5	7.45
279.878	6.76
280.257	7.8
280.635	7.52
281.013	7.31
281.391	8.09
281.769	7.43
282.147	7.81
282.525	7.41
282.903	7.7
283.281	7.89
283.659	7.72
284.037	7.55
284.415	7.82
284.792	7.61
285.17	7.4
285.548	7.07
285.925	7.41
286.303	7.23
286.68	7.83
287.058	7.4
287.435	7.07
287.813	7.43
288.19	7.72
288.567	6.87
288.945	7.28
289.322	7.45
289.699	7.1
290.076	7.54
290.453	6.93
290.83	7.38
291.207	7.33
291.584	6.93
291.961	7.61
292.338	7.29
292.715	6.78
293.092	6.74
293.469	7.58
293.845	7.4
294.222	6.91
294.599	7.41
294.975	7.19
295.352	6.98
295.728	6.98
296.105	7.18
296.481	7.1
296.858	6.94
297.234	7.04
297.61	7.06
297.986	6.99
298.363	6.77
298.739	7.41
299.115	6.64
299.491	7.02
299.867	6.76
300.243	6.74
300.619	6.81
300.995	7.41
301.371	7.24
301.746	7.15
302.122	7.26
302.498	7.23
302.874	6.86
303.249	6.78
303.625	6.95
304	6.28
304.376	6.79
304.751	7.1
305.127	7.06
305.502	6.83
305.878	6.81
306.253	6.44
306.628	6.71
307.003	6.58
307.378	6.07
307.754	6.51
308.129	6.35
308.504	6.15
308.879	6.34
309.254	6.73
309.629	6.29
310.003	6.99
310.378	6.6
310.753	6.75
311.128	6.28
311.502	6.15
311.877	6.2
312.252	6.25
312.626	6.22
313.001	6.19
313.375	6
313.75	6.12
314.124	6.92
314.498	6.14
314.873	6.38
315.247	6.03
315.621	6.67
315.995	5.67
316.369	6.52
316.743	6.61
317.117	6.42
317.491	6.21
317.865	5.77
318.239	6.29
318.613	5.97
318.987	6.15
319.361	5.79
319.734	6.25
320.108	6.31
320.482	5.89
320.855	6.27
321.229	6.49
321.602	5.96
321.976	6.29
322.349	5.41
322.723	5.25
323.096	6.06
323.469	5.86
323.843	5.92
324.216	6.07
324.589	6.38
324.962	6.11
325.335	5.71
325.708	6.1
326.081	6.39
326.454	6.29
326.827	6.48
327.2	6.69
327.573	5.97
327.945	5.84
328.318	6.43
328.691	5.92
329.063	5.74
329.436	5.97
329.809	5.94
330.181	5.79
330.553	6.29
330.926	6.21
331.298	5.8
331.671	6.17
332.043	6.24
332.415	5.98
332.787	6.63
333.159	6.19
333.532	5.65
333.904	6.29
334.276	6.37
334.648	6.31
335.02	5.76
335.391	6.65
335.763	6.06
336.135	6.12
336.507	6.45
336.879	6.1
337.25	6.09
337.622	5.87
337.993	5.93
338.365	6.28
338.736	5.85
339.108	5.97
339.479	5.49
339.851	6.39
340.222	5.93
340.593	5.85
340.964	6.05
341.336	5.44
341.707	5.83
342.078	5.72
342.449	6.45
342.82	6.02
343.191	5.85
343.562	5.93
343.933	5.9
344.303	5.82
344.674	5.97
345.045	6.13
345.416	6.16
345.786	5.86
346.157	6.09
346.527	6.22
346.898	6.11
347.268	5.87
347.639	5.54
348.009	6.27
348.38	5.98
348.75	5.89
349.12	6
349.49	5.7
349.861	6.16
350.231	6.52
350.601	6.28
350.971	6.01
351.341	5.93
351.711	6.15
352.081	5.75
352.45	6.41
352.82	6.32
353.19	6.23
353.56	5.85
353.929	5.89
354.299	6.16
354.669	6.37
355.038	5.52
355.408	6.82
355.777	5.97
356.147	5.95
356.516	6.49
356.885	5.99
357.254	6.48
357.624	6.36
357.993	6.22
358.362	6.38
358.731	6
359.1	6.2
359.469	6.23
359.838	5.84
360.207	5.98
360.576	6.2
360.945	6.22
361.314	6.21
361.682	6.13
362.051	6.41
362.42	6.35
362.788	6.23
363.157	6
363.525	6.1
363.894	5.84
364.262	5.86
364.631	6.83
364.999	6.38
365.367	6.5
365.735	6.14
366.104	6.05
366.472	6.91
366.84	6.56
367.208	6.07
367.576	6.31
367.944	6.71
368.312	6.09
368.68	6.6
369.048	6.38
369.416	6.44
369.783	6.34
370.151	6.17
370.519	6.18
370.886	6.09
371.254	6.42
371.621	6.65
371.989	6.4
372.356	6.27
372.724	6.46
373.091	6.61
373.458	6.59
373.826	6.12
374.193	6.77
374.56	6.06
374.927	6.47
375.294	6.66
375.661	6.3
376.028	6.27
376.395	6.49
376.762	6.37
377.129	6.81
377.496	6.62
377.863	6.83
378.229	6.22
378.596	6.58
378.963	6.55
379.329	6.26
379.696	6.52
380.062	6.71
380.429	6.44
380.795	6.32
381.161	6.53
381.528	6.2
381.894	6.7
382.26	6.6
382.626	6.23
382.993	6.63
383.359	6.43
383.725	6.74
384.091	6.76
384.457	6.81
384.823	6.85
385.188	6.97
385.554	6.81
385.92	6.88
386.286	6.91
386.651	6.72
387.017	6.83
387.383	6.7
387.748	6.48
388.114	6.66
388.479	6.88
388.845	6.8
389.21	6.85
389.575	6.58
389.94	6.85
390.306	6.67
390.671	6.72
391.036	6.76
391.401	7.38
391.766	6.9
392.131	6.75
392.496	6.83
392.861	6.76
393.226	6.87
393.591	6.84
393.956	6.87
394.32	6.97
394.685	6.94
395.05	6.65
395.414	6.92
395.779	6.93
396.143	7.1
396.508	6.94
396.872	7
397.236	6.57
397.601	6.8
397.965	6.53
398.329	7.19
398.694	6.6
399.058	7.14
399.422	7.09
399.786	7.03
400.15	6.88
400.514	7.24
400.878	6.95
401.242	7.34
401.605	6.91
401.969	7.07
402.333	7
402.697	7.29
403.06	7.31
403.424	7.11
403.787	7.42
404.151	6.92
404.514	7.31
404.878	7.29
405.241	7.12
405.604	7.19
405.968	6.97
406.331	7.19
406.694	7.24
407.057	7.39
407.42	7.11
407.783	7.03
408.146	7.08
408.509	7.11
408.872	6.99
409.235	7.11
409.598	7.42
409.961	7.19
410.323	7.36
410.686	7.18
411.049	7.14
411.411	7.22
411.774	7.07
412.136	7.25
412.499	7.12
412.861	7.06
413.223	7.39
413.586	7.12
413.948	7.18
414.31	7.12
414.672	7.1
415.035	7.21
415.397	7.36
415.759	7.05
416.121	7.51
416.483	7.49
416.845	7.39
417.206	7.52
417.568	7.31
417.93	7.29
418.292	7.34
418.653	7.34
419.015	7.4
419.377	7.4
419.738	7.27
420.1	7.26
420.461	7.18
420.822	7.17
421.184	7.18
421.545	7.19
421.906	7.32
422.267	7.16
422.629	7.27
422.99	7.13
423.351	7.25
423.712	7.21
424.073	7.34
424.434	7.2
424.795	7.25
425.155	7.35
425.516	7.23
425.877	7.17
426.238	7.2
426.598	7.37
426.959	7.16
427.32	7.21
427.68	7.35
428.041	7.3
428.401	7.42
428.761	7.28
429.122	7.4
429.482	7.28
429.842	7.45
430.202	7.35
430.563	7.51
430.923	7.49
431.283	7.55
431.643	7.34
432.003	7.56
432.363	7.59
432.722	7.43
433.082	7.47
433.442	7.46
433.802	7.66
434.161	7.51
434.521	7.42
434.881	7.63
435.24	7.35
435.6	7.54
435.959	7.39
436.319	7.32
436.678	7.4
437.037	7.46
437.396	7.49
437.756	7.6
438.115	7.38
438.474	7.67
438.833	7.65
439.192	7.68
439.551	7.59
439.91	7.68
440.269	7.66
440.628	7.73
440.987	7.46
441.345	7.57
441.704	7.62
442.063	7.51
442.421	7.5
442.78	7.47
443.138	7.37
443.497	7.35
443.855	7.48
444.214	7.46
444.572	7.45
444.93	7.54
445.288	7.77
445.647	7.58
446.005	7.44
446.363	7.49
446.721	7.55
447.079	7.6
447.437	7.59
447.795	7.52
448.153	7.56
448.51	7.53
448.868	7.61
449.226	7.47
449.584	7.71
449.941	7.58
450.299	7.54
450.656	7.7
451.014	7.5
451.371	7.58
451.729	7.61
452.086	7.57
452.443	7.59
452.801	7.62
453.158	7.51
453.515	7.58
453.872	7.73
454.229	7.51
454.586	7.67
454.943	7.6
455.3	7.71
455.657	7.63
456.014	7.7
456.371	7.88
456.727	7.58
457.084	7.6
457.441	7.56
457.797	7.85
458.154	7.72
458.51	7.83
458.867	7.71
459.223	7.77
459.58	7.71
459.936	7.73
460.292	7.81
460.648	7.61
461.005	7.6
461.361	7.59
461.717	7.5
462.073	7.58
462.429	7.63
462.785	7.74
463.141	7.79
463.496	7.58
463.852	7.78
464.208	7.66
464.564	7.68
464.919	7.68
465.275	7.88
465.631	7.75
465.986	7.76
466.342	7.8
466.697	7.72
467.052	7.81
467.408	7.83
467.763	7.59
468.118	7.93
468.473	7.85
468.829	7.71
469.184	7.81
469.539	7.58
469.894	7.83
470.249	7.71
470.603	7.91
470.958	7.95
471.313	7.78
471.668	7.79
472.023	7.94
472.377	7.68
472.732	7.62
473.086	7.61
473.441	7.8
473.795	7.81
474.15	7.75
474.504	7.74
474.859	7.9
475.213	7.59
475.567	7.84
475.921	7.84
476.275	7.92
476.63	7.8
476.984	7.82
477.338	8.02
477.692	7.73
478.045	7.86
478.399	7.81
478.753	7.59
479.107	7.8
479.461	7.74
479.814	7.77
480.168	7.83
480.521	7.64
480.875	7.92
481.228	7.71
481.582	7.73
481.935	7.79
482.289	7.69
482.642	7.89
482.995	7.74
483.348	7.68
483.701	7.71
484.055	7.67
484.408	7.79
484.761	7.61
485.114	7.55
485.466	7.46
485.819	7.32
486.172	7.29
486.525	7.34
486.878	7.39
487.23	7.47
487.583	7.62
487.936	7.69
488.288	7.61
488.641	7.66
488.993	7.51
489.345	7.48
489.698	7.5
490.05	7.47
490.402	7.56
490.754	7.58
491.107	7.64
491.459	7.74
491.811	7.74
492.163	7.73
492.515	7.78
492.866	7.62
493.218	7.55
493.57	7.52
493.922	7.47
494.274	7.59
494.625	7.62
494.977	7.62
495.328	7.75
495.68	7.82
496.031	7.83
496.383	7.72
496.734	7.89
497.086	7.73
497.437	7.94
497.788	7.86
498.139	7.89
498.49	7.81
498.842	7.78
499.193	7.81
499.544	7.92
499.894	7.9
500.245	7.93
500.596	7.8
500.947	7.79
501.298	7.85
501.648	7.89
501.999	7.87
502.35	8
502.7	7.93
503.051	7.85
503.401	7.88
503.752	7.75
504.102	7.96
504.452	7.86
504.803	7.73
505.153	7.91
505.503	7.9
505.853	7.98
506.203	7.88
506.553	7.84
506.903	7.89
507.253	7.87
507.603	7.89
507.953	7.97
508.303	7.89
508.652	8
509.002	7.97
509.352	7.88
509.701	7.95
510.051	7.95
510.4	7.76
510.75	7.93
511.099	7.82
511.449	7.87
511.798	7.93
512.147	7.92
512.496	7.82
512.846	7.75
513.195	7.89
513.544	7.81
513.893	7.77
514.242	7.92
514.591	7.84
514.939	7.73
515.288	7.95
515.637	7.93
515.986	7.8
516.334	7.98
516.683	7.99
517.032	7.79
517.38	7.95
517.729	7.94
518.077	7.92
518.426	7.84
518.774	7.98
519.122	7.9
519.47	7.95
519.819	7.82
520.167	7.92
520.515	7.79
520.863	7.75
521.211	7.76
521.559	7.8
521.907	7.86
522.255	7.8
522.602	8
522.95	8
523.298	7.92
523.645	7.76
523.993	7.92
524.341	7.85
524.688	7.91
525.036	8
525.383	8.02
525.73	7.94
526.078	7.98
526.425	7.91
526.772	7.82
527.119	7.75
527.466	7.84
527.814	7.71
528.161	7.76
528.508	7.77
528.854	7.72
529.201	7.78
529.548	7.75
529.895	7.66
530.242	7.6
530.588	7.53
530.935	7.5
531.282	7.51
531.628	7.59
531.975	7.69
532.321	7.75
532.667	7.8
533.014	7.74
533.36	7.65
533.706	7.84
534.052	7.79
534.399	7.76
534.745	7.7
535.091	7.67
535.437	7.63
535.783	7.66
536.129	7.65
536.474	7.76
536.82	7.74
537.166	7.9
537.512	7.93
537.857	7.81
538.203	7.87
538.549	7.84
538.894	7.69
539.239	7.88
539.585	7.9
539.93	7.9
540.276	7.87
540.621	7.69
540.966	7.8
541.311	7.95
541.656	7.9
542.001	7.93
542.346	7.87
542.691	7.81
543.036	7.67
543.381	7.66
543.726	7.54
544.071	7.62
544.415	7.71
544.76	7.63
545.105	7.7
545.449	7.66
545.794	7.72
546.138	7.84
546.483	7.93
546.827	7.92
547.171	7.9
547.516	7.89
547.86	7.86
548.204	7.88
548.548	7.89
548.892	7.79
549.236	7.87
549.58	8.01
549.924	7.75
550.268	7.9
550.612	8.02
550.956	8
551.3	7.92
551.643	7.97
551.987	8.12
552.33	7.85
552.674	7.98
553.017	8.03
553.361	7.88
553.704	7.92
554.048	8.07
554.391	8.04
554.734	7.91
555.077	8.04
555.42	7.94
555.764	7.99
556.107	7.97
556.45	7.78
556.793	8.08
557.135	8.05
557.478	8.05
557.821	8.01
558.164	8.2
558.507	7.91
558.849	7.89
559.192	7.94
559.534	7.84
559.877	8.06
560.219	8.11
560.562	8.06
560.904	7.96
561.246	8.04
561.589	8.11
561.931	8.19
562.273	8.03
562.615	7.99
562.957	8.02
563.299	7.96
563.641	8.02
563.983	8
564.325	7.78
564.667	7.98
565.008	8
565.35	8.19
565.692	8.12
566.033	8.05
566.375	8
566.716	8.24
567.058	8.16
567.399	8.15
567.741	8.03
568.082	8.12
568.423	7.86
568.764	7.93
569.105	7.83
569.447	7.93
569.788	7.95
570.129	8.07
570.47	8.07
570.811	8.22
571.151	7.95
571.492	7.99
571.833	7.89
572.174	7.87
572.514	7.88
572.855	7.94
573.195	7.83
573.536	7.98
573.876	8.02
574.217	7.9
574.557	7.97
574.898	7.8
575.238	7.77
575.578	7.87
575.918	7.88
576.258	8.01
576.598	7.86
576.938	8.04
577.278	7.74
577.618	7.75
577.958	7.9
578.298	7.96
578.638	7.83
578.977	8.1
579.317	8.19
579.657	7.97
579.996	7.71
580.336	7.85
580.675	8.01
581.014	7.84
581.354	8.02
581.693	8.13
582.032	7.77
582.372	8.01
582.711	7.98
583.05	8.32
583.389	8.2
583.728	8.14
584.067	8.07
584.406	8.02
584.745	8.06
585.083	8.17
585.422	7.85
585.761	8.11
586.1	8.29
586.438	8.02
586.777	7.9
587.115	8.09
587.454	7.93
587.792	7.93
588.13	8.25
588.469	8.18
588.807	8.14
589.145	8.03
589.483	7.81
589.821	8.17
590.159	7.95
590.497	7.76
590.835	7.84
591.173	8
591.511	8.08
591.849	8.19
592.187	7.89
592.524	7.92
592.862	8.17
593.2	7.99
593.537	7.82
593.875	7.75
594.212	7.9
594.55	7.9
594.887	7.94
595.224	7.94
595.561	7.97
595.899	8.01
596.236	8.06
596.573	7.86
596.91	8.03
597.247	7.82
597.584	7.96
597.921	7.83
598.258	7.89
598.594	7.82
598.931	7.74
599.268	7.98
599.604	8.06
599.941	7.71
600.277	7.89
600.614	7.93
600.95	7.87
601.287	8.06
601.623	7.77
601.959	7.74
602.296	8.04
602.632	8.08
602.968	7.84
603.304	7.78
603.64	7.92
603.976	7.75
604.312	8.09
604.648	7.86
604.984	7.94
605.319	7.9
605.655	7.92
605.991	7.89
606.326	7.75
606.662	7.62
606.998	7.76
607.333	7.57
607.668	7.78
608.004	7.8
608.339	7.72
608.674	7.76
609.01	8.08
609.345	8.15
609.68	7.57
610.015	7.95
610.35	7.86
610.685	8.12
611.02	7.76
611.355	7.93
611.689	7.64
612.024	7.95
612.359	7.57
612.694	8.01
613.028	7.99
613.363	7.62
613.697	7.61
614.032	8.18
614.366	7.59
614.7	8.26
615.035	7.73
615.369	7.75
615.703	7.98
616.037	7.73
616.371	7.66
616.705	7.71
617.039	8.09
617.373	7.92
617.707	8.07
618.041	8.02
618.375	7.5
618.709	7.97
619.042	7.98
619.376	7.89
619.71	7.72
620.043	7.81
620.377	8.15
620.71	8.04
621.043	7.73
621.377	7.76
621.71	7.77
622.043	8.17
622.376	7.43
622.709	8.01
623.043	7.47
623.376	8.11
623.709	7.67
624.041	7.43
624.374	7.81
624.707	7.76
625.04	7.83
625.373	7.83
625.705	7.46
626.038	8.07
626.37	7.95
626.703	7.73
627.035	8.03
627.368	8.12
627.7	8.06
628.032	7.97
628.365	7.53
628.697	7.49
629.029	8.06
629.361	7.76
629.693	7.93
630.025	7.83
630.357	7.66
630.689	7.9
631.021	8.1
631.353	7.9
631.684	7.68
632.016	7.51
632.348	7.61
632.679	8
633.011	7.56
633.342	7.73
633.674	7.56
634.005	8.06
634.336	7.7
634.668	7.75
634.999	7.96
635.33	7.68
635.661	7.8
635.992	7.6
636.323	7.9
636.654	7.97
636.985	7.88
637.316	7.56
637.647	8.22
637.977	7.71
638.308	7.73
638.639	7.47
638.969	7.46
639.3	7.9
639.63	7.61
639.961	7.48
640.291	7.85
640.622	7.97
640.952	7.77
641.282	7.49
641.612	7.54
641.943	8.07
642.273	7.93
642.603	8.02
642.933	7.82
643.263	7.87
643.592	7.59
643.922	8.05
644.252	7.46
644.582	7.17
644.911	7.54
645.241	7.67
645.571	7.48
645.9	7.71
646.23	7.59
646.559	7.54
646.888	7.63
647.218	7.63
647.547	8.09
647.876	8.25
648.205	7.57
648.534	7.37
648.863	8
649.192	7.46
649.521	7.6
649.85	7.87
650.179	7.38
650.508	7.67
650.837	7.71
651.165	7.5
651.494	7.55
651.822	8.16
652.151	8.07
652.479	8.09
652.808	7.5
653.136	7.42
653.465	8.13
653.793	7.88
654.121	7.76
654.449	7.67
654.777	7.64
655.105	7.84
655.433	7.87
655.761	7.45
656.089	7.93
656.417	6.99
656.745	7.76
657.073	7.94
657.4	7.15
657.728	8.11
658.056	7.66
658.383	7.63
658.711	7.09
659.038	7.99
659.365	7.75
659.693	8.09
660.02	7.59
660.347	7.81
660.674	7.53
661.001	7.56
661.329	7.75
661.656	7.67
661.982	7.87
662.309	7.5
662.636	7.29
662.963	8.12
663.29	7.67
663.616	7.75
663.943	8.22
664.27	7.84
664.596	7.36
664.923	8.32
665.249	7.67
665.576	8.03
665.902	7.67
666.228	7.92
666.554	7.29
666.881	8.1
667.207	7.73
667.533	8.11
667.859	7.62
668.185	7.54
668.511	7.39
668.837	7.36
669.162	8.2
669.488	8.02
669.814	7.77
670.139	8.24
670.465	7.94
670.791	7.83
671.116	7.99
671.442	8.05
671.767	7.39
672.092	8.03
672.418	7.97
672.743	7.83
673.068	7.62
673.393	7.75
673.718	7.29
674.043	7.73
674.368	8.02
674.693	7.76
675.018	7.58
675.343	8.11
675.667	7.58
675.992	7.52
676.317	7.75
676.641	7.85
676.966	7.89
677.29	7.63
677.615	8.07
677.939	7.64
678.264	7.24
678.588	7.44
678.912	7.76
679.236	8.43
679.56	6.85
679.885	7.88
680.209	7.44
680.532	7.37
680.856	7.86
681.18	7.56
681.504	7.46
681.828	7.09
682.152	7.83
682.475	7.28
682.799	7.69
683.122	7.84
683.446	7.22
683.769	7.97
684.093	8.35
684.416	7.75
684.739	8.18
685.062	8.02
685.386	7.45
685.709	7.19
686.032	8.29
686.355	7.88
686.678	7.65
687.001	6.98
687.324	7.74
687.646	7.55
687.969	7.68
688.292	8
688.614	8.57
688.937	7.67
689.26	7.38
689.582	7.29
689.904	8.11
690.227	7.93
690.549	7.98
690.871	8.24
691.194	7.85
691.516	8.23
691.838	7.7
692.16	7.29
692.482	8.59
692.804	7.04
693.126	7.84
693.448	7.98
693.769	8.04
694.091	8.09
694.413	7.59
694.735	7.71
695.056	7.99
695.378	7.2
695.699	8.42
696.021	8.11
696.342	7
696.663	7.96
696.984	7.7
697.306	7.4
697.627	7.81
697.948	8.6
698.269	7.7
698.59	8.19
698.911	7.47
699.232	7.77
699.553	7.97
699.873	8.04
700.194	7.99
700.515	8.13
700.835	7.82
701.156	7.95
701.477	7.52
701.797	8.12
702.117	8.15
702.438	9.2
702.758	7.73
703.078	7.04
703.398	8.23
703.719	7.96
704.039	7.73
704.359	7.5
704.679	8.1
704.999	7.14
705.319	8.19
705.638	7.66
705.958	8.47
706.278	8.24
706.597	7.91
706.917	7.85
707.237	7.59
707.556	7.94
707.876	7.02
708.195	7.68
708.514	7.05
708.834	7.59
709.153	8.59
709.472	8.46
709.791	8.63
710.11	8.39
710.429	7.2
710.748	7.92
711.067	8.45
711.386	9.16
711.705	7.36
712.023	7.39
712.342	7.31
712.661	8.35
712.979	9.22
713.298	8.05
713.616	8.55
713.935	7.99
714.253	9.1
714.572	8.65
714.89	6.89
715.208	8.14
715.526	8.1
715.844	8.25
716.162	7.92
716.48	9.04
716.798	8.26
717.116	8.24
717.434	8.83
717.752	7.94
718.069	7.26
718.387	7.23
718.705	7.73
719.022	8.02
719.34	7.56
719.657	7.82
719.975	8.3
720.292	7.33
720.609	7.63
720.927	8.76
721.244	7.39
721.561	7.69
721.878	8.51
722.195	8.66
722.512	8.45
722.829	8.87
723.146	8.02
723.463	7.56
723.779	7.13
724.096	6.84
724.413	8.22
724.729	8.64
725.046	7.68
725.362	6.16
725.679	9.37
725.995	8.23
726.311	9.07
726.628	7.89
726.944	8.34
727.26	6.66
727.576	8.8
727.892	7.32
728.208	7.27
728.524	7.69
728.84	7.43
729.156	9.23
729.472	9.43
729.787	8.94
730.103	7.18
730.419	7.47
730.734	6.8
731.05	8.77
731.365	8.27
731.681	7.13
731.996	7.31
732.311	7.26
732.626	9.39
732.942	7.51
733.257	9.89
733.572	8.87
733.887	8.45
734.202	7.84
734.517	7.51
734.832	7.6
735.146	7.55
735.461	8.27
735.776	8.22
736.091	8.97
736.405	10.07
736.72	8.57
737.034	7.72
737.349	7.23
737.663	8.05
737.977	8.03
738.292	8.64
738.606	9.4
738.92	8.3
739.234	9.84
739.548	9.12
739.862	8.63
740.176	7.77
740.49	8.92
740.804	8.49
741.117	8.77
741.431	7.39
741.745	7.88
742.058	8.55
742.372	8.38
742.685	6.7
742.999	8.82
743.312	6.73
743.626	6.79
743.939	8.21
744.252	8.44
744.565	8.93
744.878	7.34
745.191	7.03
745.505	7.14
745.817	7.65
746.13	8.98
746.443	8.42
746.756	8.36
747.069	9.35
747.381	6.75
747.694	5.88
748.007	9.63
748.319	8.09
748.632	9.43
748.944	8.84
749.256	10.35
749.569	7.05
749.881	7.12
750.193	7.11
750.505	10.27
750.817	7.31
751.129	8.23
751.441	8.45
751.753	8.55
752.065	7.99
752.377	7.51
752.689	9.55
753	5.82
753.312	8.89
753.624	9.31
753.935	5.33
754.247	9.92
754.558	10.27
754.869	10.08
755.181	8.46
755.492	8.07
755.803	8.74
756.114	8.45
756.425	10.42
756.736	6.85
757.047	8.62
757.358	9.34
757.669	9.35
757.98	10.21
758.291	7.36
758.601	7.61
758.912	7.55
759.223	10.34
759.533	7.72
759.844	8.98
760.154	9.13
760.464	8.75
760.775	10.74
761.085	8.59
761.395	9.69
761.705	7.31
762.016	10.42
762.326	7.77
762.636	9.98
762.945	7.64
763.255	7.61
763.565	8.5
763.875	8.55
764.185	7.24
764.494	8.01
764.804	7.98
765.113	9.68
765.423	8.13
765.732	9.01
766.042	8.48
766.351	8.68
766.66	8.4
766.97	9.23
767.279	10.04
767.588	10.18
767.897	9.08
768.206	8.54
768.515	7.98
768.824	9.7
769.133	8.26
769.441	9.78
769.75	9.34
770.059	7.52
770.367	6.02
770.676	7.02
770.984	8.41
771.293	9
771.601	6.14
771.91	8.67
772.218	6.29
772.526	8.65
772.834	10.31
773.142	7.98
773.45	3.62
773.758	7.47
774.066	7.52
774.374	7.89
774.682	8.59
774.99	10.13
775.298	6.78
775.605	8.27
775.913	6.65
776.22	8.09
776.528	6.26
776.835	8.13
777.143	6.43
777.45	9.56
777.757	6.15
778.065	6.28
778.372	7.04
778.679	7.93
778.986	8.45
779.293	8.42
779.6	7.33
779.907	6.53
780.214	8.04
780.52	9.63
780.827	9.29
781.134	4.12
781.44	7.42
781.747	8.25
782.053	8.48
782.36	7.59
782.666	6.44
782.973	6.76
783.279	10.3
783.585	10.5
783.891	10.58
784.197	3.85
784.503	9.63
784.809	11.03
785.115	3.07
785.421	7.26
785.727	6.34
786.033	9.83
786.339	9.09
786.644	9.86
786.95	9.01
787.255	9.37
787.561	8.13
787.866	7.83
788.172	9.24
788.477	5.06
788.782	5.16
789.088	10.19
789.393	8.28
789.698	6.57
790.003	5.69
790.308	11.37
790.613	7.31
790.918	10.61
791.223	10.16
791.527	9.89
791.832	11.03
792.137	9.35
792.441	11.5
792.746	4.43
793.05	10.55
793.355	13.12
793.659	7.62
793.963	10.54
794.268	5.08
794.572	10.44
794.876	8.11
795.18	2.65
795.484	8.05
795.788	7.58
796.092	11.35
796.396	6.73
796.7	7.21
797.004	10.4
797.307	8.78
797.611	8.8
797.915	7.07
798.218	4.66
798.522	6.65
798.825	9.98
799.128	6.69
799.432	6.83
799.735	6.59
800.038	3.56
800.341	6.25
800.644	10.83
800.947	8.88
801.25	6.4
801.553	6.78
801.856	11.12
802.159	5.47
802.462	10.63
802.764	5.14
803.067	4.73
803.37	7.91
803.672	3.44
803.975	6.68
804.277	10.5
804.579	12.08
804.882	3.67
805.184	6.49
805.486	5.02
805.788	7.62
806.09	7.04
806.392	8.66
806.694	7.68
806.996	9.31
807.298	8.92
807.6	7.09
807.902	5.76
808.203	10.28
808.505	5.01
808.807	13.08
809.108	10.85
809.409	12.21
809.711	7.71
810.012	9.67
810.313	9.57
810.615	8.26
810.916	6.08
811.217	8.56
811.518	15.29
811.819	7.82
812.12	9.63
812.421	7.02
812.722	5.46
813.023	9.1
813.323	11.99
813.624	13.82
813.925	8.53
814.225	6.15
814.526	10.46
814.826	12.79
815.126	8.39
815.427	13.12
815.727	3.96
816.027	10.42
816.327	-2.46
816.627	10.31
816.927	2.29
817.227	8.54
817.527	4.83
817.827	8.65
818.127	12.85
818.427	2.65
818.727	12.94
819.026	12.22
819.326	10.65
819.625	8.47
819.925	8.97
820.224	9.75
820.524	1.34
820.823	5.38
821.122	9.49
821.421	10.14
821.72	9.81
822.019	7.03
822.318	6.85
822.617	6.99
822.916	7.61
823.215	9.29
823.514	9.87
823.813	12.42
824.111	12.32
824.41	9.25
824.709	11.41
825.007	11.92
825.306	10.82
825.604	11.83
825.902	11.04
826.201	10.77
826.499	10.2
826.797	10.65
827.095	8.82
827.393	8.63
827.691	9.39
827.989	12.24
828.287	11.21
828.585	5.37
828.882	10.28
829.18	10.43
829.478	7.83
829.775	9.27
830.073	9.89
830.37	11.59
830.668	8.34
830.965	10.04
831.263	11.22
831.56	11.86
831.857	11.29
832.154	10.21
832.451	8.82
832.748	7.71
833.045	14.8
833.342	8.91
833.639	5.34
833.936	7.89
834.232	8.78
834.529	12.43
834.826	9.38
835.122	11.89
835.419	5.48
835.715	7.98
836.012	9.89
836.308	13.08
836.604	10.59
836.901	14.72
837.197	9.97
837.493	10.57
837.789	9.42
838.085	11.59
838.381	5.17
838.677	9.14
838.972	1.33
839.268	1.74
839.564	15.49
839.86	6.6
840.155	8.47
840.451	4.14
840.746	13.47
841.042	-0.63
841.337	7.25
841.632	9.1
841.928	2.8
842.223	6.28
842.518	6.45
842.813	7.83
843.108	-2.93
843.403	12.66
843.698	4.39
843.993	6.74
844.287	9.06
844.582	18.57
844.877	20.14
845.171	18.14
845.466	-4.84
845.761	-1.8
846.055	-2.35
846.349	-15.48
846.644	18.68
846.938	-2.49
847.232	2.06
847.526	16.93
847.82	17.01
848.114	15.83
848.408	-1.71
848.702	1.44
848.996	33.98
849.29	14.76
849.584	12.74
849.877	5.53
850.171	17.33
850.465	4.81
850.758	5.98
851.052	7.86
851.345	12.12
851.638	19.6
851.932	-12.7
852.225	-7.65
852.518	6.81
852.811	15.41
853.104	1.74
853.397	-16.59
853.69	6.75
853.983	4.52
854.276	-9.51
854.569	-11.04
854.861	9.78
855.154	14.57
855.447	4.83
855.739	7.34
856.032	-2.8
856.324	20.63
856.616	22.8
856.909	15.7
857.201	2.95
857.493	10.45
857.785	6.86
858.077	6.5
858.369	-2.3
858.661	28.97
858.953	-27.58
859.245	11.93
859.537	13.04
859.829	15.14
860.12	4.54
860.412	-25.86
860.703	18.55
860.995	-18.31
861.286	-3.8
861.578	-27.05
861.869	-24.29
862.16	-12.51
862.452	14.59
862.743	17.59
863.034	7.14
863.325	-1.51
863.616	23.45
863.907	2.19
864.198	8.84
864.488	-8.14
864.779	-10.47
865.07	-1.04
865.36	9.58
865.651	28.79
865.941	20.63
866.232	-13.04
866.522	8.25
866.813	22.5
867.103	-14.74
867.393	28.1
867.683	10.04
867.973	-17.14
868.263	2.63
868.553	4.82
868.843	-24.79
869.133	14.56
869.423	16.05
869.713	14.92
870.002	-32.8
870.292	-12.97
870.582	6.94
870.871	4.95
871.161	-18.19
871.45	4.43
871.739	-37.21
872.029	4.77
872.318	-11.09
872.607	18.19
872.896	-8.91
873.185	21.06
873.474	6.44
873.763	18.24
874.052	-25.61
874.341	-101.39
874.63	3.08
874.918	5.61
875.207	8.68
875.496	5.08
875.784	-11.6
876.073	10.32
876.361	-9.11
876.649	18.4
876.938	-9.69
877.226	12.12
877.514	-25.29
877.802	13.95
878.09	-20.71
878.378	2.84
878.666	-66.88
878.954	17.02
879.242	9.14
879.53	-12.4
879.817	24.9
880.105	-13.19
880.392	-16.92
880.68	9.22
880.967	18.39
881.255	-16.79
881.542	-11.23
881.83	-14.55
882.117	-16.1
882.404	-10.78
882.691	-9.83
882.978	4.2
883.265	8.42
883.552	-4.62
883.839	-0.66
884.126	4.41
884.413	10.4
884.699	8.34
884.986	8.53
885.273	6.21
885.559	6.21
885.846	6.21
