Data from 0069_chest_Reflection__2__301.txt Node

Date: Fri Dec 16 16:30:42 CST 2022
User: ToomeyLab
Spectrometer: FLMS14357
Trigger mode: 0
Integration Time (sec): 1.000000E-2
Scans to average: 100
Electric dark correction enabled: true
Nonlinearity correction enabled: false
Boxcar width: 0
XAxis mode: Wavelengths
Number of Pixels in Spectrum: 2048
>>>>>Begin Spectral Data<<<<<
189.047	78.63
189.435	78.63
189.823	78.63
190.211	367.09
190.599	-26.44
190.987	1336.77
191.375	52.99
191.763	37.07
192.151	1117.47
192.538	57.38
192.926	-55.77
193.314	109.3
193.702	-64.61
194.089	88.58
194.477	-217.55
194.864	-25.06
195.252	-202.67
195.639	108.48
196.027	-4743.12
196.414	1.8
196.801	-385.01
197.189	58.87
197.576	11.21
197.963	48.29
198.351	-66.15
198.738	-66.36
199.125	12.08
199.512	9.56
199.899	-61.29
200.286	-37.08
200.673	4.26
201.06	20.56
201.447	27.94
201.833	53.06
202.22	48.43
202.607	17.76
202.994	48.72
203.38	-38.82
203.767	-83.46
204.154	-59.79
204.54	52.66
204.927	1.47
205.313	8.64
205.699	-6.15
206.086	-68.61
206.472	-38.51
206.858	17.92
207.245	19.51
207.631	-49.03
208.017	29.93
208.403	23.14
208.789	-0.77
209.175	29.27
209.561	1.21
209.947	-10.99
210.333	2.24
210.719	17.82
211.105	-231
211.491	10.48
211.876	11.49
212.262	-46.49
212.648	-25.25
213.034	-9.96
213.419	-1.47
213.805	-13.67
214.19	-31.93
214.576	-7.27
214.961	-19.14
215.346	-11.51
215.732	7.9
216.117	1.91
216.502	-26.84
216.888	-19.41
217.273	5.31
217.658	-46.93
218.043	-11
218.428	3.36
218.813	-12.79
219.198	-28.28
219.583	-10.64
219.968	-14.85
220.353	-5.51
220.738	-13.63
221.122	-45.26
221.507	-16.63
221.892	4.07
222.276	14.63
222.661	-5.66
223.046	-10.55
223.43	0.76
223.815	-5.46
224.199	2.38
224.583	5.07
224.968	-4.06
225.352	-7.9
225.736	1.91
226.121	0.77
226.505	5.63
226.889	7.44
227.273	8.51
227.657	-1.47
228.041	3.7
228.425	2.9
228.809	3.4
229.193	2.36
229.577	2.96
229.961	3.94
230.344	3.87
230.728	3.77
231.112	3.03
231.495	3.85
231.879	2.72
232.263	2.46
232.646	2.58
233.03	2.29
233.413	1.97
233.797	5.36
234.18	0.12
234.563	3.33
234.946	3.4
235.33	3.86
235.713	2.9
236.096	3.15
236.479	3.35
236.862	3.68
237.245	4.48
237.628	4.75
238.011	3.93
238.394	6.1
238.777	4.18
239.16	2.28
239.543	2.3
239.925	5.73
240.308	4.38
240.691	3.23
241.073	4.05
241.456	2.63
241.838	3.24
242.221	3.83
242.603	3.21
242.986	3.99
243.368	3.61
243.75	3.31
244.133	3.62
244.515	3.76
244.897	3.34
245.279	3.55
245.661	3.65
246.043	4.06
246.425	2.93
246.807	3.82
247.189	3.72
247.571	4.12
247.953	3.88
248.335	3.97
248.717	3.78
249.098	3.85
249.48	3.57
249.862	4.04
250.243	3.96
250.625	4.17
251.006	4.18
251.388	4.59
251.769	3.43
252.151	4.09
252.532	3.06
252.913	4.27
253.295	4
253.676	3.97
254.057	3.48
254.438	3.13
254.819	3.96
255.2	2.67
255.581	3.52
255.962	3.08
256.343	2.84
256.724	3.25
257.105	4.78
257.486	2.68
257.867	2.79
258.247	3.4
258.628	4.11
259.009	2.75
259.389	3.82
259.77	3.39
260.15	4.67
260.531	3.3
260.911	3.8
261.292	3.6
261.672	3.59
262.052	3.52
262.432	3.44
262.813	3.17
263.193	3.34
263.573	2.92
263.953	3.87
264.333	3.15
264.713	2.65
265.093	3.46
265.473	4.48
265.853	3.42
266.233	2.13
266.612	3.54
266.992	3.61
267.372	3.9
267.752	2.93
268.131	4.16
268.511	3.48
268.89	3.42
269.27	3.46
269.649	3.82
270.029	3.56
270.408	3.36
270.787	3.07
271.167	3.19
271.546	2.88
271.925	4.05
272.304	3.38
272.683	3.38
273.062	3.81
273.441	4.12
273.82	3.68
274.199	3.49
274.578	2.89
274.957	3.65
275.336	3.48
275.715	3.98
276.093	3.75
276.472	3.43
276.851	3.75
277.229	3.97
277.608	3.52
277.986	3.68
278.365	3.55
278.743	3.94
279.122	3.19
279.5	2.97
279.878	2.87
280.257	4.03
280.635	3.07
281.013	3.56
281.391	3.67
281.769	3.24
282.147	2.72
282.525	3.28
282.903	3.48
283.281	3.43
283.659	3.67
284.037	3.31
284.415	3.33
284.792	3.51
285.17	3.15
285.548	3.21
285.925	3.31
286.303	3.22
286.68	3.46
287.058	3.59
287.435	3.22
287.813	3.6
288.19	3.65
288.567	2.97
288.945	3.52
289.322	3.37
289.699	3.54
290.076	3.99
290.453	3.26
290.83	3.68
291.207	3.51
291.584	3.27
291.961	3.67
292.338	3.7
292.715	3.66
293.092	3.62
293.469	3.85
293.845	3.94
294.222	4.2
294.599	4.39
294.975	3.68
295.352	3.41
295.728	3.51
296.105	3.46
296.481	3.9
296.858	3.78
297.234	3.87
297.61	3.92
297.986	3.7
298.363	3.45
298.739	3.98
299.115	3.42
299.491	3.73
299.867	3.99
300.243	3.73
300.619	3.97
300.995	3.69
301.371	3.72
301.746	3.66
302.122	3.85
302.498	4.24
302.874	4.15
303.249	4.12
303.625	3.76
304	3.51
304.376	3.73
304.751	4.03
305.127	3.91
305.502	4.23
305.878	3.69
306.253	3.54
306.628	4.04
307.003	3.87
307.378	3.5
307.754	4.17
308.129	3.56
308.504	3.18
308.879	4.14
309.254	4.23
309.629	3.96
310.003	4.38
310.378	4.34
310.753	4.03
311.128	3.81
311.502	3.54
311.877	3.83
312.252	3.75
312.626	3.9
313.001	3.71
313.375	3.63
313.75	3.77
314.124	4.31
314.498	3.9
314.873	3.64
315.247	3.44
315.621	4.04
315.995	3.96
316.369	4.29
316.743	4.08
317.117	4.37
317.491	3.55
317.865	3.55
318.239	4.33
318.613	4.01
318.987	3.74
319.361	3.97
319.734	4.1
320.108	3.78
320.482	3.66
320.855	3.54
321.229	3.82
321.602	3.56
321.976	3.49
322.349	3.19
322.723	3.17
323.096	3.83
323.469	3.53
323.843	4.31
324.216	3.14
324.589	4.24
324.962	4.3
325.335	4.02
325.708	4.18
326.081	4.25
326.454	3.8
326.827	3.99
327.2	4.13
327.573	4.38
327.945	4.13
328.318	3.76
328.691	3.86
329.063	3.73
329.436	3.94
329.809	3.49
330.181	4.31
330.553	4.18
330.926	3.89
331.298	3.54
331.671	4.08
332.043	3.81
332.415	3.92
332.787	4.18
333.159	4.07
333.532	4.19
333.904	3.6
334.276	4.15
334.648	3.59
335.02	3.68
335.391	3.59
335.763	3.66
336.135	4.04
336.507	4.54
336.879	4.29
337.25	3.93
337.622	4.87
337.993	4.04
338.365	4
338.736	4.13
339.108	3.87
339.479	3.7
339.851	4.33
340.222	4.4
340.593	3.62
340.964	3.97
341.336	3.48
341.707	4
342.078	3.63
342.449	4.17
342.82	3.81
343.191	3.79
343.562	3.79
343.933	4.01
344.303	4.36
344.674	4.17
345.045	4.11
345.416	3.85
345.786	3.57
346.157	3.52
346.527	3.51
346.898	4.23
347.268	4.08
347.639	3.93
348.009	4.34
348.38	3.8
348.75	4.25
349.12	4.57
349.49	3.96
349.861	4.38
350.231	3.92
350.601	4.12
350.971	4.17
351.341	4.48
351.711	4.43
352.081	4.46
352.45	4.42
352.82	4.02
353.19	4.37
353.56	4.47
353.929	4.38
354.299	3.53
354.669	4.09
355.038	4.41
355.408	4.52
355.777	4.24
356.147	4.11
356.516	4.45
356.885	4.06
357.254	4.09
357.624	4.16
357.993	4.24
358.362	4.31
358.731	4.1
359.1	4.4
359.469	4.24
359.838	3.74
360.207	4.01
360.576	4.39
360.945	3.86
361.314	4.28
361.682	3.98
362.051	4.08
362.42	4.56
362.788	4.28
363.157	3.91
363.525	4.15
363.894	3.91
364.262	4.01
364.631	4.63
364.999	3.84
365.367	4.31
365.735	3.89
366.104	3.97
366.472	4.44
366.84	4.27
367.208	3.82
367.576	4.01
367.944	4.32
368.312	3.75
368.68	4.24
369.048	4.16
369.416	3.93
369.783	4.37
370.151	4.2
370.519	3.7
370.886	4.23
371.254	4.26
371.621	4.29
371.989	4.19
372.356	4.35
372.724	4.41
373.091	4.29
373.458	4.31
373.826	4.22
374.193	4.56
374.56	4.01
374.927	4.18
375.294	4.47
375.661	4.23
376.028	4.5
376.395	4.22
376.762	4.6
377.129	4.21
377.496	4.23
377.863	4.07
378.229	4.08
378.596	3.98
378.963	4.34
379.329	4.21
379.696	4.2
380.062	4.47
380.429	4.11
380.795	4.07
381.161	4.36
381.528	3.78
381.894	4.25
382.26	4.29
382.626	4.17
382.993	3.99
383.359	4.13
383.725	4.26
384.091	4.13
384.457	4.55
384.823	4.33
385.188	4.46
385.554	4.37
385.92	4.56
386.286	4.5
386.651	4.49
387.017	4.38
387.383	4.5
387.748	4.12
388.114	4.59
388.479	4.24
388.845	4.51
389.21	4.25
389.575	4.34
389.94	4.47
390.306	4.08
390.671	4.23
391.036	4.44
391.401	4.47
391.766	4.35
392.131	4.4
392.496	4.34
392.861	4.39
393.226	4.3
393.591	4.42
393.956	4.43
394.32	4.28
394.685	4.62
395.05	4.32
395.414	4.42
395.779	4.26
396.143	4.29
396.508	4.58
396.872	4.56
397.236	4.19
397.601	4.66
397.965	4.28
398.329	4.59
398.694	4.44
399.058	4.55
399.422	4.4
399.786	4.57
400.15	4.43
400.514	4.15
400.878	4.4
401.242	4.6
401.605	4.39
401.969	4.47
402.333	4.45
402.697	4.82
403.06	4.67
403.424	4.46
403.787	4.61
404.151	3.97
404.514	4.53
404.878	4.57
405.241	4.46
405.604	4.4
405.968	4.4
406.331	4.39
406.694	4.46
407.057	4.49
407.42	4.51
407.783	4.47
408.146	4.36
408.509	4.36
408.872	4.31
409.235	4.49
409.598	4.8
409.961	4.34
410.323	4.36
410.686	4.56
411.049	4.46
411.411	4.6
411.774	4.48
412.136	4.38
412.499	4.4
412.861	4.23
413.223	4.72
413.586	4.27
413.948	4.84
414.31	4.48
414.672	4.46
415.035	4.31
415.397	4.31
415.759	4.36
416.121	4.74
416.483	4.56
416.845	4.56
417.206	4.59
417.568	4.65
417.93	4.52
418.292	4.52
418.653	4.54
419.015	4.59
419.377	4.55
419.738	4.44
420.1	4.48
420.461	4.44
420.822	4.52
421.184	4.54
421.545	4.52
421.906	4.56
422.267	4.46
422.629	4.45
422.99	4.47
423.351	4.6
423.712	4.44
424.073	4.48
424.434	4.49
424.795	4.58
425.155	4.51
425.516	4.38
425.877	4.5
426.238	4.37
426.598	4.52
426.959	4.37
427.32	4.61
427.68	4.64
428.041	4.67
428.401	4.56
428.761	4.55
429.122	4.45
429.482	4.5
429.842	4.62
430.202	4.51
430.563	4.53
430.923	4.67
431.283	4.56
431.643	4.53
432.003	4.68
432.363	4.79
432.722	4.72
433.082	4.72
433.442	4.61
433.802	4.71
434.161	4.5
434.521	4.63
434.881	4.71
435.24	4.51
435.6	4.57
435.959	4.54
436.319	4.61
436.678	4.66
437.037	4.74
437.396	4.58
437.756	4.65
438.115	4.63
438.474	4.72
438.833	4.72
439.192	4.79
439.551	4.74
439.91	4.66
440.269	4.89
440.628	4.7
440.987	4.59
441.345	4.61
441.704	4.77
442.063	4.59
442.421	4.67
442.78	4.71
443.138	4.64
443.497	4.54
443.855	4.79
444.214	4.75
444.572	4.61
444.93	4.81
445.288	4.68
445.647	4.77
446.005	4.64
446.363	4.76
446.721	4.73
447.079	4.76
447.437	4.67
447.795	4.6
448.153	4.73
448.51	4.7
448.868	4.66
449.226	4.73
449.584	4.68
449.941	4.75
450.299	4.7
450.656	4.76
451.014	4.77
451.371	4.75
451.729	4.66
452.086	4.71
452.443	4.63
452.801	4.84
453.158	4.96
453.515	4.73
453.872	4.92
454.229	4.81
454.586	4.74
454.943	4.88
455.3	4.93
455.657	4.78
456.014	5.01
456.371	4.9
456.727	4.75
457.084	4.81
457.441	4.7
457.797	5.01
458.154	4.72
458.51	4.77
458.867	4.84
459.223	5.02
459.58	4.93
459.936	4.71
460.292	5
460.648	4.79
461.005	4.72
461.361	4.78
461.717	4.8
462.073	4.93
462.429	4.83
462.785	4.98
463.141	4.83
463.496	4.88
463.852	5.04
464.208	4.91
464.564	4.97
464.919	4.89
465.275	4.88
465.631	4.94
465.986	4.89
466.342	4.95
466.697	4.98
467.052	5.01
467.408	5.14
467.763	4.82
468.118	4.91
468.473	5.1
468.829	4.87
469.184	4.99
469.539	4.77
469.894	4.98
470.249	4.94
470.603	5.16
470.958	5.08
471.313	4.88
471.668	5.03
472.023	4.95
472.377	4.94
472.732	5.06
473.086	4.88
473.441	5.18
473.795	5.05
474.15	4.96
474.504	5.05
474.859	5.1
475.213	5.02
475.567	5.06
475.921	5.02
476.275	5.16
476.63	4.93
476.984	5
477.338	5.22
477.692	5.01
478.045	5.08
478.399	5.16
478.753	4.85
479.107	5.04
479.461	5.04
479.814	4.96
480.168	5.16
480.521	4.96
480.875	5.23
481.228	5.17
481.582	4.98
481.935	4.99
482.289	5.01
482.642	5.17
482.995	4.98
483.348	5.07
483.701	5.04
484.055	4.94
484.408	4.98
484.761	4.9
485.114	4.8
485.466	4.78
485.819	4.79
486.172	4.85
486.525	4.9
486.878	4.92
487.23	4.93
487.583	5
487.936	5.01
488.288	5
488.641	5
488.993	4.85
489.345	4.9
489.698	4.96
490.05	4.88
490.402	5
490.754	5.13
491.107	5.04
491.459	5.16
491.811	5.23
492.163	5.21
492.515	5.16
492.866	4.99
493.218	4.97
493.57	5.05
493.922	4.96
494.274	5.09
494.625	5.05
494.977	5.15
495.328	5.28
495.68	5.44
496.031	5.36
496.383	5.17
496.734	5.3
497.086	5.23
497.437	5.35
497.788	5.18
498.139	5.35
498.49	5.28
498.842	5.21
499.193	5.29
499.544	5.4
499.894	5.39
500.245	5.38
500.596	5.3
500.947	5.33
501.298	5.21
501.648	5.32
501.999	5.53
502.35	5.44
502.7	5.42
503.051	5.43
503.401	5.46
503.752	5.38
504.102	5.26
504.452	5.38
504.803	5.34
505.153	5.46
505.503	5.36
505.853	5.39
506.203	5.47
506.553	5.57
506.903	5.34
507.253	5.5
507.603	5.4
507.953	5.56
508.303	5.43
508.652	5.52
509.002	5.49
509.352	5.54
509.701	5.35
510.051	5.53
510.4	5.44
510.75	5.46
511.099	5.49
511.449	5.47
511.798	5.56
512.147	5.61
512.496	5.7
512.846	5.46
513.195	5.6
513.544	5.51
513.893	5.47
514.242	5.63
514.591	5.68
514.939	5.56
515.288	5.64
515.637	5.62
515.986	5.55
516.334	5.72
516.683	5.6
517.032	5.57
517.38	5.69
517.729	5.76
518.077	5.75
518.426	5.6
518.774	5.67
519.122	5.66
519.47	5.6
519.819	5.69
520.167	5.71
520.515	5.58
520.863	5.59
521.211	5.55
521.559	5.61
521.907	5.67
522.255	5.75
522.602	5.8
522.95	5.85
523.298	5.71
523.645	5.64
523.993	5.87
524.341	5.77
524.688	5.77
525.036	5.95
525.383	5.83
525.73	5.93
526.078	5.73
526.425	5.83
526.772	5.78
527.119	5.75
527.466	5.73
527.814	5.71
528.161	5.76
528.508	5.83
528.854	5.76
529.201	5.73
529.548	5.75
529.895	5.61
530.242	5.58
530.588	5.64
530.935	5.6
531.282	5.75
531.628	5.77
531.975	5.88
532.321	5.95
532.667	5.85
533.014	5.92
533.36	5.95
533.706	5.97
534.052	5.83
534.399	5.9
534.745	5.83
535.091	5.88
535.437	5.84
535.783	5.94
536.129	5.98
536.474	6.06
536.82	6.05
537.166	6.12
537.512	6.09
537.857	6.05
538.203	6.04
538.549	6.08
538.894	6.06
539.239	6.29
539.585	6.17
539.93	6.14
540.276	6.18
540.621	6.12
540.966	6.25
541.311	6.24
541.656	6.24
542.001	6.3
542.346	6.15
542.691	6.07
543.036	6.12
543.381	6.09
543.726	6.17
544.071	6.2
544.415	6.21
544.76	6.22
545.105	6.19
545.449	6.23
545.794	6.33
546.138	6.38
546.483	6.33
546.827	6.43
547.171	6.39
547.516	6.52
547.86	6.57
548.204	6.47
548.548	6.5
548.892	6.58
549.236	6.59
549.58	6.46
549.924	6.5
550.268	6.71
550.612	6.77
550.956	6.63
551.3	6.72
551.643	6.7
551.987	6.78
552.33	6.84
552.674	6.85
553.017	6.89
553.361	6.75
553.704	6.75
554.048	6.87
554.391	6.84
554.734	6.79
555.077	6.86
555.42	6.94
555.764	7.04
556.107	6.85
556.45	6.9
556.793	6.99
557.135	7.05
557.478	7.21
557.821	6.89
558.164	7.1
558.507	6.97
558.849	7.05
559.192	7.1
559.534	7.03
559.877	7.16
560.219	7.17
560.562	7.13
560.904	7.22
561.246	7.3
561.589	7.25
561.931	7.33
562.273	7.22
562.615	7.34
562.957	7.3
563.299	7.23
563.641	7.35
563.983	7.34
564.325	7.18
564.667	7.18
565.008	7.33
565.35	7.46
565.692	7.47
566.033	7.34
566.375	7.33
566.716	7.51
567.058	7.61
567.399	7.59
567.741	7.49
568.082	7.42
568.423	7.38
568.764	7.58
569.105	7.56
569.447	7.61
569.788	7.55
570.129	7.6
570.47	7.58
570.811	7.62
571.151	7.68
571.492	7.71
571.833	7.65
572.174	7.68
572.514	7.64
572.855	7.65
573.195	7.59
573.536	7.77
573.876	7.68
574.217	7.77
574.557	7.82
574.898	7.7
575.238	7.66
575.578	7.94
575.918	7.82
576.258	7.93
576.598	7.95
576.938	8.18
577.278	7.92
577.618	7.99
577.958	7.94
578.298	8.01
578.638	7.94
578.977	8.04
579.317	8.17
579.657	8.2
579.996	8.32
580.336	8.1
580.675	8.41
581.014	8.41
581.354	8.25
581.693	8.27
582.032	8.22
582.372	8.51
582.711	8.24
583.05	8.42
583.389	8.63
583.728	8.38
584.067	8.37
584.406	8.45
584.745	8.44
585.083	8.55
585.422	8.55
585.761	8.61
586.1	8.66
586.438	8.72
586.777	8.64
587.115	8.66
587.454	8.68
587.792	8.62
588.13	8.98
588.469	8.75
588.807	8.94
589.145	8.97
589.483	8.87
589.821	8.83
590.159	8.85
590.497	8.66
590.835	8.84
591.173	9.03
591.511	9.12
591.849	9.12
592.187	9.02
592.524	8.87
592.862	9.07
593.2	8.9
593.537	9.13
593.875	9.14
594.212	9.14
594.55	9.03
594.887	9.29
595.224	9.13
595.561	9.19
595.899	9.32
596.236	9.44
596.573	9.17
596.91	9.38
597.247	9.35
597.584	9.57
597.921	9.33
598.258	9.52
598.594	9.38
598.931	9.34
599.268	9.36
599.604	9.42
599.941	9.48
600.277	9.61
600.614	9.65
600.95	9.62
601.287	9.58
601.623	9.78
601.959	9.54
602.296	9.71
602.632	9.96
602.968	9.69
603.304	9.76
603.64	9.84
603.976	9.75
604.312	10.02
604.648	9.95
604.984	9.98
605.319	9.79
605.655	9.71
605.991	9.9
606.326	9.94
606.662	9.77
606.998	10.18
607.333	10.03
607.668	10
608.004	10.17
608.339	10.12
608.674	10.17
609.01	10.3
609.345	10.5
609.68	10.27
610.015	10.27
610.35	10.21
610.685	10.42
611.02	10.49
611.355	10.31
611.689	10.15
612.024	10.62
612.359	10.48
612.694	10.75
613.028	10.66
613.363	10.33
613.697	10.44
614.032	10.77
614.366	10.46
614.7	10.94
615.035	10.41
615.369	10.71
615.703	10.88
616.037	10.6
616.371	11.02
616.705	10.78
617.039	10.9
617.373	10.77
617.707	10.75
618.041	11.08
618.375	10.96
618.709	11.01
619.042	11.23
619.376	11.09
619.71	10.81
620.043	11.17
620.377	11.19
620.71	11.18
621.043	10.97
621.377	11.31
621.71	11.38
622.043	11.55
622.376	11.62
622.709	11.66
623.043	11.17
623.376	11.55
623.709	11.68
624.041	10.96
624.374	11.17
624.707	11.42
625.04	11.63
625.373	11.6
625.705	11.58
626.038	11.52
626.37	11.49
626.703	11.57
627.035	11.82
627.368	11.84
627.7	12.1
628.032	11.63
628.365	11.65
628.697	11.66
629.029	12.28
629.361	11.6
629.693	11.94
630.025	11.89
630.357	11.81
630.689	12.04
631.021	12.12
631.353	12.15
631.684	11.92
632.016	11.87
632.348	12.04
632.679	11.87
633.011	12.06
633.342	11.97
633.674	12.17
634.005	12.06
634.336	12.28
634.668	12.08
634.999	12.21
635.33	12.14
635.661	12.48
635.992	12.06
636.323	12.42
636.654	12.4
636.985	12.07
637.316	12.62
637.647	12.5
637.977	12.28
638.308	12.68
638.639	12.46
638.969	12.19
639.3	12.85
639.63	12.58
639.961	12.77
640.291	13.18
640.622	13.02
640.952	12.92
641.282	12.47
641.612	12.89
641.943	13.38
642.273	12.75
642.603	13.14
642.933	13.12
643.263	13.32
643.592	13.2
643.922	13.14
644.252	13.27
644.582	12.76
644.911	13
645.241	13.16
645.571	13.17
645.9	13.34
646.23	13.04
646.559	13.64
646.888	12.92
647.218	13.39
647.547	13.55
647.876	13.59
648.205	13.23
648.534	13.27
648.863	14.11
649.192	13.16
649.521	13.69
649.85	13.98
650.179	13.06
650.508	13.36
650.837	13.64
651.165	13.43
651.494	13.75
651.822	13.4
652.151	14.01
652.479	14.16
652.808	13.68
653.136	13.82
653.465	13.81
653.793	14.36
654.121	14.1
654.449	13.62
654.777	13.65
655.105	14.35
655.433	14
655.761	13.95
656.089	14.27
656.417	14.33
656.745	14.47
657.073	14.04
657.4	14.68
657.728	13.95
658.056	13.99
658.383	14.44
658.711	13.92
659.038	14.91
659.365	14.42
659.693	14.08
660.02	13.78
660.347	14.65
660.674	14.21
661.001	14.28
661.329	14.34
661.656	14.35
661.982	14.88
662.309	14.6
662.636	14.58
662.963	14.68
663.29	14.32
663.616	15.08
663.943	15.23
664.27	14.74
664.596	14.75
664.923	15.12
665.249	15.27
665.576	15.33
665.902	15.09
666.228	15.05
666.554	14.57
666.881	15.05
667.207	15.1
667.533	15.32
667.859	14.73
668.185	15.54
668.511	15.01
668.837	14.88
669.162	14.98
669.488	15.19
669.814	15.89
670.139	15.56
670.465	15.34
670.791	15.6
671.116	15.61
671.442	15.32
671.767	15.7
672.092	15.49
672.418	15.51
672.743	15.16
673.068	15.02
673.393	16.04
673.718	15.02
674.043	15.78
674.368	16.4
674.693	15.37
675.018	16.08
675.343	15.75
675.667	16.25
675.992	15.48
676.317	15.48
676.641	15.91
676.966	16.15
677.29	16
677.615	16.16
677.939	16.26
678.264	16.14
678.588	15.68
678.912	16.01
679.236	16.27
679.56	16.22
679.885	15.72
680.209	15.57
680.532	15.83
680.856	16.34
681.18	16.51
681.504	16.1
681.828	16.16
682.152	16.74
682.475	16.46
682.799	16.31
683.122	16.4
683.446	15.86
683.769	16.93
684.093	17.46
684.416	16.53
684.739	16.83
685.062	17.02
685.386	16.87
685.709	16.5
686.032	16.59
686.355	16.87
686.678	16.59
687.001	16.1
687.324	15.79
687.646	16.27
687.969	16.45
688.292	16.75
688.614	17.29
688.937	16.62
689.26	16.45
689.582	16.52
689.904	17.48
690.227	17.3
690.549	16.61
690.871	17.57
691.194	16.65
691.516	17.07
691.838	17.25
692.16	17.52
692.482	18.31
692.804	16.99
693.126	16.6
693.448	16.97
693.769	17.54
694.091	16.76
694.413	17.58
694.735	17.48
695.056	17.99
695.378	18.18
695.699	18.42
696.021	18.44
696.342	17.26
696.663	17.81
696.984	17.36
697.306	18.26
697.627	17.71
697.948	17.66
698.269	17.25
698.59	18.5
698.911	16.87
699.232	19.39
699.553	18.56
699.873	18.14
700.194	18.5
700.515	18.1
700.835	18.13
701.156	18.21
701.477	18.36
701.797	18.16
702.117	18.3
702.438	18.79
702.758	18.24
703.078	18.28
703.398	17.94
703.719	18.23
704.039	18.78
704.359	18.48
704.679	18.94
704.999	18.42
705.319	17.98
705.638	19.28
705.958	18.18
706.278	18.48
706.597	19.2
706.917	18.39
707.237	18.5
707.556	18.26
707.876	18.95
708.195	18.19
708.514	19.37
708.834	18.88
709.153	19.09
709.472	18.99
709.791	19.12
710.11	18.66
710.429	17.91
710.748	19.11
711.067	19.86
711.386	20.01
711.705	18.4
712.023	18.76
712.342	18.24
712.661	19.08
712.979	19.19
713.298	19.42
713.616	20
713.935	20.17
714.253	20.27
714.572	18.19
714.89	19.19
715.208	20.05
715.526	19.9
715.844	18.93
716.162	20.24
716.48	19.69
716.798	19.86
717.116	19.87
717.434	20.36
717.752	19.07
718.069	18.95
718.387	20.14
718.705	19.42
719.022	20.68
719.34	18.39
719.657	19.67
719.975	19.69
720.292	19.89
720.609	19.68
720.927	21.73
721.244	21.13
721.561	20.09
721.878	19.85
722.195	20.72
722.512	20.94
722.829	20.41
723.146	19.74
723.463	19.68
723.779	20.03
724.096	18.72
724.413	19.92
724.729	20.86
725.046	19.58
725.362	20.11
725.679	20.97
725.995	21.45
726.311	21.86
726.628	20.68
726.944	20.2
727.26	20.03
727.576	21.9
727.892	21.39
728.208	20.84
728.524	21.7
728.84	19.52
729.156	22.31
729.472	22.27
729.787	21.52
730.103	21.12
730.419	21.08
730.734	20.37
731.05	20.23
731.365	22.14
731.681	20.25
731.996	20.56
732.311	21.14
732.626	21.99
732.942	21.07
733.257	21.69
733.572	21.66
733.887	21.74
734.202	21.88
734.517	19.86
734.832	21.7
735.146	21.02
735.461	21.41
735.776	21.47
736.091	22.9
736.405	21.78
736.72	22.34
737.034	20.98
737.349	20.8
737.663	20.45
737.977	21.4
738.292	22.33
738.606	23.17
738.92	22.15
739.234	23.06
739.548	21.66
739.862	23.35
740.176	21.65
740.49	22.12
740.804	21.42
741.117	22.42
741.431	20.64
741.745	22.81
742.058	22.04
742.372	21.8
742.685	20.57
742.999	22.05
743.312	21.05
743.626	21.8
743.939	20.74
744.252	22.28
744.565	22.38
744.878	22.02
745.191	20.62
745.505	21.51
745.817	23.22
746.13	23.94
746.443	21.95
746.756	21.32
747.069	21.47
747.381	21.26
747.694	21.79
748.007	22.63
748.319	23.38
748.632	22.46
748.944	22.65
749.256	24.01
749.569	21.01
749.881	21.11
750.193	24.01
750.505	24.15
750.817	22.67
751.129	23.12
751.441	22.39
751.753	22.51
752.065	23.92
752.377	22.84
752.689	24.85
753	21.98
753.312	23.99
753.624	24.38
753.935	22.07
754.247	24.2
754.558	26.12
754.869	23.52
755.181	21.7
755.492	22.64
755.803	23.14
756.114	23.05
756.425	23.01
756.736	22.65
757.047	23.46
757.358	21.88
757.669	23.23
757.98	24.33
758.291	25.85
758.601	24.4
758.912	24.52
759.223	25.26
759.533	24.78
759.844	22.82
760.154	23.52
760.464	23.58
760.775	26.21
761.085	23.52
761.395	24.9
761.705	23.04
762.016	22.18
762.326	23.7
762.636	24.62
762.945	24.85
763.255	23.88
763.565	23.82
763.875	25.19
764.185	24.37
764.494	22.26
764.804	24.23
765.113	25.25
765.423	24.25
765.732	25.22
766.042	25.45
766.351	24.65
766.66	24.51
766.97	24.8
767.279	25.22
767.588	25.69
767.897	25.73
768.206	26.8
768.515	24.35
768.824	26.01
769.133	25.27
769.441	26.88
769.75	25.52
770.059	24.65
770.367	22.56
770.676	22.82
770.984	24.39
771.293	25.84
771.601	23.53
771.91	25.62
772.218	22.64
772.526	20.95
772.834	23.96
773.142	26.31
773.45	24.83
773.758	22.79
774.066	23.28
774.374	23.06
774.682	22.11
774.99	24.56
775.298	22.95
775.605	24.65
775.913	22.98
776.22	25.75
776.528	24.32
776.835	25.47
777.143	27.45
777.45	24.63
777.757	21.08
778.065	25.94
778.372	24.78
778.679	24.86
778.986	24.83
779.293	24.46
779.6	25.6
779.907	23.13
780.214	24.79
780.52	26.28
780.827	24.87
781.134	25.66
781.44	24.12
781.747	27.74
782.053	26.54
782.36	23.89
782.666	26.5
782.973	23.25
783.279	25.96
783.585	24.69
783.891	23.21
784.197	24.34
784.503	25.28
784.809	27.37
785.115	22.27
785.421	25.9
785.727	26.97
786.033	23.89
786.339	26.57
786.644	28.9
786.95	26.22
787.255	26.85
787.561	24.39
787.866	23.54
788.172	24.35
788.477	23.95
788.782	24.11
789.088	28.12
789.393	26.21
789.698	24.07
790.003	26.66
790.308	25.68
790.613	26.39
790.918	26.71
791.223	30.02
791.527	24.64
791.832	24.42
792.137	28.94
792.441	24.9
792.746	26.93
793.05	27.39
793.355	30.52
793.659	26.43
793.963	25.26
794.268	21.97
794.572	30.81
794.876	28.36
795.18	26.57
795.484	23.87
795.788	22.93
796.092	26.06
796.396	25.42
796.7	28.32
797.004	25.21
797.307	25.79
797.611	25.56
797.915	29.11
798.218	27.51
798.522	24
798.825	26.47
799.128	28.96
799.432	25.43
799.735	26.72
800.038	29.95
800.341	26.48
800.644	27.5
800.947	25.07
801.25	22.91
801.553	28.91
801.856	27.9
802.159	24.7
802.462	28.31
802.764	28.2
803.067	25.38
803.37	28.13
803.672	23.63
803.975	25.75
804.277	31.45
804.579	28.44
804.882	26.82
805.184	27.64
805.486	25.86
805.788	29.67
806.09	22.83
806.392	31.25
806.694	27.38
806.996	23.29
807.298	22.77
807.6	24.74
807.902	31.65
808.203	26.25
808.505	28.88
808.807	31.67
809.108	24.65
809.409	28.88
809.711	27.59
810.012	25.56
810.313	23.97
810.615	22.69
810.916	24
811.217	29.77
811.518	32.63
811.819	25.63
812.12	28.38
812.421	24.28
812.722	18.97
813.023	31.81
813.323	33.88
813.624	29.8
813.925	26.56
814.225	31.48
814.526	26.95
814.826	30.19
815.126	27.04
815.427	26.83
815.727	23.62
816.027	27.08
816.327	28.13
816.627	26.74
816.927	25.76
817.227	25.3
817.527	24.84
817.827	25.8
818.127	36.89
818.427	23.42
818.727	26.77
819.026	31.22
819.326	24.75
819.625	30.2
819.925	31.12
820.224	31.58
820.524	32.8
820.823	30.35
821.122	25.43
821.421	28.68
821.72	28.45
822.019	29.46
822.318	28.23
822.617	30.49
822.916	32.37
823.215	29.85
823.514	26.93
823.813	31.65
824.111	30.92
824.41	29.84
824.709	31.66
825.007	32.2
825.306	30.85
825.604	29.67
825.902	29.91
826.201	30.97
826.499	30.66
826.797	29.6
827.095	29.05
827.393	28.96
827.691	30.62
827.989	32.08
828.287	29.71
828.585	27.38
828.882	31.53
829.18	31.39
829.478	29.46
829.775	31.69
830.073	31.17
830.37	29.5
830.668	30.66
830.965	29.78
831.263	30.95
831.56	31.07
831.857	30.87
832.154	34.33
832.451	27.8
832.748	24.67
833.045	32.77
833.342	31.11
833.639	25.91
833.936	32.5
834.232	32.17
834.529	34.01
834.826	33.28
835.122	31.88
835.419	26.36
835.715	28.27
836.012	30.55
836.308	32.47
836.604	30.17
836.901	34.13
837.197	29.76
837.493	32.31
837.789	31.52
838.085	27.81
838.381	29.33
838.677	28.91
838.972	27.97
839.268	26.51
839.564	38.71
839.86	26.59
840.155	34.84
840.451	30.26
840.746	30.37
841.042	31.81
841.337	28.27
841.632	25.88
841.928	23
842.223	26.73
842.518	30.73
842.813	26.06
843.108	18.53
843.403	28.78
843.698	27.22
843.993	27.53
844.287	27.48
844.582	35.69
844.877	29.02
845.171	32.26
845.466	14.49
845.761	22.22
846.055	36.91
846.349	20.4
846.644	20.77
846.938	33.86
847.232	23.58
847.526	34.44
847.82	10.37
848.114	33.34
848.408	27
848.702	24.41
848.996	43.48
849.29	27.8
849.584	10.43
849.877	19.99
850.171	27.16
850.465	24.42
850.758	36.81
851.052	18.92
851.345	42.45
851.638	36.69
851.932	33.41
852.225	13.35
852.518	19.31
852.811	24.49
853.104	27.34
853.397	38.76
853.69	28.83
853.983	17.63
854.276	9.88
854.569	10.9
854.861	30.99
855.154	33.36
855.447	20.47
855.739	31.24
856.032	22.8
856.324	21.72
856.616	42.12
856.909	34.36
857.201	39.79
857.493	12.77
857.785	28.08
858.077	10.04
858.369	10.52
858.661	51.55
858.953	23.98
859.245	26.96
859.537	40.95
859.829	27.25
860.12	14.37
860.412	18.26
860.703	37.57
860.995	17.37
861.286	32.73
861.578	-2.46
861.869	24.21
862.16	32.95
862.452	14.73
862.743	47.8
863.034	32.22
863.325	15.83
863.616	25.83
863.907	39.24
864.198	30.74
864.488	17.77
864.779	26.74
865.07	53.01
865.36	57.61
865.651	42.21
865.941	41.06
866.232	28.29
866.522	34.78
866.813	43.43
867.103	23.51
867.393	53.59
867.683	33.48
867.973	33.5
868.263	12.51
868.553	20.65
868.843	-20.76
869.133	17.11
869.423	20.67
869.713	18.25
870.002	0.38
870.292	23.45
870.582	17.7
870.871	5.93
871.161	5.06
871.45	28.05
871.739	-3.68
872.029	37.66
872.318	19.95
872.607	42.99
872.896	42.54
873.185	61.74
873.474	19.35
873.763	41.69
874.052	34.31
874.341	-60.75
874.63	38.03
874.918	36.65
875.207	16.16
875.496	31.83
875.784	18.54
876.073	10.51
876.361	8.81
876.649	38.32
876.938	38.4
877.226	21.3
877.514	-7.94
877.802	10.81
878.09	2.05
878.378	38.21
878.666	-34.74
878.954	32.25
879.242	33.43
879.53	-10.37
879.817	43.45
880.105	1.24
880.392	41.67
880.68	8.92
880.967	34.07
881.255	40.46
881.542	58.09
881.83	18.26
882.117	36.82
882.404	23.68
882.691	24.85
882.978	-13.3
883.265	33.92
883.552	21.66
883.839	29.17
884.126	28.98
884.413	37.54
884.699	31.79
884.986	30.29
885.273	31.47
885.559	31.47
885.846	31.47
