Data from 0069_crown_Reflection__0__304.txt Node

Date: Fri Dec 16 16:32:19 CST 2022
User: ToomeyLab
Spectrometer: FLMS14357
Trigger mode: 0
Integration Time (sec): 1.000000E-2
Scans to average: 100
Electric dark correction enabled: true
Nonlinearity correction enabled: false
Boxcar width: 0
XAxis mode: Wavelengths
Number of Pixels in Spectrum: 2048
>>>>>Begin Spectral Data<<<<<
189.047	151.77
189.435	151.77
189.823	151.77
190.211	172.17
190.599	10.49
190.987	1335.74
191.375	82.05
191.763	118.24
192.151	-1272.49
192.538	143.37
192.926	62.13
193.314	-4.38
193.702	117.22
194.089	110.7
194.477	-115.26
194.864	37.37
195.252	113.53
195.639	114.46
196.027	-72.48
196.414	79.17
196.801	-301.28
197.189	102.56
197.576	60.44
197.963	-85.67
198.351	-69.98
198.738	-55.2
199.125	-5.64
199.512	-19.64
199.899	-55.38
200.286	-45.4
200.673	-1.34
201.06	5.01
201.447	18.16
201.833	5.52
202.22	23.76
202.607	-27.98
202.994	-53.46
203.38	-56.8
203.767	-27.66
204.154	-97.51
204.54	30.99
204.927	-18.18
205.313	5.96
205.699	-27.77
206.086	-54.37
206.472	-29.78
206.858	-23.26
207.245	-17.41
207.631	32.87
208.017	41.44
208.403	1.15
208.789	-29.44
209.175	18.85
209.561	-7.5
209.947	-18.83
210.333	-37.51
210.719	-3.79
211.105	-99.16
211.491	-58.3
211.876	-35.02
212.262	-88.69
212.648	-91.55
213.034	-26.85
213.419	36.86
213.805	-17.97
214.19	-0.33
214.576	-15.5
214.961	-24.52
215.346	-35.13
215.732	-10.05
216.117	-3.13
216.502	-22.93
216.888	-32.12
217.273	3.53
217.658	-25.82
218.043	-9.3
218.428	13.68
218.813	-82.02
219.198	-53.11
219.583	-22.64
219.968	-24.21
220.353	-6.98
220.738	-12.02
221.122	0.49
221.507	-12.14
221.892	-6.37
222.276	7.33
222.661	-11.46
223.046	-4.03
223.43	-6.6
223.815	6.12
224.199	-1.33
224.583	-6.84
224.968	5.66
225.352	0.43
225.736	1.33
226.121	-1.63
226.505	-0.89
226.889	8.43
227.273	6.46
227.657	6.12
228.041	7.35
228.425	8.86
228.809	6.27
229.193	5.07
229.577	8.12
229.961	8.51
230.344	9.13
230.728	8.87
231.112	8.17
231.495	7.57
231.879	8.53
232.263	6.8
232.646	7.2
233.03	5.64
233.413	5.41
233.797	9.99
234.18	5.93
234.563	4.88
234.946	7.03
235.33	7.48
235.713	7.9
236.096	7.89
236.479	9.27
236.862	10.04
237.245	9.46
237.628	7.48
238.011	6.37
238.394	8.41
238.777	8.15
239.16	5.5
239.543	5.17
239.925	7.94
240.308	7.63
240.691	7.01
241.073	8.49
241.456	8.37
241.838	7.78
242.221	8.19
242.603	8.69
242.986	8.72
243.368	8.35
243.75	7.86
244.133	8.19
244.515	8.52
244.897	7.67
245.279	7.29
245.661	7.43
246.043	7.56
246.425	7.47
246.807	7.43
247.189	7.95
247.571	7.87
247.953	8.15
248.335	8.3
248.717	7.87
249.098	7.88
249.48	7.64
249.862	7.83
250.243	7.56
250.625	6.79
251.006	8.04
251.388	7.57
251.769	7.29
252.151	6.93
252.532	8.22
252.913	8.62
253.295	7.61
253.676	7.64
254.057	7.32
254.438	7.36
254.819	7.56
255.2	6.55
255.581	7.12
255.962	7.42
256.343	7.15
256.724	6.59
257.105	7.53
257.486	6.82
257.867	6.07
258.247	6.73
258.628	8.21
259.009	6.94
259.389	7.54
259.77	7.3
260.15	7.66
260.531	7.14
260.911	7.52
261.292	7.55
261.672	7.34
262.052	7.08
262.432	7.11
262.813	7.32
263.193	6.57
263.573	7.28
263.953	7.29
264.333	7.08
264.713	6.45
265.093	6.39
265.473	7.4
265.853	7.58
266.233	6.29
266.612	7.7
266.992	6.72
267.372	6.69
267.752	6.69
268.131	7.04
268.511	6.43
268.89	7.03
269.27	7.25
269.649	6.9
270.029	6.92
270.408	7.05
270.787	6.83
271.167	7.15
271.546	6.14
271.925	6.31
272.304	7.28
272.683	6.71
273.062	6.92
273.441	6.81
273.82	7.24
274.199	6.93
274.578	6.61
274.957	6.8
275.336	6.79
275.715	6.82
276.093	6.44
276.472	6.89
276.851	6.58
277.229	7.4
277.608	6.42
277.986	6.76
278.365	6.53
278.743	6.82
279.122	5.81
279.5	6.04
279.878	5.82
280.257	7.02
280.635	6.46
281.013	7.2
281.391	6.23
281.769	6.5
282.147	6.92
282.525	6.38
282.903	6.51
283.281	6.53
283.659	6.91
284.037	6.26
284.415	6.62
284.792	6.32
285.17	6.15
285.548	6.28
285.925	6.44
286.303	6.24
286.68	6.23
287.058	6.16
287.435	5.89
287.813	6.29
288.19	6.66
288.567	5.89
288.945	6.32
289.322	6.22
289.699	6.22
290.076	6.44
290.453	6.08
290.83	6.24
291.207	5.8
291.584	5.86
291.961	6.09
292.338	5.94
292.715	5.7
293.092	5.82
293.469	6.51
293.845	5.98
294.222	5.63
294.599	6.21
294.975	5.77
295.352	5.57
295.728	5.99
296.105	6.01
296.481	6.46
296.858	6.3
297.234	5.85
297.61	5.88
297.986	6.12
298.363	5.73
298.739	5.86
299.115	5.6
299.491	5.65
299.867	5.69
300.243	5.64
300.619	5.36
300.995	5.46
301.371	5.76
301.746	5.57
302.122	5.5
302.498	5.38
302.874	5.73
303.249	5.56
303.625	5.45
304	5.19
304.376	6.05
304.751	5.56
305.127	5.35
305.502	5.58
305.878	5.52
306.253	5.29
306.628	5.87
307.003	5.78
307.378	4.95
307.754	5.47
308.129	4.89
308.504	4.96
308.879	5.3
309.254	5.77
309.629	5.55
310.003	5.72
310.378	5.36
310.753	5.36
311.128	5.34
311.502	4.94
311.877	5.28
312.252	5.53
312.626	5.05
313.001	5.18
313.375	5.04
313.75	5.3
314.124	5.48
314.498	5.01
314.873	5.09
315.247	4.74
315.621	5.44
315.995	5.35
316.369	5.07
316.743	5.77
317.117	5.61
317.491	5.03
317.865	4.88
318.239	5.3
318.613	4.84
318.987	5.59
319.361	4.98
319.734	5.23
320.108	5.29
320.482	5.05
320.855	5.29
321.229	5.2
321.602	4.87
321.976	4.95
322.349	4.13
322.723	4.79
323.096	4.81
323.469	4.78
323.843	5.11
324.216	4.63
324.589	5.11
324.962	5.08
325.335	5.1
325.708	5.15
326.081	5.77
326.454	5.16
326.827	4.55
327.2	5.24
327.573	4.94
327.945	4.43
328.318	5.35
328.691	5.02
329.063	4.94
329.436	4.81
329.809	4.64
330.181	4.98
330.553	5.39
330.926	4.75
331.298	4.76
331.671	5.37
332.043	5.12
332.415	5.14
332.787	5.65
333.159	4.79
333.532	4.78
333.904	4.74
334.276	4.59
334.648	5.12
335.02	4.5
335.391	5.31
335.763	4.26
336.135	5.1
336.507	5.17
336.879	4.91
337.25	5.05
337.622	4.65
337.993	5.3
338.365	5.11
338.736	5.09
339.108	4.95
339.479	5.01
339.851	5.39
340.222	5.1
340.593	4.86
340.964	5.13
341.336	4.62
341.707	5.16
342.078	4.55
342.449	4.95
342.82	4.82
343.191	4.5
343.562	5.15
343.933	4.91
344.303	5.05
344.674	5.01
345.045	5.41
345.416	5.23
345.786	4.94
346.157	5.09
346.527	4.75
346.898	4.86
347.268	4.7
347.639	5.17
348.009	4.95
348.38	5.47
348.75	5.1
349.12	4.61
349.49	4.53
349.861	5.56
350.231	5.66
350.601	5.26
350.971	4.76
351.341	5.03
351.711	5.08
352.081	5.12
352.45	5.13
352.82	4.76
353.19	4.63
353.56	5.23
353.929	5.01
354.299	5.01
354.669	5.53
355.038	5.06
355.408	5.41
355.777	5.24
356.147	5.06
356.516	5.24
356.885	5.19
357.254	5.35
357.624	5.33
357.993	5.09
358.362	5.43
358.731	5.22
359.1	5.3
359.469	5.2
359.838	5.39
360.207	5.26
360.576	5.27
360.945	5.05
361.314	5.15
361.682	4.95
362.051	4.91
362.42	5.58
362.788	5.48
363.157	4.98
363.525	5
363.894	5.09
364.262	4.96
364.631	5.6
364.999	4.94
365.367	5.69
365.735	4.68
366.104	5.14
366.472	5.38
366.84	5.55
367.208	4.91
367.576	5.44
367.944	5.43
368.312	4.89
368.68	5.7
369.048	5.83
369.416	5.31
369.783	5.38
370.151	5.51
370.519	5.3
370.886	5.33
371.254	5.59
371.621	5.26
371.989	5.03
372.356	5.57
372.724	5.5
373.091	5.29
373.458	5.3
373.826	5.35
374.193	5.61
374.56	5.31
374.927	5.4
375.294	5.94
375.661	5.7
376.028	5.48
376.395	5.4
376.762	5.46
377.129	5.76
377.496	5.47
377.863	5.63
378.229	5.43
378.596	5.49
378.963	5.58
379.329	5.35
379.696	5.62
380.062	5.76
380.429	5.58
380.795	5.44
381.161	5.14
381.528	5.06
381.894	5.45
382.26	5.48
382.626	5.5
382.993	5.45
383.359	5.47
383.725	5.9
384.091	5.6
384.457	6.11
384.823	5.79
385.188	5.87
385.554	5.53
385.92	5.91
386.286	5.75
386.651	5.28
387.017	5.88
387.383	5.64
387.748	5.59
388.114	5.89
388.479	5.73
388.845	5.94
389.21	5.88
389.575	5.87
389.94	5.55
390.306	5.58
390.671	5.53
391.036	5.56
391.401	5.91
391.766	5.8
392.131	5.83
392.496	5.82
392.861	5.59
393.226	5.79
393.591	5.78
393.956	5.76
394.32	5.83
394.685	5.92
395.05	5.85
395.414	5.82
395.779	5.83
396.143	6.21
396.508	5.84
396.872	5.94
397.236	5.54
397.601	5.79
397.965	5.67
398.329	6.09
398.694	5.66
399.058	5.71
399.422	5.9
399.786	5.81
400.15	5.75
400.514	5.88
400.878	5.93
401.242	6.09
401.605	5.79
401.969	6.15
402.333	5.91
402.697	6.19
403.06	6.07
403.424	5.93
403.787	6.32
404.151	5.86
404.514	5.96
404.878	6.05
405.241	6.25
405.604	6.11
405.968	5.96
406.331	6.1
406.694	6
407.057	6.14
407.42	6.05
407.783	5.71
408.146	6.04
408.509	6.1
408.872	6.12
409.235	5.97
409.598	6.29
409.961	6.37
410.323	6.01
410.686	5.93
411.049	5.99
411.411	6.04
411.774	6.04
412.136	6.2
412.499	6.06
412.861	6.11
413.223	6.26
413.586	5.93
413.948	6.39
414.31	6.02
414.672	6.04
415.035	6.26
415.397	6.09
415.759	6.21
416.121	6.37
416.483	6.38
416.845	6.14
417.206	6.25
417.568	6.18
417.93	6.18
418.292	6.19
418.653	6.24
419.015	6.33
419.377	6.46
419.738	6.16
420.1	6.19
420.461	6.04
420.822	6.19
421.184	6.15
421.545	6.21
421.906	6.29
422.267	6.19
422.629	6.21
422.99	6.13
423.351	6.25
423.712	6.16
424.073	6.27
424.434	6.15
424.795	6.19
425.155	6.28
425.516	6.2
425.877	6.14
426.238	6.04
426.598	6.2
426.959	6.09
427.32	6.21
427.68	6.23
428.041	6.13
428.401	6.27
428.761	6.27
429.122	6.3
429.482	6.13
429.842	6.39
430.202	6.39
430.563	6.24
430.923	6.08
431.283	6.44
431.643	6.33
432.003	6.34
432.363	6.46
432.722	6.16
433.082	6.38
433.442	6.36
433.802	6.32
434.161	6.31
434.521	6.43
434.881	6.34
435.24	6.36
435.6	6.33
435.959	6.44
436.319	6.38
436.678	6.34
437.037	6.44
437.396	6.36
437.756	6.37
438.115	6.57
438.474	6.53
438.833	6.7
439.192	6.54
439.551	6.53
439.91	6.69
440.269	6.49
440.628	6.38
440.987	6.35
441.345	6.44
441.704	6.47
442.063	6.42
442.421	6.45
442.78	6.38
443.138	6.32
443.497	6.38
443.855	6.41
444.214	6.43
444.572	6.41
444.93	6.49
445.288	6.42
445.647	6.6
446.005	6.44
446.363	6.55
446.721	6.44
447.079	6.49
447.437	6.46
447.795	6.42
448.153	6.36
448.51	6.39
448.868	6.53
449.226	6.44
449.584	6.42
449.941	6.44
450.299	6.47
450.656	6.52
451.014	6.35
451.371	6.61
451.729	6.42
452.086	6.45
452.443	6.24
452.801	6.57
453.158	6.47
453.515	6.53
453.872	6.63
454.229	6.51
454.586	6.58
454.943	6.49
455.3	6.52
455.657	6.49
456.014	6.62
456.371	6.58
456.727	6.4
457.084	6.4
457.441	6.45
457.797	6.56
458.154	6.56
458.51	6.62
458.867	6.38
459.223	6.57
459.58	6.56
459.936	6.53
460.292	6.54
460.648	6.52
461.005	6.46
461.361	6.6
461.717	6.51
462.073	6.53
462.429	6.48
462.785	6.47
463.141	6.67
463.496	6.53
463.852	6.58
464.208	6.45
464.564	6.5
464.919	6.64
465.275	6.65
465.631	6.53
465.986	6.44
466.342	6.7
466.697	6.57
467.052	6.63
467.408	6.52
467.763	6.54
468.118	6.65
468.473	6.74
468.829	6.59
469.184	6.81
469.539	6.41
469.894	6.77
470.249	6.77
470.603	6.51
470.958	6.62
471.313	6.59
471.668	6.52
472.023	6.78
472.377	6.56
472.732	6.55
473.086	6.39
473.441	6.63
473.795	6.88
474.15	6.64
474.504	6.68
474.859	6.74
475.213	6.57
475.567	6.49
475.921	6.78
476.275	6.66
476.63	6.62
476.984	6.67
477.338	6.89
477.692	6.73
478.045	6.62
478.399	6.66
478.753	6.66
479.107	6.65
479.461	6.64
479.814	6.71
480.168	6.58
480.521	6.56
480.875	6.68
481.228	6.63
481.582	6.57
481.935	6.62
482.289	6.62
482.642	6.64
482.995	6.63
483.348	6.5
483.701	6.55
484.055	6.58
484.408	6.54
484.761	6.42
485.114	6.43
485.466	6.36
485.819	6.3
486.172	6.28
486.525	6.32
486.878	6.36
487.23	6.44
487.583	6.45
487.936	6.55
488.288	6.53
488.641	6.46
488.993	6.4
489.345	6.39
489.698	6.44
490.05	6.43
490.402	6.47
490.754	6.51
491.107	6.51
491.459	6.55
491.811	6.59
492.163	6.68
492.515	6.61
492.866	6.52
493.218	6.47
493.57	6.43
493.922	6.45
494.274	6.52
494.625	6.54
494.977	6.57
495.328	6.71
495.68	6.72
496.031	6.76
496.383	6.67
496.734	6.79
497.086	6.55
497.437	6.79
497.788	6.7
498.139	6.82
498.49	6.76
498.842	6.7
499.193	6.72
499.544	6.75
499.894	6.93
500.245	6.76
500.596	6.66
500.947	6.65
501.298	6.59
501.648	6.69
501.999	6.8
502.35	6.79
502.7	6.87
503.051	6.75
503.401	6.68
503.752	6.72
504.102	6.87
504.452	6.63
504.803	6.63
505.153	6.74
505.503	6.68
505.853	6.76
506.203	6.8
506.553	6.77
506.903	6.66
507.253	6.83
507.603	6.71
507.953	6.87
508.303	6.69
508.652	6.8
509.002	6.85
509.352	6.69
509.701	6.85
510.051	6.82
510.4	6.78
510.75	6.62
511.099	6.64
511.449	6.7
511.798	6.92
512.147	6.72
512.496	6.67
512.846	6.68
513.195	6.72
513.544	6.8
513.893	6.57
514.242	6.78
514.591	6.76
514.939	6.64
515.288	6.74
515.637	6.75
515.986	6.7
516.334	6.91
516.683	6.69
517.032	6.6
517.38	6.71
517.729	6.7
518.077	6.78
518.426	6.73
518.774	6.8
519.122	6.64
519.47	6.69
519.819	6.79
520.167	6.67
520.515	6.62
520.863	6.63
521.211	6.69
521.559	6.63
521.907	6.72
522.255	6.69
522.602	6.74
522.95	6.66
523.298	6.75
523.645	6.72
523.993	6.82
524.341	6.81
524.688	6.72
525.036	6.88
525.383	6.88
525.73	6.77
526.078	6.81
526.425	6.81
526.772	6.67
527.119	6.64
527.466	6.66
527.814	6.61
528.161	6.74
528.508	6.73
528.854	6.63
529.201	6.69
529.548	6.65
529.895	6.55
530.242	6.59
530.588	6.5
530.935	6.51
531.282	6.48
531.628	6.43
531.975	6.62
532.321	6.59
532.667	6.65
533.014	6.66
533.36	6.67
533.706	6.73
534.052	6.63
534.399	6.63
534.745	6.67
535.091	6.62
535.437	6.57
535.783	6.63
536.129	6.63
536.474	6.8
536.82	6.64
537.166	6.82
537.512	6.81
537.857	6.72
538.203	6.7
538.549	6.73
538.894	6.72
539.239	6.83
539.585	6.71
539.93	6.77
540.276	6.74
540.621	6.69
540.966	6.7
541.311	6.85
541.656	6.76
542.001	6.82
542.346	6.66
542.691	6.65
543.036	6.61
543.381	6.62
543.726	6.53
544.071	6.53
544.415	6.64
544.76	6.58
545.105	6.59
545.449	6.65
545.794	6.62
546.138	6.8
546.483	6.71
546.827	6.71
547.171	6.76
547.516	6.79
547.86	6.78
548.204	6.72
548.548	6.81
548.892	6.69
549.236	6.67
549.58	6.73
549.924	6.78
550.268	6.75
550.612	6.87
550.956	6.7
551.3	6.79
551.643	6.91
551.987	6.76
552.33	6.83
552.674	6.99
553.017	6.85
553.361	6.7
553.704	6.68
554.048	6.88
554.391	6.69
554.734	6.66
555.077	6.76
555.42	6.69
555.764	6.7
556.107	6.75
556.45	6.64
556.793	6.93
557.135	6.95
557.478	6.69
557.821	6.86
558.164	7
558.507	6.85
558.849	6.76
559.192	6.93
559.534	6.55
559.877	6.77
560.219	6.87
560.562	6.84
560.904	6.67
561.246	6.98
561.589	6.91
561.931	6.96
562.273	6.68
562.615	6.86
562.957	6.78
563.299	6.83
563.641	6.89
563.983	6.77
564.325	6.68
564.667	6.77
565.008	6.75
565.35	7.01
565.692	6.86
566.033	6.89
566.375	6.81
566.716	6.77
567.058	6.79
567.399	6.78
567.741	6.98
568.082	6.82
568.423	6.72
568.764	6.65
569.105	6.85
569.447	6.74
569.788	6.97
570.129	6.73
570.47	6.92
570.811	6.84
571.151	6.92
571.492	6.97
571.833	6.74
572.174	6.79
572.514	6.77
572.855	6.98
573.195	6.75
573.536	6.74
573.876	6.74
574.217	6.9
574.557	6.87
574.898	6.69
575.238	6.79
575.578	6.89
575.918	6.73
576.258	6.84
576.598	6.8
576.938	6.9
577.278	6.72
577.618	6.81
577.958	6.77
578.298	6.88
578.638	6.72
578.977	6.86
579.317	6.81
579.657	6.76
579.996	6.69
580.336	6.7
580.675	6.81
581.014	6.81
581.354	6.68
581.693	6.52
582.032	6.74
582.372	7.06
582.711	6.57
583.05	7
583.389	6.78
583.728	6.78
584.067	6.93
584.406	7.02
584.745	6.85
585.083	7.16
585.422	6.88
585.761	6.89
586.1	6.9
586.438	6.99
586.777	6.63
587.115	6.75
587.454	6.8
587.792	6.72
588.13	6.99
588.469	6.89
588.807	7.03
589.145	6.66
589.483	6.63
589.821	6.77
590.159	6.6
590.497	6.69
590.835	6.87
591.173	6.83
591.511	7.05
591.849	6.85
592.187	6.67
592.524	6.56
592.862	6.74
593.2	6.75
593.537	6.66
593.875	6.76
594.212	6.8
594.55	6.95
594.887	7.06
595.224	6.82
595.561	6.82
595.899	6.74
596.236	6.9
596.573	6.63
596.91	6.76
597.247	6.75
597.584	6.8
597.921	6.61
598.258	6.6
598.594	6.61
598.931	6.73
599.268	6.72
599.604	7
599.941	6.75
600.277	6.58
600.614	6.95
600.95	6.88
601.287	7.02
601.623	6.74
601.959	6.67
602.296	6.82
602.632	6.92
602.968	6.71
603.304	6.7
603.64	6.69
603.976	6.8
604.312	6.87
604.648	6.85
604.984	6.8
605.319	6.73
605.655	6.75
605.991	6.72
606.326	6.51
606.662	6.62
606.998	6.6
607.333	6.56
607.668	6.94
608.004	6.59
608.339	6.77
608.674	6.51
609.01	6.85
609.345	6.63
609.68	6.53
610.015	6.75
610.35	6.91
610.685	6.69
611.02	6.72
611.355	6.84
611.689	6.66
612.024	6.87
612.359	6.92
612.694	6.79
613.028	6.88
613.363	6.48
613.697	6.67
614.032	6.78
614.366	6.8
614.7	6.87
615.035	6.56
615.369	6.73
615.703	6.78
616.037	6.89
616.371	6.76
616.705	6.75
617.039	7.1
617.373	6.35
617.707	6.68
618.041	6.78
618.375	6.97
618.709	6.62
619.042	6.43
619.376	6.5
619.71	7.02
620.043	6.65
620.377	6.92
620.71	6.68
621.043	6.51
621.377	6.35
621.71	6.54
622.043	7.05
622.376	6.53
622.709	6.93
623.043	6.7
623.376	6.87
623.709	6.69
624.041	6.63
624.374	6.48
624.707	6.03
625.04	7.08
625.373	6.4
625.705	6.99
626.038	6.76
626.37	6.75
626.703	6.84
627.035	6.77
627.368	6.72
627.7	6.91
628.032	6.79
628.365	6.54
628.697	6.68
629.029	7.04
629.361	6.53
629.693	6.78
630.025	6.62
630.357	6.36
630.689	6.67
631.021	6.69
631.353	6.85
631.684	6.68
632.016	6.56
632.348	6.73
632.679	6.71
633.011	6.42
633.342	6.75
633.674	6.7
634.005	6.55
634.336	6.53
634.668	6.72
634.999	6.55
635.33	6.62
635.661	6.64
635.992	6.38
636.323	6.89
636.654	6.61
636.985	6.2
637.316	6.47
637.647	6.73
637.977	6.36
638.308	6.48
638.639	6.53
638.969	6.7
639.3	6.87
639.63	6.29
639.961	6.38
640.291	6.73
640.622	6.62
640.952	6.75
641.282	5.88
641.612	6.73
641.943	6.97
642.273	6.61
642.603	6.3
642.933	6.48
643.263	6.9
643.592	6.65
643.922	6.86
644.252	6.67
644.582	6.36
644.911	6.62
645.241	6.52
645.571	6.47
645.9	7.02
646.23	6.42
646.559	6.21
646.888	6.31
647.218	6.34
647.547	6.89
647.876	6.95
648.205	6.24
648.534	6.33
648.863	6.95
649.192	6.4
649.521	6.21
649.85	6.54
650.179	6.31
650.508	6.52
650.837	6.7
651.165	6.84
651.494	6.32
651.822	6.56
652.151	6.85
652.479	6.66
652.808	6.3
653.136	6.16
653.465	6.8
653.793	6.92
654.121	6.6
654.449	6.51
654.777	6.64
655.105	6.85
655.433	6.82
655.761	6.16
656.089	5.99
656.417	6.22
656.745	6.91
657.073	7.06
657.4	6.53
657.728	6.06
658.056	6.19
658.383	6.76
658.711	6.26
659.038	6.76
659.365	6.85
659.693	6.43
660.02	6.02
660.347	6.82
660.674	6.47
661.001	6.39
661.329	6.28
661.656	6.01
661.982	6.55
662.309	6.31
662.636	6.41
662.963	6.68
663.29	6.24
663.616	5.88
663.943	6.47
664.27	6.4
664.596	6.28
664.923	6.92
665.249	6.64
665.576	6.3
665.902	6.79
666.228	6.3
666.554	5.98
666.881	6.71
667.207	6.47
667.533	6.52
667.859	5.9
668.185	6.93
668.511	6.02
668.837	6.13
669.162	6.3
669.488	6.54
669.814	7.06
670.139	6.79
670.465	6.72
670.791	6.92
671.116	6.45
671.442	6.32
671.767	6.36
672.092	6.53
672.418	6.67
672.743	6.16
673.068	5.89
673.393	6.77
673.718	6.15
674.043	6.9
674.368	6.95
674.693	7.17
675.018	6.55
675.343	6.67
675.667	6.72
675.992	6.54
676.317	6.61
676.641	6.47
676.966	6.44
677.29	6.44
677.615	6.39
677.939	6.66
678.264	6.51
678.588	6.28
678.912	6.34
679.236	6.65
679.56	5.94
679.885	6.46
680.209	6.79
680.532	6.23
680.856	6.59
681.18	6.71
681.504	6.41
681.828	6.39
682.152	6.38
682.475	6.77
682.799	6.81
683.122	6.07
683.446	6.4
683.769	7.13
684.093	6.3
684.416	6.69
684.739	6.3
685.062	6.38
685.386	6.15
685.709	6.4
686.032	6.48
686.355	6.74
686.678	5.32
687.001	5.59
687.324	5.42
687.646	6.28
687.969	6.29
688.292	6.85
688.614	6.88
688.937	5.84
689.26	5.47
689.582	6
689.904	7.14
690.227	5.97
690.549	6.9
690.871	6.33
691.194	7.24
691.516	6.6
691.838	6.29
692.16	6.56
692.482	7.31
692.804	6.33
693.126	6.84
693.448	6.31
693.769	6.66
694.091	6.45
694.413	6.85
694.735	6.29
695.056	6.5
695.378	7.41
695.699	7.68
696.021	6.83
696.342	5.61
696.663	6.78
696.984	5.96
697.306	5.71
697.627	6.29
697.948	6.81
698.269	5.83
698.59	7.11
698.911	5.8
699.232	7.38
699.553	6.79
699.873	6.68
700.194	6.7
700.515	6.88
700.835	6.95
701.156	6.86
701.477	6.52
701.797	6.89
702.117	6.94
702.438	6.98
702.758	6.21
703.078	5.88
703.398	7.07
703.719	6.01
704.039	6.62
704.359	6.82
704.679	6.27
704.999	6.34
705.319	6.87
705.638	7.22
705.958	6.87
706.278	6.49
706.597	6.65
706.917	6.67
707.237	6.05
707.556	7.05
707.876	5.82
708.195	6.27
708.514	6.23
708.834	6.57
709.153	6.61
709.472	6.27
709.791	6.93
710.11	6.27
710.429	6.16
710.748	7
711.067	6.51
711.386	6.89
711.705	6.36
712.023	6.23
712.342	6.18
712.661	7.23
712.979	6.78
713.298	6.65
713.616	7.64
713.935	6.39
714.253	7.4
714.572	6.76
714.89	6.23
715.208	7.37
715.526	6.99
715.844	6.69
716.162	6.96
716.48	6.53
716.798	6.79
717.116	7.04
717.434	7.22
717.752	6.96
718.069	5.89
718.387	5.85
718.705	7.28
719.022	6.91
719.34	6.2
719.657	6.36
719.975	6.55
720.292	6.53
720.609	6.01
720.927	7.01
721.244	6.62
721.561	6.73
721.878	6.23
722.195	7.08
722.512	8
722.829	6.45
723.146	6.47
723.463	6.55
723.779	5.79
724.096	6.39
724.413	6.19
724.729	5.94
725.046	7.08
725.362	5.84
725.679	8.16
725.995	7.28
726.311	6.22
726.628	5.36
726.944	6.91
727.26	5.48
727.576	7.74
727.892	7.26
728.208	6.69
728.524	7.39
728.84	7.32
729.156	6.39
729.472	7.56
729.787	7.73
730.103	6.82
730.419	7.38
730.734	5.77
731.05	7.24
731.365	6.95
731.681	6.18
731.996	5.98
732.311	6.92
732.626	7.16
732.942	7.49
733.257	7.88
733.572	8.41
733.887	7.69
734.202	6.41
734.517	6.6
734.832	7.25
735.146	6.31
735.461	7.18
735.776	7.5
736.091	6.56
736.405	7.57
736.72	6.64
737.034	5.98
737.349	6.43
737.663	6.59
737.977	5.93
738.292	6.57
738.606	6.37
738.92	7.06
739.234	6.89
739.548	6.29
739.862	6.87
740.176	6.25
740.49	6.31
740.804	7.38
741.117	7.87
741.431	5.47
741.745	5.38
742.058	6
742.372	5.08
742.685	5.08
742.999	6.72
743.312	6.61
743.626	7.27
743.939	6.38
744.252	6.03
744.565	6.48
744.878	6.39
745.191	7.34
745.505	5.1
745.817	7.83
746.13	7.46
746.443	6
746.756	6.17
747.069	6.11
747.381	4.88
747.694	4.02
748.007	7.09
748.319	7.71
748.632	6.25
748.944	7.7
749.256	8.58
749.569	5.56
749.881	5.59
750.193	5.91
750.505	6.69
750.817	6.46
751.129	9.04
751.441	5.36
751.753	7.67
752.065	7.86
752.377	7.08
752.689	7.27
753	5.22
753.312	6.7
753.624	7.7
753.935	4.07
754.247	8.69
754.558	8.78
754.869	6.72
755.181	7.24
755.492	7.67
755.803	8.68
756.114	7.15
756.425	6.61
756.736	5.35
757.047	7.6
757.358	5.42
757.669	7.65
757.98	6.14
758.291	7.41
758.601	5.71
758.912	5.74
759.223	8.04
759.533	8.88
759.844	6.22
760.154	6.99
760.464	7.69
760.775	9.56
761.085	5.8
761.395	8.19
761.705	7.57
762.016	8.32
762.326	7.65
762.636	7.31
762.945	6.63
763.255	8
763.565	5.79
763.875	8.55
764.185	6.43
764.494	6.4
764.804	6.07
765.113	7.53
765.423	8.01
765.732	7.89
766.042	7.47
766.351	6.67
766.66	6.88
766.97	6.61
767.279	7.55
767.588	7.14
767.897	8.15
768.206	6.82
768.515	6.68
768.824	6.87
769.133	6.34
769.441	5.9
769.75	5.43
770.059	5.34
770.367	6.16
770.676	4.88
770.984	6.81
771.293	4.46
771.601	6.35
771.91	5.2
772.218	3.98
772.526	7.45
772.834	9.39
773.142	6.38
773.45	4.73
773.758	6.65
774.066	4.33
774.374	2.67
774.682	6.05
774.99	4.92
775.298	4.85
775.605	6.02
775.913	5.96
776.22	7.97
776.528	6.06
776.835	8.31
777.143	4.88
777.45	5.71
777.757	3.52
778.065	8.48
778.372	6.03
778.679	6.98
778.986	6.23
779.293	5.24
779.6	3.86
779.907	4.47
780.214	4.8
780.52	10.34
780.827	6.52
781.134	8.61
781.44	5.98
781.747	5.43
782.053	4.86
782.36	7.4
782.666	7.63
782.973	3.65
783.279	8.6
783.585	7.19
783.891	8.03
784.197	2.43
784.503	7.15
784.809	8.59
785.115	1.32
785.421	7.28
785.727	5.44
786.033	6.73
786.339	7.93
786.644	5.34
786.95	7.14
787.255	6.33
787.561	7.98
787.866	5.34
788.172	8.38
788.477	10.95
788.782	3.46
789.088	6.89
789.393	6.27
789.698	2.68
790.003	3.42
790.308	4.8
790.613	7.07
790.918	10.89
791.223	9.85
791.527	6.44
791.832	6.53
792.137	5.52
792.441	9.21
792.746	8.54
793.05	6.05
793.355	10.13
793.659	7.89
793.963	8.02
794.268	6.74
794.572	12.1
794.876	7.92
795.18	3.02
795.484	5.15
795.788	7.24
796.092	6.34
796.396	4.48
796.7	5.72
797.004	6.6
797.307	6.77
797.611	6.03
797.915	6.75
798.218	5.79
798.522	3.26
798.825	5.78
799.128	6.75
799.432	3.58
799.735	6.87
800.038	4.84
800.341	3.71
800.644	5.22
800.947	7.43
801.25	7.01
801.553	7.31
801.856	6.72
802.159	4.4
802.462	3.33
802.764	8.21
803.067	1.09
803.37	8.86
803.672	4.73
803.975	6.38
804.277	7.92
804.579	6.47
804.882	2.93
805.184	0.48
805.486	4.13
805.788	6.4
806.09	1.83
806.392	4.01
806.694	9.39
806.996	7.09
807.298	4.5
807.6	2.85
807.902	4.84
808.203	3.76
808.505	3.78
808.807	9.94
809.108	6.5
809.409	11.89
809.711	6.13
810.012	0.49
810.313	10.13
810.615	-0.54
810.916	3.27
811.217	2.81
811.518	16.43
811.819	-0.87
812.12	8.58
812.421	4.61
812.722	-0.63
813.023	9.26
813.323	12.9
813.624	5.91
813.925	11.41
814.225	7.22
814.526	11.51
814.826	9.82
815.126	4.01
815.427	8.27
815.727	4.2
816.027	6.79
816.327	2.05
816.627	-0.32
816.927	3.97
817.227	-0.58
817.527	9.65
817.827	7.81
818.127	15.02
818.427	-2.67
818.727	2.51
819.026	7.6
819.326	7.64
819.625	1.54
819.925	12.61
820.224	5.82
820.524	8.4
820.823	0.1
821.122	9.33
821.421	10.22
821.72	5.34
822.019	6.14
822.318	6.84
822.617	4.32
822.916	8.03
823.215	8.98
823.514	7.17
823.813	8.57
824.111	8.53
824.41	7.73
824.709	10.42
825.007	9.91
825.306	9.39
825.604	10.9
825.902	9.59
826.201	8.79
826.499	8.16
826.797	7.99
827.095	6.94
827.393	7.27
827.691	9.6
827.989	10.5
828.287	9.6
828.585	5.8
828.882	6.62
829.18	7.38
829.478	6.47
829.775	10.33
830.073	9.44
830.37	8.45
830.668	6.97
830.965	4.3
831.263	6.95
831.56	8.03
831.857	7.7
832.154	7.82
832.451	8.93
832.748	6.05
833.045	13.55
833.342	2.91
833.639	6.38
833.936	5.13
834.232	6.16
834.529	5.02
834.826	6.99
835.122	7.38
835.419	6.62
835.715	5.09
836.012	8.98
836.308	12.79
836.604	9.14
836.901	11.87
837.197	8.02
837.493	10.89
837.789	8.02
838.085	5.85
838.381	6.39
838.677	2.39
838.972	2.34
839.268	-1.74
839.564	3.32
839.86	3.46
840.155	3.84
840.451	0.34
840.746	5.51
841.042	1.95
841.337	3.05
841.632	18.53
841.928	7.45
842.223	4.19
842.518	11.32
842.813	1.13
843.108	-2.64
843.403	14.24
843.698	-1.55
843.993	-0.15
844.287	2.1
844.582	1.52
844.877	16.89
845.171	13.83
845.466	2.61
845.761	-9.04
846.055	8.67
846.349	-15.2
846.644	-0.09
846.938	-13.42
847.232	-0.24
847.526	0.15
847.82	-15.76
848.114	-5.76
848.408	10.08
848.702	16.36
848.996	-3.99
849.29	-14.44
849.584	-20.01
849.877	11.78
850.171	17.16
850.465	-23.46
850.758	3.67
851.052	0.92
851.345	10.39
851.638	23.61
851.932	-22.29
852.225	4.22
852.518	4.33
852.811	-6.93
853.104	8.5
853.397	-12.87
853.69	5.24
853.983	-12.53
854.276	-15.49
854.569	1.21
854.861	-5.07
855.154	-5.86
855.447	9.83
855.739	-10.02
856.032	-40.18
856.324	2.36
856.616	22.94
856.909	5.83
857.201	4.81
857.493	-17.36
857.785	-25.21
858.077	-18.5
858.369	-22.29
858.661	1.55
858.953	-9.56
859.245	-18.02
859.537	26.63
859.829	-9.33
860.12	-5.89
860.412	-54.65
860.703	-4.04
860.995	-8.84
861.286	22.82
861.578	-34.25
861.869	15.54
862.16	-35.55
862.452	3.76
862.743	11.79
863.034	9.95
863.325	-19.72
863.616	1.9
863.907	-3.34
864.198	6.35
864.488	-9.53
864.779	-32.12
865.07	23.48
865.36	-26.68
865.651	-12.47
865.941	25.3
866.232	-7.58
866.522	3.03
866.813	13.26
867.103	-16.14
867.393	-8.09
867.683	9.56
867.973	-17.33
868.263	-10.8
868.553	14.01
868.843	-53.09
869.133	-3.8
869.423	14.9
869.713	-9.45
870.002	-24.73
870.292	-19.5
870.582	24.54
870.871	-6.81
871.161	-3.57
871.45	-9.23
871.739	-40.49
872.029	-23.47
872.318	-19.85
872.607	18.52
872.896	-42.08
873.185	12.72
873.474	-24.74
873.763	8.76
874.052	5.79
874.341	-131.31
874.63	-38.39
874.918	8.5
875.207	-25.9
875.496	-2.51
875.784	12.93
876.073	-17.61
876.361	-17.8
876.649	29.89
876.938	-13.04
877.226	-18.58
877.514	-17.52
877.802	-10.52
878.09	-50.47
878.378	2.22
878.666	-24.79
878.954	4.92
879.242	11.93
879.53	-33.67
879.817	10.23
880.105	-39.56
880.392	-2.99
880.68	4.02
880.967	2.41
881.255	-21.69
881.542	-8.49
881.83	4.2
882.117	-16.1
882.404	-34.6
882.691	-14.14
882.978	-10.77
883.265	17.11
883.552	1.34
883.839	8.4
884.126	-7.06
884.413	8.52
884.699	10.92
884.986	5.14
885.273	0.61
885.559	0.61
885.846	0.61
