Data from 0069_forehead_Reflection__3__312.txt Node

Date: Fri Dec 16 16:34:15 CST 2022
User: ToomeyLab
Spectrometer: FLMS14357
Trigger mode: 0
Integration Time (sec): 1.000000E-2
Scans to average: 100
Electric dark correction enabled: true
Nonlinearity correction enabled: false
Boxcar width: 0
XAxis mode: Wavelengths
Number of Pixels in Spectrum: 2048
>>>>>Begin Spectral Data<<<<<
189.047	160.17
189.435	160.17
189.823	160.17
190.211	271.31
190.599	128.18
190.987	199.31
191.375	67.09
191.763	157.9
192.151	-584.39
192.538	119.87
192.926	-128.15
193.314	67.32
193.702	-19.32
194.089	348.34
194.477	404.18
194.864	91.41
195.252	109.96
195.639	49.88
196.027	671.56
196.414	-0.58
196.801	704.94
197.189	64.48
197.576	-37.53
197.963	-39.25
198.351	31.67
198.738	-43.55
199.125	25.92
199.512	18.15
199.899	-26.71
200.286	-29.13
200.673	83.89
201.06	42.26
201.447	44.25
201.833	24.28
202.22	69.57
202.607	14.03
202.994	60.03
203.38	15.63
203.767	35.38
204.154	-22.59
204.54	25.45
204.927	39.86
205.313	45.56
205.699	25.55
206.086	33.45
206.472	14.78
206.858	26.19
207.245	36.79
207.631	52
208.017	22.39
208.403	23.67
208.789	4.11
209.175	39.13
209.561	30.53
209.947	-0.1
210.333	-9
210.719	21.98
211.105	40.39
211.491	48.37
211.876	-15.61
212.262	57.87
212.648	-32.12
213.034	2.74
213.419	35.17
213.805	18.73
214.19	2.41
214.576	3.42
214.961	-3.23
215.346	-40.7
215.732	21.67
216.117	6.83
216.502	-16.65
216.888	-4.01
217.273	18.9
217.658	-33.7
218.043	8.85
218.428	-3.52
218.813	24.12
219.198	-11.24
219.583	24.66
219.968	9.83
220.353	26.8
220.738	-8.73
221.122	41.53
221.507	-7.83
221.892	0.86
222.276	2.37
222.661	9.33
223.046	16.53
223.43	-15.54
223.815	17.63
224.199	17.28
224.583	9.91
224.968	18.61
225.352	10.93
225.736	3.25
226.121	7.74
226.505	14.92
226.889	14.85
227.273	7.18
227.657	5.59
228.041	9.24
228.425	8.08
228.809	4.31
229.193	2.67
229.577	5.44
229.961	5.13
230.344	5.26
230.728	5.64
231.112	5.87
231.495	5.39
231.879	4.37
232.263	2.5
232.646	4.18
233.03	2.94
233.413	3.25
233.797	7.81
234.18	5.24
234.563	6.22
234.946	6.61
235.33	5.89
235.713	4.6
236.096	5.5
236.479	5.67
236.862	6.57
237.245	8.25
237.628	4.29
238.011	5.48
238.394	6.35
238.777	5.66
239.16	3.89
239.543	3.8
239.925	6.03
240.308	5.89
240.691	5.95
241.073	4.78
241.456	4.99
241.838	4.15
242.221	5.9
242.603	5.08
242.986	5.71
243.368	5.02
243.75	4.68
244.133	4.82
244.515	4.65
244.897	4.34
245.279	4.68
245.661	5.74
246.043	4.98
246.425	4.95
246.807	5.23
247.189	5.22
247.571	4.87
247.953	4.67
248.335	4.93
248.717	4.91
249.098	4.83
249.48	4.38
249.862	5.16
250.243	5.03
250.625	4.52
251.006	4.49
251.388	5.85
251.769	5.72
252.151	4.72
252.532	5.3
252.913	5.94
253.295	5.11
253.676	4.74
254.057	4.87
254.438	5.11
254.819	5.41
255.2	5.48
255.581	4.87
255.962	4.78
256.343	5.87
256.724	4.48
257.105	5.02
257.486	5.3
257.867	4.56
258.247	4.48
258.628	5.94
259.009	4.7
259.389	5.45
259.77	5.15
260.15	5.79
260.531	4.55
260.911	4.97
261.292	4.7
261.672	4.31
262.052	4.74
262.432	4.68
262.813	5.09
263.193	4.79
263.573	5.02
263.953	4.14
264.333	4.74
264.713	4.91
265.093	4.1
265.473	5.47
265.853	5.55
266.233	4.83
266.612	5.17
266.992	4.58
267.372	4.56
267.752	4.95
268.131	4.71
268.511	4.76
268.89	4.93
269.27	4.9
269.649	4.92
270.029	5.25
270.408	4.12
270.787	5.05
271.167	4.42
271.546	4.45
271.925	4.95
272.304	4.36
272.683	4.72
273.062	4.99
273.441	4.33
273.82	4.91
274.199	4.79
274.578	4.62
274.957	4.83
275.336	4.56
275.715	4.94
276.093	5.29
276.472	5.23
276.851	4.98
277.229	5.27
277.608	4.63
277.986	4.42
278.365	4.61
278.743	4.29
279.122	4.15
279.5	4.65
279.878	3.75
280.257	4.91
280.635	3.43
281.013	4.36
281.391	4.41
281.769	4.78
282.147	4.71
282.525	4.45
282.903	4.85
283.281	4.76
283.659	4.83
284.037	4.83
284.415	5.36
284.792	5.03
285.17	3.99
285.548	4.75
285.925	4.64
286.303	4.63
286.68	4.97
287.058	4.68
287.435	4.62
287.813	4.71
288.19	4.98
288.567	4.09
288.945	4.17
289.322	4.46
289.699	4.81
290.076	4.89
290.453	4.57
290.83	5.24
291.207	4.51
291.584	4.44
291.961	5.08
292.338	4.81
292.715	5.05
293.092	4.7
293.469	5.09
293.845	4.99
294.222	5.25
294.599	5.79
294.975	4.87
295.352	4.72
295.728	5.02
296.105	5.19
296.481	5.65
296.858	5.12
297.234	5.28
297.61	5.44
297.986	5.37
298.363	4.79
298.739	5.22
299.115	4.9
299.491	5.14
299.867	5.3
300.243	5.29
300.619	5.13
300.995	5.81
301.371	5.69
301.746	5.27
302.122	5.91
302.498	5.43
302.874	6.06
303.249	5.85
303.625	5.8
304	5.15
304.376	5.71
304.751	5.73
305.127	6.02
305.502	6.27
305.878	5.6
306.253	6
306.628	6.32
307.003	6.21
307.378	6.3
307.754	6.4
308.129	5.85
308.504	6.06
308.879	6.38
309.254	6.6
309.629	5.98
310.003	6.83
310.378	6.68
310.753	6.38
311.128	6.59
311.502	6.37
311.877	6.56
312.252	6.51
312.626	6.46
313.001	6.62
313.375	6.66
313.75	6.71
314.124	7.18
314.498	6.7
314.873	6.87
315.247	6.4
315.621	7.31
315.995	7.2
316.369	7.27
316.743	7.09
317.117	6.97
317.491	7.43
317.865	6.4
318.239	7.45
318.613	7.35
318.987	8.17
319.361	7.53
319.734	7.53
320.108	7.98
320.482	7.28
320.855	8.08
321.229	8.41
321.602	7.77
321.976	7.27
322.349	6.79
322.723	7.69
323.096	7.27
323.469	7.64
323.843	7.71
324.216	7.51
324.589	8.51
324.962	8.01
325.335	8.02
325.708	8.25
326.081	8.32
326.454	7.69
326.827	8.66
327.2	8.6
327.573	8.7
327.945	8.6
328.318	8.88
328.691	8.41
329.063	7.77
329.436	8.55
329.809	8.03
330.181	8.45
330.553	8.73
330.926	8.68
331.298	8.8
331.671	8.87
332.043	8.74
332.415	9.25
332.787	9.48
333.159	9.3
333.532	8.91
333.904	9.15
334.276	9.12
334.648	8.89
335.02	8.85
335.391	9.24
335.763	8.97
336.135	9.73
336.507	9.25
336.879	8.97
337.25	9.34
337.622	9.55
337.993	9.81
338.365	9.47
338.736	9.43
339.108	9.25
339.479	9.53
339.851	10.25
340.222	9.73
340.593	9.91
340.964	9.69
341.336	9.29
341.707	9.78
342.078	9.81
342.449	10.32
342.82	10.2
343.191	9.88
343.562	10.09
343.933	9.85
344.303	10.43
344.674	10.71
345.045	10.47
345.416	10.55
345.786	10.27
346.157	10.33
346.527	9.95
346.898	10.61
347.268	10.61
347.639	10.35
348.009	11.04
348.38	10.56
348.75	10.67
349.12	10.85
349.49	10.53
349.861	11.41
350.231	11.09
350.601	11.2
350.971	11.05
351.341	11.16
351.711	11.24
352.081	11.49
352.45	11.42
352.82	11.2
353.19	11.33
353.56	11.09
353.929	11.28
354.299	11.41
354.669	11.73
355.038	11.6
355.408	11.71
355.777	11.49
356.147	11.35
356.516	11.92
356.885	12.01
357.254	12.2
357.624	11.91
357.993	11.94
358.362	12.08
358.731	12.14
359.1	12.12
359.469	12.15
359.838	11.7
360.207	12.17
360.576	12.04
360.945	12.34
361.314	12.34
361.682	12.28
362.051	12.32
362.42	12.33
362.788	12.73
363.157	12.29
363.525	12.29
363.894	12.53
364.262	12.49
364.631	13.25
364.999	12.68
365.367	13.15
365.735	12.79
366.104	12.77
366.472	12.79
366.84	12.92
367.208	12.83
367.576	13.21
367.944	13.76
368.312	13.24
368.68	13.46
369.048	13.67
369.416	13.38
369.783	13.33
370.151	13.68
370.519	13.52
370.886	13.67
371.254	14.07
371.621	14.06
371.989	13.88
372.356	13.7
372.724	14.32
373.091	14.45
373.458	13.89
373.826	13.71
374.193	14.3
374.56	14.08
374.927	14.05
375.294	14.14
375.661	14.81
376.028	14.8
376.395	14.56
376.762	14.48
377.129	14.94
377.496	14.55
377.863	14.74
378.229	14.76
378.596	14.69
378.963	15.03
379.329	14.9
379.696	14.8
380.062	14.94
380.429	15.17
380.795	14.99
381.161	15.24
381.528	15.06
381.894	15.38
382.26	15.17
382.626	15.16
382.993	15.23
383.359	15.56
383.725	15.61
384.091	15.85
384.457	15.71
384.823	16
385.188	16.04
385.554	15.69
385.92	16.12
386.286	16.29
386.651	15.91
387.017	16.29
387.383	16.46
387.748	16.06
388.114	16.29
388.479	16.59
388.845	16.7
389.21	16.37
389.575	16.43
389.94	16.49
390.306	16.75
390.671	16.88
391.036	16.72
391.401	17.04
391.766	16.85
392.131	16.86
392.496	17.02
392.861	17.22
393.226	16.99
393.591	17.09
393.956	17.18
394.32	17.21
394.685	17.39
395.05	17.29
395.414	17.5
395.779	17.17
396.143	17.52
396.508	17.57
396.872	17.71
397.236	17.06
397.601	17.83
397.965	17.6
398.329	18.04
398.694	17.78
399.058	17.96
399.422	18.33
399.786	18.11
400.15	18.01
400.514	18.2
400.878	18.22
401.242	18.3
401.605	18.5
401.969	18.43
402.333	18.48
402.697	18.65
403.06	18.41
403.424	18.42
403.787	18.75
404.151	18.46
404.514	18.78
404.878	19.15
405.241	18.92
405.604	18.85
405.968	18.77
406.331	19.17
406.694	18.79
407.057	19.16
407.42	19.09
407.783	18.94
408.146	19.09
408.509	19.06
408.872	19.33
409.235	19.56
409.598	19.36
409.961	19.53
410.323	19.56
410.686	19.9
411.049	19.86
411.411	19.88
411.774	19.76
412.136	19.8
412.499	19.95
412.861	19.97
413.223	20.19
413.586	20.18
413.948	20.38
414.31	20.26
414.672	20.38
415.035	20.53
415.397	20.42
415.759	20.18
416.121	20.7
416.483	20.59
416.845	20.58
417.206	20.73
417.568	20.7
417.93	20.75
418.292	20.87
418.653	20.89
419.015	20.85
419.377	20.95
419.738	20.61
420.1	20.86
420.461	20.86
420.822	20.85
421.184	20.81
421.545	20.9
421.906	21.13
422.267	20.97
422.629	21.04
422.99	20.95
423.351	21.18
423.712	21.33
424.073	21.42
424.434	21.24
424.795	21.43
425.155	21.45
425.516	21.32
425.877	21.37
426.238	21.46
426.598	21.64
426.959	21.62
427.32	21.72
427.68	21.95
428.041	21.97
428.401	22.15
428.761	22.05
429.122	22.1
429.482	22.17
429.842	22.64
430.202	22.33
430.563	22.77
430.923	22.58
431.283	22.62
431.643	22.79
432.003	22.95
432.363	22.86
432.722	22.91
433.082	23.02
433.442	23.16
433.802	23.18
434.161	23.14
434.521	23.23
434.881	23.22
435.24	23.12
435.6	23.35
435.959	23.34
436.319	23.21
436.678	23.39
437.037	23.64
437.396	23.56
437.756	23.56
438.115	23.68
438.474	23.81
438.833	24.1
439.192	24.06
439.551	23.92
439.91	24.03
440.269	23.92
440.628	24.16
440.987	24.05
441.345	24.08
441.704	24.01
442.063	24.11
442.421	24.14
442.78	24.23
443.138	24.11
443.497	24.23
443.855	24.18
444.214	24.65
444.572	24.48
444.93	24.68
445.288	24.57
445.647	24.95
446.005	24.67
446.363	24.83
446.721	24.85
447.079	24.88
447.437	24.79
447.795	24.7
448.153	24.83
448.51	24.79
448.868	24.96
449.226	25.08
449.584	25.04
449.941	25.38
450.299	25.09
450.656	25.43
451.014	25.56
451.371	25.69
451.729	25.71
452.086	25.73
452.443	25.87
452.801	26.14
453.158	26.16
453.515	26.04
453.872	26.31
454.229	26.14
454.586	26.22
454.943	26.18
455.3	26.31
455.657	26.26
456.014	26.66
456.371	26.64
456.727	26.54
457.084	26.42
457.441	26.63
457.797	26.64
458.154	26.76
458.51	26.85
458.867	27.07
459.223	27.06
459.58	27.09
459.936	26.95
460.292	27.07
460.648	26.8
461.005	26.82
461.361	26.91
461.717	26.69
462.073	26.86
462.429	26.88
462.785	27.11
463.141	27.46
463.496	27.44
463.852	27.48
464.208	27.77
464.564	27.64
464.919	27.9
465.275	27.91
465.631	27.89
465.986	28.01
466.342	28.24
466.697	28.18
467.052	28.23
467.408	28.3
467.763	28.41
468.118	28.43
468.473	28.49
468.829	28.2
469.184	28.4
469.539	28.43
469.894	28.66
470.249	28.39
470.603	28.83
470.958	28.91
471.313	28.86
471.668	29.03
472.023	29
472.377	29.14
472.732	29.03
473.086	29.07
473.441	29.22
473.795	29.29
474.15	29.15
474.504	29.24
474.859	29.37
475.213	29.3
475.567	29.4
475.921	29.53
476.275	29.69
476.63	29.76
476.984	30.02
477.338	30.07
477.692	29.89
478.045	29.83
478.399	30.13
478.753	29.78
479.107	30.09
479.461	29.93
479.814	30.01
480.168	29.99
480.521	29.91
480.875	30.27
481.228	30.19
481.582	30.16
481.935	30.24
482.289	30.2
482.642	30.46
482.995	30.25
483.348	30.31
483.701	30.28
484.055	30.04
484.408	29.94
484.761	29.81
485.114	29.75
485.466	29.68
485.819	29.52
486.172	29.45
486.525	29.49
486.878	29.7
487.23	29.91
487.583	30.38
487.936	30.53
488.288	30.3
488.641	30.39
488.993	30.24
489.345	30.2
489.698	30.25
490.05	30.3
490.402	30.45
490.754	30.64
491.107	30.99
491.459	31.08
491.811	31.29
492.163	31.22
492.515	31.29
492.866	31.04
493.218	30.9
493.57	30.93
493.922	31.02
494.274	31.28
494.625	31.34
494.977	31.73
495.328	32.07
495.68	32.3
496.031	32.51
496.383	32.26
496.734	32.61
497.086	32.54
497.437	32.56
497.788	32.83
498.139	32.5
498.49	32.51
498.842	32.46
499.193	32.71
499.544	32.73
499.894	32.78
500.245	32.85
500.596	32.98
500.947	32.99
501.298	33.04
501.648	33.12
501.999	33.28
502.35	33.56
502.7	33.49
503.051	33.49
503.401	33.57
503.752	33.67
504.102	33.76
504.452	33.9
504.803	33.73
505.153	33.9
505.503	33.83
505.853	34.09
506.203	33.9
506.553	34.03
506.903	34.22
507.253	34.11
507.603	34.16
507.953	34.42
508.303	34.18
508.652	34.6
509.002	34.71
509.352	34.27
509.701	34.32
510.051	34.42
510.4	34.48
510.75	34.37
511.099	34.37
511.449	34.54
511.798	34.61
512.147	34.78
512.496	34.71
512.846	34.9
513.195	34.89
513.544	34.83
513.893	34.72
514.242	34.98
514.591	34.88
514.939	35.16
515.288	35.24
515.637	35.33
515.986	35.49
516.334	35.53
516.683	35.66
517.032	35.63
517.38	35.75
517.729	35.71
518.077	35.83
518.426	35.92
518.774	35.8
519.122	35.76
519.47	35.52
519.819	35.77
520.167	35.46
520.515	35.59
520.863	35.48
521.211	35.68
521.559	35.82
521.907	35.87
522.255	36.06
522.602	36.16
522.95	36.24
523.298	36.51
523.645	36.43
523.993	36.7
524.341	36.65
524.688	36.84
525.036	36.77
525.383	36.83
525.73	36.96
526.078	36.66
526.425	36.73
526.772	36.53
527.119	36.41
527.466	36.45
527.814	36.2
528.161	36.53
528.508	36.46
528.854	36.49
529.201	36.6
529.548	36.44
529.895	36.33
530.242	36.41
530.588	36.37
530.935	36.03
531.282	36.16
531.628	36.34
531.975	36.61
532.321	36.98
532.667	37.08
533.014	37.14
533.36	37.26
533.706	37.45
534.052	37.29
534.399	37.27
534.745	37.23
535.091	37.25
535.437	37.14
535.783	37.21
536.129	37.42
536.474	37.7
536.82	37.81
537.166	38.02
537.512	38.07
537.857	38.05
538.203	37.98
538.549	37.9
538.894	37.98
539.239	38.25
539.585	38.2
539.93	38.46
540.276	38.67
540.621	38.79
540.966	38.84
541.311	39.05
541.656	38.82
542.001	38.49
542.346	38.67
542.691	38.39
543.036	38.32
543.381	38.32
543.726	38.11
544.071	38.47
544.415	38.63
544.76	38.65
545.105	38.73
545.449	38.97
545.794	38.85
546.138	39.28
546.483	39.39
546.827	39.52
547.171	39.66
547.516	39.55
547.86	39.69
548.204	39.68
548.548	39.55
548.892	39.85
549.236	39.68
549.58	39.8
549.924	39.87
550.268	40.3
550.612	40.22
550.956	40.49
551.3	40.55
551.643	40.56
551.987	40.75
552.33	40.73
552.674	40.71
553.017	40.97
553.361	41.06
553.704	41.07
554.048	40.92
554.391	40.89
554.734	41.1
555.077	41.02
555.42	41.17
555.764	41.03
556.107	41.1
556.45	41.38
556.793	41.52
557.135	41.72
557.478	41.53
557.821	41.7
558.164	41.87
558.507	41.8
558.849	41.85
559.192	41.86
559.534	41.85
559.877	41.95
560.219	42.12
560.562	42.32
560.904	42.16
561.246	42.28
561.589	42.48
561.931	42.28
562.273	42.41
562.615	42.45
562.957	42.4
563.299	42.29
563.641	42.28
563.983	42.51
564.325	42.54
564.667	42.69
565.008	42.73
565.35	42.95
565.692	42.76
566.033	42.99
566.375	42.68
566.716	42.9
567.058	42.82
567.399	42.8
567.741	42.59
568.082	42.68
568.423	42.75
568.764	42.96
569.105	43
569.447	43.15
569.788	43
570.129	42.96
570.47	43.38
570.811	43.41
571.151	43.47
571.492	43.55
571.833	43.51
572.174	43.63
572.514	43.62
572.855	43.54
573.195	43.6
573.536	43.44
573.876	43.59
574.217	43.62
574.557	43.67
574.898	43.65
575.238	43.44
575.578	43.94
575.918	43.83
576.258	44.15
576.598	44.13
576.938	43.98
577.278	44.01
577.618	44.22
577.958	44.12
578.298	44.22
578.638	44.14
578.977	44.39
579.317	44.51
579.657	44.58
579.996	44.59
580.336	44.63
580.675	44.73
581.014	45.05
581.354	45.13
581.693	44.95
582.032	45.27
582.372	45.09
582.711	45.03
583.05	45.45
583.389	45
583.728	45.34
584.067	45.28
584.406	45.26
584.745	45.47
585.083	45.67
585.422	45.47
585.761	45.68
586.1	45.58
586.438	45.81
586.777	45.65
587.115	45.73
587.454	45.67
587.792	45.82
588.13	46.02
588.469	45.76
588.807	46.04
589.145	46.29
589.483	45.9
589.821	45.94
590.159	46.03
590.497	46.05
590.835	45.91
591.173	46.06
591.511	46.39
591.849	46.36
592.187	45.83
592.524	46.25
592.862	46.65
593.2	46.47
593.537	46.57
593.875	46.5
594.212	46.41
594.55	46.49
594.887	46.98
595.224	46.79
595.561	46.88
595.899	46.74
596.236	47.09
596.573	46.67
596.91	46.69
597.247	46.7
597.584	46.99
597.921	46.71
598.258	46.94
598.594	46.69
598.931	46.76
599.268	46.85
599.604	46.73
599.941	46.92
600.277	46.99
600.614	47.03
600.95	47.14
601.287	47.57
601.623	47.59
601.959	47.42
602.296	47.59
602.632	47.83
602.968	47.72
603.304	47.89
603.64	47.61
603.976	47.75
604.312	47.71
604.648	47.93
604.984	47.65
605.319	47.57
605.655	47.74
605.991	47.69
606.326	47.82
606.662	47.54
606.998	47.54
607.333	47.65
607.668	47.7
608.004	47.69
608.339	47.82
608.674	47.96
609.01	48.43
609.345	48.64
609.68	48.34
610.015	48.71
610.35	48.41
610.685	48.52
611.02	48.56
611.355	48.12
611.689	48.2
612.024	48.38
612.359	48.55
612.694	48.48
613.028	48.46
613.363	48.77
613.697	48.83
614.032	49.21
614.366	48.98
614.7	49.18
615.035	48.58
615.369	49.2
615.703	49.63
616.037	49.5
616.371	49.25
616.705	49.24
617.039	49.41
617.373	49.2
617.707	49.22
618.041	49.14
618.375	49.82
618.709	49.64
619.042	49.69
619.376	49.36
619.71	50
620.043	49.85
620.377	49.52
620.71	50.01
621.043	49.65
621.377	49.66
621.71	49.82
622.043	49.67
622.376	49.64
622.709	49.62
623.043	49.44
623.376	50.26
623.709	50.27
624.041	50.03
624.374	49.73
624.707	50.36
625.04	50.62
625.373	50.19
625.705	50.37
626.038	50.58
626.37	50.95
626.703	50.16
627.035	50.6
627.368	50.82
627.7	50.74
628.032	50.69
628.365	50.59
628.697	50.44
629.029	50.92
629.361	50.84
629.693	50.8
630.025	50.48
630.357	50.78
630.689	51.03
631.021	50.98
631.353	51.06
631.684	51.19
632.016	50.64
632.348	51.11
632.679	51.22
633.011	51.26
633.342	51
633.674	51.24
634.005	51.12
634.336	51.58
634.668	51.12
634.999	51.52
635.33	51.53
635.661	51.6
635.992	51.15
636.323	51.66
636.654	51.27
636.985	51.48
637.316	51.47
637.647	51.43
637.977	52.14
638.308	51.71
638.639	51.65
638.969	51.77
639.3	51.93
639.63	51.3
639.961	51.64
640.291	52.06
640.622	52.38
640.952	52.55
641.282	51.97
641.612	52.47
641.943	52.73
642.273	51.92
642.603	52.12
642.933	52.68
643.263	52.33
643.592	52.19
643.922	52.7
644.252	52.24
644.582	52.1
644.911	52.37
645.241	52.6
645.571	52.52
645.9	52.3
646.23	52.64
646.559	52.89
646.888	52.79
647.218	52.21
647.547	53.79
647.876	52.47
648.205	52.49
648.534	53.16
648.863	53.18
649.192	52.72
649.521	53.19
649.85	52.97
650.179	52.6
650.508	53.27
650.837	53.31
651.165	52.98
651.494	53.3
651.822	52.8
652.151	53.52
652.479	53.64
652.808	53.41
653.136	52.96
653.465	53.72
653.793	53.6
654.121	53.75
654.449	53.04
654.777	54.1
655.105	53.66
655.433	54
655.761	53.45
656.089	53.87
656.417	53.35
656.745	53.39
657.073	54.38
657.4	53.25
657.728	53.39
658.056	53.32
658.383	53.73
658.711	53.64
659.038	53.72
659.365	53.76
659.693	53.63
660.02	53.81
660.347	54.45
660.674	54.36
661.001	53.95
661.329	53.69
661.656	54.15
661.982	53.8
662.309	53.78
662.636	53.93
662.963	54.23
663.29	54.39
663.616	53.99
663.943	54.32
664.27	54.45
664.596	54.31
664.923	54.34
665.249	54.6
665.576	54.92
665.902	54.49
666.228	53.8
666.554	54.46
666.881	55.15
667.207	54.3
667.533	54.56
667.859	54.74
668.185	54.47
668.511	53.84
668.837	54.09
669.162	54.38
669.488	55.12
669.814	55.43
670.139	54.82
670.465	54.44
670.791	54.58
671.116	55.02
671.442	54.6
671.767	54.5
672.092	55.06
672.418	54.66
672.743	55.14
673.068	54.69
673.393	55.64
673.718	54.8
674.043	55.86
674.368	55.64
674.693	54.93
675.018	56.05
675.343	55.47
675.667	55.48
675.992	55.5
676.317	55.71
676.641	55.95
676.966	55.39
677.29	55.87
677.615	55.96
677.939	55.75
678.264	56.24
678.588	55.62
678.912	56.36
679.236	56.02
679.56	55.59
679.885	54.8
680.209	56.16
680.532	54.71
680.856	56.01
681.18	56.15
681.504	55.46
681.828	56.34
682.152	55.88
682.475	56.79
682.799	55.93
683.122	56.05
683.446	55.79
683.769	56.53
684.093	55.88
684.416	56.52
684.739	56.87
685.062	56.34
685.386	57.09
685.709	56.6
686.032	56.86
686.355	55.91
686.678	57.32
687.001	55.32
687.324	55.82
687.646	56.79
687.969	56.54
688.292	55.96
688.614	56.55
688.937	56.28
689.26	57
689.582	55.86
689.904	56.57
690.227	57.16
690.549	56.7
690.871	56.55
691.194	56.06
691.516	56.28
691.838	56.88
692.16	57.14
692.482	57.36
692.804	56.77
693.126	56.48
693.448	57.16
693.769	55.86
694.091	56.17
694.413	56.27
694.735	56.56
695.056	57.17
695.378	57.34
695.699	57.79
696.021	57.44
696.342	58.15
696.663	57.38
696.984	57.4
697.306	57.78
697.627	57.65
697.948	56.42
698.269	56.62
698.59	57.78
698.911	57.11
699.232	58.05
699.553	57.49
699.873	57.23
700.194	56.96
700.515	57.4
700.835	57.89
701.156	57.73
701.477	57.89
701.797	57.36
702.117	57.45
702.438	58.01
702.758	57.95
703.078	56.1
703.398	57.05
703.719	57.72
704.039	57.47
704.359	59.26
704.679	58.65
704.999	57.59
705.319	57.64
705.638	59.14
705.958	57.61
706.278	57.88
706.597	58.75
706.917	57.42
707.237	57.69
707.556	57.18
707.876	57.82
708.195	58.92
708.514	58.89
708.834	58.87
709.153	59.13
709.472	58.26
709.791	57.68
710.11	57.7
710.429	56.72
710.748	57.99
711.067	58.58
711.386	58.93
711.705	58.95
712.023	57.89
712.342	57.93
712.661	58.19
712.979	58.49
713.298	59.01
713.616	58.68
713.935	59.44
714.253	59.39
714.572	58.92
714.89	59.56
715.208	59.1
715.526	58.54
715.844	58.95
716.162	59.37
716.48	58.67
716.798	58.34
717.116	58.29
717.434	59.42
717.752	59.07
718.069	58.39
718.387	57.84
718.705	58.84
719.022	59.73
719.34	59.14
719.657	59.38
719.975	59.32
720.292	57.41
720.609	58.06
720.927	59.82
721.244	59.53
721.561	59.83
721.878	60.13
722.195	58.38
722.512	58.63
722.829	60.01
723.146	57.86
723.463	59.14
723.779	57.81
724.096	58.24
724.413	59.29
724.729	58.81
725.046	58.82
725.362	58.97
725.679	59.23
725.995	59.28
726.311	58.13
726.628	59.83
726.944	59.46
727.26	60.14
727.576	59.57
727.892	59.68
728.208	59.61
728.524	60.15
728.84	60.7
729.156	60.36
729.472	60
729.787	60.99
730.103	59.6
730.419	59.41
730.734	58.7
731.05	60.98
731.365	60
731.681	60.2
731.996	59.51
732.311	60.1
732.626	60.91
732.942	59.74
733.257	60.24
733.572	61.04
733.887	61.81
734.202	59.78
734.517	59.7
734.832	58.83
735.146	59.56
735.461	60.67
735.776	60.86
736.091	60.53
736.405	61.26
736.72	60.6
737.034	60.13
737.349	59.64
737.663	60.4
737.977	60.24
738.292	61.31
738.606	60.87
738.92	61.8
739.234	60.11
739.548	60.9
739.862	59.93
740.176	59.92
740.49	60.07
740.804	60.42
741.117	61.09
741.431	59.39
741.745	59.36
742.058	59.28
742.372	59.42
742.685	61.58
742.999	59.89
743.312	60.42
743.626	60.48
743.939	62.55
744.252	60.64
744.565	60.49
744.878	59.71
745.191	61.23
745.505	58.06
745.817	59.67
746.13	60.33
746.443	60.84
746.756	60.03
747.069	58.21
747.381	59.09
747.694	61.64
748.007	58.93
748.319	62.33
748.632	61.99
748.944	58.8
749.256	61.69
749.569	61.28
749.881	60.84
750.193	62.41
750.505	61.94
750.817	62.29
751.129	63.3
751.441	60.77
751.753	61.6
752.065	62.48
752.377	58.48
752.689	61.8
753	60.52
753.312	62.18
753.624	62.46
753.935	61.23
754.247	63.8
754.558	63.02
754.869	62.13
755.181	61.88
755.492	59.62
755.803	59.43
756.114	62.43
756.425	61.59
756.736	61.21
757.047	61.75
757.358	60.98
757.669	62.21
757.98	61.88
758.291	60.63
758.601	59.44
758.912	59.3
759.223	62.75
759.533	61.54
759.844	61.91
760.154	62.49
760.464	61.02
760.775	62.25
761.085	61.41
761.395	62.18
761.705	60.2
762.016	61.32
762.326	62.02
762.636	62.36
762.945	62.38
763.255	61.78
763.565	62.21
763.875	62.42
764.185	62.32
764.494	63.47
764.804	63.44
765.113	63.6
765.423	62.64
765.732	63.6
766.042	63.94
766.351	62.1
766.66	61.09
766.97	62.72
767.279	62.26
767.588	61.19
767.897	62.66
768.206	62.31
768.515	61.1
768.824	61.63
769.133	62.44
769.441	62.05
769.75	61.66
770.059	61.32
770.367	61.89
770.676	61.05
770.984	62.34
771.293	62.14
771.601	60.23
771.91	58.58
772.218	62.41
772.526	63.16
772.834	65.2
773.142	61.23
773.45	61.02
773.758	60.75
774.066	60.85
774.374	59.89
774.682	61.92
774.99	59.4
775.298	64.88
775.605	61.06
775.913	61.17
776.22	59.23
776.528	62.33
776.835	64.6
777.143	63.35
777.45	61.69
777.757	62.62
778.065	65.88
778.372	63.04
778.679	61.22
778.986	62.83
779.293	62.41
779.6	64.21
779.907	63.94
780.214	62.15
780.52	60.88
780.827	61.97
781.134	62.45
781.44	63.37
781.747	64.22
782.053	61.28
782.36	64.16
782.666	61.73
782.973	62.87
783.279	63.59
783.585	61.87
783.891	63.29
784.197	58.08
784.503	65.18
784.809	62.56
785.115	60.58
785.421	70.03
785.727	62.97
786.033	63.95
786.339	63.01
786.644	63.3
786.95	62.52
787.255	63.48
787.561	62.72
787.866	59.45
788.172	63.05
788.477	64.25
788.782	61.75
789.088	64.85
789.393	68.42
789.698	64.8
790.003	59.85
790.308	60.17
790.613	64.53
790.918	64.86
791.223	62.02
791.527	65.43
791.832	59.5
792.137	62.31
792.441	65.19
792.746	63.47
793.05	64.49
793.355	61.64
793.659	63.76
793.963	59.62
794.268	59.59
794.572	67.67
794.876	60.78
795.18	59.98
795.484	61.89
795.788	62.45
796.092	66.15
796.396	62.91
796.7	62.37
797.004	60.38
797.307	63.56
797.611	66
797.915	56.62
798.218	63
798.522	57.24
798.825	64.11
799.128	60.97
799.432	65.72
799.735	64.68
800.038	63.38
800.341	61.85
800.644	61.21
800.947	61.9
801.25	60.78
801.553	65.49
801.856	59.96
802.159	62.77
802.462	67.35
802.764	67.59
803.067	63.18
803.37	57.52
803.672	61.82
803.975	59.65
804.277	64.22
804.579	64.52
804.882	63.34
805.184	65.99
805.486	60.82
805.788	63.41
806.09	60.65
806.392	63.87
806.694	63.45
806.996	63.33
807.298	61.46
807.6	66.17
807.902	68.07
808.203	65.88
808.505	61.53
808.807	60.81
809.108	68.68
809.409	66.43
809.711	62.58
810.012	63.3
810.313	66.36
810.615	61.94
810.916	61.27
811.217	67.03
811.518	64.24
811.819	64.78
812.12	63.8
812.421	61.19
812.722	61.26
813.023	64.67
813.323	65.1
813.624	61.72
813.925	63.04
814.225	66.72
814.526	66.01
814.826	64.19
815.126	62.95
815.427	69.19
815.727	57.26
816.027	67.27
816.327	65.71
816.627	66.04
816.927	63.59
817.227	61.63
817.527	60.98
817.827	69.29
818.127	62.49
818.427	65.88
818.727	63.18
819.026	69.59
819.326	60.23
819.625	58.62
819.925	66.18
820.224	62.88
820.524	64.26
820.823	68.12
821.122	62.75
821.421	60.98
821.72	67.37
822.019	65.94
822.318	62.14
822.617	66.71
822.916	65.03
823.215	65.98
823.514	63.29
823.813	64.69
824.111	63.86
824.41	65.4
824.709	65.28
825.007	65.14
825.306	64.9
825.604	65.39
825.902	64.91
826.201	63.87
826.499	63.38
826.797	63.89
827.095	63.05
827.393	63.26
827.691	64.65
827.989	64.35
828.287	63.61
828.585	62.97
828.882	64.85
829.18	63.88
829.478	64.31
829.775	66.42
830.073	63.25
830.37	64
830.668	66.4
830.965	64.33
831.263	62.47
831.56	64.7
831.857	65.11
832.154	62.63
832.451	62.43
832.748	62.02
833.045	63.73
833.342	69.77
833.639	65.82
833.936	62.81
834.232	61.75
834.529	66.29
834.826	69.3
835.122	60.63
835.419	62.78
835.715	62.99
836.012	68.45
836.308	64.37
836.604	65
836.901	69.55
837.197	63.18
837.493	63.76
837.789	64.8
838.085	59.22
838.381	60.13
838.677	64.62
838.972	63.12
839.268	64.56
839.564	69.12
839.86	60.69
840.155	61.4
840.451	69.83
840.746	62.04
841.042	63.37
841.337	71.31
841.632	62.28
841.928	67.62
842.223	64.15
842.518	68.2
842.813	65.89
843.108	62.4
843.403	70.82
843.698	62.26
843.993	69.91
844.287	57.17
844.582	56.93
844.877	68.65
845.171	62.98
845.466	68.76
845.761	75.03
846.055	58.64
846.349	61.76
846.644	66.02
846.938	63.15
847.232	63.41
847.526	66.59
847.82	54.42
848.114	86.19
848.408	62.63
848.702	79.04
848.996	68.17
849.29	72.81
849.584	68.35
849.877	65.31
850.171	63.47
850.465	53.53
850.758	70.9
851.052	54.43
851.345	66.6
851.638	70.21
851.932	49.84
852.225	65.61
852.518	62.68
852.811	49.43
853.104	68.56
853.397	72.72
853.69	56.22
853.983	48.77
854.276	41.44
854.569	41.04
854.861	48.32
855.154	63.42
855.447	58.46
855.739	60.54
856.032	65.6
856.324	61.94
856.616	77.2
856.909	73.79
857.201	66.75
857.493	75.23
857.785	63.78
858.077	65.06
858.369	59.13
858.661	80.67
858.953	67.57
859.245	60.22
859.537	73.49
859.829	89.95
860.12	55.86
860.412	15.33
860.703	52.54
860.995	74.28
861.286	66.16
861.578	32.4
861.869	79.34
862.16	64.37
862.452	44.19
862.743	59.34
863.034	87.61
863.325	56.07
863.616	65.58
863.907	71.5
864.198	74.25
864.488	41.88
864.779	90.58
865.07	70.32
865.36	83.7
865.651	77.82
865.941	81.3
866.232	75.43
866.522	69.48
866.813	73.97
867.103	38.67
867.393	36.22
867.683	65.71
867.973	90.85
868.263	61.5
868.553	60.45
868.843	14.36
869.133	43.8
869.423	65.67
869.713	54.73
870.002	41.02
870.292	23.36
870.582	53.62
870.871	60.58
871.161	51.45
871.45	76.41
871.739	40.79
872.029	55.27
872.318	33.94
872.607	50.26
872.896	59.19
873.185	60.8
873.474	82.11
873.763	44.38
874.052	62.7
874.341	90.28
874.63	72.24
874.918	51.97
875.207	40.05
875.496	67.05
875.784	82.72
876.073	48.7
876.361	35.94
876.649	63.72
876.938	54.68
877.226	46.07
877.514	44.97
877.802	77.45
878.09	85.53
878.378	29.76
878.666	63.58
878.954	50.95
879.242	104.25
879.53	34.32
879.817	82.11
880.105	72.42
880.392	55.62
880.68	74.03
880.967	62.68
881.255	74.15
881.542	81.44
881.83	50.98
882.117	69.38
882.404	33.95
882.691	53.69
882.978	62.36
883.265	70.77
883.552	63.64
883.839	62.49
884.126	62.11
884.413	81.01
884.699	66.63
884.986	63.3
885.273	68.99
885.559	68.99
885.846	68.99
