Data from 0150_chest_Reflection__3__84.txt Node

Date: Fri Sep 22 20:58:23 CDT 2023
User: ToomeyLab
Spectrometer: FLMS14357
Trigger mode: 0
Integration Time (sec): 1.000000E-2
Scans to average: 100
Electric dark correction enabled: true
Nonlinearity correction enabled: false
Boxcar width: 0
XAxis mode: Wavelengths
Number of Pixels in Spectrum: 2048
>>>>>Begin Spectral Data<<<<<
189.047	16.69
189.435	16.69
189.823	16.69
190.211	111.14
190.599	-145.35
190.987	-36.38
191.375	121.67
191.763	-61.21
192.151	103.06
192.538	-66.38
192.926	61.47
193.314	489.74
193.702	38.34
194.089	100.82
194.477	-34
194.864	123.11
195.252	12.93
195.639	1896.92
196.027	-126.75
196.414	-25.54
196.801	29.78
197.189	68.9
197.576	133.58
197.963	52.21
198.351	5.15
198.738	44.94
199.125	48.27
199.512	20.1
199.899	26.41
200.286	25.64
200.673	20.92
201.06	20.78
201.447	32.14
201.833	1.9
202.22	53.93
202.607	43.84
202.994	40.79
203.38	37.18
203.767	24.59
204.154	36.99
204.54	41.18
204.927	14.71
205.313	44.48
205.699	46.38
206.086	44.76
206.472	42.45
206.858	38.54
207.245	22.68
207.631	31.95
208.017	28.78
208.403	27.07
208.789	29.9
209.175	45.42
209.561	50.18
209.947	35.93
210.333	37.54
210.719	15.81
211.105	62.49
211.491	12.35
211.876	41.8
212.262	20.88
212.648	29.55
213.034	45.01
213.419	20.32
213.805	1.98
214.19	27.19
214.576	54.48
214.961	20.33
215.346	13.75
215.732	21.67
216.117	14.24
216.502	39.67
216.888	36.16
217.273	14.74
217.658	24.27
218.043	5.39
218.428	36.22
218.813	2.13
219.198	3.33
219.583	28.56
219.968	16.84
220.353	41.88
220.738	21.28
221.122	5.45
221.507	6.91
221.892	4.12
222.276	16.36
222.661	-14.28
223.046	20.92
223.43	34.05
223.815	-0.07
224.199	0.05
224.583	16.53
224.968	13.4
225.352	6.83
225.736	11.75
226.121	12.41
226.505	12.09
226.889	17.56
227.273	9.38
227.657	3.35
228.041	7.67
228.425	8.07
228.809	6.38
229.193	4.05
229.577	7.65
229.961	7.27
230.344	7.05
230.728	4.11
231.112	4.95
231.495	3.57
231.879	3.66
232.263	3.94
232.646	5.22
233.03	4.06
233.413	4.95
233.797	5
234.18	5.07
234.563	5.85
234.946	5.34
235.33	4.72
235.713	4.07
236.096	4.05
236.479	4.73
236.862	5.44
237.245	5.46
237.628	5.81
238.011	3.17
238.394	5.58
238.777	4.95
239.16	5.8
239.543	5.2
239.925	5.19
240.308	3.95
240.691	4.61
241.073	4.88
241.456	3.41
241.838	3.55
242.221	4.64
242.603	3.5
242.986	3.42
243.368	3.66
243.75	3.27
244.133	4.74
244.515	3.1
244.897	2.9
245.279	3.09
245.661	3.71
246.043	4.08
246.425	3.33
246.807	2.98
247.189	2.32
247.571	3.86
247.953	3.56
248.335	3.13
248.717	3.74
249.098	3.32
249.48	3.18
249.862	3.3
250.243	3.08
250.625	3.68
251.006	3.22
251.388	3.95
251.769	3.79
252.151	3.34
252.532	3.73
252.913	4
253.295	3.87
253.676	3.89
254.057	3.96
254.438	3.95
254.819	2.57
255.2	3.77
255.581	2.67
255.962	3.46
256.343	3.64
256.724	1.64
257.105	2.49
257.486	4.12
257.867	3.26
258.247	4.09
258.628	3.92
259.009	2.57
259.389	3.73
259.77	3.08
260.15	3.2
260.531	3.16
260.911	3.1
261.292	3.31
261.672	3
262.052	2.99
262.432	3.06
262.813	3.32
263.193	2.59
263.573	3.8
263.953	3.41
264.333	3.57
264.713	3.42
265.093	2.95
265.473	3.57
265.853	3.02
266.233	2.88
266.612	3.23
266.992	3.51
267.372	3.73
267.752	3.52
268.131	2.89
268.511	2.99
268.89	3.14
269.27	3.12
269.649	3.66
270.029	3.61
270.408	3.31
270.787	3.45
271.167	3.26
271.546	3.04
271.925	3.22
272.304	2.65
272.683	3.28
273.062	3.7
273.441	2.89
273.82	3.44
274.199	3.18
274.578	3.26
274.957	2.91
275.336	3.07
275.715	3.16
276.093	2.57
276.472	2.62
276.851	3.1
277.229	2.8
277.608	3.66
277.986	3.25
278.365	2.98
278.743	3.35
279.122	3.3
279.5	3.31
279.878	2.92
280.257	3.53
280.635	2.92
281.013	3.38
281.391	2.99
281.769	3.11
282.147	3.27
282.525	3.06
282.903	3.04
283.281	3.45
283.659	3.65
284.037	3.1
284.415	3.03
284.792	3.01
285.17	3.38
285.548	3.54
285.925	3.23
286.303	2.75
286.68	2.62
287.058	2.55
287.435	3.01
287.813	2.76
288.19	2.28
288.567	2.87
288.945	2.76
289.322	2.83
289.699	3.12
290.076	2.96
290.453	2.65
290.83	2.75
291.207	2.94
291.584	2.71
291.961	2.88
292.338	3.3
292.715	3.22
293.092	2.96
293.469	2.92
293.845	3
294.222	2.99
294.599	3.28
294.975	3.57
295.352	3.34
295.728	3.48
296.105	3.11
296.481	2.77
296.858	3.45
297.234	3.14
297.61	2.9
297.986	2.81
298.363	2.62
298.739	3.15
299.115	3.09
299.491	2.99
299.867	3.37
300.243	2.7
300.619	2.66
300.995	3.08
301.371	3.4
301.746	3.32
302.122	3.66
302.498	3.16
302.874	2.88
303.249	2.93
303.625	2.76
304	3.41
304.376	3.27
304.751	3.51
305.127	2.95
305.502	3.53
305.878	3.13
306.253	3.2
306.628	2.68
307.003	3.31
307.378	3.19
307.754	2.9
308.129	2.56
308.504	3.11
308.879	3.25
309.254	3.37
309.629	3.4
310.003	3.37
310.378	3.45
310.753	3.27
311.128	3.16
311.502	3.1
311.877	2.87
312.252	3.03
312.626	3.21
313.001	3.36
313.375	2.78
313.75	3.15
314.124	3.62
314.498	2.75
314.873	3.04
315.247	3.6
315.621	2.99
315.995	2.85
316.369	3.19
316.743	2.87
317.117	3.48
317.491	3.42
317.865	3.11
318.239	3.01
318.613	3.77
318.987	3.53
319.361	2.49
319.734	2.6
320.108	3.55
320.482	3.04
320.855	3.48
321.229	3.51
321.602	3.47
321.976	3.14
322.349	2.88
322.723	2.84
323.096	3.68
323.469	3.28
323.843	3.02
324.216	3.38
324.589	3.34
324.962	2.57
325.335	3
325.708	3.04
326.081	3.39
326.454	3.1
326.827	3.23
327.2	2.85
327.573	3.25
327.945	3.03
328.318	3.42
328.691	3.4
329.063	3
329.436	3.26
329.809	3.39
330.181	3.41
330.553	3.31
330.926	2.94
331.298	4.02
331.671	2.94
332.043	2.71
332.415	3.12
332.787	3.65
333.159	3.2
333.532	2.95
333.904	2.84
334.276	3.03
334.648	2.74
335.02	2.96
335.391	3.22
335.763	3.29
336.135	2.99
336.507	3.11
336.879	3.17
337.25	3.29
337.622	3.14
337.993	2.87
338.365	3.7
338.736	3.42
339.108	3.09
339.479	2.6
339.851	2.71
340.222	2.68
340.593	3.04
340.964	2.94
341.336	3.12
341.707	2.81
342.078	3.15
342.449	3.05
342.82	2.7
343.191	3
343.562	3.12
343.933	3.17
344.303	3.24
344.674	3.33
345.045	3.17
345.416	3.59
345.786	2.77
346.157	2.98
346.527	3.57
346.898	2.79
347.268	2.78
347.639	3.44
348.009	2.92
348.38	3.03
348.75	3.4
349.12	3.15
349.49	3.6
349.861	2.88
350.231	3.06
350.601	3.25
350.971	3.41
351.341	3.08
351.711	2.95
352.081	2.74
352.45	2.88
352.82	3.3
353.19	3.36
353.56	2.62
353.929	3.36
354.299	3.26
354.669	2.98
355.038	2.97
355.408	3.2
355.777	3.49
356.147	3.1
356.516	3.17
356.885	2.79
357.254	3.33
357.624	2.5
357.993	3.1
358.362	3.4
358.731	2.88
359.1	3.08
359.469	3.16
359.838	2.68
360.207	3.11
360.576	2.99
360.945	2.9
361.314	3.02
361.682	3.04
362.051	3.12
362.42	3.23
362.788	2.75
363.157	2.95
363.525	2.84
363.894	2.71
364.262	2.85
364.631	3
364.999	2.92
365.367	3.18
365.735	3.26
366.104	2.9
366.472	3.05
366.84	2.93
367.208	3.49
367.576	3.35
367.944	3.02
368.312	3.25
368.68	2.9
369.048	3.36
369.416	2.95
369.783	3.14
370.151	3.15
370.519	2.93
370.886	3.02
371.254	3.3
371.621	2.66
371.989	2.85
372.356	3.06
372.724	3.57
373.091	3.39
373.458	3.22
373.826	3.03
374.193	3.41
374.56	3.04
374.927	3.29
375.294	3.05
375.661	2.9
376.028	2.98
376.395	3.08
376.762	2.9
377.129	3.19
377.496	3.4
377.863	3.43
378.229	3.1
378.596	3.04
378.963	3.25
379.329	3.11
379.696	3.46
380.062	2.67
380.429	3.16
380.795	3.11
381.161	3.02
381.528	3.29
381.894	2.71
382.26	2.81
382.626	3.13
382.993	3.15
383.359	2.84
383.725	3.07
384.091	3.29
384.457	2.97
384.823	2.96
385.188	3.16
385.554	3.17
385.92	3.33
386.286	3.31
386.651	3.3
387.017	3.34
387.383	2.93
387.748	2.99
388.114	3.22
388.479	3.09
388.845	2.91
389.21	3.06
389.575	3.6
389.94	2.96
390.306	3.39
390.671	3.44
391.036	2.93
391.401	3.07
391.766	3.31
392.131	3.11
392.496	3.27
392.861	3.13
393.226	3.22
393.591	3.23
393.956	3.19
394.32	3.31
394.685	2.99
395.05	3.27
395.414	3.3
395.779	3.19
396.143	3.29
396.508	3.15
396.872	3.21
397.236	3.04
397.601	3.16
397.965	3.38
398.329	3.39
398.694	3.27
399.058	3.19
399.422	2.91
399.786	3.28
400.15	3.21
400.514	3.13
400.878	3.28
401.242	3.3
401.605	3.17
401.969	2.88
402.333	3.24
402.697	2.89
403.06	3.04
403.424	2.89
403.787	3.23
404.151	3.21
404.514	3.16
404.878	3.4
405.241	3.45
405.604	3.31
405.968	3.18
406.331	3.04
406.694	3.17
407.057	3.19
407.42	3.1
407.783	3.24
408.146	3.26
408.509	3.15
408.872	3.25
409.235	3.15
409.598	3.12
409.961	3.47
410.323	3.29
410.686	3.1
411.049	3.34
411.411	3.18
411.774	3.09
412.136	3.07
412.499	3.09
412.861	3.36
413.223	3.17
413.586	3.12
413.948	3.12
414.31	3.34
414.672	3.21
415.035	3.22
415.397	3.58
415.759	3.5
416.121	3.2
416.483	3.16
416.845	3.04
417.206	3.05
417.568	3.19
417.93	3.13
418.292	3.2
418.653	3.02
419.015	3.1
419.377	3.12
419.738	3.18
420.1	2.94
420.461	3
420.822	3.12
421.184	3.1
421.545	3.01
421.906	3.07
422.267	3.06
422.629	3.14
422.99	3.01
423.351	3.02
423.712	2.95
424.073	3.05
424.434	3.1
424.795	3.13
425.155	3.13
425.516	2.99
425.877	3.04
426.238	3.04
426.598	3
426.959	3.07
427.32	3.16
427.68	2.96
428.041	3.05
428.401	3.1
428.761	3.22
429.122	3
429.482	3.12
429.842	3.05
430.202	3.07
430.563	3.23
430.923	3.29
431.283	3.34
431.643	3.27
432.003	3.32
432.363	3.48
432.722	3.34
433.082	3.23
433.442	3.24
433.802	3.35
434.161	3.01
434.521	3.13
434.881	3.22
435.24	3.21
435.6	3.09
435.959	3.03
436.319	3.12
436.678	3.35
437.037	3.27
437.396	3.19
437.756	3.18
438.115	3.14
438.474	3.27
438.833	3.38
439.192	3.13
439.551	3.14
439.91	3.33
440.269	3.29
440.628	3.21
440.987	3.1
441.345	3.2
441.704	3.16
442.063	3.13
442.421	3.16
442.78	3.23
443.138	3.18
443.497	3.12
443.855	3.21
444.214	3.08
444.572	3.26
444.93	3.2
445.288	3.16
445.647	3.35
446.005	3.2
446.363	3.01
446.721	3.3
447.079	3.1
447.437	3.17
447.795	3.12
448.153	3.13
448.51	3.16
448.868	3.06
449.226	3.2
449.584	3.21
449.941	3.18
450.299	3.22
450.656	3.26
451.014	3.23
451.371	3.25
451.729	3.29
452.086	3.13
452.443	3.3
452.801	3.3
453.158	3.23
453.515	3.39
453.872	3.38
454.229	3.32
454.586	3.23
454.943	3.22
455.3	3.24
455.657	3.2
456.014	3.4
456.371	3.34
456.727	3.33
457.084	3.4
457.441	3.22
457.797	3.34
458.154	3.33
458.51	3.17
458.867	3.37
459.223	3.22
459.58	3.18
459.936	3.26
460.292	3.36
460.648	3.32
461.005	3.26
461.361	3.37
461.717	3.12
462.073	3.18
462.429	3.07
462.785	3.22
463.141	3.24
463.496	3.36
463.852	3.31
464.208	3.2
464.564	3.42
464.919	3.27
465.275	3.52
465.631	3.49
465.986	3.42
466.342	3.42
466.697	3.26
467.052	3.25
467.408	3.43
467.763	3.45
468.118	3.51
468.473	3.28
468.829	3.29
469.184	3.35
469.539	3.44
469.894	3.37
470.249	3.4
470.603	3.49
470.958	3.5
471.313	3.47
471.668	3.46
472.023	3.47
472.377	3.23
472.732	3.28
473.086	3.57
473.441	3.22
473.795	3.64
474.15	3.42
474.504	3.58
474.859	3.64
475.213	3.21
475.567	3.24
475.921	3.45
476.275	3.43
476.63	3.37
476.984	3.32
477.338	3.39
477.692	3.62
478.045	3.46
478.399	3.54
478.753	3.42
479.107	3.42
479.461	3.35
479.814	3.48
480.168	3.45
480.521	3.36
480.875	3.64
481.228	3.31
481.582	3.22
481.935	3.42
482.289	3.34
482.642	3.28
482.995	3.37
483.348	3.4
483.701	3.35
484.055	3.3
484.408	3.36
484.761	3.34
485.114	3.16
485.466	3.18
485.819	3.15
486.172	3.09
486.525	3.13
486.878	3.17
487.23	3.17
487.583	3.26
487.936	3.3
488.288	3.36
488.641	3.29
488.993	3.27
489.345	3.29
489.698	3.19
490.05	3.23
490.402	3.27
490.754	3.2
491.107	3.22
491.459	3.34
491.811	3.32
492.163	3.4
492.515	3.31
492.866	3.33
493.218	3.4
493.57	3.4
493.922	3.25
494.274	3.23
494.625	3.26
494.977	3.39
495.328	3.41
495.68	3.41
496.031	3.36
496.383	3.43
496.734	3.53
497.086	3.43
497.437	3.56
497.788	3.49
498.139	3.45
498.49	3.58
498.842	3.41
499.193	3.47
499.544	3.54
499.894	3.46
500.245	3.58
500.596	3.46
500.947	3.46
501.298	3.62
501.648	3.48
501.999	3.56
502.35	3.54
502.7	3.51
503.051	3.6
503.401	3.53
503.752	3.56
504.102	3.57
504.452	3.52
504.803	3.58
505.153	3.58
505.503	3.58
505.853	3.77
506.203	3.46
506.553	3.64
506.903	3.67
507.253	3.54
507.603	3.64
507.953	3.75
508.303	3.67
508.652	3.67
509.002	3.81
509.352	3.55
509.701	3.71
510.051	3.65
510.4	3.57
510.75	3.67
511.099	3.55
511.449	3.57
511.798	3.79
512.147	3.65
512.496	3.66
512.846	3.68
513.195	3.71
513.544	3.67
513.893	3.69
514.242	3.69
514.591	3.65
514.939	3.71
515.288	3.6
515.637	3.62
515.986	3.55
516.334	3.74
516.683	3.84
517.032	3.87
517.38	3.76
517.729	3.73
518.077	3.71
518.426	3.81
518.774	3.75
519.122	3.74
519.47	3.7
519.819	3.71
520.167	3.8
520.515	3.71
520.863	3.66
521.211	3.63
521.559	3.74
521.907	3.64
522.255	3.75
522.602	3.77
522.95	3.76
523.298	3.84
523.645	3.9
523.993	3.77
524.341	3.8
524.688	3.97
525.036	3.73
525.383	3.83
525.73	3.88
526.078	3.89
526.425	3.82
526.772	3.94
527.119	3.86
527.466	3.84
527.814	3.77
528.161	3.73
528.508	3.74
528.854	3.78
529.201	3.86
529.548	3.84
529.895	3.79
530.242	3.73
530.588	3.66
530.935	3.6
531.282	3.64
531.628	3.71
531.975	3.66
532.321	3.76
532.667	3.75
533.014	3.8
533.36	3.87
533.706	3.86
534.052	3.94
534.399	3.99
534.745	3.93
535.091	3.86
535.437	3.8
535.783	3.82
536.129	3.83
536.474	3.89
536.82	3.82
537.166	3.98
537.512	3.94
537.857	4.04
538.203	4.03
538.549	3.98
538.894	3.92
539.239	3.95
539.585	3.92
539.93	4.06
540.276	4.04
540.621	4.04
540.966	4.04
541.311	4.19
541.656	3.96
542.001	4.11
542.346	4.1
542.691	4.08
543.036	4.1
543.381	3.99
543.726	3.97
544.071	3.98
544.415	4.01
544.76	4.01
545.105	3.95
545.449	4.05
545.794	4.15
546.138	4.19
546.483	4.16
546.827	4.13
547.171	4.21
547.516	4.29
547.86	4.31
548.204	4.27
548.548	4.15
548.892	4.28
549.236	4.26
549.58	4.25
549.924	4.35
550.268	4.37
550.612	4.34
550.956	4.34
551.3	4.49
551.643	4.59
551.987	4.53
552.33	4.66
552.674	4.43
553.017	4.44
553.361	4.49
553.704	4.68
554.048	4.61
554.391	4.48
554.734	4.46
555.077	4.48
555.42	4.57
555.764	4.55
556.107	4.52
556.45	4.63
556.793	4.6
557.135	4.57
557.478	4.35
557.821	4.6
558.164	4.75
558.507	4.77
558.849	4.58
559.192	4.8
559.534	4.86
559.877	4.76
560.219	4.69
560.562	4.72
560.904	4.75
561.246	4.9
561.589	4.82
561.931	4.71
562.273	4.7
562.615	4.75
562.957	4.66
563.299	4.96
563.641	4.9
563.983	4.75
564.325	4.85
564.667	4.97
565.008	4.9
565.35	5
565.692	5.02
566.033	4.95
566.375	4.89
566.716	5.03
567.058	4.85
567.399	5.1
567.741	5.17
568.082	4.88
568.423	4.94
568.764	5.06
569.105	4.88
569.447	4.96
569.788	4.85
570.129	5.1
570.47	5.2
570.811	5.02
571.151	5.06
571.492	4.98
571.833	5.13
572.174	5.23
572.514	5.06
572.855	5.23
573.195	5.13
573.536	5.2
573.876	5.07
574.217	5.16
574.557	5.03
574.898	5.16
575.238	5.32
575.578	5.23
575.918	5.28
576.258	5.11
576.598	5.29
576.938	5.29
577.278	5.43
577.618	5.18
577.958	5.36
578.298	5.38
578.638	5.34
578.977	5.44
579.317	5.49
579.657	5.57
579.996	5.56
580.336	5.65
580.675	5.51
581.014	5.48
581.354	5.43
581.693	5.75
582.032	5.69
582.372	5.63
582.711	5.74
583.05	5.65
583.389	5.67
583.728	5.83
584.067	5.66
584.406	5.84
584.745	5.66
585.083	6.06
585.422	6.04
585.761	5.71
586.1	5.81
586.438	5.99
586.777	5.83
587.115	5.93
587.454	5.75
587.792	6.03
588.13	5.99
588.469	5.92
588.807	5.98
589.145	6.16
589.483	5.88
589.821	6.04
590.159	5.94
590.497	6.19
590.835	6.23
591.173	5.97
591.511	6.1
591.849	6.1
592.187	6.13
592.524	6.18
592.862	6.26
593.2	5.96
593.537	5.97
593.875	5.98
594.212	6.14
594.55	6.53
594.887	6.18
595.224	6.23
595.561	6.32
595.899	6.34
596.236	6.59
596.573	6.56
596.91	6.33
597.247	6.36
597.584	6.53
597.921	6.56
598.258	6.64
598.594	6.52
598.931	6.44
599.268	6.37
599.604	6.45
599.941	6.48
600.277	6.43
600.614	6.32
600.95	6.53
601.287	6.47
601.623	6.71
601.959	6.63
602.296	6.63
602.632	6.58
602.968	6.79
603.304	6.82
603.64	6.67
603.976	6.66
604.312	6.8
604.648	6.7
604.984	6.77
605.319	6.79
605.655	6.78
605.991	6.77
606.326	6.81
606.662	6.73
606.998	6.76
607.333	6.86
607.668	6.87
608.004	6.91
608.339	6.8
608.674	6.94
609.01	6.99
609.345	7.09
609.68	7.08
610.015	7.25
610.35	7.14
610.685	7.15
611.02	7.21
611.355	7.04
611.689	7.09
612.024	7.18
612.359	7.2
612.694	7.06
613.028	7.16
613.363	7.01
613.697	7.03
614.032	7.22
614.366	7.18
614.7	7.13
615.035	7.33
615.369	7.36
615.703	7.35
616.037	7.43
616.371	7.4
616.705	7.65
617.039	7.66
617.373	7.54
617.707	7.32
618.041	7.67
618.375	7.9
618.709	7.73
619.042	7.66
619.376	7.66
619.71	7.92
620.043	7.28
620.377	7.47
620.71	7.75
621.043	7.83
621.377	7.42
621.71	7.77
622.043	7.79
622.376	8.3
622.709	8.08
623.043	7.73
623.376	7.9
623.709	8.16
624.041	8
624.374	8.03
624.707	8.21
625.04	8.41
625.373	7.72
625.705	8
626.038	8.2
626.37	8.38
626.703	8.07
627.035	8.16
627.368	8.1
627.7	8.33
628.032	8.28
628.365	8.44
628.697	8.3
629.029	8.13
629.361	8.1
629.693	8.14
630.025	8.37
630.357	8.48
630.689	8.06
631.021	7.93
631.353	8.33
631.684	8.35
632.016	8.35
632.348	8.53
632.679	8.39
633.011	8.38
633.342	8.62
633.674	8.73
634.005	8.53
634.336	8.81
634.668	8.64
634.999	8.85
635.33	8.63
635.661	8.8
635.992	8.5
636.323	8.93
636.654	9.21
636.985	8.57
637.316	8.83
637.647	9.08
637.977	8.32
638.308	9.11
638.639	8.74
638.969	8.89
639.3	8.94
639.63	9.12
639.961	8.91
640.291	8.87
640.622	9.12
640.952	8.99
641.282	9.3
641.612	9.17
641.943	9.24
642.273	9.27
642.603	9.37
642.933	9.01
643.263	8.88
643.592	9.31
643.922	9.42
644.252	9.24
644.582	9.61
644.911	9.09
645.241	9.57
645.571	9.01
645.9	9.31
646.23	9.68
646.559	9.33
646.888	9.6
647.218	9.21
647.547	9.57
647.876	9.24
648.205	9.44
648.534	9.94
648.863	9.36
649.192	9.27
649.521	10
649.85	9.93
650.179	9.59
650.508	9.4
650.837	9.76
651.165	9.57
651.494	9.86
651.822	9.6
652.151	9.82
652.479	10.1
652.808	9.66
653.136	10.18
653.465	10.07
653.793	9.81
654.121	10.29
654.449	9.71
654.777	10.15
655.105	10.1
655.433	10.52
655.761	10.24
656.089	10.09
656.417	10.64
656.745	9.79
657.073	10.15
657.4	10.85
657.728	10.39
658.056	10.57
658.383	10.7
658.711	10.1
659.038	10.18
659.365	10.52
659.693	10.02
660.02	10.79
660.347	10.97
660.674	10.47
661.001	10.2
661.329	10.63
661.656	10.5
661.982	10.54
662.309	10.85
662.636	10.6
662.963	11.24
663.29	10.65
663.616	10.88
663.943	10.83
664.27	10.68
664.596	10.65
664.923	10.79
665.249	10.6
665.576	10.89
665.902	11.02
666.228	10.84
666.554	10.46
666.881	10.99
667.207	10.88
667.533	10.84
667.859	11.33
668.185	11.28
668.511	10.98
668.837	10.69
669.162	11.32
669.488	11.28
669.814	11.01
670.139	11.23
670.465	11.45
670.791	11.14
671.116	10.96
671.442	11.71
671.767	10.98
672.092	11.72
672.418	12.53
672.743	11.49
673.068	12.11
673.393	11.17
673.718	12.17
674.043	11.68
674.368	11.11
674.693	10.99
675.018	11.85
675.343	11.91
675.667	11.4
675.992	11.47
676.317	11.9
676.641	10.69
676.966	11.5
677.29	10.88
677.615	11.9
677.939	12.11
678.264	12
678.588	12.32
678.912	12.11
679.236	11.54
679.56	11.6
679.885	11.97
680.209	12.82
680.532	10.97
680.856	11.48
681.18	12.05
681.504	11.69
681.828	12.06
682.152	11.77
682.475	12.36
682.799	12.49
683.122	11.96
683.446	11.98
683.769	12.17
684.093	11.79
684.416	11.97
684.739	12.2
685.062	13
685.386	12.3
685.709	12.41
686.032	11.96
686.355	12.36
686.678	13.1
687.001	12.09
687.324	12.82
687.646	13
687.969	12.76
688.292	12.57
688.614	13.33
688.937	12.64
689.26	11.66
689.582	12.75
689.904	12.45
690.227	12.85
690.549	13.29
690.871	13.09
691.194	12.59
691.516	12.87
691.838	13.05
692.16	12.86
692.482	12.36
692.804	13.04
693.126	12.19
693.448	12.78
693.769	13.22
694.091	13.6
694.413	12.89
694.735	13.38
695.056	13.58
695.378	13.39
695.699	12.94
696.021	13.23
696.342	14.56
696.663	12.62
696.984	13.31
697.306	13.39
697.627	13.17
697.948	12.36
698.269	13.76
698.59	13.19
698.911	13.53
699.232	13.05
699.553	12.69
699.873	13.18
700.194	13.25
700.515	12.65
700.835	13.55
701.156	13.77
701.477	13.72
701.797	13.11
702.117	13.57
702.438	13.27
702.758	13.31
703.078	14.03
703.398	13.76
703.719	14.41
704.039	14.26
704.359	13.96
704.679	13.11
704.999	14.47
705.319	13.97
705.638	13.98
705.958	14.27
706.278	15.41
706.597	14.22
706.917	14.46
707.237	13.48
707.556	13.25
707.876	13.69
708.195	15.41
708.514	15.36
708.834	13.87
709.153	14.63
709.472	14.6
709.791	13.53
710.11	15.14
710.429	15.09
710.748	14.96
711.067	14.92
711.386	14.7
711.705	13.69
712.023	15.22
712.342	15.34
712.661	15.39
712.979	13.61
713.298	15.7
713.616	14.33
713.935	15.03
714.253	15.62
714.572	15.46
714.89	15.38
715.208	15.16
715.526	14.21
715.844	15.01
716.162	14.54
716.48	15.01
716.798	14.71
717.116	15.15
717.434	15.41
717.752	14.85
718.069	14.07
718.387	15.64
718.705	14.19
719.022	15.19
719.34	15.32
719.657	14.73
719.975	16.49
720.292	15.31
720.609	15.4
720.927	15.08
721.244	15.23
721.561	15.71
721.878	15.7
722.195	14.75
722.512	15.81
722.829	16.57
723.146	17.42
723.463	15.1
723.779	15.33
724.096	14.61
724.413	16.39
724.729	16.7
725.046	15.55
725.362	16.23
725.679	16.19
725.995	16.93
726.311	14.03
726.628	15.01
726.944	15.07
727.26	15.51
727.576	15.66
727.892	13.67
728.208	16.77
728.524	16.05
728.84	14.8
729.156	15.55
729.472	16.47
729.787	15.81
730.103	15.5
730.419	16.75
730.734	16.79
731.05	15.21
731.365	16.21
731.681	16.61
731.996	17.82
732.311	15.1
732.626	15.98
732.942	15.94
733.257	16.69
733.572	16.92
733.887	16.3
734.202	16.04
734.517	16.52
734.832	16
735.146	17.39
735.461	17.51
735.776	16.57
736.091	16.73
736.405	17.26
736.72	17.38
737.034	17.65
737.349	15.35
737.663	16.45
737.977	17.75
738.292	15.95
738.606	17.48
738.92	16.88
739.234	17.12
739.548	18.07
739.862	16.38
740.176	18.91
740.49	16.78
740.804	17.13
741.117	17.72
741.431	17.62
741.745	18.53
742.058	16.6
742.372	17.11
742.685	16.04
742.999	17.5
743.312	17.9
743.626	16.41
743.939	16.99
744.252	18.37
744.565	17.37
744.878	17.64
745.191	17.71
745.505	16.6
745.817	18.72
746.13	19.06
746.443	18.19
746.756	18.36
747.069	17.42
747.381	15.86
747.694	17.03
748.007	19.03
748.319	18.29
748.632	16.97
748.944	18.48
749.256	19.39
749.569	19.21
749.881	18
750.193	19.84
750.505	18.78
750.817	18.56
751.129	17.38
751.441	18.55
751.753	18.02
752.065	19.82
752.377	18.34
752.689	16.22
753	17.04
753.312	18.45
753.624	17.2
753.935	21.14
754.247	18.66
754.558	19.76
754.869	17.78
755.181	18.49
755.492	16.89
755.803	20.4
756.114	20.03
756.425	20.31
756.736	18.4
757.047	18.58
757.358	18.02
757.669	18.49
757.98	18.88
758.291	18.66
758.601	21.63
758.912	18.79
759.223	20.84
759.533	21.18
759.844	18.8
760.154	19.24
760.464	19.56
760.775	20.64
761.085	20.71
761.395	19.88
761.705	19.15
762.016	16.68
762.326	19.27
762.636	19.08
762.945	18.78
763.255	17.93
763.565	18.2
763.875	17.94
764.185	20.63
764.494	20.6
764.804	19.78
765.113	19.68
765.423	18.87
765.732	19.78
766.042	20.25
766.351	18.85
766.66	20.48
766.97	19.91
767.279	20.05
767.588	19.21
767.897	19.65
768.206	20.68
768.515	20.35
768.824	22.25
769.133	20.49
769.441	20.68
769.75	21.07
770.059	22.62
770.367	19.92
770.676	20.25
770.984	19.16
771.293	19.19
771.601	19.56
771.91	22.55
772.218	19.29
772.526	19.49
772.834	21.33
773.142	24.47
773.45	19.22
773.758	17.65
774.066	22.45
774.374	20.48
774.682	21.26
774.99	19.49
775.298	21.68
775.605	21.57
775.913	22.54
776.22	21.45
776.528	22.25
776.835	19.09
777.143	21.92
777.45	23.19
777.757	21.67
778.065	22.99
778.372	23.84
778.679	21.21
778.986	22.29
779.293	20.57
779.6	19.04
779.907	21.55
780.214	25.84
780.52	17.57
780.827	22.27
781.134	20.98
781.44	24.08
781.747	22.13
782.053	22.68
782.36	23.48
782.666	22.37
782.973	24.38
783.279	20.47
783.585	23.51
783.891	24.74
784.197	23.52
784.503	22.1
784.809	22.4
785.115	25.9
785.421	24.01
785.727	20.74
786.033	21.32
786.339	21.27
786.644	22.53
786.95	22.84
787.255	20
787.561	24.11
787.866	22.17
788.172	26.86
788.477	24.87
788.782	23.81
789.088	20.25
789.393	19.98
789.698	23.27
790.003	22.95
790.308	21.44
790.613	21.87
790.918	22.65
791.223	21.66
791.527	19.83
791.832	24.32
792.137	24.43
792.441	23.15
792.746	25.04
793.05	23.16
793.355	27.42
793.659	26.13
793.963	25.67
794.268	24.14
794.572	21.82
794.876	20.68
795.18	25.9
795.484	15.51
795.788	24.1
796.092	22.77
796.396	22.93
796.7	25.5
797.004	26.05
797.307	16.87
797.611	20.54
797.915	22.96
798.218	23.67
798.522	24.74
798.825	23.85
799.128	24.46
799.432	25.24
799.735	26.47
800.038	24.36
800.341	24.31
800.644	25.97
800.947	26.46
801.25	30.2
801.553	26.9
801.856	28.01
802.159	22.37
802.462	23.27
802.764	24.36
803.067	22.55
803.37	22.32
803.672	29.69
803.975	23.22
804.277	30.05
804.579	27.95
804.882	23.74
805.184	30.09
805.486	24.68
805.788	20.51
806.09	27.42
806.392	23.7
806.694	28.09
806.996	23.27
807.298	29.1
807.6	27.07
807.902	28.37
808.203	27.8
808.505	32.21
808.807	28.49
809.108	26.34
809.409	28.7
809.711	26.37
810.012	26.47
810.313	26.49
810.615	24.28
810.916	20.08
811.217	27.26
811.518	24.04
811.819	28.28
812.12	20.33
812.421	27.48
812.722	27.95
813.023	22.22
813.323	26.3
813.624	30.41
813.925	27.41
814.225	31.29
814.526	24.23
814.826	26.13
815.126	24.33
815.427	28.3
815.727	27.48
816.027	22.46
816.327	22.49
816.627	28.33
816.927	30.65
817.227	30.31
817.527	28.02
817.827	20.17
818.127	24.04
818.427	29.84
818.727	24.92
819.026	25.74
819.326	26.93
819.625	23.78
819.925	22.41
820.224	23.96
820.524	27.3
820.823	24.5
821.122	20.57
821.421	31.04
821.72	27.4
822.019	25.23
822.318	28.86
822.617	25.77
822.916	26.36
823.215	25.95
823.514	25.03
823.813	29.19
824.111	27.48
824.41	28.66
824.709	25.44
825.007	25.7
825.306	25.54
825.604	24.76
825.902	25.64
826.201	26.19
826.499	25.35
826.797	25.02
827.095	26.83
827.393	26.11
827.691	25.09
827.989	24.04
828.287	26.61
828.585	27.06
828.882	26.26
829.18	24.46
829.478	24.06
829.775	26.11
830.073	25.71
830.37	25.84
830.668	23.87
830.965	26.99
831.263	26.81
831.56	25.87
831.857	26.33
832.154	31.36
832.451	27.8
832.748	25.66
833.045	29.68
833.342	26.21
833.639	31.78
833.936	29.64
834.232	28.92
834.529	28.87
834.826	28.71
835.122	27.33
835.419	31.65
835.715	27.87
836.012	31.31
836.308	31.98
836.604	29.56
836.901	22.95
837.197	28.38
837.493	27.36
837.789	25.56
838.085	26.09
838.381	30.87
838.677	26.71
838.972	28.15
839.268	30.24
839.564	33.04
839.86	31.77
840.155	24.46
840.451	31.8
840.746	31.8
841.042	23.67
841.337	32.25
841.632	35.39
841.928	38.7
842.223	37.55
842.518	34.37
842.813	31.12
843.108	34.72
843.403	36.29
843.698	34.18
843.993	31.44
844.287	30.65
844.582	29.82
844.877	25.13
845.171	27.74
845.466	26.15
845.761	23.61
846.055	27.6
846.349	29.36
846.644	26.82
846.938	27.42
847.232	29.39
847.526	32.9
847.82	40.18
848.114	24.84
848.408	33.67
848.702	29.81
848.996	34.84
849.29	40.22
849.584	38.15
849.877	27.67
850.171	37.48
850.465	33.71
850.758	39.85
851.052	30.45
851.345	41.69
851.638	52.5
851.932	42.72
852.225	27.72
852.518	48.28
852.811	28.36
853.104	43.18
853.397	50.61
853.69	37.83
853.983	27.23
854.276	40.12
854.569	36.84
854.861	34.2
855.154	17.97
855.447	31.31
855.739	25.01
856.032	42.48
856.324	35.92
856.616	45.68
856.909	38.3
857.201	38.25
857.493	42.15
857.785	52.51
858.077	54.2
858.369	25.09
858.661	43.13
858.953	31.55
859.245	47.51
859.537	49.41
859.829	28.03
860.12	45.12
860.412	43.89
860.703	31.89
860.995	6.54
861.286	48.25
861.578	47.98
861.869	30.05
862.16	48.66
862.452	30.06
862.743	52.01
863.034	46.7
863.325	64.64
863.616	53.44
863.907	40.56
864.198	17.44
864.488	39.2
864.779	29.03
865.07	22.59
865.36	22.91
865.651	44.36
865.941	24.02
866.232	38.61
866.522	43.42
866.813	51.32
867.103	42.69
867.393	18.52
867.683	35.08
867.973	43.24
868.263	31.67
868.553	29.15
868.843	37.98
869.133	31.72
869.423	50.99
869.713	38.82
870.002	40.16
870.292	33.93
870.582	44.65
870.871	33.17
871.161	29.45
871.45	40.91
871.739	32.01
872.029	38.85
872.318	16.14
872.607	29.41
872.896	25.92
873.185	61.68
873.474	47.81
873.763	10.36
874.052	33.2
874.341	28.26
874.63	67.67
874.918	32.33
875.207	46.63
875.496	55.97
875.784	48.26
876.073	31.59
876.361	27.13
876.649	36
876.938	54.63
877.226	35.16
877.514	61.99
877.802	20.15
878.09	50.6
878.378	49.37
878.666	63.48
878.954	28.34
879.242	22.82
879.53	28.98
879.817	43.84
880.105	42.24
880.392	21.4
880.68	36.18
880.967	31.97
881.255	30.62
881.542	59.47
881.83	53.53
882.117	17.77
882.404	32.97
882.691	13.64
882.978	26.36
883.265	22.04
883.552	51.67
883.839	19.51
884.126	47.33
884.413	43.28
884.699	34.39
884.986	46.03
885.273	31.44
885.559	31.44
885.846	31.44
