Data from 0150_chest_Reflection__1__82.txt Node

Date: Fri Sep 22 20:57:51 CDT 2023
User: ToomeyLab
Spectrometer: FLMS14357
Trigger mode: 0
Integration Time (sec): 1.000000E-2
Scans to average: 100
Electric dark correction enabled: true
Nonlinearity correction enabled: false
Boxcar width: 0
XAxis mode: Wavelengths
Number of Pixels in Spectrum: 2048
>>>>>Begin Spectral Data<<<<<
189.047	150.78
189.435	150.78
189.823	150.78
190.211	263.65
190.599	-139.22
190.987	42.08
191.375	29.52
191.763	226.07
192.151	66.26
192.538	-150.87
192.926	117.8
193.314	-455.13
193.702	111.56
194.089	79.57
194.477	8.56
194.864	304.67
195.252	70.63
195.639	968.46
196.027	62.53
196.414	86.31
196.801	-25.22
197.189	33.21
197.576	72.37
197.963	-21.3
198.351	61.67
198.738	26.73
199.125	-4.14
199.512	10.02
199.899	13.53
200.286	26.64
200.673	-4.65
201.06	23.88
201.447	25.98
201.833	2.06
202.22	53.76
202.607	46.77
202.994	48.89
203.38	37.75
203.767	54.55
204.154	56.01
204.54	60.46
204.927	26.38
205.313	14.57
205.699	40.6
206.086	43.18
206.472	49.48
206.858	28.08
207.245	16.83
207.631	33.84
208.017	48.28
208.403	33.74
208.789	32.09
209.175	52.78
209.561	44.49
209.947	35.1
210.333	43.26
210.719	-10.05
211.105	67.21
211.491	13.15
211.876	34.7
212.262	26.61
212.648	15.31
213.034	25.49
213.419	14.37
213.805	38.66
214.19	30.46
214.576	29.13
214.961	31.82
215.346	11.81
215.732	33.81
216.117	11.75
216.502	37.7
216.888	33.38
217.273	29.8
217.658	28.49
218.043	20.73
218.428	5.21
218.813	-1.18
219.198	13.36
219.583	21.29
219.968	-2.65
220.353	35.02
220.738	14.83
221.122	17.91
221.507	21.06
221.892	10.83
222.276	11.12
222.661	-11.45
223.046	17.53
223.43	32.24
223.815	14.65
224.199	13.1
224.583	17.38
224.968	22.51
225.352	9.47
225.736	15.89
226.121	13.01
226.505	6.91
226.889	10.31
227.273	7.56
227.657	5.74
228.041	8.43
228.425	4.44
228.809	6.25
229.193	5.54
229.577	8.82
229.961	6.96
230.344	6.14
230.728	2.87
231.112	4.97
231.495	4.4
231.879	4.87
232.263	3.92
232.646	6.12
233.03	4.49
233.413	4.87
233.797	5.36
234.18	3.76
234.563	5.24
234.946	7.2
235.33	4.53
235.713	4.62
236.096	3.39
236.479	3.84
236.862	6.17
237.245	4.14
237.628	5.46
238.011	3.63
238.394	4.33
238.777	6.45
239.16	6.52
239.543	6.08
239.925	3.66
240.308	3.67
240.691	4.34
241.073	5.92
241.456	3.85
241.838	4.36
242.221	3.9
242.603	5.29
242.986	3.74
243.368	3.24
243.75	4.07
244.133	4.03
244.515	3.79
244.897	3.42
245.279	3.62
245.661	3.81
246.043	4.73
246.425	3.44
246.807	4.46
247.189	2.61
247.571	5.7
247.953	5.06
248.335	4.2
248.717	4.17
249.098	3.81
249.48	3.87
249.862	3.5
250.243	3.59
250.625	4.27
251.006	3.71
251.388	4.22
251.769	4.11
252.151	3.42
252.532	4.06
252.913	4.6
253.295	4.35
253.676	4.01
254.057	4.49
254.438	4.13
254.819	3.76
255.2	3.99
255.581	4.55
255.962	4.61
256.343	4.39
256.724	3.51
257.105	5.02
257.486	4.61
257.867	4.45
258.247	4.1
258.628	5.66
259.009	3.63
259.389	4.12
259.77	4.31
260.15	4.66
260.531	3.72
260.911	4.06
261.292	3.79
261.672	3.36
262.052	3.6
262.432	3.52
262.813	3.73
263.193	3.51
263.573	4.13
263.953	3.6
264.333	3.77
264.713	3.97
265.093	3.6
265.473	3.14
265.853	3.58
266.233	3.14
266.612	4.07
266.992	4.01
267.372	3.65
267.752	4.31
268.131	4
268.511	3.51
268.89	3.95
269.27	3.8
269.649	3.69
270.029	3.32
270.408	3.57
270.787	3.3
271.167	3.11
271.546	3.38
271.925	3.54
272.304	3.21
272.683	3.26
273.062	3.62
273.441	3.47
273.82	3.84
274.199	3.8
274.578	3.82
274.957	3.74
275.336	3.32
275.715	3.55
276.093	3.06
276.472	3.38
276.851	3.7
277.229	2.85
277.608	3.77
277.986	3.85
278.365	3.05
278.743	3.51
279.122	3.61
279.5	3.7
279.878	3.21
280.257	3.62
280.635	3.63
281.013	4.15
281.391	3.28
281.769	3.69
282.147	3.73
282.525	3.84
282.903	3.95
283.281	3.77
283.659	3.53
284.037	3.34
284.415	3.22
284.792	3.56
285.17	3.71
285.548	4.37
285.925	3.56
286.303	3.62
286.68	3.08
287.058	3.35
287.435	3.75
287.813	3.41
288.19	3.04
288.567	3.69
288.945	3.25
289.322	3.47
289.699	3.41
290.076	3.51
290.453	2.28
290.83	3.03
291.207	3.13
291.584	3.31
291.961	3.15
292.338	3.75
292.715	3.65
293.092	3.16
293.469	3.56
293.845	3.79
294.222	3.85
294.599	3.33
294.975	3.63
295.352	4.22
295.728	3.71
296.105	3.56
296.481	3.13
296.858	3.67
297.234	3.39
297.61	3.35
297.986	3.68
298.363	3.43
298.739	3.36
299.115	3.5
299.491	3.95
299.867	3.35
300.243	3.58
300.619	3.91
300.995	3.69
301.371	3.95
301.746	3.77
302.122	3.77
302.498	3.34
302.874	3.41
303.249	3.72
303.625	3.66
304	4.13
304.376	4.19
304.751	3.46
305.127	3.53
305.502	4.17
305.878	3.88
306.253	3.98
306.628	3.77
307.003	3.76
307.378	3.95
307.754	3.75
308.129	3.57
308.504	4.42
308.879	4.12
309.254	3.92
309.629	3.85
310.003	3.75
310.378	3.87
310.753	3.88
311.128	3.9
311.502	3.64
311.877	3.51
312.252	3.92
312.626	3.89
313.001	3.85
313.375	3.91
313.75	4.1
314.124	4.17
314.498	3.31
314.873	4.01
315.247	3.96
315.621	3.74
315.995	3.59
316.369	3.38
316.743	3.69
317.117	3.47
317.491	4.05
317.865	3.55
318.239	3.6
318.613	4.02
318.987	4.09
319.361	3.68
319.734	3.58
320.108	4.59
320.482	3.56
320.855	3.29
321.229	4.28
321.602	4.79
321.976	3.64
322.349	4.38
322.723	4.32
323.096	4.12
323.469	4.25
323.843	3.75
324.216	4.75
324.589	4.05
324.962	4.47
325.335	4.23
325.708	4.12
326.081	4.41
326.454	3.6
326.827	3.84
327.2	3.72
327.573	4.65
327.945	4.04
328.318	4.38
328.691	3.72
329.063	4.02
329.436	4.33
329.809	4.3
330.181	3.72
330.553	3.69
330.926	4.1
331.298	3.53
331.671	4.03
332.043	3.15
332.415	4.04
332.787	4.34
333.159	3.68
333.532	3.6
333.904	3.68
334.276	3.31
334.648	3.43
335.02	3.85
335.391	3.92
335.763	4.39
336.135	3.91
336.507	4.37
336.879	3.8
337.25	4.27
337.622	4.77
337.993	3.89
338.365	4.37
338.736	4.12
339.108	4.12
339.479	3.74
339.851	3.64
340.222	3.81
340.593	3.54
340.964	3.64
341.336	4.1
341.707	4.05
342.078	3.84
342.449	3.82
342.82	4.01
343.191	3.66
343.562	3.71
343.933	3.78
344.303	3.91
344.674	3.96
345.045	3.87
345.416	4.54
345.786	3.7
346.157	3.74
346.527	3.95
346.898	3.95
347.268	3.83
347.639	4.03
348.009	3.85
348.38	3.99
348.75	4.45
349.12	4.15
349.49	3.84
349.861	3.7
350.231	4.11
350.601	4.18
350.971	4.01
351.341	3.95
351.711	4.05
352.081	3.65
352.45	3.49
352.82	4.38
353.19	4.18
353.56	3.55
353.929	3.76
354.299	3.87
354.669	3.34
355.038	3.98
355.408	3.78
355.777	4.15
356.147	3.65
356.516	4.43
356.885	4.11
357.254	4.46
357.624	3.8
357.993	3.95
358.362	4.12
358.731	3.55
359.1	3.92
359.469	3.81
359.838	3.49
360.207	3.86
360.576	3.89
360.945	3.97
361.314	3.88
361.682	4.12
362.051	3.88
362.42	3.71
362.788	3.88
363.157	3.78
363.525	3.99
363.894	4.01
364.262	3.76
364.631	3.71
364.999	3.62
365.367	3.65
365.735	3.96
366.104	3.89
366.472	4.19
366.84	3.78
367.208	4.37
367.576	4.08
367.944	3.98
368.312	3.89
368.68	3.46
369.048	3.85
369.416	3.65
369.783	3.72
370.151	3.92
370.519	3.92
370.886	3.92
371.254	4.36
371.621	3.84
371.989	3.94
372.356	3.69
372.724	4.14
373.091	3.92
373.458	4.1
373.826	3.83
374.193	4.11
374.56	4.04
374.927	4.19
375.294	3.99
375.661	3.87
376.028	3.94
376.395	4.1
376.762	4.15
377.129	4.07
377.496	4.15
377.863	4.38
378.229	4.12
378.596	4.05
378.963	4.53
379.329	3.94
379.696	4.41
380.062	3.78
380.429	4.04
380.795	4.37
381.161	3.99
381.528	3.88
381.894	3.7
382.26	4.15
382.626	3.9
382.993	4.37
383.359	3.84
383.725	3.86
384.091	4.09
384.457	3.76
384.823	3.92
385.188	4
385.554	4.05
385.92	4.59
386.286	3.84
386.651	4.02
387.017	3.98
387.383	4.1
387.748	4.1
388.114	3.78
388.479	4.01
388.845	4.02
389.21	3.8
389.575	4.11
389.94	3.87
390.306	4.14
390.671	4
391.036	3.75
391.401	4
391.766	3.91
392.131	3.86
392.496	3.99
392.861	3.92
393.226	4.24
393.591	3.74
393.956	3.99
394.32	3.86
394.685	4
395.05	4.16
395.414	4.21
395.779	4.11
396.143	4.07
396.508	3.99
396.872	3.92
397.236	3.96
397.601	3.9
397.965	4.21
398.329	3.72
398.694	3.84
399.058	3.97
399.422	3.96
399.786	4.17
400.15	4.18
400.514	4.28
400.878	4
401.242	4.26
401.605	3.82
401.969	3.78
402.333	4.26
402.697	3.75
403.06	3.93
403.424	3.92
403.787	4.16
404.151	3.95
404.514	4.18
404.878	4.26
405.241	4.17
405.604	4.04
405.968	4.18
406.331	3.94
406.694	4.03
407.057	3.88
407.42	4.07
407.783	4.12
408.146	4
408.509	4.1
408.872	3.88
409.235	3.99
409.598	3.97
409.961	4.45
410.323	4.01
410.686	4.05
411.049	4.33
411.411	4.27
411.774	4.12
412.136	3.88
412.499	4.05
412.861	4.2
413.223	4.02
413.586	4.02
413.948	4.12
414.31	4
414.672	3.96
415.035	3.93
415.397	4.25
415.759	4.59
416.121	3.92
416.483	3.98
416.845	4.01
417.206	4.11
417.568	4.07
417.93	3.91
418.292	4.01
418.653	4.01
419.015	4
419.377	3.97
419.738	4.14
420.1	3.96
420.461	4
420.822	4.01
421.184	3.92
421.545	4.02
421.906	3.97
422.267	3.96
422.629	3.9
422.99	4.04
423.351	3.88
423.712	3.9
424.073	3.91
424.434	3.96
424.795	3.96
425.155	4.01
425.516	4.05
425.877	3.98
426.238	3.83
426.598	3.98
426.959	3.93
427.32	3.94
427.68	3.91
428.041	3.94
428.401	3.96
428.761	4.14
429.122	4.02
429.482	4.18
429.842	4.01
430.202	4.04
430.563	4.1
430.923	4.16
431.283	4.26
431.643	4.22
432.003	4.04
432.363	4.18
432.722	4.23
433.082	4.13
433.442	4.12
433.802	4.27
434.161	4.14
434.521	4.08
434.881	4.11
435.24	4
435.6	3.97
435.959	4.04
436.319	4.01
436.678	4.2
437.037	4.12
437.396	4
437.756	4.21
438.115	4.05
438.474	4.19
438.833	4.15
439.192	4.22
439.551	4.14
439.91	4.17
440.269	4.19
440.628	4.01
440.987	4.08
441.345	4.21
441.704	4.22
442.063	3.93
442.421	4.08
442.78	4.15
443.138	4.04
443.497	4.06
443.855	4.1
444.214	3.86
444.572	4.18
444.93	4.23
445.288	4.1
445.647	4.26
446.005	4.04
446.363	4.1
446.721	4.22
447.079	4.04
447.437	4.13
447.795	4.21
448.153	4.01
448.51	4.1
448.868	4.03
449.226	4.13
449.584	4.01
449.941	3.99
450.299	4.12
450.656	4.13
451.014	4.15
451.371	4.09
451.729	4.15
452.086	4.21
452.443	4.31
452.801	4.23
453.158	4.25
453.515	4.27
453.872	4.26
454.229	4.2
454.586	4.27
454.943	4.11
455.3	4.18
455.657	4.15
456.014	4.19
456.371	4.16
456.727	4.37
457.084	4.15
457.441	4.3
457.797	4.17
458.154	4.2
458.51	4.22
458.867	4.33
459.223	4.2
459.58	4.29
459.936	4.29
460.292	4.37
460.648	4.38
461.005	4.21
461.361	4.24
461.717	4.05
462.073	4.07
462.429	4.01
462.785	4.03
463.141	4.08
463.496	4.22
463.852	4.24
464.208	4.2
464.564	4.34
464.919	4.08
465.275	4.4
465.631	4.48
465.986	4.3
466.342	4.43
466.697	4.4
467.052	4.08
467.408	4.39
467.763	4.4
468.118	4.41
468.473	4.25
468.829	4.28
469.184	4.25
469.539	4.3
469.894	4.35
470.249	4.25
470.603	4.29
470.958	4.35
471.313	4.34
471.668	4.45
472.023	4.35
472.377	4.49
472.732	4.38
473.086	4.51
473.441	4.05
473.795	4.52
474.15	4.17
474.504	4.34
474.859	4.59
475.213	4.26
475.567	4.33
475.921	4.3
476.275	4.43
476.63	4.32
476.984	4.18
477.338	4.46
477.692	4.44
478.045	4.43
478.399	4.39
478.753	4.39
479.107	4.56
479.461	4.37
479.814	4.4
480.168	4.38
480.521	4.35
480.875	4.48
481.228	4.51
481.582	4.36
481.935	4.47
482.289	4.32
482.642	4.33
482.995	4.33
483.348	4.35
483.701	4.39
484.055	4.29
484.408	4.37
484.761	4.28
485.114	4.19
485.466	4.11
485.819	4.11
486.172	4.02
486.525	4.07
486.878	4.07
487.23	4.12
487.583	4.2
487.936	4.29
488.288	4.28
488.641	4.27
488.993	4.2
489.345	4.22
489.698	4.17
490.05	4.16
490.402	4.21
490.754	4.15
491.107	4.18
491.459	4.3
491.811	4.26
492.163	4.3
492.515	4.35
492.866	4.38
493.218	4.33
493.57	4.37
493.922	4.23
494.274	4.25
494.625	4.26
494.977	4.37
495.328	4.42
495.68	4.45
496.031	4.38
496.383	4.52
496.734	4.58
497.086	4.46
497.437	4.51
497.788	4.66
498.139	4.64
498.49	4.53
498.842	4.46
499.193	4.49
499.544	4.56
499.894	4.47
500.245	4.52
500.596	4.44
500.947	4.59
501.298	4.68
501.648	4.66
501.999	4.59
502.35	4.65
502.7	4.75
503.051	4.74
503.401	4.57
503.752	4.65
504.102	4.75
504.452	4.73
504.803	4.57
505.153	4.57
505.503	4.69
505.853	4.72
506.203	4.53
506.553	4.7
506.903	4.73
507.253	4.71
507.603	4.83
507.953	4.69
508.303	4.73
508.652	4.84
509.002	4.84
509.352	4.74
509.701	4.78
510.051	4.81
510.4	4.75
510.75	4.66
511.099	4.65
511.449	4.79
511.798	4.74
512.147	4.68
512.496	4.7
512.846	4.72
513.195	4.83
513.544	4.82
513.893	4.78
514.242	4.71
514.591	4.72
514.939	4.81
515.288	4.62
515.637	4.77
515.986	4.68
516.334	4.88
516.683	4.91
517.032	4.87
517.38	4.92
517.729	4.86
518.077	5.02
518.426	4.92
518.774	4.91
519.122	4.83
519.47	4.76
519.819	4.92
520.167	5.01
520.515	4.94
520.863	4.73
521.211	4.75
521.559	4.81
521.907	4.85
522.255	4.89
522.602	4.91
522.95	4.9
523.298	4.97
523.645	4.91
523.993	5.01
524.341	5.09
524.688	4.97
525.036	4.98
525.383	4.96
525.73	5.11
526.078	5.11
526.425	5.13
526.772	5.24
527.119	5.02
527.466	4.92
527.814	4.96
528.161	4.82
528.508	4.91
528.854	4.96
529.201	5.01
529.548	4.95
529.895	4.9
530.242	4.88
530.588	4.79
530.935	4.76
531.282	4.75
531.628	4.87
531.975	4.82
532.321	4.85
532.667	4.98
533.014	5.03
533.36	4.98
533.706	5.08
534.052	5.19
534.399	5.09
534.745	5.12
535.091	5.02
535.437	5
535.783	4.95
536.129	4.95
536.474	5.04
536.82	4.94
537.166	5.16
537.512	5.25
537.857	5.2
538.203	5.27
538.549	5.31
538.894	5.16
539.239	5.18
539.585	5.21
539.93	5.29
540.276	5.28
540.621	5.3
540.966	5.37
541.311	5.38
541.656	5.35
542.001	5.29
542.346	5.47
542.691	5.45
543.036	5.3
543.381	5.25
543.726	5.2
544.071	5.21
544.415	5.23
544.76	5.23
545.105	5.24
545.449	5.28
545.794	5.32
546.138	5.52
546.483	5.5
546.827	5.41
547.171	5.4
547.516	5.58
547.86	5.66
548.204	5.62
548.548	5.59
548.892	5.5
549.236	5.55
549.58	5.6
549.924	5.71
550.268	5.66
550.612	5.63
550.956	5.76
551.3	5.76
551.643	5.85
551.987	5.87
552.33	5.95
552.674	5.84
553.017	5.75
553.361	5.85
553.704	6.03
554.048	5.95
554.391	5.99
554.734	5.95
555.077	5.9
555.42	5.86
555.764	5.94
556.107	6.1
556.45	6
556.793	5.83
557.135	6.03
557.478	5.91
557.821	5.96
558.164	6.07
558.507	6.16
558.849	6.01
559.192	6.18
559.534	6.14
559.877	6.23
560.219	6.15
560.562	6.19
560.904	6.25
561.246	6.56
561.589	6.31
561.931	6.14
562.273	6.24
562.615	6.17
562.957	6.26
563.299	6.38
563.641	6.34
563.983	6.31
564.325	6.33
564.667	6.45
565.008	6.47
565.35	6.35
565.692	6.53
566.033	6.39
566.375	6.56
566.716	6.53
567.058	6.38
567.399	6.63
567.741	6.62
568.082	6.44
568.423	6.59
568.764	6.55
569.105	6.34
569.447	6.54
569.788	6.57
570.129	6.83
570.47	6.66
570.811	6.7
571.151	6.64
571.492	6.63
571.833	6.63
572.174	6.78
572.514	6.75
572.855	6.72
573.195	6.76
573.536	6.82
573.876	6.7
574.217	6.67
574.557	6.74
574.898	6.87
575.238	6.97
575.578	7
575.918	6.93
576.258	6.75
576.598	6.96
576.938	7.04
577.278	7.05
577.618	6.95
577.958	7.2
578.298	7.21
578.638	7.13
578.977	7.26
579.317	7.24
579.657	7.18
579.996	7.27
580.336	7.18
580.675	7.35
581.014	7.21
581.354	7.32
581.693	7.34
582.032	7.22
582.372	7.46
582.711	7.58
583.05	7.35
583.389	7.44
583.728	7.62
584.067	7.32
584.406	7.49
584.745	7.33
585.083	7.82
585.422	7.8
585.761	7.53
586.1	7.52
586.438	7.63
586.777	7.95
587.115	8.01
587.454	7.64
587.792	8.16
588.13	7.77
588.469	7.79
588.807	8.02
589.145	7.81
589.483	7.88
589.821	7.95
590.159	7.98
590.497	8.23
590.835	8.2
591.173	7.83
591.511	7.97
591.849	8.23
592.187	8.06
592.524	8.12
592.862	8.03
593.2	7.91
593.537	7.89
593.875	8.1
594.212	8.06
594.55	8.51
594.887	8.27
595.224	8.32
595.561	8.52
595.899	8.5
596.236	8.77
596.573	8.54
596.91	8.41
597.247	8.46
597.584	8.57
597.921	8.55
598.258	8.61
598.594	8.67
598.931	8.52
599.268	8.47
599.604	8.67
599.941	8.56
600.277	8.44
600.614	8.75
600.95	8.67
601.287	8.74
601.623	8.85
601.959	8.99
602.296	8.85
602.632	8.83
602.968	8.89
603.304	9.05
603.64	8.82
603.976	9.02
604.312	9.02
604.648	8.81
604.984	9.05
605.319	9.02
605.655	9.08
605.991	9.04
606.326	9.08
606.662	8.91
606.998	9.07
607.333	9.08
607.668	8.9
608.004	9.23
608.339	8.98
608.674	9.3
609.01	9.25
609.345	9.34
609.68	9.51
610.015	9.5
610.35	9.46
610.685	9.38
611.02	9.59
611.355	9.42
611.689	9.48
612.024	9.69
612.359	9.41
612.694	9.39
613.028	9.37
613.363	9.6
613.697	9.59
614.032	9.73
614.366	9.5
614.7	9.75
615.035	10.07
615.369	9.95
615.703	9.61
616.037	10.15
616.371	10.42
616.705	10.24
617.039	10.14
617.373	9.78
617.707	10.12
618.041	10.15
618.375	10.1
618.709	10.05
619.042	10.51
619.376	10.32
619.71	10.47
620.043	10.12
620.377	10.3
620.71	10.54
621.043	10.62
621.377	10
621.71	10.52
622.043	10.67
622.376	10.8
622.709	10.44
623.043	10.29
623.376	10.34
623.709	10.78
624.041	10.76
624.374	10.49
624.707	11.06
625.04	10.54
625.373	10.47
625.705	10.9
626.038	10.81
626.37	11.04
626.703	10.97
627.035	11
627.368	11.2
627.7	11.09
628.032	11.38
628.365	11.12
628.697	11.29
629.029	10.92
629.361	11.32
629.693	11.18
630.025	10.96
630.357	10.92
630.689	11.13
631.021	11.33
631.353	11.21
631.684	11.32
632.016	11.35
632.348	11.36
632.679	11.43
633.011	11.58
633.342	11.64
633.674	12.01
634.005	11.4
634.336	11.73
634.668	11.74
634.999	11.86
635.33	12.18
635.661	11.91
635.992	11.64
636.323	11.9
636.654	11.76
636.985	12.06
637.316	12.02
637.647	11.95
637.977	11.84
638.308	12.12
638.639	12.13
638.969	12.12
639.3	11.75
639.63	12.39
639.961	12.05
640.291	12.03
640.622	12.38
640.952	12.43
641.282	12.39
641.612	12.34
641.943	12.66
642.273	12.44
642.603	12.41
642.933	12.6
643.263	12.12
643.592	12.51
643.922	12.8
644.252	12.66
644.582	12.81
644.911	12.63
645.241	12.85
645.571	12.26
645.9	12.96
646.23	13.23
646.559	13.12
646.888	13.25
647.218	13.06
647.547	12.87
647.876	12.8
648.205	12.99
648.534	13.12
648.863	12.46
649.192	12.38
649.521	13.46
649.85	13.81
650.179	13.39
650.508	12.69
650.837	13.72
651.165	13
651.494	13.02
651.822	13.26
652.151	13.25
652.479	13.29
652.808	13.57
653.136	14.18
653.465	13.52
653.793	13.11
654.121	13.61
654.449	13.58
654.777	13.22
655.105	13.68
655.433	13.97
655.761	14.1
656.089	14.04
656.417	13.88
656.745	13.98
657.073	14
657.4	14.57
657.728	14.23
658.056	14.06
658.383	14.15
658.711	13.45
659.038	13.9
659.365	13.95
659.693	13.73
660.02	14.52
660.347	14.3
660.674	14.44
661.001	14.16
661.329	14.14
661.656	14.44
661.982	14.03
662.309	14.64
662.636	14.34
662.963	14.59
663.29	14.27
663.616	14.63
663.943	14.81
664.27	15.1
664.596	14.55
664.923	14.43
665.249	14.64
665.576	14.37
665.902	15.09
666.228	14.18
666.554	14.37
666.881	14.79
667.207	14.57
667.533	15.05
667.859	15.03
668.185	15.28
668.511	15.53
668.837	14.89
669.162	15.9
669.488	15.65
669.814	14.98
670.139	15.43
670.465	15.67
670.791	15.64
671.116	15.15
671.442	15.73
671.767	15.23
672.092	16.01
672.418	15.69
672.743	15.93
673.068	15.62
673.393	15.06
673.718	16.07
674.043	16.18
674.368	15.93
674.693	15.52
675.018	15.87
675.343	16.19
675.667	16.12
675.992	15.64
676.317	16.56
676.641	16.5
676.966	15.99
677.29	15.74
677.615	16.85
677.939	16.92
678.264	16.08
678.588	16.65
678.912	16.33
679.236	16.25
679.56	16.29
679.885	16.23
680.209	16.35
680.532	15.98
680.856	16.33
681.18	17.12
681.504	16.91
681.828	16.93
682.152	16.55
682.475	17.03
682.799	16.5
683.122	16.49
683.446	16.36
683.769	16.55
684.093	16.84
684.416	17.16
684.739	16.6
685.062	17.41
685.386	16.71
685.709	16.96
686.032	16.13
686.355	17.33
686.678	17.33
687.001	16.52
687.324	16.94
687.646	17.37
687.969	17.64
688.292	17.61
688.614	17.34
688.937	17.21
689.26	17.01
689.582	17.89
689.904	17.03
690.227	17.96
690.549	18.11
690.871	17.6
691.194	17.73
691.516	17.68
691.838	17.97
692.16	16.81
692.482	17.73
692.804	17.73
693.126	17.49
693.448	18.51
693.769	17.87
694.091	18.64
694.413	18.39
694.735	18.2
695.056	18.11
695.378	18.26
695.699	18.21
696.021	17.89
696.342	19.08
696.663	18.11
696.984	18.21
697.306	18.14
697.627	18.22
697.948	18.19
698.269	19
698.59	18.43
698.911	18.55
699.232	18.12
699.553	18.22
699.873	19.01
700.194	18.7
700.515	17.98
700.835	19.08
701.156	18.77
701.477	18.79
701.797	18.53
702.117	18.95
702.438	18.31
702.758	18.66
703.078	19.02
703.398	18.97
703.719	18.94
704.039	19.4
704.359	18.79
704.679	18.94
704.999	19.29
705.319	19.15
705.638	19.19
705.958	19.11
706.278	20.46
706.597	19.88
706.917	20.13
707.237	19.03
707.556	19.39
707.876	18.89
708.195	20.15
708.514	20.33
708.834	18.84
709.153	19.5
709.472	20.29
709.791	19.93
710.11	20.28
710.429	19.66
710.748	20.4
711.067	19.55
711.386	20.25
711.705	20.58
712.023	20.94
712.342	20.2
712.661	20.43
712.979	20.1
713.298	21.27
713.616	20.18
713.935	20.48
714.253	21.15
714.572	20.7
714.89	21.38
715.208	20.88
715.526	19.17
715.844	21.24
716.162	20.82
716.48	21.26
716.798	20.56
717.116	21.3
717.434	21.47
717.752	20.68
718.069	19.78
718.387	20.84
718.705	20.87
719.022	20.22
719.34	21.15
719.657	20.01
719.975	21.93
720.292	20.52
720.609	21.75
720.927	21.74
721.244	22.12
721.561	22.2
721.878	22.25
722.195	20.87
722.512	22.03
722.829	21.79
723.146	22.02
723.463	22.11
723.779	21.25
724.096	21.2
724.413	22.7
724.729	21.99
725.046	21.25
725.362	21.38
725.679	21.6
725.995	21.59
726.311	20.76
726.628	20.04
726.944	20.64
727.26	21.23
727.576	21.03
727.892	20.95
728.208	23.07
728.524	23.11
728.84	21.23
729.156	22.65
729.472	24.71
729.787	23.11
730.103	23.02
730.419	23.44
730.734	22.33
731.05	21.68
731.365	21.87
731.681	22.99
731.996	22.34
732.311	23.42
732.626	21.76
732.942	23.7
733.257	22.61
733.572	22.35
733.887	22.72
734.202	23.26
734.517	23.63
734.832	23.13
735.146	23.63
735.461	23.56
735.776	22.95
736.091	22.77
736.405	23.18
736.72	23.21
737.034	22.73
737.349	23.72
737.663	22.28
737.977	24.2
738.292	22.99
738.606	23.6
738.92	23.76
739.234	22.38
739.548	24.48
739.862	22.52
740.176	24.63
740.49	24.03
740.804	24.72
741.117	23.27
741.431	24.07
741.745	23.48
742.058	24.76
742.372	22.34
742.685	23.7
742.999	24.86
743.312	24.12
743.626	23.48
743.939	24.5
744.252	24.76
744.565	23.72
744.878	24.66
745.191	25.07
745.505	23.45
745.817	26.39
746.13	25.51
746.443	26.94
746.756	23.82
747.069	23.72
747.381	23.7
747.694	24.11
748.007	25.14
748.319	23.73
748.632	24.61
748.944	24.74
749.256	25.76
749.569	25.51
749.881	26.56
750.193	25.38
750.505	25.2
750.817	25.4
751.129	23.31
751.441	27.06
751.753	26.39
752.065	27.38
752.377	25.92
752.689	25.14
753	25.03
753.312	25.59
753.624	26.08
753.935	26.34
754.247	25.19
754.558	27.71
754.869	26.12
755.181	26.02
755.492	25.27
755.803	28.4
756.114	27.24
756.425	26.34
756.736	25.2
757.047	24.94
757.358	24.9
757.669	24.38
757.98	27.32
758.291	25.13
758.601	26.35
758.912	26.29
759.223	27.32
759.533	26.37
759.844	26.88
760.154	23.21
760.464	24.7
760.775	25.52
761.085	28.77
761.395	27.41
761.705	27.2
762.016	25.98
762.326	25.98
762.636	28.23
762.945	26.59
763.255	27.21
763.565	27.12
763.875	26.32
764.185	27.52
764.494	29.44
764.804	27.13
765.113	26.06
765.423	26.89
765.732	26.66
766.042	27.79
766.351	26.43
766.66	28.36
766.97	26.92
767.279	27.22
767.588	28.22
767.897	27.48
768.206	28.47
768.515	26.59
768.824	28.15
769.133	27.36
769.441	28.29
769.75	28.37
770.059	30.09
770.367	28.84
770.676	26.75
770.984	27.11
771.293	27.64
771.601	29.22
771.91	27.45
772.218	27.02
772.526	28
772.834	28.47
773.142	28.95
773.45	29.12
773.758	27.19
774.066	25.31
774.374	25.21
774.682	27.67
774.99	29.36
775.298	29.21
775.605	28.38
775.913	28.35
776.22	30.14
776.528	31.75
776.835	24.43
777.143	27.31
777.45	33.55
777.757	29.23
778.065	30.39
778.372	27.1
778.679	28.11
778.986	29.13
779.293	28.8
779.6	28.19
779.907	31.57
780.214	33.62
780.52	28.9
780.827	30.62
781.134	31.62
781.44	30.02
781.747	31.52
782.053	30.17
782.36	30.71
782.666	29.93
782.973	32
783.279	29.45
783.585	30.96
783.891	29.58
784.197	33.07
784.503	30.98
784.809	27.88
785.115	32.78
785.421	32.74
785.727	32.23
786.033	32.26
786.339	26.89
786.644	32.63
786.95	30.07
787.255	29.88
787.561	31.81
787.866	27.82
788.172	33.61
788.477	32.12
788.782	31.65
789.088	30.23
789.393	28.2
789.698	31.69
790.003	32.63
790.308	28.73
790.613	31.22
790.918	30.31
791.223	29.32
791.527	27.14
791.832	28.78
792.137	30.98
792.441	31.38
792.746	32.45
793.05	32.87
793.355	32.96
793.659	32.03
793.963	32.63
794.268	33.11
794.572	30.61
794.876	28.8
795.18	31.4
795.484	27.19
795.788	29.21
796.092	33.04
796.396	31.83
796.7	30.83
797.004	27.42
797.307	28.7
797.611	33.04
797.915	33.54
798.218	34.68
798.522	32.27
798.825	30.57
799.128	33.38
799.432	32.76
799.735	30.62
800.038	35.33
800.341	32.88
800.644	33.13
800.947	32.52
801.25	35.87
801.553	33.65
801.856	35.51
802.159	28.3
802.462	31.23
802.764	30.48
803.067	33.63
803.37	37.64
803.672	32.78
803.975	33.6
804.277	33.15
804.579	36.71
804.882	36.2
805.184	32.46
805.486	30.28
805.788	34.97
806.09	33.76
806.392	33.85
806.694	38.1
806.996	35.14
807.298	32.5
807.6	38.2
807.902	30.97
808.203	31.69
808.505	35.67
808.807	36.73
809.108	38.47
809.409	38.41
809.711	31.02
810.012	31.45
810.313	37.89
810.615	32.73
810.916	35.05
811.217	32.51
811.518	33.39
811.819	41.31
812.12	32.13
812.421	37.93
812.722	39.3
813.023	37.74
813.323	36.61
813.624	33.81
813.925	33.38
814.225	33.58
814.526	33.15
814.826	37.01
815.126	37.95
815.427	28.13
815.727	32.24
816.027	34.43
816.327	33.28
816.627	40.3
816.927	39.29
817.227	36.38
817.527	30.46
817.827	32.33
818.127	30.45
818.427	35.83
818.727	36.1
819.026	33.43
819.326	36.19
819.625	35.08
819.925	36.62
820.224	38.09
820.524	36.96
820.823	30.07
821.122	33.58
821.421	37.04
821.72	41.47
822.019	36.91
822.318	33.47
822.617	33.01
822.916	36.46
823.215	35.24
823.514	34.81
823.813	35.67
824.111	39.12
824.41	36.3
824.709	32.7
825.007	37.47
825.306	34.55
825.604	34.22
825.902	35.58
826.201	35.83
826.499	34.97
826.797	33.52
827.095	35.56
827.393	36.09
827.691	35.11
827.989	33.35
828.287	36.04
828.585	37.34
828.882	34.6
829.18	37.32
829.478	34.9
829.775	33.68
830.073	32.79
830.37	35.17
830.668	36.12
830.965	36.11
831.263	35.93
831.56	36.75
831.857	33.97
832.154	36.07
832.451	35.14
832.748	37.99
833.045	41.85
833.342	37.58
833.639	35.31
833.936	36.8
834.232	31.22
834.529	41.07
834.826	36.37
835.122	32.72
835.419	38.93
835.715	38.96
836.012	40.73
836.308	38.96
836.604	38.75
836.901	36.05
837.197	37.98
837.493	36.55
837.789	35.88
838.085	35.63
838.381	33.62
838.677	39.07
838.972	38.19
839.268	37.72
839.564	38.77
839.86	38.26
840.155	40.26
840.451	43.66
840.746	41.69
841.042	39.27
841.337	42.67
841.632	39.56
841.928	50.06
842.223	44.08
842.518	37.9
842.813	42.45
843.108	41.34
843.403	37.42
843.698	36.24
843.993	37.53
844.287	39.22
844.582	35.84
844.877	33.9
845.171	37.41
845.466	42.24
845.761	33.15
846.055	31.63
846.349	36.62
846.644	39
846.938	42.05
847.232	39.08
847.526	46.19
847.82	46.52
848.114	52.15
848.408	37.62
848.702	36.96
848.996	33.03
849.29	48.88
849.584	45.9
849.877	42.17
850.171	45.03
850.465	64.83
850.758	44.96
851.052	31.9
851.345	46.52
851.638	40.06
851.932	57.66
852.225	52.92
852.518	69.15
852.811	40.85
853.104	43.93
853.397	39.64
853.69	48.34
853.983	61.7
854.276	48.45
854.569	35.64
854.861	48.83
855.154	32.09
855.447	31.26
855.739	35.15
856.032	40.75
856.324	33.57
856.616	32
856.909	44.46
857.201	42.9
857.493	37.71
857.785	59.52
858.077	57.6
858.369	36.84
858.661	58.07
858.953	45.87
859.245	47.24
859.537	62.71
859.829	50.36
860.12	55.15
860.412	50.01
860.703	21.94
860.995	23.02
861.286	44.79
861.578	33.68
861.869	51.25
862.16	31.72
862.452	32.83
862.743	52.44
863.034	57.52
863.325	56.88
863.616	59.45
863.907	66.21
864.198	51.54
864.488	47.07
864.779	36.94
865.07	23.4
865.36	35.28
865.651	40.88
865.941	30.02
866.232	42.28
866.522	66.26
866.813	52.75
867.103	43.47
867.393	37.77
867.683	54.14
867.973	50.47
868.263	44.94
868.553	40.92
868.843	71.85
869.133	62.76
869.423	38.63
869.713	54.18
870.002	61.03
870.292	43.09
870.582	37.37
870.871	50.98
871.161	35.68
871.45	38.7
871.739	55.69
872.029	50.55
872.318	45.09
872.607	26.6
872.896	28.31
873.185	56.66
873.474	52.93
873.763	46.75
874.052	44.86
874.341	70.73
874.63	44.24
874.918	56.71
875.207	60.82
875.496	73.93
875.784	45.32
876.073	70.09
876.361	51.38
876.649	33.21
876.938	51.32
877.226	25.58
877.514	47.9
877.802	49.14
878.09	67.7
878.378	79.32
878.666	59.15
878.954	65.64
879.242	49.45
879.53	57.03
879.817	71.07
880.105	67.33
880.392	41.59
880.68	37.01
880.967	75.53
881.255	29.47
881.542	63.9
881.83	50.2
882.117	63.59
882.404	59.71
882.691	54.29
882.978	55.12
883.265	39.9
883.552	41.75
883.839	41.19
884.126	52.32
884.413	44.67
884.699	53.16
884.986	49.61
885.273	45.49
885.559	45.49
885.846	45.49
