Data from 0190_crown_Reflection__2__134.txt Node

Date: Fri Sep 22 21:23:16 CDT 2023
User: ToomeyLab
Spectrometer: FLMS14357
Trigger mode: 0
Integration Time (sec): 1.000000E-2
Scans to average: 100
Electric dark correction enabled: true
Nonlinearity correction enabled: false
Boxcar width: 0
XAxis mode: Wavelengths
Number of Pixels in Spectrum: 2048
>>>>>Begin Spectral Data<<<<<
189.047	80.47
189.435	80.47
189.823	80.47
190.211	114.54
190.599	8.9
190.987	-52.28
191.375	192.09
191.763	3.11
192.151	60.4
192.538	3.47
192.926	38.94
193.314	-286.15
193.702	1188.75
194.089	-425.1
194.477	-27.43
194.864	66.8
195.252	30.1
195.639	-194.63
196.027	27.55
196.414	-109.86
196.801	-60.36
197.189	559.31
197.576	77.9
197.963	-5333.75
198.351	56.82
198.738	-5.62
199.125	35.72
199.512	3.14
199.899	54.3
200.286	18.01
200.673	-7.05
201.06	22.91
201.447	30.39
201.833	2.4
202.22	58.79
202.607	44.9
202.994	47.09
203.38	13.72
203.767	7.96
204.154	25.7
204.54	50.77
204.927	8.12
205.313	50.03
205.699	43.27
206.086	42.08
206.472	55.56
206.858	19.83
207.245	1.54
207.631	23.57
208.017	42.8
208.403	32.84
208.789	32.04
209.175	43.71
209.561	23.32
209.947	21.37
210.333	25.95
210.719	21.76
211.105	34.04
211.491	-5.25
211.876	20.17
212.262	26.55
212.648	25.13
213.034	30.42
213.419	9.33
213.805	17.55
214.19	12.58
214.576	2.2
214.961	11.07
215.346	-0.29
215.732	19.62
216.117	9.2
216.502	29.8
216.888	28.66
217.273	10.6
217.658	10.94
218.043	21.58
218.428	43.22
218.813	-6.39
219.198	19.82
219.583	23.6
219.968	-4.32
220.353	35.42
220.738	3.03
221.122	12.45
221.507	-4.24
221.892	3.98
222.276	5.9
222.661	-7.68
223.046	21.24
223.43	19.87
223.815	10.24
224.199	9.11
224.583	14.86
224.968	11.4
225.352	4.62
225.736	11.73
226.121	14.42
226.505	10.19
226.889	8.87
227.273	7.8
227.657	8.45
228.041	8.33
228.425	7.81
228.809	5.99
229.193	3.43
229.577	7.6
229.961	8.25
230.344	5.2
230.728	1.99
231.112	4.25
231.495	3.29
231.879	3.89
232.263	4.14
232.646	3.42
233.03	4.89
233.413	3.86
233.797	4.87
234.18	4.44
234.563	4.98
234.946	4.59
235.33	2.34
235.713	3.18
236.096	1.13
236.479	2.81
236.862	5.7
237.245	3.39
237.628	4.97
238.011	5.19
238.394	3.79
238.777	5.51
239.16	4.07
239.543	5.77
239.925	2.75
240.308	4.06
240.691	5.14
241.073	3.1
241.456	3.33
241.838	3.99
242.221	4.35
242.603	4.03
242.986	3.49
243.368	3.47
243.75	3.81
244.133	3.8
244.515	3.21
244.897	2.84
245.279	3.25
245.661	2.91
246.043	3.5
246.425	3.79
246.807	4.61
247.189	2.02
247.571	3.54
247.953	3.29
248.335	3.41
248.717	3.42
249.098	3.37
249.48	3.12
249.862	2.89
250.243	3.01
250.625	3.24
251.006	2.73
251.388	3.46
251.769	3.53
252.151	3.29
252.532	2.72
252.913	2.43
253.295	4.45
253.676	3.23
254.057	2.92
254.438	3.97
254.819	3.24
255.2	3.28
255.581	2.85
255.962	3.34
256.343	3.54
256.724	3.54
257.105	3.5
257.486	3.84
257.867	2.63
258.247	3.84
258.628	3.46
259.009	2.88
259.389	3.18
259.77	4.56
260.15	3.17
260.531	3.4
260.911	3.36
261.292	2.97
261.672	2.79
262.052	3.03
262.432	2.81
262.813	2.91
263.193	2.35
263.573	3.16
263.953	2.61
264.333	3.1
264.713	3.03
265.093	2.64
265.473	3.45
265.853	2.47
266.233	3.67
266.612	2.95
266.992	3.02
267.372	2.94
267.752	3.51
268.131	3.01
268.511	2.7
268.89	3.16
269.27	2.77
269.649	2.52
270.029	2.61
270.408	3.33
270.787	3.14
271.167	2.66
271.546	2.49
271.925	3.17
272.304	2.16
272.683	2.51
273.062	3.68
273.441	2.47
273.82	3.17
274.199	2.82
274.578	3.14
274.957	2.51
275.336	2.91
275.715	2.92
276.093	2.72
276.472	2.83
276.851	2.55
277.229	2.37
277.608	2.88
277.986	2.47
278.365	2.71
278.743	3.26
279.122	2.98
279.5	3.48
279.878	2.47
280.257	2.8
280.635	3.01
281.013	3.32
281.391	2.16
281.769	3.04
282.147	3.43
282.525	2.34
282.903	3.17
283.281	3.05
283.659	2.9
284.037	2.74
284.415	3.04
284.792	2.28
285.17	3
285.548	3.26
285.925	2.75
286.303	2.71
286.68	2.37
287.058	2.29
287.435	2.85
287.813	2.63
288.19	2.08
288.567	2.78
288.945	2.57
289.322	2.63
289.699	2.7
290.076	2.76
290.453	2.05
290.83	2.34
291.207	2.32
291.584	2.36
291.961	2.63
292.338	2.51
292.715	2.92
293.092	2.87
293.469	2.8
293.845	2.23
294.222	2.89
294.599	3.26
294.975	3.69
295.352	2.88
295.728	2.73
296.105	2.81
296.481	2.91
296.858	3.06
297.234	2.35
297.61	2.85
297.986	2.9
298.363	2.52
298.739	2.87
299.115	2.81
299.491	2.89
299.867	2.76
300.243	2.42
300.619	2.61
300.995	2.64
301.371	3.01
301.746	2.67
302.122	2.35
302.498	2.84
302.874	2.28
303.249	2.72
303.625	2.15
304	3.21
304.376	2.85
304.751	2.93
305.127	2.61
305.502	2.85
305.878	2.83
306.253	2.8
306.628	2.48
307.003	2.98
307.378	2.42
307.754	2.87
308.129	2.64
308.504	2.61
308.879	2.63
309.254	2.53
309.629	2.62
310.003	3.04
310.378	2.93
310.753	2.79
311.128	2.71
311.502	2.75
311.877	1.94
312.252	2.52
312.626	2.94
313.001	2.79
313.375	2.53
313.75	3.04
314.124	3.06
314.498	2.43
314.873	2.78
315.247	2.72
315.621	2.47
315.995	2.33
316.369	2.31
316.743	2.81
317.117	3.07
317.491	2.62
317.865	2.78
318.239	2.83
318.613	2.69
318.987	2.3
319.361	2.16
319.734	2.57
320.108	3.43
320.482	2.16
320.855	2.51
321.229	3.51
321.602	3.23
321.976	2.78
322.349	2.71
322.723	2.87
323.096	2.85
323.469	2.98
323.843	2.58
324.216	2.96
324.589	2.84
324.962	2.02
325.335	2.56
325.708	2.38
326.081	3
326.454	1.85
326.827	2.72
327.2	2.57
327.573	3.57
327.945	2.73
328.318	2.8
328.691	2.65
329.063	2.49
329.436	2.48
329.809	3.04
330.181	2.88
330.553	2.68
330.926	2.86
331.298	2.81
331.671	2.62
332.043	2.42
332.415	2.67
332.787	3.1
333.159	2.59
333.532	2.22
333.904	2.91
334.276	2.44
334.648	2.16
335.02	2.75
335.391	3.03
335.763	2.46
336.135	2.17
336.507	2.65
336.879	2.4
337.25	2.7
337.622	2.88
337.993	3.14
338.365	3.26
338.736	2.74
339.108	2.54
339.479	2.52
339.851	2.47
340.222	2.48
340.593	2.7
340.964	2.16
341.336	2.42
341.707	2.63
342.078	2.57
342.449	2.74
342.82	2.42
343.191	2.31
343.562	2.82
343.933	2.77
344.303	2.91
344.674	2.75
345.045	2.8
345.416	3.37
345.786	2.46
346.157	2.65
346.527	2.45
346.898	2.42
347.268	2.65
347.639	2.59
348.009	2.55
348.38	2.92
348.75	3.22
349.12	2.72
349.49	2.88
349.861	2.75
350.231	2.38
350.601	2.53
350.971	2.71
351.341	2.5
351.711	2.6
352.081	2.46
352.45	2.81
352.82	3.3
353.19	2.69
353.56	2.74
353.929	2.57
354.299	2.59
354.669	2.52
355.038	2.59
355.408	2.79
355.777	2.75
356.147	2.47
356.516	3.07
356.885	2.5
357.254	2.71
357.624	2.31
357.993	2.47
358.362	2.88
358.731	2.59
359.1	2.45
359.469	2.77
359.838	2.43
360.207	2.36
360.576	2.82
360.945	2.77
361.314	2.84
361.682	3.08
362.051	2.74
362.42	2.45
362.788	2.34
363.157	3.02
363.525	2.76
363.894	2.66
364.262	2.44
364.631	2.53
364.999	2.59
365.367	2.75
365.735	2.66
366.104	2.5
366.472	2.8
366.84	2.69
367.208	2.88
367.576	2.65
367.944	2.73
368.312	2.76
368.68	2.77
369.048	2.91
369.416	2.74
369.783	2.52
370.151	2.76
370.519	2.77
370.886	2.82
371.254	2.88
371.621	2.62
371.989	2.64
372.356	2.46
372.724	2.71
373.091	2.81
373.458	2.57
373.826	2.59
374.193	2.82
374.56	2.86
374.927	2.99
375.294	2.88
375.661	2.54
376.028	3.02
376.395	2.85
376.762	2.81
377.129	2.94
377.496	3.31
377.863	3.12
378.229	2.91
378.596	2.74
378.963	3.21
379.329	2.64
379.696	3.24
380.062	2.43
380.429	2.8
380.795	2.74
381.161	2.67
381.528	2.64
381.894	2.48
382.26	3.1
382.626	3.02
382.993	2.97
383.359	2.63
383.725	2.23
384.091	2.77
384.457	2.51
384.823	2.83
385.188	2.93
385.554	2.69
385.92	3.12
386.286	2.59
386.651	2.73
387.017	2.86
387.383	2.59
387.748	2.78
388.114	2.96
388.479	2.98
388.845	2.42
389.21	2.34
389.575	2.92
389.94	2.73
390.306	2.98
390.671	3.13
391.036	2.6
391.401	3.01
391.766	2.8
392.131	2.47
392.496	2.95
392.861	2.64
393.226	2.92
393.591	2.74
393.956	2.77
394.32	2.84
394.685	2.94
395.05	2.97
395.414	2.85
395.779	2.83
396.143	3
396.508	2.8
396.872	2.67
397.236	2.71
397.601	2.74
397.965	3.08
398.329	2.74
398.694	2.74
399.058	2.68
399.422	2.87
399.786	2.94
400.15	2.84
400.514	2.98
400.878	2.81
401.242	2.83
401.605	2.82
401.969	2.44
402.333	2.96
402.697	2.78
403.06	2.92
403.424	2.67
403.787	2.8
404.151	2.66
404.514	2.87
404.878	3.1
405.241	2.9
405.604	2.99
405.968	2.79
406.331	2.78
406.694	2.96
407.057	2.59
407.42	2.8
407.783	2.74
408.146	2.91
408.509	2.71
408.872	2.7
409.235	2.87
409.598	2.81
409.961	3.03
410.323	2.96
410.686	2.9
411.049	3.05
411.411	3.1
411.774	2.68
412.136	2.84
412.499	2.94
412.861	2.96
413.223	2.73
413.586	2.89
413.948	2.86
414.31	2.64
414.672	2.91
415.035	2.85
415.397	3
415.759	3.17
416.121	2.71
416.483	2.93
416.845	2.75
417.206	2.71
417.568	2.6
417.93	2.7
418.292	2.71
418.653	2.83
419.015	2.74
419.377	2.73
419.738	2.85
420.1	2.73
420.461	2.87
420.822	2.82
421.184	2.77
421.545	2.76
421.906	2.72
422.267	2.75
422.629	2.87
422.99	2.77
423.351	2.68
423.712	2.73
424.073	2.84
424.434	2.74
424.795	2.78
425.155	2.8
425.516	2.8
425.877	2.71
426.238	2.65
426.598	2.74
426.959	2.76
427.32	2.73
427.68	2.73
428.041	2.61
428.401	2.93
428.761	2.89
429.122	2.78
429.482	2.84
429.842	2.77
430.202	2.67
430.563	2.9
430.923	2.91
431.283	2.78
431.643	2.94
432.003	2.86
432.363	3.04
432.722	2.83
433.082	2.97
433.442	2.89
433.802	3.07
434.161	2.85
434.521	2.87
434.881	2.91
435.24	2.62
435.6	2.69
435.959	2.73
436.319	2.79
436.678	3
437.037	2.86
437.396	2.82
437.756	2.94
438.115	2.93
438.474	2.88
438.833	2.95
439.192	2.8
439.551	2.8
439.91	3.03
440.269	2.94
440.628	2.79
440.987	2.83
441.345	2.95
441.704	2.91
442.063	2.74
442.421	2.85
442.78	2.79
443.138	2.76
443.497	2.83
443.855	2.83
444.214	2.69
444.572	2.98
444.93	2.85
445.288	2.81
445.647	3.11
446.005	2.8
446.363	2.83
446.721	2.89
447.079	2.82
447.437	2.87
447.795	2.84
448.153	2.77
448.51	2.76
448.868	2.72
449.226	2.87
449.584	2.8
449.941	2.7
450.299	2.86
450.656	2.85
451.014	3.01
451.371	2.86
451.729	2.86
452.086	2.75
452.443	2.98
452.801	2.8
453.158	2.88
453.515	3.13
453.872	2.85
454.229	2.8
454.586	2.95
454.943	2.79
455.3	2.92
455.657	2.75
456.014	2.92
456.371	3.02
456.727	3.19
457.084	3
457.441	2.71
457.797	2.94
458.154	3.06
458.51	2.7
458.867	2.91
459.223	2.83
459.58	3.02
459.936	2.91
460.292	3.03
460.648	3
461.005	2.86
461.361	2.9
461.717	2.74
462.073	2.76
462.429	2.63
462.785	2.7
463.141	2.9
463.496	2.92
463.852	2.81
464.208	2.85
464.564	3.14
464.919	2.85
465.275	3.02
465.631	2.93
465.986	3
466.342	3.04
466.697	2.87
467.052	2.82
467.408	3.02
467.763	3.03
468.118	3.22
468.473	2.98
468.829	2.89
469.184	2.87
469.539	2.96
469.894	2.94
470.249	2.96
470.603	2.81
470.958	3.02
471.313	2.87
471.668	3
472.023	2.89
472.377	2.88
472.732	2.88
473.086	3.07
473.441	2.73
473.795	3.16
474.15	2.88
474.504	2.94
474.859	3
475.213	2.8
475.567	2.7
475.921	2.9
476.275	2.93
476.63	2.82
476.984	2.9
477.338	3
477.692	2.94
478.045	3.04
478.399	2.97
478.753	2.93
479.107	2.83
479.461	2.86
479.814	3.01
480.168	2.92
480.521	3.05
480.875	2.97
481.228	2.87
481.582	2.76
481.935	2.9
482.289	2.91
482.642	2.96
482.995	2.78
483.348	2.84
483.701	2.89
484.055	2.95
484.408	2.83
484.761	2.82
485.114	2.61
485.466	2.72
485.819	2.64
486.172	2.6
486.525	2.65
486.878	2.65
487.23	2.7
487.583	2.78
487.936	2.79
488.288	2.8
488.641	2.78
488.993	2.72
489.345	2.69
489.698	2.62
490.05	2.68
490.402	2.75
490.754	2.76
491.107	2.75
491.459	2.83
491.811	2.81
492.163	2.78
492.515	2.86
492.866	2.84
493.218	2.82
493.57	2.72
493.922	2.71
494.274	2.68
494.625	2.73
494.977	2.85
495.328	2.88
495.68	2.98
496.031	2.87
496.383	2.91
496.734	2.93
497.086	2.83
497.437	2.96
497.788	3
498.139	2.88
498.49	2.97
498.842	2.72
499.193	2.78
499.544	2.83
499.894	2.82
500.245	2.85
500.596	2.96
500.947	2.96
501.298	2.87
501.648	2.84
501.999	2.88
502.35	2.89
502.7	3.01
503.051	3.02
503.401	2.94
503.752	2.87
504.102	2.96
504.452	2.83
504.803	2.86
505.153	2.84
505.503	2.84
505.853	3.03
506.203	2.86
506.553	2.99
506.903	2.96
507.253	2.88
507.603	2.98
507.953	2.98
508.303	2.96
508.652	2.79
509.002	3.06
509.352	2.92
509.701	2.93
510.051	2.92
510.4	2.97
510.75	2.92
511.099	2.63
511.449	2.94
511.798	2.92
512.147	2.93
512.496	2.84
512.846	2.96
513.195	2.93
513.544	2.87
513.893	2.98
514.242	2.81
514.591	2.93
514.939	2.97
515.288	2.83
515.637	2.88
515.986	2.85
516.334	2.9
516.683	2.91
517.032	2.95
517.38	2.97
517.729	2.87
518.077	3.03
518.426	2.89
518.774	2.95
519.122	2.88
519.47	2.86
519.819	2.89
520.167	2.99
520.515	2.92
520.863	2.78
521.211	2.88
521.559	2.9
521.907	2.9
522.255	2.89
522.602	2.86
522.95	2.86
523.298	3
523.645	3.04
523.993	2.93
524.341	2.93
524.688	2.99
525.036	2.96
525.383	2.9
525.73	3
526.078	3.07
526.425	2.97
526.772	3.01
527.119	2.84
527.466	2.84
527.814	2.76
528.161	2.79
528.508	2.87
528.854	2.93
529.201	2.88
529.548	2.89
529.895	2.82
530.242	2.8
530.588	2.73
530.935	2.64
531.282	2.67
531.628	2.78
531.975	2.77
532.321	2.82
532.667	2.87
533.014	2.92
533.36	2.92
533.706	2.83
534.052	3
534.399	2.81
534.745	2.8
535.091	2.74
535.437	2.81
535.783	2.74
536.129	2.79
536.474	2.91
536.82	2.82
537.166	2.91
537.512	2.94
537.857	2.92
538.203	3
538.549	2.88
538.894	2.78
539.239	2.86
539.585	2.81
539.93	2.92
540.276	2.91
540.621	3
540.966	2.95
541.311	2.94
541.656	2.87
542.001	2.91
542.346	2.98
542.691	2.94
543.036	2.85
543.381	2.79
543.726	2.73
544.071	2.78
544.415	2.8
544.76	2.82
545.105	2.77
545.449	2.78
545.794	2.94
546.138	2.93
546.483	2.92
546.827	2.92
547.171	2.89
547.516	3.03
547.86	3.08
548.204	3
548.548	2.99
548.892	2.96
549.236	2.84
549.58	2.93
549.924	3.03
550.268	3.06
550.612	2.86
550.956	2.99
551.3	2.99
551.643	3.02
551.987	2.98
552.33	3.1
552.674	3.13
553.017	2.95
553.361	2.86
553.704	2.99
554.048	3
554.391	3.09
554.734	3.16
555.077	3.07
555.42	2.92
555.764	2.93
556.107	3.03
556.45	3.02
556.793	2.92
557.135	2.94
557.478	3.03
557.821	3.16
558.164	3.04
558.507	3.07
558.849	2.92
559.192	3.17
559.534	3.15
559.877	3.19
560.219	2.9
560.562	2.97
560.904	3.19
561.246	3.34
561.589	3.3
561.931	3.02
562.273	3.02
562.615	2.86
562.957	2.87
563.299	2.93
563.641	3.08
563.983	3.13
564.325	3.18
564.667	3.18
565.008	3.09
565.35	3.08
565.692	3.02
566.033	2.94
566.375	2.93
566.716	2.96
567.058	3.06
567.399	3.03
567.741	3.17
568.082	2.99
568.423	3.04
568.764	3.3
569.105	2.8
569.447	2.92
569.788	2.81
570.129	3.09
570.47	3.17
570.811	2.93
571.151	3.1
571.492	2.88
571.833	2.9
572.174	3.02
572.514	2.97
572.855	2.97
573.195	2.9
573.536	3
573.876	2.82
574.217	2.85
574.557	2.94
574.898	3.08
575.238	2.88
575.578	3.15
575.918	3.13
576.258	2.98
576.598	3.12
576.938	3.07
577.278	3.14
577.618	2.91
577.958	3.03
578.298	3.12
578.638	3.06
578.977	3.06
579.317	2.95
579.657	3.08
579.996	2.99
580.336	3.04
580.675	3.04
581.014	3.07
581.354	2.82
581.693	3.07
582.032	3.17
582.372	3.02
582.711	3.23
583.05	3.07
583.389	3.09
583.728	3.04
584.067	3.08
584.406	3.28
584.745	2.89
585.083	3.21
585.422	3.25
585.761	3
586.1	2.98
586.438	3.19
586.777	3.13
587.115	3.4
587.454	2.92
587.792	3.1
588.13	3.2
588.469	2.96
588.807	3.2
589.145	3.25
589.483	2.89
589.821	3.08
590.159	3.16
590.497	3.38
590.835	3.03
591.173	2.83
591.511	3.2
591.849	3.01
592.187	3.04
592.524	3.31
592.862	3.27
593.2	3
593.537	2.91
593.875	3.1
594.212	3.07
594.55	3.38
594.887	2.99
595.224	3.06
595.561	3.3
595.899	3.19
596.236	3.49
596.573	3.24
596.91	3.33
597.247	3.31
597.584	3.25
597.921	3.21
598.258	3.16
598.594	3.01
598.931	3.11
599.268	3.01
599.604	3.16
599.941	3.08
600.277	2.91
600.614	3.24
600.95	3.15
601.287	3.03
601.623	3
601.959	3.06
602.296	3.01
602.632	2.76
602.968	3.14
603.304	3.06
603.64	2.94
603.976	3.06
604.312	3.26
604.648	2.94
604.984	3.06
605.319	3.07
605.655	2.94
605.991	3.12
606.326	3.26
606.662	3.11
606.998	2.9
607.333	3.12
607.668	2.96
608.004	3.19
608.339	2.98
608.674	3.07
609.01	3.21
609.345	3.11
609.68	3.09
610.015	2.98
610.35	3.14
610.685	3.37
611.02	3.27
611.355	3.52
611.689	3.18
612.024	3.06
612.359	3.24
612.694	3.14
613.028	3.11
613.363	2.97
613.697	2.93
614.032	3.22
614.366	2.86
614.7	3.04
615.035	3
615.369	3.09
615.703	3.13
616.037	3.21
616.371	3.61
616.705	3.63
617.039	3.1
617.373	3.23
617.707	3.06
618.041	3.61
618.375	3.2
618.709	3.09
619.042	3.44
619.376	3.56
619.71	3.4
620.043	3.14
620.377	3.02
620.71	3.25
621.043	3.38
621.377	3.19
621.71	3.18
622.043	3.09
622.376	3.4
622.709	3.37
623.043	3.41
623.376	3.15
623.709	3.28
624.041	3.17
624.374	3.45
624.707	3.21
625.04	3.38
625.373	2.77
625.705	3.12
626.038	3.3
626.37	3.63
626.703	3.12
627.035	3.27
627.368	3.09
627.7	3.35
628.032	3.26
628.365	3.28
628.697	3.18
629.029	3.01
629.361	3.22
629.693	3.06
630.025	3.26
630.357	3.2
630.689	3.24
631.021	3.27
631.353	2.8
631.684	3.12
632.016	3.33
632.348	3.17
632.679	2.86
633.011	3.32
633.342	3.43
633.674	3.77
634.005	2.92
634.336	3.57
634.668	3.17
634.999	3.18
635.33	3.42
635.661	3.34
635.992	3.44
636.323	3
636.654	3.15
636.985	3.04
637.316	3.26
637.647	3.75
637.977	2.72
638.308	3.5
638.639	3.25
638.969	3.55
639.3	3.28
639.63	3.4
639.961	3.09
640.291	3.29
640.622	3.21
640.952	3.63
641.282	3.56
641.612	3.33
641.943	3.35
642.273	3.85
642.603	2.99
642.933	3.05
643.263	2.67
643.592	3.06
643.922	3.26
644.252	3.45
644.582	3.56
644.911	3.25
645.241	3.49
645.571	3.12
645.9	3.62
646.23	3.63
646.559	3.85
646.888	3.66
647.218	3.39
647.547	3.5
647.876	3.01
648.205	2.86
648.534	3.61
648.863	3.41
649.192	2.96
649.521	3.7
649.85	3.52
650.179	3.57
650.508	3.12
650.837	4
651.165	3.47
651.494	3.29
651.822	3.4
652.151	3.24
652.479	3.63
652.808	3.54
653.136	3.64
653.465	3.54
653.793	3.04
654.121	3.59
654.449	2.92
654.777	3.7
655.105	3.34
655.433	3.25
655.761	3.6
656.089	3.43
656.417	3.19
656.745	3.13
657.073	3.45
657.4	3.65
657.728	3.24
658.056	3.5
658.383	3.86
658.711	3.08
659.038	3.11
659.365	3.66
659.693	2.7
660.02	3.85
660.347	3.35
660.674	2.88
661.001	3.44
661.329	3.22
661.656	3.5
661.982	3.23
662.309	3.74
662.636	3.57
662.963	3.5
663.29	3.76
663.616	3.83
663.943	3.7
664.27	3.51
664.596	3.06
664.923	3.35
665.249	3.48
665.576	3.27
665.902	3.26
666.228	3.33
666.554	3.39
666.881	3.59
667.207	3.85
667.533	3.21
667.859	3.32
668.185	3.65
668.511	4.18
668.837	3.59
669.162	3.81
669.488	3.36
669.814	2.74
670.139	3.23
670.465	3.93
670.791	3.81
671.116	3.2
671.442	3.92
671.767	3.1
672.092	4.15
672.418	4.07
672.743	3.29
673.068	4.28
673.393	2.95
673.718	3.74
674.043	3.68
674.368	3.37
674.693	3.35
675.018	3.55
675.343	3.86
675.667	3.4
675.992	3.45
676.317	4.16
676.641	3.23
676.966	4.09
677.29	3.9
677.615	3.41
677.939	3.84
678.264	3.83
678.588	4.25
678.912	3.57
679.236	3.34
679.56	3.48
679.885	2.85
680.209	4.01
680.532	3.37
680.856	3.08
681.18	4.02
681.504	3.46
681.828	4.09
682.152	3.36
682.475	3.85
682.799	3.86
683.122	3.21
683.446	3.37
683.769	4.08
684.093	3.38
684.416	3.94
684.739	3.99
685.062	4.31
685.386	3.46
685.709	3.53
686.032	3.63
686.355	3.44
686.678	4.09
687.001	3.99
687.324	4.44
687.646	4.23
687.969	3.63
688.292	3.82
688.614	4.51
688.937	3.86
689.26	3.58
689.582	3.7
689.904	3.47
690.227	4.73
690.549	4.28
690.871	3.02
691.194	3.72
691.516	3.58
691.838	4.17
692.16	3.53
692.482	3.79
692.804	2.79
693.126	3.08
693.448	4.28
693.769	3.29
694.091	3.72
694.413	3.96
694.735	3.45
695.056	4.12
695.378	4.36
695.699	3.62
696.021	3.28
696.342	4.44
696.663	3.76
696.984	4.05
697.306	3.37
697.627	3.28
697.948	4.05
698.269	4.14
698.59	3.61
698.911	3.94
699.232	4.57
699.553	3.74
699.873	4.4
700.194	3.06
700.515	3.24
700.835	4.06
701.156	3.98
701.477	3.67
701.797	3.71
702.117	4.19
702.438	3.68
702.758	3.42
703.078	3.8
703.398	4.01
703.719	3.8
704.039	4.61
704.359	3.68
704.679	2.42
704.999	3.54
705.319	4.74
705.638	3.5
705.958	4.23
706.278	4.88
706.597	4.29
706.917	4.67
707.237	3.06
707.556	2.44
707.876	3.77
708.195	4.6
708.514	5.24
708.834	3.72
709.153	5.57
709.472	4.13
709.791	4.15
710.11	3.98
710.429	4.6
710.748	4.03
711.067	4.18
711.386	5.24
711.705	4.29
712.023	3.89
712.342	3.94
712.661	4.3
712.979	2.94
713.298	5.53
713.616	4.16
713.935	4.3
714.253	4.98
714.572	4.67
714.89	4.61
715.208	4.27
715.526	3.88
715.844	4.96
716.162	2.82
716.48	4.17
716.798	3.79
717.116	4.81
717.434	4.23
717.752	4.87
718.069	3.1
718.387	3.49
718.705	3.26
719.022	3.56
719.34	4.96
719.657	2.87
719.975	4.61
720.292	4.37
720.609	4.06
720.927	6.11
721.244	5.48
721.561	5
721.878	4.49
722.195	4.2
722.512	3.9
722.829	5.26
723.146	4.45
723.463	4.43
723.779	3.97
724.096	4.33
724.413	5
724.729	6
725.046	5.14
725.362	4.55
725.679	3.79
725.995	4.28
726.311	3.13
726.628	3.45
726.944	2.8
727.26	5.09
727.576	4.39
727.892	2.32
728.208	5.9
728.524	6.06
728.84	3.64
729.156	5.01
729.472	5.51
729.787	4.99
730.103	4.26
730.419	5.41
730.734	4.47
731.05	3.24
731.365	4.48
731.681	4.53
731.996	5.22
732.311	4.73
732.626	4.41
732.942	4.71
733.257	4.42
733.572	3.69
733.887	5.36
734.202	4.67
734.517	4.01
734.832	4.82
735.146	4.65
735.461	4.47
735.776	4.42
736.091	4.8
736.405	4.2
736.72	4.22
737.034	4.35
737.349	3.01
737.663	4.27
737.977	6.17
738.292	3.96
738.606	4.76
738.92	5.41
739.234	3.86
739.548	5.84
739.862	4.85
740.176	5.3
740.49	4.69
740.804	6.11
741.117	4.95
741.431	5.79
741.745	6.37
742.058	3.87
742.372	3.87
742.685	5.46
742.999	3.59
743.312	5.62
743.626	4.61
743.939	3.84
744.252	4.87
744.565	3.18
744.878	2.91
745.191	5.71
745.505	3.41
745.817	4.97
746.13	8.07
746.443	7.31
746.756	5.42
747.069	6.35
747.381	2.08
747.694	3.93
748.007	5.17
748.319	7.64
748.632	5.31
748.944	8.3
749.256	6.61
749.569	4.5
749.881	5.09
750.193	6.09
750.505	6.63
750.817	6.73
751.129	5.55
751.441	5
751.753	5.53
752.065	6.67
752.377	5.57
752.689	4.55
753	5.19
753.312	4.32
753.624	6.6
753.935	6.32
754.247	5.45
754.558	6.29
754.869	4.41
755.181	4.02
755.492	4.86
755.803	7.64
756.114	6.8
756.425	7.4
756.736	3.8
757.047	5.46
757.358	4.76
757.669	3.37
757.98	4.84
758.291	4.68
758.601	5.38
758.912	5.47
759.223	6.77
759.533	5.96
759.844	7.32
760.154	5.07
760.464	5.28
760.775	6.5
761.085	6.24
761.395	6.3
761.705	6.15
762.016	4.46
762.326	5.19
762.636	5.76
762.945	4.59
763.255	5.54
763.565	4.61
763.875	4.94
764.185	7.31
764.494	7.5
764.804	5.78
765.113	3.68
765.423	2.89
765.732	5.84
766.042	6.1
766.351	4.99
766.66	5.97
766.97	5.2
767.279	5.25
767.588	5.21
767.897	6.22
768.206	6.82
768.515	6.07
768.824	6.65
769.133	5.94
769.441	5.21
769.75	7.34
770.059	8.04
770.367	5.79
770.676	7.04
770.984	4.74
771.293	5.36
771.601	6.7
771.91	5.78
772.218	5.02
772.526	6.12
772.834	7.33
773.142	6.67
773.45	6.45
773.758	4.32
774.066	4.98
774.374	6.12
774.682	4.21
774.99	7.91
775.298	8.14
775.605	6.97
775.913	7.09
776.22	5.74
776.528	5.69
776.835	3.32
777.143	8.61
777.45	6.43
777.757	7.48
778.065	4.77
778.372	7.62
778.679	7.44
778.986	9.07
779.293	4.64
779.6	6.43
779.907	7.54
780.214	13.67
780.52	3.97
780.827	8.42
781.134	8.66
781.44	7.98
781.747	6.6
782.053	6.81
782.36	6.14
782.666	4.78
782.973	10.73
783.279	4.91
783.585	7.84
783.891	7.31
784.197	7.51
784.503	4.92
784.809	6.93
785.115	6.8
785.421	9.47
785.727	7.75
786.033	7.03
786.339	8.1
786.644	11.27
786.95	7.73
787.255	6.16
787.561	6.08
787.866	7
788.172	6.17
788.477	7.68
788.782	5.68
789.088	6.57
789.393	2.2
789.698	7.41
790.003	4.01
790.308	6.05
790.613	6.81
790.918	8.03
791.223	3.35
791.527	3.33
791.832	6.11
792.137	5.42
792.441	6.63
792.746	5.63
793.05	8.05
793.355	13.61
793.659	11.34
793.963	9.72
794.268	3.78
794.572	8.41
794.876	7.13
795.18	6.54
795.484	3.45
795.788	4.28
796.092	6.83
796.396	11.03
796.7	9.69
797.004	8.78
797.307	2.01
797.611	-3.75
797.915	4.23
798.218	8.53
798.522	6.47
798.825	5.23
799.128	9.01
799.432	4.67
799.735	9.82
800.038	11.76
800.341	9.05
800.644	7.1
800.947	6.43
801.25	8.14
801.553	9.93
801.856	13.69
802.159	6.1
802.462	7.8
802.764	8.67
803.067	3.74
803.37	11.09
803.672	8.12
803.975	9.92
804.277	12.32
804.579	9.73
804.882	8.08
805.184	7.86
805.486	13.8
805.788	10.97
806.09	10.21
806.392	5.89
806.694	8.86
806.996	5.12
807.298	8.73
807.6	10.58
807.902	9.66
808.203	9.31
808.505	9.28
808.807	6.05
809.108	5.66
809.409	10.96
809.711	4.14
810.012	11.97
810.313	6
810.615	7.33
810.916	3.71
811.217	10.61
811.518	8.16
811.819	10.52
812.12	4.29
812.421	6.99
812.722	4.62
813.023	6.33
813.323	9.24
813.624	14.02
813.925	10.73
814.225	11.21
814.526	8.35
814.826	11.24
815.126	10.26
815.427	4.11
815.727	7.38
816.027	6.66
816.327	5.89
816.627	14.31
816.927	12.44
817.227	6.89
817.527	10.49
817.827	3.08
818.127	10.6
818.427	12.5
818.727	11.82
819.026	12.29
819.326	12.08
819.625	0.44
819.925	9.88
820.224	9.69
820.524	10.6
820.823	2.16
821.122	-0.25
821.421	6.49
821.72	8.15
822.019	1.66
822.318	10.55
822.617	9.65
822.916	8.94
823.215	9.49
823.514	7.59
823.813	9.65
824.111	11.09
824.41	8.02
824.709	4.55
825.007	7.66
825.306	5.47
825.604	5.24
825.902	6.58
826.201	5.61
826.499	5.87
826.797	6.61
827.095	7.08
827.393	6.86
827.691	7.05
827.989	5.17
828.287	5.91
828.585	6.98
828.882	4.98
829.18	5.27
829.478	5.51
829.775	6.6
830.073	3.72
830.37	6.84
830.668	6.17
830.965	7.23
831.263	6.01
831.56	4.63
831.857	7.95
832.154	6.46
832.451	8.57
832.748	7.83
833.045	11.29
833.342	8.97
833.639	12.23
833.936	16.15
834.232	8.17
834.529	9.06
834.826	5.19
835.122	11.27
835.419	9.28
835.715	13.12
836.012	13.34
836.308	15.04
836.604	8
836.901	5.59
837.197	12.59
837.493	7.85
837.789	8.88
838.085	5.46
838.381	9.58
838.677	7.59
838.972	7.72
839.268	5.7
839.564	10.56
839.86	10.47
840.155	9
840.451	7.78
840.746	15.48
841.042	10.19
841.337	14.21
841.632	18.34
841.928	12.91
842.223	7.58
842.518	15.96
842.813	16.89
843.108	10.32
843.403	13.46
843.698	15.7
843.993	3.97
844.287	15.55
844.582	2.25
844.877	5.3
845.171	20.18
845.466	17.95
845.761	3.28
846.055	15.06
846.349	18.69
846.644	16.9
846.938	21.31
847.232	9.97
847.526	20.05
847.82	9.92
848.114	15.04
848.408	5.8
848.702	19.52
848.996	12.35
849.29	11.64
849.584	20.63
849.877	17.85
850.171	7.41
850.465	11.79
850.758	8.34
851.052	-6.72
851.345	13.45
851.638	11.91
851.932	25.94
852.225	10.72
852.518	36.44
852.811	26.52
853.104	16.61
853.397	18.12
853.69	6.76
853.983	25.12
854.276	21.49
854.569	32.87
854.861	4.62
855.154	14.05
855.447	17.75
855.739	-3.67
856.032	18.92
856.324	27.69
856.616	26.76
856.909	9.9
857.201	12.85
857.493	14.86
857.785	32.72
858.077	24.26
858.369	25.01
858.661	28.52
858.953	12.52
859.245	25.84
859.537	37.63
859.829	-1.72
860.12	15.67
860.412	33.52
860.703	6.14
860.995	12.47
861.286	29.07
861.578	31.12
861.869	-8.09
862.16	24.33
862.452	1.32
862.743	33.28
863.034	25.83
863.325	21.05
863.616	15.93
863.907	14.04
864.198	10.07
864.488	9.04
864.779	-17.63
865.07	8.18
865.36	21.61
865.651	33.83
865.941	0.06
866.232	27.58
866.522	28.13
866.813	23.8
867.103	13.53
867.393	24.09
867.683	13.2
867.973	-4.63
868.263	10.04
868.553	21.62
868.843	22.06
869.133	28.42
869.423	42.74
869.713	21.6
870.002	32.28
870.292	27.19
870.582	4.13
870.871	15.38
871.161	5.36
871.45	4.81
871.739	22.21
872.029	4.7
872.318	31.21
872.607	24.55
872.896	13.93
873.185	27.16
873.474	25.74
873.763	9.6
874.052	-7.06
874.341	11.83
874.63	22.05
874.918	-12.94
875.207	53.05
875.496	25.43
875.784	41.15
876.073	22.09
876.361	4.23
876.649	8.64
876.938	31.61
877.226	10.18
877.514	38.41
877.802	3.27
878.09	34.07
878.378	13.99
878.666	38.12
878.954	-1.26
879.242	32.74
879.53	14.61
879.817	25.5
880.105	-3.75
880.392	-0.59
880.68	8.68
880.967	31.65
881.255	30.4
881.542	19.29
881.83	33.92
882.117	10.34
882.404	21.91
882.691	-19.16
882.978	3.14
883.265	1.12
883.552	11.6
883.839	-13.77
884.126	28.51
884.413	27.31
884.699	21.46
884.986	11.29
885.273	5.89
885.559	5.89
885.846	5.89
