Data from 0190_crown_Reflection__1__133.txt Node

Date: Fri Sep 22 21:23:03 CDT 2023
User: ToomeyLab
Spectrometer: FLMS14357
Trigger mode: 0
Integration Time (sec): 1.000000E-2
Scans to average: 100
Electric dark correction enabled: true
Nonlinearity correction enabled: false
Boxcar width: 0
XAxis mode: Wavelengths
Number of Pixels in Spectrum: 2048
>>>>>Begin Spectral Data<<<<<
189.047	-358.85
189.435	-358.85
189.823	-358.85
190.211	104.62
190.599	120.28
190.987	131.21
191.375	128.76
191.763	139.47
192.151	122.99
192.538	-31.76
192.926	67.84
193.314	278.13
193.702	3052.5
194.089	-347.5
194.477	-157.5
194.864	81.09
195.252	23.63
195.639	-278.91
196.027	189.87
196.414	-95.12
196.801	-346.99
197.189	-259.72
197.576	72.69
197.963	-1582.5
198.351	45.17
198.738	13.47
199.125	-12.7
199.512	12.71
199.899	47.57
200.286	40.37
200.673	37.79
201.06	10.86
201.447	47.36
201.833	-39.95
202.22	52.61
202.607	43.46
202.994	83.73
203.38	25.79
203.767	19.37
204.154	45.67
204.54	32.56
204.927	28.25
205.313	39.72
205.699	41.43
206.086	27
206.472	75.31
206.858	31.62
207.245	21.16
207.631	17.76
208.017	7.38
208.403	4.67
208.789	24.07
209.175	40.56
209.561	38.55
209.947	48.59
210.333	48.26
210.719	1.03
211.105	44.23
211.491	31.11
211.876	29.1
212.262	37.55
212.648	48.03
213.034	23.99
213.419	6.97
213.805	30.62
214.19	-3.16
214.576	24.46
214.961	22.61
215.346	3.59
215.732	10.93
216.117	15.72
216.502	17.57
216.888	37.75
217.273	10.19
217.658	18.39
218.043	10.56
218.428	50.47
218.813	-27.69
219.198	5.25
219.583	32.33
219.968	-7.2
220.353	25.95
220.738	26.41
221.122	13.86
221.507	18.46
221.892	19.43
222.276	13.48
222.661	-5.45
223.046	35.5
223.43	21.96
223.815	12.02
224.199	12.98
224.583	12.15
224.968	13.85
225.352	12.54
225.736	18.18
226.121	6.41
226.505	13.21
226.889	13.34
227.273	8.45
227.657	2.95
228.041	2.73
228.425	8.95
228.809	1.68
229.193	9.39
229.577	7.65
229.961	8.84
230.344	8.24
230.728	6.77
231.112	6.5
231.495	6.77
231.879	7.21
232.263	6.81
232.646	5.53
233.03	5.21
233.413	5.99
233.797	5.53
234.18	4.86
234.563	5.41
234.946	5.12
235.33	3.37
235.713	6.42
236.096	6.42
236.479	5.58
236.862	7.45
237.245	7.25
237.628	7.44
238.011	5.71
238.394	8.03
238.777	7.79
239.16	5.92
239.543	8.36
239.925	7.12
240.308	6.82
240.691	8.37
241.073	7.18
241.456	5.67
241.838	6.16
242.221	6.84
242.603	7.05
242.986	6.21
243.368	4.59
243.75	5.59
244.133	6.83
244.515	5.91
244.897	5.29
245.279	5.38
245.661	5.93
246.043	5.94
246.425	5.22
246.807	6.22
247.189	4.6
247.571	5.8
247.953	5.49
248.335	5.41
248.717	5.92
249.098	5.42
249.48	5.27
249.862	5.22
250.243	5.32
250.625	5.49
251.006	4.98
251.388	5.29
251.769	6.28
252.151	6.01
252.532	5.87
252.913	6.19
253.295	6.24
253.676	4.61
254.057	5.41
254.438	6.25
254.819	4.44
255.2	5.7
255.581	4.5
255.962	5.7
256.343	5.58
256.724	4.48
257.105	5.25
257.486	4.86
257.867	4.2
258.247	5.92
258.628	6.42
259.009	5.15
259.389	5.27
259.77	5.78
260.15	6.44
260.531	5.32
260.911	4.67
261.292	4.67
261.672	4.44
262.052	4.86
262.432	4.85
262.813	5.04
263.193	4.77
263.573	5.51
263.953	5.19
264.333	5.38
264.713	4.87
265.093	5
265.473	4.61
265.853	3.74
266.233	4.73
266.612	4.95
266.992	5.49
267.372	5.25
267.752	5.47
268.131	5.01
268.511	5.19
268.89	4.88
269.27	5.08
269.649	4.89
270.029	4.9
270.408	5.01
270.787	4.51
271.167	4.59
271.546	4.25
271.925	5.2
272.304	4.11
272.683	4.59
273.062	5.02
273.441	4.64
273.82	5.04
274.199	4.88
274.578	5.14
274.957	4.41
275.336	4.86
275.715	5.04
276.093	4.6
276.472	4.71
276.851	4.99
277.229	4.25
277.608	4.57
277.986	4.36
278.365	4.94
278.743	5.04
279.122	5.19
279.5	4.78
279.878	4.28
280.257	4.97
280.635	4.33
281.013	4.94
281.391	3.91
281.769	4.71
282.147	4.66
282.525	4.73
282.903	4.3
283.281	4.93
283.659	5.05
284.037	4.61
284.415	4.8
284.792	4.55
285.17	4.69
285.548	4.68
285.925	4.34
286.303	4.73
286.68	4.47
287.058	4.49
287.435	4.45
287.813	4.44
288.19	4.47
288.567	4.43
288.945	4.77
289.322	4.32
289.699	4.72
290.076	4.41
290.453	4.54
290.83	3.82
291.207	4.18
291.584	4.37
291.961	4.25
292.338	4.61
292.715	4.37
293.092	4.44
293.469	4.53
293.845	4.29
294.222	4.66
294.599	4.32
294.975	4.7
295.352	5.42
295.728	4.22
296.105	4.83
296.481	4.61
296.858	4.59
297.234	4.3
297.61	4.47
297.986	4.74
298.363	4.77
298.739	4.82
299.115	4.83
299.491	4.68
299.867	4.57
300.243	4.4
300.619	4.49
300.995	4.58
301.371	4.82
301.746	5.09
302.122	4.33
302.498	4.19
302.874	4.15
303.249	4.39
303.625	4.36
304	4.81
304.376	4.89
304.751	4.92
305.127	4.96
305.502	4.14
305.878	4.64
306.253	4.52
306.628	4.84
307.003	4.26
307.378	4.34
307.754	4.18
308.129	4.38
308.504	4.39
308.879	4.52
309.254	4.68
309.629	4.76
310.003	4.63
310.378	5.09
310.753	4.92
311.128	4.57
311.502	5.02
311.877	4.54
312.252	4.59
312.626	4.53
313.001	4.87
313.375	4.45
313.75	4.53
314.124	4.79
314.498	4.4
314.873	4.74
315.247	4.61
315.621	4.82
315.995	4.57
316.369	4.48
316.743	4.86
317.117	4.67
317.491	4.92
317.865	4.5
318.239	4.63
318.613	4.95
318.987	4.73
319.361	4.71
319.734	4.81
320.108	5.07
320.482	4.4
320.855	4.19
321.229	5.26
321.602	4.86
321.976	4.75
322.349	4.64
322.723	4.53
323.096	4.86
323.469	4.65
323.843	4.47
324.216	5.21
324.589	4.87
324.962	4.33
325.335	4.31
325.708	4.48
326.081	4.82
326.454	4.51
326.827	4.65
327.2	4.66
327.573	4.9
327.945	4.58
328.318	4.77
328.691	4.99
329.063	4.57
329.436	5.03
329.809	4.75
330.181	5.26
330.553	4.55
330.926	4.58
331.298	4.26
331.671	4.69
332.043	4.14
332.415	4.64
332.787	5.68
333.159	4.72
333.532	4.6
333.904	4.9
334.276	4.45
334.648	4.16
335.02	4.63
335.391	4.87
335.763	4.89
336.135	4.68
336.507	5.13
336.879	4.52
337.25	4.66
337.622	4.7
337.993	5.29
338.365	4.91
338.736	4.91
339.108	4.65
339.479	4.67
339.851	4.05
340.222	4.65
340.593	4.67
340.964	4.13
341.336	4.76
341.707	4.47
342.078	5.16
342.449	5.03
342.82	4.91
343.191	4.94
343.562	4.94
343.933	4.77
344.303	4.81
344.674	5.02
345.045	4.74
345.416	5.12
345.786	4.45
346.157	4.51
346.527	4.41
346.898	4.59
347.268	5.05
347.639	5
348.009	4.93
348.38	4.75
348.75	4.78
349.12	4.75
349.49	4.74
349.861	4.46
350.231	4.75
350.601	4.85
350.971	5.11
351.341	4.45
351.711	4.7
352.081	4.84
352.45	4.72
352.82	5.22
353.19	5.29
353.56	4.41
353.929	4.91
354.299	4.99
354.669	4.48
355.038	4.83
355.408	5.46
355.777	4.97
356.147	4.92
356.516	4.96
356.885	4.62
357.254	5.19
357.624	4.57
357.993	4.89
358.362	4.87
358.731	4.45
359.1	4.37
359.469	5.09
359.838	4.72
360.207	4.84
360.576	4.88
360.945	4.9
361.314	4.86
361.682	4.99
362.051	4.94
362.42	4.6
362.788	4.5
363.157	5.17
363.525	4.87
363.894	4.73
364.262	4.79
364.631	5.01
364.999	4.66
365.367	5.01
365.735	5.05
366.104	4.64
366.472	5.28
366.84	4.82
367.208	5.1
367.576	5.08
367.944	4.75
368.312	4.93
368.68	4.87
369.048	4.76
369.416	5.02
369.783	4.81
370.151	4.64
370.519	4.74
370.886	4.88
371.254	5.38
371.621	4.75
371.989	4.8
372.356	4.83
372.724	4.9
373.091	4.77
373.458	4.83
373.826	5.06
374.193	4.92
374.56	5.32
374.927	5.14
375.294	4.86
375.661	4.71
376.028	5.08
376.395	4.95
376.762	4.87
377.129	4.96
377.496	5.27
377.863	5.19
378.229	4.93
378.596	5.14
378.963	5.34
379.329	5.26
379.696	5.3
380.062	4.97
380.429	5.19
380.795	4.99
381.161	4.98
381.528	4.98
381.894	4.75
382.26	4.81
382.626	4.91
382.993	4.96
383.359	4.82
383.725	5.1
384.091	5.01
384.457	4.83
384.823	5.06
385.188	5.04
385.554	4.94
385.92	5.42
386.286	5.26
386.651	5.12
387.017	5.18
387.383	4.76
387.748	4.73
388.114	4.84
388.479	5.21
388.845	4.82
389.21	4.75
389.575	5.1
389.94	4.69
390.306	4.86
390.671	5.45
391.036	5
391.401	4.97
391.766	4.84
392.131	4.72
392.496	4.9
392.861	4.77
393.226	5.18
393.591	5.04
393.956	4.95
394.32	5.07
394.685	4.73
395.05	5.09
395.414	4.94
395.779	5.12
396.143	5.06
396.508	4.82
396.872	4.78
397.236	4.99
397.601	4.83
397.965	4.88
398.329	5.06
398.694	5.1
399.058	5.05
399.422	5.01
399.786	5.22
400.15	5.21
400.514	5.06
400.878	4.89
401.242	5.11
401.605	4.92
401.969	4.67
402.333	5.19
402.697	4.94
403.06	4.84
403.424	4.91
403.787	4.97
404.151	5.03
404.514	5
404.878	5.1
405.241	5.41
405.604	5.17
405.968	5
406.331	5.08
406.694	5.14
407.057	5.02
407.42	5.13
407.783	5.18
408.146	5.06
408.509	4.88
408.872	4.84
409.235	5.18
409.598	5.15
409.961	5.48
410.323	5.07
410.686	4.93
411.049	5.19
411.411	5.34
411.774	4.87
412.136	5.01
412.499	4.88
412.861	5.09
413.223	4.93
413.586	4.94
413.948	5.17
414.31	4.81
414.672	4.92
415.035	4.91
415.397	5.22
415.759	5.56
416.121	5.07
416.483	5.18
416.845	4.95
417.206	5.06
417.568	5.06
417.93	4.77
418.292	4.94
418.653	4.89
419.015	5.04
419.377	4.8
419.738	5.07
420.1	4.77
420.461	4.95
420.822	4.92
421.184	5.03
421.545	5.03
421.906	4.91
422.267	4.82
422.629	5.08
422.99	4.91
423.351	4.85
423.712	4.85
424.073	4.74
424.434	4.9
424.795	4.81
425.155	4.92
425.516	4.9
425.877	5.01
426.238	4.84
426.598	4.91
426.959	4.94
427.32	4.88
427.68	4.85
428.041	4.92
428.401	5.02
428.761	5.07
429.122	4.87
429.482	5.03
429.842	4.91
430.202	4.78
430.563	5.01
430.923	5.08
431.283	5.17
431.643	4.99
432.003	5.13
432.363	5.18
432.722	5.09
433.082	5.12
433.442	5.1
433.802	5.17
434.161	4.96
434.521	5.05
434.881	4.94
435.24	4.9
435.6	4.9
435.959	4.9
436.319	4.84
436.678	5.06
437.037	5.09
437.396	4.86
437.756	5.05
438.115	5.19
438.474	4.83
438.833	5
439.192	4.82
439.551	4.82
439.91	5.06
440.269	5.06
440.628	4.84
440.987	4.98
441.345	5.02
441.704	4.97
442.063	4.95
442.421	5.02
442.78	4.88
443.138	4.89
443.497	4.96
443.855	4.91
444.214	4.89
444.572	5.05
444.93	4.98
445.288	4.89
445.647	4.9
446.005	4.81
446.363	4.91
446.721	4.81
447.079	4.73
447.437	4.94
447.795	5.03
448.153	4.83
448.51	4.86
448.868	4.99
449.226	4.87
449.584	4.95
449.941	4.81
450.299	4.93
450.656	4.96
451.014	5
451.371	4.87
451.729	4.93
452.086	4.89
452.443	5.04
452.801	5.06
453.158	5.02
453.515	5.04
453.872	4.97
454.229	4.93
454.586	4.99
454.943	5
455.3	4.87
455.657	4.87
456.014	4.92
456.371	5.01
456.727	5.08
457.084	5.01
457.441	4.96
457.797	5.07
458.154	5.04
458.51	4.93
458.867	5
459.223	4.96
459.58	5.07
459.936	4.96
460.292	5
460.648	5.04
461.005	5.05
461.361	5.05
461.717	4.78
462.073	4.88
462.429	4.78
462.785	4.87
463.141	4.8
463.496	5.02
463.852	4.85
464.208	4.86
464.564	5.05
464.919	4.92
465.275	5.15
465.631	5.1
465.986	5.04
466.342	5.07
466.697	4.91
467.052	4.89
467.408	4.95
467.763	5.03
468.118	5.19
468.473	5.16
468.829	4.89
469.184	5.04
469.539	4.98
469.894	4.93
470.249	4.94
470.603	4.8
470.958	5.03
471.313	4.99
471.668	4.97
472.023	5.05
472.377	4.89
472.732	4.85
473.086	5.16
473.441	4.88
473.795	5.11
474.15	4.77
474.504	4.94
474.859	4.95
475.213	4.69
475.567	4.82
475.921	4.89
476.275	4.95
476.63	4.81
476.984	4.92
477.338	5.19
477.692	5.1
478.045	5.13
478.399	5.15
478.753	5.1
479.107	5.08
479.461	4.85
479.814	5
480.168	5.07
480.521	4.92
480.875	5.01
481.228	4.94
481.582	4.96
481.935	4.85
482.289	4.85
482.642	4.92
482.995	4.91
483.348	4.92
483.701	4.8
484.055	4.89
484.408	4.9
484.761	4.91
485.114	4.7
485.466	4.74
485.819	4.65
486.172	4.61
486.525	4.6
486.878	4.63
487.23	4.66
487.583	4.7
487.936	4.76
488.288	4.86
488.641	4.84
488.993	4.71
489.345	4.72
489.698	4.69
490.05	4.64
490.402	4.69
490.754	4.61
491.107	4.66
491.459	4.74
491.811	4.79
492.163	4.77
492.515	4.83
492.866	4.75
493.218	4.88
493.57	4.78
493.922	4.66
494.274	4.71
494.625	4.72
494.977	4.76
495.328	4.85
495.68	4.87
496.031	4.76
496.383	4.87
496.734	4.92
497.086	4.91
497.437	4.96
497.788	5.01
498.139	4.95
498.49	5.04
498.842	4.79
499.193	4.8
499.544	4.9
499.894	4.82
500.245	4.89
500.596	4.83
500.947	4.96
501.298	4.95
501.648	4.92
501.999	4.79
502.35	4.98
502.7	5.1
503.051	4.88
503.401	4.9
503.752	4.89
504.102	4.95
504.452	4.88
504.803	4.81
505.153	4.82
505.503	4.92
505.853	4.97
506.203	4.77
506.553	5.06
506.903	5.02
507.253	4.84
507.603	5.06
507.953	5.01
508.303	4.91
508.652	4.88
509.002	5.05
509.352	4.81
509.701	4.96
510.051	4.77
510.4	4.93
510.75	4.94
511.099	4.84
511.449	4.82
511.798	4.86
512.147	4.89
512.496	4.72
512.846	4.94
513.195	4.9
513.544	4.99
513.893	4.86
514.242	4.83
514.591	4.82
514.939	4.88
515.288	4.73
515.637	4.83
515.986	4.85
516.334	4.93
516.683	4.94
517.032	4.93
517.38	5.04
517.729	4.92
518.077	4.93
518.426	4.95
518.774	4.93
519.122	4.93
519.47	4.86
519.819	4.86
520.167	4.88
520.515	4.95
520.863	4.77
521.211	4.8
521.559	4.88
521.907	4.84
522.255	4.87
522.602	4.92
522.95	4.86
523.298	5.01
523.645	5.01
523.993	4.94
524.341	4.84
524.688	5.11
525.036	4.89
525.383	4.99
525.73	5.06
526.078	4.92
526.425	4.88
526.772	5.01
527.119	4.87
527.466	4.84
527.814	4.9
528.161	4.78
528.508	4.78
528.854	4.81
529.201	4.82
529.548	4.81
529.895	4.8
530.242	4.83
530.588	4.71
530.935	4.65
531.282	4.65
531.628	4.7
531.975	4.67
532.321	4.69
532.667	4.83
533.014	4.85
533.36	4.78
533.706	4.78
534.052	4.92
534.399	4.86
534.745	4.85
535.091	4.75
535.437	4.78
535.783	4.65
536.129	4.76
536.474	4.83
536.82	4.72
537.166	4.89
537.512	4.94
537.857	4.88
538.203	4.92
538.549	4.84
538.894	4.83
539.239	4.87
539.585	4.8
539.93	4.97
540.276	4.86
540.621	4.91
540.966	4.91
541.311	4.94
541.656	4.87
542.001	5.01
542.346	4.9
542.691	4.93
543.036	4.84
543.381	4.79
543.726	4.74
544.071	4.74
544.415	4.74
544.76	4.72
545.105	4.72
545.449	4.76
545.794	4.86
546.138	4.89
546.483	4.88
546.827	4.77
547.171	4.93
547.516	5.03
547.86	5
548.204	5.02
548.548	4.9
548.892	5.03
549.236	4.82
549.58	4.87
549.924	5.04
550.268	5.08
550.612	5.04
550.956	4.94
551.3	5.06
551.643	4.95
551.987	5.03
552.33	5.11
552.674	4.92
553.017	4.86
553.361	4.95
553.704	5.13
554.048	5.06
554.391	4.98
554.734	5.09
555.077	4.98
555.42	4.94
555.764	4.9
556.107	4.96
556.45	4.83
556.793	4.8
557.135	4.97
557.478	4.72
557.821	4.96
558.164	5.22
558.507	5.1
558.849	4.82
559.192	5.18
559.534	5.23
559.877	5.05
560.219	5.01
560.562	5.1
560.904	5.11
561.246	5.21
561.589	5.07
561.931	5.02
562.273	4.94
562.615	5.06
562.957	4.9
563.299	5.08
563.641	4.96
563.983	5.07
564.325	5.29
564.667	5.07
565.008	5.1
565.35	4.97
565.692	5.04
566.033	5.02
566.375	4.94
566.716	5.28
567.058	5.06
567.399	5.13
567.741	5.22
568.082	5.12
568.423	5.02
568.764	5.19
569.105	4.94
569.447	5.04
569.788	4.92
570.129	5.1
570.47	5.16
570.811	5.09
571.151	5.23
571.492	5
571.833	4.99
572.174	5.05
572.514	5.23
572.855	5.17
573.195	4.99
573.536	5.12
573.876	5.11
574.217	5.04
574.557	4.95
574.898	5.04
575.238	4.87
575.578	5.03
575.918	5.16
576.258	5
576.598	5.28
576.938	5.17
577.278	5.33
577.618	5.03
577.958	5.1
578.298	5.24
578.638	5.09
578.977	5.05
579.317	5.16
579.657	5.04
579.996	4.93
580.336	5.31
580.675	5.2
581.014	5.09
581.354	4.93
581.693	5.06
582.032	5.32
582.372	5.14
582.711	5.09
583.05	5.21
583.389	5.12
583.728	5.14
584.067	5.2
584.406	5.1
584.745	5.11
585.083	5.48
585.422	5.33
585.761	5.11
586.1	5.06
586.438	5.17
586.777	5.21
587.115	5.28
587.454	4.95
587.792	5.26
588.13	5.23
588.469	5.28
588.807	5.42
589.145	5.25
589.483	5.14
589.821	5.19
590.159	4.94
590.497	5.45
590.835	5.18
591.173	5.28
591.511	5.08
591.849	5.34
592.187	5.03
592.524	5.22
592.862	5.15
593.2	5.2
593.537	5.08
593.875	5.25
594.212	5.26
594.55	5.37
594.887	5.29
595.224	5.26
595.561	5.54
595.899	5.32
596.236	5.57
596.573	5.24
596.91	5.31
597.247	5.16
597.584	5.52
597.921	5.35
598.258	5.4
598.594	5.19
598.931	5.1
599.268	5.21
599.604	5.32
599.941	5.16
600.277	5.01
600.614	5.18
600.95	5.28
601.287	5.2
601.623	5.3
601.959	5.4
602.296	5.34
602.632	5.08
602.968	5.35
603.304	5.4
603.64	5.15
603.976	5.27
604.312	5.17
604.648	5.15
604.984	5.26
605.319	5.17
605.655	5.1
605.991	5.34
606.326	5.35
606.662	5.11
606.998	5.29
607.333	5.28
607.668	5.24
608.004	5.28
608.339	4.98
608.674	5.23
609.01	5.29
609.345	5.44
609.68	5.36
610.015	5.32
610.35	5.27
610.685	5.35
611.02	5.36
611.355	5.5
611.689	5.15
612.024	5.31
612.359	5.22
612.694	5.12
613.028	5.28
613.363	5.17
613.697	5.19
614.032	5.25
614.366	5.15
614.7	5.21
615.035	5.28
615.369	5.24
615.703	5.21
616.037	5.2
616.371	5.44
616.705	5.71
617.039	5.35
617.373	5.44
617.707	5.56
618.041	5.3
618.375	5.37
618.709	5.54
619.042	5.21
619.376	5.55
619.71	5.4
620.043	5.13
620.377	5.13
620.71	5.47
621.043	5.66
621.377	5.16
621.71	5.19
622.043	5.33
622.376	5.51
622.709	5.62
623.043	5.11
623.376	5.15
623.709	5.66
624.041	5.27
624.374	5.58
624.707	5.39
625.04	5.63
625.373	4.9
625.705	5.36
626.038	5.49
626.37	5.64
626.703	5.37
627.035	5.55
627.368	5.42
627.7	5.86
628.032	5.75
628.365	5.57
628.697	5.6
629.029	5.51
629.361	5.67
629.693	5.53
630.025	5.65
630.357	5.41
630.689	5.41
631.021	5.22
631.353	5.24
631.684	5.39
632.016	5.63
632.348	5.44
632.679	5.32
633.011	5.8
633.342	5.66
633.674	5.83
634.005	5.12
634.336	5.72
634.668	5.73
634.999	5.6
635.33	5.81
635.661	5.73
635.992	5.5
636.323	5.74
636.654	5.2
636.985	5.25
637.316	5.54
637.647	5.31
637.977	5.32
638.308	5.71
638.639	5.56
638.969	5.62
639.3	5.29
639.63	5.75
639.961	5.06
640.291	5.28
640.622	5.61
640.952	5.6
641.282	5.51
641.612	5.54
641.943	5.85
642.273	5.55
642.603	5.56
642.933	4.93
643.263	4.94
643.592	5.57
643.922	5.84
644.252	5.59
644.582	6.12
644.911	6.05
645.241	5.69
645.571	5.13
645.9	5.61
646.23	6.37
646.559	5.56
646.888	5.53
647.218	5.82
647.547	5.64
647.876	5.65
648.205	5.6
648.534	5.8
648.863	5.49
649.192	5.05
649.521	5.68
649.85	6.09
650.179	6.08
650.508	5.52
650.837	5.91
651.165	5.83
651.494	5.64
651.822	5.63
652.151	5.78
652.479	6.21
652.808	5.65
653.136	5.72
653.465	5.85
653.793	6.37
654.121	6.12
654.449	5.33
654.777	6.28
655.105	5.84
655.433	5.78
655.761	6.11
656.089	5.36
656.417	5.7
656.745	5.75
657.073	5.92
657.4	6.35
657.728	6.05
658.056	5.48
658.383	5.91
658.711	5.47
659.038	5.46
659.365	5.49
659.693	5.38
660.02	5.66
660.347	5.77
660.674	5.3
661.001	5.16
661.329	5.67
661.656	5.96
661.982	5.58
662.309	6.14
662.636	5.9
662.963	5.82
663.29	5.92
663.616	5.9
663.943	6.58
664.27	5.75
664.596	5.57
664.923	5.87
665.249	5.96
665.576	5.58
665.902	5.81
666.228	5.95
666.554	5.59
666.881	6.19
667.207	6.54
667.533	5.52
667.859	6.03
668.185	6.62
668.511	6.25
668.837	5.56
669.162	6.27
669.488	5.79
669.814	5.59
670.139	5.47
670.465	6.5
670.791	5.7
671.116	5.84
671.442	6.38
671.767	5.38
672.092	6.43
672.418	6.38
672.743	6.01
673.068	6.28
673.393	6.12
673.718	6.17
674.043	6.03
674.368	6.1
674.693	5.86
675.018	5.58
675.343	6.18
675.667	6.47
675.992	5.66
676.317	6.2
676.641	6.37
676.966	6.15
677.29	5.47
677.615	6.1
677.939	6.43
678.264	6.3
678.588	6.21
678.912	6.1
679.236	6.05
679.56	6
679.885	5.85
680.209	6.71
680.532	5.92
680.856	6.09
681.18	5.92
681.504	6.39
681.828	6.39
682.152	6.18
682.475	6.62
682.799	5.92
683.122	6.43
683.446	5.98
683.769	6.22
684.093	6.5
684.416	6.2
684.739	6.25
685.062	6.99
685.386	5.73
685.709	5.74
686.032	6.63
686.355	6.77
686.678	6.7
687.001	5.65
687.324	6.93
687.646	6.64
687.969	6.23
688.292	6.33
688.614	6.83
688.937	6.02
689.26	6.09
689.582	6.65
689.904	5.68
690.227	6.64
690.549	6.71
690.871	6.31
691.194	6.57
691.516	6.16
691.838	6.7
692.16	6.19
692.482	6.01
692.804	6.28
693.126	5.72
693.448	7.14
693.769	6.21
694.091	7.12
694.413	6.74
694.735	6.65
695.056	7.48
695.378	6.5
695.699	7.1
696.021	6.21
696.342	7.53
696.663	5.95
696.984	6.52
697.306	6.13
697.627	5.79
697.948	6.49
698.269	6.02
698.59	6.03
698.911	7.12
699.232	7.11
699.553	6.76
699.873	7.71
700.194	6.7
700.515	6.11
700.835	6.87
701.156	6.56
701.477	6.83
701.797	6.39
702.117	6.75
702.438	6.17
702.758	5.05
703.078	6.63
703.398	7.08
703.719	6.65
704.039	6.93
704.359	6.69
704.679	5.12
704.999	6.78
705.319	6.17
705.638	6.14
705.958	7.09
706.278	7.49
706.597	6.63
706.917	7.42
707.237	6.49
707.556	6.84
707.876	5.97
708.195	7.42
708.514	7.46
708.834	6.53
709.153	7.22
709.472	6.13
709.791	6.6
710.11	7.24
710.429	7.04
710.748	6.66
711.067	6.41
711.386	7.12
711.705	7.4
712.023	7.42
712.342	7.33
712.661	7.84
712.979	6.85
713.298	7.87
713.616	6.81
713.935	7.96
714.253	7.88
714.572	6.94
714.89	7.73
715.208	7.93
715.526	7.23
715.844	6.64
716.162	7.33
716.48	7.53
716.798	6.68
717.116	7.41
717.434	6.96
717.752	7
718.069	6.21
718.387	6.64
718.705	7.07
719.022	7.77
719.34	7.35
719.657	6.25
719.975	8.23
720.292	6.66
720.609	8.25
720.927	7.67
721.244	7.63
721.561	7.57
721.878	6.6
722.195	7.1
722.512	7.87
722.829	7.73
723.146	8.13
723.463	7
723.779	6.89
724.096	6.71
724.413	8.43
724.729	8.68
725.046	7.73
725.362	6.73
725.679	7.15
725.995	7.37
726.311	5.83
726.628	7.28
726.944	6.72
727.26	7.66
727.576	6.62
727.892	4.51
728.208	8.47
728.524	8.88
728.84	6.65
729.156	8.14
729.472	8.87
729.787	7.11
730.103	7.21
730.419	7.38
730.734	7.87
731.05	7.38
731.365	6.86
731.681	7.04
731.996	7.36
732.311	7.25
732.626	6.92
732.942	7.17
733.257	8.09
733.572	7.48
733.887	6.59
734.202	7.78
734.517	7.8
734.832	8.52
735.146	8.1
735.461	8.74
735.776	8.01
736.091	7.25
736.405	6.48
736.72	7.14
737.034	6.18
737.349	7.21
737.663	5.6
737.977	7.67
738.292	6.19
738.606	6.46
738.92	8.28
739.234	7.87
739.548	7.04
739.862	6.93
740.176	8.01
740.49	6.89
740.804	7.08
741.117	8.34
741.431	8.31
741.745	8.67
742.058	7.87
742.372	7.72
742.685	7
742.999	7.74
743.312	7.65
743.626	6.15
743.939	7.77
744.252	6.4
744.565	7.48
744.878	6.67
745.191	8.86
745.505	6.37
745.817	7.38
746.13	9.6
746.443	8.55
746.756	8.54
747.069	9.8
747.381	5.68
747.694	7.86
748.007	9.65
748.319	8.29
748.632	8.49
748.944	9.34
749.256	9.28
749.569	6.94
749.881	9.49
750.193	8.27
750.505	10.37
750.817	8.8
751.129	7.92
751.441	8.52
751.753	8.75
752.065	9.47
752.377	8.64
752.689	8.31
753	8.69
753.312	7.73
753.624	8.03
753.935	10.26
754.247	8.33
754.558	8.22
754.869	7.94
755.181	7.05
755.492	7.04
755.803	8.48
756.114	9.34
756.425	10.36
756.736	9.39
757.047	7.83
757.358	6.28
757.669	7.62
757.98	6.66
758.291	8.01
758.601	7.94
758.912	5.47
759.223	10.72
759.533	8.4
759.844	9.47
760.154	8.49
760.464	5.94
760.775	8.39
761.085	10.01
761.395	7.34
761.705	9.36
762.016	8.47
762.326	8.66
762.636	7.75
762.945	8.22
763.255	9.59
763.565	8.51
763.875	8.3
764.185	10.27
764.494	8.7
764.804	6.22
765.113	8.6
765.423	7.51
765.732	8.07
766.042	8.71
766.351	7.81
766.66	7.94
766.97	8.88
767.279	9.01
767.588	6.92
767.897	7.2
768.206	9.5
768.515	7.71
768.824	8.04
769.133	8.44
769.441	9.82
769.75	10.5
770.059	10.71
770.367	7.39
770.676	10.83
770.984	10.26
771.293	8.58
771.601	10.83
771.91	10.06
772.218	6.28
772.526	9.12
772.834	8.03
773.142	9.47
773.45	10.45
773.758	10.62
774.066	9.48
774.374	7.98
774.682	8.22
774.99	10.24
775.298	9.5
775.605	9.16
775.913	13.27
776.22	7.7
776.528	9.54
776.835	4.94
777.143	11.36
777.45	9.83
777.757	8.06
778.065	10.37
778.372	7.95
778.679	8.57
778.986	9.68
779.293	10.58
779.6	10.86
779.907	10.88
780.214	12.81
780.52	8.16
780.827	9.67
781.134	11.22
781.44	9.45
781.747	8.93
782.053	8.44
782.36	8.59
782.666	7.87
782.973	11.24
783.279	8.5
783.585	9.6
783.891	10.2
784.197	11.16
784.503	6.42
784.809	9.08
785.115	11.89
785.421	14.4
785.727	9.24
786.033	12.84
786.339	8.05
786.644	12.18
786.95	9.51
787.255	13.98
787.561	11.6
787.866	7.37
788.172	7.66
788.477	11.14
788.782	6.64
789.088	11.32
789.393	7.03
789.698	10.46
790.003	10.13
790.308	8.09
790.613	8.06
790.918	6.07
791.223	4.41
791.527	6.03
791.832	11.12
792.137	13.17
792.441	9.66
792.746	7.4
793.05	11.81
793.355	15.9
793.659	11.15
793.963	14.39
794.268	9.96
794.572	8.84
794.876	10.17
795.18	11.1
795.484	5.49
795.788	2.8
796.092	12.25
796.396	14.16
796.7	11.06
797.004	11.08
797.307	5.48
797.611	8.04
797.915	7.75
798.218	11.25
798.522	11.31
798.825	9.94
799.128	12.44
799.432	9.49
799.735	8.87
800.038	11.08
800.341	10.43
800.644	14.04
800.947	10.3
801.25	12.31
801.553	12.81
801.856	13.09
802.159	9.07
802.462	8.01
802.764	13.64
803.067	5.88
803.37	15.06
803.672	8.17
803.975	9.09
804.277	12.95
804.579	9.64
804.882	11.43
805.184	13.73
805.486	5.32
805.788	13.91
806.09	15.46
806.392	9.75
806.694	13.37
806.996	10.42
807.298	15.36
807.6	12.32
807.902	15.88
808.203	14.1
808.505	16.59
808.807	13.44
809.108	13.52
809.409	13.99
809.711	9.95
810.012	11.25
810.313	9.92
810.615	11.37
810.916	6.53
811.217	12.16
811.518	17.29
811.819	12.86
812.12	7.79
812.421	11.03
812.722	10.14
813.023	10.8
813.323	11.95
813.624	12.67
813.925	13.39
814.225	16.04
814.526	15.59
814.826	15.06
815.126	14.28
815.427	13
815.727	8.05
816.027	8.32
816.327	13.54
816.627	11
816.927	10.34
817.227	8.98
817.527	12.93
817.827	7.09
818.127	11.33
818.427	19.09
818.727	14.03
819.026	14.18
819.326	11.27
819.625	8.23
819.925	8.44
820.224	15.56
820.524	6.78
820.823	5.86
821.122	3.36
821.421	12.24
821.72	13.97
822.019	12.14
822.318	16.01
822.617	15.94
822.916	15.86
823.215	12.28
823.514	8.59
823.813	15.95
824.111	15.3
824.41	12.88
824.709	9.09
825.007	11.43
825.306	10.31
825.604	10.43
825.902	10.66
826.201	10.45
826.499	10.8
826.797	10.09
827.095	11.1
827.393	11.56
827.691	11.07
827.989	9.57
828.287	9.03
828.585	12.18
828.882	12.35
829.18	10.13
829.478	9.03
829.775	9.2
830.073	9.71
830.37	10.4
830.668	10.49
830.965	11.66
831.263	9.38
831.56	10.37
831.857	10.53
832.154	12.26
832.451	9.23
832.748	16.56
833.045	15.23
833.342	11.55
833.639	17.7
833.936	16.31
834.232	13.65
834.529	7.57
834.826	6.19
835.122	20.58
835.419	10.9
835.715	13.61
836.012	10.8
836.308	20.94
836.604	16.46
836.901	10.19
837.197	11.85
837.493	13.23
837.789	10.91
838.085	8.14
838.381	12.37
838.677	9.15
838.972	13.04
839.268	12.5
839.564	13.84
839.86	15.13
840.155	10.62
840.451	8.83
840.746	22.11
841.042	13.98
841.337	18.8
841.632	14.06
841.928	19.74
842.223	12.75
842.518	17.95
842.813	22.45
843.108	9.15
843.403	8.93
843.698	18.64
843.993	12.12
844.287	10.38
844.582	7.69
844.877	12.07
845.171	20.43
845.466	13.45
845.761	13.12
846.055	11.74
846.349	5.63
846.644	18.73
846.938	16.37
847.232	17.61
847.526	27.41
847.82	26.63
848.114	24.99
848.408	17.13
848.702	8.27
848.996	19.87
849.29	14.88
849.584	19.48
849.877	25.5
850.171	11.12
850.465	23.96
850.758	28.97
851.052	1.26
851.345	27.34
851.638	18.57
851.932	31.57
852.225	27.8
852.518	30.68
852.811	14.03
853.104	20.81
853.397	28.24
853.69	17.7
853.983	19.57
854.276	18.69
854.569	23.69
854.861	11.38
855.154	33.67
855.447	12.54
855.739	10.63
856.032	18.13
856.324	27.23
856.616	26.97
856.909	15.1
857.201	11.96
857.493	8.8
857.785	25.74
858.077	23.43
858.369	7.18
858.661	24.82
858.953	18.18
859.245	21.29
859.537	23
859.829	12.02
860.12	8.72
860.412	37.79
860.703	-11.59
860.995	-8.19
861.286	16.25
861.578	34.28
861.869	23.19
862.16	17.79
862.452	13.7
862.743	47.85
863.034	33
863.325	38.76
863.616	20.63
863.907	30.04
864.198	20.42
864.488	16.76
864.779	14.41
865.07	17.74
865.36	5.74
865.651	45.8
865.941	9.62
866.232	16.97
866.522	15.14
866.813	24.96
867.103	31.97
867.393	27.41
867.683	21.5
867.973	16.87
868.263	19.83
868.553	9.3
868.843	34.67
869.133	5.6
869.423	37.19
869.713	19.7
870.002	23.39
870.292	39.05
870.582	4.51
870.871	0.18
871.161	20.62
871.45	48.72
871.739	35.13
872.029	18.46
872.318	18.4
872.607	26.9
872.896	25.5
873.185	37.83
873.474	24.11
873.763	37.55
874.052	10.85
874.341	20.98
874.63	35.05
874.918	-16.53
875.207	44.29
875.496	-12.8
875.784	33.32
876.073	23.4
876.361	22.62
876.649	15.57
876.938	34.54
877.226	15.77
877.514	20.01
877.802	10.61
878.09	48.23
878.378	43.08
878.666	18.3
878.954	14.87
879.242	41.91
879.53	10.9
879.817	18.93
880.105	-19.59
880.392	-8.59
880.68	24.75
880.967	21.18
881.255	32.77
881.542	4.57
881.83	44.78
882.117	18.93
882.404	31.9
882.691	2.96
882.978	17.29
883.265	32.2
883.552	23.12
883.839	-0.25
884.126	26.01
884.413	6.56
884.699	16
884.986	16.68
885.273	19.14
885.559	19.14
885.846	19.14
