Data from 0190_chest_Reflection__4__130.txt Node

Date: Fri Sep 22 21:21:39 CDT 2023
User: ToomeyLab
Spectrometer: FLMS14357
Trigger mode: 0
Integration Time (sec): 1.000000E-2
Scans to average: 100
Electric dark correction enabled: true
Nonlinearity correction enabled: false
Boxcar width: 0
XAxis mode: Wavelengths
Number of Pixels in Spectrum: 2048
>>>>>Begin Spectral Data<<<<<
189.047	-827.34
189.435	-827.34
189.823	-827.34
190.211	109.92
190.599	-79.98
190.987	48.24
191.375	82.21
191.763	159.7
192.151	79.83
192.538	-53.94
192.926	50.02
193.314	-275.94
193.702	1242.92
194.089	-514.52
194.477	198.31
194.864	64.89
195.252	49.98
195.639	-54.1
196.027	164.49
196.414	-331.93
196.801	48.66
197.189	125.69
197.576	110.02
197.963	3268.75
198.351	-29.24
198.738	-2.22
199.125	15.35
199.512	14.46
199.899	63.51
200.286	18.45
200.673	-15.86
201.06	16.85
201.447	47.31
201.833	-7.11
202.22	50.24
202.607	27.79
202.994	33.77
203.38	-1.79
203.767	31.12
204.154	18.49
204.54	45.5
204.927	17.69
205.313	27.05
205.699	29.03
206.086	54.87
206.472	56.34
206.858	4.45
207.245	-38.07
207.631	32.54
208.017	48.27
208.403	19.51
208.789	55.12
209.175	40.44
209.561	22.2
209.947	51.38
210.333	43.87
210.719	-14.12
211.105	40.96
211.491	40.8
211.876	61.42
212.262	24.11
212.648	31.69
213.034	53.45
213.419	7.21
213.805	31.81
214.19	4.87
214.576	27.16
214.961	9.64
215.346	-4.15
215.732	3.46
216.117	17.9
216.502	34.28
216.888	42.57
217.273	19.95
217.658	19.94
218.043	44.44
218.428	19.01
218.813	6.02
219.198	20.72
219.583	9.46
219.968	-0.55
220.353	18.51
220.738	14.53
221.122	0.82
221.507	16.58
221.892	12.02
222.276	5.5
222.661	-12.29
223.046	20.86
223.43	12.65
223.815	12.94
224.199	-2.99
224.583	9.56
224.968	5.88
225.352	4.68
225.736	11.79
226.121	6.77
226.505	5.61
226.889	6.55
227.273	10.05
227.657	7.48
228.041	0.65
228.425	5.28
228.809	6.15
229.193	2.46
229.577	6.49
229.961	6.77
230.344	4.79
230.728	3.14
231.112	3.74
231.495	2.62
231.879	2.99
232.263	3.6
232.646	3.34
233.03	3.62
233.413	4.65
233.797	4.4
234.18	3.16
234.563	6.98
234.946	7.74
235.33	3.08
235.713	2.82
236.096	5.06
236.479	2.69
236.862	4.35
237.245	2.83
237.628	4.17
238.011	5.71
238.394	4.11
238.777	5.46
239.16	3.17
239.543	5.68
239.925	5.62
240.308	6.2
240.691	2.66
241.073	6.34
241.456	3.49
241.838	3.87
242.221	3.29
242.603	3.54
242.986	3.33
243.368	3.56
243.75	4.27
244.133	4.11
244.515	3.79
244.897	3.19
245.279	3.52
245.661	3.25
246.043	3.89
246.425	3.38
246.807	4.89
247.189	3.29
247.571	5.04
247.953	4.66
248.335	3.73
248.717	3.58
249.098	3.38
249.48	3.31
249.862	3.23
250.243	3.5
250.625	3.86
251.006	3.58
251.388	3.49
251.769	4.53
252.151	2.5
252.532	4.1
252.913	4.09
253.295	5.09
253.676	4.05
254.057	4.21
254.438	4.31
254.819	3.33
255.2	3.42
255.581	2.91
255.962	3.98
256.343	3.67
256.724	4.02
257.105	4.13
257.486	3.79
257.867	3.8
258.247	4.78
258.628	3.88
259.009	3.64
259.389	3.83
259.77	4.14
260.15	4.21
260.531	2.79
260.911	3.22
261.292	2.9
261.672	3.14
262.052	3.28
262.432	3.25
262.813	3.51
263.193	3.02
263.573	3.93
263.953	3.4
264.333	3.29
264.713	3.34
265.093	3.48
265.473	3.23
265.853	2.75
266.233	3.51
266.612	3.65
266.992	4.38
267.372	3.3
267.752	4.27
268.131	3.35
268.511	2.93
268.89	3.82
269.27	3.07
269.649	3.46
270.029	2.97
270.408	3.16
270.787	2.72
271.167	3.77
271.546	3.32
271.925	3.21
272.304	3.16
272.683	3.37
273.062	3.92
273.441	3.58
273.82	3.86
274.199	3.79
274.578	3.84
274.957	3.09
275.336	3.31
275.715	3.18
276.093	3.21
276.472	3.65
276.851	3.28
277.229	2.91
277.608	3.73
277.986	3.68
278.365	4.33
278.743	3.47
279.122	3.33
279.5	3.82
279.878	3.16
280.257	4.05
280.635	2.82
281.013	3.87
281.391	3.15
281.769	3.2
282.147	3.33
282.525	3.07
282.903	3.19
283.281	3.49
283.659	3.3
284.037	2.79
284.415	3.41
284.792	2.98
285.17	3.15
285.548	3.78
285.925	3.07
286.303	3.54
286.68	3.18
287.058	3.21
287.435	3.52
287.813	3.26
288.19	3.22
288.567	3.47
288.945	3.19
289.322	3.34
289.699	3.08
290.076	3.46
290.453	3.51
290.83	2.85
291.207	2.86
291.584	3.11
291.961	3.24
292.338	3.48
292.715	3.53
293.092	3.56
293.469	3.36
293.845	2.98
294.222	3.32
294.599	3.78
294.975	3.95
295.352	3.96
295.728	3.98
296.105	3.43
296.481	3.52
296.858	3.33
297.234	3.38
297.61	3.39
297.986	3.87
298.363	3.82
298.739	3.77
299.115	3.5
299.491	3.55
299.867	3.53
300.243	3.31
300.619	3.75
300.995	3.34
301.371	3.95
301.746	3.25
302.122	3.6
302.498	3.31
302.874	3.19
303.249	3.81
303.625	3.34
304	4.09
304.376	3.82
304.751	4.04
305.127	3.55
305.502	4.53
305.878	3.22
306.253	4.17
306.628	3.55
307.003	4.26
307.378	3.55
307.754	3.53
308.129	3.72
308.504	3.61
308.879	4.03
309.254	3.91
309.629	4.18
310.003	4.11
310.378	4.36
310.753	3.85
311.128	3.61
311.502	3.81
311.877	3.23
312.252	3.69
312.626	3.89
313.001	4.03
313.375	3.92
313.75	3.94
314.124	4.08
314.498	3.25
314.873	4.11
315.247	4.43
315.621	3.79
315.995	4.27
316.369	4.3
316.743	4.01
317.117	3.92
317.491	4.09
317.865	3.5
318.239	3.59
318.613	4.33
318.987	4.18
319.361	3.43
319.734	3.78
320.108	4.22
320.482	3.26
320.855	4.41
321.229	4.55
321.602	3.94
321.976	3.26
322.349	4.07
322.723	4.38
323.096	3.9
323.469	4.33
323.843	4.39
324.216	4.61
324.589	3.99
324.962	3.52
325.335	4.16
325.708	3.54
326.081	4.05
326.454	3.44
326.827	3.91
327.2	3.82
327.573	4.52
327.945	4.08
328.318	4.23
328.691	4.26
329.063	4.09
329.436	4.61
329.809	4.52
330.181	4.31
330.553	4.3
330.926	4.97
331.298	3.8
331.671	4.09
332.043	3.62
332.415	3.81
332.787	4.45
333.159	3.97
333.532	3.68
333.904	3.94
334.276	3.39
334.648	3.28
335.02	3.72
335.391	3.95
335.763	4.32
336.135	4.41
336.507	4.24
336.879	3.71
337.25	4.29
337.622	4.55
337.993	4.34
338.365	4.28
338.736	4.41
339.108	4.51
339.479	4.13
339.851	3.55
340.222	3.57
340.593	3.77
340.964	4.17
341.336	4.31
341.707	3.82
342.078	4.45
342.449	4.46
342.82	3.91
343.191	3.47
343.562	3.82
343.933	4.18
344.303	3.88
344.674	4.08
345.045	3.95
345.416	4.4
345.786	3.72
346.157	4.22
346.527	4.19
346.898	3.85
347.268	4.08
347.639	4.18
348.009	3.99
348.38	4.37
348.75	4.05
349.12	3.5
349.49	4.73
349.861	3.93
350.231	4.13
350.601	3.77
350.971	4.33
351.341	3.71
351.711	3.94
352.081	3.92
352.45	4.08
352.82	4.25
353.19	4.23
353.56	3.67
353.929	4.14
354.299	4
354.669	3.82
355.038	4.17
355.408	4.02
355.777	4.17
356.147	4.29
356.516	4.32
356.885	3.87
357.254	4.2
357.624	4
357.993	4.11
358.362	4.25
358.731	4.01
359.1	3.92
359.469	4.31
359.838	3.93
360.207	3.88
360.576	4.25
360.945	3.89
361.314	4.21
361.682	4.08
362.051	4.28
362.42	4.04
362.788	3.72
363.157	4.06
363.525	3.81
363.894	3.91
364.262	3.84
364.631	3.96
364.999	3.74
365.367	4.17
365.735	4.21
366.104	4.02
366.472	4.3
366.84	3.79
367.208	4.42
367.576	4.27
367.944	4.09
368.312	4.3
368.68	4.06
369.048	4.36
369.416	4.19
369.783	4.07
370.151	3.96
370.519	4
370.886	4.02
371.254	4.47
371.621	3.82
371.989	4.2
372.356	4.16
372.724	4.1
373.091	4.25
373.458	4.07
373.826	4.48
374.193	4.25
374.56	4.12
374.927	4.28
375.294	4.17
375.661	4.1
376.028	4.19
376.395	4.42
376.762	3.92
377.129	4.36
377.496	4.43
377.863	4.46
378.229	3.97
378.596	3.79
378.963	4.19
379.329	3.99
379.696	4.37
380.062	3.89
380.429	3.87
380.795	4.32
381.161	4.19
381.528	3.95
381.894	3.93
382.26	4
382.626	4.1
382.993	4.47
383.359	4.04
383.725	4.07
384.091	4.27
384.457	3.92
384.823	4.1
385.188	4.29
385.554	4.07
385.92	4.78
386.286	4.49
386.651	4.01
387.017	4.05
387.383	3.92
387.748	4.09
388.114	4.17
388.479	4.26
388.845	3.99
389.21	3.94
389.575	4.4
389.94	4
390.306	4.24
390.671	4.45
391.036	3.94
391.401	4.11
391.766	4.14
392.131	4.03
392.496	4.33
392.861	4.09
393.226	4.26
393.591	4.26
393.956	4.11
394.32	4.09
394.685	4.25
395.05	4.33
395.414	4.23
395.779	4.41
396.143	4.16
396.508	4.16
396.872	4.23
397.236	4.2
397.601	4.18
397.965	4.41
398.329	4
398.694	4.38
399.058	4.1
399.422	4.06
399.786	4.5
400.15	4.23
400.514	4.28
400.878	4.33
401.242	4.38
401.605	4.18
401.969	3.99
402.333	4.17
402.697	4.09
403.06	4.01
403.424	3.96
403.787	4.35
404.151	4.28
404.514	4.53
404.878	4.06
405.241	4.37
405.604	4.48
405.968	4.3
406.331	4.17
406.694	4.3
407.057	4.04
407.42	4.49
407.783	4.41
408.146	4.33
408.509	4.14
408.872	4.2
409.235	4.2
409.598	4.07
409.961	4.32
410.323	4.37
410.686	4.43
411.049	4.37
411.411	4.51
411.774	4.18
412.136	4.13
412.499	4.23
412.861	4.31
413.223	4.44
413.586	4.02
413.948	4.26
414.31	4.09
414.672	4.24
415.035	4.14
415.397	4.51
415.759	4.51
416.121	4.2
416.483	4.18
416.845	4.34
417.206	4.21
417.568	4.23
417.93	4.28
418.292	4.33
418.653	4.18
419.015	4.26
419.377	4.19
419.738	4.33
420.1	4.17
420.461	4.27
420.822	4.26
421.184	4.26
421.545	4.14
421.906	4.26
422.267	4.24
422.629	4.31
422.99	4.15
423.351	4.17
423.712	4.15
424.073	4.16
424.434	4.21
424.795	4.13
425.155	4.29
425.516	4.19
425.877	4.21
426.238	4.15
426.598	4.15
426.959	4.1
427.32	4.13
427.68	4.12
428.041	4.12
428.401	4.31
428.761	4.4
429.122	4.23
429.482	4.35
429.842	4.21
430.202	4.23
430.563	4.32
430.923	4.45
431.283	4.46
431.643	4.32
432.003	4.42
432.363	4.43
432.722	4.59
433.082	4.51
433.442	4.33
433.802	4.41
434.161	4.34
434.521	4.36
434.881	4.29
435.24	4.41
435.6	4.19
435.959	4.18
436.319	4.25
436.678	4.43
437.037	4.46
437.396	4.36
437.756	4.46
438.115	4.35
438.474	4.43
438.833	4.55
439.192	4.46
439.551	4.54
439.91	4.52
440.269	4.51
440.628	4.38
440.987	4.33
441.345	4.49
441.704	4.45
442.063	4.29
442.421	4.38
442.78	4.51
443.138	4.38
443.497	4.37
443.855	4.4
444.214	4.27
444.572	4.45
444.93	4.32
445.288	4.39
445.647	4.59
446.005	4.35
446.363	4.27
446.721	4.54
447.079	4.42
447.437	4.46
447.795	4.5
448.153	4.38
448.51	4.31
448.868	4.3
449.226	4.32
449.584	4.35
449.941	4.31
450.299	4.46
450.656	4.48
451.014	4.45
451.371	4.39
451.729	4.52
452.086	4.48
452.443	4.56
452.801	4.6
453.158	4.47
453.515	4.62
453.872	4.51
454.229	4.45
454.586	4.69
454.943	4.33
455.3	4.55
455.657	4.47
456.014	4.61
456.371	4.57
456.727	4.86
457.084	4.53
457.441	4.35
457.797	4.48
458.154	4.6
458.51	4.52
458.867	4.43
459.223	4.68
459.58	4.68
459.936	4.57
460.292	4.59
460.648	4.51
461.005	4.54
461.361	4.59
461.717	4.35
462.073	4.55
462.429	4.39
462.785	4.41
463.141	4.37
463.496	4.62
463.852	4.47
464.208	4.6
464.564	4.59
464.919	4.52
465.275	4.73
465.631	4.84
465.986	4.75
466.342	4.58
466.697	4.66
467.052	4.52
467.408	4.75
467.763	4.58
468.118	4.78
468.473	4.66
468.829	4.71
469.184	4.7
469.539	4.66
469.894	4.57
470.249	4.74
470.603	4.65
470.958	4.86
471.313	4.79
471.668	4.69
472.023	4.74
472.377	4.55
472.732	4.61
473.086	4.9
473.441	4.61
473.795	4.95
474.15	4.72
474.504	4.73
474.859	4.88
475.213	4.6
475.567	4.58
475.921	4.78
476.275	4.83
476.63	4.65
476.984	4.56
477.338	4.93
477.692	4.77
478.045	5.01
478.399	4.89
478.753	4.86
479.107	4.77
479.461	4.7
479.814	4.84
480.168	4.84
480.521	4.81
480.875	4.91
481.228	4.77
481.582	4.73
481.935	4.77
482.289	4.75
482.642	4.75
482.995	4.82
483.348	4.77
483.701	4.81
484.055	4.7
484.408	4.75
484.761	4.82
485.114	4.58
485.466	4.58
485.819	4.53
486.172	4.5
486.525	4.49
486.878	4.5
487.23	4.59
487.583	4.65
487.936	4.72
488.288	4.69
488.641	4.72
488.993	4.69
489.345	4.62
489.698	4.64
490.05	4.64
490.402	4.68
490.754	4.6
491.107	4.65
491.459	4.79
491.811	4.76
492.163	4.81
492.515	4.87
492.866	4.83
493.218	4.79
493.57	4.8
493.922	4.7
494.274	4.71
494.625	4.75
494.977	4.79
495.328	4.89
495.68	4.94
496.031	4.95
496.383	4.98
496.734	5.07
497.086	5.09
497.437	5.05
497.788	4.93
498.139	5.1
498.49	5.24
498.842	4.86
499.193	4.99
499.544	5.05
499.894	5.02
500.245	5.05
500.596	4.99
500.947	5.12
501.298	5.11
501.648	5.19
501.999	5.13
502.35	5.07
502.7	5.15
503.051	5.19
503.401	5.19
503.752	5.12
504.102	5.16
504.452	5.1
504.803	5.22
505.153	5.24
505.503	5.29
505.853	5.27
506.203	5.11
506.553	5.25
506.903	5.25
507.253	5.19
507.603	5.31
507.953	5.33
508.303	5.34
508.652	5.18
509.002	5.28
509.352	5.15
509.701	5.32
510.051	5.3
510.4	5.36
510.75	5.14
511.099	5.25
511.449	5.24
511.798	5.33
512.147	5.3
512.496	5.29
512.846	5.19
513.195	5.38
513.544	5.4
513.893	5.43
514.242	5.34
514.591	5.36
514.939	5.45
515.288	5.34
515.637	5.35
515.986	5.32
516.334	5.47
516.683	5.44
517.032	5.58
517.38	5.4
517.729	5.56
518.077	5.42
518.426	5.43
518.774	5.47
519.122	5.49
519.47	5.54
519.819	5.47
520.167	5.53
520.515	5.5
520.863	5.46
521.211	5.51
521.559	5.43
521.907	5.47
522.255	5.49
522.602	5.55
522.95	5.55
523.298	5.72
523.645	5.57
523.993	5.56
524.341	5.65
524.688	5.78
525.036	5.66
525.383	5.8
525.73	5.71
526.078	5.69
526.425	5.7
526.772	5.86
527.119	5.7
527.466	5.54
527.814	5.5
528.161	5.65
528.508	5.66
528.854	5.59
529.201	5.72
529.548	5.68
529.895	5.62
530.242	5.64
530.588	5.53
530.935	5.45
531.282	5.5
531.628	5.59
531.975	5.6
532.321	5.6
532.667	5.72
533.014	5.71
533.36	5.8
533.706	5.88
534.052	6.01
534.399	5.87
534.745	5.81
535.091	5.78
535.437	5.8
535.783	5.7
536.129	5.78
536.474	5.84
536.82	5.78
537.166	6.05
537.512	5.98
537.857	5.92
538.203	6.05
538.549	5.92
538.894	5.9
539.239	5.99
539.585	6
539.93	6.12
540.276	6.2
540.621	6.14
540.966	6.17
541.311	6.3
541.656	6.18
542.001	6.26
542.346	6.23
542.691	6.35
543.036	6.16
543.381	6.07
543.726	6.02
544.071	6.11
544.415	6.05
544.76	6.15
545.105	6.1
545.449	6.2
545.794	6.31
546.138	6.31
546.483	6.32
546.827	6.32
547.171	6.41
547.516	6.41
547.86	6.54
548.204	6.51
548.548	6.5
548.892	6.58
549.236	6.44
549.58	6.53
549.924	6.53
550.268	6.77
550.612	6.71
550.956	6.81
551.3	6.74
551.643	6.69
551.987	6.85
552.33	6.98
552.674	6.75
553.017	6.94
553.361	6.8
553.704	6.88
554.048	6.9
554.391	6.92
554.734	7.03
555.077	6.93
555.42	6.95
555.764	6.96
556.107	6.95
556.45	7.05
556.793	6.96
557.135	7.04
557.478	6.95
557.821	7.21
558.164	7.08
558.507	7.32
558.849	7.09
559.192	7.36
559.534	7.38
559.877	7.2
560.219	7.22
560.562	7.28
560.904	7.33
561.246	7.65
561.589	7.47
561.931	7.5
562.273	7.25
562.615	7.34
562.957	7.23
563.299	7.42
563.641	7.76
563.983	7.67
564.325	7.65
564.667	7.72
565.008	7.6
565.35	7.51
565.692	7.72
566.033	7.74
566.375	7.63
566.716	7.71
567.058	7.8
567.399	7.76
567.741	7.82
568.082	7.74
568.423	7.83
568.764	7.92
569.105	7.64
569.447	7.89
569.788	7.82
570.129	7.87
570.47	8.05
570.811	7.83
571.151	8.06
571.492	7.74
571.833	7.82
572.174	8
572.514	8.18
572.855	8.06
573.195	7.91
573.536	8.21
573.876	8.03
574.217	8.07
574.557	8.16
574.898	8.3
575.238	8.28
575.578	8.17
575.918	8.13
576.258	8.06
576.598	8.2
576.938	8.31
577.278	8.47
577.618	8.23
577.958	8.41
578.298	8.47
578.638	8.36
578.977	8.53
579.317	8.65
579.657	8.77
579.996	8.68
580.336	8.68
580.675	8.58
581.014	8.57
581.354	8.68
581.693	8.72
582.032	8.93
582.372	8.89
582.711	8.8
583.05	8.98
583.389	8.95
583.728	9
584.067	8.96
584.406	9.07
584.745	8.93
585.083	9.46
585.422	9.08
585.761	9.04
586.1	9.11
586.438	9.1
586.777	9.34
587.115	9.29
587.454	9.23
587.792	9.58
588.13	9.61
588.469	9.42
588.807	9.61
589.145	9.47
589.483	9.42
589.821	9.6
590.159	9.62
590.497	9.83
590.835	9.72
591.173	9.56
591.511	9.53
591.849	9.81
592.187	9.75
592.524	9.68
592.862	9.72
593.2	9.6
593.537	9.79
593.875	9.81
594.212	10
594.55	10.02
594.887	9.7
595.224	10.03
595.561	10.21
595.899	10.32
596.236	10.29
596.573	10.37
596.91	10.02
597.247	10.25
597.584	10.26
597.921	10.36
598.258	10.33
598.594	10.25
598.931	10.26
599.268	10.44
599.604	10.25
599.941	10.45
600.277	10.3
600.614	10.27
600.95	10.51
601.287	10.54
601.623	10.76
601.959	10.7
602.296	10.59
602.632	10.65
602.968	10.65
603.304	10.69
603.64	10.58
603.976	10.55
604.312	10.9
604.648	11.18
604.984	11.05
605.319	10.81
605.655	10.66
605.991	11.1
606.326	11.1
606.662	11.05
606.998	10.73
607.333	11.05
607.668	11.13
608.004	11.3
608.339	10.99
608.674	11.12
609.01	11.21
609.345	11.53
609.68	11.56
610.015	11.66
610.35	11.62
610.685	11.49
611.02	11.49
611.355	11.55
611.689	11.48
612.024	11.6
612.359	11.5
612.694	11.5
613.028	11.47
613.363	11.51
613.697	11.84
614.032	11.46
614.366	11.69
614.7	11.76
615.035	11.81
615.369	11.87
615.703	11.96
616.037	12.04
616.371	12.21
616.705	12.33
617.039	12.04
617.373	12.39
617.707	12.14
618.041	12.39
618.375	12.41
618.709	12.34
619.042	12.82
619.376	12.44
619.71	12.89
620.043	12.19
620.377	12.18
620.71	12.26
621.043	12.92
621.377	12.44
621.71	12.97
622.043	12.78
622.376	13.37
622.709	12.82
623.043	12.84
623.376	13.12
623.709	12.58
624.041	12.67
624.374	13
624.707	13.27
625.04	13.3
625.373	12.64
625.705	13.26
626.038	13.29
626.37	13.63
626.703	13.46
627.035	13.01
627.368	13.22
627.7	13.73
628.032	13.43
628.365	13.31
628.697	13.45
629.029	13.41
629.361	13.43
629.693	13.58
630.025	13.77
630.357	13.5
630.689	13.65
631.021	13.52
631.353	13.61
631.684	13.53
632.016	14.17
632.348	13.99
632.679	13.77
633.011	13.89
633.342	14.32
633.674	14.08
634.005	13.71
634.336	14.32
634.668	14.33
634.999	14.31
635.33	14.1
635.661	14.21
635.992	14.14
636.323	14.26
636.654	14.52
636.985	14.48
637.316	14.4
637.647	14.6
637.977	14.15
638.308	14.76
638.639	14.6
638.969	14.8
639.3	14.57
639.63	15.07
639.961	14.42
640.291	14.61
640.622	15.13
640.952	14.99
641.282	14.67
641.612	15.1
641.943	15.15
642.273	15.18
642.603	14.98
642.933	14.96
643.263	14.72
643.592	15.07
643.922	15.25
644.252	15.3
644.582	15.81
644.911	15.65
645.241	15.73
645.571	15.2
645.9	15.43
646.23	15.94
646.559	15.34
646.888	15.64
647.218	15.68
647.547	15.89
647.876	15.88
648.205	15.25
648.534	16.25
648.863	15.99
649.192	15.81
649.521	16.13
649.85	16.23
650.179	15.88
650.508	15.76
650.837	16.45
651.165	16.03
651.494	16.38
651.822	16.04
652.151	16.25
652.479	16.2
652.808	16.2
653.136	16.96
653.465	16.67
653.793	16.14
654.121	16.73
654.449	16.34
654.777	16.66
655.105	16.61
655.433	16.77
655.761	17.45
656.089	16.81
656.417	16.18
656.745	16.86
657.073	16.96
657.4	17.13
657.728	16.75
658.056	17.3
658.383	17.2
658.711	16.86
659.038	16.86
659.365	16.73
659.693	17
660.02	17.2
660.347	17.28
660.674	17.15
661.001	17.07
661.329	17.01
661.656	17.03
661.982	17.07
662.309	17.91
662.636	17.64
662.963	17.33
663.29	18.2
663.616	17.55
663.943	17.66
664.27	17.95
664.596	17.83
664.923	17.61
665.249	18.01
665.576	17.37
665.902	18.13
666.228	17.8
666.554	18.03
666.881	18.47
667.207	17.85
667.533	18.38
667.859	18.14
668.185	18.49
668.511	18.79
668.837	18.05
669.162	18.58
669.488	18.17
669.814	18.84
670.139	18.73
670.465	18.88
670.791	18.86
671.116	18.67
671.442	18.7
671.767	18.02
672.092	18.81
672.418	19.46
672.743	19.12
673.068	19.35
673.393	18.03
673.718	19.48
674.043	18.93
674.368	18.52
674.693	19.02
675.018	18.83
675.343	18.94
675.667	18.83
675.992	18.65
676.317	19.46
676.641	19.21
676.966	19.86
677.29	19.76
677.615	19.92
677.939	19.95
678.264	19.38
678.588	20.59
678.912	19.49
679.236	19.64
679.56	19.56
679.885	19.76
680.209	20.48
680.532	19.95
680.856	19.29
681.18	20.02
681.504	20.08
681.828	19.97
682.152	20.18
682.475	20.48
682.799	20.16
683.122	19.93
683.446	20.06
683.769	19.79
684.093	20.59
684.416	20.4
684.739	20.11
685.062	20.68
685.386	20.62
685.709	20.54
686.032	20.86
686.355	20.32
686.678	20.96
687.001	20.27
687.324	20.63
687.646	21.13
687.969	21.47
688.292	21.56
688.614	21.4
688.937	21.29
689.26	21.34
689.582	21.46
689.904	20.65
690.227	21.29
690.549	21.82
690.871	21.15
691.194	21.36
691.516	21.37
691.838	22.02
692.16	21.33
692.482	21.66
692.804	21.47
693.126	21.12
693.448	21.61
693.769	21.54
694.091	22.06
694.413	21.3
694.735	21.99
695.056	22.51
695.378	21.31
695.699	21.29
696.021	21.57
696.342	23.02
696.663	21.7
696.984	21.97
697.306	21.92
697.627	21.24
697.948	21.82
698.269	22.56
698.59	21.42
698.911	22.21
699.232	22.4
699.553	21.64
699.873	23.15
700.194	22.39
700.515	21.22
700.835	23.42
701.156	22.46
701.477	22.33
701.797	22.73
702.117	22.57
702.438	22.45
702.758	21.72
703.078	22.49
703.398	22.52
703.719	22.35
704.039	22.96
704.359	22.2
704.679	21.62
704.999	22.8
705.319	23.43
705.638	23.24
705.958	23.9
706.278	24.15
706.597	23.05
706.917	24.47
707.237	22.45
707.556	22.93
707.876	22.13
708.195	24.14
708.514	22.98
708.834	21.97
709.153	24.42
709.472	23.7
709.791	23.87
710.11	24.75
710.429	24.81
710.748	23.96
711.067	23.43
711.386	24.23
711.705	24.12
712.023	23.84
712.342	23.64
712.661	24.6
712.979	23.46
713.298	25.47
713.616	24.14
713.935	24.73
714.253	24.73
714.572	24.55
714.89	25.12
715.208	26
715.526	23.9
715.844	24.79
716.162	24.41
716.48	23.89
716.798	24.6
717.116	24.6
717.434	23.97
717.752	25.19
718.069	24.22
718.387	25.2
718.705	25.68
719.022	25.22
719.34	24.2
719.657	23.87
719.975	26.02
720.292	24.34
720.609	25.59
720.927	27.11
721.244	25.67
721.561	26.12
721.878	26.09
722.195	26.34
722.512	25.93
722.829	25.68
723.146	25.96
723.463	26.79
723.779	25.12
724.096	25.45
724.413	25.62
724.729	27.19
725.046	25.77
725.362	26.58
725.679	25.61
725.995	26
726.311	24.94
726.628	25.81
726.944	25.94
727.26	25.42
727.576	24.75
727.892	25.81
728.208	25.99
728.524	27.78
728.84	25.52
729.156	26.97
729.472	26.19
729.787	25.91
730.103	26.42
730.419	26.97
730.734	26.43
731.05	26.21
731.365	26.54
731.681	27.01
731.996	27.33
732.311	26.92
732.626	26.66
732.942	28.37
733.257	27.54
733.572	26.54
733.887	26.53
734.202	27.2
734.517	28.27
734.832	26.22
735.146	27.21
735.461	27.68
735.776	26.17
736.091	27.35
736.405	26.92
736.72	26.95
737.034	26.92
737.349	26.87
737.663	27.91
737.977	28.79
738.292	30.37
738.606	27.03
738.92	27.58
739.234	27.97
739.548	29.45
739.862	27.85
740.176	28.35
740.49	29.59
740.804	28.37
741.117	27.35
741.431	27.21
741.745	28.95
742.058	28.09
742.372	27.23
742.685	28.17
742.999	28.54
743.312	30.48
743.626	27.05
743.939	28.5
744.252	28.03
744.565	29.53
744.878	28.03
745.191	27.8
745.505	26.62
745.817	28.26
746.13	32.01
746.443	29.93
746.756	29.52
747.069	28
747.381	27.3
747.694	27.16
748.007	30.24
748.319	28.86
748.632	29.67
748.944	29.78
749.256	29
749.569	27.23
749.881	28.57
750.193	28.98
750.505	29.96
750.817	29.65
751.129	30.02
751.441	31.3
751.753	29.07
752.065	30.92
752.377	30.39
752.689	29.92
753	30.04
753.312	29.29
753.624	28.95
753.935	31.17
754.247	30.08
754.558	31.13
754.869	29.92
755.181	29.73
755.492	29.54
755.803	30.88
756.114	29.44
756.425	31.73
756.736	28.94
757.047	31.39
757.358	28.47
757.669	29.79
757.98	29.66
758.291	31.31
758.601	29.97
758.912	31.93
759.223	31.69
759.533	30.78
759.844	30.45
760.154	29.42
760.464	29.45
760.775	31.81
761.085	32.36
761.395	32.78
761.705	30
762.016	29.88
762.326	32.25
762.636	31.69
762.945	29.93
763.255	30.93
763.565	31.3
763.875	29.26
764.185	32.93
764.494	32.55
764.804	31.95
765.113	31.59
765.423	30.44
765.732	31.27
766.042	32.9
766.351	31.49
766.66	31.91
766.97	31.42
767.279	32.97
767.588	31.04
767.897	31.26
768.206	33.73
768.515	31.48
768.824	30.92
769.133	31.16
769.441	30.89
769.75	32.59
770.059	34.51
770.367	32.01
770.676	31.55
770.984	29.51
771.293	33.22
771.601	33.91
771.91	32.82
772.218	31.63
772.526	36.09
772.834	30.84
773.142	32.22
773.45	34.46
773.758	30.08
774.066	30.76
774.374	33.45
774.682	31.6
774.99	34.13
775.298	31.71
775.605	30.61
775.913	34.94
776.22	32.44
776.528	32.97
776.835	32.18
777.143	34.22
777.45	30.97
777.757	35.1
778.065	30.9
778.372	32.69
778.679	34.21
778.986	33.48
779.293	31.33
779.6	33.5
779.907	33.57
780.214	38.2
780.52	34.38
780.827	34.9
781.134	34.69
781.44	33.48
781.747	33.05
782.053	33.52
782.36	33.82
782.666	33.09
782.973	36.44
783.279	34.27
783.585	35.99
783.891	33.02
784.197	35.52
784.503	30.1
784.809	35.3
785.115	34.61
785.421	40.56
785.727	35.64
786.033	32.99
786.339	35.32
786.644	37.86
786.95	35.83
787.255	36.4
787.561	37.18
787.866	30.74
788.172	33.07
788.477	36.89
788.782	34.04
789.088	34.58
789.393	33.63
789.698	37.13
790.003	34.9
790.308	30.22
790.613	34.43
790.918	38.36
791.223	34.92
791.527	32.23
791.832	35.69
792.137	32.91
792.441	38.49
792.746	36.05
793.05	37.01
793.355	39.85
793.659	37.57
793.963	37.85
794.268	32.4
794.572	36.94
794.876	30.32
795.18	35.12
795.484	29.37
795.788	34.28
796.092	37.15
796.396	37.25
796.7	36.17
797.004	35.86
797.307	31.51
797.611	38.1
797.915	37.11
798.218	37.01
798.522	36
798.825	33.77
799.128	39.93
799.432	32.96
799.735	36.68
800.038	36
800.341	37.48
800.644	39.05
800.947	38.7
801.25	35.63
801.553	36.79
801.856	38.72
802.159	32.2
802.462	31.7
802.764	38.53
803.067	36.23
803.37	37.38
803.672	39.76
803.975	36.78
804.277	38.02
804.579	42.06
804.882	35.6
805.184	38.44
805.486	41.21
805.788	38.5
806.09	36.75
806.392	36.19
806.694	36.71
806.996	37.92
807.298	34.51
807.6	38.92
807.902	38.75
808.203	36.71
808.505	38.15
808.807	35.79
809.108	37.27
809.409	37.11
809.711	31.6
810.012	37.42
810.313	37.77
810.615	40.28
810.916	40.75
811.217	36.94
811.518	40.01
811.819	39.11
812.12	38.83
812.421	37.71
812.722	37.51
813.023	37.54
813.323	38.98
813.624	44.65
813.925	42.18
814.225	42
814.526	41.77
814.826	40.24
815.126	41.6
815.427	38.59
815.727	44.41
816.027	30.92
816.327	35.73
816.627	36.67
816.927	46.11
817.227	38.85
817.527	34.71
817.827	34.96
818.127	35.42
818.427	42.8
818.727	40.06
819.026	46.47
819.326	36.94
819.625	38.18
819.925	37.42
820.224	41.43
820.524	39.13
820.823	40.6
821.122	34.27
821.421	40.84
821.72	48.55
822.019	37.49
822.318	35.2
822.617	40.33
822.916	42.11
823.215	34.85
823.514	38.92
823.813	41.46
824.111	41.22
824.41	40.74
824.709	38.49
825.007	38.53
825.306	39.52
825.604	38.45
825.902	39.97
826.201	39.45
826.499	38.8
826.797	38.43
827.095	39.49
827.393	40.52
827.691	40.44
827.989	39.39
828.287	41.16
828.585	41.3
828.882	39.43
829.18	36.57
829.478	39.28
829.775	38.16
830.073	39.03
830.37	37.31
830.668	39.07
830.965	41.36
831.263	37.86
831.56	38.54
831.857	41.77
832.154	41.23
832.451	40.77
832.748	39.67
833.045	41.57
833.342	40.61
833.639	45.13
833.936	48.3
834.232	37.95
834.529	39.11
834.826	42.76
835.122	42.18
835.419	39.68
835.715	44.43
836.012	43.42
836.308	44.83
836.604	45.51
836.901	41.1
837.197	44.42
837.493	40.74
837.789	41.39
838.085	40.82
838.381	39.72
838.677	40.41
838.972	42.02
839.268	38.66
839.564	47.91
839.86	42.25
840.155	40.99
840.451	42.21
840.746	34.36
841.042	38.06
841.337	41.85
841.632	46.76
841.928	46.38
842.223	48.64
842.518	51.29
842.813	46.15
843.108	28.44
843.403	42.78
843.698	45.23
843.993	38.74
844.287	48.29
844.582	46.36
844.877	48.7
845.171	45.71
845.466	40.41
845.761	31.96
846.055	32.86
846.349	45.74
846.644	43.45
846.938	45.16
847.232	47.69
847.526	40.16
847.82	54.95
848.114	45.36
848.408	28.77
848.702	45.63
848.996	46.23
849.29	41.82
849.584	49.79
849.877	50.1
850.171	33.11
850.465	51.11
850.758	50.82
851.052	13.49
851.345	48.01
851.638	46.58
851.932	46.59
852.225	48.18
852.518	49.25
852.811	41.03
853.104	51.82
853.397	56.07
853.69	38.14
853.983	27.23
854.276	55.13
854.569	45.52
854.861	36.75
855.154	36.21
855.447	50.6
855.739	45.1
856.032	36.59
856.324	50.69
856.616	48.96
856.909	41.27
857.201	52.38
857.493	42.8
857.785	43.61
858.077	32.15
858.369	42.8
858.661	64.75
858.953	41.58
859.245	44.92
859.537	51.88
859.829	45.73
860.12	42.54
860.412	46.84
860.703	14.97
860.995	28.56
861.286	50.07
861.578	49.88
861.869	46.34
862.16	44.6
862.452	-7.17
862.743	46.24
863.034	49.4
863.325	51.16
863.616	36.22
863.907	28.41
864.198	46.3
864.488	32.82
864.779	36.3
865.07	53.98
865.36	32.09
865.651	72.56
865.941	39.79
866.232	43.39
866.522	46.04
866.813	51.38
867.103	66.27
867.393	58.86
867.683	40.51
867.973	54.08
868.263	35.99
868.553	46.11
868.843	49.48
869.133	56.38
869.423	55.52
869.713	34
870.002	61.98
870.292	67.95
870.582	38.67
870.871	32.21
871.161	39.42
871.45	30.64
871.739	69.62
872.029	34.54
872.318	38.32
872.607	74.23
872.896	37.51
873.185	54.2
873.474	48.11
873.763	41.17
874.052	52.33
874.341	41.11
874.63	61.09
874.918	45.27
875.207	70.86
875.496	25.1
875.784	51.93
876.073	42
876.361	36.1
876.649	62.18
876.938	52.14
877.226	16.71
877.514	40.04
877.802	22.1
878.09	53.81
878.378	58.71
878.666	67.39
878.954	40.39
879.242	95.78
879.53	40.22
879.817	43.81
880.105	28.09
880.392	35.66
880.68	70.1
880.967	60.68
881.255	71.53
881.542	49.83
881.83	51.27
882.117	41.55
882.404	40.28
882.691	14.96
882.978	48.46
883.265	50
883.552	48.54
883.839	41.14
884.126	46.68
884.413	35.98
884.699	45.96
884.986	38.47
885.273	42.65
885.559	42.65
885.846	42.65
