Data from 97277_chest_Reflection__2__78.txt Node

Date: Fri Sep 23 20:17:46 CDT 2022
User: ToomeyLab
Spectrometer: FLMS14357
Trigger mode: 0
Integration Time (sec): 1.000000E-2
Scans to average: 100
Electric dark correction enabled: true
Nonlinearity correction enabled: false
Boxcar width: 0
XAxis mode: Wavelengths
Number of Pixels in Spectrum: 2048
>>>>>Begin Spectral Data<<<<<
189.047	-46.93
189.435	-46.93
189.823	-46.93
190.211	-11.38
190.599	154.41
190.987	121.71
191.375	44.3
191.763	41.31
192.151	-97.04
192.538	175.29
192.926	-276.19
193.314	151.95
193.702	130.99
194.089	-23.92
194.477	180.87
194.864	-131.15
195.252	65.04
195.639	184.96
196.027	6.72
196.414	-162.49
196.801	40.09
197.189	-18.39
197.576	62.57
197.963	-0.12
198.351	32.66
198.738	-49.19
199.125	25.86
199.512	13.19
199.899	14.75
200.286	-38.73
200.673	-7.33
201.06	-8.84
201.447	28.3
201.833	9.2
202.22	-21.25
202.607	-19.07
202.994	-20.01
203.38	5.53
203.767	-31.74
204.154	0.48
204.54	0.82
204.927	25.54
205.313	9.5
205.699	-25.93
206.086	-32.71
206.472	7.45
206.858	4.73
207.245	15.86
207.631	14.57
208.017	10
208.403	15.34
208.789	-3.76
209.175	29.75
209.561	17.44
209.947	-3.01
210.333	-16.39
210.719	12.24
211.105	6.57
211.491	16.57
211.876	7.21
212.262	8.02
212.648	3.04
213.034	-79.13
213.419	-28.88
213.805	-1.32
214.19	-25.1
214.576	1.83
214.961	2.37
215.346	-16.66
215.732	3.45
216.117	-43.95
216.502	-12.96
216.888	9.44
217.273	10.4
217.658	-20.09
218.043	25.11
218.428	-10.14
218.813	6
219.198	4.13
219.583	7.52
219.968	10.66
220.353	-14.33
220.738	-8.36
221.122	7.06
221.507	7.13
221.892	-1.28
222.276	-11.59
222.661	-4.48
223.046	4.72
223.43	-4.86
223.815	1.84
224.199	-3.09
224.583	8.82
224.968	-1.92
225.352	-0.18
225.736	-5.11
226.121	16.73
226.505	0.11
226.889	0.75
227.273	-0.61
227.657	-6.68
228.041	-2.01
228.425	0.53
228.809	0.19
229.193	2.5
229.577	2.78
229.961	2.58
230.344	1.39
230.728	0.59
231.112	1.55
231.495	0.99
231.879	-0.57
232.263	2.06
232.646	1.99
233.03	1.42
233.413	2.78
233.797	1.17
234.18	0.11
234.563	-2.25
234.946	2.29
235.33	-0.72
235.713	1.17
236.096	-0.14
236.479	0.69
236.862	0.66
237.245	1.32
237.628	0.68
238.011	1.83
238.394	1.79
238.777	0.91
239.16	0.68
239.543	1.98
239.925	1.57
240.308	1.43
240.691	1.59
241.073	-0.24
241.456	1.59
241.838	2.08
242.221	2.56
242.603	1.95
242.986	0.64
243.368	0.86
243.75	1.25
244.133	1.57
244.515	1.44
244.897	1.85
245.279	2
245.661	1.88
246.043	1.17
246.425	0.67
246.807	0.86
247.189	1.6
247.571	1.34
247.953	1.73
248.335	1.77
248.717	1.82
249.098	1.6
249.48	1.63
249.862	1.67
250.243	1.87
250.625	1.64
251.006	1.95
251.388	1.25
251.769	1.87
252.151	0.63
252.532	1.36
252.913	1.48
253.295	1.62
253.676	1.67
254.057	1.34
254.438	1.5
254.819	1.79
255.2	1.81
255.581	1.89
255.962	1.36
256.343	1.16
256.724	0.95
257.105	1.69
257.486	1.71
257.867	1.59
258.247	2.05
258.628	0.85
259.009	1.21
259.389	1.66
259.77	1.42
260.15	1.45
260.531	1.69
260.911	1.49
261.292	1.58
261.672	1.4
262.052	1.6
262.432	1.41
262.813	1.85
263.193	1.19
263.573	1.72
263.953	1.13
264.333	1.41
264.713	1.92
265.093	1.95
265.473	0.84
265.853	1.11
266.233	1.13
266.612	1.84
266.992	1.56
267.372	1.65
267.752	1.52
268.131	2.1
268.511	1.31
268.89	1.62
269.27	1.25
269.649	1.1
270.029	1.25
270.408	2.03
270.787	1.19
271.167	1.3
271.546	1.82
271.925	1.65
272.304	1.39
272.683	1.33
273.062	1.01
273.441	1.66
273.82	1.45
274.199	1.41
274.578	1.29
274.957	1.5
275.336	1.69
275.715	1.32
276.093	1.95
276.472	1.99
276.851	1.3
277.229	1.47
277.608	1.43
277.986	1.1
278.365	1.85
278.743	1.97
279.122	1.17
279.5	1.57
279.878	1.64
280.257	1.66
280.635	1.71
281.013	1.12
281.391	1.59
281.769	1.33
282.147	1.42
282.525	1.78
282.903	1.39
283.281	1.6
283.659	1.43
284.037	1.31
284.415	1.42
284.792	1.12
285.17	1.57
285.548	1.28
285.925	1.89
286.303	2.01
286.68	1.78
287.058	1.57
287.435	1.61
287.813	1.79
288.19	1.45
288.567	1.98
288.945	1.42
289.322	1.33
289.699	1.48
290.076	1.72
290.453	1.44
290.83	1.6
291.207	1.72
291.584	2.03
291.961	1.3
292.338	1.89
292.715	1.93
293.092	1.44
293.469	2.05
293.845	1.96
294.222	2.24
294.599	1.33
294.975	1.96
295.352	1.94
295.728	1.73
296.105	1.58
296.481	1.71
296.858	1.71
297.234	1.95
297.61	1.38
297.986	1.57
298.363	1.47
298.739	1.7
299.115	1.89
299.491	1.84
299.867	1.93
300.243	1.76
300.619	2.16
300.995	2.37
301.371	1.51
301.746	2.08
302.122	1.75
302.498	1.76
302.874	1.65
303.249	1.97
303.625	1.52
304	1.82
304.376	1.39
304.751	1.3
305.127	1.92
305.502	1.88
305.878	1.96
306.253	1.8
306.628	1.84
307.003	1.25
307.378	2.38
307.754	1.9
308.129	1.88
308.504	1.87
308.879	2.03
309.254	1.53
309.629	2.41
310.003	1.91
310.378	2.07
310.753	2.04
311.128	1.69
311.502	1.63
311.877	1.76
312.252	1.9
312.626	1.96
313.001	1.86
313.375	2.41
313.75	1.56
314.124	1.7
314.498	2.27
314.873	2.31
315.247	1.97
315.621	1.94
315.995	2.2
316.369	1.7
316.743	1.37
317.117	1.24
317.491	1.88
317.865	1.85
318.239	2.05
318.613	2.27
318.987	1.64
319.361	1.67
319.734	2.11
320.108	1.72
320.482	2.18
320.855	2.3
321.229	2.38
321.602	1.82
321.976	2.1
322.349	2.15
322.723	2.1
323.096	2.05
323.469	1.74
323.843	1.54
324.216	2.25
324.589	2.4
324.962	1.86
325.335	1.98
325.708	2.24
326.081	1.93
326.454	1.96
326.827	1.96
327.2	1.54
327.573	2.32
327.945	2.54
328.318	2.06
328.691	2.6
329.063	2.59
329.436	2.31
329.809	2.34
330.181	2.29
330.553	1.76
330.926	2.31
331.298	2.34
331.671	2.81
332.043	2.6
332.415	2.41
332.787	1.78
333.159	2.34
333.532	1.8
333.904	1.94
334.276	1.86
334.648	2.19
335.02	2.05
335.391	2.26
335.763	2.01
336.135	2.53
336.507	2.12
336.879	1.71
337.25	2.26
337.622	2.05
337.993	2.1
338.365	1.78
338.736	2.64
339.108	2.45
339.479	1.7
339.851	2.46
340.222	2.23
340.593	1.99
340.964	2.29
341.336	2.23
341.707	2.63
342.078	1.98
342.449	2
342.82	2.25
343.191	2.11
343.562	2.36
343.933	2.3
344.303	2.08
344.674	2.31
345.045	2.63
345.416	1.99
345.786	2.35
346.157	2.08
346.527	2.19
346.898	2.71
347.268	2.2
347.639	2.52
348.009	2.17
348.38	2.47
348.75	2.03
349.12	2.31
349.49	2.57
349.861	2.64
350.231	1.81
350.601	1.86
350.971	2.16
351.341	2.04
351.711	2.2
352.081	2.12
352.45	1.57
352.82	2.18
353.19	2.58
353.56	2.2
353.929	2.37
354.299	2.11
354.669	2.41
355.038	2.45
355.408	2.09
355.777	2.38
356.147	2.07
356.516	2.58
356.885	2.44
357.254	2.06
357.624	2.41
357.993	2.58
358.362	2.25
358.731	2.44
359.1	2.43
359.469	2.18
359.838	2.3
360.207	2.65
360.576	2.34
360.945	2.46
361.314	1.92
361.682	1.97
362.051	2.44
362.42	2.79
362.788	2.38
363.157	2.42
363.525	2.46
363.894	2.37
364.262	2.15
364.631	2.6
364.999	2.38
365.367	2.35
365.735	2.41
366.104	2.39
366.472	2.46
366.84	2.31
367.208	2.49
367.576	2.69
367.944	2.45
368.312	2.61
368.68	2.2
369.048	2.44
369.416	2.56
369.783	2.59
370.151	2.43
370.519	2.33
370.886	2.5
371.254	2.53
371.621	2.44
371.989	2.63
372.356	2.62
372.724	2.33
373.091	2.37
373.458	2.56
373.826	2.3
374.193	2.64
374.56	2.47
374.927	2.77
375.294	2.59
375.661	2.47
376.028	2.46
376.395	2.31
376.762	2.2
377.129	2.21
377.496	2.78
377.863	2.45
378.229	2.46
378.596	2.37
378.963	2.93
379.329	2.73
379.696	2.58
380.062	2.7
380.429	2.6
380.795	2.27
381.161	2.52
381.528	2.71
381.894	2.37
382.26	2.42
382.626	2.53
382.993	2.59
383.359	2.59
383.725	2.71
384.091	2.44
384.457	2.47
384.823	2.58
385.188	2.6
385.554	2.65
385.92	2.7
386.286	2.37
386.651	2.38
387.017	2.5
387.383	2.63
387.748	2.63
388.114	2.34
388.479	2.58
388.845	2.55
389.21	2.33
389.575	2.37
389.94	2.52
390.306	2.4
390.671	2.47
391.036	2.6
391.401	2.91
391.766	2.55
392.131	2.69
392.496	2.62
392.861	2.8
393.226	2.56
393.591	2.31
393.956	2.75
394.32	2.76
394.685	2.76
395.05	2.93
395.414	2.63
395.779	2.49
396.143	2.49
396.508	2.79
396.872	2.48
397.236	2.68
397.601	2.91
397.965	2.82
398.329	2.74
398.694	2.59
399.058	2.68
399.422	2.68
399.786	2.82
400.15	2.73
400.514	2.72
400.878	2.68
401.242	2.54
401.605	2.99
401.969	2.77
402.333	2.4
402.697	2.55
403.06	2.66
403.424	2.69
403.787	2.78
404.151	2.62
404.514	2.54
404.878	2.59
405.241	2.67
405.604	2.6
405.968	2.56
406.331	2.82
406.694	2.8
407.057	2.72
407.42	2.78
407.783	2.78
408.146	2.68
408.509	2.68
408.872	2.69
409.235	2.81
409.598	3.12
409.961	2.86
410.323	2.88
410.686	2.7
411.049	2.52
411.411	2.75
411.774	2.65
412.136	2.61
412.499	2.76
412.861	2.57
413.223	2.66
413.586	2.79
413.948	2.78
414.31	2.73
414.672	2.85
415.035	2.76
415.397	2.96
415.759	2.99
416.121	2.95
416.483	2.72
416.845	2.75
417.206	2.69
417.568	2.82
417.93	2.79
418.292	2.92
418.653	2.85
419.015	2.84
419.377	2.75
419.738	2.75
420.1	2.73
420.461	2.76
420.822	2.92
421.184	2.8
421.545	2.83
421.906	2.86
422.267	2.75
422.629	2.73
422.99	2.75
423.351	2.79
423.712	2.79
424.073	2.73
424.434	2.76
424.795	2.89
425.155	2.83
425.516	2.9
425.877	2.81
426.238	2.87
426.598	2.82
426.959	2.79
427.32	2.89
427.68	2.87
428.041	2.92
428.401	2.94
428.761	2.97
429.122	2.83
429.482	2.85
429.842	3.13
430.202	3
430.563	2.87
430.923	3.15
431.283	3.17
431.643	2.83
432.003	3.01
432.363	3.04
432.722	3.1
433.082	2.82
433.442	2.78
433.802	2.93
434.161	2.95
434.521	3
434.881	2.74
435.24	2.87
435.6	2.92
435.959	3.02
436.319	2.93
436.678	2.89
437.037	3.08
437.396	2.93
437.756	2.86
438.115	2.94
438.474	2.83
438.833	3.11
439.192	3.1
439.551	2.92
439.91	3.05
440.269	3.04
440.628	2.81
440.987	2.88
441.345	2.97
441.704	2.95
442.063	3.02
442.421	2.84
442.78	2.9
443.138	2.93
443.497	3.04
443.855	2.99
444.214	3.15
444.572	2.89
444.93	2.92
445.288	3.08
445.647	3.12
446.005	3.04
446.363	2.98
446.721	2.9
447.079	3.08
447.437	3.03
447.795	3.05
448.153	2.95
448.51	3.01
448.868	3.04
449.226	3.06
449.584	2.89
449.941	3.07
450.299	3.08
450.656	3.11
451.014	3.09
451.371	2.92
451.729	3.03
452.086	3.18
452.443	3.06
452.801	3.04
453.158	3.21
453.515	3.15
453.872	3.05
454.229	3.2
454.586	3.12
454.943	3.25
455.3	3.01
455.657	2.95
456.014	3.17
456.371	2.96
456.727	3.04
457.084	3.18
457.441	3.18
457.797	2.87
458.154	3.04
458.51	3.06
458.867	3.14
459.223	3.25
459.58	3.09
459.936	3.21
460.292	3.06
460.648	3.25
461.005	3.17
461.361	3.07
461.717	3.09
462.073	3.04
462.429	3.09
462.785	3.13
463.141	3.07
463.496	3.2
463.852	3.22
464.208	3.1
464.564	3.29
464.919	3.31
465.275	3.2
465.631	3.18
465.986	3.02
466.342	3.17
466.697	3.1
467.052	3.27
467.408	3.25
467.763	3.27
468.118	3.19
468.473	3.15
468.829	3.12
469.184	3.47
469.539	3.05
469.894	3.22
470.249	3.21
470.603	3.31
470.958	3.2
471.313	3.32
471.668	3.24
472.023	3.38
472.377	3.2
472.732	3.32
473.086	3.2
473.441	3.31
473.795	3.28
474.15	3.28
474.504	3.31
474.859	3.34
475.213	3.38
475.567	3.12
475.921	3.35
476.275	3.24
476.63	3.22
476.984	3.39
477.338	3.27
477.692	3.27
478.045	3.14
478.399	3.32
478.753	3.32
479.107	3.3
479.461	3.24
479.814	3.2
480.168	3.33
480.521	3.32
480.875	3.29
481.228	3.35
481.582	3.43
481.935	3.36
482.289	3.37
482.642	3.21
482.995	3.43
483.348	3.22
483.701	3.34
484.055	3.3
484.408	3.25
484.761	3.28
485.114	3.1
485.466	3.04
485.819	3.07
486.172	3.15
486.525	3.24
486.878	3.24
487.23	3.29
487.583	3.3
487.936	3.34
488.288	3.28
488.641	3.23
488.993	3.2
489.345	3.23
489.698	3.18
490.05	3.25
490.402	3.22
490.754	3.34
491.107	3.38
491.459	3.38
491.811	3.38
492.163	3.43
492.515	3.36
492.866	3.3
493.218	3.23
493.57	3.18
493.922	3.27
494.274	3.36
494.625	3.36
494.977	3.42
495.328	3.51
495.68	3.46
496.031	3.43
496.383	3.44
496.734	3.54
497.086	3.58
497.437	3.6
497.788	3.44
498.139	3.5
498.49	3.31
498.842	3.41
499.193	3.55
499.544	3.42
499.894	3.47
500.245	3.54
500.596	3.62
500.947	3.5
501.298	3.53
501.648	3.71
501.999	3.64
502.35	3.64
502.7	3.5
503.051	3.49
503.401	3.52
503.752	3.51
504.102	3.68
504.452	3.64
504.803	3.66
505.153	3.67
505.503	3.45
505.853	3.59
506.203	3.7
506.553	3.58
506.903	3.66
507.253	3.69
507.603	3.62
507.953	3.61
508.303	3.66
508.652	3.58
509.002	3.71
509.352	3.76
509.701	3.63
510.051	3.58
510.4	3.69
510.75	3.58
511.099	3.66
511.449	3.57
511.798	3.75
512.147	3.77
512.496	3.69
512.846	3.71
513.195	3.6
513.544	3.9
513.893	3.74
514.242	3.73
514.591	3.67
514.939	3.87
515.288	3.78
515.637	3.71
515.986	3.73
516.334	3.72
516.683	3.84
517.032	3.78
517.38	3.88
517.729	3.76
518.077	3.67
518.426	3.84
518.774	3.8
519.122	3.86
519.47	3.74
519.819	3.79
520.167	3.65
520.515	3.68
520.863	3.8
521.211	3.75
521.559	3.8
521.907	3.85
522.255	3.88
522.602	3.79
522.95	3.96
523.298	3.77
523.645	3.9
523.993	3.85
524.341	3.99
524.688	3.81
525.036	3.89
525.383	3.89
525.73	3.98
526.078	3.91
526.425	3.89
526.772	3.84
527.119	3.85
527.466	3.81
527.814	3.85
528.161	3.96
528.508	3.93
528.854	3.96
529.201	3.83
529.548	3.91
529.895	3.83
530.242	3.69
530.588	3.69
530.935	3.82
531.282	3.81
531.628	3.87
531.975	3.9
532.321	3.94
532.667	4.04
533.014	4.03
533.36	4.04
533.706	3.95
534.052	4.01
534.399	3.91
534.745	3.95
535.091	3.86
535.437	3.94
535.783	4.03
536.129	4.04
536.474	4.06
536.82	4.04
537.166	4.14
537.512	4.07
537.857	4.16
538.203	4.12
538.549	3.99
538.894	4.1
539.239	4.15
539.585	4.13
539.93	4.29
540.276	4.31
540.621	4.16
540.966	4.27
541.311	4.31
541.656	4.16
542.001	4.31
542.346	4.17
542.691	4.09
543.036	4.13
543.381	4.07
543.726	4.15
544.071	4.11
544.415	4.21
544.76	4.16
545.105	4.22
545.449	4.34
545.794	4.32
546.138	4.36
546.483	4.38
546.827	4.4
547.171	4.32
547.516	4.39
547.86	4.29
548.204	4.4
548.548	4.28
548.892	4.33
549.236	4.48
549.58	4.43
549.924	4.56
550.268	4.53
550.612	4.41
550.956	4.52
551.3	4.5
551.643	4.6
551.987	4.61
552.33	4.6
552.674	4.59
553.017	4.53
553.361	4.65
553.704	4.52
554.048	4.68
554.391	4.57
554.734	4.63
555.077	4.62
555.42	4.51
555.764	4.62
556.107	4.69
556.45	4.74
556.793	4.75
557.135	4.71
557.478	4.7
557.821	4.75
558.164	4.82
558.507	4.66
558.849	4.82
559.192	4.8
559.534	4.75
559.877	4.97
560.219	4.66
560.562	5.01
560.904	4.84
561.246	4.75
561.589	4.82
561.931	4.95
562.273	5.04
562.615	4.92
562.957	4.88
563.299	4.81
563.641	5.11
563.983	5.06
564.325	5.02
564.667	5.02
565.008	4.96
565.35	5.27
565.692	4.9
566.033	5.1
566.375	5.07
566.716	5.03
567.058	5.09
567.399	4.93
567.741	5.01
568.082	5.03
568.423	4.92
568.764	5.03
569.105	5.17
569.447	5.05
569.788	5.2
570.129	5.01
570.47	5.05
570.811	5.2
571.151	5.36
571.492	5.1
571.833	5.39
572.174	5.28
572.514	5.35
572.855	5.22
573.195	5.17
573.536	5.33
573.876	5.08
574.217	5.23
574.557	5.21
574.898	5.3
575.238	5.37
575.578	5.51
575.918	5.27
576.258	5.28
576.598	5.35
576.938	5.48
577.278	5.48
577.618	5.28
577.958	5.48
578.298	5.37
578.638	5.37
578.977	5.47
579.317	5.61
579.657	5.67
579.996	5.32
580.336	5.63
580.675	5.57
581.014	5.61
581.354	5.61
581.693	5.56
582.032	5.96
582.372	5.82
582.711	5.66
583.05	5.71
583.389	5.8
583.728	5.86
584.067	5.51
584.406	5.64
584.745	5.71
585.083	5.63
585.422	5.9
585.761	5.55
586.1	5.73
586.438	5.66
586.777	5.79
587.115	5.87
587.454	5.83
587.792	5.96
588.13	5.93
588.469	5.79
588.807	5.64
589.145	5.93
589.483	6.16
589.821	5.89
590.159	6.04
590.497	5.81
590.835	5.83
591.173	6.22
591.511	6.26
591.849	5.94
592.187	5.99
592.524	6.36
592.862	6.19
593.2	6.17
593.537	6.32
593.875	6.35
594.212	6.11
594.55	6.14
594.887	6.17
595.224	6.16
595.561	6.17
595.899	6.12
596.236	6.03
596.573	6.2
596.91	6.29
597.247	6.16
597.584	6.37
597.921	6.49
598.258	6.06
598.594	6.13
598.931	6.2
599.268	6.26
599.604	6.31
599.941	6.43
600.277	6.44
600.614	6.34
600.95	6.32
601.287	6.46
601.623	6.5
601.959	6.43
602.296	6.27
602.632	6.65
602.968	6.19
603.304	6.55
603.64	6.53
603.976	6.44
604.312	6.63
604.648	6.66
604.984	6.55
605.319	6.63
605.655	6.63
605.991	6.5
606.326	6.59
606.662	6.84
606.998	6.87
607.333	6.78
607.668	6.68
608.004	6.68
608.339	6.73
608.674	6.79
609.01	6.85
609.345	6.93
609.68	6.82
610.015	6.93
610.35	6.85
610.685	6.54
611.02	6.85
611.355	6.77
611.689	6.88
612.024	6.94
612.359	6.77
612.694	7.14
613.028	7.49
613.363	7.2
613.697	6.89
614.032	7.14
614.366	7.28
614.7	7.1
615.035	7.23
615.369	7.17
615.703	7.23
616.037	7.38
616.371	7.42
616.705	7.2
617.039	7.42
617.373	7.44
617.707	7.52
618.041	7.46
618.375	7.67
618.709	7.11
619.042	7.39
619.376	7.48
619.71	7.47
620.043	7.51
620.377	7.24
620.71	7.35
621.043	7.39
621.377	6.85
621.71	7.77
622.043	7.4
622.376	7.43
622.709	7.44
623.043	7.18
623.376	7.5
623.709	7.66
624.041	7.56
624.374	7.4
624.707	7.49
625.04	8.02
625.373	7.77
625.705	7.61
626.038	7.46
626.37	7.29
626.703	7.61
627.035	7.82
627.368	7.82
627.7	7.74
628.032	7.29
628.365	7.58
628.697	7.67
629.029	7.83
629.361	8.02
629.693	7.76
630.025	8
630.357	8.29
630.689	8.12
631.021	7.73
631.353	8.1
631.684	7.84
632.016	7.92
632.348	7.86
632.679	8.04
633.011	7.87
633.342	8.17
633.674	8.16
634.005	8.09
634.336	8.34
634.668	8.15
634.999	8.08
635.33	8.26
635.661	8.06
635.992	8.2
636.323	8.41
636.654	8.44
636.985	8.61
637.316	8.43
637.647	8.24
637.977	8.34
638.308	8.39
638.639	8.01
638.969	8.45
639.3	8.21
639.63	8.31
639.961	8.46
640.291	8.24
640.622	8.56
640.952	8.2
641.282	8.16
641.612	8.61
641.943	8.59
642.273	8.58
642.603	8.82
642.933	9
643.263	7.81
643.592	8.6
643.922	8.59
644.252	9.12
644.582	8.77
644.911	8.34
645.241	8.71
645.571	9.14
645.9	8.82
646.23	9.17
646.559	8.82
646.888	8.72
647.218	8.94
647.547	8.74
647.876	8.33
648.205	8.74
648.534	9.02
648.863	9.05
649.192	9.07
649.521	8.64
649.85	8.66
650.179	8.69
650.508	8.89
650.837	8.9
651.165	9.31
651.494	8.91
651.822	8.79
652.151	8.87
652.479	9.04
652.808	9.11
653.136	8.85
653.465	9.16
653.793	9.04
654.121	8.93
654.449	9.08
654.777	9.17
655.105	9.25
655.433	9.25
655.761	9.16
656.089	9.68
656.417	9.28
656.745	9.25
657.073	8.81
657.4	9.5
657.728	9.06
658.056	9.25
658.383	9.49
658.711	9.22
659.038	9.35
659.365	9.18
659.693	9.61
660.02	9.65
660.347	9.44
660.674	9.15
661.001	9.56
661.329	9.25
661.656	9.83
661.982	9.54
662.309	9.64
662.636	10.09
662.963	9.84
663.29	9.77
663.616	9.86
663.943	9.85
664.27	9.85
664.596	9.63
664.923	10.1
665.249	9.72
665.576	10.27
665.902	9.69
666.228	10.27
666.554	9.35
666.881	9.83
667.207	10.05
667.533	9.68
667.859	9.62
668.185	9.82
668.511	9.94
668.837	10.34
669.162	9.72
669.488	9.75
669.814	9.93
670.139	9.77
670.465	10
670.791	10.02
671.116	9.74
671.442	10.38
671.767	10.2
672.092	9.87
672.418	10.05
672.743	10.24
673.068	10.07
673.393	10.64
673.718	10.03
674.043	10.2
674.368	10.88
674.693	10.11
675.018	10.23
675.343	10.97
675.667	10.29
675.992	10.6
676.317	10.79
676.641	10.14
676.966	10.16
677.29	10.14
677.615	10.6
677.939	10.6
678.264	10.27
678.588	10.79
678.912	10.75
679.236	10.26
679.56	10.51
679.885	10.38
680.209	10.09
680.532	10.7
680.856	10.69
681.18	11
681.504	11.44
681.828	11.18
682.152	11.27
682.475	10.65
682.799	10.72
683.122	10.25
683.446	11.19
683.769	10.71
684.093	10.59
684.416	11.18
684.739	11.26
685.062	11.3
685.386	11.09
685.709	10.94
686.032	10.82
686.355	10.75
686.678	11.25
687.001	11.26
687.324	11.29
687.646	11.59
687.969	11.41
688.292	10.74
688.614	11.18
688.937	10.45
689.26	11.14
689.582	10.85
689.904	11.27
690.227	11.7
690.549	10.99
690.871	11.75
691.194	10.52
691.516	10.84
691.838	11.22
692.16	11.7
692.482	11.38
692.804	11.38
693.126	12.29
693.448	10.7
693.769	11.56
694.091	11.05
694.413	10.9
694.735	11.85
695.056	11.21
695.378	11.53
695.699	12.52
696.021	12.36
696.342	11.84
696.663	11.79
696.984	11.74
697.306	11.74
697.627	12.13
697.948	11.43
698.269	12
698.59	10.81
698.911	11.83
699.232	11.5
699.553	11.09
699.873	11.31
700.194	11.64
700.515	11.09
700.835	11.4
701.156	11.79
701.477	11.68
701.797	11.67
702.117	11.71
702.438	11.5
702.758	10.78
703.078	12.63
703.398	12.38
703.719	12.28
704.039	11.9
704.359	12.71
704.679	12.14
704.999	11.34
705.319	12.13
705.638	12.5
705.958	12.11
706.278	12.52
706.597	12.1
706.917	11.7
707.237	11.73
707.556	11.43
707.876	11.82
708.195	12.18
708.514	12.88
708.834	11.31
709.153	12.58
709.472	12.66
709.791	12.01
710.11	12.25
710.429	12.36
710.748	10.64
711.067	12.26
711.386	13.24
711.705	11.98
712.023	12.46
712.342	12.53
712.661	11.97
712.979	12.9
713.298	11.95
713.616	12.5
713.935	12.65
714.253	14.06
714.572	12.43
714.89	12.83
715.208	11.55
715.526	12.11
715.844	12.51
716.162	12.39
716.48	12.78
716.798	12.15
717.116	13.15
717.434	12.39
717.752	13.32
718.069	12.85
718.387	13.05
718.705	12.93
719.022	13.36
719.34	11.68
719.657	12.58
719.975	12.4
720.292	13.19
720.609	12.41
720.927	13.45
721.244	13.65
721.561	12.73
721.878	12.88
722.195	13.44
722.512	13.27
722.829	14.15
723.146	13.22
723.463	12.98
723.779	12.96
724.096	13.57
724.413	12.7
724.729	14
725.046	13.7
725.362	12.3
725.679	14.03
725.995	13.53
726.311	12.96
726.628	12.34
726.944	13.29
727.26	14.22
727.576	13.89
727.892	12.01
728.208	13.34
728.524	14.12
728.84	13.16
729.156	12.95
729.472	13.44
729.787	13.57
730.103	13.47
730.419	13.51
730.734	14.77
731.05	13.36
731.365	15.32
731.681	14.79
731.996	13.13
732.311	14.91
732.626	13.17
732.942	13.08
733.257	14.11
733.572	13.1
733.887	14.74
734.202	13.61
734.517	13.83
734.832	15.49
735.146	14.36
735.461	13.62
735.776	13.35
736.091	14.35
736.405	13.35
736.72	14.99
737.034	13.28
737.349	14.35
737.663	14.22
737.977	13.55
738.292	13.99
738.606	15.51
738.92	12.97
739.234	14.07
739.548	12.71
739.862	13.07
740.176	12.84
740.49	13.09
740.804	14.35
741.117	13.74
741.431	14.28
741.745	15.56
742.058	14.52
742.372	15.91
742.685	14.1
742.999	16.33
743.312	13.22
743.626	13.82
743.939	13.97
744.252	14.68
744.565	12.82
744.878	14.36
745.191	14.78
745.505	15.57
745.817	15.69
746.13	13.77
746.443	13.33
746.756	15.45
747.069	12.38
747.381	14.26
747.694	15.64
748.007	15.27
748.319	14.25
748.632	14.01
748.944	14.36
749.256	14.33
749.569	15.54
749.881	14.12
750.193	14.44
750.505	15.3
750.817	14.3
751.129	13.87
751.441	15.12
751.753	15.11
752.065	14.8
752.377	13.98
752.689	14.48
753	14.77
753.312	13.1
753.624	13.26
753.935	16.18
754.247	15.85
754.558	16.78
754.869	13.92
755.181	13.72
755.492	15.34
755.803	14.15
756.114	16.37
756.425	13.98
756.736	15.84
757.047	15.95
757.358	15.71
757.669	13.64
757.98	15.86
758.291	17.2
758.601	14.75
758.912	15.14
759.223	15.43
759.533	17.54
759.844	16.18
760.154	17.05
760.464	14.2
760.775	14.37
761.085	13.92
761.395	16
761.705	17.21
762.016	15.68
762.326	16.12
762.636	13.35
762.945	16.38
763.255	15.14
763.565	16.3
763.875	15.93
764.185	15.85
764.494	15.14
764.804	15.74
765.113	15.65
765.423	15.52
765.732	16.32
766.042	16.21
766.351	15.78
766.66	14.46
766.97	16.12
767.279	16.03
767.588	15.64
767.897	17.13
768.206	15.55
768.515	15.71
768.824	17.11
769.133	16.13
769.441	16.01
769.75	17.17
770.059	15.33
770.367	15.42
770.676	16.44
770.984	15.31
771.293	15.17
771.601	17.46
771.91	15.09
772.218	13.68
772.526	13.4
772.834	15.89
773.142	17.26
773.45	18.5
773.758	17.08
774.066	14.91
774.374	13.12
774.682	17.69
774.99	15.34
775.298	13.92
775.605	17.43
775.913	13.25
776.22	15.41
776.528	17.55
776.835	17.8
777.143	15.17
777.45	15.75
777.757	15.26
778.065	15.45
778.372	14.94
778.679	17.34
778.986	18.27
779.293	15.46
779.6	19.4
779.907	16.33
780.214	19.7
780.52	14.09
780.827	13.74
781.134	16.56
781.44	18.6
781.747	18.32
782.053	17.26
782.36	16.41
782.666	14.39
782.973	16.06
783.279	13.68
783.585	18.52
783.891	17.54
784.197	14.42
784.503	20
784.809	15.74
785.115	17.18
785.421	16.76
785.727	18.14
786.033	17.95
786.339	16.65
786.644	15.68
786.95	17.56
787.255	16.7
787.561	17.18
787.866	17.19
788.172	19.97
788.477	16.99
788.782	12.95
789.088	17.4
789.393	17.91
789.698	17.7
790.003	17.98
790.308	18.36
790.613	12.59
790.918	14.76
791.223	16.11
791.527	16.96
791.832	17.29
792.137	15.16
792.441	17.25
792.746	14.85
793.05	13.12
793.355	19.52
793.659	15.2
793.963	15.95
794.268	20.79
794.572	14.5
794.876	19.37
795.18	14.06
795.484	18.52
795.788	17.93
796.092	18.19
796.396	16.93
796.7	12.62
797.004	16.19
797.307	12.43
797.611	17.58
797.915	21.26
798.218	13.76
798.522	19.11
798.825	15.73
799.128	19.29
799.432	17.93
799.735	17.82
800.038	19.57
800.341	15.64
800.644	11.12
800.947	19.34
801.25	17.81
801.553	15.97
801.856	18.85
802.159	19.1
802.462	18.31
802.764	23.99
803.067	20.29
803.37	14.65
803.672	16.95
803.975	13.18
804.277	15.44
804.579	16.92
804.882	16.32
805.184	14.1
805.486	21.6
805.788	16.02
806.09	18.52
806.392	18.5
806.694	18.02
806.996	13.56
807.298	20.53
807.6	20.65
807.902	20.29
808.203	17.25
808.505	21.98
808.807	17.38
809.108	14.1
809.409	22.54
809.711	19.33
810.012	17.89
810.313	20.98
810.615	15.32
810.916	14.63
811.217	21.55
811.518	16.4
811.819	18.82
812.12	17.7
812.421	16.89
812.722	12.96
813.023	23.3
813.323	22.22
813.624	24.93
813.925	17.77
814.225	15.24
814.526	15.79
814.826	14.48
815.126	14.81
815.427	13.76
815.727	16.27
816.027	16.82
816.327	18.55
816.627	22.25
816.927	21.11
817.227	16.53
817.527	14.52
817.827	20.97
818.127	18.88
818.427	25.09
818.727	13.62
819.026	20.46
819.326	17.16
819.625	21.54
819.925	17.21
820.224	18.67
820.524	18.78
820.823	21.44
821.122	21.53
821.421	17.8
821.72	18.17
822.019	19.58
822.318	18.58
822.617	18.84
822.916	16.09
823.215	17.98
823.514	16.72
823.813	17.36
824.111	20.29
824.41	19.68
824.709	19.36
825.007	19.9
825.306	19.71
825.604	19.83
825.902	20.71
826.201	20.73
826.499	21.06
826.797	21.21
827.095	20.22
827.393	21.49
827.691	21.69
827.989	20.86
828.287	21.16
828.585	21.7
828.882	20.49
829.18	19.93
829.478	20.1
829.775	20.36
830.073	21.99
830.37	20.2
830.668	19.88
830.965	19.73
831.263	20.4
831.56	19.76
831.857	20.87
832.154	19.57
832.451	22.13
832.748	17.71
833.045	19.56
833.342	17.06
833.639	19.17
833.936	22.14
834.232	17.43
834.529	22.85
834.826	20.49
835.122	18.31
835.419	22.55
835.715	17.93
836.012	16.75
836.308	19.03
836.604	22.37
836.901	17.49
837.197	20.21
837.493	20.35
837.789	21.63
838.085	19.33
838.381	19.68
838.677	19.88
838.972	24.13
839.268	20.65
839.564	17.67
839.86	18.63
840.155	18.84
840.451	22.85
840.746	16.5
841.042	17.8
841.337	18.23
841.632	20.72
841.928	24.81
842.223	17.84
842.518	23.34
842.813	15.21
843.108	18.33
843.403	7.6
843.698	12.71
843.993	17.31
844.287	20.85
844.582	26.17
844.877	8.85
845.171	15.69
845.466	26.88
845.761	27.17
846.055	26.09
846.349	13.58
846.644	4.94
846.938	6.69
847.232	15.28
847.526	10.43
847.82	22.05
848.114	10.99
848.408	19.83
848.702	28.73
848.996	22.73
849.29	12.28
849.584	8.57
849.877	17.58
850.171	-1.16
850.465	19.89
850.758	16.39
851.052	16.08
851.345	26.56
851.638	20.71
851.932	2.02
852.225	13.9
852.518	10.24
852.811	6.55
853.104	4.95
853.397	9.79
853.69	13.13
853.983	12.55
854.276	14.63
854.569	31.41
854.861	13.68
855.154	26.11
855.447	13.38
855.739	13.05
856.032	22.76
856.324	20.51
856.616	13.75
856.909	26.25
857.201	3.04
857.493	5.09
857.785	19.77
858.077	21.63
858.369	17.1
858.661	36.58
858.953	-22.94
859.245	21.37
859.537	11.38
859.829	-6.74
860.12	22.1
860.412	6.89
860.703	12.17
860.995	31.28
861.286	20.34
861.578	16.73
861.869	14.44
862.16	26.9
862.452	12.2
862.743	19.16
863.034	2.67
863.325	32.85
863.616	11.33
863.907	28.48
864.198	19.82
864.488	15.78
864.779	5.26
865.07	11.4
865.36	-9.69
865.651	20.93
865.941	33.04
866.232	42.81
866.522	4.7
866.813	21.81
867.103	20.34
867.393	5.21
867.683	14.11
867.973	10.14
868.263	-7.93
868.553	-1.46
868.843	20.86
869.133	10.02
869.423	31.58
869.713	-18.47
870.002	18.46
870.292	25.58
870.582	27.01
870.871	-1.33
871.161	2.83
871.45	4.31
871.739	29.22
872.029	28.96
872.318	9.45
872.607	9.18
872.896	13.01
873.185	3.05
873.474	10.21
873.763	21.5
874.052	-4
874.341	20.82
874.63	17.39
874.918	22.41
875.207	32.1
875.496	-13.63
875.784	2.79
876.073	0.62
876.361	13.68
876.649	-1.63
876.938	6.83
877.226	-6.11
877.514	28.46
877.802	32.54
878.09	24.08
878.378	21.19
878.666	6.6
878.954	-11.15
879.242	13.24
879.53	5.48
879.817	50.7
880.105	-1.23
880.392	26.34
880.68	19.05
880.967	25.81
881.255	17.42
881.542	29
881.83	29.76
882.117	31.15
882.404	-7.77
882.691	16.06
882.978	-5.2
883.265	-2.26
883.552	22.48
883.839	14.58
884.126	11.14
884.413	21.28
884.699	19.71
884.986	20.44
885.273	25.94
885.559	25.94
885.846	25.94
