Data from 97277_crown_Reflection__3__89.txt Node

Date: Fri Sep 23 20:20:56 CDT 2022
User: ToomeyLab
Spectrometer: FLMS14357
Trigger mode: 0
Integration Time (sec): 1.000000E-2
Scans to average: 100
Electric dark correction enabled: true
Nonlinearity correction enabled: false
Boxcar width: 0
XAxis mode: Wavelengths
Number of Pixels in Spectrum: 2048
>>>>>Begin Spectral Data<<<<<
189.047	-20.52
189.435	-20.52
189.823	-20.52
190.211	-90.13
190.599	-37.17
190.987	10.98
191.375	-29.79
191.763	60.65
192.151	-57.8
192.538	212.33
192.926	-178.88
193.314	175.12
193.702	109.19
194.089	22.58
194.477	92.53
194.864	-22.07
195.252	47.5
195.639	564.44
196.027	86.73
196.414	137.75
196.801	70.05
197.189	66.1
197.576	-128.25
197.963	8.93
198.351	68.4
198.738	-29.07
199.125	28.79
199.512	37.02
199.899	16.02
200.286	-11.98
200.673	28.3
201.06	-1.94
201.447	46.89
201.833	55.15
202.22	11.05
202.607	20.66
202.994	17.66
203.38	-20.53
203.767	-39.45
204.154	14.81
204.54	18.96
204.927	11.4
205.313	35.09
205.699	-11.17
206.086	13.94
206.472	34.26
206.858	34.65
207.245	30.52
207.631	13.15
208.017	9.38
208.403	26.48
208.789	32.4
209.175	2.8
209.561	30.75
209.947	8.07
210.333	-3.41
210.719	-4.11
211.105	17.02
211.491	32.16
211.876	14.68
212.262	-14.06
212.648	-16.94
213.034	-12.94
213.419	16.98
213.805	31
214.19	-34.57
214.576	3.89
214.961	19.47
215.346	-1.08
215.732	29.25
216.117	20.15
216.502	20.28
216.888	21
217.273	40.7
217.658	-3.14
218.043	3.36
218.428	21.34
218.813	31.89
219.198	10.15
219.583	24.87
219.968	34.56
220.353	12.42
220.738	3.32
221.122	3.37
221.507	1.81
221.892	14.45
222.276	-4.09
222.661	-5.37
223.046	-3.71
223.43	0.87
223.815	15.49
224.199	10.17
224.583	5.63
224.968	6.81
225.352	9.3
225.736	6.42
226.121	10.85
226.505	8.52
226.889	3.57
227.273	7.63
227.657	-0.05
228.041	5.31
228.425	3.61
228.809	6.13
229.193	4.48
229.577	7.25
229.961	7.5
230.344	6.08
230.728	6.18
231.112	6.51
231.495	6.1
231.879	5.47
232.263	7.14
232.646	7.5
233.03	5.7
233.413	6.75
233.797	7.27
234.18	8.08
234.563	7.57
234.946	7.58
235.33	6.36
235.713	6.4
236.096	4.57
236.479	5.66
236.862	7.68
237.245	8.51
237.628	8.35
238.011	8.24
238.394	5.59
238.777	6.88
239.16	7.08
239.543	7.02
239.925	6.33
240.308	7.55
240.691	8.08
241.073	5.21
241.456	6.36
241.838	7.37
242.221	7.49
242.603	7.2
242.986	5.88
243.368	5.93
243.75	6.37
244.133	6.29
244.515	5.82
244.897	6.12
245.279	6.69
245.661	6.84
246.043	7.48
246.425	6.79
246.807	5.55
247.189	6.32
247.571	5.72
247.953	6.25
248.335	6.28
248.717	6.27
249.098	5.96
249.48	6.06
249.862	5.86
250.243	6.18
250.625	6.11
251.006	6.65
251.388	6.84
251.769	6.75
252.151	4.86
252.532	6.47
252.913	7.02
253.295	6.89
253.676	6.63
254.057	6.23
254.438	5.76
254.819	6.03
255.2	6
255.581	8.04
255.962	6.2
256.343	6.02
256.724	5.65
257.105	7.33
257.486	5.58
257.867	6.82
258.247	6.34
258.628	5.52
259.009	5.08
259.389	5.64
259.77	4.93
260.15	6.03
260.531	6.02
260.911	5.64
261.292	5.87
261.672	5.6
262.052	5.52
262.432	5.4
262.813	5.64
263.193	6.29
263.573	5.74
263.953	5.69
264.333	5.82
264.713	5.89
265.093	5.94
265.473	5.38
265.853	5.24
266.233	5.06
266.612	5.51
266.992	6.14
267.372	5.39
267.752	5.62
268.131	5.93
268.511	5.32
268.89	5.41
269.27	5.51
269.649	5.49
270.029	5.33
270.408	5.93
270.787	5.49
271.167	5.77
271.546	5.66
271.925	5.17
272.304	5.97
272.683	5.45
273.062	5.45
273.441	5.36
273.82	5.34
274.199	5.15
274.578	4.9
274.957	5.57
275.336	5.09
275.715	5.03
276.093	5.61
276.472	5.79
276.851	5.78
277.229	5.34
277.608	5.61
277.986	5.01
278.365	5.55
278.743	6.11
279.122	4.95
279.5	5.21
279.878	5.16
280.257	5.56
280.635	5.17
281.013	5.44
281.391	5.26
281.769	5.29
282.147	5.52
282.525	5.28
282.903	5.42
283.281	5.27
283.659	5.06
284.037	5.12
284.415	5.3
284.792	5.16
285.17	5.02
285.548	4.97
285.925	5.55
286.303	5.68
286.68	5.14
287.058	4.93
287.435	5.02
287.813	5.65
288.19	5.23
288.567	5.35
288.945	5.37
289.322	5.34
289.699	5.2
290.076	5.11
290.453	5.28
290.83	5.13
291.207	5.03
291.584	5.25
291.961	4.86
292.338	5.2
292.715	5.29
293.092	4.98
293.469	5.06
293.845	5.4
294.222	5.37
294.599	4.74
294.975	5
295.352	5.54
295.728	5.16
296.105	5.43
296.481	4.56
296.858	4.92
297.234	4.81
297.61	4.67
297.986	4.91
298.363	4.91
298.739	5.01
299.115	4.9
299.491	4.71
299.867	4.61
300.243	4.98
300.619	5.21
300.995	5.21
301.371	4.87
301.746	5.07
302.122	4.71
302.498	4.59
302.874	4.49
303.249	5
303.625	4.87
304	4.67
304.376	4.88
304.751	4.63
305.127	5
305.502	5.23
305.878	4.77
306.253	4.88
306.628	4.32
307.003	4.12
307.378	4.81
307.754	5.08
308.129	4.61
308.504	4.99
308.879	5.27
309.254	4.77
309.629	5.11
310.003	4.76
310.378	4.95
310.753	4.68
311.128	4.42
311.502	4.83
311.877	4.74
312.252	4.88
312.626	4.69
313.001	4.91
313.375	4.88
313.75	4.43
314.124	4.39
314.498	4.84
314.873	5.2
315.247	5.13
315.621	4.79
315.995	5.16
316.369	4.74
316.743	4.26
317.117	4
317.491	4.83
317.865	4.86
318.239	5.66
318.613	4.35
318.987	4.2
319.361	4.43
319.734	4.66
320.108	4.3
320.482	4.44
320.855	4.51
321.229	4.7
321.602	4.55
321.976	4.9
322.349	4.45
322.723	4.99
323.096	5.39
323.469	4.56
323.843	4.14
324.216	4.98
324.589	4.68
324.962	4.54
325.335	4.44
325.708	4.57
326.081	4.47
326.454	4.44
326.827	4.7
327.2	4.28
327.573	4.63
327.945	4.73
328.318	4.36
328.691	4.75
329.063	4.43
329.436	4.47
329.809	5.18
330.181	4.69
330.553	3.98
330.926	4.55
331.298	4.63
331.671	5.05
332.043	4.65
332.415	4.74
332.787	4.11
333.159	4.42
333.532	4.92
333.904	3.85
334.276	4.09
334.648	4.27
335.02	4.34
335.391	4.42
335.763	4.59
336.135	4.34
336.507	4.99
336.879	4.49
337.25	4.86
337.622	4.35
337.993	4.74
338.365	5
338.736	4.62
339.108	4.78
339.479	4.23
339.851	4.89
340.222	5.12
340.593	4.26
340.964	4.84
341.336	4.71
341.707	4.96
342.078	4.43
342.449	4.36
342.82	4.43
343.191	4.66
343.562	4.15
343.933	5.18
344.303	4.57
344.674	4.86
345.045	5.06
345.416	4.46
345.786	5.36
346.157	4.53
346.527	4.37
346.898	4.86
347.268	4.66
347.639	4.47
348.009	4.86
348.38	4.63
348.75	4.72
349.12	4.59
349.49	4.92
349.861	4.91
350.231	4.19
350.601	4.62
350.971	4.27
351.341	4.62
351.711	4.57
352.081	4.16
352.45	4.51
352.82	4.5
353.19	4.96
353.56	4.88
353.929	4.6
354.299	4.72
354.669	4.31
355.038	5.15
355.408	4.32
355.777	4.4
356.147	4.53
356.516	4.76
356.885	4.25
357.254	4.6
357.624	4.61
357.993	4.64
358.362	4.41
358.731	4.49
359.1	4.5
359.469	4.38
359.838	4.38
360.207	4.83
360.576	4.65
360.945	4.67
361.314	4.55
361.682	4.77
362.051	4.7
362.42	4.85
362.788	4.69
363.157	4.71
363.525	4.71
363.894	4.89
364.262	4.42
364.631	4.76
364.999	4.64
365.367	4.82
365.735	4.75
366.104	4.86
366.472	4.63
366.84	4.75
367.208	4.78
367.576	4.8
367.944	4.6
368.312	4.96
368.68	4.74
369.048	4.52
369.416	4.85
369.783	4.64
370.151	4.92
370.519	4.87
370.886	5.1
371.254	4.98
371.621	5.09
371.989	4.87
372.356	5.46
372.724	4.58
373.091	4.46
373.458	4.87
373.826	4.62
374.193	5.22
374.56	4.92
374.927	5.19
375.294	5.1
375.661	4.76
376.028	4.93
376.395	4.78
376.762	4.59
377.129	4.6
377.496	4.97
377.863	4.78
378.229	4.78
378.596	4.89
378.963	5.17
379.329	5.21
379.696	4.94
380.062	4.87
380.429	4.9
380.795	4.59
381.161	4.84
381.528	5.29
381.894	4.79
382.26	5.02
382.626	4.69
382.993	5
383.359	5.33
383.725	5.5
384.091	5.12
384.457	4.8
384.823	5.02
385.188	5.28
385.554	5.06
385.92	5.27
386.286	5.06
386.651	5.22
387.017	5.32
387.383	5.17
387.748	5.28
388.114	5.06
388.479	5.07
388.845	5.17
389.21	4.85
389.575	5.11
389.94	4.99
390.306	5.03
390.671	5.09
391.036	4.84
391.401	5.26
391.766	5.46
392.131	5.22
392.496	5.12
392.861	5.2
393.226	4.91
393.591	5.04
393.956	5.2
394.32	5.18
394.685	5.2
395.05	5.11
395.414	5.29
395.779	5.03
396.143	5.2
396.508	5.32
396.872	5.14
397.236	5.36
397.601	5.29
397.965	5.44
398.329	5.38
398.694	5.32
399.058	5.33
399.422	5.44
399.786	5.31
400.15	5.31
400.514	4.92
400.878	5.2
401.242	5.09
401.605	5.5
401.969	5.52
402.333	5.12
402.697	5.02
403.06	5.4
403.424	5.4
403.787	5.43
404.151	5.35
404.514	5.34
404.878	5.29
405.241	5.25
405.604	5.2
405.968	5.36
406.331	5.16
406.694	5.45
407.057	5.26
407.42	5.44
407.783	5.37
408.146	5.13
408.509	5.32
408.872	5.39
409.235	5.44
409.598	5.64
409.961	5.49
410.323	5.07
410.686	5.35
411.049	5.46
411.411	5.28
411.774	5.24
412.136	5.46
412.499	5.3
412.861	5.29
413.223	5.23
413.586	5.35
413.948	5.49
414.31	5.47
414.672	5.6
415.035	5.55
415.397	5.48
415.759	5.5
416.121	5.64
416.483	5.52
416.845	5.12
417.206	5.46
417.568	5.43
417.93	5.41
418.292	5.37
418.653	5.25
419.015	5.38
419.377	5.4
419.738	5.41
420.1	5.38
420.461	5.46
420.822	5.49
421.184	5.38
421.545	5.39
421.906	5.39
422.267	5.4
422.629	5.25
422.99	5.33
423.351	5.37
423.712	5.3
424.073	5.33
424.434	5.47
424.795	5.57
425.155	5.37
425.516	5.44
425.877	5.35
426.238	5.37
426.598	5.43
426.959	5.37
427.32	5.48
427.68	5.46
428.041	5.51
428.401	5.53
428.761	5.49
429.122	5.44
429.482	5.59
429.842	5.81
430.202	5.76
430.563	5.42
430.923	5.58
431.283	5.89
431.643	5.61
432.003	5.59
432.363	5.72
432.722	5.76
433.082	5.55
433.442	5.52
433.802	5.55
434.161	5.55
434.521	5.67
434.881	5.41
435.24	5.61
435.6	5.56
435.959	5.61
436.319	5.69
436.678	5.48
437.037	5.59
437.396	5.56
437.756	5.6
438.115	5.53
438.474	5.76
438.833	5.67
439.192	5.72
439.551	5.59
439.91	5.72
440.269	5.71
440.628	5.6
440.987	5.38
441.345	5.63
441.704	5.59
442.063	5.72
442.421	5.48
442.78	5.56
443.138	5.57
443.497	5.62
443.855	5.55
444.214	5.69
444.572	5.66
444.93	5.75
445.288	5.77
445.647	5.69
446.005	5.72
446.363	5.73
446.721	5.63
447.079	5.72
447.437	5.78
447.795	5.66
448.153	5.47
448.51	5.59
448.868	5.58
449.226	5.7
449.584	5.58
449.941	5.69
450.299	5.74
450.656	5.62
451.014	5.64
451.371	5.59
451.729	5.7
452.086	5.91
452.443	5.72
452.801	5.76
453.158	5.79
453.515	5.66
453.872	5.77
454.229	5.79
454.586	5.75
454.943	5.77
455.3	5.86
455.657	5.88
456.014	5.84
456.371	5.64
456.727	5.72
457.084	5.9
457.441	5.88
457.797	5.73
458.154	5.71
458.51	5.83
458.867	5.9
459.223	5.88
459.58	5.82
459.936	5.79
460.292	5.77
460.648	5.83
461.005	5.84
461.361	5.7
461.717	5.76
462.073	5.74
462.429	5.71
462.785	5.75
463.141	5.75
463.496	5.84
463.852	6.05
464.208	5.77
464.564	5.65
464.919	5.93
465.275	5.97
465.631	5.71
465.986	5.82
466.342	5.78
466.697	6.01
467.052	5.93
467.408	5.99
467.763	6
468.118	5.98
468.473	5.97
468.829	5.91
469.184	5.91
469.539	5.88
469.894	5.91
470.249	5.89
470.603	5.94
470.958	5.92
471.313	5.85
471.668	5.89
472.023	5.9
472.377	5.95
472.732	6.08
473.086	5.91
473.441	5.95
473.795	6.01
474.15	6
474.504	5.87
474.859	5.92
475.213	6
475.567	5.94
475.921	6.02
476.275	5.89
476.63	6
476.984	6.02
477.338	5.88
477.692	6.03
478.045	5.82
478.399	5.91
478.753	5.98
479.107	5.93
479.461	5.89
479.814	5.9
480.168	5.87
480.521	5.84
480.875	5.91
481.228	6.01
481.582	5.98
481.935	5.99
482.289	5.98
482.642	5.72
482.995	5.98
483.348	5.77
483.701	5.92
484.055	5.81
484.408	5.85
484.761	5.76
485.114	5.65
485.466	5.57
485.819	5.5
486.172	5.59
486.525	5.59
486.878	5.66
487.23	5.68
487.583	5.7
487.936	5.84
488.288	5.79
488.641	5.79
488.993	5.7
489.345	5.69
489.698	5.67
490.05	5.69
490.402	5.67
490.754	5.72
491.107	5.87
491.459	5.75
491.811	5.89
492.163	5.87
492.515	5.87
492.866	5.76
493.218	5.72
493.57	5.64
493.922	5.74
494.274	5.75
494.625	5.75
494.977	5.84
495.328	5.93
495.68	6.05
496.031	5.93
496.383	5.98
496.734	5.98
497.086	6.11
497.437	6.04
497.788	6.04
498.139	5.98
498.49	5.85
498.842	5.93
499.193	6.04
499.544	5.9
499.894	5.89
500.245	5.97
500.596	5.99
500.947	5.95
501.298	6.11
501.648	6.22
501.999	6.07
502.35	6.13
502.7	5.96
503.051	6.05
503.401	6.05
503.752	5.91
504.102	6.09
504.452	6.06
504.803	5.99
505.153	6.08
505.503	5.98
505.853	6.08
506.203	6.02
506.553	6.12
506.903	6
507.253	6.1
507.603	6.09
507.953	5.99
508.303	6.13
508.652	5.99
509.002	6.21
509.352	6.13
509.701	5.96
510.051	6.1
510.4	6.03
510.75	5.96
511.099	6.05
511.449	5.99
511.798	6.05
512.147	6.04
512.496	5.92
512.846	6.04
513.195	5.97
513.544	6.15
513.893	6.12
514.242	6.12
514.591	6.05
514.939	6.12
515.288	6.08
515.637	6.06
515.986	6.17
516.334	6.1
516.683	6.15
517.032	6.14
517.38	6.22
517.729	6.07
518.077	6.03
518.426	6.14
518.774	6.16
519.122	6.11
519.47	6.02
519.819	6.06
520.167	6.01
520.515	5.99
520.863	6.05
521.211	6.03
521.559	6.08
521.907	6.02
522.255	6.01
522.602	6.1
522.95	6.14
523.298	6.02
523.645	6.17
523.993	6.12
524.341	6.08
524.688	6.07
525.036	6.2
525.383	6.12
525.73	6.23
526.078	6.24
526.425	6.2
526.772	6.15
527.119	6.04
527.466	5.98
527.814	6.05
528.161	6.03
528.508	6.1
528.854	6.09
529.201	6.01
529.548	6.05
529.895	5.98
530.242	5.88
530.588	5.85
530.935	5.9
531.282	5.82
531.628	5.89
531.975	5.95
532.321	5.96
532.667	6.05
533.014	6.02
533.36	6.19
533.706	6.05
534.052	6.17
534.399	6
534.745	6.04
535.091	6.02
535.437	6.01
535.783	6.01
536.129	6.01
536.474	6.08
536.82	6.02
537.166	6.14
537.512	6.14
537.857	6.22
538.203	5.99
538.549	6.03
538.894	6.2
539.239	6.12
539.585	6.17
539.93	6.13
540.276	6.24
540.621	6.14
540.966	6.19
541.311	6.3
541.656	6.23
542.001	6.3
542.346	6.18
542.691	6.1
543.036	5.99
543.381	6.03
543.726	6.01
544.071	6.01
544.415	6.02
544.76	6.09
545.105	6.11
545.449	6.12
545.794	6.19
546.138	6.23
546.483	6.24
546.827	6.32
547.171	6.36
547.516	6.3
547.86	6.28
548.204	6.27
548.548	6.2
548.892	6.17
549.236	6.25
549.58	6.31
549.924	6.45
550.268	6.4
550.612	6.34
550.956	6.52
551.3	6.41
551.643	6.27
551.987	6.42
552.33	6.39
552.674	6.49
553.017	6.41
553.361	6.4
553.704	6.28
554.048	6.39
554.391	6.22
554.734	6.48
555.077	6.26
555.42	6.18
555.764	6.31
556.107	6.35
556.45	6.51
556.793	6.38
557.135	6.49
557.478	6.5
557.821	6.49
558.164	6.38
558.507	6.25
558.849	6.51
559.192	6.49
559.534	6.5
559.877	6.64
560.219	6.48
560.562	6.6
560.904	6.44
561.246	6.44
561.589	6.46
561.931	6.52
562.273	6.5
562.615	6.54
562.957	6.37
563.299	6.43
563.641	6.43
563.983	6.26
564.325	6.57
564.667	6.57
565.008	6.39
565.35	6.65
565.692	6.36
566.033	6.46
566.375	6.47
566.716	6.42
567.058	6.61
567.399	6.33
567.741	6.43
568.082	6.41
568.423	6.42
568.764	6.47
569.105	6.38
569.447	6.36
569.788	6.5
570.129	6.33
570.47	6.35
570.811	6.69
571.151	6.62
571.492	6.51
571.833	6.48
572.174	6.48
572.514	6.65
572.855	6.41
573.195	6.43
573.536	6.64
573.876	6.41
574.217	6.47
574.557	6.44
574.898	6.42
575.238	6.48
575.578	6.55
575.918	6.44
576.258	6.56
576.598	6.5
576.938	6.57
577.278	6.58
577.618	6.38
577.958	6.63
578.298	6.41
578.638	6.5
578.977	6.63
579.317	6.76
579.657	6.79
579.996	6.47
580.336	6.77
580.675	6.7
581.014	6.69
581.354	6.79
581.693	6.7
582.032	6.62
582.372	6.7
582.711	6.81
583.05	6.57
583.389	6.67
583.728	6.82
584.067	6.72
584.406	6.44
584.745	6.68
585.083	6.78
585.422	6.79
585.761	6.74
586.1	6.67
586.438	6.68
586.777	6.6
587.115	6.62
587.454	6.76
587.792	6.82
588.13	6.73
588.469	6.52
588.807	6.53
589.145	6.76
589.483	6.91
589.821	6.64
590.159	6.57
590.497	6.62
590.835	6.72
591.173	6.63
591.511	6.82
591.849	6.54
592.187	6.7
592.524	6.79
592.862	6.85
593.2	6.89
593.537	6.91
593.875	6.77
594.212	7
594.55	6.8
594.887	6.65
595.224	6.9
595.561	6.81
595.899	6.65
596.236	6.43
596.573	6.82
596.91	6.68
597.247	6.6
597.584	6.67
597.921	6.74
598.258	6.56
598.594	6.72
598.931	6.78
599.268	6.81
599.604	6.69
599.941	6.78
600.277	6.76
600.614	6.7
600.95	6.72
601.287	6.61
601.623	6.62
601.959	6.65
602.296	6.8
602.632	6.82
602.968	6.67
603.304	6.77
603.64	6.86
603.976	6.81
604.312	6.72
604.648	7.01
604.984	6.64
605.319	6.83
605.655	6.57
605.991	6.69
606.326	6.7
606.662	6.88
606.998	6.82
607.333	6.7
607.668	6.83
608.004	6.64
608.339	6.64
608.674	6.78
609.01	6.91
609.345	6.75
609.68	6.75
610.015	6.96
610.35	6.94
610.685	6.61
611.02	6.79
611.355	6.66
611.689	6.75
612.024	6.75
612.359	6.71
612.694	6.92
613.028	6.9
613.363	6.9
613.697	6.74
614.032	6.6
614.366	6.99
614.7	6.6
615.035	6.93
615.369	6.94
615.703	6.86
616.037	6.88
616.371	6.79
616.705	6.86
617.039	6.79
617.373	7.02
617.707	7.2
618.041	7.2
618.375	7.16
618.709	6.55
619.042	6.68
619.376	7.13
619.71	6.99
620.043	6.86
620.377	6.87
620.71	6.8
621.043	6.95
621.377	6.66
621.71	7.22
622.043	6.63
622.376	6.99
622.709	6.85
623.043	6.65
623.376	7.08
623.709	7.19
624.041	6.97
624.374	6.76
624.707	6.93
625.04	7.19
625.373	7.09
625.705	7.2
626.038	7.04
626.37	6.84
626.703	7.04
627.035	7.5
627.368	7.11
627.7	6.92
628.032	6.92
628.365	6.96
628.697	7.04
629.029	7.12
629.361	7.17
629.693	6.91
630.025	7.04
630.357	7.1
630.689	7.06
631.021	6.82
631.353	7.53
631.684	6.98
632.016	7.2
632.348	6.92
632.679	7.36
633.011	7.11
633.342	7.09
633.674	7.1
634.005	6.99
634.336	7.53
634.668	7.21
634.999	7.42
635.33	7.09
635.661	6.91
635.992	7.44
636.323	7.42
636.654	7.32
636.985	7.35
637.316	6.97
637.647	7.21
637.977	6.98
638.308	6.87
638.639	6.97
638.969	7.13
639.3	7.05
639.63	6.7
639.961	7.18
640.291	6.84
640.622	7.01
640.952	6.9
641.282	7.42
641.612	7.11
641.943	7.07
642.273	7.26
642.603	7.61
642.933	7.55
643.263	7.08
643.592	6.91
643.922	7.02
644.252	7.43
644.582	7.59
644.911	6.83
645.241	7.14
645.571	7.56
645.9	7.15
646.23	7.8
646.559	6.83
646.888	7.23
647.218	7.59
647.547	7.53
647.876	7.14
648.205	7.03
648.534	7.43
648.863	7.27
649.192	7.35
649.521	7.19
649.85	6.95
650.179	7.16
650.508	7.06
650.837	7.41
651.165	7.37
651.494	7.41
651.822	7.18
652.151	7.66
652.479	7.3
652.808	7.62
653.136	7.08
653.465	7.11
653.793	7.66
654.121	7.18
654.449	7
654.777	7.76
655.105	7.44
655.433	7.35
655.761	7.11
656.089	7.44
656.417	7.17
656.745	7.44
657.073	6.83
657.4	7.39
657.728	7.37
658.056	7.93
658.383	7.18
658.711	6.91
659.038	7.42
659.365	6.94
659.693	7.24
660.02	7.76
660.347	6.9
660.674	6.79
661.001	7.64
661.329	7.34
661.656	7.62
661.982	7.34
662.309	7.63
662.636	7.57
662.963	7.49
663.29	7.52
663.616	7.71
663.943	7.47
664.27	6.97
664.596	7.53
664.923	7.98
665.249	7.89
665.576	7.82
665.902	6.97
666.228	7.65
666.554	7.2
666.881	7.07
667.207	7.6
667.533	7.54
667.859	7.45
668.185	7.95
668.511	7.33
668.837	7.74
669.162	7.45
669.488	7.32
669.814	7.47
670.139	7.4
670.465	7.86
670.791	7.62
671.116	7.39
671.442	7.75
671.767	7.36
672.092	7.19
672.418	7.68
672.743	7.83
673.068	6.49
673.393	7.16
673.718	7.88
674.043	7.97
674.368	7.83
674.693	7.65
675.018	7.47
675.343	7.64
675.667	8.06
675.992	7.99
676.317	7.73
676.641	7.28
676.966	7.91
677.29	7.58
677.615	7.22
677.939	7.47
678.264	7.61
678.588	7.74
678.912	7.05
679.236	7.37
679.56	7.19
679.885	8.1
680.209	7.61
680.532	7.3
680.856	7.81
681.18	7.92
681.504	7.67
681.828	8.1
682.152	7.87
682.475	7.51
682.799	7.6
683.122	7.38
683.446	8.04
683.769	7.4
684.093	8.09
684.416	8.09
684.739	7.8
685.062	7.55
685.386	8.01
685.709	8.19
686.032	7.54
686.355	8.35
686.678	7.88
687.001	7.68
687.324	8.37
687.646	7.67
687.969	8.02
688.292	7.48
688.614	7.17
688.937	7.84
689.26	7.56
689.582	7.25
689.904	8.19
690.227	7.29
690.549	8.45
690.871	8.77
691.194	7.57
691.516	7.9
691.838	7.78
692.16	8.1
692.482	7.74
692.804	7.59
693.126	7.98
693.448	7.48
693.769	7.82
694.091	7.66
694.413	8.1
694.735	7.73
695.056	7.3
695.378	7.68
695.699	8.58
696.021	8.03
696.342	8.46
696.663	8.03
696.984	8.86
697.306	8.47
697.627	7.88
697.948	7.6
698.269	7.63
698.59	7.4
698.911	8.07
699.232	8.5
699.553	7.7
699.873	8.26
700.194	8.26
700.515	7.87
700.835	7.76
701.156	7.62
701.477	8.39
701.797	7.99
702.117	8.27
702.438	7.78
702.758	7.15
703.078	8.35
703.398	8.11
703.719	8.95
704.039	8.3
704.359	8.34
704.679	8.76
704.999	7.57
705.319	7.93
705.638	7.82
705.958	8.79
706.278	8.4
706.597	8.74
706.917	7.82
707.237	8.76
707.556	7.54
707.876	8.84
708.195	8.27
708.514	8.62
708.834	7.11
709.153	8.97
709.472	8.27
709.791	8.29
710.11	8.49
710.429	8.72
710.748	7.56
711.067	8.13
711.386	7.9
711.705	6.97
712.023	8.63
712.342	8.17
712.661	7.88
712.979	8.1
713.298	8.81
713.616	8.68
713.935	8.8
714.253	9.15
714.572	9.43
714.89	7.62
715.208	8.38
715.526	8.32
715.844	7.81
716.162	8.58
716.48	9.06
716.798	9.03
717.116	9.28
717.434	8.5
717.752	8.63
718.069	8.71
718.387	8.05
718.705	8.27
719.022	9.11
719.34	8.4
719.657	8.6
719.975	8.39
720.292	8.01
720.609	7.47
720.927	9.39
721.244	9.14
721.561	9.01
721.878	7.82
722.195	8.87
722.512	7.81
722.829	8.51
723.146	9.53
723.463	8.76
723.779	9.48
724.096	9.37
724.413	8.46
724.729	8.43
725.046	8.95
725.362	9.31
725.679	8.02
725.995	9.42
726.311	7.84
726.628	10.13
726.944	9.56
727.26	9.67
727.576	8.99
727.892	8.16
728.208	8.15
728.524	9.08
728.84	8.02
729.156	8.16
729.472	9.41
729.787	9.43
730.103	8.43
730.419	9.66
730.734	10.64
731.05	9.24
731.365	9.86
731.681	10.15
731.996	8.8
732.311	10.57
732.626	7.79
732.942	8.94
733.257	9.44
733.572	8.48
733.887	9.45
734.202	8.57
734.517	8.59
734.832	11.1
735.146	9.33
735.461	9.63
735.776	8.2
736.091	9.25
736.405	9.06
736.72	9.84
737.034	9.06
737.349	8.55
737.663	11.13
737.977	10.48
738.292	10.25
738.606	9.79
738.92	10.17
739.234	10.29
739.548	9.11
739.862	9.17
740.176	9.06
740.49	8.46
740.804	9.09
741.117	9.11
741.431	9.86
741.745	10.43
742.058	8.3
742.372	8.7
742.685	8.84
742.999	10.09
743.312	8.62
743.626	10.5
743.939	9.15
744.252	10.16
744.565	8.22
744.878	10.19
745.191	9.98
745.505	10.79
745.817	9.31
746.13	7.77
746.443	8.85
746.756	8.91
747.069	10.24
747.381	8.87
747.694	9.44
748.007	9.12
748.319	9.55
748.632	10.1
748.944	8.86
749.256	9.97
749.569	10.32
749.881	8.17
750.193	10.31
750.505	10.79
750.817	9.52
751.129	9.15
751.441	8
751.753	10.6
752.065	9.8
752.377	8.54
752.689	10.29
753	10.92
753.312	9.47
753.624	9.76
753.935	11.55
754.247	9.44
754.558	11.58
754.869	11
755.181	9.82
755.492	10.51
755.803	9.65
756.114	9.24
756.425	9.27
756.736	11.14
757.047	10.34
757.358	11.22
757.669	9.38
757.98	9.55
758.291	11.1
758.601	8.92
758.912	9
759.223	11.46
759.533	10.58
759.844	9.96
760.154	11.29
760.464	9.61
760.775	9.44
761.085	9.88
761.395	8.41
761.705	10.55
762.016	10.65
762.326	10.14
762.636	7.19
762.945	11.15
763.255	10.1
763.565	11.19
763.875	9.48
764.185	10.86
764.494	8.85
764.804	8.54
765.113	9.72
765.423	10.92
765.732	10.63
766.042	11.14
766.351	8.55
766.66	8.17
766.97	10.53
767.279	8.84
767.588	11.4
767.897	9.14
768.206	10.23
768.515	9.91
768.824	10.53
769.133	10.97
769.441	10.08
769.75	8.5
770.059	9.8
770.367	12.08
770.676	10.84
770.984	10.73
771.293	9.91
771.601	9.88
771.91	12.14
772.218	8.25
772.526	10.81
772.834	8.25
773.142	10.05
773.45	10.32
773.758	11.74
774.066	10.89
774.374	7.82
774.682	11.02
774.99	9.94
775.298	11.37
775.605	10.32
775.913	9.89
776.22	8.06
776.528	7.7
776.835	12.48
777.143	7.93
777.45	11.18
777.757	7.63
778.065	10.55
778.372	7.08
778.679	11.44
778.986	13.84
779.293	11.29
779.6	11.02
779.907	11.14
780.214	9.5
780.52	10.8
780.827	11.88
781.134	10.02
781.44	10.5
781.747	12.62
782.053	8.4
782.36	9.72
782.666	8.53
782.973	14.75
783.279	8.23
783.585	10.06
783.891	10.91
784.197	8.25
784.503	13.09
784.809	11.38
785.115	12.29
785.421	13.61
785.727	10.54
786.033	13.58
786.339	9.35
786.644	11.09
786.95	9.91
787.255	9.88
787.561	10.71
787.866	9.48
788.172	15.52
788.477	15.07
788.782	6.9
789.088	11.36
789.393	14.36
789.698	13
790.003	11.64
790.308	12.42
790.613	7.73
790.918	10.37
791.223	10.32
791.527	13.05
791.832	13.11
792.137	7
792.441	12.85
792.746	14.04
793.05	8.92
793.355	9.81
793.659	8.29
793.963	9.37
794.268	14.65
794.572	13.53
794.876	14.77
795.18	11.99
795.484	17.01
795.788	12.06
796.092	10.8
796.396	8.82
796.7	6.03
797.004	13.01
797.307	10.91
797.611	11.4
797.915	11.32
798.218	8.4
798.522	17.02
798.825	11.43
799.128	13.18
799.432	11.05
799.735	13.26
800.038	12.51
800.341	9.33
800.644	6.92
800.947	14.24
801.25	11.79
801.553	9.68
801.856	8.39
802.159	10.11
802.462	11.22
802.764	9.87
803.067	10.48
803.37	12.73
803.672	13.7
803.975	10.3
804.277	7.89
804.579	13.75
804.882	8.08
805.184	9.08
805.486	12.3
805.788	11.65
806.09	12.44
806.392	14.4
806.694	10.51
806.996	10.85
807.298	12.24
807.6	10.73
807.902	8.26
808.203	11.93
808.505	15.94
808.807	10.58
809.108	7.77
809.409	13.63
809.711	11.46
810.012	12.95
810.313	5.98
810.615	9.74
810.916	8.5
811.217	8.73
811.518	8.6
811.819	20
812.12	11.02
812.421	10.3
812.722	16.97
813.023	16.07
813.323	7.93
813.624	15.15
813.925	14.82
814.225	13.42
814.526	12.35
814.826	12.92
815.126	11.72
815.427	9.63
815.727	15.38
816.027	8.59
816.327	13.44
816.627	7.69
816.927	15.74
817.227	8.8
817.527	13.95
817.827	15.56
818.127	11.76
818.427	14.68
818.727	8.55
819.026	19.18
819.326	12.29
819.625	9.96
819.925	16.34
820.224	8.23
820.524	17.05
820.823	11.81
821.122	13.52
821.421	10.5
821.72	14.42
822.019	14.06
822.318	17.16
822.617	11.33
822.916	11.43
823.215	14.44
823.514	10.09
823.813	11.47
824.111	13.89
824.41	11.75
824.709	12.53
825.007	11.82
825.306	12.38
825.604	11.55
825.902	12.54
826.201	11.67
826.499	13.1
826.797	12.51
827.095	10.11
827.393	12.05
827.691	12.83
827.989	12.91
828.287	12.14
828.585	11.81
828.882	12.52
829.18	12.62
829.478	12.39
829.775	12.03
830.073	12.59
830.37	13.66
830.668	12.96
830.965	14.08
831.263	13.43
831.56	12.79
831.857	15.48
832.154	9.71
832.451	13.85
832.748	11.27
833.045	13.49
833.342	13.91
833.639	9.26
833.936	15.16
834.232	11.85
834.529	18.05
834.826	17.91
835.122	14.61
835.419	10.71
835.715	9.1
836.012	9.69
836.308	12.15
836.604	17.28
836.901	12.68
837.197	13.21
837.493	12.81
837.789	12.93
838.085	9.8
838.381	9.1
838.677	13.86
838.972	12.03
839.268	13.92
839.564	13.47
839.86	10.43
840.155	7.93
840.451	12.29
840.746	4.98
841.042	11.3
841.337	20.55
841.632	13.15
841.928	21.38
842.223	13.89
842.518	17.13
842.813	14.35
843.108	15.54
843.403	7.13
843.698	16.22
843.993	13.11
844.287	15.18
844.582	17.63
844.877	4.41
845.171	16.54
845.466	21.69
845.761	22.01
846.055	17.59
846.349	7.67
846.644	15.31
846.938	13.21
847.232	22.3
847.526	13.7
847.82	22.94
848.114	16.56
848.408	17.64
848.702	8.51
848.996	16.35
849.29	17.58
849.584	16.74
849.877	20.48
850.171	16.4
850.465	13.33
850.758	-15.1
851.052	16.71
851.345	24.7
851.638	29.12
851.932	17.84
852.225	10.27
852.518	-4.95
852.811	10.05
853.104	11.09
853.397	16.85
853.69	3.64
853.983	-17.92
854.276	16
854.569	19.97
854.861	15.2
855.154	28.4
855.447	16.09
855.739	19.37
856.032	12.12
856.324	12.28
856.616	23.53
856.909	25.87
857.201	0.58
857.493	-20.07
857.785	5.87
858.077	27.03
858.369	21.91
858.661	43.01
858.953	4.06
859.245	-10.55
859.537	29.03
859.829	1.48
860.12	21.68
860.412	10.19
860.703	0.91
860.995	23.53
861.286	10.41
861.578	34.68
861.869	6.89
862.16	22.8
862.452	14.98
862.743	10.35
863.034	19.2
863.325	32.89
863.616	7.76
863.907	4.6
864.198	22.97
864.488	48.66
864.779	15.89
865.07	-5.22
865.36	17.82
865.651	25.61
865.941	33.66
866.232	23.66
866.522	-3.5
866.813	27.15
867.103	44.11
867.393	8.61
867.683	13.29
867.973	-5.69
868.263	4.52
868.553	2.62
868.843	23.21
869.133	13.32
869.423	45.56
869.713	-17.75
870.002	5.09
870.292	19.01
870.582	23.33
870.871	28.83
871.161	32.52
871.45	13.66
871.739	43.42
872.029	38.84
872.318	19.44
872.607	17.58
872.896	17.48
873.185	14.73
873.474	26.5
873.763	18.3
874.052	5.93
874.341	10.65
874.63	15.38
874.918	20.79
875.207	51.69
875.496	18.48
875.784	20.39
876.073	2.24
876.361	21.22
876.649	17.28
876.938	11.99
877.226	-8.42
877.514	25.02
877.802	18.91
878.09	13.99
878.378	11.35
878.666	12.6
878.954	3.21
879.242	-1.54
879.53	21.52
879.817	37.32
880.105	21.23
880.392	22.89
880.68	17.75
880.967	29.87
881.255	12.48
881.542	14.12
881.83	19.73
882.117	-12.06
882.404	-10.18
882.691	24.6
882.978	25.79
883.265	17.1
883.552	6.6
883.839	13.89
884.126	19.49
884.413	23.14
884.699	12.57
884.986	14.1
885.273	20.29
885.559	20.29
885.846	20.29
