Data from 97277_crown_Reflection__0__86.txt Node

Date: Fri Sep 23 20:20:20 CDT 2022
User: ToomeyLab
Spectrometer: FLMS14357
Trigger mode: 0
Integration Time (sec): 1.000000E-2
Scans to average: 100
Electric dark correction enabled: true
Nonlinearity correction enabled: false
Boxcar width: 0
XAxis mode: Wavelengths
Number of Pixels in Spectrum: 2048
>>>>>Begin Spectral Data<<<<<
189.047	-100.92
189.435	-100.92
189.823	-100.92
190.211	132.31
190.599	89.02
190.987	53.25
191.375	-64.7
191.763	87.51
192.151	-72.04
192.538	437.94
192.926	-374.7
193.314	146.65
193.702	90.5
194.089	176.68
194.477	104.59
194.864	-104.52
195.252	10.29
195.639	802.86
196.027	74.49
196.414	-221.37
196.801	119.12
197.189	-37.17
197.576	-119.36
197.963	-56.01
198.351	20.4
198.738	-57.34
199.125	-10.57
199.512	16.76
199.899	-37.63
200.286	-20.25
200.673	27.69
201.06	-13.35
201.447	19.75
201.833	1.62
202.22	3.56
202.607	21.3
202.994	-21.38
203.38	-84.94
203.767	-18.01
204.154	5.57
204.54	28.49
204.927	20.88
205.313	19.48
205.699	-20.43
206.086	-37.19
206.472	15.31
206.858	16.04
207.245	-10.16
207.631	21.4
208.017	-0.52
208.403	15.76
208.789	26.68
209.175	24.51
209.561	27.81
209.947	-20.14
210.333	-26.64
210.719	-10.3
211.105	5.27
211.491	-7.7
211.876	3.85
212.262	-20.22
212.648	-12.26
213.034	-55.41
213.419	-50.68
213.805	19.8
214.19	11.13
214.576	-11.85
214.961	-2.87
215.346	5.55
215.732	13.26
216.117	26.78
216.502	12.39
216.888	16.5
217.273	17.29
217.658	-8.27
218.043	5.41
218.428	1.63
218.813	7.79
219.198	-16.67
219.583	-25.52
219.968	8.2
220.353	-1.83
220.738	-3.03
221.122	-13.22
221.507	-5.08
221.892	-0.56
222.276	-7.9
222.661	3.99
223.046	6.43
223.43	-8.09
223.815	12.93
224.199	10.81
224.583	8.45
224.968	-4.57
225.352	1.64
225.736	-9.26
226.121	0.04
226.505	-0.36
226.889	-0.36
227.273	-3.14
227.657	0.26
228.041	0.51
228.425	4.08
228.809	-0.6
229.193	3
229.577	3.27
229.961	3.98
230.344	1.96
230.728	1.84
231.112	1.92
231.495	1.83
231.879	0.44
232.263	3.8
232.646	2.42
233.03	3.03
233.413	3.01
233.797	2.97
234.18	3.42
234.563	0.52
234.946	3.21
235.33	1.18
235.713	3.77
236.096	0.71
236.479	1.08
236.862	1.86
237.245	2.28
237.628	2.58
238.011	3.98
238.394	1.02
238.777	3.05
239.16	3.05
239.543	2.38
239.925	2.16
240.308	3.39
240.691	3.01
241.073	0.47
241.456	0.92
241.838	2.91
242.221	2.54
242.603	3.09
242.986	1.29
243.368	2.09
243.75	2.28
244.133	2.27
244.515	2.03
244.897	2.64
245.279	2.35
245.661	2.27
246.043	3.22
246.425	1.84
246.807	0.91
247.189	2.61
247.571	1.95
247.953	2.15
248.335	2.23
248.717	1.97
249.098	2.06
249.48	2.04
249.862	2.13
250.243	2.43
250.625	2.14
251.006	2.1
251.388	1.35
251.769	1.14
252.151	-0.01
252.532	2.89
252.913	2.43
253.295	1.9
253.676	2.47
254.057	2.12
254.438	1.75
254.819	2.25
255.2	2.69
255.581	2.98
255.962	1.49
256.343	2.72
256.724	2.22
257.105	1.75
257.486	1.43
257.867	1.71
258.247	2.61
258.628	1.13
259.009	1.85
259.389	2.12
259.77	0.82
260.15	1.77
260.531	1.97
260.911	2
261.292	2.24
261.672	2
262.052	1.85
262.432	1.96
262.813	1.94
263.193	1.89
263.573	2.07
263.953	1.88
264.333	2.38
264.713	2.25
265.093	2.64
265.473	2.27
265.853	2.28
266.233	2.61
266.612	2.38
266.992	2.17
267.372	2.15
267.752	1.73
268.131	2.57
268.511	2.05
268.89	1.95
269.27	1.83
269.649	1.56
270.029	2.06
270.408	2.1
270.787	1.59
271.167	1.56
271.546	1.96
271.925	2.1
272.304	2.24
272.683	1.9
273.062	1.76
273.441	2.06
273.82	2.08
274.199	2.14
274.578	1.54
274.957	1.79
275.336	2.06
275.715	1.91
276.093	2.3
276.472	2.36
276.851	2
277.229	1.69
277.608	1.76
277.986	1.64
278.365	1.9
278.743	1.89
279.122	1.66
279.5	1.84
279.878	1.86
280.257	2.14
280.635	2.03
281.013	1.87
281.391	1.27
281.769	1.84
282.147	1.21
282.525	1.77
282.903	1.39
283.281	1.74
283.659	1.82
284.037	1.95
284.415	1.73
284.792	1.03
285.17	1.69
285.548	1.73
285.925	1.97
286.303	2.35
286.68	2.09
287.058	1.94
287.435	1.73
287.813	1.99
288.19	1.77
288.567	1.91
288.945	1.76
289.322	2.05
289.699	1.81
290.076	1.65
290.453	1.51
290.83	1.46
291.207	1.87
291.584	2.13
291.961	2.02
292.338	1.75
292.715	1.54
293.092	1.72
293.469	2.08
293.845	2.14
294.222	2.3
294.599	1.55
294.975	2.52
295.352	1.99
295.728	2
296.105	2.12
296.481	1.72
296.858	1.7
297.234	1.63
297.61	1.4
297.986	1.93
298.363	1.73
298.739	1.92
299.115	1.55
299.491	1.61
299.867	1.57
300.243	1.83
300.619	2.15
300.995	2.19
301.371	1.69
301.746	1.81
302.122	1.6
302.498	1.96
302.874	1.97
303.249	1.82
303.625	2.02
304	1.9
304.376	1.36
304.751	1.31
305.127	1.84
305.502	1.95
305.878	1.88
306.253	2.29
306.628	1.51
307.003	1.34
307.378	1.77
307.754	2.28
308.129	1.35
308.504	1.88
308.879	1.62
309.254	1.49
309.629	1.76
310.003	1.82
310.378	1.68
310.753	1.92
311.128	1.5
311.502	1.73
311.877	1.89
312.252	1.47
312.626	2.03
313.001	1.91
313.375	1.91
313.75	1.83
314.124	1.74
314.498	1.83
314.873	2.42
315.247	2.12
315.621	2.06
315.995	1.9
316.369	1.66
316.743	1.32
317.117	1.32
317.491	1.75
317.865	1.87
318.239	2.06
318.613	1.46
318.987	1.49
319.361	1.62
319.734	1.6
320.108	1.54
320.482	1.68
320.855	1.35
321.229	2.29
321.602	1.66
321.976	2.17
322.349	1.95
322.723	1.91
323.096	2.14
323.469	1.29
323.843	1.28
324.216	2.33
324.589	2.09
324.962	1.99
325.335	1.61
325.708	1.96
326.081	1.45
326.454	1.7
326.827	1.52
327.2	1.78
327.573	2.03
327.945	2.11
328.318	1.75
328.691	1.85
329.063	1.82
329.436	1.54
329.809	2.05
330.181	1.5
330.553	1.28
330.926	1.53
331.298	1.76
331.671	1.43
332.043	1.74
332.415	2.1
332.787	1.45
333.159	2.13
333.532	1.8
333.904	1.89
334.276	1.17
334.648	1.61
335.02	1.8
335.391	2.19
335.763	1.21
336.135	1.75
336.507	1.74
336.879	2.03
337.25	1.7
337.622	2.14
337.993	1.87
338.365	1.96
338.736	2.06
339.108	2.21
339.479	1.47
339.851	1.93
340.222	2.11
340.593	1.69
340.964	1.51
341.336	1.83
341.707	2.33
342.078	1.88
342.449	1.75
342.82	1.58
343.191	1.76
343.562	1.74
343.933	2.43
344.303	1.56
344.674	2.04
345.045	2.01
345.416	1.83
345.786	1.99
346.157	1.37
346.527	1.78
346.898	1.88
347.268	1.89
347.639	1.92
348.009	1.77
348.38	1.5
348.75	1.84
349.12	2.17
349.49	1.65
349.861	1.91
350.231	1.33
350.601	1.66
350.971	1.78
351.341	1.62
351.711	1.84
352.081	1.15
352.45	1.24
352.82	1.75
353.19	2.06
353.56	1.98
353.929	1.57
354.299	2.06
354.669	1.79
355.038	2.1
355.408	1.29
355.777	2.04
356.147	1.59
356.516	2.03
356.885	1.49
357.254	1.15
357.624	1.72
357.993	2
358.362	1.97
358.731	1.71
359.1	2.02
359.469	1.6
359.838	1.71
360.207	1.94
360.576	2.12
360.945	1.45
361.314	1.77
361.682	1.49
362.051	1.89
362.42	2.12
362.788	1.73
363.157	1.69
363.525	1.91
363.894	1.79
364.262	1.62
364.631	1.96
364.999	1.87
365.367	1.8
365.735	1.67
366.104	1.93
366.472	1.95
366.84	1.63
367.208	1.91
367.576	1.9
367.944	1.89
368.312	1.91
368.68	1.8
369.048	1.61
369.416	1.82
369.783	1.7
370.151	1.79
370.519	1.51
370.886	1.95
371.254	1.97
371.621	1.74
371.989	2.08
372.356	2.04
372.724	1.67
373.091	1.57
373.458	1.93
373.826	1.95
374.193	2.02
374.56	2.12
374.927	2.04
375.294	2.03
375.661	1.89
376.028	1.69
376.395	1.65
376.762	1.58
377.129	1.72
377.496	1.96
377.863	1.71
378.229	1.55
378.596	1.62
378.963	1.99
379.329	2.17
379.696	1.79
380.062	1.89
380.429	2.02
380.795	1.59
381.161	2.13
381.528	1.99
381.894	1.74
382.26	1.76
382.626	1.4
382.993	2
383.359	1.92
383.725	1.99
384.091	1.92
384.457	1.86
384.823	1.86
385.188	2.18
385.554	1.99
385.92	1.97
386.286	2.03
386.651	2.08
387.017	2.25
387.383	1.88
387.748	2.19
388.114	1.94
388.479	1.64
388.845	1.99
389.21	1.85
389.575	1.79
389.94	1.75
390.306	2.03
390.671	1.85
391.036	1.72
391.401	2.01
391.766	2.07
392.131	1.87
392.496	1.94
392.861	1.89
393.226	1.7
393.591	1.95
393.956	2.09
394.32	1.96
394.685	1.72
395.05	1.84
395.414	1.93
395.779	1.76
396.143	1.85
396.508	1.9
396.872	2.05
397.236	1.81
397.601	1.79
397.965	2.24
398.329	2.08
398.694	2.07
399.058	2
399.422	2.25
399.786	2.41
400.15	1.93
400.514	1.89
400.878	2.02
401.242	1.8
401.605	2.27
401.969	2.11
402.333	1.94
402.697	1.85
403.06	1.98
403.424	1.83
403.787	2
404.151	2.14
404.514	1.77
404.878	1.76
405.241	2.04
405.604	1.89
405.968	1.77
406.331	1.98
406.694	2.05
407.057	1.85
407.42	2.04
407.783	1.83
408.146	2
408.509	2.02
408.872	1.85
409.235	2.18
409.598	2.07
409.961	2.25
410.323	2.01
410.686	2.22
411.049	1.95
411.411	2.07
411.774	1.96
412.136	1.93
412.499	2.01
412.861	1.97
413.223	1.75
413.586	2.01
413.948	2.14
414.31	1.96
414.672	2.26
415.035	1.89
415.397	2.14
415.759	2.06
416.121	2.05
416.483	2.08
416.845	1.95
417.206	2
417.568	2.04
417.93	2
418.292	2.1
418.653	1.84
419.015	2.13
419.377	1.89
419.738	2.07
420.1	2.06
420.461	1.96
420.822	2.06
421.184	2
421.545	2.08
421.906	2.07
422.267	1.96
422.629	2.02
422.99	1.97
423.351	2.01
423.712	1.95
424.073	1.94
424.434	2.03
424.795	2.08
425.155	2.04
425.516	2.02
425.877	2.05
426.238	2
426.598	2.09
426.959	2.04
427.32	2.18
427.68	2.09
428.041	2.02
428.401	2.13
428.761	2.03
429.122	2.07
429.482	1.98
429.842	2.22
430.202	2.13
430.563	2.08
430.923	2.26
431.283	2.1
431.643	2.05
432.003	2.17
432.363	2.11
432.722	2.22
433.082	1.93
433.442	2.04
433.802	2
434.161	2.03
434.521	2.16
434.881	1.95
435.24	1.98
435.6	2.01
435.959	2.02
436.319	2.14
436.678	2.07
437.037	2.24
437.396	2.08
437.756	2.17
438.115	2.08
438.474	2.11
438.833	2.13
439.192	2.21
439.551	2.23
439.91	2.09
440.269	2.2
440.628	1.99
440.987	2.01
441.345	2.07
441.704	2.11
442.063	2.22
442.421	2.02
442.78	2.11
443.138	2.03
443.497	2.32
443.855	2.22
444.214	2.24
444.572	2.1
444.93	1.99
445.288	2.19
445.647	2.11
446.005	2.16
446.363	2.27
446.721	2.05
447.079	2.08
447.437	2.15
447.795	2.16
448.153	2.05
448.51	2.09
448.868	2.11
449.226	2.19
449.584	2.13
449.941	2.17
450.299	2.16
450.656	2.13
451.014	2.28
451.371	2.01
451.729	2.02
452.086	2.23
452.443	2.07
452.801	2.21
453.158	2.17
453.515	2.08
453.872	2.03
454.229	2.05
454.586	2.19
454.943	2.07
455.3	2.13
455.657	2.16
456.014	2.25
456.371	2.09
456.727	2.22
457.084	2.22
457.441	2.38
457.797	2.19
458.154	2.2
458.51	2.31
458.867	2.12
459.223	2.27
459.58	2.05
459.936	2.19
460.292	1.94
460.648	2.17
461.005	2.21
461.361	2.13
461.717	2.11
462.073	2.11
462.429	2.08
462.785	2.16
463.141	2.21
463.496	2.28
463.852	2.17
464.208	2.06
464.564	2.19
464.919	2.22
465.275	2.16
465.631	2.1
465.986	2.22
466.342	2.17
466.697	2.23
467.052	2.23
467.408	2.28
467.763	2.28
468.118	2.04
468.473	2.1
468.829	2.03
469.184	2.24
469.539	2.13
469.894	2.25
470.249	2.14
470.603	2.38
470.958	2.2
471.313	2.35
471.668	2.27
472.023	2.17
472.377	2.07
472.732	2.16
473.086	2.09
473.441	2.23
473.795	2.26
474.15	2.17
474.504	2.31
474.859	2.38
475.213	2.44
475.567	2.17
475.921	2.39
476.275	2.18
476.63	2.21
476.984	2.36
477.338	2.17
477.692	2.17
478.045	2.16
478.399	2.17
478.753	2.3
479.107	2.05
479.461	2.24
479.814	2.1
480.168	2.02
480.521	2.27
480.875	2.16
481.228	2.31
481.582	2.27
481.935	2.29
482.289	2.21
482.642	2.12
482.995	2.36
483.348	2.05
483.701	2.17
484.055	2.23
484.408	2.16
484.761	2.12
485.114	2.04
485.466	1.99
485.819	1.99
486.172	2.06
486.525	2.13
486.878	2.16
487.23	2.15
487.583	2.16
487.936	2.21
488.288	2.16
488.641	2.1
488.993	2.07
489.345	2.09
489.698	2.08
490.05	2.15
490.402	2.15
490.754	2.18
491.107	2.22
491.459	2.16
491.811	2.2
492.163	2.27
492.515	2.2
492.866	2.1
493.218	2.03
493.57	2.07
493.922	2.13
494.274	2.2
494.625	2.21
494.977	2.3
495.328	2.25
495.68	2.24
496.031	2.23
496.383	2.35
496.734	2.23
497.086	2.26
497.437	2.31
497.788	2.31
498.139	2.21
498.49	2.19
498.842	2.17
499.193	2.23
499.544	2.21
499.894	2.29
500.245	2.28
500.596	2.36
500.947	2.19
501.298	2.39
501.648	2.38
501.999	2.22
502.35	2.25
502.7	2.28
503.051	2.3
503.401	2.22
503.752	2.24
504.102	2.27
504.452	2.27
504.803	2.35
505.153	2.36
505.503	2.16
505.853	2.39
506.203	2.29
506.553	2.37
506.903	2.26
507.253	2.29
507.603	2.35
507.953	2.35
508.303	2.28
508.652	2.18
509.002	2.37
509.352	2.37
509.701	2.16
510.051	2.37
510.4	2.34
510.75	2.19
511.099	2.26
511.449	2.24
511.798	2.39
512.147	2.24
512.496	2.28
512.846	2.3
513.195	2.29
513.544	2.46
513.893	2.33
514.242	2.32
514.591	2.22
514.939	2.29
515.288	2.3
515.637	2.39
515.986	2.34
516.334	2.17
516.683	2.34
517.032	2.2
517.38	2.39
517.729	2.21
518.077	2.16
518.426	2.29
518.774	2.24
519.122	2.31
519.47	2.24
519.819	2.21
520.167	2.22
520.515	2.24
520.863	2.3
521.211	2.27
521.559	2.27
521.907	2.31
522.255	2.29
522.602	2.36
522.95	2.28
523.298	2.31
523.645	2.23
523.993	2.24
524.341	2.4
524.688	2.26
525.036	2.3
525.383	2.21
525.73	2.4
526.078	2.32
526.425	2.3
526.772	2.28
527.119	2.23
527.466	2.18
527.814	2.25
528.161	2.35
528.508	2.3
528.854	2.3
529.201	2.17
529.548	2.3
529.895	2.12
530.242	2.11
530.588	2.12
530.935	2.14
531.282	2.21
531.628	2.27
531.975	2.25
532.321	2.28
532.667	2.32
533.014	2.29
533.36	2.32
533.706	2.19
534.052	2.22
534.399	2.16
534.745	2.24
535.091	2.19
535.437	2.23
535.783	2.28
536.129	2.28
536.474	2.28
536.82	2.26
537.166	2.33
537.512	2.31
537.857	2.28
538.203	2.29
538.549	2.26
538.894	2.34
539.239	2.32
539.585	2.4
539.93	2.34
540.276	2.37
540.621	2.4
540.966	2.31
541.311	2.43
541.656	2.23
542.001	2.38
542.346	2.3
542.691	2.26
543.036	2.18
543.381	2.23
543.726	2.26
544.071	2.23
544.415	2.32
544.76	2.26
545.105	2.33
545.449	2.31
545.794	2.38
546.138	2.4
546.483	2.3
546.827	2.49
547.171	2.38
547.516	2.46
547.86	2.26
548.204	2.29
548.548	2.3
548.892	2.34
549.236	2.4
549.58	2.38
549.924	2.48
550.268	2.48
550.612	2.35
550.956	2.4
551.3	2.4
551.643	2.34
551.987	2.49
552.33	2.32
552.674	2.47
553.017	2.34
553.361	2.44
553.704	2.4
554.048	2.42
554.391	2.36
554.734	2.43
555.077	2.21
555.42	2.14
555.764	2.38
556.107	2.4
556.45	2.46
556.793	2.44
557.135	2.48
557.478	2.51
557.821	2.54
558.164	2.36
558.507	2.31
558.849	2.46
559.192	2.51
559.534	2.6
559.877	2.51
560.219	2.42
560.562	2.65
560.904	2.56
561.246	2.34
561.589	2.48
561.931	2.5
562.273	2.63
562.615	2.43
562.957	2.17
563.299	2.31
563.641	2.6
563.983	2.39
564.325	2.52
564.667	2.62
565.008	2.42
565.35	2.52
565.692	2.43
566.033	2.47
566.375	2.63
566.716	2.34
567.058	2.45
567.399	2.28
567.741	2.44
568.082	2.44
568.423	2.27
568.764	2.38
569.105	2.43
569.447	2.22
569.788	2.52
570.129	2.37
570.47	2.62
570.811	2.57
571.151	2.64
571.492	2.36
571.833	2.42
572.174	2.38
572.514	2.4
572.855	2.42
573.195	2.42
573.536	2.46
573.876	2.21
574.217	2.31
574.557	2.47
574.898	2.45
575.238	2.46
575.578	2.61
575.918	2.36
576.258	2.35
576.598	2.42
576.938	2.44
577.278	2.51
577.618	2.29
577.958	2.6
578.298	2.43
578.638	2.46
578.977	2.38
579.317	2.51
579.657	2.62
579.996	2.48
580.336	2.61
580.675	2.48
581.014	2.57
581.354	2.46
581.693	2.61
582.032	2.69
582.372	2.69
582.711	2.68
583.05	2.52
583.389	2.55
583.728	2.71
584.067	2.69
584.406	2.34
584.745	2.62
585.083	2.52
585.422	2.47
585.761	2.5
586.1	2.45
586.438	2.41
586.777	2.39
587.115	2.58
587.454	2.54
587.792	2.84
588.13	2.5
588.469	2.51
588.807	2.36
589.145	2.65
589.483	2.62
589.821	2.52
590.159	2.57
590.497	2.64
590.835	2.32
591.173	2.47
591.511	2.64
591.849	2.34
592.187	2.43
592.524	2.76
592.862	2.76
593.2	2.65
593.537	2.55
593.875	2.62
594.212	2.64
594.55	2.54
594.887	2.4
595.224	2.51
595.561	2.49
595.899	2.27
596.236	2.28
596.573	2.57
596.91	2.53
597.247	2.66
597.584	2.58
597.921	2.37
598.258	2.5
598.594	2.41
598.931	2.46
599.268	2.33
599.604	2.54
599.941	2.83
600.277	2.64
600.614	2.6
600.95	2.45
601.287	2.52
601.623	2.36
601.959	2.59
602.296	2.37
602.632	2.49
602.968	2.38
603.304	2.48
603.64	2.8
603.976	2.45
604.312	2.83
604.648	2.64
604.984	2.55
605.319	2.63
605.655	2.44
605.991	2.43
606.326	2.48
606.662	2.41
606.998	2.56
607.333	2.45
607.668	2.46
608.004	2.6
608.339	2.65
608.674	2.73
609.01	2.79
609.345	2.67
609.68	2.63
610.015	2.79
610.35	2.56
610.685	2.44
611.02	2.69
611.355	2.48
611.689	2.46
612.024	2.53
612.359	2.52
612.694	2.99
613.028	2.59
613.363	2.79
613.697	2.73
614.032	2.62
614.366	2.74
614.7	2.65
615.035	2.88
615.369	2.76
615.703	2.54
616.037	2.42
616.371	2.52
616.705	2.49
617.039	2.63
617.373	2.59
617.707	3.03
618.041	2.83
618.375	2.84
618.709	2.56
619.042	2.63
619.376	3.04
619.71	2.8
620.043	2.35
620.377	2.54
620.71	2.54
621.043	2.81
621.377	2.18
621.71	2.92
622.043	2.38
622.376	2.31
622.709	2.6
623.043	2.59
623.376	2.63
623.709	2.56
624.041	2.7
624.374	2.39
624.707	2.7
625.04	2.94
625.373	2.73
625.705	2.93
626.038	2.68
626.37	2.41
626.703	2.41
627.035	3
627.368	3
627.7	2.55
628.032	2.34
628.365	2.57
628.697	2.72
629.029	2.8
629.361	2.74
629.693	2.75
630.025	2.7
630.357	2.88
630.689	2.78
631.021	2.64
631.353	2.84
631.684	2.62
632.016	2.63
632.348	2.36
632.679	2.78
633.011	3.03
633.342	2.85
633.674	2.78
634.005	2.73
634.336	2.97
634.668	2.5
634.999	2.57
635.33	2.72
635.661	2.92
635.992	2.88
636.323	3.1
636.654	2.98
636.985	2.95
637.316	2.73
637.647	2.61
637.977	2.82
638.308	2.74
638.639	2.44
638.969	2.86
639.3	2.87
639.63	2.51
639.961	2.8
640.291	2.57
640.622	2.97
640.952	2.56
641.282	2.79
641.612	2.77
641.943	3
642.273	2.8
642.603	2.97
642.933	2.94
643.263	2.83
643.592	2.88
643.922	2.75
644.252	3.09
644.582	3.28
644.911	2.67
645.241	2.62
645.571	3.24
645.9	2.78
646.23	3.21
646.559	2.6
646.888	3.16
647.218	2.96
647.547	2.52
647.876	2.86
648.205	2.74
648.534	2.94
648.863	2.79
649.192	3.34
649.521	3.04
649.85	2.7
650.179	2.88
650.508	2.73
650.837	2.79
651.165	2.84
651.494	2.99
651.822	2.52
652.151	2.38
652.479	2.76
652.808	2.73
653.136	2.97
653.465	2.79
653.793	3.14
654.121	2.66
654.449	2.59
654.777	2.66
655.105	2.6
655.433	2.97
655.761	2.72
656.089	3.01
656.417	2.81
656.745	2.82
657.073	2.39
657.4	2.79
657.728	2.72
658.056	3.31
658.383	2.79
658.711	2.69
659.038	3.07
659.365	2.5
659.693	2.68
660.02	3.27
660.347	2.68
660.674	2.7
661.001	3.18
661.329	2.65
661.656	3.26
661.982	2.57
662.309	3.04
662.636	2.95
662.963	3.08
663.29	2.94
663.616	2.74
663.943	2.91
664.27	2.91
664.596	2.8
664.923	3.44
665.249	3.05
665.576	3.19
665.902	2.65
666.228	3.22
666.554	2.84
666.881	2.68
667.207	2.7
667.533	3.05
667.859	2.82
668.185	3.04
668.511	2.75
668.837	3.22
669.162	2.69
669.488	2.51
669.814	2.84
670.139	3.06
670.465	2.81
670.791	2.83
671.116	2.87
671.442	3.21
671.767	2.04
672.092	2.22
672.418	3.14
672.743	3.47
673.068	2.64
673.393	3.04
673.718	2.86
674.043	3.86
674.368	2.7
674.693	3.03
675.018	2.97
675.343	3.39
675.667	2.84
675.992	2.29
676.317	2.92
676.641	2.75
676.966	3.13
677.29	2.69
677.615	3.54
677.939	3.18
678.264	2.79
678.588	2.61
678.912	3.04
679.236	2.91
679.56	2.88
679.885	3.11
680.209	2.96
680.532	2.15
680.856	2.98
681.18	3
681.504	3.12
681.828	3.5
682.152	3.13
682.475	2.88
682.799	3.52
683.122	3.09
683.446	3.11
683.769	3.14
684.093	3.3
684.416	3.4
684.739	3.2
685.062	2.79
685.386	2.5
685.709	2.98
686.032	3.08
686.355	2.9
686.678	3.21
687.001	3.42
687.324	3.54
687.646	3.44
687.969	2.65
688.292	2.67
688.614	4.02
688.937	3.59
689.26	3
689.582	2.97
689.904	2.98
690.227	3.02
690.549	3.01
690.871	3.62
691.194	2.67
691.516	3.2
691.838	3.26
692.16	2.88
692.482	3.16
692.804	3.43
693.126	4.11
693.448	3.06
693.769	3.3
694.091	2.64
694.413	3.3
694.735	2.74
695.056	2.54
695.378	2.77
695.699	3.06
696.021	3.66
696.342	3.78
696.663	2.85
696.984	3.82
697.306	2.92
697.627	2.72
697.948	3.06
698.269	2.62
698.59	2.73
698.911	2.94
699.232	3.38
699.553	2.59
699.873	3.36
700.194	3.45
700.515	2.39
700.835	2.89
701.156	2.99
701.477	3.3
701.797	2.94
702.117	3
702.438	2.88
702.758	2.93
703.078	3.07
703.398	3.61
703.719	3.32
704.039	3.18
704.359	3.78
704.679	3.56
704.999	2.64
705.319	3.48
705.638	3.13
705.958	3.28
706.278	3.37
706.597	3.98
706.917	3.5
707.237	2.87
707.556	2.41
707.876	3.07
708.195	2.67
708.514	3.21
708.834	2.2
709.153	2.79
709.472	3.24
709.791	2.91
710.11	3.16
710.429	3.45
710.748	3.52
711.067	3.06
711.386	2.99
711.705	2.33
712.023	4.03
712.342	3.04
712.661	3.11
712.979	2.79
713.298	3.56
713.616	3.57
713.935	3.87
714.253	4.75
714.572	3
714.89	3.65
715.208	3.07
715.526	3.78
715.844	2.48
716.162	2.95
716.48	4.31
716.798	3.14
717.116	3.87
717.434	2.77
717.752	2.99
718.069	3.34
718.387	3.05
718.705	2.57
719.022	3.02
719.34	3
719.657	3.35
719.975	2.74
720.292	3.86
720.609	3.18
720.927	3.72
721.244	2.81
721.561	3.19
721.878	2.01
722.195	3.99
722.512	3.37
722.829	3.31
723.146	4.36
723.463	3.33
723.779	3.64
724.096	2.81
724.413	3.43
724.729	2
725.046	3.47
725.362	2.9
725.679	3.89
725.995	3.4
726.311	2.4
726.628	3.54
726.944	4.22
727.26	4.46
727.576	2.92
727.892	3.49
728.208	2.39
728.524	3.72
728.84	3.12
729.156	3.1
729.472	3.67
729.787	4.55
730.103	2.85
730.419	4.79
730.734	4.26
731.05	2.9
731.365	3.73
731.681	4.59
731.996	3.22
732.311	4.73
732.626	2.11
732.942	3.4
733.257	4.23
733.572	3.33
733.887	4.03
734.202	3.7
734.517	3.76
734.832	4.21
735.146	3.59
735.461	3.84
735.776	2.22
736.091	3.03
736.405	3.54
736.72	4.3
737.034	2.98
737.349	2.96
737.663	3.98
737.977	4.66
738.292	4.58
738.606	4.25
738.92	3.01
739.234	2.8
739.548	3.57
739.862	2.65
740.176	2.4
740.49	3.85
740.804	2.58
741.117	3.66
741.431	4.63
741.745	4.28
742.058	2.61
742.372	4.42
742.685	4.2
742.999	3.93
743.312	3.76
743.626	2.17
743.939	3.83
744.252	5.31
744.565	1.41
744.878	5.1
745.191	3.06
745.505	4.82
745.817	4.01
746.13	4.66
746.443	2.89
746.756	4.84
747.069	4.37
747.381	3.47
747.694	3.35
748.007	5.16
748.319	3.73
748.632	2.54
748.944	2.87
749.256	4.01
749.569	4.75
749.881	3.96
750.193	4.62
750.505	4.43
750.817	3.8
751.129	3.01
751.441	2.46
751.753	4.99
752.065	4.05
752.377	3.03
752.689	3.83
753	4.62
753.312	1.95
753.624	2.91
753.935	4.9
754.247	2.42
754.558	4.5
754.869	3.56
755.181	3.31
755.492	4.24
755.803	1.9
756.114	3.79
756.425	4.24
756.736	3.76
757.047	4.21
757.358	4.91
757.669	3.28
757.98	3.06
758.291	3.31
758.601	3.44
758.912	3.35
759.223	4.08
759.533	4.1
759.844	2.29
760.154	4.4
760.464	2.5
760.775	4.01
761.085	3.34
761.395	3.23
761.705	5.84
762.016	4.64
762.326	3.82
762.636	3.86
762.945	3.8
763.255	3.19
763.565	4.36
763.875	2.75
764.185	4.44
764.494	3.19
764.804	3.39
765.113	5.44
765.423	5.11
765.732	5.32
766.042	5.09
766.351	4.16
766.66	2.95
766.97	3.81
767.279	2.66
767.588	4.67
767.897	4.06
768.206	5.63
768.515	3.47
768.824	5.18
769.133	3.11
769.441	4.58
769.75	5.07
770.059	3.38
770.367	3.02
770.676	3.85
770.984	4.27
771.293	1.68
771.601	5.65
771.91	6.21
772.218	4.02
772.526	1.5
772.834	5.04
773.142	5.17
773.45	3.71
773.758	5.35
774.066	2.82
774.374	1.16
774.682	4.3
774.99	3.43
775.298	4.54
775.605	3.24
775.913	2.79
776.22	1.63
776.528	4.44
776.835	3.25
777.143	3.28
777.45	4.74
777.757	3.26
778.065	3.93
778.372	1.28
778.679	4.43
778.986	8.53
779.293	5.67
779.6	4.48
779.907	3.51
780.214	4.16
780.52	4.74
780.827	4.35
781.134	3.42
781.44	4.27
781.747	6.52
782.053	3.45
782.36	3.71
782.666	2.81
782.973	6.65
783.279	2.49
783.585	3.06
783.891	6.4
784.197	5.11
784.503	7.6
784.809	-0.43
785.115	9.39
785.421	3.22
785.727	4.69
786.033	6
786.339	1.58
786.644	5.03
786.95	4.27
787.255	4.71
787.561	4.58
787.866	2.94
788.172	10.53
788.477	7.5
788.782	1.23
789.088	1.44
789.393	5.54
789.698	4.04
790.003	6.59
790.308	3.73
790.613	0.28
790.918	2.15
791.223	7.37
791.527	6.33
791.832	5.86
792.137	4.43
792.441	1.72
792.746	5.32
793.05	-0.78
793.355	6.77
793.659	7.82
793.963	4.29
794.268	6.53
794.572	1.39
794.876	9.1
795.18	9.03
795.484	8.55
795.788	3.75
796.092	3.57
796.396	1.97
796.7	0.28
797.004	2.41
797.307	-0.69
797.611	3.95
797.915	4.86
798.218	2.08
798.522	7.61
798.825	3.24
799.128	3.05
799.432	4.1
799.735	7.13
800.038	5.79
800.341	4.39
800.644	-1.68
800.947	5.47
801.25	5.93
801.553	4.44
801.856	3.63
802.159	0.86
802.462	3.12
802.764	4.41
803.067	5.06
803.37	1.86
803.672	1.65
803.975	3.77
804.277	2.59
804.579	6.19
804.882	1.11
805.184	0.16
805.486	8.45
805.788	4.27
806.09	3.73
806.392	4.71
806.694	5.54
806.996	3.54
807.298	8.56
807.6	3.65
807.902	4.97
808.203	6.04
808.505	3.74
808.807	7.3
809.108	3.32
809.409	7.49
809.711	3.03
810.012	8.27
810.313	1.7
810.615	1.72
810.916	1.9
811.217	3.52
811.518	4.45
811.819	9.75
812.12	1.28
812.421	7.52
812.722	3.84
813.023	4.55
813.323	3
813.624	6.33
813.925	4.44
814.225	5.44
814.526	8.55
814.826	2.04
815.126	3.57
815.427	3.42
815.727	3.84
816.027	4.04
816.327	7
816.627	6.16
816.927	11.89
817.227	2.75
817.527	11.28
817.827	9.15
818.127	4.34
818.427	3.94
818.727	6.66
819.026	5.83
819.326	0.31
819.625	3.96
819.925	10.62
820.224	3.81
820.524	6.79
820.823	5.94
821.122	3.2
821.421	-0.5
821.72	8.93
822.019	5.91
822.318	6.16
822.617	3.72
822.916	5.95
823.215	5.13
823.514	3.46
823.813	5.31
824.111	4.8
824.41	4.03
824.709	4.87
825.007	5.96
825.306	5.35
825.604	5.59
825.902	6.13
826.201	5.51
826.499	5.96
826.797	5.14
827.095	5.58
827.393	6.03
827.691	5.62
827.989	6.92
828.287	5.63
828.585	4.45
828.882	6.16
829.18	5.52
829.478	5.96
829.775	4.9
830.073	6.48
830.37	6.66
830.668	5.62
830.965	5.24
831.263	4.44
831.56	3.36
831.857	7.62
832.154	5.33
832.451	9.49
832.748	0.6
833.045	6.59
833.342	8.95
833.639	5.13
833.936	9.7
834.232	5.05
834.529	6.82
834.826	8.55
835.122	4.44
835.419	3.56
835.715	6.73
836.012	-0.86
836.308	3.73
836.604	9.88
836.901	7.27
837.197	5.37
837.493	3.94
837.789	6.04
838.085	-0.63
838.381	6.4
838.677	7.59
838.972	8.6
839.268	5.48
839.564	1.46
839.86	6.03
840.155	7.48
840.451	4.99
840.746	5.65
841.042	6.96
841.337	4.83
841.632	-1.43
841.928	14.5
842.223	9.86
842.518	3.54
842.813	6.53
843.108	8.55
843.403	-2.65
843.698	9.26
843.993	2.54
844.287	14.88
844.582	9.21
844.877	-12.19
845.171	3.85
845.466	11.18
845.761	10.18
846.055	10.04
846.349	2.6
846.644	-5.11
846.938	-3.08
847.232	-3.72
847.526	6.65
847.82	8.72
848.114	-1.33
848.408	7.09
848.702	7.21
848.996	18.66
849.29	6.18
849.584	4.36
849.877	-2.52
850.171	-8.71
850.465	9.82
850.758	-26.29
851.052	-2.75
851.345	16.73
851.638	21.48
851.932	7.49
852.225	-4.33
852.518	-2.82
852.811	8.99
853.104	2.89
853.397	0.04
853.69	15.77
853.983	-7.33
854.276	1.38
854.569	1.82
854.861	2.75
855.154	19.25
855.447	5.63
855.739	-6.24
856.032	10.23
856.324	9.67
856.616	-11.37
856.909	-6.04
857.201	-3.93
857.493	2.23
857.785	-3.97
858.077	6.53
858.369	16.65
858.661	8
858.953	-6.31
859.245	-4.54
859.537	9.37
859.829	-19.25
860.12	0.85
860.412	-15.41
860.703	6.12
860.995	9.97
861.286	17.18
861.578	3.43
861.869	1.19
862.16	-6.45
862.452	8.68
862.743	1.62
863.034	1.67
863.325	7.65
863.616	0.45
863.907	10.29
864.198	14.7
864.488	14.5
864.779	-3.48
865.07	-0.91
865.36	0.73
865.651	1.88
865.941	22.34
866.232	13.61
866.522	16.01
866.813	18.76
867.103	4.29
867.393	-16.98
867.683	-11.79
867.973	-14.88
868.263	-35.33
868.553	14.67
868.843	6.43
869.133	-5.54
869.423	-1.11
869.713	-31.23
870.002	-3.22
870.292	-7.56
870.582	-18.34
870.871	6.92
871.161	-1.59
871.45	-11.84
871.739	39.55
872.029	24.05
872.318	15.92
872.607	8.41
872.896	7.65
873.185	12.95
873.474	20.19
873.763	9.58
874.052	-4.92
874.341	20.83
874.63	20.68
874.918	10.54
875.207	11.64
875.496	-21.35
875.784	0.42
876.073	-14.83
876.361	16.33
876.649	-5.22
876.938	0.47
877.226	-25.15
877.514	-13.81
877.802	-8.06
878.09	12
878.378	38.25
878.666	20.33
878.954	-15.96
879.242	-5.8
879.53	10.02
879.817	33.2
880.105	0.57
880.392	5.59
880.68	2.52
880.967	2.98
881.255	17.22
881.542	14.61
881.83	22.99
882.117	19.36
882.404	-3.39
882.691	-0.01
882.978	8.38
883.265	-6.65
883.552	0.84
883.839	-0.56
884.126	3.27
884.413	4.78
884.699	5.77
884.986	10.68
885.273	9.14
885.559	9.14
885.846	9.14
