Data from 97277_chest_Reflection__1__77.txt Node

Date: Fri Sep 23 20:17:35 CDT 2022
User: ToomeyLab
Spectrometer: FLMS14357
Trigger mode: 0
Integration Time (sec): 1.000000E-2
Scans to average: 100
Electric dark correction enabled: true
Nonlinearity correction enabled: false
Boxcar width: 0
XAxis mode: Wavelengths
Number of Pixels in Spectrum: 2048
>>>>>Begin Spectral Data<<<<<
189.047	-196.99
189.435	-196.99
189.823	-196.99
190.211	-6.19
190.599	29.88
190.987	-7.08
191.375	-67.88
191.763	66.72
192.151	13.59
192.538	265.35
192.926	-279.53
193.314	181.68
193.702	132.46
194.089	56.3
194.477	193.98
194.864	-86.71
195.252	35.33
195.639	1482.34
196.027	43.1
196.414	282.49
196.801	206.07
197.189	52.22
197.576	-140.14
197.963	23.35
198.351	52.88
198.738	-21.13
199.125	11.04
199.512	1.97
199.899	6.06
200.286	-38.69
200.673	20.32
201.06	9.2
201.447	25.11
201.833	39.9
202.22	-1.76
202.607	-54.12
202.994	-19.28
203.38	-38.37
203.767	-42.31
204.154	4.52
204.54	34.98
204.927	33.97
205.313	-8.01
205.699	3.21
206.086	-6.34
206.472	27.34
206.858	12.42
207.245	4.71
207.631	-7.62
208.017	-20.67
208.403	10.11
208.789	29.68
209.175	24.32
209.561	9.47
209.947	-12.24
210.333	-5.6
210.719	-37.21
211.105	48.72
211.491	29.72
211.876	34.83
212.262	8.33
212.648	-15.54
213.034	-61.3
213.419	-81.91
213.805	31.5
214.19	-9.21
214.576	2.52
214.961	22.75
215.346	-30.14
215.732	20.02
216.117	-9.93
216.502	6.24
216.888	18.47
217.273	-5.46
217.658	-30.14
218.043	6.08
218.428	14
218.813	15.33
219.198	0.33
219.583	-11.2
219.968	-5.44
220.353	15.12
220.738	-4.03
221.122	7.61
221.507	-7.39
221.892	-4.1
222.276	2.07
222.661	-10.31
223.046	-0.69
223.43	-2.82
223.815	8.68
224.199	9.8
224.583	-3.69
224.968	-1.72
225.352	1.16
225.736	-0.98
226.121	6.1
226.505	0.55
226.889	8.97
227.273	1.76
227.657	4.05
228.041	3.82
228.425	3.49
228.809	3.32
229.193	3.47
229.577	5.16
229.961	4.11
230.344	4.06
230.728	4.33
231.112	4.18
231.495	3.96
231.879	2.8
232.263	4.11
232.646	5.77
233.03	3.6
233.413	5.64
233.797	3.87
234.18	6.62
234.563	3.61
234.946	5.96
235.33	5.2
235.713	5.09
236.096	2.36
236.479	2.19
236.862	3.99
237.245	4.51
237.628	4.82
238.011	5.42
238.394	5.39
238.777	4.76
239.16	5.21
239.543	4.18
239.925	3.83
240.308	5.36
240.691	3.78
241.073	4.19
241.456	4.16
241.838	6.55
242.221	4.05
242.603	4.86
242.986	3.85
243.368	3.87
243.75	4.13
244.133	4.44
244.515	4.15
244.897	4.2
245.279	4.55
245.661	5.19
246.043	4.85
246.425	2.87
246.807	3.82
247.189	4.08
247.571	4.42
247.953	4.05
248.335	4.72
248.717	4.45
249.098	4.18
249.48	4.3
249.862	4.6
250.243	4.86
250.625	4.34
251.006	4.42
251.388	3.95
251.769	4.73
252.151	2.82
252.532	4.64
252.913	5.87
253.295	4.43
253.676	4.83
254.057	4.5
254.438	3.8
254.819	4.2
255.2	4.17
255.581	5.42
255.962	3.51
256.343	4.24
256.724	3.67
257.105	4.83
257.486	3.95
257.867	4.75
258.247	4.45
258.628	3.9
259.009	3.53
259.389	4.09
259.77	4.1
260.15	4.17
260.531	4.53
260.911	4.01
261.292	4.02
261.672	4.01
262.052	4
262.432	3.81
262.813	3.99
263.193	3.87
263.573	4.28
263.953	3.55
264.333	3.52
264.713	4.21
265.093	4.21
265.473	4.85
265.853	3.15
266.233	3.31
266.612	3.89
266.992	4.79
267.372	4.21
267.752	4.4
268.131	4.49
268.511	4.06
268.89	4.34
269.27	4.38
269.649	3.84
270.029	4.28
270.408	4.11
270.787	3.94
271.167	4.2
271.546	4
271.925	4.02
272.304	3.96
272.683	3.92
273.062	4.04
273.441	4.06
273.82	4.11
274.199	3.75
274.578	3.45
274.957	3.87
275.336	3.82
275.715	3.46
276.093	4.54
276.472	4.47
276.851	4.42
277.229	3.66
277.608	4.46
277.986	3.5
278.365	3.66
278.743	4.4
279.122	3.97
279.5	4.42
279.878	3.85
280.257	4.37
280.635	4.02
281.013	3.97
281.391	3.77
281.769	3.85
282.147	3.54
282.525	3.9
282.903	3.77
283.281	3.94
283.659	4.18
284.037	3.83
284.415	4.15
284.792	3.89
285.17	4.05
285.548	3.76
285.925	4.07
286.303	4.34
286.68	3.72
287.058	3.76
287.435	3.64
287.813	4.06
288.19	3.66
288.567	4.1
288.945	3.7
289.322	3.94
289.699	4.01
290.076	4.22
290.453	4.07
290.83	3.96
291.207	4.01
291.584	3.99
291.961	3.62
292.338	4.16
292.715	3.7
293.092	3.58
293.469	4.2
293.845	4.26
294.222	4.13
294.599	3.54
294.975	3.6
295.352	4.4
295.728	4.02
296.105	3.89
296.481	4.12
296.858	3.55
297.234	3.88
297.61	3.62
297.986	4.13
298.363	4.04
298.739	3.98
299.115	3.78
299.491	3.9
299.867	3.98
300.243	4.18
300.619	4.53
300.995	4.01
301.371	3.44
301.746	4.32
302.122	3.93
302.498	3.73
302.874	4.05
303.249	4.56
303.625	4.05
304	3.88
304.376	3.84
304.751	3.83
305.127	4.1
305.502	3.56
305.878	4.03
306.253	3.89
306.628	3.78
307.003	3.5
307.378	3.99
307.754	4.3
308.129	3.89
308.504	3.85
308.879	4.21
309.254	3.86
309.629	4.05
310.003	4.08
310.378	4.16
310.753	3.94
311.128	3.65
311.502	3.71
311.877	4.11
312.252	4.04
312.626	3.92
313.001	3.94
313.375	3.91
313.75	3.82
314.124	3.65
314.498	4.08
314.873	4.06
315.247	4.72
315.621	4.25
315.995	4.37
316.369	4.01
316.743	3.6
317.117	3.41
317.491	3.99
317.865	3.66
318.239	4.43
318.613	3.52
318.987	4.03
319.361	4.24
319.734	3.77
320.108	3.8
320.482	3.52
320.855	4.21
321.229	4.18
321.602	4.01
321.976	4.31
322.349	3.91
322.723	3.95
323.096	4.1
323.469	3.42
323.843	3.9
324.216	3.96
324.589	4.18
324.962	3.85
325.335	3.78
325.708	4.08
326.081	3.92
326.454	3.88
326.827	3.76
327.2	3.6
327.573	4.26
327.945	4.24
328.318	3.95
328.691	3.86
329.063	3.92
329.436	4.09
329.809	4.26
330.181	4.09
330.553	4.05
330.926	4.31
331.298	4.34
331.671	4.06
332.043	3.74
332.415	4.04
332.787	3.81
333.159	3.69
333.532	4.25
333.904	3.85
334.276	3.34
334.648	3.5
335.02	3.79
335.391	4.51
335.763	3.52
336.135	3.69
336.507	4.4
336.879	4.18
337.25	4.32
337.622	3.7
337.993	3.87
338.365	3.88
338.736	4.09
339.108	4.3
339.479	3.67
339.851	4.5
340.222	4.38
340.593	4.02
340.964	4.39
341.336	3.88
341.707	4.91
342.078	3.99
342.449	3.98
342.82	4.12
343.191	3.97
343.562	3.96
343.933	4.52
344.303	4.3
344.674	4.49
345.045	4.26
345.416	4.01
345.786	4.62
346.157	3.99
346.527	3.92
346.898	4.03
347.268	4.05
347.639	4.57
348.009	4
348.38	3.68
348.75	4.15
349.12	4.09
349.49	4.42
349.861	4.28
350.231	3.91
350.601	3.8
350.971	3.86
351.341	4.27
351.711	4.42
352.081	3.66
352.45	3.66
352.82	3.74
353.19	4.36
353.56	4.37
353.929	3.78
354.299	4.36
354.669	4.1
355.038	4.47
355.408	3.89
355.777	4.07
356.147	3.97
356.516	3.85
356.885	3.81
357.254	3.82
357.624	3.8
357.993	4.27
358.362	3.74
358.731	3.79
359.1	4.17
359.469	3.85
359.838	3.82
360.207	4.05
360.576	4.27
360.945	3.97
361.314	3.81
361.682	4.1
362.051	4.02
362.42	4.33
362.788	3.99
363.157	4.26
363.525	4.34
363.894	4.16
364.262	3.93
364.631	4.1
364.999	3.97
365.367	3.95
365.735	4.17
366.104	4.46
366.472	4.18
366.84	4.12
367.208	4.22
367.576	4.36
367.944	4.23
368.312	4.4
368.68	4.2
369.048	4
369.416	4.14
369.783	4.14
370.151	4.22
370.519	4.17
370.886	4.21
371.254	4.28
371.621	4.56
371.989	3.93
372.356	4.42
372.724	3.75
373.091	4.26
373.458	4.13
373.826	4.33
374.193	4.15
374.56	4.15
374.927	4.54
375.294	4.41
375.661	4.08
376.028	4.15
376.395	4.14
376.762	4.17
377.129	3.96
377.496	4.48
377.863	4.38
378.229	4.29
378.596	3.96
378.963	4.2
379.329	4.48
379.696	4.24
380.062	4.11
380.429	4.26
380.795	4.06
381.161	4.17
381.528	4.51
381.894	3.97
382.26	4.28
382.626	4.16
382.993	4.42
383.359	4.47
383.725	4.55
384.091	4.32
384.457	4.34
384.823	4.36
385.188	4.41
385.554	4.57
385.92	4.35
386.286	4.18
386.651	4.3
387.017	4.58
387.383	4.28
387.748	4.43
388.114	4.33
388.479	4.31
388.845	4.28
389.21	4.33
389.575	4.17
389.94	4.1
390.306	4.09
390.671	4.02
391.036	4.21
391.401	4.36
391.766	4.69
392.131	4.4
392.496	4.23
392.861	4.19
393.226	4.2
393.591	4.4
393.956	4.18
394.32	4.45
394.685	4.47
395.05	4.31
395.414	4.31
395.779	4.26
396.143	4.37
396.508	4.24
396.872	4.36
397.236	4.41
397.601	4.3
397.965	4.86
398.329	4.65
398.694	4.52
399.058	4.36
399.422	4.59
399.786	4.5
400.15	4.44
400.514	4.23
400.878	4.43
401.242	4.32
401.605	4.63
401.969	4.49
402.333	4.36
402.697	4.24
403.06	4.61
403.424	4.48
403.787	4.42
404.151	4.64
404.514	4.42
404.878	4.36
405.241	4.3
405.604	4.36
405.968	4.32
406.331	4.28
406.694	4.49
407.057	4.29
407.42	4.55
407.783	4.4
408.146	4.22
408.509	4.32
408.872	4.4
409.235	4.6
409.598	4.76
409.961	4.57
410.323	4.47
410.686	4.57
411.049	4.3
411.411	4.7
411.774	4.32
412.136	4.43
412.499	4.42
412.861	4.29
413.223	4.36
413.586	4.53
413.948	4.25
414.31	4.43
414.672	4.55
415.035	4.28
415.397	4.57
415.759	4.57
416.121	4.72
416.483	4.47
416.845	4.38
417.206	4.43
417.568	4.61
417.93	4.5
418.292	4.57
418.653	4.28
419.015	4.51
419.377	4.31
419.738	4.44
420.1	4.36
420.461	4.54
420.822	4.43
421.184	4.47
421.545	4.33
421.906	4.46
422.267	4.36
422.629	4.38
422.99	4.44
423.351	4.3
423.712	4.46
424.073	4.41
424.434	4.49
424.795	4.57
425.155	4.33
425.516	4.5
425.877	4.46
426.238	4.45
426.598	4.46
426.959	4.48
427.32	4.51
427.68	4.49
428.041	4.47
428.401	4.55
428.761	4.49
429.122	4.52
429.482	4.68
429.842	4.51
430.202	4.59
430.563	4.59
430.923	4.84
431.283	4.7
431.643	4.52
432.003	4.56
432.363	4.56
432.722	4.64
433.082	4.53
433.442	4.65
433.802	4.58
434.161	4.49
434.521	4.69
434.881	4.53
435.24	4.44
435.6	4.56
435.959	4.64
436.319	4.65
436.678	4.54
437.037	4.62
437.396	4.64
437.756	4.79
438.115	4.55
438.474	4.6
438.833	4.75
439.192	4.8
439.551	4.71
439.91	4.67
440.269	4.79
440.628	4.75
440.987	4.61
441.345	4.66
441.704	4.64
442.063	4.65
442.421	4.54
442.78	4.54
443.138	4.47
443.497	4.69
443.855	4.57
444.214	4.66
444.572	4.51
444.93	4.5
445.288	4.77
445.647	4.85
446.005	4.81
446.363	4.77
446.721	4.67
447.079	4.7
447.437	4.7
447.795	4.6
448.153	4.42
448.51	4.52
448.868	4.6
449.226	4.67
449.584	4.54
449.941	4.71
450.299	4.65
450.656	4.76
451.014	4.73
451.371	4.62
451.729	4.59
452.086	4.78
452.443	4.71
452.801	4.66
453.158	4.76
453.515	4.76
453.872	4.69
454.229	4.84
454.586	4.64
454.943	4.77
455.3	4.55
455.657	4.79
456.014	4.83
456.371	4.72
456.727	4.79
457.084	4.74
457.441	4.95
457.797	4.7
458.154	4.73
458.51	4.69
458.867	4.99
459.223	4.78
459.58	4.67
459.936	4.8
460.292	4.68
460.648	4.9
461.005	4.64
461.361	4.73
461.717	4.7
462.073	4.73
462.429	4.59
462.785	4.7
463.141	4.7
463.496	4.84
463.852	4.82
464.208	4.78
464.564	4.82
464.919	4.93
465.275	4.91
465.631	4.79
465.986	4.57
466.342	4.92
466.697	4.74
467.052	4.92
467.408	4.86
467.763	4.79
468.118	4.76
468.473	4.86
468.829	4.84
469.184	4.93
469.539	4.94
469.894	4.79
470.249	4.87
470.603	4.85
470.958	4.86
471.313	4.9
471.668	4.93
472.023	4.89
472.377	4.83
472.732	4.96
473.086	4.79
473.441	4.87
473.795	5.1
474.15	4.93
474.504	4.86
474.859	4.96
475.213	5.13
475.567	4.77
475.921	4.99
476.275	4.79
476.63	4.92
476.984	4.97
477.338	4.92
477.692	4.98
478.045	4.8
478.399	4.88
478.753	5.03
479.107	4.98
479.461	4.99
479.814	4.76
480.168	4.99
480.521	5.01
480.875	4.9
481.228	5.09
481.582	4.97
481.935	5.03
482.289	4.96
482.642	4.87
482.995	5.12
483.348	4.86
483.701	4.96
484.055	4.95
484.408	4.84
484.761	4.87
485.114	4.73
485.466	4.67
485.819	4.63
486.172	4.68
486.525	4.71
486.878	4.72
487.23	4.8
487.583	4.85
487.936	4.88
488.288	4.84
488.641	4.89
488.993	4.84
489.345	4.83
489.698	4.75
490.05	4.8
490.402	4.77
490.754	4.83
491.107	4.89
491.459	4.98
491.811	4.9
492.163	5.05
492.515	5.05
492.866	4.97
493.218	4.9
493.57	4.87
493.922	4.9
494.274	4.93
494.625	4.9
494.977	4.97
495.328	5.04
495.68	5.17
496.031	5.09
496.383	5.21
496.734	5.16
497.086	5.1
497.437	5.25
497.788	5.13
498.139	5.14
498.49	5.05
498.842	5.09
499.193	5.18
499.544	5.05
499.894	5.13
500.245	5.22
500.596	5.13
500.947	5.12
501.298	5.18
501.648	5.33
501.999	5.28
502.35	5.28
502.7	5.26
503.051	5.2
503.401	5.24
503.752	5.16
504.102	5.37
504.452	5.24
504.803	5.3
505.153	5.28
505.503	5.14
505.853	5.41
506.203	5.1
506.553	5.33
506.903	5.21
507.253	5.22
507.603	5.23
507.953	5.33
508.303	5.28
508.652	5.28
509.002	5.31
509.352	5.47
509.701	5.29
510.051	5.25
510.4	5.26
510.75	5.32
511.099	5.4
511.449	5.3
511.798	5.37
512.147	5.29
512.496	5.31
512.846	5.35
513.195	5.23
513.544	5.53
513.893	5.45
514.242	5.32
514.591	5.41
514.939	5.42
515.288	5.37
515.637	5.41
515.986	5.44
516.334	5.28
516.683	5.52
517.032	5.36
517.38	5.53
517.729	5.42
518.077	5.31
518.426	5.48
518.774	5.44
519.122	5.43
519.47	5.4
519.819	5.38
520.167	5.38
520.515	5.34
520.863	5.46
521.211	5.35
521.559	5.42
521.907	5.43
522.255	5.48
522.602	5.51
522.95	5.56
523.298	5.58
523.645	5.55
523.993	5.49
524.341	5.68
524.688	5.56
525.036	5.49
525.383	5.47
525.73	5.67
526.078	5.72
526.425	5.63
526.772	5.57
527.119	5.58
527.466	5.5
527.814	5.51
528.161	5.6
528.508	5.56
528.854	5.6
529.201	5.58
529.548	5.59
529.895	5.48
530.242	5.4
530.588	5.43
530.935	5.45
531.282	5.48
531.628	5.51
531.975	5.53
532.321	5.57
532.667	5.66
533.014	5.65
533.36	5.72
533.706	5.76
534.052	5.72
534.399	5.6
534.745	5.67
535.091	5.61
535.437	5.62
535.783	5.68
536.129	5.65
536.474	5.71
536.82	5.7
537.166	5.81
537.512	5.78
537.857	5.9
538.203	5.8
538.549	5.69
538.894	5.89
539.239	5.96
539.585	5.94
539.93	5.78
540.276	5.98
540.621	6.02
540.966	5.96
541.311	6.07
541.656	5.85
542.001	6.19
542.346	5.9
542.691	5.87
543.036	5.79
543.381	5.86
543.726	5.85
544.071	5.78
544.415	5.93
544.76	5.84
545.105	6
545.449	5.98
545.794	6.02
546.138	6.12
546.483	6.15
546.827	6.1
547.171	6.11
547.516	6.17
547.86	6.17
548.204	6.2
548.548	6.15
548.892	6.13
549.236	6.25
549.58	6.18
549.924	6.38
550.268	6.5
550.612	6.3
550.956	6.43
551.3	6.29
551.643	6.3
551.987	6.4
552.33	6.45
552.674	6.43
553.017	6.57
553.361	6.27
553.704	6.4
554.048	6.3
554.391	6.39
554.734	6.5
555.077	6.54
555.42	6.52
555.764	6.47
556.107	6.63
556.45	6.59
556.793	6.42
557.135	6.5
557.478	6.82
557.821	6.54
558.164	6.45
558.507	6.82
558.849	6.87
559.192	6.83
559.534	6.93
559.877	6.83
560.219	6.83
560.562	6.92
560.904	6.69
561.246	6.67
561.589	6.97
561.931	6.94
562.273	7.14
562.615	6.89
562.957	6.85
563.299	6.81
563.641	7.14
563.983	6.9
564.325	7.01
564.667	6.91
565.008	6.92
565.35	7.04
565.692	7.15
566.033	7.09
566.375	6.94
566.716	7.28
567.058	7.01
567.399	6.9
567.741	7.11
568.082	7.07
568.423	7.06
568.764	7.04
569.105	7.17
569.447	7.15
569.788	7.19
570.129	7.02
570.47	7.27
570.811	7.2
571.151	7.39
571.492	7.2
571.833	7.23
572.174	7.23
572.514	7.43
572.855	7.24
573.195	7.35
573.536	7.42
573.876	7.11
574.217	7.36
574.557	7.47
574.898	7.29
575.238	7.47
575.578	7.52
575.918	7.23
576.258	7.52
576.598	7.36
576.938	7.49
577.278	7.56
577.618	7.48
577.958	7.61
578.298	7.59
578.638	7.69
578.977	7.63
579.317	7.78
579.657	7.79
579.996	7.69
580.336	7.85
580.675	7.87
581.014	7.83
581.354	8.02
581.693	7.9
582.032	7.97
582.372	8.06
582.711	7.87
583.05	8.12
583.389	8.01
583.728	8.01
584.067	8.09
584.406	7.84
584.745	8.02
585.083	8.14
585.422	7.92
585.761	8.07
586.1	8.21
586.438	8.26
586.777	8.11
587.115	8.26
587.454	8.27
587.792	8.27
588.13	8.27
588.469	8.17
588.807	8.21
589.145	8.43
589.483	8.41
589.821	8.24
590.159	8.42
590.497	8.38
590.835	8.19
591.173	8.37
591.511	8.34
591.849	8.37
592.187	8.39
592.524	8.78
592.862	8.58
593.2	8.76
593.537	8.76
593.875	8.71
594.212	8.81
594.55	8.25
594.887	8.77
595.224	8.67
595.561	8.87
595.899	8.46
596.236	8.33
596.573	8.9
596.91	8.71
597.247	8.9
597.584	8.62
597.921	8.99
598.258	8.59
598.594	8.96
598.931	8.81
599.268	8.9
599.604	8.82
599.941	9.09
600.277	9.1
600.614	8.88
600.95	8.88
601.287	9.12
601.623	8.97
601.959	8.9
602.296	9.23
602.632	9.03
602.968	9.11
603.304	9.24
603.64	9.25
603.976	9.12
604.312	9.4
604.648	9.33
604.984	9.16
605.319	9.18
605.655	9.29
605.991	9.26
606.326	9.29
606.662	9.4
606.998	9.53
607.333	9.51
607.668	9.4
608.004	9.41
608.339	9.39
608.674	9.39
609.01	9.34
609.345	9.61
609.68	9.78
610.015	10.1
610.35	9.7
610.685	9.65
611.02	9.85
611.355	9.71
611.689	9.83
612.024	9.87
612.359	9.82
612.694	9.84
613.028	9.87
613.363	9.83
613.697	9.85
614.032	9.82
614.366	10.02
614.7	10.01
615.035	10.38
615.369	10.08
615.703	10.22
616.037	9.97
616.371	10.18
616.705	10.08
617.039	9.85
617.373	10.39
617.707	10.34
618.041	10.34
618.375	10.65
618.709	10.3
619.042	10.19
619.376	10.6
619.71	10.44
620.043	10.19
620.377	10.37
620.71	10.33
621.043	10.44
621.377	10.05
621.71	10.57
622.043	10.21
622.376	10.2
622.709	10.77
623.043	10.31
623.376	11.02
623.709	10.87
624.041	10.53
624.374	10.55
624.707	10.6
625.04	11.2
625.373	10.97
625.705	11.11
626.038	10.54
626.37	10.74
626.703	10.84
627.035	11.07
627.368	10.94
627.7	11.12
628.032	11.1
628.365	10.88
628.697	11.09
629.029	11.07
629.361	11.25
629.693	11.32
630.025	11.26
630.357	11.52
630.689	11.14
631.021	10.94
631.353	11.6
631.684	11.04
632.016	11.23
632.348	11.52
632.679	11.25
633.011	11.47
633.342	11.66
633.674	11.47
634.005	11.47
634.336	11.71
634.668	11.54
634.999	11.24
635.33	11.57
635.661	11.46
635.992	12.03
636.323	11.85
636.654	11.85
636.985	11.92
637.316	11.68
637.647	12.12
637.977	12.07
638.308	12.09
638.639	11.75
638.969	12.33
639.3	11.68
639.63	11.65
639.961	12.42
640.291	11.85
640.622	12.07
640.952	11.75
641.282	12.39
641.612	11.69
641.943	12.06
642.273	12.21
642.603	12.59
642.933	12.08
643.263	11.78
643.592	12.33
643.922	12.15
644.252	12.53
644.582	12.56
644.911	12.19
645.241	12.36
645.571	12.7
645.9	12.26
646.23	13.02
646.559	12.03
646.888	12.75
647.218	12.67
647.547	12.26
647.876	12.05
648.205	12.44
648.534	12.75
648.863	12.99
649.192	12.99
649.521	12.43
649.85	12.51
650.179	12.32
650.508	12.56
650.837	13.24
651.165	12.88
651.494	13.16
651.822	13.04
652.151	13.01
652.479	12.58
652.808	13.05
653.136	13.31
653.465	12.81
653.793	13.24
654.121	12.85
654.449	13.39
654.777	12.95
655.105	13.35
655.433	13.24
655.761	13.23
656.089	13.87
656.417	13.63
656.745	13.53
657.073	12.9
657.4	13.92
657.728	13.13
658.056	13.62
658.383	13.68
658.711	13.72
659.038	13.36
659.365	13.39
659.693	13.81
660.02	14.1
660.347	13.82
660.674	13.76
661.001	13.94
661.329	13.56
661.656	13.9
661.982	13.93
662.309	14.17
662.636	14.01
662.963	14.51
663.29	14.3
663.616	13.69
663.943	13.77
664.27	13.87
664.596	13.65
664.923	14.32
665.249	14.63
665.576	14.31
665.902	14.02
666.228	14.53
666.554	14.37
666.881	14.43
667.207	14.99
667.533	14.01
667.859	14.17
668.185	15.09
668.511	14.15
668.837	14.99
669.162	14.44
669.488	13.7
669.814	14.63
670.139	14.23
670.465	15.07
670.791	14.28
671.116	14.38
671.442	15.17
671.767	14.54
672.092	14.41
672.418	15.36
672.743	15.13
673.068	14.35
673.393	14.54
673.718	14.69
674.043	15.57
674.368	14.63
674.693	15.25
675.018	14.99
675.343	15.5
675.667	15.72
675.992	15.24
676.317	15.07
676.641	15.71
676.966	15.4
677.29	15.53
677.615	15.34
677.939	15.67
678.264	14.8
678.588	14.74
678.912	15.71
679.236	15.26
679.56	15.04
679.885	15.37
680.209	15.76
680.532	15.9
680.856	15.71
681.18	15.04
681.504	15.86
681.828	15.87
682.152	15.89
682.475	15.61
682.799	15.73
683.122	15.54
683.446	15.67
683.769	15.82
684.093	16.21
684.416	16.65
684.739	16.49
685.062	15.51
685.386	16.32
685.709	15.95
686.032	16.03
686.355	16.2
686.678	15.63
687.001	16.29
687.324	15.71
687.646	15.8
687.969	16.1
688.292	16.02
688.614	16.05
688.937	16.04
689.26	16.27
689.582	15.77
689.904	16.97
690.227	16.47
690.549	16.18
690.871	16.94
691.194	16.1
691.516	16.38
691.838	16.99
692.16	16.11
692.482	17.3
692.804	16.32
693.126	17.4
693.448	16.58
693.769	17.48
694.091	15.79
694.413	16.36
694.735	16.44
695.056	16.56
695.378	16.99
695.699	16.72
696.021	17.05
696.342	17.04
696.663	16.38
696.984	17.32
697.306	16.6
697.627	17.1
697.948	16.6
698.269	16.48
698.59	16.6
698.911	17.55
699.232	17.28
699.553	17.08
699.873	17.11
700.194	17.27
700.515	17.03
700.835	17.42
701.156	17.58
701.477	16.91
701.797	17.52
702.117	17.15
702.438	17.4
702.758	17.34
703.078	17.35
703.398	18.05
703.719	17.83
704.039	18.08
704.359	18.23
704.679	18.54
704.999	17.4
705.319	17.97
705.638	17.53
705.958	18.66
706.278	18.29
706.597	18.66
706.917	17.89
707.237	17.36
707.556	18.04
707.876	18.31
708.195	17.59
708.514	17.68
708.834	17.68
709.153	17.91
709.472	18.03
709.791	18.85
710.11	17.77
710.429	18.1
710.748	18.13
711.067	18.2
711.386	18.43
711.705	18.3
712.023	17.77
712.342	19.2
712.661	17.36
712.979	18.46
713.298	19.06
713.616	19.39
713.935	18.8
714.253	19.29
714.572	18.78
714.89	18.38
715.208	18.09
715.526	18.92
715.844	18.49
716.162	18.74
716.48	19.4
716.798	19.26
717.116	19.89
717.434	18.56
717.752	19.23
718.069	19.2
718.387	18.67
718.705	18.57
719.022	19.94
719.34	18.51
719.657	18.86
719.975	18.96
720.292	20.1
720.609	18.43
720.927	19.9
721.244	20.7
721.561	19.55
721.878	19.72
722.195	20.1
722.512	19.97
722.829	18.85
723.146	20.09
723.463	19.36
723.779	19.17
724.096	19.45
724.413	19.53
724.729	20.31
725.046	21.05
725.362	19.68
725.679	19.26
725.995	19.87
726.311	18.93
726.628	20.75
726.944	20.72
727.26	20.89
727.576	19.78
727.892	19.32
728.208	19.28
728.524	19.22
728.84	19.04
729.156	19.22
729.472	20.61
729.787	20.06
730.103	20.23
730.419	19.74
730.734	20.35
731.05	20.18
731.365	20.99
731.681	21.26
731.996	20.48
732.311	21.59
732.626	19.92
732.942	21.28
733.257	20.72
733.572	21.35
733.887	21.02
734.202	20.19
734.517	20.3
734.832	22.44
735.146	20.95
735.461	21.62
735.776	19.82
736.091	21.76
736.405	20.67
736.72	21.93
737.034	20.98
737.349	19.37
737.663	22.13
737.977	21.09
738.292	21.8
738.606	22.51
738.92	20.35
739.234	20.27
739.548	21.67
739.862	21.01
740.176	19.78
740.49	21.26
740.804	21.2
741.117	21.3
741.431	22.31
741.745	21.51
742.058	20.62
742.372	22.37
742.685	21.01
742.999	22.95
743.312	19.92
743.626	21.07
743.939	20.37
744.252	23.68
744.565	21.38
744.878	22.44
745.191	22.44
745.505	21.38
745.817	20.95
746.13	21.36
746.443	21.83
746.756	22.52
747.069	22.31
747.381	20.66
747.694	21.37
748.007	23.46
748.319	20.96
748.632	21.46
748.944	21.11
749.256	22.73
749.569	22.17
749.881	20.82
750.193	21.84
750.505	22.83
750.817	22.35
751.129	21.94
751.441	23.02
751.753	22.93
752.065	21.84
752.377	21.33
752.689	22.08
753	22.62
753.312	20.96
753.624	20.29
753.935	24.31
754.247	21.48
754.558	23.97
754.869	22.85
755.181	23.05
755.492	23.83
755.803	21.69
756.114	22.34
756.425	23.84
756.736	22.53
757.047	23.83
757.358	23.37
757.669	23.75
757.98	21.28
758.291	24.09
758.601	23.62
758.912	22.55
759.223	23.76
759.533	21.6
759.844	22.61
760.154	22.77
760.464	21.61
760.775	22.41
761.085	20.78
761.395	22.79
761.705	23.67
762.016	24.71
762.326	23.5
762.636	21.47
762.945	22.96
763.255	23.66
763.565	22.19
763.875	23.93
764.185	23.62
764.494	24.04
764.804	22.18
765.113	24.99
765.423	24.95
765.732	24.76
766.042	24.53
766.351	23.32
766.66	21.93
766.97	24
767.279	23.95
767.588	24.69
767.897	24.97
768.206	23.46
768.515	22.76
768.824	25.49
769.133	24.01
769.441	24.34
769.75	24.89
770.059	23.2
770.367	23.62
770.676	24.01
770.984	23.08
771.293	24.26
771.601	24.91
771.91	25.73
772.218	24.96
772.526	26.78
772.834	26.03
773.142	23.93
773.45	25.97
773.758	24.04
774.066	21.96
774.374	22.92
774.682	25.55
774.99	24.57
775.298	23.89
775.605	25.03
775.913	22.97
776.22	21.68
776.528	23.04
776.835	25.93
777.143	25.41
777.45	22.33
777.757	22.79
778.065	23.51
778.372	22.52
778.679	27.47
778.986	25.43
779.293	25
779.6	26.02
779.907	27.13
780.214	25.58
780.52	26.96
780.827	26.09
781.134	26.95
781.44	25.4
781.747	27.28
782.053	23.22
782.36	24.82
782.666	20.83
782.973	26.8
783.279	24.64
783.585	24.07
783.891	22.1
784.197	21.85
784.503	28.41
784.809	23.56
785.115	27.57
785.421	23.37
785.727	25.82
786.033	26.72
786.339	25.84
786.644	26.92
786.95	28.08
787.255	26.27
787.561	28.39
787.866	23.14
788.172	29.07
788.477	27.05
788.782	24.86
789.088	27.1
789.393	27.66
789.698	24.34
790.003	26.9
790.308	28.61
790.613	23.9
790.918	21.2
791.223	25.8
791.527	26.77
791.832	25.99
792.137	24.07
792.441	27.01
792.746	26.54
793.05	24.23
793.355	29.33
793.659	25.12
793.963	25.53
794.268	24.64
794.572	27.28
794.876	25.98
795.18	24.79
795.484	30.35
795.788	25.36
796.092	25.71
796.396	21.93
796.7	23.75
797.004	27.78
797.307	25.43
797.611	23.76
797.915	31.12
798.218	24.75
798.522	30.44
798.825	26.78
799.128	27.61
799.432	28.07
799.735	31.12
800.038	25.97
800.341	24.23
800.644	24.94
800.947	29.8
801.25	26.56
801.553	26.61
801.856	24.62
802.159	23.76
802.462	21.4
802.764	29.31
803.067	27.05
803.37	28.03
803.672	29.37
803.975	22.08
804.277	24.83
804.579	24.76
804.882	26.95
805.184	26.4
805.486	28.12
805.788	30.66
806.09	32.68
806.392	29.13
806.694	27.48
806.996	22.56
807.298	30.8
807.6	26.47
807.902	24.83
808.203	30.1
808.505	31.44
808.807	27.46
809.108	23.55
809.409	26.92
809.711	28.1
810.012	30.21
810.313	28.25
810.615	27.73
810.916	28.76
811.217	23
811.518	22.2
811.819	35.48
812.12	27.75
812.421	25.9
812.722	28.76
813.023	32.55
813.323	26.12
813.624	29.55
813.925	28.44
814.225	25.08
814.526	29.84
814.826	25.18
815.126	26.25
815.427	21.24
815.727	26.03
816.027	32.19
816.327	26.06
816.627	27.41
816.927	30.14
817.227	27.84
817.527	29.41
817.827	30.49
818.127	25.03
818.427	30.9
818.727	27.74
819.026	34.98
819.326	27.06
819.625	26.01
819.925	25.49
820.224	33.31
820.524	28.27
820.823	29.29
821.122	28.35
821.421	25.79
821.72	28.69
822.019	26.75
822.318	32.14
822.617	29.17
822.916	30.3
823.215	27.67
823.514	26.68
823.813	28.45
824.111	28.81
824.41	30.12
824.709	30.35
825.007	30.47
825.306	30.12
825.604	30.04
825.902	30.4
826.201	30.01
826.499	31.4
826.797	30.25
827.095	30.05
827.393	30.71
827.691	31.19
827.989	30.21
828.287	28.29
828.585	29.22
828.882	30.47
829.18	31.07
829.478	28.9
829.775	30.05
830.073	32.41
830.37	30.36
830.668	30.1
830.965	32.3
831.263	29.58
831.56	28.66
831.857	30.82
832.154	29.61
832.451	34.1
832.748	27.35
833.045	27.33
833.342	35.12
833.639	26.81
833.936	32.14
834.232	29.15
834.529	26.61
834.826	29.29
835.122	28.28
835.419	31.23
835.715	31.87
836.012	28.5
836.308	32.6
836.604	30.17
836.901	28.82
837.197	32.13
837.493	33.04
837.789	29.1
838.085	29.44
838.381	30.35
838.677	28.28
838.972	34.47
839.268	28.66
839.564	27.58
839.86	28.38
840.155	27.06
840.451	31.43
840.746	26.15
841.042	29.9
841.337	31.53
841.632	27.05
841.928	37.47
842.223	31.34
842.518	32.1
842.813	35.99
843.108	36.04
843.403	27.15
843.698	35.15
843.993	28.17
844.287	41.86
844.582	29.87
844.877	27.7
845.171	31.29
845.466	31.41
845.761	29.22
846.055	26.8
846.349	17.54
846.644	35.84
846.938	29.56
847.232	27.53
847.526	19.43
847.82	34.87
848.114	26.97
848.408	27.22
848.702	40.68
848.996	23.79
849.29	25.79
849.584	23.31
849.877	21.81
850.171	11.96
850.465	22.71
850.758	10.26
851.052	15.13
851.345	35.28
851.638	38.63
851.932	34.69
852.225	22.6
852.518	3.89
852.811	9.61
853.104	13.62
853.397	28.99
853.69	27.61
853.983	3.83
854.276	15.89
854.569	35.14
854.861	15.02
855.154	39.14
855.447	24.11
855.739	25.97
856.032	20.32
856.324	38.41
856.616	11.71
856.909	45.81
857.201	16.2
857.493	29.23
857.785	19.79
858.077	33.8
858.369	35.32
858.661	52.85
858.953	12.42
859.245	24.61
859.537	36.37
859.829	15.37
860.12	34.54
860.412	13.62
860.703	21.29
860.995	28.33
861.286	34.26
861.578	26.49
861.869	9.92
862.16	46.74
862.452	28.24
862.743	28.87
863.034	25.67
863.325	27.86
863.616	13.22
863.907	21.55
864.198	33.22
864.488	20.89
864.779	34.73
865.07	-1.03
865.36	1.32
865.651	52.6
865.941	48.25
866.232	29.48
866.522	23.99
866.813	8.88
867.103	26.24
867.393	19.15
867.683	29.25
867.973	32.96
868.263	21.63
868.553	15.77
868.843	29.28
869.133	19.49
869.423	31.35
869.713	-5.85
870.002	9.97
870.292	29.29
870.582	51.06
870.871	39.86
871.161	22.7
871.45	28.67
871.739	38.07
872.029	40.45
872.318	17.96
872.607	47.24
872.896	34.26
873.185	10.78
873.474	34.21
873.763	35.08
874.052	6.48
874.341	18.61
874.63	36.35
874.918	30.71
875.207	53.51
875.496	-5.6
875.784	18.2
876.073	27.16
876.361	40.24
876.649	23.33
876.938	33.16
877.226	3.4
877.514	14.39
877.802	19.93
878.09	24.9
878.378	34.88
878.666	24.93
878.954	24.94
879.242	21.71
879.53	27
879.817	50.97
880.105	5.93
880.392	32.16
880.68	17.5
880.967	39.32
881.255	36.53
881.542	37.58
881.83	27.7
882.117	41.12
882.404	9.19
882.691	20.18
882.978	14.63
883.265	14.31
883.552	25.56
883.839	37.65
884.126	24.28
884.413	35.25
884.699	27.12
884.986	28.67
885.273	33.16
885.559	33.16
885.846	33.16
