Data from 97277_crown_Reflection__4__90.txt Node

Date: Fri Sep 23 20:21:08 CDT 2022
User: ToomeyLab
Spectrometer: FLMS14357
Trigger mode: 0
Integration Time (sec): 1.000000E-2
Scans to average: 100
Electric dark correction enabled: true
Nonlinearity correction enabled: false
Boxcar width: 0
XAxis mode: Wavelengths
Number of Pixels in Spectrum: 2048
>>>>>Begin Spectral Data<<<<<
189.047	-699.61
189.435	-699.61
189.823	-699.61
190.211	1.87
190.599	3.19
190.987	75.35
191.375	-16.43
191.763	52.99
192.151	-12.66
192.538	272.79
192.926	-1042.6
193.314	199.94
193.702	69.65
194.089	16.52
194.477	190.48
194.864	62.91
195.252	72.47
195.639	1460.62
196.027	34.1
196.414	-166.43
196.801	31.71
197.189	20.09
197.576	-227.43
197.963	-45.59
198.351	27.57
198.738	-35.38
199.125	33.32
199.512	35.68
199.899	-2.09
200.286	5.2
200.673	6.6
201.06	17.78
201.447	37.77
201.833	-3.25
202.22	-28.32
202.607	42.78
202.994	-15.95
203.38	-12.81
203.767	31.6
204.154	37.86
204.54	3.43
204.927	26.81
205.313	22.36
205.699	-22.58
206.086	-12.15
206.472	7.88
206.858	13.68
207.245	-13.96
207.631	33.62
208.017	-10.08
208.403	13.49
208.789	35.21
209.175	5.21
209.561	-4.35
209.947	-32.39
210.333	7.98
210.719	23.04
211.105	-3.64
211.491	6.74
211.876	1.94
212.262	-0.63
212.648	-13.21
213.034	-21.01
213.419	-11.74
213.805	29.07
214.19	-38.04
214.576	-0.17
214.961	27.14
215.346	-24.28
215.732	34.17
216.117	-29.05
216.502	13.26
216.888	3.67
217.273	-12.09
217.658	-2.19
218.043	3.47
218.428	-5.01
218.813	23.12
219.198	5.86
219.583	21.41
219.968	22
220.353	-4.88
220.738	15.19
221.122	-3.24
221.507	2.22
221.892	7.22
222.276	-17.03
222.661	-6.33
223.046	9.71
223.43	1.79
223.815	-1.69
224.199	-3.38
224.583	1.26
224.968	8.26
225.352	4.57
225.736	0.08
226.121	5.62
226.505	-1.52
226.889	6.3
227.273	8.5
227.657	1.59
228.041	5.06
228.425	4.93
228.809	1.53
229.193	2.87
229.577	3.01
229.961	2.36
230.344	3.03
230.728	3.18
231.112	2.67
231.495	2.65
231.879	1.38
232.263	3.81
232.646	3.66
233.03	3.56
233.413	3.01
233.797	1.96
234.18	4.49
234.563	1.54
234.946	3.89
235.33	3.59
235.713	4.58
236.096	2.14
236.479	3.27
236.862	3.36
237.245	2.84
237.628	2.78
238.011	3.54
238.394	2.99
238.777	3.34
239.16	4.37
239.543	2.93
239.925	3.21
240.308	4.64
240.691	4.76
241.073	2.6
241.456	2.6
241.838	4.66
242.221	3.21
242.603	3.79
242.986	2.7
243.368	2.19
243.75	2.88
244.133	3.07
244.515	2.83
244.897	3.12
245.279	3.31
245.661	3.64
246.043	3.41
246.425	2.97
246.807	2.9
247.189	3.91
247.571	3.03
247.953	3.39
248.335	3.05
248.717	3
249.098	2.68
249.48	2.68
249.862	2.92
250.243	2.98
250.625	3.07
251.006	3.24
251.388	2.83
251.769	3.35
252.151	0.78
252.532	3.05
252.913	2.8
253.295	3.08
253.676	2.65
254.057	2.69
254.438	2.59
254.819	2.95
255.2	3.48
255.581	4.13
255.962	2.91
256.343	3.48
256.724	2.86
257.105	3.32
257.486	2.06
257.867	3.08
258.247	3.91
258.628	2.28
259.009	1.63
259.389	2.72
259.77	2.32
260.15	2.44
260.531	2.76
260.911	2.54
261.292	2.59
261.672	2.59
262.052	2.39
262.432	2.44
262.813	2.6
263.193	2.26
263.573	2.93
263.953	2.02
264.333	2.2
264.713	3.03
265.093	3.26
265.473	2.81
265.853	2.77
266.233	1.63
266.612	2.26
266.992	3.03
267.372	2.38
267.752	2.39
268.131	2.92
268.511	2.36
268.89	2.57
269.27	2.53
269.649	2.31
270.029	2.79
270.408	3
270.787	2.34
271.167	2.69
271.546	2.38
271.925	2.1
272.304	1.94
272.683	2.37
273.062	2.18
273.441	2.28
273.82	2.57
274.199	2.47
274.578	2.18
274.957	2.58
275.336	1.98
275.715	2.21
276.093	2.88
276.472	2.84
276.851	2.53
277.229	2.35
277.608	2.55
277.986	1.99
278.365	2.32
278.743	2.8
279.122	2.26
279.5	1.85
279.878	1.44
280.257	1.98
280.635	2.28
281.013	2.44
281.391	2.12
281.769	2.59
282.147	1.89
282.525	2.16
282.903	2.71
283.281	2.36
283.659	2.41
284.037	2.33
284.415	2.55
284.792	2.08
285.17	2.7
285.548	2.11
285.925	2.33
286.303	2.82
286.68	2.12
287.058	2.43
287.435	2.16
287.813	2.67
288.19	2.3
288.567	2.49
288.945	2.44
289.322	2.41
289.699	2.16
290.076	2.23
290.453	2.23
290.83	2.3
291.207	2.15
291.584	2.48
291.961	2.23
292.338	2.4
292.715	2.37
293.092	1.94
293.469	2.55
293.845	2.19
294.222	2.26
294.599	1.94
294.975	2.69
295.352	2.31
295.728	2.29
296.105	2.04
296.481	2.23
296.858	2.23
297.234	1.91
297.61	1.9
297.986	2.46
298.363	2.14
298.739	2.29
299.115	2.03
299.491	2.02
299.867	2.13
300.243	2.02
300.619	2.44
300.995	2.38
301.371	1.88
301.746	2.59
302.122	2.06
302.498	2.44
302.874	2.08
303.249	2.65
303.625	2.34
304	1.87
304.376	2.06
304.751	1.83
305.127	2.4
305.502	2.07
305.878	2.16
306.253	1.94
306.628	1.87
307.003	1.43
307.378	2
307.754	2.46
308.129	1.88
308.504	2.07
308.879	2.59
309.254	2.46
309.629	2.39
310.003	1.83
310.378	2.27
310.753	2.13
311.128	1.89
311.502	1.85
311.877	2.11
312.252	1.98
312.626	2.02
313.001	1.9
313.375	1.96
313.75	1.88
314.124	2.08
314.498	2.47
314.873	2.46
315.247	2.33
315.621	2.11
315.995	2.44
316.369	2.18
316.743	1.46
317.117	1.54
317.491	1.88
317.865	1.85
318.239	2.87
318.613	1.64
318.987	1.92
319.361	2.15
319.734	2.06
320.108	2.15
320.482	2.18
320.855	2.21
321.229	2.12
321.602	2.02
321.976	2.59
322.349	2.25
322.723	2.1
323.096	2.31
323.469	1.83
323.843	1.72
324.216	2.25
324.589	2.68
324.962	2.11
325.335	2.15
325.708	2.13
326.081	1.8
326.454	1.98
326.827	2.21
327.2	1.67
327.573	2.51
327.945	2.54
328.318	1.48
328.691	2.05
329.063	2.15
329.436	2.27
329.809	2.93
330.181	2.06
330.553	1.73
330.926	2.11
331.298	2.31
331.671	2.65
332.043	2.3
332.415	2.28
332.787	1.3
333.159	2.14
333.532	2.18
333.904	1.48
334.276	2.1
334.648	1.7
335.02	2.07
335.391	1.78
335.763	1.62
336.135	1.99
336.507	2.44
336.879	1.72
337.25	2.15
337.622	2.42
337.993	1.63
338.365	2.1
338.736	2.43
339.108	2.38
339.479	1.64
339.851	2.44
340.222	2.53
340.593	2.09
340.964	1.9
341.336	1.92
341.707	2.69
342.078	1.93
342.449	1.83
342.82	2.1
343.191	1.91
343.562	2
343.933	2.6
344.303	2.01
344.674	2.31
345.045	2.47
345.416	2.24
345.786	2.6
346.157	1.91
346.527	1.97
346.898	2.11
347.268	2.06
347.639	1.92
348.009	2.46
348.38	1.99
348.75	2.28
349.12	1.86
349.49	2.25
349.861	2.27
350.231	2
350.601	1.85
350.971	2.45
351.341	2.15
351.711	2.34
352.081	1.63
352.45	1.75
352.82	2.14
353.19	2.37
353.56	2.13
353.929	1.58
354.299	2.05
354.669	1.95
355.038	2.4
355.408	1.67
355.777	1.78
356.147	1.63
356.516	2.3
356.885	2.02
357.254	2.15
357.624	1.93
357.993	2.29
358.362	2.18
358.731	2.05
359.1	2.35
359.469	2.09
359.838	2.09
360.207	2.18
360.576	2.13
360.945	2.19
361.314	2.38
361.682	2.02
362.051	2.31
362.42	2.46
362.788	1.98
363.157	2.37
363.525	2.28
363.894	2.21
364.262	2.02
364.631	2.13
364.999	2.35
365.367	2.46
365.735	2.45
366.104	2.35
366.472	2.22
366.84	2.15
367.208	2.34
367.576	2.51
367.944	2.46
368.312	2.64
368.68	2.31
369.048	2.34
369.416	2.16
369.783	2.23
370.151	2.27
370.519	2.23
370.886	2.11
371.254	2.16
371.621	2.39
371.989	2.49
372.356	2.85
372.724	2
373.091	2.31
373.458	2.21
373.826	2.14
374.193	2.66
374.56	1.96
374.927	2.32
375.294	2.45
375.661	2.34
376.028	2.31
376.395	2.34
376.762	2.06
377.129	1.95
377.496	2.4
377.863	2.67
378.229	2.28
378.596	2.26
378.963	2.54
379.329	2.39
379.696	2.23
380.062	2.29
380.429	2.24
380.795	2.15
381.161	2.39
381.528	2.37
381.894	2.3
382.26	2.15
382.626	2.45
382.993	2.37
383.359	2.32
383.725	2.35
384.091	2.24
384.457	2.41
384.823	2.39
385.188	2.82
385.554	2.42
385.92	2.61
386.286	2.57
386.651	2.5
387.017	2.47
387.383	2.63
387.748	2.57
388.114	2.31
388.479	2.41
388.845	2.12
389.21	2.22
389.575	2.41
389.94	2.34
390.306	2.34
390.671	2.39
391.036	2.23
391.401	2.65
391.766	2.6
392.131	2.66
392.496	2.6
392.861	2.61
393.226	2.18
393.591	2.49
393.956	2.59
394.32	2.4
394.685	2.39
395.05	2.46
395.414	2.46
395.779	2.39
396.143	2.46
396.508	2.52
396.872	2.48
397.236	2.5
397.601	2.38
397.965	2.55
398.329	2.64
398.694	2.39
399.058	2.53
399.422	2.7
399.786	2.7
400.15	2.44
400.514	2.59
400.878	2.57
401.242	2.39
401.605	2.84
401.969	2.48
402.333	2.42
402.697	2.42
403.06	2.54
403.424	2.24
403.787	2.41
404.151	2.58
404.514	2.46
404.878	2.44
405.241	2.57
405.604	2.52
405.968	2.37
406.331	2.3
406.694	2.61
407.057	2.58
407.42	2.51
407.783	2.58
408.146	2.46
408.509	2.45
408.872	2.62
409.235	2.65
409.598	2.62
409.961	2.63
410.323	2.41
410.686	2.74
411.049	2.44
411.411	2.42
411.774	2.43
412.136	2.57
412.499	2.72
412.861	2.56
413.223	2.56
413.586	2.48
413.948	2.74
414.31	2.42
414.672	2.72
415.035	2.57
415.397	2.71
415.759	2.95
416.121	2.75
416.483	2.63
416.845	2.33
417.206	2.62
417.568	2.89
417.93	2.46
418.292	2.46
418.653	2.49
419.015	2.6
419.377	2.38
419.738	2.58
420.1	2.56
420.461	2.56
420.822	2.6
421.184	2.53
421.545	2.53
421.906	2.49
422.267	2.56
422.629	2.51
422.99	2.57
423.351	2.51
423.712	2.48
424.073	2.51
424.434	2.51
424.795	2.58
425.155	2.52
425.516	2.6
425.877	2.54
426.238	2.5
426.598	2.47
426.959	2.61
427.32	2.69
427.68	2.56
428.041	2.58
428.401	2.55
428.761	2.54
429.122	2.59
429.482	2.49
429.842	2.79
430.202	2.74
430.563	2.55
430.923	2.68
431.283	2.83
431.643	2.6
432.003	2.51
432.363	2.9
432.722	2.66
433.082	2.64
433.442	2.57
433.802	2.69
434.161	2.65
434.521	2.56
434.881	2.54
435.24	2.49
435.6	2.57
435.959	2.62
436.319	2.56
436.678	2.53
437.037	2.79
437.396	2.83
437.756	2.56
438.115	2.64
438.474	2.58
438.833	2.86
439.192	2.76
439.551	2.58
439.91	2.65
440.269	2.64
440.628	2.6
440.987	2.59
441.345	2.43
441.704	2.61
442.063	2.72
442.421	2.61
442.78	2.6
443.138	2.48
443.497	2.74
443.855	2.59
444.214	2.72
444.572	2.66
444.93	2.61
445.288	2.73
445.647	2.8
446.005	2.69
446.363	2.64
446.721	2.65
447.079	2.64
447.437	2.67
447.795	2.66
448.153	2.47
448.51	2.65
448.868	2.62
449.226	2.73
449.584	2.68
449.941	2.67
450.299	2.69
450.656	2.69
451.014	2.71
451.371	2.57
451.729	2.59
452.086	2.72
452.443	2.53
452.801	2.62
453.158	2.7
453.515	2.76
453.872	2.8
454.229	2.74
454.586	2.71
454.943	2.7
455.3	2.68
455.657	2.7
456.014	2.76
456.371	2.57
456.727	2.66
457.084	2.75
457.441	2.73
457.797	2.63
458.154	2.73
458.51	2.61
458.867	2.84
459.223	2.65
459.58	2.66
459.936	2.73
460.292	2.59
460.648	2.83
461.005	2.71
461.361	2.63
461.717	2.65
462.073	2.65
462.429	2.63
462.785	2.7
463.141	2.74
463.496	2.71
463.852	2.73
464.208	2.63
464.564	2.76
464.919	2.76
465.275	2.74
465.631	2.73
465.986	2.72
466.342	2.62
466.697	2.72
467.052	2.77
467.408	2.74
467.763	2.85
468.118	2.75
468.473	2.86
468.829	2.66
469.184	2.86
469.539	2.71
469.894	2.72
470.249	2.83
470.603	2.79
470.958	2.71
471.313	2.76
471.668	2.71
472.023	2.73
472.377	2.68
472.732	2.71
473.086	2.66
473.441	2.85
473.795	2.79
474.15	2.71
474.504	2.75
474.859	2.8
475.213	3
475.567	2.58
475.921	2.84
476.275	2.58
476.63	2.59
476.984	2.88
477.338	2.75
477.692	2.61
478.045	2.72
478.399	2.82
478.753	2.79
479.107	2.75
479.461	2.75
479.814	2.66
480.168	2.71
480.521	2.75
480.875	2.64
481.228	2.83
481.582	2.83
481.935	2.68
482.289	2.79
482.642	2.66
482.995	2.84
483.348	2.58
483.701	2.73
484.055	2.69
484.408	2.69
484.761	2.64
485.114	2.52
485.466	2.5
485.819	2.5
486.172	2.54
486.525	2.6
486.878	2.61
487.23	2.64
487.583	2.63
487.936	2.72
488.288	2.62
488.641	2.58
488.993	2.62
489.345	2.6
489.698	2.59
490.05	2.62
490.402	2.63
490.754	2.67
491.107	2.68
491.459	2.64
491.811	2.71
492.163	2.84
492.515	2.73
492.866	2.67
493.218	2.54
493.57	2.6
493.922	2.64
494.274	2.64
494.625	2.69
494.977	2.71
495.328	2.79
495.68	2.73
496.031	2.73
496.383	2.84
496.734	2.76
497.086	2.82
497.437	2.8
497.788	2.84
498.139	2.71
498.49	2.69
498.842	2.68
499.193	2.74
499.544	2.66
499.894	2.78
500.245	2.77
500.596	2.77
500.947	2.67
501.298	2.81
501.648	2.88
501.999	2.71
502.35	2.79
502.7	2.65
503.051	2.74
503.401	2.79
503.752	2.75
504.102	2.8
504.452	2.7
504.803	2.78
505.153	2.87
505.503	2.61
505.853	2.86
506.203	2.79
506.553	2.76
506.903	2.81
507.253	2.7
507.603	2.8
507.953	2.72
508.303	2.85
508.652	2.65
509.002	2.85
509.352	2.81
509.701	2.7
510.051	2.75
510.4	2.71
510.75	2.73
511.099	2.7
511.449	2.71
511.798	2.78
512.147	2.79
512.496	2.72
512.846	2.69
513.195	2.65
513.544	2.86
513.893	2.85
514.242	2.76
514.591	2.68
514.939	2.83
515.288	2.76
515.637	2.88
515.986	2.74
516.334	2.68
516.683	2.83
517.032	2.78
517.38	2.83
517.729	2.76
518.077	2.64
518.426	2.89
518.774	2.79
519.122	2.66
519.47	2.64
519.819	2.76
520.167	2.7
520.515	2.63
520.863	2.75
521.211	2.69
521.559	2.75
521.907	2.69
522.255	2.83
522.602	2.73
522.95	2.73
523.298	2.7
523.645	2.7
523.993	2.74
524.341	2.94
524.688	2.72
525.036	2.73
525.383	2.72
525.73	2.92
526.078	2.77
526.425	2.81
526.772	2.77
527.119	2.72
527.466	2.62
527.814	2.64
528.161	2.73
528.508	2.72
528.854	2.72
529.201	2.71
529.548	2.7
529.895	2.61
530.242	2.56
530.588	2.54
530.935	2.57
531.282	2.63
531.628	2.65
531.975	2.64
532.321	2.69
532.667	2.74
533.014	2.65
533.36	2.84
533.706	2.64
534.052	2.72
534.399	2.69
534.745	2.65
535.091	2.64
535.437	2.64
535.783	2.7
536.129	2.66
536.474	2.71
536.82	2.77
537.166	2.73
537.512	2.76
537.857	2.68
538.203	2.58
538.549	2.67
538.894	2.78
539.239	2.71
539.585	2.79
539.93	2.77
540.276	2.81
540.621	2.83
540.966	2.72
541.311	2.84
541.656	2.63
542.001	2.73
542.346	2.72
542.691	2.65
543.036	2.59
543.381	2.65
543.726	2.65
544.071	2.65
544.415	2.74
544.76	2.65
545.105	2.72
545.449	2.72
545.794	2.85
546.138	2.82
546.483	2.76
546.827	2.84
547.171	2.78
547.516	2.81
547.86	2.75
548.204	2.78
548.548	2.7
548.892	2.7
549.236	2.78
549.58	2.83
549.924	2.94
550.268	2.84
550.612	2.75
550.956	2.8
551.3	2.9
551.643	2.71
551.987	2.83
552.33	2.76
552.674	2.91
553.017	2.89
553.361	2.76
553.704	2.76
554.048	2.88
554.391	2.63
554.734	2.83
555.077	2.8
555.42	2.57
555.764	2.89
556.107	2.89
556.45	2.74
556.793	2.92
557.135	3.01
557.478	2.84
557.821	2.9
558.164	2.8
558.507	2.83
558.849	2.94
559.192	2.8
559.534	2.91
559.877	3.02
560.219	2.82
560.562	2.99
560.904	2.79
561.246	2.87
561.589	2.89
561.931	3.09
562.273	3.05
562.615	2.9
562.957	2.79
563.299	2.83
563.641	2.97
563.983	2.81
564.325	2.79
564.667	2.92
565.008	2.85
565.35	3.01
565.692	2.73
566.033	2.86
566.375	2.99
566.716	3.01
567.058	2.81
567.399	2.75
567.741	2.87
568.082	2.77
568.423	2.65
568.764	2.72
569.105	2.87
569.447	2.79
569.788	2.9
570.129	2.77
570.47	2.86
570.811	2.82
571.151	2.97
571.492	2.79
571.833	2.8
572.174	2.7
572.514	2.83
572.855	2.73
573.195	2.75
573.536	2.93
573.876	2.54
574.217	2.67
574.557	2.94
574.898	2.68
575.238	2.82
575.578	2.71
575.918	2.76
576.258	2.84
576.598	2.8
576.938	2.93
577.278	2.82
577.618	2.73
577.958	2.8
578.298	2.64
578.638	2.67
578.977	2.76
579.317	3.03
579.657	3.02
579.996	2.73
580.336	2.95
580.675	3.01
581.014	3.04
581.354	3.07
581.693	2.86
582.032	2.85
582.372	3.07
582.711	2.99
583.05	2.98
583.389	2.93
583.728	2.82
584.067	2.94
584.406	2.88
584.745	2.83
585.083	2.83
585.422	2.96
585.761	2.77
586.1	2.77
586.438	2.77
586.777	2.8
587.115	2.76
587.454	2.97
587.792	3.03
588.13	2.96
588.469	2.83
588.807	2.78
589.145	3.04
589.483	2.86
589.821	2.76
590.159	2.88
590.497	2.85
590.835	2.72
591.173	2.78
591.511	2.74
591.849	2.78
592.187	2.78
592.524	3.07
592.862	3.15
593.2	3.02
593.537	2.98
593.875	2.91
594.212	3.16
594.55	2.83
594.887	2.71
595.224	2.85
595.561	2.84
595.899	2.62
596.236	2.68
596.573	2.76
596.91	2.74
597.247	2.9
597.584	2.8
597.921	2.96
598.258	2.7
598.594	2.7
598.931	2.84
599.268	2.74
599.604	2.77
599.941	2.82
600.277	2.79
600.614	2.88
600.95	2.8
601.287	2.83
601.623	2.68
601.959	2.91
602.296	2.84
602.632	2.79
602.968	2.84
603.304	2.83
603.64	2.82
603.976	2.79
604.312	2.64
604.648	2.83
604.984	2.71
605.319	2.8
605.655	2.74
605.991	2.62
606.326	2.73
606.662	2.8
606.998	2.99
607.333	2.84
607.668	2.78
608.004	2.65
608.339	2.78
608.674	2.94
609.01	3.01
609.345	2.86
609.68	2.82
610.015	2.93
610.35	2.83
610.685	2.61
611.02	2.87
611.355	2.71
611.689	2.89
612.024	2.79
612.359	2.84
612.694	3.06
613.028	3.15
613.363	3.08
613.697	2.72
614.032	2.79
614.366	2.88
614.7	2.92
615.035	3.21
615.369	3
615.703	2.71
616.037	2.81
616.371	2.91
616.705	2.77
617.039	2.74
617.373	3.05
617.707	3.21
618.041	3.23
618.375	3.05
618.709	2.59
619.042	2.87
619.376	3
619.71	2.95
620.043	2.69
620.377	2.79
620.71	2.86
621.043	3.18
621.377	2.39
621.71	3.18
622.043	2.91
622.376	2.86
622.709	2.96
623.043	2.81
623.376	3.04
623.709	2.89
624.041	2.99
624.374	2.68
624.707	2.89
625.04	3.31
625.373	3.2
625.705	3.1
626.038	3.17
626.37	2.79
626.703	2.97
627.035	2.94
627.368	2.84
627.7	2.78
628.032	2.72
628.365	2.75
628.697	3.02
629.029	3.03
629.361	3.14
629.693	2.9
630.025	2.96
630.357	3.01
630.689	2.89
631.021	2.79
631.353	3.2
631.684	2.93
632.016	3.09
632.348	2.92
632.679	2.71
633.011	3.04
633.342	2.84
633.674	2.97
634.005	2.77
634.336	3.08
634.668	2.99
634.999	2.72
635.33	2.95
635.661	3.18
635.992	2.92
636.323	3.29
636.654	3.13
636.985	3.22
637.316	3.02
637.647	3.24
637.977	2.97
638.308	2.85
638.639	2.52
638.969	3
639.3	3.08
639.63	2.78
639.961	3.02
640.291	2.47
640.622	2.97
640.952	2.77
641.282	2.89
641.612	2.68
641.943	2.81
642.273	3.15
642.603	3.25
642.933	3.23
643.263	2.82
643.592	3.21
643.922	2.96
644.252	3.21
644.582	2.98
644.911	2.85
645.241	3.03
645.571	3.17
645.9	2.75
646.23	3.45
646.559	2.93
646.888	3.24
647.218	3.18
647.547	2.48
647.876	2.51
648.205	2.76
648.534	3.31
648.863	2.98
649.192	3.15
649.521	2.75
649.85	2.76
650.179	2.5
650.508	3.2
650.837	3.37
651.165	3.04
651.494	3.12
651.822	2.98
652.151	2.79
652.479	2.79
652.808	3.04
653.136	3.16
653.465	2.52
653.793	3.14
654.121	2.39
654.449	2.63
654.777	2.92
655.105	3.02
655.433	3
655.761	3.14
656.089	3.49
656.417	3.07
656.745	2.84
657.073	2.44
657.4	3.33
657.728	3.07
658.056	3.25
658.383	3.02
658.711	2.75
659.038	2.41
659.365	2.95
659.693	3.23
660.02	2.74
660.347	2.35
660.674	2.8
661.001	3.05
661.329	2.91
661.656	3.23
661.982	2.8
662.309	3.31
662.636	2.91
662.963	3.25
663.29	2.99
663.616	3.28
663.943	3.17
664.27	3.19
664.596	3.23
664.923	3.15
665.249	3.33
665.576	3.19
665.902	2.96
666.228	3.2
666.554	2.67
666.881	3.16
667.207	3.37
667.533	2.8
667.859	3.31
668.185	2.83
668.511	2.84
668.837	3.02
669.162	3.37
669.488	2.99
669.814	3.9
670.139	2.84
670.465	2.88
670.791	2.75
671.116	3.1
671.442	3.13
671.767	2.78
672.092	2.98
672.418	3.66
672.743	3.25
673.068	2.99
673.393	2.9
673.718	3.47
674.043	3.3
674.368	3.57
674.693	3.15
675.018	3.38
675.343	3.37
675.667	3.09
675.992	2.85
676.317	3.15
676.641	2.73
676.966	3.17
677.29	3.09
677.615	3.34
677.939	3.16
678.264	3.43
678.588	2.72
678.912	2.74
679.236	3.17
679.56	2.93
679.885	3.37
680.209	3.06
680.532	2.74
680.856	3.16
681.18	3.49
681.504	4.07
681.828	3.36
682.152	3.32
682.475	2.92
682.799	3.45
683.122	3.12
683.446	3.8
683.769	2.75
684.093	3.02
684.416	3.01
684.739	3.65
685.062	2.65
685.386	3.03
685.709	3.15
686.032	2.83
686.355	2.74
686.678	3.44
687.001	3.05
687.324	3.36
687.646	3.17
687.969	3.48
688.292	2.52
688.614	3.5
688.937	3.38
689.26	3.46
689.582	2.51
689.904	3.81
690.227	3.58
690.549	3.34
690.871	3.35
691.194	2.91
691.516	2.82
691.838	3.35
692.16	3.08
692.482	3.53
692.804	3.04
693.126	4.68
693.448	3.49
693.769	3.7
694.091	3.4
694.413	2.73
694.735	2.85
695.056	3.34
695.378	3.13
695.699	3.12
696.021	3.44
696.342	3.83
696.663	3.31
696.984	4.04
697.306	3.37
697.627	2.79
697.948	2.46
698.269	3.15
698.59	2.85
698.911	3.32
699.232	3.3
699.553	2.76
699.873	2.57
700.194	3.63
700.515	2.56
700.835	3.11
701.156	3.02
701.477	3.6
701.797	2.97
702.117	3.25
702.438	3.11
702.758	2.81
703.078	3.7
703.398	4
703.719	3.45
704.039	3.58
704.359	4.5
704.679	3.5
704.999	2.81
705.319	3.41
705.638	3
705.958	3.15
706.278	4.35
706.597	4.3
706.917	3.06
707.237	3.94
707.556	3.54
707.876	3.78
708.195	3.98
708.514	3.29
708.834	2.47
709.153	2.89
709.472	2.96
709.791	3.78
710.11	3.34
710.429	3.67
710.748	3.43
711.067	3.28
711.386	3.54
711.705	3.22
712.023	3.16
712.342	3.71
712.661	2.46
712.979	3.53
713.298	3.05
713.616	3.32
713.935	3.62
714.253	4.04
714.572	3.13
714.89	2.77
715.208	2.53
715.526	3.09
715.844	3.26
716.162	3.43
716.48	2.98
716.798	3.14
717.116	3.62
717.434	2.84
717.752	3.61
718.069	3.33
718.387	3.25
718.705	2.91
719.022	3.6
719.34	2.34
719.657	4.39
719.975	3.2
720.292	3.74
720.609	2.42
720.927	3.84
721.244	4.91
721.561	3.62
721.878	2.98
722.195	3.71
722.512	3.85
722.829	3.76
723.146	3.36
723.463	2.73
723.779	2.89
724.096	4.13
724.413	3.89
724.729	2.64
725.046	3.9
725.362	3.75
725.679	3.59
725.995	3.3
726.311	3.41
726.628	3.07
726.944	3.55
727.26	4.2
727.576	3.98
727.892	2.78
728.208	2.15
728.524	2.76
728.84	2.85
729.156	3.23
729.472	5
729.787	3.94
730.103	4.59
730.419	3.51
730.734	4.1
731.05	3.66
731.365	4.9
731.681	5.46
731.996	3.61
732.311	4.32
732.626	2.08
732.942	3.56
733.257	4.14
733.572	4.09
733.887	4.45
734.202	3.5
734.517	4.66
734.832	3.58
735.146	3.46
735.461	3.73
735.776	4.05
736.091	4.47
736.405	3.68
736.72	3.99
737.034	3.68
737.349	2.33
737.663	4.04
737.977	3.69
738.292	4.17
738.606	4.09
738.92	3.29
739.234	4.71
739.548	3.93
739.862	3.34
740.176	2.13
740.49	4.85
740.804	5.02
741.117	3.62
741.431	4.82
741.745	4.91
742.058	3.66
742.372	3.96
742.685	3.8
742.999	4.2
743.312	2.25
743.626	2.9
743.939	3.91
744.252	4.77
744.565	2.65
744.878	5.1
745.191	2.33
745.505	5.86
745.817	3.65
746.13	4.49
746.443	3.96
746.756	5.79
747.069	4.59
747.381	3.52
747.694	3.11
748.007	3.11
748.319	4.31
748.632	3.5
748.944	3.46
749.256	3.89
749.569	4.92
749.881	3.5
750.193	3.24
750.505	5.69
750.817	3.77
751.129	3.09
751.441	4.25
751.753	5.03
752.065	4.34
752.377	3.72
752.689	3.89
753	4.85
753.312	2.41
753.624	3.54
753.935	4.63
754.247	3.31
754.558	4.55
754.869	3.21
755.181	3.62
755.492	3.82
755.803	3.76
756.114	3.42
756.425	3.71
756.736	5.09
757.047	3.59
757.358	5.5
757.669	3.44
757.98	3.34
758.291	6.05
758.601	5.92
758.912	2.84
759.223	4.49
759.533	2.96
759.844	3.28
760.154	5.21
760.464	2.48
760.775	4.19
761.085	3.43
761.395	4.39
761.705	5.21
762.016	2.79
762.326	6.48
762.636	2.39
762.945	4.3
763.255	3.25
763.565	4.61
763.875	4.4
764.185	5.45
764.494	2.68
764.804	4.26
765.113	3.63
765.423	5.01
765.732	4.75
766.042	4.3
766.351	3.69
766.66	1.85
766.97	3.51
767.279	3.2
767.588	3.28
767.897	4.02
768.206	4.62
768.515	3.62
768.824	4.08
769.133	3.87
769.441	3.91
769.75	4.95
770.059	4.17
770.367	4.98
770.676	4.77
770.984	4.03
771.293	2.51
771.601	5.06
771.91	5.41
772.218	5.16
772.526	3.28
772.834	3.94
773.142	6.32
773.45	5.93
773.758	5.07
774.066	2.74
774.374	2.52
774.682	7.09
774.99	3.05
775.298	4.37
775.605	5.52
775.913	2.86
776.22	3.13
776.528	3.5
776.835	3.88
777.143	5.08
777.45	2.03
777.757	4.44
778.065	5.05
778.372	3.69
778.679	6.29
778.986	6.11
779.293	2.89
779.6	7.44
779.907	5.57
780.214	6.19
780.52	3.47
780.827	4.1
781.134	3.09
781.44	4.28
781.747	6.56
782.053	4.6
782.36	1.62
782.666	4.23
782.973	8.77
783.279	2.47
783.585	6.17
783.891	4.09
784.197	4.09
784.503	5.54
784.809	2.64
785.115	5.17
785.421	6.65
785.727	3.79
786.033	5.81
786.339	4.69
786.644	5.28
786.95	8.23
787.255	2.3
787.561	5.2
787.866	5.14
788.172	12.26
788.477	3.88
788.782	4.53
789.088	5.3
789.393	4.51
789.698	3.6
790.003	9.38
790.308	3.45
790.613	-0.36
790.918	1.12
791.223	1.91
791.527	4.89
791.832	3.91
792.137	4.37
792.441	8.05
792.746	4.05
793.05	-0.87
793.355	6.67
793.659	3.57
793.963	2.26
794.268	4.22
794.572	4.76
794.876	9.06
795.18	5.11
795.484	7.2
795.788	3.89
796.092	6.88
796.396	1.73
796.7	0.61
797.004	2.41
797.307	1.13
797.611	6.44
797.915	9.46
798.218	2.66
798.522	5.12
798.825	3.2
799.128	3.33
799.432	4.82
799.735	8.64
800.038	3.82
800.341	2.48
800.644	0.45
800.947	6.53
801.25	4.03
801.553	3.89
801.856	5.14
802.159	3.74
802.462	5.19
802.764	8.43
803.067	5.05
803.37	4.8
803.672	4.36
803.975	2.79
804.277	0.58
804.579	6.1
804.882	4.49
805.184	4.56
805.486	4.83
805.788	7
806.09	8.54
806.392	4.66
806.694	5.63
806.996	1.89
807.298	7.73
807.6	8.25
807.902	5.2
808.203	7.52
808.505	8.8
808.807	5.42
809.108	5.11
809.409	8.58
809.711	8.88
810.012	3.94
810.313	5.62
810.615	1.94
810.916	5.83
811.217	10.04
811.518	-1.19
811.819	6.79
812.12	6.97
812.421	4.51
812.722	4
813.023	8.07
813.323	5.08
813.624	9.59
813.925	7.42
814.225	-2.01
814.526	6.64
814.826	5.87
815.126	5.68
815.427	2.5
815.727	4.87
816.027	4.53
816.327	6.16
816.627	9.98
816.927	10.5
817.227	8.65
817.527	5.68
817.827	9.9
818.127	6.4
818.427	9.09
818.727	5.1
819.026	8.12
819.326	7.98
819.625	4.4
819.925	7.83
820.224	6.73
820.524	1.44
820.823	5.26
821.122	6.2
821.421	1.42
821.72	5.29
822.019	6.31
822.318	6.63
822.617	2.91
822.916	7.42
823.215	5
823.514	2.26
823.813	3.7
824.111	6.36
824.41	5.85
824.709	4.5
825.007	5.87
825.306	5.22
825.604	4.8
825.902	5.21
826.201	5.27
826.499	6.36
826.797	5.21
827.095	3.36
827.393	5.94
827.691	6.06
827.989	6.41
828.287	4.66
828.585	5.04
828.882	5.86
829.18	5.08
829.478	5.77
829.775	3.92
830.073	5.87
830.37	7.03
830.668	5.64
830.965	5.96
831.263	7.54
831.56	5.84
831.857	5.78
832.154	4.64
832.451	7.66
832.748	2.84
833.045	1.83
833.342	7.42
833.639	8.51
833.936	5.67
834.232	6.08
834.529	4.06
834.826	8.75
835.122	11.33
835.419	2.61
835.715	4.06
836.012	7.72
836.308	6.92
836.604	4.6
836.901	4.6
837.197	5.53
837.493	5.03
837.789	6.33
838.085	1.27
838.381	7.1
838.677	5.41
838.972	5.65
839.268	3.29
839.564	4.08
839.86	-1.89
840.155	5.59
840.451	9.39
840.746	3.16
841.042	1.55
841.337	10.4
841.632	2.89
841.928	15.56
842.223	8.74
842.518	6.11
842.813	12.88
843.108	8.82
843.403	0.12
843.698	3.67
843.993	10.7
844.287	11.79
844.582	11.68
844.877	-3
845.171	15.75
845.466	9
845.761	14.58
846.055	10.23
846.349	-1.36
846.644	2.95
846.938	1.38
847.232	17.69
847.526	-4.59
847.82	15.34
848.114	13.59
848.408	-3.25
848.702	15.65
848.996	6.75
849.29	0.95
849.584	-4.76
849.877	5.55
850.171	1.37
850.465	3.6
850.758	-5.46
851.052	14.95
851.345	4.33
851.638	16.58
851.932	13.92
852.225	0.44
852.518	-1.38
852.811	7.79
853.104	3.11
853.397	6.42
853.69	7.08
853.983	-3.96
854.276	-0.27
854.569	-0.03
854.861	14.21
855.154	16.4
855.447	21.08
855.739	6.94
856.032	13.9
856.324	17.81
856.616	1.77
856.909	25.04
857.201	2.35
857.493	-9.57
857.785	5.17
858.077	15.6
858.369	14.99
858.661	14.38
858.953	-7.77
859.245	-16.91
859.537	15.99
859.829	-17.24
860.12	2.63
860.412	-6.75
860.703	2.86
860.995	37.43
861.286	12.37
861.578	5.11
861.869	0.32
862.16	19.21
862.452	9.56
862.743	-4.39
863.034	26.46
863.325	21.99
863.616	1.84
863.907	14.93
864.198	28.95
864.488	4.36
864.779	7.36
865.07	2.27
865.36	7.86
865.651	22.75
865.941	19.06
866.232	12.69
866.522	3.75
866.813	3.62
867.103	20.04
867.393	6.88
867.683	5.42
867.973	-4
868.263	-0.36
868.553	7.1
868.843	21.55
869.133	-20.45
869.423	15.06
869.713	-16.59
870.002	-8.23
870.292	1.1
870.582	-10.98
870.871	22.4
871.161	-1.39
871.45	25.07
871.739	43.15
872.029	45.6
872.318	8.13
872.607	-1.77
872.896	6.6
873.185	11.88
873.474	18.02
873.763	16.77
874.052	-1.84
874.341	11.71
874.63	29.14
874.918	23.9
875.207	41.97
875.496	-22.66
875.784	20.2
876.073	-0.9
876.361	5.57
876.649	10.11
876.938	6.04
877.226	7.63
877.514	-5.92
877.802	-4.02
878.09	23.21
878.378	28.1
878.666	-3.43
878.954	-26.37
879.242	-20.57
879.53	-0.16
879.817	33.56
880.105	0.64
880.392	12.56
880.68	5.33
880.967	15.78
881.255	-4.1
881.542	1.74
881.83	9.18
882.117	7.2
882.404	-3.71
882.691	2.38
882.978	-5.85
883.265	-11.47
883.552	8.61
883.839	-12.58
884.126	11.51
884.413	8.47
884.699	8.82
884.986	14.5
885.273	8.29
885.559	8.29
885.846	8.29
