Data from 2019-21_crown_Reflection__3__432.txt Node

Date: Thu Dec 15 20:18:48 CST 2022
User: ToomeyLab
Spectrometer: FLMS14357
Trigger mode: 0
Integration Time (sec): 1.000000E-2
Scans to average: 100
Electric dark correction enabled: true
Nonlinearity correction enabled: false
Boxcar width: 0
XAxis mode: Wavelengths
Number of Pixels in Spectrum: 2048
>>>>>Begin Spectral Data<<<<<
189.047	-254.66
189.435	-254.66
189.823	-254.66
190.211	2.22
190.599	74.18
190.987	-4575.81
191.375	-32.91
191.763	680.29
192.151	52.7
192.538	41.37
192.926	-122.13
193.314	-105.2
193.702	-20.9
194.089	-63.74
194.477	106.25
194.864	53.1
195.252	-297.72
195.639	72.83
196.027	-62.24
196.414	252.85
196.801	37.49
197.189	89.79
197.576	129.35
197.963	141.78
198.351	6.44
198.738	-8.12
199.125	-53.73
199.512	-13.2
199.899	-21.41
200.286	-45.24
200.673	10.81
201.06	-28.73
201.447	17.27
201.833	-13.7
202.22	-26.32
202.607	-62.39
202.994	-13.4
203.38	-4.45
203.767	-26.73
204.154	5.87
204.54	44.19
204.927	10.44
205.313	17.57
205.699	-2.7
206.086	-14.26
206.472	11.85
206.858	-22.03
207.245	-8.82
207.631	-33.37
208.017	24.31
208.403	-76.27
208.789	5.88
209.175	-40.06
209.561	-200.4
209.947	-15.38
210.333	-22.64
210.719	14.58
211.105	37.94
211.491	-8.51
211.876	-41.58
212.262	21.32
212.648	12.16
213.034	-15.91
213.419	-35.05
213.805	-52.19
214.19	-77.38
214.576	-5.87
214.961	-2.83
215.346	-4.45
215.732	-14.96
216.117	-18.26
216.502	-29.86
216.888	8.19
217.273	-0.15
217.658	-54.87
218.043	-56.9
218.428	-28.29
218.813	1.61
219.198	-58.77
219.583	-24.15
219.968	-18.76
220.353	-34.11
220.738	-40.42
221.122	-20.27
221.507	-12.04
221.892	-32.37
222.276	-21.08
222.661	-19.7
223.046	-26.59
223.43	6.67
223.815	-7.5
224.199	-13.06
224.583	-1.09
224.968	-7.22
225.352	-13.47
225.736	8.84
226.121	-5.52
226.505	-8.13
226.889	-2.32
227.273	-6.59
227.657	-0.25
228.041	-2.97
228.425	-3.97
228.809	-3.8
229.193	-0.87
229.577	-0.92
229.961	0.52
230.344	1.3
230.728	2.13
231.112	0.56
231.495	0.05
231.879	-1.37
232.263	1.29
232.646	-0.81
233.03	1.25
233.413	0.34
233.797	-1.2
234.18	-1.14
234.563	-0.45
234.946	-2.33
235.33	0.29
235.713	0.1
236.096	1.47
236.479	0.26
236.862	-0.36
237.245	0.15
237.628	0.9
238.011	0.04
238.394	0.47
238.777	0.59
239.16	1.86
239.543	1.68
239.925	0.1
240.308	-1.5
240.691	0.16
241.073	0.51
241.456	2.16
241.838	1.29
242.221	0.52
242.603	1.49
242.986	0.33
243.368	1.23
243.75	1
244.133	1.26
244.515	0.66
244.897	0.82
245.279	0.22
245.661	1.26
246.043	0.6
246.425	1.69
246.807	0.92
247.189	0.97
247.571	0.72
247.953	1.09
248.335	1.19
248.717	1.34
249.098	1.07
249.48	0.73
249.862	1.39
250.243	1.23
250.625	1.16
251.006	1.46
251.388	0.85
251.769	-0.41
252.151	1.09
252.532	-0.06
252.913	1.11
253.295	0.69
253.676	1.29
254.057	1.06
254.438	0.65
254.819	1.63
255.2	2
255.581	1.22
255.962	0.99
256.343	0.05
256.724	1.15
257.105	1.17
257.486	-0.02
257.867	0.4
258.247	0.53
258.628	0.97
259.009	0.96
259.389	0.19
259.77	1.25
260.15	1.57
260.531	1.24
260.911	0.86
261.292	1.22
261.672	1.3
262.052	1.12
262.432	0.76
262.813	0.97
263.193	1.03
263.573	0.74
263.953	0.5
264.333	0.82
264.713	0.56
265.093	0.8
265.473	1.7
265.853	1.4
266.233	0.61
266.612	-0.07
266.992	0.67
267.372	1.01
267.752	1.46
268.131	0.95
268.511	0.88
268.89	1.25
269.27	0.23
269.649	0.54
270.029	0.61
270.408	0.78
270.787	0.95
271.167	1.21
271.546	1.34
271.925	0.89
272.304	1.21
272.683	0.94
273.062	0.96
273.441	0.5
273.82	0.89
274.199	0.76
274.578	0.78
274.957	1.01
275.336	1.23
275.715	0.89
276.093	0.42
276.472	0.5
276.851	0.46
277.229	0.46
277.608	0.53
277.986	0.71
278.365	1.16
278.743	1.03
279.122	1.07
279.5	1.09
279.878	0.37
280.257	0.88
280.635	0.95
281.013	0.26
281.391	0.72
281.769	1.75
282.147	0.56
282.525	0.79
282.903	0.8
283.281	1.21
283.659	1.36
284.037	0.71
284.415	0.84
284.792	0.85
285.17	0.77
285.548	0.81
285.925	1.08
286.303	1.41
286.68	0.9
287.058	1.11
287.435	0.72
287.813	0.97
288.19	0.68
288.567	0.64
288.945	0.39
289.322	1.17
289.699	1.27
290.076	0.79
290.453	0.57
290.83	1.24
291.207	0.98
291.584	1.01
291.961	1.1
292.338	0.8
292.715	0.52
293.092	0.9
293.469	0.6
293.845	0.98
294.222	1.19
294.599	0.51
294.975	0.18
295.352	0.63
295.728	0.71
296.105	1.05
296.481	1.07
296.858	0.73
297.234	0.76
297.61	1.11
297.986	1.26
298.363	1.07
298.739	1.19
299.115	1.19
299.491	1.26
299.867	0.96
300.243	0.89
300.619	0.63
300.995	1.04
301.371	0.95
301.746	1.48
302.122	0.45
302.498	0.95
302.874	1.14
303.249	1.05
303.625	0.78
304	0.94
304.376	1.49
304.751	0.78
305.127	0.6
305.502	1.51
305.878	1.19
306.253	0.47
306.628	1.08
307.003	0.93
307.378	0.67
307.754	1
308.129	0.6
308.504	0.8
308.879	1.03
309.254	1.5
309.629	1.03
310.003	0.77
310.378	1.25
310.753	0.96
311.128	0.95
311.502	1.06
311.877	1.07
312.252	1.33
312.626	1.43
313.001	1.16
313.375	1.45
313.75	1.16
314.124	1.21
314.498	1.33
314.873	0.96
315.247	1.21
315.621	1.03
315.995	0.95
316.369	0.82
316.743	0.53
317.117	0.86
317.491	1.18
317.865	0.73
318.239	1.23
318.613	0.92
318.987	0.76
319.361	1.04
319.734	0.8
320.108	1.63
320.482	1.07
320.855	0.84
321.229	1.29
321.602	0.51
321.976	0.32
322.349	1.46
322.723	0.82
323.096	0.9
323.469	0.87
323.843	1.48
324.216	0.99
324.589	1.41
324.962	0.7
325.335	1.3
325.708	1.1
326.081	1.16
326.454	1.44
326.827	1.21
327.2	0.88
327.573	1.62
327.945	1.18
328.318	1.33
328.691	0.94
329.063	0.9
329.436	0.77
329.809	1.46
330.181	1.63
330.553	1.45
330.926	1.46
331.298	1.01
331.671	1.75
332.043	0.67
332.415	1.22
332.787	1.27
333.159	1
333.532	1.18
333.904	1.37
334.276	1.45
334.648	1.17
335.02	1.19
335.391	1.37
335.763	1.39
336.135	1.19
336.507	1.26
336.879	1.12
337.25	1.66
337.622	1.52
337.993	1.18
338.365	1.14
338.736	1.3
339.108	1.32
339.479	0.91
339.851	1.53
340.222	1.71
340.593	1.28
340.964	1.53
341.336	1.28
341.707	1.35
342.078	0.86
342.449	1.26
342.82	1.02
343.191	1.04
343.562	1.67
343.933	1.07
344.303	1.57
344.674	1.36
345.045	1.33
345.416	1.56
345.786	1.43
346.157	1.42
346.527	1.4
346.898	1.24
347.268	1.27
347.639	1.17
348.009	1.57
348.38	0.93
348.75	1.7
349.12	1.46
349.49	1.46
349.861	1.36
350.231	1.07
350.601	1.16
350.971	1.3
351.341	1.46
351.711	1.47
352.081	1
352.45	1.18
352.82	0.98
353.19	1.35
353.56	1.23
353.929	1.56
354.299	1.36
354.669	1.53
355.038	1.8
355.408	1.33
355.777	1.59
356.147	1.12
356.516	1.46
356.885	1.55
357.254	1.32
357.624	1.16
357.993	1.16
358.362	1.39
358.731	1.78
359.1	1.56
359.469	1.63
359.838	1.21
360.207	1.53
360.576	1.75
360.945	1.64
361.314	1.53
361.682	1.19
362.051	1.33
362.42	1.48
362.788	1.49
363.157	1.48
363.525	1.58
363.894	1.07
364.262	1.29
364.631	1.51
364.999	1.24
365.367	1.42
365.735	0.99
366.104	1.52
366.472	1.44
366.84	1.63
367.208	1.51
367.576	1.04
367.944	1.22
368.312	1.22
368.68	1.49
369.048	1.24
369.416	1.44
369.783	1.29
370.151	1.67
370.519	1.8
370.886	1.62
371.254	1.8
371.621	1.86
371.989	1.51
372.356	1.46
372.724	1.43
373.091	1.18
373.458	1.2
373.826	1.77
374.193	1.17
374.56	1.88
374.927	1.39
375.294	1.54
375.661	1.69
376.028	1.44
376.395	1.84
376.762	1.13
377.129	1.31
377.496	1.39
377.863	1.54
378.229	1.48
378.596	1.61
378.963	1.51
379.329	1.44
379.696	1.56
380.062	1.45
380.429	1.02
380.795	1.69
381.161	1.13
381.528	1.24
381.894	1.5
382.26	1.57
382.626	1.83
382.993	1.64
383.359	1.52
383.725	1.42
384.091	1.56
384.457	1.2
384.823	1.54
385.188	1.69
385.554	1.54
385.92	1.34
386.286	1.35
386.651	1.51
387.017	1.61
387.383	1.3
387.748	1.49
388.114	1.5
388.479	1.47
388.845	1.33
389.21	1.77
389.575	1.47
389.94	1.36
390.306	1.51
390.671	1.69
391.036	1.44
391.401	1.48
391.766	1.58
392.131	1.82
392.496	1.6
392.861	1.56
393.226	1.33
393.591	1.66
393.956	1.47
394.32	1.56
394.685	1.6
395.05	1.64
395.414	1.51
395.779	1.9
396.143	1.23
396.508	1.3
396.872	1.55
397.236	1.76
397.601	1.51
397.965	1.53
398.329	1.49
398.694	1.27
399.058	1.62
399.422	1.56
399.786	1.39
400.15	1.4
400.514	1.41
400.878	1.73
401.242	1.67
401.605	1.48
401.969	1.38
402.333	1.44
402.697	1.62
403.06	1.45
403.424	1.66
403.787	1.44
404.151	1.58
404.514	1.61
404.878	1.32
405.241	1.54
405.604	1.43
405.968	1.68
406.331	1.53
406.694	1.43
407.057	1.53
407.42	1.45
407.783	1.6
408.146	1.57
408.509	1.63
408.872	1.69
409.235	1.76
409.598	1.53
409.961	1.52
410.323	1.6
410.686	1.6
411.049	1.63
411.411	1.56
411.774	1.59
412.136	1.4
412.499	1.54
412.861	1.14
413.223	1.26
413.586	1.62
413.948	1.65
414.31	1.51
414.672	1.57
415.035	1.82
415.397	1.44
415.759	1.46
416.121	1.74
416.483	1.4
416.845	1.53
417.206	1.47
417.568	1.4
417.93	1.59
418.292	1.46
418.653	1.35
419.015	1.51
419.377	1.45
419.738	1.52
420.1	1.57
420.461	1.45
420.822	1.56
421.184	1.59
421.545	1.62
421.906	1.52
422.267	1.51
422.629	1.63
422.99	1.54
423.351	1.47
423.712	1.59
424.073	1.64
424.434	1.71
424.795	1.58
425.155	1.53
425.516	1.55
425.877	1.6
426.238	1.54
426.598	1.63
426.959	1.6
427.32	1.54
427.68	1.56
428.041	1.63
428.401	1.6
428.761	1.75
429.122	1.66
429.482	1.58
429.842	1.47
430.202	1.83
430.563	1.66
430.923	1.55
431.283	1.62
431.643	1.63
432.003	1.56
432.363	1.83
432.722	1.64
433.082	1.58
433.442	1.6
433.802	1.68
434.161	1.66
434.521	1.57
434.881	1.68
435.24	1.71
435.6	1.69
435.959	1.77
436.319	1.56
436.678	1.75
437.037	1.76
437.396	1.74
437.756	1.62
438.115	1.69
438.474	1.67
438.833	1.61
439.192	1.77
439.551	1.81
439.91	1.85
440.269	1.67
440.628	1.66
440.987	1.68
441.345	1.74
441.704	1.67
442.063	1.69
442.421	1.72
442.78	1.63
443.138	1.68
443.497	1.61
443.855	1.81
444.214	1.63
444.572	1.83
444.93	1.59
445.288	1.71
445.647	1.6
446.005	1.64
446.363	1.69
446.721	1.72
447.079	1.67
447.437	1.78
447.795	1.73
448.153	1.73
448.51	1.83
448.868	1.76
449.226	1.85
449.584	1.67
449.941	1.69
450.299	1.67
450.656	1.74
451.014	1.82
451.371	1.75
451.729	1.78
452.086	1.71
452.443	1.89
452.801	1.86
453.158	1.99
453.515	1.64
453.872	1.73
454.229	1.59
454.586	1.64
454.943	1.71
455.3	1.68
455.657	1.78
456.014	1.86
456.371	1.9
456.727	1.86
457.084	1.97
457.441	1.86
457.797	1.67
458.154	1.77
458.51	1.83
458.867	1.81
459.223	1.7
459.58	1.78
459.936	1.86
460.292	1.78
460.648	1.64
461.005	1.73
461.361	1.72
461.717	1.75
462.073	1.77
462.429	1.81
462.785	1.91
463.141	1.81
463.496	1.77
463.852	2.03
464.208	1.85
464.564	1.74
464.919	1.75
465.275	1.76
465.631	1.93
465.986	1.84
466.342	1.7
466.697	1.7
467.052	1.97
467.408	2.04
467.763	1.78
468.118	1.73
468.473	1.83
468.829	1.77
469.184	1.96
469.539	1.76
469.894	2.11
470.249	1.82
470.603	1.87
470.958	1.92
471.313	1.89
471.668	1.8
472.023	1.85
472.377	1.77
472.732	1.92
473.086	1.83
473.441	1.79
473.795	1.96
474.15	1.82
474.504	1.83
474.859	1.5
475.213	1.98
475.567	1.81
475.921	1.93
476.275	1.88
476.63	1.77
476.984	1.79
477.338	1.85
477.692	1.85
478.045	1.84
478.399	1.74
478.753	1.8
479.107	1.82
479.461	1.84
479.814	1.85
480.168	1.91
480.521	2
480.875	1.98
481.228	1.92
481.582	1.84
481.935	1.92
482.289	1.8
482.642	2.01
482.995	1.82
483.348	1.79
483.701	1.83
484.055	1.89
484.408	1.87
484.761	1.85
485.114	1.72
485.466	1.75
485.819	1.76
486.172	1.82
486.525	1.78
486.878	1.82
487.23	1.85
487.583	1.82
487.936	1.8
488.288	1.83
488.641	1.77
488.993	1.81
489.345	1.77
489.698	1.8
490.05	1.76
490.402	1.83
490.754	1.82
491.107	1.8
491.459	1.92
491.811	1.86
492.163	1.75
492.515	1.82
492.866	1.81
493.218	1.77
493.57	1.82
493.922	1.79
494.274	1.95
494.625	1.96
494.977	1.83
495.328	1.86
495.68	1.9
496.031	1.84
496.383	1.89
496.734	1.79
497.086	2.06
497.437	1.85
497.788	1.97
498.139	1.87
498.49	1.9
498.842	2.02
499.193	1.89
499.544	1.98
499.894	1.94
500.245	2
500.596	1.96
500.947	1.85
501.298	1.98
501.648	1.88
501.999	1.89
502.35	1.87
502.7	1.99
503.051	1.79
503.401	1.96
503.752	1.89
504.102	1.85
504.452	1.9
504.803	1.8
505.153	1.91
505.503	1.89
505.853	1.96
506.203	1.97
506.553	1.79
506.903	1.97
507.253	1.88
507.603	2.02
507.953	1.94
508.303	1.99
508.652	1.88
509.002	1.99
509.352	1.96
509.701	1.83
510.051	1.94
510.4	1.95
510.75	1.93
511.099	1.81
511.449	1.99
511.798	1.85
512.147	1.92
512.496	1.96
512.846	1.93
513.195	1.98
513.544	2.01
513.893	1.91
514.242	1.91
514.591	1.9
514.939	1.94
515.288	2.03
515.637	1.95
515.986	1.91
516.334	2.07
516.683	1.88
517.032	1.81
517.38	1.86
517.729	1.88
518.077	1.94
518.426	1.99
518.774	1.85
519.122	1.92
519.47	1.85
519.819	1.93
520.167	1.87
520.515	1.91
520.863	1.95
521.211	1.87
521.559	1.92
521.907	1.97
522.255	1.93
522.602	1.96
522.95	2.02
523.298	1.99
523.645	1.98
523.993	2.01
524.341	1.95
524.688	1.96
525.036	1.88
525.383	1.97
525.73	1.75
526.078	1.92
526.425	1.93
526.772	1.83
527.119	1.94
527.466	1.98
527.814	1.98
528.161	1.96
528.508	2.01
528.854	1.99
529.201	1.91
529.548	1.88
529.895	1.84
530.242	1.82
530.588	1.82
530.935	1.87
531.282	1.84
531.628	1.88
531.975	1.87
532.321	1.97
532.667	1.9
533.014	2
533.36	1.93
533.706	1.93
534.052	1.95
534.399	1.91
534.745	1.82
535.091	1.87
535.437	1.9
535.783	1.9
536.129	1.9
536.474	1.91
536.82	1.93
537.166	1.83
537.512	1.9
537.857	1.93
538.203	1.91
538.549	1.87
538.894	1.92
539.239	1.97
539.585	1.95
539.93	2.02
540.276	1.88
540.621	1.99
540.966	1.91
541.311	1.93
541.656	1.84
542.001	1.89
542.346	1.85
542.691	1.83
543.036	1.84
543.381	1.86
543.726	1.89
544.071	1.88
544.415	1.91
544.76	1.95
545.105	1.88
545.449	1.91
545.794	1.91
546.138	1.85
546.483	1.95
546.827	1.93
547.171	1.95
547.516	1.93
547.86	1.93
548.204	1.97
548.548	1.96
548.892	1.96
549.236	1.92
549.58	2.03
549.924	2.08
550.268	2.06
550.612	2.04
550.956	2.13
551.3	2.17
551.643	1.87
551.987	2.18
552.33	2.08
552.674	2.01
553.017	1.97
553.361	1.92
553.704	2.03
554.048	1.95
554.391	2.06
554.734	1.85
555.077	1.92
555.42	1.97
555.764	2.06
556.107	2.04
556.45	2.01
556.793	2.28
557.135	2.14
557.478	1.93
557.821	1.92
558.164	2
558.507	1.95
558.849	2.29
559.192	2.01
559.534	1.92
559.877	2.09
560.219	2.04
560.562	1.96
560.904	2.11
561.246	1.8
561.589	2.12
561.931	1.93
562.273	2
562.615	2.01
562.957	1.99
563.299	2
563.641	2.02
563.983	1.73
564.325	1.96
564.667	1.96
565.008	1.86
565.35	1.88
565.692	1.85
566.033	1.84
566.375	1.97
566.716	1.8
567.058	2.07
567.399	2.06
567.741	2.06
568.082	2.01
568.423	1.93
568.764	1.96
569.105	2
569.447	1.96
569.788	2.02
570.129	1.98
570.47	1.94
570.811	1.92
571.151	1.85
571.492	1.93
571.833	1.9
572.174	2.02
572.514	1.92
572.855	2.12
573.195	1.95
573.536	2.16
573.876	1.95
574.217	1.82
574.557	1.91
574.898	1.97
575.238	2.11
575.578	2
575.918	2.03
576.258	2.11
576.598	1.95
576.938	1.91
577.278	1.98
577.618	1.89
577.958	1.95
578.298	2.05
578.638	2.01
578.977	2.06
579.317	2.01
579.657	2.07
579.996	2.07
580.336	2.07
580.675	1.87
581.014	2.02
581.354	1.78
581.693	2.18
582.032	2.13
582.372	2.12
582.711	2.03
583.05	1.99
583.389	2.1
583.728	2.04
584.067	1.86
584.406	2
584.745	1.99
585.083	1.94
585.422	2.13
585.761	2.16
586.1	2.03
586.438	1.97
586.777	2
587.115	2.08
587.454	1.76
587.792	1.97
588.13	1.97
588.469	2.08
588.807	2.21
589.145	2.05
589.483	1.72
589.821	1.98
590.159	2.02
590.497	2.16
590.835	2.02
591.173	2.03
591.511	2.21
591.849	2.11
592.187	1.9
592.524	2.12
592.862	1.8
593.2	1.84
593.537	1.89
593.875	2.06
594.212	2.02
594.55	2.07
594.887	2.05
595.224	2.22
595.561	2.11
595.899	2.08
596.236	2.1
596.573	1.99
596.91	2
597.247	2.34
597.584	1.9
597.921	2.07
598.258	2
598.594	2.05
598.931	1.78
599.268	1.8
599.604	2.07
599.941	1.92
600.277	2.04
600.614	2.01
600.95	1.99
601.287	1.82
601.623	1.78
601.959	2.32
602.296	2.07
602.632	1.86
602.968	1.98
603.304	2.14
603.64	1.9
603.976	1.82
604.312	2.09
604.648	2.1
604.984	2.06
605.319	2.11
605.655	1.92
605.991	1.92
606.326	1.98
606.662	2.01
606.998	2.2
607.333	1.96
607.668	1.93
608.004	1.91
608.339	1.89
608.674	2.09
609.01	2.11
609.345	2.14
609.68	1.8
610.015	1.94
610.35	2
610.685	1.89
611.02	1.92
611.355	1.98
611.689	2.03
612.024	2.11
612.359	2.05
612.694	1.97
613.028	1.85
613.363	2.04
613.697	2.05
614.032	1.93
614.366	1.86
614.7	2.04
615.035	1.8
615.369	2.14
615.703	2.11
616.037	1.94
616.371	1.9
616.705	2.06
617.039	2.09
617.373	2.11
617.707	2.16
618.041	1.92
618.375	1.37
618.709	2.32
619.042	1.9
619.376	1.89
619.71	2.26
620.043	2.4
620.377	1.94
620.71	1.85
621.043	2.05
621.377	2.15
621.71	2.22
622.043	2.15
622.376	1.77
622.709	2.14
623.043	1.99
623.376	1.88
623.709	2.1
624.041	1.84
624.374	2.06
624.707	2.06
625.04	2.11
625.373	2.07
625.705	2.08
626.038	2.39
626.37	1.93
626.703	2.13
627.035	2.04
627.368	2.39
627.7	1.83
628.032	1.96
628.365	2.27
628.697	2.32
629.029	2.09
629.361	2.15
629.693	2.05
630.025	1.96
630.357	2.27
630.689	2.09
631.021	2.2
631.353	1.79
631.684	2.12
632.016	1.84
632.348	1.68
632.679	2.26
633.011	2.26
633.342	2.12
633.674	1.83
634.005	1.98
634.336	2.06
634.668	1.97
634.999	1.86
635.33	1.99
635.661	1.83
635.992	2.09
636.323	1.98
636.654	1.94
636.985	1.95
637.316	2.16
637.647	2
637.977	1.96
638.308	2.06
638.639	1.81
638.969	1.75
639.3	2.07
639.63	2.15
639.961	2.12
640.291	1.66
640.622	2.4
640.952	2.28
641.282	1.75
641.612	1.84
641.943	1.6
642.273	1.92
642.603	2.28
642.933	2.53
643.263	2.19
643.592	2.2
643.922	2.38
644.252	2.08
644.582	2.15
644.911	1.98
645.241	1.79
645.571	2.03
645.9	2.12
646.23	2.53
646.559	1.86
646.888	2.31
647.218	1.95
647.547	2.14
647.876	2.2
648.205	1.41
648.534	2.02
648.863	1.88
649.192	1.97
649.521	2.29
649.85	2.05
650.179	2.01
650.508	1.89
650.837	1.87
651.165	2.19
651.494	2.5
651.822	2.2
652.151	1.89
652.479	2.22
652.808	2.2
653.136	1.46
653.465	1.77
653.793	2.07
654.121	2.05
654.449	1.72
654.777	1.72
655.105	1.44
655.433	2.41
655.761	1.94
656.089	2.14
656.417	2.49
656.745	2.35
657.073	1.82
657.4	1.6
657.728	1.38
658.056	2.05
658.383	2.14
658.711	1.86
659.038	2.14
659.365	1.9
659.693	1.96
660.02	2.18
660.347	2.04
660.674	1.95
661.001	1.95
661.329	1.93
661.656	1.72
661.982	2.15
662.309	2.09
662.636	2.15
662.963	2.33
663.29	2.11
663.616	2
663.943	2.15
664.27	2.1
664.596	1.75
664.923	2.29
665.249	1.99
665.576	1.97
665.902	1.59
666.228	2.45
666.554	2.15
666.881	1.74
667.207	1.96
667.533	1.81
667.859	1.83
668.185	2.18
668.511	2.46
668.837	2.19
669.162	2.28
669.488	1.47
669.814	2.16
670.139	1.87
670.465	2.4
670.791	1.6
671.116	1.42
671.442	1.48
671.767	2.2
672.092	1.83
672.418	1.89
672.743	2.12
673.068	1.23
673.393	2.24
673.718	1.66
674.043	2
674.368	2.3
674.693	2.12
675.018	2.15
675.343	2.46
675.667	1.97
675.992	1.64
676.317	1.69
676.641	2.09
676.966	1.7
677.29	1.23
677.615	1.56
677.939	1.96
678.264	2.19
678.588	2.19
678.912	2.19
679.236	1.77
679.56	1.68
679.885	2.02
680.209	2.11
680.532	1.58
680.856	2.43
681.18	2.29
681.504	1.86
681.828	1.81
682.152	1.82
682.475	2.13
682.799	1.56
683.122	1.47
683.446	1.29
683.769	2.13
684.093	2.48
684.416	2.04
684.739	1.45
685.062	2.23
685.386	1.96
685.709	1.67
686.032	2.06
686.355	1.94
686.678	2.27
687.001	2.22
687.324	2.21
687.646	2.48
687.969	2.11
688.292	1.92
688.614	2.41
688.937	2.34
689.26	2.35
689.582	1.85
689.904	2.16
690.227	1.72
690.549	2.11
690.871	1.53
691.194	1.61
691.516	1.81
691.838	2.19
692.16	1.77
692.482	1.99
692.804	1.89
693.126	1.46
693.448	2.05
693.769	0.96
694.091	2.25
694.413	2.17
694.735	1.8
695.056	1.99
695.378	1.93
695.699	1.17
696.021	2.3
696.342	1.26
696.663	1.71
696.984	0.94
697.306	1.39
697.627	2.48
697.948	0.9
698.269	2.71
698.59	1.91
698.911	1.52
699.232	1.9
699.553	2.28
699.873	1.67
700.194	1.89
700.515	2.08
700.835	2.23
701.156	2.55
701.477	2.46
701.797	1.67
702.117	1.71
702.438	1.88
702.758	2.38
703.078	2.04
703.398	1.1
703.719	2.06
704.039	2.22
704.359	2.16
704.679	1.81
704.999	1.5
705.319	1.24
705.638	0.75
705.958	1.38
706.278	1.19
706.597	1.67
706.917	2.21
707.237	1.56
707.556	1.98
707.876	1.43
708.195	2.39
708.514	1.86
708.834	1.83
709.153	1.95
709.472	2.78
709.791	1.24
710.11	2.13
710.429	1.74
710.748	2.38
711.067	2.52
711.386	2.33
711.705	1.88
712.023	3.04
712.342	1.41
712.661	2.1
712.979	2.38
713.298	1.58
713.616	2.51
713.935	2.11
714.253	1.42
714.572	1.52
714.89	1.43
715.208	1.61
715.526	2.14
715.844	1.65
716.162	1.21
716.48	2.2
716.798	1.48
717.116	2.17
717.434	1.94
717.752	2.15
718.069	1.19
718.387	1.5
718.705	1.84
719.022	3
719.34	1.46
719.657	1.71
719.975	1.23
720.292	1.45
720.609	1.24
720.927	1.57
721.244	2.32
721.561	-0.15
721.878	1.94
722.195	1.22
722.512	1.9
722.829	0.81
723.146	0.86
723.463	1.15
723.779	0.04
724.096	1.22
724.413	3.13
724.729	1.29
725.046	-0.27
725.362	2.76
725.679	1.9
725.995	0.75
726.311	2.32
726.628	1.35
726.944	3.17
727.26	1.4
727.576	1.18
727.892	1.27
728.208	0.62
728.524	1.26
728.84	2.19
729.156	0.3
729.472	0.59
729.787	3.02
730.103	1.84
730.419	0.89
730.734	1.16
731.05	0.82
731.365	2.49
731.681	1.69
731.996	2.57
732.311	0.33
732.626	2.42
732.942	1.9
733.257	0.87
733.572	1.89
733.887	2.35
734.202	2.12
734.517	1.75
734.832	1.16
735.146	2.59
735.461	1.03
735.776	2.69
736.091	2.93
736.405	2.08
736.72	0.7
737.034	1.85
737.349	2.23
737.663	2.83
737.977	1.56
738.292	0.61
738.606	2.93
738.92	2.92
739.234	1.16
739.548	1.89
739.862	0.92
740.176	1.38
740.49	1.34
740.804	2.14
741.117	2.26
741.431	1.37
741.745	-0.18
742.058	1.23
742.372	0.5
742.685	0.95
742.999	1.43
743.312	1.43
743.626	2.72
743.939	0.88
744.252	1.06
744.565	1.21
744.878	1.94
745.191	2.15
745.505	0.49
745.817	1.99
746.13	0.9
746.443	-0.07
746.756	1.73
747.069	3.83
747.381	0.93
747.694	1.34
748.007	-0.67
748.319	3.27
748.632	2.78
748.944	2.28
749.256	4.04
749.569	0.05
749.881	0.44
750.193	1.95
750.505	2.31
750.817	1.28
751.129	1.32
751.441	1.37
751.753	3.23
752.065	1.42
752.377	2.71
752.689	0.31
753	3.13
753.312	1.63
753.624	0.15
753.935	-0.14
754.247	1.93
754.558	0.94
754.869	2.01
755.181	1.87
755.492	1.41
755.803	2.45
756.114	0.73
756.425	-0.35
756.736	1.64
757.047	2.71
757.358	1.5
757.669	1.42
757.98	0.29
758.291	0.44
758.601	1.26
758.912	0.81
759.223	0.57
759.533	2.4
759.844	0.94
760.154	2.77
760.464	3.19
760.775	2.27
761.085	1.3
761.395	0.78
761.705	1.68
762.016	1.62
762.326	2.93
762.636	2.79
762.945	0.63
763.255	0.87
763.565	2.03
763.875	1.12
764.185	2.41
764.494	1.7
764.804	1.32
765.113	2.82
765.423	1.96
765.732	0.91
766.042	1.77
766.351	1.88
766.66	2.46
766.97	0.85
767.279	1.02
767.588	0.55
767.897	0.93
768.206	1.65
768.515	2.32
768.824	1.41
769.133	-0.02
769.441	0.39
769.75	-0.95
770.059	0.71
770.367	1.68
770.676	0.98
770.984	-1.12
771.293	2.07
771.601	-1.88
771.91	0.73
772.218	-0.67
772.526	-0.09
772.834	-1.75
773.142	2.37
773.45	1.66
773.758	3.35
774.066	0.99
774.374	5.43
774.682	3.18
774.99	-0.78
775.298	-0.09
775.605	-1.99
775.913	-2.2
776.22	-0.76
776.528	-1.67
776.835	1.41
777.143	3.46
777.45	-1.34
777.757	3.64
778.065	-2.67
778.372	-1.83
778.679	3.58
778.986	2.02
779.293	-1.68
779.6	1.85
779.907	-0.54
780.214	1.43
780.52	-1.03
780.827	-1.87
781.134	4.19
781.44	3.88
781.747	2.32
782.053	1.37
782.36	-0.21
782.666	1.55
782.973	-2.94
783.279	3.66
783.585	3.24
783.891	-1
784.197	0.12
784.503	-2.18
784.809	1.05
785.115	2.12
785.421	3.26
785.727	1.39
786.033	1.66
786.339	2.4
786.644	-3.15
786.95	-3.04
787.255	-2.17
787.561	-1.08
787.866	2.18
788.172	0.89
788.477	-1.72
788.782	-2
789.088	-5.27
789.393	-1.46
789.698	-0.39
790.003	0.28
790.308	-0.33
790.613	-1
790.918	-1.82
791.223	1.4
791.527	6.47
791.832	2.15
792.137	-1.33
792.441	0.57
792.746	0.87
793.05	-1.08
793.355	-0.1
793.659	0.88
793.963	-5.09
794.268	1.48
794.572	0.13
794.876	0.29
795.18	1.92
795.484	0.83
795.788	1.22
796.092	-1.55
796.396	-5.72
796.7	-4.03
797.004	-1.08
797.307	0.63
797.611	-0.23
797.915	-0.48
798.218	-3.16
798.522	-2.33
798.825	1.83
799.128	-0.33
799.432	-8.64
799.735	1.31
800.038	2.25
800.341	2.14
800.644	-1.71
800.947	2.57
801.25	1.15
801.553	1.27
801.856	-0.02
802.159	-4.27
802.462	-0.23
802.764	3.29
803.067	3.07
803.37	-2.67
803.672	-0.32
803.975	-1.28
804.277	-0.78
804.579	-2.49
804.882	1.44
805.184	-3.23
805.486	3.43
805.788	2.24
806.09	0.96
806.392	-0.76
806.694	0.08
806.996	2.49
807.298	-5.46
807.6	1.35
807.902	-0.32
808.203	-0.54
808.505	-5.81
808.807	6.44
809.108	3.23
809.409	-3.16
809.711	1.67
810.012	0.38
810.313	-2.09
810.615	3.44
810.916	-1.92
811.217	-4.05
811.518	-5.39
811.819	2.16
812.12	3.22
812.421	-3.27
812.722	-3.57
813.023	5.08
813.323	-3.67
813.624	6.08
813.925	1.98
814.225	2.84
814.526	-4.52
814.826	-5.86
815.126	2.5
815.427	-5.89
815.727	-1.17
816.027	0.75
816.327	-4.29
816.627	-1.29
816.927	2.46
817.227	-6.31
817.527	1.52
817.827	-2.35
818.127	-2.09
818.427	-6.76
818.727	-8.13
819.026	-6.79
819.326	2.04
819.625	-1.49
819.925	3.48
820.224	7.84
820.524	-0.09
820.823	0.97
821.122	-5.34
821.421	0.11
821.72	-0.43
822.019	-5.71
822.318	5.11
822.617	0.19
822.916	-0.49
823.215	1.18
823.514	0.78
823.813	1.31
824.111	1.47
824.41	1.96
824.709	3.04
825.007	2.42
825.306	2.89
825.604	2.22
825.902	2.63
826.201	2.7
826.499	2.59
826.797	0.66
827.095	2.54
827.393	3.36
827.691	4.7
827.989	3.4
828.287	2.59
828.585	0.29
828.882	0.26
829.18	-0.24
829.478	0.9
829.775	3.49
830.073	2.6
830.37	1.24
830.668	0.92
830.965	2.5
831.263	2.18
831.56	1.79
831.857	3.71
832.154	0.53
832.451	4.38
832.748	-0.1
833.045	3.27
833.342	2.33
833.639	3.67
833.936	-4.32
834.232	-0.1
834.529	3.07
834.826	5.74
835.122	-3.36
835.419	0.51
835.715	-4.07
836.012	0.73
836.308	6.61
836.604	-2.18
836.901	0.01
837.197	2.14
837.493	2.69
837.789	1.67
838.085	-3.23
838.381	1.8
838.677	0.81
838.972	-0.83
839.268	-2.64
839.564	-0.61
839.86	-3.09
840.155	5.25
840.451	3.46
840.746	-3.64
841.042	-6.2
841.337	-5.93
841.632	-6.68
841.928	6.95
842.223	-15.16
842.518	1.7
842.813	-9.62
843.108	-4.27
843.403	2.88
843.698	-3.33
843.993	1.69
844.287	3.96
844.582	0.07
844.877	-1.53
845.171	-1.78
845.466	-5.33
845.761	-3.71
846.055	-5.8
846.349	-3.09
846.644	-10.08
846.938	-5.01
847.232	-1.76
847.526	-5.84
847.82	3
848.114	-7.21
848.408	-15.99
848.702	-4.59
848.996	12.26
849.29	10.08
849.584	-10.68
849.877	-19.92
850.171	9.41
850.465	6.84
850.758	-28.5
851.052	-10.43
851.345	9.68
851.638	-1.28
851.932	-10.01
852.225	2.79
852.518	3.94
852.811	-26.75
853.104	-16.39
853.397	-4.09
853.69	-8.7
853.983	-26.76
854.276	-6.85
854.569	-35.85
854.861	-13.66
855.154	3.03
855.447	-17.46
855.739	-47.82
856.032	-11.5
856.324	3.01
856.616	-1.33
856.909	-25.92
857.201	-42.23
857.493	-14.39
857.785	-12.53
858.077	-13.68
858.369	-0.35
858.661	-13.36
858.953	11.25
859.245	-9.53
859.537	-49.65
859.829	-13.91
860.12	-9.72
860.412	-17.28
860.703	9.68
860.995	-11.96
861.286	-51.66
861.578	-1.82
861.869	9.43
862.16	-19.11
862.452	-29.07
862.743	-10.67
863.034	1.25
863.325	-11.35
863.616	-5.91
863.907	8.99
864.198	-23.44
864.488	-3.55
864.779	-1.94
865.07	-30.06
865.36	-5.37
865.651	-0.24
865.941	-23.55
866.232	-2.15
866.522	-45.56
866.813	2.6
867.103	-39.48
867.393	-10.33
867.683	-5.33
867.973	-7.79
868.263	-35.33
868.553	2.9
868.843	-13.68
869.133	10.1
869.423	-13.39
869.713	-12.06
870.002	1.53
870.292	-41.5
870.582	-43.28
870.871	-2.24
871.161	-23.23
871.45	-39.06
871.739	16.22
872.029	-21.97
872.318	-8.62
872.607	15.47
872.896	-16.2
873.185	-16.29
873.474	-44.52
873.763	2.27
874.052	4.77
874.341	-23.08
874.63	-3.99
874.918	-5.93
875.207	-60.76
875.496	5.15
875.784	-0.58
876.073	-9.05
876.361	-5.59
876.649	-20.59
876.938	-21.34
877.226	5.13
877.514	3.87
877.802	-35.09
878.09	20.95
878.378	-8.18
878.666	18.25
878.954	2.4
879.242	3.38
879.53	-10.57
879.817	-33.3
880.105	17.41
880.392	-10.17
880.68	6.14
880.967	-7.5
881.255	-9.51
881.542	-42.41
881.83	17.67
882.117	-17.53
882.404	-15.35
882.691	-0.83
882.978	11.16
883.265	-7.11
883.552	1.74
883.839	-2.66
884.126	-5.29
884.413	-0.02
884.699	-5.81
884.986	0.11
885.273	-1.47
885.559	-1.47
885.846	-1.47
