Data from 2019-21_crown_Reflection__0__429.txt Node

Date: Thu Dec 15 20:18:12 CST 2022
User: ToomeyLab
Spectrometer: FLMS14357
Trigger mode: 0
Integration Time (sec): 1.000000E-2
Scans to average: 100
Electric dark correction enabled: true
Nonlinearity correction enabled: false
Boxcar width: 0
XAxis mode: Wavelengths
Number of Pixels in Spectrum: 2048
>>>>>Begin Spectral Data<<<<<
189.047	266.39
189.435	266.39
189.823	266.39
190.211	-209.9
190.599	165.38
190.987	7395.16
191.375	-131.53
191.763	153.66
192.151	163.5
192.538	37.38
192.926	-105.03
193.314	-115.86
193.702	81.3
194.089	-7.58
194.477	141.06
194.864	83.05
195.252	685.27
195.639	113.56
196.027	92.34
196.414	636.63
196.801	60.9
197.189	61.06
197.576	-84.66
197.963	162.24
198.351	-26.72
198.738	-11.18
199.125	-104.22
199.512	14.27
199.899	-93.87
200.286	-36.57
200.673	60.35
201.06	-19.12
201.447	1.09
201.833	-72.75
202.22	1.7
202.607	-35.4
202.994	-42.65
203.38	-17.9
203.767	-30.54
204.154	20.82
204.54	-23.53
204.927	10.84
205.313	11.98
205.699	8.12
206.086	13.9
206.472	11.5
206.858	-9.7
207.245	-61.85
207.631	9.21
208.017	41.1
208.403	-153.63
208.789	-13.53
209.175	-60.91
209.561	-176.13
209.947	-29.97
210.333	-27.31
210.719	-0.24
211.105	6.12
211.491	19.39
211.876	-92.64
212.262	-12.9
212.648	-4.13
213.034	-29.99
213.419	-27.81
213.805	-14.45
214.19	-41.37
214.576	-9.5
214.961	-19.69
215.346	-16.92
215.732	-5.36
216.117	2.1
216.502	-53.03
216.888	14.05
217.273	16.03
217.658	-31.42
218.043	-21.88
218.428	-17.6
218.813	20.59
219.198	-36.19
219.583	8.23
219.968	-10.54
220.353	-22.37
220.738	-13.37
221.122	-44.28
221.507	-32.63
221.892	-30.08
222.276	-19.89
222.661	-4.84
223.046	-7.01
223.43	13.43
223.815	-5.92
224.199	4.93
224.583	-5.89
224.968	2.59
225.352	-9.51
225.736	7.96
226.121	0.35
226.505	-3.64
226.889	-3.45
227.273	-7.07
227.657	4.48
228.041	-0.46
228.425	2.77
228.809	5.54
229.193	3.65
229.577	5.12
229.961	5.85
230.344	5.49
230.728	6.65
231.112	5.33
231.495	5.54
231.879	5.31
232.263	5.18
232.646	4.06
233.03	5.81
233.413	5.04
233.797	3.85
234.18	3.48
234.563	4.47
234.946	2.46
235.33	4.31
235.713	4.45
236.096	4.58
236.479	5.67
236.862	3.66
237.245	1.78
237.628	5.17
238.011	5.05
238.394	3.16
238.777	6.66
239.16	4.96
239.543	5.51
239.925	6.04
240.308	3.29
240.691	4.87
241.073	3.75
241.456	4.96
241.838	4.28
242.221	4.56
242.603	5.53
242.986	4.56
243.368	4.79
243.75	5.16
244.133	5.14
244.515	4.95
244.897	4.4
245.279	4.92
245.661	4.55
246.043	4.43
246.425	5.51
246.807	5.04
247.189	4.42
247.571	4.39
247.953	4.59
248.335	4.84
248.717	5.09
249.098	5.08
249.48	4.69
249.862	4.61
250.243	4.74
250.625	4.82
251.006	4.67
251.388	3.86
251.769	3.95
252.151	4.58
252.532	4.4
252.913	4.92
253.295	4.43
253.676	4.65
254.057	4.3
254.438	4.57
254.819	4.64
255.2	4.64
255.581	5.46
255.962	4.73
256.343	5.17
256.724	4
257.105	3.77
257.486	3.53
257.867	4.18
258.247	4.05
258.628	4.22
259.009	4.27
259.389	3.23
259.77	4.17
260.15	5.32
260.531	4.74
260.911	4.57
261.292	4.54
261.672	4.5
262.052	4.55
262.432	4.35
262.813	4.7
263.193	4.2
263.573	4.36
263.953	4.24
264.333	4.69
264.713	5.07
265.093	3.37
265.473	4.45
265.853	4
266.233	3.67
266.612	3.61
266.992	3.98
267.372	4.2
267.752	4.59
268.131	4.21
268.511	4.26
268.89	4.39
269.27	3.65
269.649	3.93
270.029	3.6
270.408	4.05
270.787	4.48
271.167	4.59
271.546	4.74
271.925	4.1
272.304	4.4
272.683	4.19
273.062	4.39
273.441	3.91
273.82	4.43
274.199	3.92
274.578	4.16
274.957	4.47
275.336	4.31
275.715	4.47
276.093	3.79
276.472	4.14
276.851	3.85
277.229	4.54
277.608	3.92
277.986	3.9
278.365	4.48
278.743	4.64
279.122	3.88
279.5	3.72
279.878	3.91
280.257	4.13
280.635	4.62
281.013	3.41
281.391	3.45
281.769	4.33
282.147	3.75
282.525	3.72
282.903	3.91
283.281	4.43
283.659	4.03
284.037	4.21
284.415	4.05
284.792	4.08
285.17	3.85
285.548	3.97
285.925	3.89
286.303	4.27
286.68	4.02
287.058	4.27
287.435	3.79
287.813	4
288.19	3.62
288.567	4.02
288.945	3.68
289.322	3.99
289.699	4.2
290.076	4.29
290.453	3.49
290.83	3.91
291.207	3.6
291.584	4.3
291.961	4.09
292.338	3.77
292.715	3.53
293.092	4.11
293.469	3.71
293.845	3.97
294.222	4.14
294.599	3.52
294.975	3.14
295.352	4.1
295.728	3.85
296.105	4.07
296.481	4.4
296.858	3.68
297.234	3.37
297.61	3.89
297.986	3.94
298.363	3.91
298.739	4.04
299.115	4.04
299.491	4.18
299.867	3.73
300.243	3.74
300.619	3.62
300.995	3.91
301.371	3.93
301.746	4.01
302.122	3.32
302.498	3.33
302.874	3.77
303.249	4.04
303.625	3.4
304	3.92
304.376	4.01
304.751	3.88
305.127	3.61
305.502	3.74
305.878	3.83
306.253	3.9
306.628	3.98
307.003	3.52
307.378	3.46
307.754	3.56
308.129	3.74
308.504	4.14
308.879	4.03
309.254	4.25
309.629	3.65
310.003	3.92
310.378	4.06
310.753	4
311.128	4.07
311.502	3.83
311.877	3.62
312.252	4.1
312.626	4.05
313.001	4.19
313.375	3.79
313.75	4.05
314.124	3.94
314.498	4.17
314.873	3.56
315.247	3.45
315.621	3.38
315.995	3.84
316.369	3.43
316.743	3.45
317.117	3.29
317.491	4.13
317.865	3.27
318.239	3.9
318.613	3.54
318.987	3.16
319.361	3.99
319.734	3.77
320.108	3.85
320.482	3.48
320.855	3.76
321.229	3.58
321.602	3.82
321.976	3.09
322.349	4.08
322.723	3.89
323.096	3.23
323.469	3.16
323.843	3.24
324.216	3.42
324.589	4.26
324.962	3.47
325.335	3.78
325.708	3.69
326.081	4.23
326.454	3.43
326.827	3.63
327.2	3.46
327.573	4.34
327.945	3.4
328.318	3.41
328.691	3.52
329.063	3.61
329.436	3.25
329.809	4.04
330.181	4.13
330.553	3.93
330.926	3.98
331.298	3.51
331.671	3.71
332.043	3.83
332.415	4.12
332.787	4.02
333.159	3.32
333.532	3.85
333.904	4.15
334.276	3.81
334.648	3.85
335.02	3.84
335.391	3.74
335.763	3.72
336.135	3.76
336.507	3.31
336.879	3.32
337.25	3.65
337.622	3.81
337.993	3.93
338.365	3.83
338.736	3.92
339.108	3.85
339.479	3.57
339.851	3.77
340.222	4.05
340.593	3.55
340.964	3.85
341.336	3.68
341.707	3.82
342.078	3.42
342.449	3.47
342.82	3.83
343.191	3.78
343.562	3.58
343.933	3.45
344.303	3.97
344.674	3.91
345.045	4.24
345.416	4.5
345.786	3.86
346.157	3.92
346.527	3.65
346.898	3.33
347.268	3.99
347.639	4.04
348.009	3.96
348.38	3.49
348.75	3.77
349.12	3.7
349.49	3.99
349.861	4.34
350.231	3.49
350.601	3.97
350.971	3.58
351.341	4.33
351.711	3.79
352.081	3.4
352.45	3.49
352.82	3.37
353.19	3.65
353.56	3.68
353.929	3.89
354.299	3.93
354.669	3.98
355.038	3.97
355.408	3.55
355.777	3.79
356.147	3.85
356.516	3.57
356.885	3.73
357.254	3.6
357.624	3.48
357.993	3.75
358.362	3.99
358.731	4.12
359.1	3.8
359.469	4
359.838	3.94
360.207	3.9
360.576	3.86
360.945	3.84
361.314	3.74
361.682	3.43
362.051	3.82
362.42	4.09
362.788	3.92
363.157	3.91
363.525	4.08
363.894	3.92
364.262	3.82
364.631	3.88
364.999	3.75
365.367	3.7
365.735	3.77
366.104	3.76
366.472	3.93
366.84	3.7
367.208	3.89
367.576	3.86
367.944	3.87
368.312	3.96
368.68	4.01
369.048	3.9
369.416	3.84
369.783	3.85
370.151	4.33
370.519	4.28
370.886	4.1
371.254	3.81
371.621	4.02
371.989	3.94
372.356	4
372.724	3.93
373.091	3.65
373.458	3.83
373.826	4.31
374.193	4.22
374.56	4.26
374.927	4.02
375.294	3.99
375.661	3.81
376.028	3.7
376.395	4.08
376.762	3.71
377.129	3.84
377.496	3.93
377.863	4.1
378.229	3.89
378.596	4.15
378.963	3.86
379.329	4.11
379.696	3.97
380.062	3.91
380.429	3.74
380.795	4.12
381.161	3.65
381.528	3.62
381.894	4.05
382.26	3.89
382.626	3.94
382.993	4.06
383.359	3.95
383.725	3.85
384.091	4
384.457	3.86
384.823	4.31
385.188	4.19
385.554	4.03
385.92	4
386.286	4.15
386.651	3.85
387.017	4.06
387.383	4.09
387.748	4.21
388.114	4.05
388.479	3.96
388.845	3.62
389.21	4.39
389.575	4.14
389.94	4.08
390.306	4.07
390.671	4.04
391.036	3.89
391.401	4.1
391.766	4.11
392.131	4.25
392.496	3.99
392.861	4.04
393.226	3.82
393.591	4.04
393.956	4.12
394.32	4.31
394.685	4.09
395.05	4.18
395.414	4.06
395.779	4.11
396.143	3.9
396.508	4.04
396.872	3.96
397.236	4.27
397.601	4.21
397.965	4.09
398.329	3.96
398.694	4
399.058	4.24
399.422	4
399.786	3.96
400.15	4.14
400.514	4.17
400.878	3.92
401.242	3.79
401.605	4.19
401.969	4.07
402.333	3.95
402.697	4.38
403.06	4.31
403.424	4.19
403.787	4.11
404.151	4.08
404.514	4.1
404.878	3.9
405.241	3.96
405.604	4.02
405.968	4
406.331	4.24
406.694	4.1
407.057	3.91
407.42	4.04
407.783	4.12
408.146	4.22
408.509	4.21
408.872	3.95
409.235	4.23
409.598	4.29
409.961	4.27
410.323	4.04
410.686	4.16
411.049	4.25
411.411	4.13
411.774	4.24
412.136	4.06
412.499	4.21
412.861	3.86
413.223	4.22
413.586	4.05
413.948	4.27
414.31	4.28
414.672	4.07
415.035	4.09
415.397	4.06
415.759	4.11
416.121	4.38
416.483	4.14
416.845	4.08
417.206	3.97
417.568	4.04
417.93	4
418.292	4.05
418.653	3.86
419.015	4.13
419.377	3.95
419.738	4.08
420.1	4.04
420.461	4.03
420.822	4.13
421.184	4.05
421.545	4.1
421.906	4.13
422.267	4.04
422.629	3.98
422.99	4.02
423.351	4.13
423.712	4.04
424.073	4.22
424.434	4.19
424.795	4.01
425.155	3.95
425.516	4.01
425.877	4.09
426.238	4.08
426.598	4.08
426.959	4.1
427.32	4.12
427.68	4.22
428.041	4.19
428.401	4.1
428.761	4.22
429.122	4.16
429.482	4.2
429.842	4.09
430.202	4.38
430.563	4.1
430.923	4.21
431.283	4.34
431.643	4.31
432.003	4.14
432.363	4.34
432.722	4.18
433.082	4.13
433.442	4.17
433.802	4.14
434.161	4.3
434.521	4.2
434.881	4.18
435.24	4.12
435.6	4.18
435.959	4.15
436.319	4.08
436.678	4.06
437.037	4.16
437.396	4.29
437.756	4.07
438.115	4.02
438.474	4.26
438.833	4.07
439.192	4.14
439.551	4.26
439.91	4.12
440.269	4.16
440.628	4.11
440.987	4.21
441.345	4.24
441.704	4.21
442.063	4.13
442.421	4.19
442.78	4.21
443.138	4.11
443.497	4.04
443.855	4.21
444.214	4.01
444.572	4.19
444.93	4.08
445.288	4.19
445.647	4.14
446.005	4.12
446.363	4.09
446.721	4.1
447.079	4.05
447.437	4.17
447.795	4.13
448.153	4.08
448.51	4.17
448.868	4.17
449.226	4.16
449.584	4.13
449.941	4.16
450.299	4.13
450.656	4.14
451.014	4.26
451.371	4.16
451.729	4.27
452.086	4.15
452.443	4.24
452.801	4.22
453.158	4.33
453.515	4.12
453.872	4.19
454.229	4.1
454.586	4.11
454.943	4.23
455.3	4.17
455.657	4.1
456.014	4.17
456.371	4.25
456.727	4.34
457.084	4.23
457.441	4.35
457.797	4.26
458.154	4.2
458.51	4.18
458.867	4.23
459.223	4.26
459.58	4.2
459.936	4.2
460.292	4.16
460.648	4.14
461.005	4.11
461.361	4.09
461.717	4.09
462.073	4.23
462.429	4.16
462.785	4.36
463.141	4.18
463.496	4.32
463.852	4.31
464.208	4.25
464.564	4.22
464.919	4.4
465.275	4.22
465.631	4.39
465.986	4.4
466.342	4.13
466.697	4.17
467.052	4.42
467.408	4.36
467.763	4.22
468.118	4.09
468.473	4.17
468.829	4.19
469.184	4.34
469.539	4.12
469.894	4.38
470.249	4.27
470.603	4.35
470.958	4.33
471.313	4.36
471.668	4.32
472.023	4.36
472.377	4.33
472.732	4.53
473.086	4.11
473.441	4.14
473.795	4.48
474.15	4.25
474.504	4.25
474.859	4.12
475.213	4.38
475.567	4.14
475.921	4.35
476.275	4.29
476.63	4.43
476.984	4.15
477.338	4.23
477.692	4.23
478.045	4.45
478.399	4.2
478.753	4.25
479.107	4.36
479.461	4.27
479.814	4.37
480.168	4.18
480.521	4.33
480.875	4.27
481.228	4.28
481.582	4.28
481.935	4.29
482.289	4.14
482.642	4.34
482.995	4.3
483.348	4.2
483.701	4.28
484.055	4.2
484.408	4.15
484.761	4.09
485.114	3.96
485.466	3.96
485.819	3.95
486.172	4.04
486.525	4.06
486.878	4.19
487.23	4.13
487.583	4.17
487.936	4.08
488.288	4.09
488.641	4
488.993	4.02
489.345	4.06
489.698	4
490.05	4.08
490.402	4.09
490.754	4.11
491.107	4.1
491.459	4.3
491.811	4.21
492.163	4.1
492.515	4.1
492.866	4.09
493.218	4.08
493.57	4.12
493.922	4.12
494.274	4.22
494.625	4.36
494.977	4.23
495.328	4.21
495.68	4.16
496.031	4.25
496.383	4.14
496.734	4.25
497.086	4.32
497.437	4.42
497.788	4.42
498.139	4.29
498.49	4.22
498.842	4.33
499.193	4.25
499.544	4.31
499.894	4.28
500.245	4.33
500.596	4.36
500.947	4.31
501.298	4.24
501.648	4.17
501.999	4.39
502.35	4.28
502.7	4.45
503.051	4.25
503.401	4.5
503.752	4.2
504.102	4.26
504.452	4.17
504.803	4.29
505.153	4.46
505.503	4.41
505.853	4.29
506.203	4.3
506.553	4.29
506.903	4.34
507.253	4.37
507.603	4.33
507.953	4.29
508.303	4.48
508.652	4.1
509.002	4.29
509.352	4.35
509.701	4.17
510.051	4.35
510.4	4.38
510.75	4.23
511.099	4.18
511.449	4.32
511.798	4.27
512.147	4.24
512.496	4.29
512.846	4.26
513.195	4.32
513.544	4.27
513.893	4.36
514.242	4.27
514.591	4.39
514.939	4.3
515.288	4.39
515.637	4.35
515.986	4.35
516.334	4.38
516.683	4.41
517.032	4.37
517.38	4.31
517.729	4.4
518.077	4.31
518.426	4.43
518.774	4.3
519.122	4.32
519.47	4.24
519.819	4.29
520.167	4.25
520.515	4.27
520.863	4.28
521.211	4.23
521.559	4.24
521.907	4.31
522.255	4.3
522.602	4.26
522.95	4.4
523.298	4.31
523.645	4.32
523.993	4.34
524.341	4.42
524.688	4.3
525.036	4.36
525.383	4.34
525.73	4.22
526.078	4.44
526.425	4.22
526.772	4.2
527.119	4.23
527.466	4.33
527.814	4.28
528.161	4.34
528.508	4.29
528.854	4.32
529.201	4.16
529.548	4.16
529.895	4.05
530.242	4.09
530.588	4.09
530.935	4.08
531.282	4.12
531.628	4.25
531.975	4.17
532.321	4.25
532.667	4.27
533.014	4.37
533.36	4.27
533.706	4.31
534.052	4.23
534.399	4.21
534.745	4.22
535.091	4.16
535.437	4.2
535.783	4.24
536.129	4.25
536.474	4.35
536.82	4.35
537.166	4.33
537.512	4.34
537.857	4.25
538.203	4.24
538.549	4.21
538.894	4.27
539.239	4.31
539.585	4.43
539.93	4.52
540.276	4.32
540.621	4.4
540.966	4.26
541.311	4.34
541.656	4.27
542.001	4.28
542.346	4.24
542.691	4.14
543.036	4.12
543.381	4.14
543.726	4.27
544.071	4.27
544.415	4.32
544.76	4.33
545.105	4.31
545.449	4.32
545.794	4.36
546.138	4.28
546.483	4.38
546.827	4.27
547.171	4.39
547.516	4.36
547.86	4.33
548.204	4.36
548.548	4.38
548.892	4.31
549.236	4.31
549.58	4.3
549.924	4.42
550.268	4.5
550.612	4.38
550.956	4.5
551.3	4.62
551.643	4.47
551.987	4.46
552.33	4.63
552.674	4.43
553.017	4.52
553.361	4.36
553.704	4.63
554.048	4.33
554.391	4.35
554.734	4.2
555.077	4.52
555.42	4.36
555.764	4.4
556.107	4.41
556.45	4.31
556.793	4.53
557.135	4.38
557.478	4.53
557.821	4.54
558.164	4.49
558.507	4.36
558.849	4.51
559.192	4.54
559.534	4.5
559.877	4.57
560.219	4.4
560.562	4.43
560.904	4.65
561.246	4.46
561.589	4.52
561.931	4.45
562.273	4.48
562.615	4.52
562.957	4.32
563.299	4.37
563.641	4.57
563.983	4.34
564.325	4.54
564.667	4.42
565.008	4.28
565.35	4.51
565.692	4.25
566.033	4.42
566.375	4.42
566.716	4.37
567.058	4.52
567.399	4.48
567.741	4.4
568.082	4.52
568.423	4.4
568.764	4.38
569.105	4.44
569.447	4.43
569.788	4.36
570.129	4.53
570.47	4.35
570.811	4.36
571.151	4.51
571.492	4.3
571.833	4.35
572.174	4.67
572.514	4.64
572.855	4.43
573.195	4.22
573.536	4.56
573.876	4.43
574.217	4.32
574.557	4.45
574.898	4.25
575.238	4.48
575.578	4.55
575.918	4.2
576.258	4.62
576.598	4.46
576.938	4.32
577.278	4.38
577.618	4.36
577.958	4.54
578.298	4.37
578.638	4.3
578.977	4.41
579.317	4.38
579.657	4.39
579.996	4.67
580.336	4.53
580.675	4.34
581.014	4.5
581.354	4.34
581.693	4.56
582.032	4.67
582.372	4.49
582.711	4.53
583.05	4.31
583.389	4.56
583.728	4.61
584.067	4.24
584.406	4.4
584.745	4.51
585.083	4.32
585.422	4.58
585.761	4.52
586.1	4.51
586.438	4.53
586.777	4.56
587.115	4.68
587.454	4.42
587.792	4.5
588.13	4.3
588.469	4.44
588.807	4.47
589.145	4.56
589.483	4.46
589.821	4.63
590.159	4.4
590.497	4.48
590.835	4.6
591.173	4.58
591.511	4.6
591.849	4.59
592.187	4.48
592.524	4.64
592.862	4.4
593.2	4.63
593.537	4.42
593.875	4.44
594.212	4.73
594.55	4.38
594.887	4.52
595.224	4.64
595.561	4.5
595.899	4.4
596.236	4.59
596.573	4.46
596.91	4.48
597.247	4.84
597.584	4.49
597.921	4.59
598.258	4.41
598.594	4.47
598.931	4.32
599.268	4.27
599.604	4.57
599.941	4.31
600.277	4.32
600.614	4.65
600.95	4.54
601.287	4.12
601.623	4.16
601.959	4.76
602.296	4.42
602.632	4.45
602.968	4.52
603.304	4.41
603.64	4.15
603.976	4.49
604.312	4.53
604.648	4.73
604.984	4.51
605.319	4.32
605.655	4.34
605.991	4.38
606.326	4.36
606.662	4.29
606.998	4.59
607.333	4.39
607.668	4.42
608.004	4.57
608.339	4.19
608.674	4.65
609.01	4.8
609.345	4.64
609.68	4.38
610.015	4.47
610.35	4.53
610.685	4.17
611.02	4.35
611.355	4.43
611.689	4.34
612.024	4.42
612.359	4.43
612.694	4.54
613.028	4.39
613.363	4.49
613.697	4.49
614.032	4.31
614.366	4.25
614.7	4.71
615.035	4.22
615.369	4.59
615.703	4.25
616.037	4.6
616.371	4.36
616.705	4.73
617.039	4.38
617.373	4.81
617.707	4.51
618.041	4.28
618.375	3.94
618.709	4.26
619.042	4.58
619.376	4.2
619.71	4.43
620.043	4.4
620.377	4.47
620.71	4.37
621.043	4.37
621.377	4.48
621.71	4.86
622.043	4.78
622.376	4.32
622.709	4.74
623.043	4.46
623.376	4.05
623.709	4.62
624.041	4.27
624.374	4.8
624.707	4.59
625.04	4.26
625.373	4.21
625.705	4.63
626.038	4.3
626.37	4.56
626.703	4.63
627.035	4.59
627.368	4.67
627.7	4.6
628.032	4.3
628.365	4.51
628.697	4.72
629.029	4.47
629.361	4.54
629.693	4.53
630.025	4.6
630.357	4.47
630.689	4.5
631.021	4.73
631.353	4.34
631.684	4.24
632.016	4.22
632.348	4.55
632.679	4.71
633.011	4.25
633.342	4.75
633.674	4.17
634.005	4.75
634.336	4.37
634.668	4.37
634.999	4.11
635.33	4.49
635.661	4.47
635.992	4.33
636.323	4.53
636.654	4.24
636.985	4.53
637.316	4.08
637.647	4.81
637.977	4.22
638.308	4.45
638.639	4.12
638.969	4.32
639.3	4.31
639.63	4.54
639.961	4.47
640.291	4.22
640.622	4.37
640.952	4.61
641.282	4.65
641.612	4.28
641.943	4.13
642.273	4.27
642.603	4.3
642.933	4.77
643.263	4.62
643.592	4.94
643.922	5.08
644.252	4.63
644.582	4.46
644.911	4.56
645.241	4.44
645.571	4.42
645.9	4.46
646.23	5.02
646.559	4.1
646.888	4.95
647.218	4.06
647.547	4.32
647.876	4.25
648.205	4.37
648.534	4.55
648.863	4.01
649.192	4.83
649.521	4.69
649.85	4.93
650.179	4.61
650.508	4.46
650.837	4.77
651.165	4.29
651.494	4.52
651.822	4.57
652.151	4.35
652.479	4.84
652.808	4.36
653.136	4.24
653.465	4.5
653.793	4.31
654.121	4.18
654.449	3.73
654.777	4.12
655.105	4.1
655.433	4.82
655.761	4.2
656.089	4.24
656.417	4.75
656.745	5.07
657.073	4.32
657.4	4.43
657.728	4.02
658.056	4.44
658.383	4.39
658.711	4.5
659.038	4.9
659.365	4.88
659.693	4.46
660.02	4.3
660.347	4.46
660.674	4.21
661.001	4.21
661.329	4.33
661.656	4.39
661.982	3.85
662.309	4.23
662.636	4.26
662.963	4.73
663.29	4.21
663.616	4.39
663.943	4.6
664.27	4.05
664.596	4.63
664.923	4.79
665.249	4.28
665.576	4.15
665.902	3.99
666.228	4.76
666.554	4.72
666.881	3.95
667.207	4.47
667.533	3.77
667.859	4.26
668.185	4.42
668.511	4.68
668.837	4.39
669.162	5.09
669.488	3.62
669.814	3.84
670.139	3.82
670.465	4.68
670.791	4.47
671.116	4.38
671.442	4.14
671.767	4.34
672.092	4.48
672.418	4.74
672.743	4.12
673.068	3.95
673.393	4.68
673.718	3.96
674.043	4.04
674.368	4.5
674.693	4.95
675.018	4.57
675.343	4.3
675.667	4.37
675.992	4.66
676.317	4.29
676.641	3.97
676.966	4.67
677.29	4
677.615	4.13
677.939	4.89
678.264	4.32
678.588	4.88
678.912	4.62
679.236	3.88
679.56	3.98
679.885	3.52
680.209	5.01
680.532	5.2
680.856	4.57
681.18	4.53
681.504	4.17
681.828	3.82
682.152	4.45
682.475	4.79
682.799	4.5
683.122	4.79
683.446	3.79
683.769	4.82
684.093	4.61
684.416	3.9
684.739	3.97
685.062	4.47
685.386	5.1
685.709	4.56
686.032	4.56
686.355	4.25
686.678	5.03
687.001	4.62
687.324	4.45
687.646	4.14
687.969	4.78
688.292	4.18
688.614	4.73
688.937	4.9
689.26	5.36
689.582	4.36
689.904	4.78
690.227	3.74
690.549	4.75
690.871	4.12
691.194	4.05
691.516	4.14
691.838	4.57
692.16	3.95
692.482	3.74
692.804	3.94
693.126	3.7
693.448	4.23
693.769	5.03
694.091	4.28
694.413	4.58
694.735	4.47
695.056	5.08
695.378	4.02
695.699	4.29
696.021	4.56
696.342	3.58
696.663	4.57
696.984	3.54
697.306	3.58
697.627	4.73
697.948	4.17
698.269	4.95
698.59	4.07
698.911	3.59
699.232	4.79
699.553	4.58
699.873	4.33
700.194	4.54
700.515	4.37
700.835	4.33
701.156	4.73
701.477	4.28
701.797	3.96
702.117	3.95
702.438	4.18
702.758	4.22
703.078	4.54
703.398	3.36
703.719	3.98
704.039	4.73
704.359	4.06
704.679	4.43
704.999	4.34
705.319	3.19
705.638	3.25
705.958	4.34
706.278	4.29
706.597	4.04
706.917	4.26
707.237	4.67
707.556	5.45
707.876	3.79
708.195	3.9
708.514	3.55
708.834	4.66
709.153	4.16
709.472	4.96
709.791	3.2
710.11	4.52
710.429	3.95
710.748	5.06
711.067	4.18
711.386	4.64
711.705	4.45
712.023	5.46
712.342	3.79
712.661	3.94
712.979	4.86
713.298	4.58
713.616	4.59
713.935	4.96
714.253	4.4
714.572	3.47
714.89	3.83
715.208	3.57
715.526	4.24
715.844	4.12
716.162	4.28
716.48	4.06
716.798	4.43
717.116	3.79
717.434	5.17
717.752	4.23
718.069	4.12
718.387	4.49
718.705	4.18
719.022	4.48
719.34	3.29
719.657	4.13
719.975	3.25
720.292	3.19
720.609	3.09
720.927	4.12
721.244	5.66
721.561	3.65
721.878	3.97
722.195	4.8
722.512	5.02
722.829	4.56
723.146	4.51
723.463	3.67
723.779	2.72
724.096	2.5
724.413	4.26
724.729	4.67
725.046	4.35
725.362	3.87
725.679	4.15
725.995	2.86
726.311	4.49
726.628	4.87
726.944	3.69
727.26	5.59
727.576	4.43
727.892	4.22
728.208	3.42
728.524	3.55
728.84	3.59
729.156	3.58
729.472	3.16
729.787	4.34
730.103	3.83
730.419	4.12
730.734	4.32
731.05	3.99
731.365	5.17
731.681	4.71
731.996	5.59
732.311	4.63
732.626	3.67
732.942	4.42
733.257	4.08
733.572	4.67
733.887	5.75
734.202	3.88
734.517	3.87
734.832	3.6
735.146	4.21
735.461	4.67
735.776	4.95
736.091	4.75
736.405	4.04
736.72	3.4
737.034	4.14
737.349	4.03
737.663	4.33
737.977	5.91
738.292	2.09
738.606	5.61
738.92	5.23
739.234	4.45
739.548	5.2
739.862	4.45
740.176	4.25
740.49	3.47
740.804	4.61
741.117	4.93
741.431	2.96
741.745	4.2
742.058	3.65
742.372	3.07
742.685	4.61
742.999	3.67
743.312	4.23
743.626	4.74
743.939	3.83
744.252	4.88
744.565	6.2
744.878	2.5
745.191	5.41
745.505	3.84
745.817	5.93
746.13	5.01
746.443	3.34
746.756	4.18
747.069	5.21
747.381	5.73
747.694	3.96
748.007	3.62
748.319	5.29
748.632	3.05
748.944	2.62
749.256	4.51
749.569	4.28
749.881	4.2
750.193	5.52
750.505	4.63
750.817	5.15
751.129	4.59
751.441	5.16
751.753	4.98
752.065	4.66
752.377	5.28
752.689	3.33
753	4.37
753.312	5.88
753.624	3.3
753.935	3.13
754.247	3.92
754.558	4.32
754.869	4.93
755.181	3.33
755.492	4.95
755.803	4.22
756.114	3.26
756.425	1.77
756.736	3.44
757.047	5
757.358	2.76
757.669	2.4
757.98	3.34
758.291	3.07
758.601	4.18
758.912	2.75
759.223	2.91
759.533	4.03
759.844	3.58
760.154	5.92
760.464	4.29
760.775	4.6
761.085	3.55
761.395	2.89
761.705	3.35
762.016	3.12
762.326	3.94
762.636	4.92
762.945	2.69
763.255	3.48
763.565	4.54
763.875	2.3
764.185	7.44
764.494	3.21
764.804	3.01
765.113	4.14
765.423	4.61
765.732	4.01
766.042	4.81
766.351	4.56
766.66	2.97
766.97	4.12
767.279	5.62
767.588	3.55
767.897	3.64
768.206	3.27
768.515	3.04
768.824	4.14
769.133	2.85
769.441	3.26
769.75	1.83
770.059	4.21
770.367	4.3
770.676	2.35
770.984	1.06
771.293	4.52
771.601	1.07
771.91	1.19
772.218	3.52
772.526	2.83
772.834	2.97
773.142	3.24
773.45	3.32
773.758	2.47
774.066	3.62
774.374	6.4
774.682	3.78
774.99	1.69
775.298	2.89
775.605	0.77
775.913	1.17
776.22	2.07
776.528	3.02
776.835	4.38
777.143	6.14
777.45	1.14
777.757	5.1
778.065	0.66
778.372	2.44
778.679	7.68
778.986	3.41
779.293	0.69
779.6	4.35
779.907	4.82
780.214	2.1
780.52	2.91
780.827	5.53
781.134	3.86
781.44	6.92
781.747	3.59
782.053	0.66
782.36	1.91
782.666	1.6
782.973	0.49
783.279	4.36
783.585	3.46
783.891	1.83
784.197	3.12
784.503	1.15
784.809	8.31
785.115	7.04
785.421	8.18
785.727	5.72
786.033	5.3
786.339	7.17
786.644	-1.72
786.95	4.31
787.255	-2.9
787.561	2.7
787.866	3.84
788.172	1.9
788.477	1.44
788.782	0.81
789.088	-0.47
789.393	3.15
789.698	0.3
790.003	-0.61
790.308	6.78
790.613	3.47
790.918	2.1
791.223	4.8
791.527	3.24
791.832	5.21
792.137	6.11
792.441	0.61
792.746	4.42
793.05	2.35
793.355	2.77
793.659	3.37
793.963	1.21
794.268	2.66
794.572	-0.93
794.876	0.1
795.18	4.48
795.484	2.3
795.788	7.52
796.092	-0.59
796.396	-0.54
796.7	1.84
797.004	-0.06
797.307	0.62
797.611	4.04
797.915	1.14
798.218	2.29
798.522	0.59
798.825	6.49
799.128	5.46
799.432	-2.57
799.735	1.55
800.038	6.19
800.341	3.7
800.644	1.55
800.947	4.04
801.25	0.9
801.553	3.87
801.856	4.35
802.159	-2.78
802.462	0.93
802.764	0.31
803.067	0.65
803.37	0.34
803.672	5.23
803.975	3.38
804.277	-0.52
804.579	3.58
804.882	-0.66
805.184	2.44
805.486	2.87
805.788	7.54
806.09	-5.24
806.392	0.99
806.694	4.68
806.996	3.35
807.298	-3.87
807.6	2.22
807.902	-2.79
808.203	-0.61
808.505	0.24
808.807	9.05
809.108	1.71
809.409	2.14
809.711	2.26
810.012	2.51
810.313	1.95
810.615	5.28
810.916	3.8
811.217	-5.77
811.518	0.14
811.819	-1.57
812.12	0.62
812.421	-4.46
812.722	3.26
813.023	5.97
813.323	1.04
813.624	5.29
813.925	-0.97
814.225	-0.7
814.526	-5.1
814.826	1.48
815.126	1.58
815.427	-4.55
815.727	0.73
816.027	1.71
816.327	1.99
816.627	-3.17
816.927	0.28
817.227	-3.9
817.527	3.35
817.827	-0.05
818.127	-6.55
818.427	-4.15
818.727	-6.07
819.026	-4.35
819.326	-3.49
819.625	6.01
819.925	1.19
820.224	4.6
820.524	-2.43
820.823	0.4
821.122	-4.56
821.421	-1.73
821.72	1.01
822.019	-3.94
822.318	7.47
822.617	3.79
822.916	-0.2
823.215	5.29
823.514	5.66
823.813	1.9
824.111	3.48
824.41	4.31
824.709	4.56
825.007	4.96
825.306	5.25
825.604	5
825.902	4.96
826.201	4.54
826.499	4.14
826.797	6.26
827.095	5.85
827.393	6.22
827.691	6.7
827.989	4.29
828.287	4.31
828.585	2.44
828.882	3.48
829.18	5.32
829.478	5.57
829.775	3.88
830.073	4.87
830.37	3.82
830.668	4.66
830.965	3.77
831.263	4.37
831.56	2.54
831.857	3.66
832.154	2.21
832.451	2.95
832.748	1.37
833.045	4.85
833.342	2.48
833.639	7.69
833.936	-4.18
834.232	0.29
834.529	-0.09
834.826	4.69
835.122	0.14
835.419	5.76
835.715	1.11
836.012	0.54
836.308	6.4
836.604	1.71
836.901	4.72
837.197	5.18
837.493	6.73
837.789	5
838.085	0.08
838.381	4.38
838.677	2.35
838.972	1.75
839.268	3.21
839.564	5.98
839.86	-0.1
840.155	7.08
840.451	1.19
840.746	3.97
841.042	-5.87
841.337	-6.28
841.632	8.77
841.928	4.1
842.223	-7.51
842.518	3.49
842.813	0.16
843.108	3.05
843.403	-6.23
843.698	-4.93
843.993	1.95
844.287	-6.38
844.582	-2
844.877	-1.32
845.171	-0.85
845.466	-4.45
845.761	-9.71
846.055	0.56
846.349	-10.96
846.644	0.28
846.938	1.78
847.232	-17.59
847.526	-9.62
847.82	0.97
848.114	-11.5
848.408	-0.75
848.702	-8.71
848.996	0.87
849.29	19.39
849.584	-6.01
849.877	-9.04
850.171	8.31
850.465	5.93
850.758	-8.33
851.052	-16.45
851.345	-5.91
851.638	-10.86
851.932	-17.59
852.225	4.53
852.518	-4.6
852.811	-34.62
853.104	-5.17
853.397	18.39
853.69	6.21
853.983	7.62
854.276	-7.18
854.569	-8.92
854.861	-4.75
855.154	1.35
855.447	-12.67
855.739	-28.32
856.032	5.33
856.324	-6.12
856.616	-7.97
856.909	-1.73
857.201	-39.66
857.493	-22.8
857.785	-18.87
858.077	-22.52
858.369	5.95
858.661	1.82
858.953	-4.53
859.245	-2.33
859.537	-0.77
859.829	-9.07
860.12	-29.61
860.412	0.78
860.703	-8.67
860.995	-6.6
861.286	-71.7
861.578	-12.96
861.869	-15.07
862.16	-10.29
862.452	-13.2
862.743	-6.02
863.034	15.46
863.325	-13.53
863.616	-9.27
863.907	11.3
864.198	-19.33
864.488	-8.47
864.779	-4.56
865.07	-17.92
865.36	20.03
865.651	16.65
865.941	-8.11
866.232	-3.83
866.522	-15.72
866.813	-6.06
867.103	-26.51
867.393	-6.05
867.683	13.59
867.973	-26.04
868.263	-51.17
868.553	-2.48
868.843	2.28
869.133	-15.85
869.423	11.56
869.713	-22.8
870.002	7.73
870.292	-7.12
870.582	-27.47
870.871	15.63
871.161	-16.28
871.45	-64.56
871.739	10.93
872.029	-26.29
872.318	-18.17
872.607	8.62
872.896	-24.61
873.185	-13.85
873.474	-41.37
873.763	-3.41
874.052	8.53
874.341	-16.42
874.63	5.21
874.918	-7.03
875.207	-37.94
875.496	6.28
875.784	-1.71
876.073	-15.29
876.361	0.99
876.649	-30.71
876.938	-50.31
877.226	10.63
877.514	2.64
877.802	-25
878.09	-8.69
878.378	-8.68
878.666	19.04
878.954	0.75
879.242	-17.05
879.53	-9.59
879.817	-29.66
880.105	22.57
880.392	-35.48
880.68	-0.25
880.967	6.45
881.255	34.03
881.542	-14.86
881.83	-11.35
882.117	0.94
882.404	-26.42
882.691	-26.37
882.978	-7.79
883.265	0.51
883.552	-2.56
883.839	0.91
884.126	5.75
884.413	1.71
884.699	0.36
884.986	6.16
885.273	2.42
885.559	2.42
885.846	2.42
