Data from 2019-21_forehead_Reflection__2__436.txt Node

Date: Thu Dec 15 20:19:46 CST 2022
User: ToomeyLab
Spectrometer: FLMS14357
Trigger mode: 0
Integration Time (sec): 1.000000E-2
Scans to average: 100
Electric dark correction enabled: true
Nonlinearity correction enabled: false
Boxcar width: 0
XAxis mode: Wavelengths
Number of Pixels in Spectrum: 2048
>>>>>Begin Spectral Data<<<<<
189.047	26.17
189.435	26.17
189.823	26.17
190.211	174.55
190.599	761.17
190.987	-2264.52
191.375	-22.22
191.763	349.35
192.151	-196.07
192.538	94.92
192.926	-136.63
193.314	11.95
193.702	-8.54
194.089	44.63
194.477	36.33
194.864	116.5
195.252	178.42
195.639	47
196.027	267.16
196.414	377.54
196.801	102.82
197.189	84.04
197.576	-35.51
197.963	62.48
198.351	18.71
198.738	-24.84
199.125	-104.47
199.512	11.75
199.899	-45.66
200.286	13.02
200.673	39.28
201.06	-11.37
201.447	-1.45
201.833	10.47
202.22	-17.11
202.607	25.29
202.994	37.02
203.38	27.04
203.767	-15.9
204.154	14
204.54	19.1
204.927	-42.66
205.313	32.72
205.699	26.07
206.086	17.45
206.472	25.22
206.858	-3.08
207.245	-18.08
207.631	-7.08
208.017	42.43
208.403	-80.99
208.789	19.2
209.175	-23.09
209.561	-144.92
209.947	-41.85
210.333	32.66
210.719	-0.4
211.105	37.76
211.491	24.6
211.876	-70.04
212.262	33.53
212.648	1.06
213.034	-20.12
213.419	6.42
213.805	-8.42
214.19	-53.85
214.576	-30.84
214.961	-2.97
215.346	-26.99
215.732	-4.65
216.117	16.42
216.502	-14.79
216.888	-18.94
217.273	7.88
217.658	13.6
218.043	-14.5
218.428	-15.75
218.813	23
219.198	-33.93
219.583	-23.56
219.968	-26.21
220.353	-29.25
220.738	-3.99
221.122	-0.85
221.507	-6.55
221.892	-34.16
222.276	-28.89
222.661	-6.46
223.046	-16.47
223.43	10.62
223.815	11.32
224.199	3.41
224.583	-9.75
224.968	4.75
225.352	-8.97
225.736	5.63
226.121	6.01
226.505	2.01
226.889	4.21
227.273	-4.86
227.657	4.04
228.041	6.59
228.425	1.04
228.809	2.85
229.193	5.98
229.577	4.93
229.961	5.52
230.344	5.45
230.728	5.49
231.112	5.71
231.495	3.24
231.879	5.08
232.263	5.68
232.646	4.89
233.03	7.24
233.413	4.98
233.797	3.63
234.18	5.49
234.563	4.53
234.946	3.39
235.33	4.47
235.713	5.41
236.096	6.84
236.479	6.85
236.862	4.92
237.245	4.85
237.628	5.12
238.011	5.51
238.394	5.79
238.777	6.17
239.16	4.32
239.543	5.41
239.925	4.71
240.308	3.35
240.691	5.64
241.073	5.27
241.456	5.8
241.838	5.31
242.221	5.72
242.603	5.11
242.986	5.08
243.368	5.87
243.75	5.67
244.133	5.74
244.515	5.99
244.897	4.98
245.279	5.2
245.661	5.19
246.043	5.22
246.425	5.58
246.807	5.57
247.189	5.2
247.571	5.15
247.953	5.25
248.335	5.48
248.717	5.59
249.098	5.63
249.48	5.43
249.862	5.15
250.243	5.68
250.625	5.31
251.006	5.86
251.388	5.11
251.769	5.06
252.151	5.72
252.532	4.61
252.913	5.37
253.295	5.34
253.676	5.42
254.057	5.74
254.438	5.5
254.819	5.1
255.2	5.42
255.581	5.71
255.962	6.15
256.343	5.76
256.724	5.64
257.105	4.92
257.486	4.45
257.867	4.6
258.247	5.89
258.628	5.59
259.009	4.75
259.389	4.19
259.77	4.9
260.15	5.73
260.531	5.48
260.911	5.27
261.292	5.53
261.672	5.16
262.052	5.25
262.432	4.88
262.813	5.34
263.193	5.29
263.573	4.84
263.953	4.55
264.333	4.98
264.713	5.07
265.093	5.42
265.473	5.59
265.853	5.56
266.233	5.41
266.612	4.77
266.992	5.45
267.372	4.81
267.752	5.32
268.131	5.06
268.511	5.03
268.89	5.19
269.27	4.97
269.649	4.93
270.029	5.12
270.408	4.6
270.787	5.05
271.167	5.02
271.546	5.81
271.925	5.11
272.304	4.83
272.683	4.85
273.062	5.13
273.441	4.91
273.82	5.03
274.199	4.77
274.578	5.1
274.957	4.89
275.336	5.07
275.715	5.54
276.093	4.59
276.472	4.92
276.851	4.98
277.229	4.39
277.608	4.25
277.986	4.92
278.365	5.49
278.743	4.89
279.122	4.87
279.5	4.89
279.878	4.6
280.257	4.59
280.635	4.91
281.013	4.62
281.391	4.68
281.769	5.12
282.147	4.43
282.525	4.42
282.903	4.62
283.281	5.47
283.659	5.23
284.037	4.88
284.415	4.86
284.792	4.73
285.17	4.57
285.548	4.92
285.925	4.81
286.303	5.37
286.68	4.97
287.058	4.7
287.435	4.9
287.813	5.02
288.19	4.65
288.567	4.81
288.945	4.99
289.322	4.54
289.699	4.98
290.076	5.04
290.453	4.5
290.83	4.6
291.207	5.03
291.584	5.21
291.961	4.97
292.338	4.76
292.715	4.69
293.092	5.31
293.469	4.56
293.845	4.88
294.222	5.86
294.599	4.73
294.975	4.85
295.352	5.4
295.728	5.13
296.105	5.26
296.481	5.67
296.858	5.06
297.234	4.85
297.61	5.49
297.986	5.23
298.363	5.25
298.739	5.56
299.115	5.4
299.491	5.11
299.867	4.89
300.243	4.9
300.619	5.04
300.995	5.13
301.371	5.17
301.746	5.39
302.122	4.77
302.498	4.82
302.874	5.36
303.249	5.31
303.625	5.11
304	5.79
304.376	5.7
304.751	5.86
305.127	5.6
305.502	5.21
305.878	5.55
306.253	5.47
306.628	5.78
307.003	5.05
307.378	5.19
307.754	5.34
308.129	5.19
308.504	5.74
308.879	5.35
309.254	5.54
309.629	5.71
310.003	4.98
310.378	5.42
310.753	5.57
311.128	5.05
311.502	5.53
311.877	5.68
312.252	5.54
312.626	5.96
313.001	5.64
313.375	5.77
313.75	5.74
314.124	5.77
314.498	6.06
314.873	5.78
315.247	6.09
315.621	5.88
315.995	6.34
316.369	5.49
316.743	5.66
317.117	5.59
317.491	6.47
317.865	4.79
318.239	6.31
318.613	5.78
318.987	5.79
319.361	5.81
319.734	5.69
320.108	6.19
320.482	6.53
320.855	6.07
321.229	5.96
321.602	5.9
321.976	5.6
322.349	6.3
322.723	5.6
323.096	6.09
323.469	6.27
323.843	5.63
324.216	5.84
324.589	6.16
324.962	5.97
325.335	6.28
325.708	6.45
326.081	6.37
326.454	6.2
326.827	6.51
327.2	5.75
327.573	6.1
327.945	6.22
328.318	6.12
328.691	6.15
329.063	5.77
329.436	5.65
329.809	6.82
330.181	6.75
330.553	6.29
330.926	6.46
331.298	6.56
331.671	6.58
332.043	6.1
332.415	6.25
332.787	6.59
333.159	6.16
333.532	6.66
333.904	6.55
334.276	6.41
334.648	6.12
335.02	6.39
335.391	6.25
335.763	6.07
336.135	6.45
336.507	6.57
336.879	6.98
337.25	7.07
337.622	6.5
337.993	6.59
338.365	6.39
338.736	6.67
339.108	6.47
339.479	6.29
339.851	6.7
340.222	7.21
340.593	6.57
340.964	6.76
341.336	6.54
341.707	6.38
342.078	6.65
342.449	6.45
342.82	6.53
343.191	6.19
343.562	6.68
343.933	6.38
344.303	6.69
344.674	6.86
345.045	6.43
345.416	7.09
345.786	6.47
346.157	6.41
346.527	6.76
346.898	6.37
347.268	6.92
347.639	6.66
348.009	6.94
348.38	6.36
348.75	7.02
349.12	7.27
349.49	6.75
349.861	6.97
350.231	6.69
350.601	6.71
350.971	6.35
351.341	6.75
351.711	6.59
352.081	6.34
352.45	6.59
352.82	6.15
353.19	6.89
353.56	7.19
353.929	7.22
354.299	6.98
354.669	6.93
355.038	6.8
355.408	6.59
355.777	6.92
356.147	6.65
356.516	6.71
356.885	6.73
357.254	6.49
357.624	6.41
357.993	6.82
358.362	6.76
358.731	7.07
359.1	7.16
359.469	6.77
359.838	6.69
360.207	6.86
360.576	6.92
360.945	6.87
361.314	6.76
361.682	6.95
362.051	7.1
362.42	6.79
362.788	6.82
363.157	6.72
363.525	7.07
363.894	6.79
364.262	6.97
364.631	7.2
364.999	7.19
365.367	6.86
365.735	6.76
366.104	6.95
366.472	6.91
366.84	7.01
367.208	7.14
367.576	6.98
367.944	7.1
368.312	6.97
368.68	7.54
369.048	6.8
369.416	6.98
369.783	7.3
370.151	7.41
370.519	7.51
370.886	7.17
371.254	7.21
371.621	7.49
371.989	7.31
372.356	7.05
372.724	7.1
373.091	6.92
373.458	6.94
373.826	7.48
374.193	7.42
374.56	7.24
374.927	7.28
375.294	7.33
375.661	7.32
376.028	7.53
376.395	7.3
376.762	7.12
377.129	6.92
377.496	7.21
377.863	7.12
378.229	7.46
378.596	7.16
378.963	7.39
379.329	7.38
379.696	7.24
380.062	7.44
380.429	7.17
380.795	7.37
381.161	7.19
381.528	6.91
381.894	7.1
382.26	7.85
382.626	7.46
382.993	7.75
383.359	7.38
383.725	6.99
384.091	7.43
384.457	7.28
384.823	7.6
385.188	7.64
385.554	7.46
385.92	7.4
386.286	7.4
386.651	7.5
387.017	7.9
387.383	7.64
387.748	7.54
388.114	7.36
388.479	7.64
388.845	7.21
389.21	7.59
389.575	7.89
389.94	7.7
390.306	7.65
390.671	7.64
391.036	7.55
391.401	7.79
391.766	7.75
392.131	7.73
392.496	7.77
392.861	7.62
393.226	7.47
393.591	7.73
393.956	7.67
394.32	7.72
394.685	7.52
395.05	7.85
395.414	7.72
395.779	7.97
396.143	7.56
396.508	7.6
396.872	7.64
397.236	7.89
397.601	7.62
397.965	7.72
398.329	7.81
398.694	7.6
399.058	7.71
399.422	7.61
399.786	7.78
400.15	7.77
400.514	7.69
400.878	7.71
401.242	7.83
401.605	7.76
401.969	7.79
402.333	7.74
402.697	7.89
403.06	7.83
403.424	7.92
403.787	7.84
404.151	7.71
404.514	7.74
404.878	7.8
405.241	7.92
405.604	7.76
405.968	7.84
406.331	7.96
406.694	7.73
407.057	7.65
407.42	7.72
407.783	7.96
408.146	7.83
408.509	8.23
408.872	8.01
409.235	7.92
409.598	7.71
409.961	8.16
410.323	7.62
410.686	7.9
411.049	7.98
411.411	8.05
411.774	7.75
412.136	7.75
412.499	8.15
412.861	7.75
413.223	7.89
413.586	7.81
413.948	7.88
414.31	8.04
414.672	7.98
415.035	8.18
415.397	8.06
415.759	7.87
416.121	8.11
416.483	8.01
416.845	8.08
417.206	7.98
417.568	8.06
417.93	7.94
418.292	8.1
418.653	7.89
419.015	8.08
419.377	8.03
419.738	8.06
420.1	8.12
420.461	7.91
420.822	8.17
421.184	8.05
421.545	8.18
421.906	8
422.267	7.96
422.629	8.01
422.99	7.98
423.351	8.05
423.712	8.17
424.073	8.11
424.434	8.24
424.795	8.02
425.155	7.91
425.516	8.08
425.877	8.15
426.238	8.18
426.598	8.13
426.959	8.12
427.32	8.1
427.68	8.24
428.041	8.23
428.401	8.2
428.761	8.42
429.122	8.31
429.482	8.37
429.842	8.4
430.202	8.48
430.563	8.19
430.923	8.39
431.283	8.58
431.643	8.68
432.003	8.6
432.363	8.71
432.722	8.5
433.082	8.52
433.442	8.65
433.802	8.54
434.161	8.55
434.521	8.5
434.881	8.55
435.24	8.63
435.6	8.66
435.959	8.68
436.319	8.68
436.678	8.58
437.037	8.71
437.396	8.69
437.756	8.58
438.115	8.69
438.474	8.7
438.833	8.77
439.192	8.86
439.551	8.71
439.91	8.79
440.269	8.79
440.628	8.69
440.987	8.74
441.345	8.75
441.704	8.56
442.063	8.64
442.421	8.62
442.78	8.77
443.138	8.8
443.497	8.74
443.855	8.94
444.214	8.66
444.572	9.03
444.93	8.9
445.288	8.85
445.647	8.77
446.005	8.97
446.363	8.94
446.721	9.01
447.079	8.92
447.437	8.99
447.795	8.92
448.153	8.82
448.51	8.97
448.868	8.89
449.226	9.04
449.584	9.05
449.941	9.08
450.299	9.13
450.656	9.11
451.014	9.21
451.371	9.16
451.729	9.27
452.086	9.24
452.443	9.24
452.801	9.44
453.158	9.36
453.515	9.24
453.872	9.28
454.229	9.19
454.586	9.1
454.943	9.52
455.3	9.35
455.657	9.22
456.014	9.32
456.371	9.46
456.727	9.65
457.084	9.46
457.441	9.3
457.797	9.36
458.154	9.44
458.51	9.27
458.867	9.44
459.223	9.39
459.58	9.54
459.936	9.58
460.292	9.45
460.648	9.37
461.005	9.39
461.361	9.34
461.717	9.35
462.073	9.47
462.429	9.54
462.785	9.72
463.141	9.59
463.496	9.62
463.852	9.72
464.208	9.64
464.564	9.56
464.919	9.89
465.275	9.66
465.631	9.87
465.986	9.8
466.342	9.69
466.697	9.62
467.052	10.15
467.408	9.92
467.763	9.97
468.118	9.64
468.473	9.89
468.829	9.63
469.184	9.99
469.539	9.75
469.894	9.86
470.249	10.04
470.603	10.05
470.958	10
471.313	10.14
471.668	10.05
472.023	10.21
472.377	9.93
472.732	10.15
473.086	10.17
473.441	10.04
473.795	10.2
474.15	10.11
474.504	10.29
474.859	10.01
475.213	10.22
475.567	10.05
475.921	10.2
476.275	10.1
476.63	10.35
476.984	10.21
477.338	10.31
477.692	10.18
478.045	10.23
478.399	10.26
478.753	10.21
479.107	10.4
479.461	10.22
479.814	10.23
480.168	10.3
480.521	10.48
480.875	10.32
481.228	10.45
481.582	10.47
481.935	10.52
482.289	10.32
482.642	10.47
482.995	10.36
483.348	10.35
483.701	10.35
484.055	10.32
484.408	10.28
484.761	9.99
485.114	9.91
485.466	9.89
485.819	9.95
486.172	9.93
486.525	10.03
486.878	10.16
487.23	10.22
487.583	10.29
487.936	10.3
488.288	10.29
488.641	10.19
488.993	10.24
489.345	10.18
489.698	10.19
490.05	10.2
490.402	10.34
490.754	10.37
491.107	10.46
491.459	10.6
491.811	10.58
492.163	10.58
492.515	10.44
492.866	10.34
493.218	10.33
493.57	10.41
493.922	10.41
494.274	10.65
494.625	10.64
494.977	10.76
495.328	10.74
495.68	10.87
496.031	11.01
496.383	10.94
496.734	10.97
497.086	11.09
497.437	11.13
497.788	11.15
498.139	10.87
498.49	11.05
498.842	11
499.193	10.86
499.544	11.11
499.894	11.07
500.245	11.12
500.596	11.14
500.947	11.12
501.298	11.15
501.648	11.19
501.999	11.35
502.35	11.2
502.7	11.46
503.051	11.33
503.401	11.44
503.752	11.25
504.102	11.36
504.452	11.22
504.803	11.27
505.153	11.43
505.503	11.45
505.853	11.39
506.203	11.5
506.553	11.44
506.903	11.39
507.253	11.57
507.603	11.41
507.953	11.57
508.303	11.48
508.652	11.44
509.002	11.51
509.352	11.56
509.701	11.39
510.051	11.64
510.4	11.56
510.75	11.43
511.099	11.44
511.449	11.68
511.798	11.46
512.147	11.45
512.496	11.48
512.846	11.46
513.195	11.65
513.544	11.68
513.893	11.67
514.242	11.6
514.591	11.71
514.939	11.72
515.288	11.74
515.637	11.74
515.986	11.81
516.334	11.81
516.683	11.85
517.032	11.8
517.38	11.83
517.729	11.79
518.077	11.85
518.426	12.01
518.774	11.8
519.122	11.89
519.47	11.8
519.819	11.71
520.167	11.67
520.515	11.76
520.863	11.7
521.211	11.79
521.559	11.77
521.907	11.89
522.255	11.92
522.602	12.11
522.95	12.06
523.298	12.05
523.645	12.08
523.993	12.18
524.341	12.15
524.688	11.97
525.036	12.08
525.383	12.2
525.73	12.12
526.078	12.15
526.425	12.06
526.772	12.05
527.119	12.03
527.466	12.11
527.814	12.05
528.161	12.07
528.508	12.12
528.854	12.08
529.201	11.91
529.548	11.86
529.895	11.68
530.242	11.7
530.588	11.66
530.935	11.76
531.282	11.78
531.628	11.9
531.975	11.94
532.321	12.11
532.667	12.26
533.014	12.33
533.36	12.36
533.706	12.34
534.052	12.18
534.399	12.15
534.745	12.09
535.091	12
535.437	12.1
535.783	12.15
536.129	12.21
536.474	12.29
536.82	12.35
537.166	12.37
537.512	12.51
537.857	12.45
538.203	12.39
538.549	12.35
538.894	12.43
539.239	12.52
539.585	12.58
539.93	12.81
540.276	12.71
540.621	12.83
540.966	12.71
541.311	12.89
541.656	12.81
542.001	12.61
542.346	12.39
542.691	12.41
543.036	12.37
543.381	12.35
543.726	12.4
544.071	12.44
544.415	12.53
544.76	12.59
545.105	12.64
545.449	12.7
545.794	12.76
546.138	12.84
546.483	12.97
546.827	12.97
547.171	12.93
547.516	13.03
547.86	13.03
548.204	12.99
548.548	13.09
548.892	12.98
549.236	12.93
549.58	13.15
549.924	13.15
550.268	13.39
550.612	13.31
550.956	13.49
551.3	13.56
551.643	13.44
551.987	13.59
552.33	13.48
552.674	13.58
553.017	13.65
553.361	13.51
553.704	13.73
554.048	13.51
554.391	13.5
554.734	13.35
555.077	13.55
555.42	13.4
555.764	13.64
556.107	13.7
556.45	13.67
556.793	13.78
557.135	13.85
557.478	13.99
557.821	13.81
558.164	13.78
558.507	14.06
558.849	13.86
559.192	13.85
559.534	13.78
559.877	13.81
560.219	14
560.562	13.88
560.904	14.09
561.246	13.93
561.589	14.12
561.931	14
562.273	14.07
562.615	13.94
562.957	13.88
563.299	14.07
563.641	14.06
563.983	13.97
564.325	14.22
564.667	14.1
565.008	14.17
565.35	14.12
565.692	14.26
566.033	14.29
566.375	14.33
566.716	14.1
567.058	14.16
567.399	14.18
567.741	14.21
568.082	14.15
568.423	14.17
568.764	14.34
569.105	14.32
569.447	14.3
569.788	14.3
570.129	14.35
570.47	14.28
570.811	14.36
571.151	14.42
571.492	14.49
571.833	14.4
572.174	14.59
572.514	14.6
572.855	14.68
573.195	14.3
573.536	14.33
573.876	14.46
574.217	14.36
574.557	14.52
574.898	14.47
575.238	14.61
575.578	14.74
575.918	14.73
576.258	14.77
576.598	14.69
576.938	14.63
577.278	14.69
577.618	14.68
577.958	14.76
578.298	14.68
578.638	14.77
578.977	14.9
579.317	14.78
579.657	14.95
579.996	15
580.336	15.05
580.675	14.81
581.014	15.13
581.354	15
581.693	15.46
582.032	15.14
582.372	15.34
582.711	15.18
583.05	15.16
583.389	15.3
583.728	15.48
584.067	15.05
584.406	15.25
584.745	15.08
585.083	15.3
585.422	15.68
585.761	15.24
586.1	15.32
586.438	15.4
586.777	15.52
587.115	15.64
587.454	15.3
587.792	15.29
588.13	15.58
588.469	15.26
588.807	15.6
589.145	15.48
589.483	15.35
589.821	15.43
590.159	15.63
590.497	15.52
590.835	15.73
591.173	15.64
591.511	15.71
591.849	15.69
592.187	15.62
592.524	15.79
592.862	15.69
593.2	15.98
593.537	15.69
593.875	15.86
594.212	15.65
594.55	15.76
594.887	15.77
595.224	15.98
595.561	15.74
595.899	15.83
596.236	16
596.573	15.79
596.91	15.86
597.247	15.99
597.584	15.96
597.921	16.02
598.258	16
598.594	15.71
598.931	15.7
599.268	15.69
599.604	15.91
599.941	15.64
600.277	16.21
600.614	16.03
600.95	15.91
601.287	15.81
601.623	15.97
601.959	16.23
602.296	16.3
602.632	16.01
602.968	15.96
603.304	16.23
603.64	16.3
603.976	16.35
604.312	16.25
604.648	16.25
604.984	16.14
605.319	16.22
605.655	16.02
605.991	16.16
606.326	16.15
606.662	15.96
606.998	16.13
607.333	16.25
607.668	16.31
608.004	16.16
608.339	16.19
608.674	16.27
609.01	16.49
609.345	16.53
609.68	16.19
610.015	16.76
610.35	16.41
610.685	16.19
611.02	16.33
611.355	16.31
611.689	16.19
612.024	16.51
612.359	16.55
612.694	16.64
613.028	16.4
613.363	16.65
613.697	16.62
614.032	16.69
614.366	16.78
614.7	16.71
615.035	16.88
615.369	16.76
615.703	17.05
616.037	16.72
616.371	16.59
616.705	17.14
617.039	16.87
617.373	16.99
617.707	16.7
618.041	16.71
618.375	16.36
618.709	17.12
619.042	16.79
619.376	17.17
619.71	16.72
620.043	17.32
620.377	16.78
620.71	16.91
621.043	17.09
621.377	17.14
621.71	17.39
622.043	17.25
622.376	16.81
622.709	17.27
623.043	17.21
623.376	16.69
623.709	17.24
624.041	16.81
624.374	17.17
624.707	16.86
625.04	17.32
625.373	17.33
625.705	17.22
626.038	17.34
626.37	17.09
626.703	17.28
627.035	17.02
627.368	17.25
627.7	17.01
628.032	16.99
628.365	17.45
628.697	17.51
629.029	17.36
629.361	17.32
629.693	16.93
630.025	17.24
630.357	17.28
630.689	17.73
631.021	17.54
631.353	17.54
631.684	17.4
632.016	16.77
632.348	16.97
632.679	17.58
633.011	17.67
633.342	17.59
633.674	17.15
634.005	17.59
634.336	17.91
634.668	17.54
634.999	17.55
635.33	17.5
635.661	17.73
635.992	17.64
636.323	17.56
636.654	17.78
636.985	17.83
637.316	17.57
637.647	17.73
637.977	17.38
638.308	17.96
638.639	17.92
638.969	17.83
639.3	17.66
639.63	18.07
639.961	17.59
640.291	17.58
640.622	18.08
640.952	18.13
641.282	17.48
641.612	17.54
641.943	17.62
642.273	18
642.603	18.23
642.933	18.34
643.263	18.04
643.592	18.21
643.922	18.72
644.252	18.36
644.582	18.44
644.911	18.3
645.241	17.81
645.571	18.37
645.9	18.26
646.23	18.27
646.559	17.88
646.888	18.83
647.218	18.44
647.547	18.29
647.876	18.52
648.205	18.44
648.534	18.34
648.863	18.51
649.192	18.53
649.521	18.41
649.85	18.74
650.179	18.6
650.508	18.07
650.837	18.73
651.165	18.85
651.494	18.48
651.822	18.83
652.151	18.45
652.479	18.61
652.808	18.35
653.136	18.77
653.465	18.4
653.793	18.65
654.121	18.79
654.449	18.93
654.777	18.69
655.105	18.74
655.433	18.82
655.761	18.85
656.089	18.88
656.417	19.47
656.745	19
657.073	19.1
657.4	18.77
657.728	18.63
658.056	18.82
658.383	18.66
658.711	19.09
659.038	19.26
659.365	19.54
659.693	18.77
660.02	18.66
660.347	19.19
660.674	19.04
661.001	18.65
661.329	19.04
661.656	19.08
661.982	19.08
662.309	18.98
662.636	18.9
662.963	19.09
663.29	19.44
663.616	19.21
663.943	19.06
664.27	18.84
664.596	19.17
664.923	19.19
665.249	19.71
665.576	19.43
665.902	19.2
666.228	19.58
666.554	20.07
666.881	19.62
667.207	19.77
667.533	19.81
667.859	19.44
668.185	19.47
668.511	20.03
668.837	19.31
669.162	19.52
669.488	19.15
669.814	19.16
670.139	19.45
670.465	20.56
670.791	19.12
671.116	19.59
671.442	19.77
671.767	19.79
672.092	19.35
672.418	19.69
672.743	19.68
673.068	19.82
673.393	19.57
673.718	19.89
674.043	19.93
674.368	19.69
674.693	20.61
675.018	20.55
675.343	20.34
675.667	20.41
675.992	20.8
676.317	19.95
676.641	20.28
676.966	20.54
677.29	19.3
677.615	19.42
677.939	20.3
678.264	19.97
678.588	20.69
678.912	20.15
679.236	20.49
679.56	19.78
679.885	20.16
680.209	20.33
680.532	21.17
680.856	20.95
681.18	20.34
681.504	20.21
681.828	20.42
682.152	20.76
682.475	20.81
682.799	20.09
683.122	20.71
683.446	20.45
683.769	20.86
684.093	20.57
684.416	20.45
684.739	20.43
685.062	21.06
685.386	20.8
685.709	20.53
686.032	20.67
686.355	21.2
686.678	21.4
687.001	20.74
687.324	21.43
687.646	20.82
687.969	20.75
688.292	20.39
688.614	20.74
688.937	21.18
689.26	21.58
689.582	20.57
689.904	20.72
690.227	21.68
690.549	21.05
690.871	21.05
691.194	20.54
691.516	21.28
691.838	20.94
692.16	19.86
692.482	21.63
692.804	21.14
693.126	20.66
693.448	21.44
693.769	21.47
694.091	21.13
694.413	21.51
694.735	21.06
695.056	21.66
695.378	20.78
695.699	21.35
696.021	21.29
696.342	20.99
696.663	21.9
696.984	20.77
697.306	21.13
697.627	21.48
697.948	20.94
698.269	21.23
698.59	21.91
698.911	20.71
699.232	21.88
699.553	21.2
699.873	21.35
700.194	21.54
700.515	21.69
700.835	21.49
701.156	22.18
701.477	21.36
701.797	20.9
702.117	21.6
702.438	21.64
702.758	21.21
703.078	21.72
703.398	21.19
703.719	21.92
704.039	22.46
704.359	20.97
704.679	20.69
704.999	22.04
705.319	21.25
705.638	21.71
705.958	22.28
706.278	21.43
706.597	21.73
706.917	22.09
707.237	21.97
707.556	22.65
707.876	22.15
708.195	21.81
708.514	21.81
708.834	21.87
709.153	22.76
709.472	22.65
709.791	21.26
710.11	21.81
710.429	21.78
710.748	22.29
711.067	22.85
711.386	22
711.705	21.72
712.023	23.05
712.342	21.05
712.661	22.78
712.979	22.19
713.298	22.8
713.616	22.73
713.935	22.75
714.253	22.26
714.572	20.94
714.89	22.78
715.208	23.08
715.526	23.22
715.844	22.12
716.162	22.92
716.48	23.33
716.798	22.57
717.116	22.92
717.434	22.44
717.752	23.34
718.069	22.35
718.387	21.91
718.705	22.68
719.022	22.9
719.34	22.35
719.657	22.07
719.975	22.18
720.292	22.04
720.609	21.58
720.927	21.99
721.244	23.49
721.561	22.18
721.878	23.27
722.195	23.85
722.512	22.03
722.829	21.54
723.146	21.88
723.463	23.14
723.779	21.1
724.096	22.45
724.413	23.04
724.729	23.14
725.046	23.08
725.362	23.56
725.679	21.86
725.995	20.01
726.311	23.06
726.628	22.29
726.944	22.98
727.26	23.73
727.576	23.51
727.892	22.86
728.208	21.85
728.524	21.56
728.84	22.2
729.156	23.56
729.472	21.76
729.787	23.13
730.103	23.15
730.419	21.79
730.734	22.82
731.05	22.88
731.365	24.43
731.681	23.33
731.996	23.52
732.311	22.73
732.626	23.48
732.942	23.56
733.257	23.94
733.572	22.66
733.887	24.05
734.202	23.82
734.517	23.92
734.832	23.09
735.146	23.79
735.461	24.08
735.776	24.26
736.091	24.43
736.405	24.58
736.72	21.93
737.034	23.14
737.349	23.87
737.663	23.54
737.977	24.06
738.292	23.5
738.606	23.38
738.92	23.51
739.234	23.58
739.548	23.35
739.862	25.31
740.176	22.68
740.49	22.62
740.804	23.72
741.117	23.5
741.431	24.12
741.745	23.27
742.058	22.54
742.372	22.81
742.685	23.34
742.999	23.43
743.312	24.25
743.626	24.8
743.939	22.82
744.252	22.97
744.565	24.84
744.878	23.18
745.191	23.25
745.505	21.58
745.817	24.06
746.13	23.67
746.443	22.96
746.756	25.79
747.069	23.59
747.381	24.79
747.694	23.63
748.007	23.89
748.319	24.06
748.632	24.38
748.944	22.86
749.256	24.68
749.569	23.95
749.881	22.91
750.193	24.2
750.505	23.98
750.817	24.28
751.129	24.52
751.441	24.56
751.753	26.55
752.065	23.58
752.377	24.17
752.689	22.78
753	25.57
753.312	23.5
753.624	22.99
753.935	23.57
754.247	23.35
754.558	22.79
754.869	25.09
755.181	24.32
755.492	24.09
755.803	25.94
756.114	24.72
756.425	22.42
756.736	25.55
757.047	25.75
757.358	24.15
757.669	25.71
757.98	22.73
758.291	24.82
758.601	24.29
758.912	23.58
759.223	24.02
759.533	24.44
759.844	24.03
760.154	25.39
760.464	25.81
760.775	26.09
761.085	23.71
761.395	23.07
761.705	23.78
762.016	25.04
762.326	26.11
762.636	25.81
762.945	22.82
763.255	23.88
763.565	25.08
763.875	24.46
764.185	25.89
764.494	24.76
764.804	23.54
765.113	25.14
765.423	25.55
765.732	24.87
766.042	26.3
766.351	26.2
766.66	24.65
766.97	24.92
767.279	26
767.588	24.56
767.897	25.35
768.206	26.21
768.515	25.79
768.824	25.86
769.133	23.66
769.441	24.37
769.75	23.68
770.059	25.36
770.367	25.98
770.676	24.15
770.984	24.77
771.293	25.58
771.601	24.12
771.91	24.74
772.218	25.92
772.526	23.03
772.834	23.77
773.142	24.64
773.45	26.31
773.758	26.64
774.066	27.58
774.374	27.26
774.682	24.52
774.99	24.64
775.298	24.71
775.605	24.51
775.913	22.62
776.22	23.39
776.528	23.72
776.835	27.72
777.143	25.57
777.45	23.99
777.757	26.27
778.065	25.28
778.372	20.7
778.679	24.48
778.986	28.18
779.293	24.38
779.6	24.68
779.907	24.94
780.214	25.77
780.52	25.57
780.827	24.78
781.134	26.1
781.44	29.16
781.747	26.92
782.053	28.96
782.36	22.28
782.666	23.66
782.973	22.1
783.279	25.13
783.585	28.04
783.891	22.86
784.197	28.27
784.503	24.79
784.809	25.96
785.115	25.07
785.421	25.64
785.727	30.75
786.033	23.95
786.339	27.15
786.644	21.36
786.95	24.42
787.255	18.59
787.561	25.03
787.866	24.09
788.172	24.63
788.477	24.62
788.782	24.07
789.088	20.74
789.393	24.79
789.698	22.87
790.003	25.22
790.308	26.32
790.613	26.08
790.918	25.92
791.223	28.23
791.527	27.77
791.832	25.06
792.137	26.56
792.441	23.96
792.746	26.26
793.05	26.16
793.355	24.76
793.659	26.43
793.963	26.71
794.268	26.73
794.572	22.42
794.876	23.17
795.18	27.89
795.484	27.66
795.788	24.73
796.092	22.91
796.396	22.24
796.7	19.67
797.004	20.17
797.307	24.59
797.611	24.49
797.915	26.24
798.218	23.79
798.522	21.42
798.825	29.91
799.128	23.14
799.432	19.95
799.735	21.6
800.038	24.51
800.341	27.93
800.644	21.56
800.947	27.22
801.25	28.16
801.553	31.05
801.856	28.49
802.159	24.01
802.462	26.16
802.764	29.68
803.067	25.35
803.37	23.2
803.672	21.94
803.975	24.63
804.277	26.49
804.579	27.38
804.882	23.97
805.184	24.16
805.486	27.35
805.788	26.45
806.09	19.83
806.392	25.93
806.694	26.26
806.996	27.52
807.298	20.06
807.6	24.55
807.902	27.2
808.203	19.11
808.505	22.8
808.807	26.3
809.108	23.18
809.409	28.52
809.711	23.01
810.012	26.59
810.313	26.41
810.615	23.78
810.916	25.02
811.217	21.46
811.518	26.67
811.819	28.83
812.12	25.06
812.421	18.24
812.722	22.79
813.023	26.1
813.323	29.39
813.624	26.55
813.925	29.95
814.225	26.54
814.526	15.53
814.826	26.77
815.126	21.39
815.427	22.15
815.727	27.89
816.027	26.58
816.327	23.85
816.627	24.39
816.927	20.07
817.227	21.34
817.527	23.5
817.827	23.93
818.127	29.79
818.427	24.66
818.727	18.49
819.026	22.67
819.326	22.16
819.625	21.56
819.925	28.06
820.224	30.24
820.524	25.58
820.823	25.24
821.122	20.3
821.421	26.39
821.72	24.99
822.019	24.42
822.318	30.64
822.617	25.44
822.916	24.16
823.215	26.01
823.514	28.31
823.813	27.57
824.111	26.31
824.41	28.51
824.709	29.35
825.007	27.88
825.306	28.86
825.604	28.56
825.902	28.37
826.201	28.16
826.499	28.38
826.797	27.08
827.095	27.89
827.393	29.96
827.691	27.74
827.989	29.76
828.287	27.58
828.585	28.4
828.882	26.12
829.18	27.28
829.478	29.81
829.775	29.01
830.073	29.71
830.37	28.44
830.668	28.25
830.965	29.45
831.263	27.69
831.56	28.82
831.857	29.15
832.154	27.64
832.451	31.29
832.748	26.01
833.045	29.84
833.342	23.47
833.639	24.27
833.936	19.46
834.232	24.28
834.529	27.95
834.826	33.67
835.122	22.01
835.419	29.18
835.715	26.91
836.012	27.82
836.308	27.96
836.604	26.9
836.901	27.41
837.197	29.01
837.493	26.52
837.789	31.16
838.085	24.43
838.381	29.17
838.677	27.05
838.972	26
839.268	24.27
839.564	27.69
839.86	20.07
840.155	31.66
840.451	28.76
840.746	26.55
841.042	29.39
841.337	22.61
841.632	12.91
841.928	29.39
842.223	22.72
842.518	21.76
842.813	20.31
843.108	28.79
843.403	29.42
843.698	23.5
843.993	29.04
844.287	27.72
844.582	22.78
844.877	18.94
845.171	27.17
845.466	22.57
845.761	27.22
846.055	24.76
846.349	28.8
846.644	23.25
846.938	38.18
847.232	29.54
847.526	7.51
847.82	16.59
848.114	20.6
848.408	17.05
848.702	22.78
848.996	32.61
849.29	24.46
849.584	18.63
849.877	15.82
850.171	25.95
850.465	-1.57
850.758	13.14
851.052	6.39
851.345	9.71
851.638	9.85
851.932	10.33
852.225	25.73
852.518	9.71
852.811	4.95
853.104	19.74
853.397	34.31
853.69	25.98
853.983	40.92
854.276	18.74
854.569	15.67
854.861	6.52
855.154	34.03
855.447	12.24
855.739	-20.56
856.032	20.99
856.324	23.84
856.616	23.39
856.909	4.81
857.201	-12.66
857.493	8.11
857.785	17.57
858.077	21.3
858.369	19.55
858.661	7.93
858.953	32.22
859.245	23.26
859.537	14.39
859.829	-1.98
860.12	12.81
860.412	8.15
860.703	29.83
860.995	26.59
861.286	-16.59
861.578	26.38
861.869	23.45
862.16	19.59
862.452	-5.36
862.743	24.37
863.034	2.33
863.325	10.92
863.616	29.93
863.907	40.41
864.198	-14.21
864.488	-3.28
864.779	45.02
865.07	8.71
865.36	24.4
865.651	35.02
865.941	4.74
866.232	17.54
866.522	25.91
866.813	31.62
867.103	7.68
867.393	10.7
867.683	32.61
867.973	27.56
868.263	6.99
868.553	29.6
868.843	13.92
869.133	10.21
869.423	16.66
869.713	-26.8
870.002	17.28
870.292	12.81
870.582	4.66
870.871	37.03
871.161	38.89
871.45	32.55
871.739	30.13
872.029	4.06
872.318	34.95
872.607	31.38
872.896	25.68
873.185	45.65
873.474	-0.03
873.763	50.18
874.052	10.13
874.341	32.01
874.63	12.42
874.918	35.35
875.207	-23.64
875.496	40.89
875.784	10.73
876.073	-0.36
876.361	45.09
876.649	8.78
876.938	31.46
877.226	20.09
877.514	32.92
877.802	-2.09
878.09	15.99
878.378	24.51
878.666	45.2
878.954	27.77
879.242	31.38
879.53	29.26
879.817	4.79
880.105	40.23
880.392	20.44
880.68	7.47
880.967	-2.25
881.255	23.01
881.542	38.1
881.83	9.49
882.117	23.29
882.404	9.59
882.691	27.06
882.978	20.21
883.265	12.03
883.552	26.89
883.839	19.37
884.126	14.38
884.413	25.08
884.699	32
884.986	31.61
885.273	28.67
885.559	28.67
885.846	28.67
