Data from 0404_crown_Reflection__4__101.txt Node

Date: Fri Dec 15 17:21:20 CST 2023
User: ToomeyLab
Spectrometer: FLMS14357
Trigger mode: 0
Integration Time (sec): 1.000000E-2
Scans to average: 100
Electric dark correction enabled: true
Nonlinearity correction enabled: false
Boxcar width: 0
XAxis mode: Wavelengths
Number of Pixels in Spectrum: 2048
>>>>>Begin Spectral Data<<<<<
189.047	-99.97
189.435	-99.97
189.823	-99.97
190.211	33.02
190.599	-94.84
190.987	360.47
191.375	10.15
191.763	144.44
192.151	50.25
192.538	58.36
192.926	-85.38
193.314	196
193.702	-701.89
194.089	-365.29
194.477	80.49
194.864	-168.87
195.252	58.38
195.639	88.79
196.027	-37.16
196.414	132.09
196.801	820.53
197.189	96.95
197.576	24.77
197.963	-258.28
198.351	-136.73
198.738	-0.78
199.125	17.21
199.512	5.42
199.899	73.21
200.286	-5.07
200.673	53.76
201.06	7.71
201.447	-6.77
201.833	23.81
202.22	36.7
202.607	1.66
202.994	18.61
203.38	34.02
203.767	9.8
204.154	21.78
204.54	16.3
204.927	-49.01
205.313	-16.92
205.699	20.02
206.086	43.05
206.472	6.97
206.858	30.94
207.245	-13.3
207.631	33.47
208.017	40.02
208.403	15.57
208.789	18.15
209.175	-19.75
209.561	-17.79
209.947	23.82
210.333	-37.76
210.719	56.51
211.105	49.65
211.491	16.61
211.876	10.58
212.262	10.65
212.648	39.1
213.034	2.62
213.419	-38.21
213.805	-14.04
214.19	-8.55
214.576	26.34
214.961	11.31
215.346	-55.79
215.732	-14.55
216.117	-17.36
216.502	-11.06
216.888	0.81
217.273	24.3
217.658	-16.55
218.043	-1.49
218.428	-25.59
218.813	-20.04
219.198	-30.66
219.583	22.59
219.968	18.58
220.353	9.05
220.738	28.04
221.122	3.9
221.507	-18.77
221.892	-24.05
222.276	-32.01
222.661	-4.76
223.046	16.27
223.43	18.6
223.815	16.9
224.199	-9.81
224.583	-3.08
224.968	1.1
225.352	26.79
225.736	-5.94
226.121	-8.86
226.505	12.34
226.889	2.98
227.273	-0.92
227.657	13.34
228.041	5.08
228.425	5.55
228.809	6.21
229.193	4.51
229.577	4.04
229.961	4.79
230.344	3.46
230.728	3.94
231.112	3.57
231.495	4.13
231.879	2.55
232.263	6.3
232.646	5.54
233.03	6.14
233.413	3.21
233.797	4.52
234.18	5.04
234.563	4.4
234.946	4.19
235.33	3.39
235.713	4.92
236.096	3.52
236.479	6.09
236.862	2.34
237.245	5.5
237.628	4.74
238.011	2.74
238.394	4.66
238.777	5.99
239.16	-0.14
239.543	4.47
239.925	3.15
240.308	3.82
240.691	3.86
241.073	5.01
241.456	4.35
241.838	2.77
242.221	2.12
242.603	4.44
242.986	3.82
243.368	4.28
243.75	4.34
244.133	3.7
244.515	4.12
244.897	3.91
245.279	4.3
245.661	2.76
246.043	3.7
246.425	1.65
246.807	5.34
247.189	4.2
247.571	3.97
247.953	4.27
248.335	3.89
248.717	3.88
249.098	3.75
249.48	4.07
249.862	4.07
250.243	3.68
250.625	4.3
251.006	4.72
251.388	2.21
251.769	4.07
252.151	4.83
252.532	4.28
252.913	3.14
253.295	2.73
253.676	3.69
254.057	3.92
254.438	3.83
254.819	3.78
255.2	3.97
255.581	4.76
255.962	2.59
256.343	3.91
256.724	2.28
257.105	3.94
257.486	3.61
257.867	5.82
258.247	4.48
258.628	3.47
259.009	2.87
259.389	4.34
259.77	2.6
260.15	3.14
260.531	2.94
260.911	4.21
261.292	3.75
261.672	3.55
262.052	3.56
262.432	3.97
262.813	4.34
263.193	4.2
263.573	3.65
263.953	3.85
264.333	4.2
264.713	3.84
265.093	2.82
265.473	4.67
265.853	2.96
266.233	3.94
266.612	2.47
266.992	4.2
267.372	3.48
267.752	3.64
268.131	3.78
268.511	4.51
268.89	4.32
269.27	3
269.649	3.36
270.029	3.72
270.408	5.17
270.787	3.96
271.167	3.77
271.546	4.18
271.925	3.59
272.304	3.47
272.683	3.66
273.062	3.27
273.441	3.82
273.82	3.18
274.199	3.46
274.578	3.58
274.957	3.88
275.336	3.9
275.715	3.1
276.093	3.94
276.472	3.57
276.851	3.26
277.229	3.14
277.608	2.55
277.986	3.47
278.365	3.6
278.743	3.12
279.122	3.02
279.5	3.7
279.878	3.53
280.257	3.32
280.635	3
281.013	3.19
281.391	4.37
281.769	3.46
282.147	2.97
282.525	3.89
282.903	3.4
283.281	3.82
283.659	3.61
284.037	3.76
284.415	3.5
284.792	4.02
285.17	2.1
285.548	2.29
285.925	3.41
286.303	3.64
286.68	2.72
287.058	3.37
287.435	3.15
287.813	3.16
288.19	3.42
288.567	3.29
288.945	4.29
289.322	3.07
289.699	3.04
290.076	3.1
290.453	3.51
290.83	3.64
291.207	3.07
291.584	3.36
291.961	3.9
292.338	3.29
292.715	3.83
293.092	3.67
293.469	3.66
293.845	3.71
294.222	2.98
294.599	3.77
294.975	3.19
295.352	3.74
295.728	2.95
296.105	2.88
296.481	3.82
296.858	3
297.234	2.89
297.61	3.47
297.986	3.55
298.363	3.5
298.739	3.53
299.115	2.73
299.491	2.71
299.867	2.97
300.243	3.88
300.619	2.83
300.995	3.41
301.371	3.91
301.746	2.61
302.122	3.54
302.498	2.77
302.874	3.42
303.249	3.33
303.625	3.14
304	3.66
304.376	3.5
304.751	2.6
305.127	3.92
305.502	2.79
305.878	2.53
306.253	3.49
306.628	3.57
307.003	3.54
307.378	3.1
307.754	3.51
308.129	2.95
308.504	2.87
308.879	3
309.254	3.84
309.629	3.36
310.003	2.93
310.378	3.6
310.753	3.64
311.128	3.25
311.502	3.02
311.877	3.6
312.252	2.85
312.626	2.93
313.001	2.98
313.375	3.46
313.75	2.82
314.124	3.47
314.498	3.62
314.873	3.06
315.247	2.71
315.621	3.02
315.995	1.82
316.369	3.13
316.743	2.81
317.117	3.51
317.491	2.9
317.865	3
318.239	2.48
318.613	2.85
318.987	3.46
319.361	2.77
319.734	3.83
320.108	3.17
320.482	2.92
320.855	3.97
321.229	2.64
321.602	2.73
321.976	2.96
322.349	3.02
322.723	2.51
323.096	2.41
323.469	2.26
323.843	3.17
324.216	3.62
324.589	2.53
324.962	2.75
325.335	3.04
325.708	2.47
326.081	2.32
326.454	2.43
326.827	2.94
327.2	2.72
327.573	3.2
327.945	2.66
328.318	2.42
328.691	2.55
329.063	2.9
329.436	2.36
329.809	3.08
330.181	2.49
330.553	2.7
330.926	3.2
331.298	2.39
331.671	3.17
332.043	3.17
332.415	2.96
332.787	2.86
333.159	3.37
333.532	3.13
333.904	2.9
334.276	2.68
334.648	2.71
335.02	2.82
335.391	2.91
335.763	2.07
336.135	2.94
336.507	3.28
336.879	3.25
337.25	2.5
337.622	2.43
337.993	2.79
338.365	3.1
338.736	3.44
339.108	3.12
339.479	2.52
339.851	3.31
340.222	2.74
340.593	2.85
340.964	2.83
341.336	3.37
341.707	2.6
342.078	2.76
342.449	3.15
342.82	2.72
343.191	2.92
343.562	2.42
343.933	3.01
344.303	2.74
344.674	2.85
345.045	3.01
345.416	3.14
345.786	2.51
346.157	2.86
346.527	2.41
346.898	2.32
347.268	2.99
347.639	2.78
348.009	2.81
348.38	2.57
348.75	2.97
349.12	2.74
349.49	3.32
349.861	2.82
350.231	2.75
350.601	3.12
350.971	3.41
351.341	2.88
351.711	2.56
352.081	3.05
352.45	2.51
352.82	3.24
353.19	2.75
353.56	2.64
353.929	2.88
354.299	2.68
354.669	2.44
355.038	3
355.408	2.65
355.777	2.74
356.147	2.64
356.516	2.84
356.885	2.56
357.254	2.57
357.624	3.49
357.993	2.91
358.362	2.65
358.731	2.52
359.1	2.94
359.469	2.76
359.838	3.2
360.207	2.77
360.576	2.81
360.945	2.67
361.314	2.85
361.682	2.41
362.051	2.82
362.42	2.7
362.788	2.6
363.157	2.7
363.525	3.03
363.894	2.75
364.262	3.14
364.631	2.92
364.999	3.08
365.367	2.66
365.735	3
366.104	2.98
366.472	3.36
366.84	2.78
367.208	2.8
367.576	3.01
367.944	2.96
368.312	2.69
368.68	2.44
369.048	3.04
369.416	3.07
369.783	2.72
370.151	3.34
370.519	3.42
370.886	2.85
371.254	2.63
371.621	3.05
371.989	2.84
372.356	2.36
372.724	3.17
373.091	2.99
373.458	2.95
373.826	2.94
374.193	2.71
374.56	2.93
374.927	2.81
375.294	2.96
375.661	2.65
376.028	2.75
376.395	2.6
376.762	2.79
377.129	2.94
377.496	2.65
377.863	2.97
378.229	1.96
378.596	2.73
378.963	2.64
379.329	2.5
379.696	3.14
380.062	2.9
380.429	2.71
380.795	2.78
381.161	3.05
381.528	3.24
381.894	3.05
382.26	2.93
382.626	3.1
382.993	2.77
383.359	3.15
383.725	2.93
384.091	3.02
384.457	3.34
384.823	2.79
385.188	2.94
385.554	2.75
385.92	3
386.286	2.99
386.651	3.44
387.017	3.36
387.383	2.66
387.748	2.76
388.114	3.29
388.479	2.87
388.845	3.03
389.21	3.36
389.575	2.93
389.94	2.89
390.306	3.1
390.671	2.76
391.036	2.77
391.401	2.84
391.766	2.88
392.131	2.83
392.496	3.12
392.861	2.91
393.226	2.94
393.591	3.11
393.956	2.89
394.32	3.18
394.685	2.91
395.05	2.88
395.414	3.02
395.779	2.62
396.143	2.92
396.508	3.1
396.872	3.16
397.236	2.96
397.601	2.82
397.965	3.2
398.329	3.06
398.694	2.98
399.058	2.92
399.422	2.86
399.786	3.15
400.15	2.95
400.514	3.2
400.878	3.13
401.242	3.5
401.605	3.11
401.969	3.1
402.333	3.07
402.697	3.14
403.06	3.32
403.424	3.12
403.787	2.72
404.151	3.4
404.514	2.99
404.878	3.09
405.241	3.21
405.604	3.07
405.968	3.14
406.331	3.12
406.694	3.13
407.057	3.02
407.42	3.23
407.783	2.97
408.146	2.75
408.509	3.25
408.872	3.02
409.235	3.07
409.598	3.2
409.961	3.11
410.323	3.33
410.686	3.03
411.049	2.84
411.411	2.95
411.774	3.14
412.136	3.02
412.499	2.91
412.861	2.95
413.223	3.4
413.586	2.96
413.948	3.05
414.31	3.12
414.672	3.11
415.035	2.99
415.397	3.29
415.759	2.94
416.121	3.23
416.483	2.95
416.845	3.21
417.206	3.03
417.568	3.04
417.93	2.89
418.292	3.03
418.653	3.07
419.015	3.1
419.377	3.1
419.738	3.05
420.1	2.97
420.461	3.12
420.822	3.06
421.184	2.89
421.545	2.97
421.906	2.92
422.267	3.04
422.629	3
422.99	3.03
423.351	3.01
423.712	3.03
424.073	3.01
424.434	3.01
424.795	2.96
425.155	3.11
425.516	2.96
425.877	2.99
426.238	3
426.598	3.21
426.959	3.04
427.32	3.04
427.68	3.09
428.041	2.99
428.401	3.16
428.761	3.2
429.122	3.21
429.482	3.11
429.842	3.29
430.202	3.29
430.563	3.25
430.923	2.94
431.283	3.18
431.643	3.05
432.003	3.13
432.363	3.34
432.722	3.14
433.082	3.04
433.442	3.16
433.802	3.04
434.161	3
434.521	3.35
434.881	3.15
435.24	3.09
435.6	3.07
435.959	3.11
436.319	3.12
436.678	3.27
437.037	3.09
437.396	3.15
437.756	3.17
438.115	3.11
438.474	3.37
438.833	2.94
439.192	3.15
439.551	3.13
439.91	3.17
440.269	3.15
440.628	3.08
440.987	3.33
441.345	3.01
441.704	3.08
442.063	3.03
442.421	3.18
442.78	3.13
443.138	3.07
443.497	3.16
443.855	3.18
444.214	3.26
444.572	3.22
444.93	3.19
445.288	3.2
445.647	3.44
446.005	3.26
446.363	3.21
446.721	3.28
447.079	2.97
447.437	3.18
447.795	3.12
448.153	3.04
448.51	3.1
448.868	2.99
449.226	3.12
449.584	3.12
449.941	3.24
450.299	3.22
450.656	3.16
451.014	3.17
451.371	3.17
451.729	3.02
452.086	3.3
452.443	3.28
452.801	3.4
453.158	3.47
453.515	2.98
453.872	3.31
454.229	3.08
454.586	3.1
454.943	3.3
455.3	3.32
455.657	3.29
456.014	3.2
456.371	3.13
456.727	3.17
457.084	3.45
457.441	3.26
457.797	3.34
458.154	3.35
458.51	3.41
458.867	3.18
459.223	3.31
459.58	3.37
459.936	3.47
460.292	3.13
460.648	3.24
461.005	3.09
461.361	3.36
461.717	3.2
462.073	3.1
462.429	3.23
462.785	3.21
463.141	3.28
463.496	3.17
463.852	3.4
464.208	3.35
464.564	3.35
464.919	3.38
465.275	3.28
465.631	3.5
465.986	3.28
466.342	3.37
466.697	3.22
467.052	3.52
467.408	3.39
467.763	3.19
468.118	3.36
468.473	3.33
468.829	3.31
469.184	3.29
469.539	3.3
469.894	3.27
470.249	3.46
470.603	3.4
470.958	3.61
471.313	3.35
471.668	3.48
472.023	3.43
472.377	3.41
472.732	3.28
473.086	3.37
473.441	3.07
473.795	3.42
474.15	3.5
474.504	3.41
474.859	3.28
475.213	3.26
475.567	3.39
475.921	3.3
476.275	3.29
476.63	3.3
476.984	3.41
477.338	3.6
477.692	3.22
478.045	3.31
478.399	3.31
478.753	3.35
479.107	3.46
479.461	3.3
479.814	3.3
480.168	3.39
480.521	3.27
480.875	3.41
481.228	3.39
481.582	3.26
481.935	3.38
482.289	3.35
482.642	3.41
482.995	3.29
483.348	3.29
483.701	3.31
484.055	3.27
484.408	3.3
484.761	3.2
485.114	3.17
485.466	2.95
485.819	3
486.172	3.04
486.525	3.19
486.878	3.32
487.23	3.37
487.583	3.37
487.936	3.36
488.288	3.29
488.641	3.27
488.993	3.09
489.345	3.12
489.698	3.14
490.05	3.18
490.402	3.25
490.754	3.31
491.107	3.31
491.459	3.36
491.811	3.42
492.163	3.39
492.515	3.37
492.866	3.31
493.218	3.2
493.57	3.15
493.922	3.16
494.274	3.35
494.625	3.5
494.977	3.46
495.328	3.5
495.68	3.41
496.031	3.56
496.383	3.48
496.734	3.5
497.086	3.49
497.437	3.47
497.788	3.43
498.139	3.28
498.49	3.37
498.842	3.24
499.193	3.47
499.544	3.4
499.894	3.48
500.245	3.44
500.596	3.48
500.947	3.53
501.298	3.32
501.648	3.58
501.999	3.55
502.35	3.51
502.7	3.51
503.051	3.46
503.401	3.42
503.752	3.58
504.102	3.44
504.452	3.63
504.803	3.32
505.153	3.41
505.503	3.49
505.853	3.42
506.203	3.36
506.553	3.49
506.903	3.35
507.253	3.38
507.603	3.4
507.953	3.62
508.303	3.7
508.652	3.24
509.002	3.55
509.352	3.56
509.701	3.38
510.051	3.39
510.4	3.41
510.75	3.38
511.099	3.47
511.449	3.5
511.798	3.51
512.147	3.56
512.496	3.34
512.846	3.53
513.195	3.59
513.544	3.46
513.893	3.45
514.242	3.37
514.591	3.59
514.939	3.51
515.288	3.48
515.637	3.43
515.986	3.55
516.334	3.58
516.683	3.59
517.032	3.64
517.38	3.63
517.729	3.57
518.077	3.37
518.426	3.65
518.774	3.6
519.122	3.41
519.47	3.46
519.819	3.3
520.167	3.36
520.515	3.36
520.863	3.46
521.211	3.5
521.559	3.65
521.907	3.49
522.255	3.49
522.602	3.48
522.95	3.45
523.298	3.56
523.645	3.58
523.993	3.59
524.341	3.67
524.688	3.58
525.036	3.58
525.383	3.66
525.73	3.65
526.078	3.53
526.425	3.47
526.772	3.61
527.119	3.44
527.466	3.33
527.814	3.42
528.161	3.41
528.508	3.48
528.854	3.43
529.201	3.41
529.548	3.35
529.895	3.29
530.242	3.15
530.588	3.13
530.935	3.26
531.282	3.34
531.628	3.43
531.975	3.53
532.321	3.53
532.667	3.58
533.014	3.56
533.36	3.57
533.706	3.5
534.052	3.49
534.399	3.4
534.745	3.37
535.091	3.24
535.437	3.34
535.783	3.45
536.129	3.54
536.474	3.6
536.82	3.64
537.166	3.65
537.512	3.54
537.857	3.46
538.203	3.49
538.549	3.46
538.894	3.38
539.239	3.49
539.585	3.57
539.93	3.51
540.276	3.71
540.621	3.7
540.966	3.66
541.311	3.4
541.656	3.44
542.001	3.47
542.346	3.58
542.691	3.41
543.036	3.27
543.381	3.15
543.726	3.34
544.071	3.51
544.415	3.61
544.76	3.52
545.105	3.52
545.449	3.5
545.794	3.54
546.138	3.51
546.483	3.64
546.827	3.58
547.171	3.46
547.516	3.63
547.86	3.54
548.204	3.49
548.548	3.47
548.892	3.55
549.236	3.49
549.58	3.51
549.924	3.71
550.268	3.75
550.612	3.68
550.956	3.89
551.3	3.57
551.643	3.77
551.987	3.7
552.33	3.76
552.674	3.75
553.017	3.58
553.361	3.61
553.704	3.87
554.048	3.58
554.391	3.48
554.734	3.52
555.077	3.71
555.42	3.55
555.764	3.6
556.107	3.5
556.45	3.43
556.793	3.65
557.135	3.62
557.478	3.75
557.821	3.72
558.164	3.67
558.507	3.73
558.849	3.5
559.192	3.56
559.534	3.69
559.877	3.7
560.219	3.54
560.562	3.7
560.904	3.76
561.246	3.73
561.589	3.65
561.931	3.57
562.273	3.64
562.615	3.71
562.957	3.56
563.299	3.41
563.641	3.71
563.983	3.5
564.325	3.6
564.667	3.55
565.008	3.7
565.35	3.69
565.692	3.31
566.033	3.44
566.375	3.8
566.716	3.8
567.058	3.65
567.399	3.5
567.741	3.45
568.082	3.52
568.423	3.6
568.764	3.76
569.105	3.66
569.447	3.83
569.788	3.65
570.129	3.68
570.47	3.59
570.811	3.77
571.151	3.68
571.492	3.78
571.833	3.72
572.174	3.61
572.514	3.51
572.855	3.67
573.195	3.65
573.536	3.51
573.876	3.37
574.217	3.52
574.557	3.73
574.898	3.63
575.238	3.61
575.578	3.62
575.918	3.66
576.258	3.78
576.598	3.72
576.938	3.61
577.278	3.65
577.618	3.57
577.958	3.58
578.298	3.71
578.638	3.59
578.977	3.61
579.317	3.38
579.657	3.69
579.996	3.62
580.336	3.69
580.675	3.65
581.014	3.85
581.354	3.82
581.693	3.68
582.032	3.61
582.372	3.61
582.711	3.73
583.05	3.42
583.389	3.63
583.728	3.35
584.067	3.75
584.406	3.62
584.745	3.62
585.083	3.96
585.422	3.84
585.761	3.66
586.1	3.7
586.438	3.7
586.777	3.82
587.115	3.71
587.454	3.51
587.792	3.44
588.13	3.85
588.469	3.69
588.807	3.45
589.145	3.48
589.483	3.45
589.821	3.71
590.159	3.67
590.497	3.8
590.835	3.98
591.173	3.79
591.511	4.04
591.849	3.84
592.187	3.84
592.524	3.73
592.862	3.68
593.2	3.73
593.537	3.92
593.875	3.52
594.212	3.29
594.55	3.59
594.887	3.87
595.224	3.64
595.561	3.81
595.899	3.44
596.236	3.6
596.573	3.81
596.91	3.33
597.247	3.67
597.584	4.1
597.921	3.59
598.258	3.49
598.594	3.57
598.931	3.62
599.268	3.78
599.604	3.71
599.941	3.66
600.277	3.68
600.614	3.49
600.95	3.58
601.287	3.93
601.623	3.43
601.959	3.49
602.296	3.56
602.632	3.82
602.968	3.66
603.304	3.73
603.64	3.8
603.976	3.74
604.312	3.83
604.648	3.55
604.984	3.8
605.319	3.53
605.655	3.67
605.991	3.61
606.326	3.66
606.662	3.67
606.998	3.4
607.333	3.83
607.668	3.69
608.004	3.77
608.339	3.98
608.674	3.7
609.01	3.74
609.345	3.54
609.68	4.05
610.015	4.02
610.35	3.67
610.685	3.72
611.02	3.74
611.355	3.44
611.689	3.66
612.024	3.74
612.359	3.64
612.694	3.62
613.028	3.53
613.363	3.97
613.697	3.98
614.032	3.91
614.366	3.54
614.7	3.86
615.035	3.78
615.369	3.41
615.703	3.69
616.037	3.93
616.371	3.29
616.705	3.84
617.039	3.89
617.373	3.65
617.707	3.49
618.041	3.44
618.375	3.91
618.709	3.98
619.042	3.6
619.376	3.86
619.71	3.91
620.043	3.85
620.377	3.68
620.71	3.61
621.043	3.68
621.377	3.69
621.71	3.91
622.043	3.49
622.376	3.53
622.709	3.38
623.043	3.76
623.376	3.71
623.709	3.76
624.041	4.02
624.374	3.78
624.707	3.63
625.04	3.99
625.373	3.26
625.705	3.51
626.038	3.38
626.37	3.66
626.703	3.79
627.035	3.97
627.368	4.21
627.7	3.98
628.032	3.75
628.365	3.63
628.697	3.46
629.029	3.53
629.361	3.56
629.693	3.85
630.025	3.46
630.357	3.94
630.689	3.71
631.021	3.82
631.353	3.92
631.684	3.16
632.016	3.68
632.348	3.95
632.679	3.97
633.011	4.06
633.342	3.77
633.674	3.97
634.005	3.87
634.336	3.31
634.668	4.19
634.999	3.38
635.33	3.71
635.661	3.96
635.992	3.73
636.323	3.83
636.654	3.83
636.985	3.73
637.316	3.54
637.647	3.41
637.977	3.82
638.308	4.16
638.639	3.72
638.969	3.4
639.3	3.44
639.63	3.31
639.961	3.91
640.291	3.6
640.622	4.34
640.952	3.6
641.282	4.31
641.612	3.9
641.943	3.43
642.273	3.88
642.603	3.98
642.933	3.77
643.263	4.23
643.592	3.86
643.922	3.57
644.252	3.62
644.582	3.83
644.911	3.24
645.241	3.14
645.571	3.84
645.9	3.46
646.23	3.84
646.559	4.2
646.888	3.62
647.218	3.71
647.547	3.92
647.876	3.43
648.205	3.63
648.534	3.73
648.863	3.53
649.192	3.77
649.521	3.68
649.85	3.5
650.179	3.87
650.508	3.46
650.837	3.37
651.165	3.56
651.494	3.48
651.822	3.79
652.151	3.82
652.479	3.84
652.808	3.58
653.136	3.84
653.465	3.68
653.793	3.22
654.121	3.26
654.449	3.18
654.777	4.13
655.105	3.88
655.433	3.31
655.761	3.8
656.089	4.23
656.417	3.96
656.745	3.55
657.073	3.99
657.4	3.84
657.728	3.89
658.056	3.66
658.383	3.72
658.711	3.57
659.038	4.08
659.365	4.11
659.693	3.97
660.02	3.51
660.347	3.98
660.674	3.8
661.001	3.9
661.329	3.02
661.656	3.65
661.982	3.92
662.309	3.76
662.636	3.48
662.963	4.35
663.29	3.91
663.616	4.15
663.943	3.81
664.27	3.7
664.596	4.44
664.923	3.56
665.249	3.98
665.576	3.33
665.902	4.58
666.228	4.12
666.554	3.9
666.881	3.82
667.207	4.1
667.533	3.73
667.859	4.48
668.185	4.6
668.511	3.78
668.837	3.09
669.162	3.68
669.488	3.41
669.814	3.97
670.139	3.81
670.465	4.39
670.791	4.68
671.116	4.41
671.442	3.83
671.767	3.98
672.092	3.77
672.418	4.02
672.743	4.69
673.068	3.82
673.393	4
673.718	3.65
674.043	3.82
674.368	4.42
674.693	4.66
675.018	4.27
675.343	3.51
675.667	3.7
675.992	4.47
676.317	4.12
676.641	4.46
676.966	4.02
677.29	3.75
677.615	4.39
677.939	4.77
678.264	4.44
678.588	3.84
678.912	4.44
679.236	4.64
679.56	3.69
679.885	4.36
680.209	3.59
680.532	3.71
680.856	4.68
681.18	3.59
681.504	4.09
681.828	4
682.152	3.17
682.475	3.82
682.799	4.18
683.122	4.19
683.446	3.45
683.769	3.96
684.093	3.69
684.416	4.65
684.739	4.03
685.062	3.75
685.386	4.24
685.709	3.12
686.032	4.46
686.355	4.28
686.678	4.16
687.001	3.72
687.324	4.77
687.646	3.5
687.969	3.64
688.292	3.23
688.614	4.06
688.937	4.38
689.26	3.51
689.582	4.22
689.904	3.8
690.227	4.59
690.549	3.28
690.871	4.76
691.194	3.59
691.516	4.07
691.838	3.65
692.16	3.4
692.482	3.96
692.804	3.54
693.126	4.21
693.448	3.59
693.769	5.33
694.091	3.76
694.413	4.32
694.735	4.3
695.056	4.03
695.378	3.88
695.699	2.81
696.021	2.63
696.342	3.89
696.663	3.72
696.984	4.13
697.306	2.97
697.627	4.71
697.948	4.3
698.269	3.77
698.59	4.06
698.911	3.87
699.232	2.8
699.553	3.44
699.873	4.06
700.194	4.57
700.515	4.02
700.835	3.47
701.156	4.03
701.477	3.78
701.797	3.48
702.117	4.17
702.438	4.92
702.758	3.85
703.078	3.88
703.398	3.82
703.719	3.62
704.039	4.07
704.359	5.08
704.679	4.15
704.999	3.54
705.319	3.96
705.638	3.89
705.958	3.2
706.278	3.57
706.597	4.11
706.917	4.14
707.237	3.68
707.556	4.46
707.876	4.25
708.195	4.49
708.514	3.32
708.834	4.43
709.153	4.05
709.472	4.73
709.791	4.88
710.11	3.24
710.429	4.93
710.748	4.18
711.067	4.24
711.386	3.78
711.705	3.65
712.023	5.26
712.342	2.79
712.661	4.63
712.979	3.76
713.298	4.18
713.616	3.63
713.935	3.66
714.253	3.96
714.572	4.25
714.89	4.38
715.208	4.69
715.526	4.36
715.844	5
716.162	3.62
716.48	4.67
716.798	4.18
717.116	3.55
717.434	3.67
717.752	3.49
718.069	5.06
718.387	3.7
718.705	3.73
719.022	2.89
719.34	4.15
719.657	3.29
719.975	4.46
720.292	3.98
720.609	4.41
720.927	3.99
721.244	4.26
721.561	4.55
721.878	4.26
722.195	3.62
722.512	4.57
722.829	4.83
723.146	3.82
723.463	4.97
723.779	2.26
724.096	5.63
724.413	3.8
724.729	3.69
725.046	2.74
725.362	4.49
725.679	3.56
725.995	3.54
726.311	3.36
726.628	3.47
726.944	5.67
727.26	5.11
727.576	4.54
727.892	4.92
728.208	3.96
728.524	4.35
728.84	4.4
729.156	3.31
729.472	3.94
729.787	3.84
730.103	5.27
730.419	4.09
730.734	4.27
731.05	4.21
731.365	4.33
731.681	4.23
731.996	4.35
732.311	4.34
732.626	4.59
732.942	3.57
733.257	5.08
733.572	4.52
733.887	3.77
734.202	5.16
734.517	4.6
734.832	5.15
735.146	3.84
735.461	4.75
735.776	3.37
736.091	5.06
736.405	4.01
736.72	4.06
737.034	4.9
737.349	6.48
737.663	5.01
737.977	5.51
738.292	4.6
738.606	4.54
738.92	5.82
739.234	5
739.548	3.7
739.862	3.41
740.176	4.23
740.49	5.21
740.804	6.55
741.117	4.85
741.431	3.25
741.745	1.12
742.058	4.33
742.372	3.75
742.685	5.57
742.999	3.66
743.312	4.1
743.626	4.21
743.939	3.68
744.252	5.35
744.565	3.09
744.878	4.05
745.191	4.53
745.505	4.02
745.817	5.55
746.13	4.72
746.443	4.44
746.756	5.65
747.069	3.83
747.381	3.78
747.694	4.25
748.007	4.49
748.319	4.14
748.632	5.35
748.944	3.29
749.256	6.36
749.569	5.28
749.881	5.87
750.193	5.32
750.505	4.92
750.817	6.09
751.129	4.57
751.441	3.71
751.753	5.1
752.065	6.18
752.377	4.16
752.689	6.59
753	4.9
753.312	4.43
753.624	3.84
753.935	6.6
754.247	5.2
754.558	4.5
754.869	4.77
755.181	4.23
755.492	5.91
755.803	3.6
756.114	5.39
756.425	3.76
756.736	4.3
757.047	4.96
757.358	5.46
757.669	3.94
757.98	3.53
758.291	3.75
758.601	7.21
758.912	2.81
759.223	6.23
759.533	4.23
759.844	2.59
760.154	4.32
760.464	6.92
760.775	4.8
761.085	4.35
761.395	6.57
761.705	5.19
762.016	5.91
762.326	4.47
762.636	4.98
762.945	3.47
763.255	6.37
763.565	3.92
763.875	3.49
764.185	3.63
764.494	4.91
764.804	6.48
765.113	5.91
765.423	4.28
765.732	4.83
766.042	3.59
766.351	4.05
766.66	6.27
766.97	5.19
767.279	3.79
767.588	5.09
767.897	6.15
768.206	5.38
768.515	4.64
768.824	4.31
769.133	3.69
769.441	4.2
769.75	5.85
770.059	6.06
770.367	5.3
770.676	4.36
770.984	5.35
771.293	2.53
771.601	7.13
771.91	3.79
772.218	5.53
772.526	6.61
772.834	4.8
773.142	5.25
773.45	2.92
773.758	5.06
774.066	4.14
774.374	1.49
774.682	3.38
774.99	5.16
775.298	2.28
775.605	4.25
775.913	3.02
776.22	4.11
776.528	4.7
776.835	8.18
777.143	7.1
777.45	5.28
777.757	6.91
778.065	3.69
778.372	2.08
778.679	2.16
778.986	5.85
779.293	2.4
779.6	6.43
779.907	5.62
780.214	8.74
780.52	4.6
780.827	4.9
781.134	5.33
781.44	3.14
781.747	4.11
782.053	4.19
782.36	9.46
782.666	7.38
782.973	6.82
783.279	6.77
783.585	4.05
783.891	10.71
784.197	6.35
784.503	6.68
784.809	1.24
785.115	4.08
785.421	10.82
785.727	4.45
786.033	7.92
786.339	3.59
786.644	5
786.95	4.37
787.255	6.79
787.561	9.77
787.866	5.96
788.172	5.64
788.477	5.33
788.782	7.59
789.088	8.25
789.393	9.82
789.698	7.29
790.003	4.99
790.308	3.98
790.613	2.63
790.918	5
791.223	5.86
791.527	-0.24
791.832	9.1
792.137	3.01
792.441	7.32
792.746	5.28
793.05	3.46
793.355	6.12
793.659	7.92
793.963	6.15
794.268	3.9
794.572	5.96
794.876	4.75
795.18	7.97
795.484	5.99
795.788	8.99
796.092	-0.17
796.396	5.49
796.7	6.54
797.004	1.52
797.307	-3.69
797.611	8.3
797.915	2.91
798.218	0.38
798.522	2.12
798.825	1.56
799.128	3.62
799.432	0.9
799.735	5.39
800.038	7.45
800.341	8.09
800.644	4.75
800.947	5.73
801.25	9.06
801.553	0.44
801.856	3.66
802.159	5.39
802.462	-0.74
802.764	3.73
803.067	5.48
803.37	3.61
803.672	3.39
803.975	7.28
804.277	5.54
804.579	-4.23
804.882	3.65
805.184	5.54
805.486	6.17
805.788	7.58
806.09	15.64
806.392	4.06
806.694	4.75
806.996	5.2
807.298	6.9
807.6	5.71
807.902	11.27
808.203	9.98
808.505	6
808.807	3.09
809.108	4.12
809.409	9.23
809.711	8.38
810.012	6.57
810.313	-1.7
810.615	5.45
810.916	4.25
811.217	5.69
811.518	4.56
811.819	4.89
812.12	9.56
812.421	0.63
812.722	6.27
813.023	9.04
813.323	9.27
813.624	2.32
813.925	12.72
814.225	-1.71
814.526	10.6
814.826	14.53
815.126	5.23
815.427	7.84
815.727	9.76
816.027	9.39
816.327	9.8
816.627	0.13
816.927	12.49
817.227	9.6
817.527	7.17
817.827	6.14
818.127	5.58
818.427	11.13
818.727	6.11
819.026	2.33
819.326	7.59
819.625	2.22
819.925	-2.18
820.224	10.39
820.524	11.4
820.823	8.52
821.122	5.95
821.421	3.85
821.72	1.56
822.019	5
822.318	8.72
822.617	6.76
822.916	4.76
823.215	3.16
823.514	7.54
823.813	5.68
824.111	7.14
824.41	8.67
824.709	6.29
825.007	5.9
825.306	6.22
825.604	6.72
825.902	6.47
826.201	6.17
826.499	6.17
826.797	6.97
827.095	7.03
827.393	7.39
827.691	8.32
827.989	2.87
828.287	8.59
828.585	5.06
828.882	3.82
829.18	4.6
829.478	11.07
829.775	9.29
830.073	7.16
830.37	7.92
830.668	5.74
830.965	8.58
831.263	6.02
831.56	5
831.857	5.05
832.154	3.07
832.451	7.48
832.748	9.07
833.045	9.26
833.342	10.7
833.639	6.25
833.936	4.59
834.232	5.84
834.529	3.8
834.826	5.01
835.122	7.46
835.419	0.72
835.715	5.9
836.012	3.56
836.308	3.96
836.604	3.59
836.901	5.06
837.197	0.53
837.493	3.66
837.789	2.37
838.085	6.23
838.381	7.97
838.677	5.01
838.972	6.46
839.268	9
839.564	9.73
839.86	5.34
840.155	0.66
840.451	-4.13
840.746	7.54
841.042	12.73
841.337	10.2
841.632	11.94
841.928	15.47
842.223	4.63
842.518	7.79
842.813	18.02
843.108	5.03
843.403	13.66
843.698	-0.67
843.993	3.25
844.287	-2.41
844.582	5.66
844.877	-2.07
845.171	7.21
845.466	-1.2
845.761	1.02
846.055	12.59
846.349	18.88
846.644	5.69
846.938	-7.25
847.232	3.61
847.526	5.35
847.82	11.13
848.114	9.93
848.408	-2.96
848.702	13.3
848.996	-4.67
849.29	3.39
849.584	4.13
849.877	5.12
850.171	18.62
850.465	-5.63
850.758	4.44
851.052	10.6
851.345	12.86
851.638	30.11
851.932	-16.52
852.225	-3.46
852.518	1.09
852.811	23.24
853.104	-4.15
853.397	13.14
853.69	18.61
853.983	-1.26
854.276	2.3
854.569	-8.71
854.861	16.17
855.154	-1.29
855.447	-12.69
855.739	3.12
856.032	25.63
856.324	10.12
856.616	14.44
856.909	8.01
857.201	14.34
857.493	14.39
857.785	-22.59
858.077	33.31
858.369	-12.12
858.661	12.72
858.953	-1
859.245	4.65
859.537	7.99
859.829	21.13
860.12	19.29
860.412	-10.04
860.703	-8.69
860.995	7.56
861.286	-5.87
861.578	16.49
861.869	34.55
862.16	6.7
862.452	-0.87
862.743	6.77
863.034	33.71
863.325	-13.9
863.616	24.62
863.907	-8.71
864.198	-2.25
864.488	21.3
864.779	35.21
865.07	-6.9
865.36	10.49
865.651	-25.88
865.941	15.32
866.232	17.37
866.522	-84.35
866.813	9.22
867.103	13.6
867.393	-4.11
867.683	27.49
867.973	-37.38
868.263	14
868.553	25.77
868.843	31.71
869.133	-5.87
869.423	-5.85
869.713	34.1
870.002	11.82
870.292	5.16
870.582	11.29
870.871	-35.45
871.161	20.1
871.45	-3.5
871.739	-16.26
872.029	-36.77
872.318	13.17
872.607	20.64
872.896	-0.29
873.185	11.85
873.474	-57.31
873.763	13.31
874.052	25.64
874.341	8.52
874.63	11.26
874.918	7.71
875.207	37.35
875.496	-7.19
875.784	-3.7
876.073	-11.98
876.361	-18.48
876.649	27.32
876.938	-3.75
877.226	3.82
877.514	5.24
877.802	-15.09
878.09	-5.12
878.378	25.96
878.666	-4.32
878.954	-4.77
879.242	6.25
879.53	-18.01
879.817	16.27
880.105	-42.58
880.392	3.72
880.68	10.44
880.967	-10.35
881.255	7.84
881.542	-8.6
881.83	-147.93
882.117	-1.89
882.404	-8.12
882.691	26.31
882.978	-26.88
883.265	15.64
883.552	25.21
883.839	17.31
884.126	3.9
884.413	13.96
884.699	10.37
884.986	10.77
885.273	3.74
885.559	3.74
885.846	3.74
