Data from 0404_chest_Reflection__2__93.txt Node

Date: Fri Dec 15 17:18:13 CST 2023
User: ToomeyLab
Spectrometer: FLMS14357
Trigger mode: 0
Integration Time (sec): 1.000000E-2
Scans to average: 100
Electric dark correction enabled: true
Nonlinearity correction enabled: false
Boxcar width: 0
XAxis mode: Wavelengths
Number of Pixels in Spectrum: 2048
>>>>>Begin Spectral Data<<<<<
189.047	-177.25
189.435	-177.25
189.823	-177.25
190.211	2.27
190.599	-287.08
190.987	268.08
191.375	53.07
191.763	-43.27
192.151	72.88
192.538	71.22
192.926	-18.3
193.314	294.69
193.702	-83.61
194.089	496.29
194.477	54.19
194.864	24.85
195.252	94.75
195.639	107.91
196.027	8.06
196.414	157.75
196.801	-104.75
197.189	54.87
197.576	66.34
197.963	-90.27
198.351	-53.97
198.738	-150.62
199.125	6.73
199.512	-48.99
199.899	23.78
200.286	8.38
200.673	0.41
201.06	6.91
201.447	-9.17
201.833	-14.33
202.22	21.79
202.607	11.61
202.994	-12.56
203.38	42.76
203.767	2.06
204.154	17.95
204.54	1.79
204.927	-52.4
205.313	-79.27
205.699	30.3
206.086	17.72
206.472	15.48
206.858	31.36
207.245	-16
207.631	-2.75
208.017	12.65
208.403	33.19
208.789	32.48
209.175	53.53
209.561	-1.81
209.947	49.37
210.333	31.32
210.719	20.06
211.105	29.89
211.491	-27.23
211.876	54.93
212.262	29.24
212.648	24.59
213.034	8.73
213.419	10.39
213.805	-14.3
214.19	-10.82
214.576	-33.87
214.961	-3.93
215.346	-54.38
215.732	-0.63
216.117	1.14
216.502	-35.09
216.888	15.36
217.273	26.76
217.658	-17.44
218.043	8.44
218.428	-50.38
218.813	-11.06
219.198	-12.24
219.583	6.09
219.968	18.81
220.353	3.95
220.738	38.89
221.122	26.25
221.507	-16.09
221.892	-36.95
222.276	-18.88
222.661	12.15
223.046	15.12
223.43	2.84
223.815	6
224.199	-9.27
224.583	7.87
224.968	-0.61
225.352	14.61
225.736	10.19
226.121	-9.65
226.505	6.74
226.889	12.22
227.273	7.51
227.657	8.16
228.041	5.91
228.425	8.02
228.809	0.73
229.193	0.71
229.577	4.74
229.961	5.47
230.344	3.48
230.728	3.1
231.112	2.84
231.495	3.85
231.879	4.15
232.263	6.72
232.646	5.15
233.03	4.33
233.413	3.51
233.797	0.93
234.18	3.5
234.563	1.05
234.946	1.65
235.33	4.64
235.713	2.98
236.096	2.33
236.479	3
236.862	2.36
237.245	4.58
237.628	1.18
238.011	5.72
238.394	5.47
238.777	1.71
239.16	1.92
239.543	5.27
239.925	5.35
240.308	3.81
240.691	3.99
241.073	2.98
241.456	3.48
241.838	3.77
242.221	2.38
242.603	4.1
242.986	4.28
243.368	3.22
243.75	4
244.133	3.39
244.515	3.99
244.897	3.71
245.279	3.84
245.661	3.43
246.043	3.43
246.425	2.16
246.807	5.01
247.189	3.94
247.571	4.48
247.953	3.77
248.335	3.65
248.717	3.88
249.098	3.41
249.48	3.85
249.862	3.47
250.243	4.1
250.625	3.91
251.006	4.25
251.388	2.88
251.769	4.04
252.151	3.45
252.532	3.6
252.913	4.48
253.295	2.67
253.676	3.77
254.057	3.12
254.438	3.78
254.819	2.85
255.2	3.16
255.581	4.3
255.962	1.6
256.343	3.93
256.724	2.95
257.105	3.57
257.486	3.05
257.867	3.58
258.247	3.77
258.628	2.41
259.009	3.41
259.389	4.08
259.77	2.84
260.15	2.65
260.531	2.92
260.911	3.78
261.292	3.4
261.672	3.99
262.052	3.3
262.432	3.65
262.813	3.78
263.193	3.77
263.573	2.52
263.953	3.81
264.333	3.97
264.713	3.5
265.093	2.96
265.473	2.57
265.853	2.08
266.233	3.26
266.612	1.98
266.992	3.29
267.372	2.61
267.752	2.69
268.131	3.37
268.511	3.56
268.89	3.88
269.27	3.4
269.649	3.29
270.029	3.43
270.408	4.46
270.787	4.07
271.167	3.74
271.546	3.79
271.925	2.74
272.304	3.4
272.683	4.04
273.062	2.81
273.441	3.43
273.82	2.95
274.199	3.09
274.578	2.9
274.957	3.59
275.336	3.07
275.715	3.08
276.093	3.21
276.472	3.73
276.851	2.96
277.229	3.34
277.608	2.88
277.986	3.67
278.365	3.56
278.743	2.28
279.122	3.11
279.5	3
279.878	3.79
280.257	2.89
280.635	2.74
281.013	3.27
281.391	3.65
281.769	3.45
282.147	3.62
282.525	4.15
282.903	3.2
283.281	3.35
283.659	3.58
284.037	3.45
284.415	3.3
284.792	3.94
285.17	2.52
285.548	2.98
285.925	2.85
286.303	3.25
286.68	3.25
287.058	3.34
287.435	3.47
287.813	3.37
288.19	3.12
288.567	3.43
288.945	3.74
289.322	2.79
289.699	3.11
290.076	3.32
290.453	3.06
290.83	3.42
291.207	3.44
291.584	3.65
291.961	3.48
292.338	3.57
292.715	4.11
293.092	3.37
293.469	3.97
293.845	3.71
294.222	2.72
294.599	3.69
294.975	3.26
295.352	4.03
295.728	3.36
296.105	3.76
296.481	3.39
296.858	3.9
297.234	3.73
297.61	3.36
297.986	3.07
298.363	3.72
298.739	3.94
299.115	3.48
299.491	3.6
299.867	3.73
300.243	3.41
300.619	3.8
300.995	3.61
301.371	3.44
301.746	3.87
302.122	3.87
302.498	3.48
302.874	4.09
303.249	3.79
303.625	4.11
304	4.36
304.376	3.79
304.751	3.99
305.127	4.85
305.502	3.25
305.878	3.4
306.253	3.67
306.628	4.45
307.003	4.01
307.378	4.16
307.754	4.36
308.129	3.53
308.504	4.15
308.879	3.93
309.254	5.03
309.629	4.85
310.003	4.16
310.378	4.49
310.753	4.38
311.128	3.99
311.502	4.35
311.877	4.4
312.252	3.67
312.626	4.25
313.001	3.81
313.375	4.62
313.75	4.04
314.124	4.92
314.498	4.14
314.873	4.62
315.247	4.28
315.621	4.36
315.995	3.58
316.369	4.03
316.743	4.4
317.117	4.76
317.491	4.08
317.865	5.66
318.239	4.4
318.613	4.3
318.987	4.16
319.361	3.58
319.734	4.41
320.108	4.43
320.482	4.31
320.855	4.76
321.229	4.58
321.602	4.44
321.976	4.82
322.349	4.59
322.723	4.47
323.096	4.84
323.469	3.69
323.843	4.6
324.216	5.5
324.589	4.21
324.962	5.27
325.335	4.16
325.708	4.89
326.081	4.69
326.454	5.18
326.827	4.72
327.2	4.7
327.573	5.22
327.945	4.96
328.318	4.3
328.691	4.1
329.063	4.74
329.436	4.54
329.809	5
330.181	4.99
330.553	4.73
330.926	4.51
331.298	5.38
331.671	4.95
332.043	5.3
332.415	5.12
332.787	5.12
333.159	5.14
333.532	5.17
333.904	5.13
334.276	5.12
334.648	5.07
335.02	5.15
335.391	3.95
335.763	4.25
336.135	5.12
336.507	5.45
336.879	5.21
337.25	5.09
337.622	5.34
337.993	4.86
338.365	5.19
338.736	5.23
339.108	5.2
339.479	4.52
339.851	5.23
340.222	5.25
340.593	5.17
340.964	4.42
341.336	5.97
341.707	5.04
342.078	5.75
342.449	5.23
342.82	4.99
343.191	5.17
343.562	5.37
343.933	5.3
344.303	4.68
344.674	4.94
345.045	5.03
345.416	5.56
345.786	4.89
346.157	5.18
346.527	4.58
346.898	4.69
347.268	5.16
347.639	4.94
348.009	5.35
348.38	5.16
348.75	5.57
349.12	5.3
349.49	5.52
349.861	4.92
350.231	4.7
350.601	5.42
350.971	5.44
351.341	5.01
351.711	5.18
352.081	5.52
352.45	5.14
352.82	5.37
353.19	4.7
353.56	4.85
353.929	5.12
354.299	5
354.669	4.93
355.038	5.32
355.408	5.34
355.777	5.19
356.147	5.43
356.516	5.24
356.885	5.29
357.254	5.37
357.624	5.69
357.993	5.12
358.362	5.18
358.731	4.87
359.1	5.51
359.469	5.43
359.838	5.58
360.207	5.15
360.576	4.92
360.945	5.33
361.314	5.75
361.682	5.33
362.051	4.86
362.42	5.3
362.788	5.19
363.157	5.24
363.525	5.58
363.894	5.46
364.262	5.3
364.631	5.26
364.999	5.53
365.367	5.09
365.735	5.78
366.104	5.23
366.472	5.49
366.84	5.07
367.208	5.21
367.576	5.78
367.944	5.4
368.312	5.08
368.68	4.95
369.048	5.64
369.416	5.3
369.783	5.34
370.151	5.54
370.519	5.72
370.886	5.59
371.254	5.42
371.621	5.83
371.989	5.91
372.356	5.15
372.724	5.34
373.091	5.12
373.458	5.44
373.826	5.66
374.193	5.33
374.56	5.39
374.927	5.58
375.294	5.7
375.661	5.56
376.028	5.59
376.395	5.15
376.762	5.61
377.129	5.65
377.496	5.55
377.863	5.56
378.229	5.16
378.596	5.45
378.963	5.29
379.329	5.55
379.696	5.84
380.062	5.51
380.429	5.74
380.795	5.2
381.161	5.53
381.528	5.5
381.894	5.41
382.26	5.7
382.626	5.52
382.993	5.38
383.359	6.02
383.725	5.46
384.091	5.46
384.457	5.97
384.823	5.76
385.188	5.87
385.554	5.42
385.92	5.61
386.286	5.73
386.651	6.11
387.017	5.92
387.383	5.5
387.748	5.83
388.114	5.85
388.479	5.68
388.845	5.89
389.21	5.73
389.575	5.89
389.94	5.67
390.306	5.59
390.671	6.09
391.036	5.28
391.401	5.62
391.766	5.72
392.131	5.49
392.496	5.57
392.861	5.84
393.226	5.88
393.591	5.83
393.956	5.66
394.32	5.8
394.685	5.64
395.05	5.59
395.414	6.13
395.779	5.63
396.143	6.13
396.508	5.8
396.872	6
397.236	5.76
397.601	5.57
397.965	5.87
398.329	5.95
398.694	5.94
399.058	5.91
399.422	5.61
399.786	6.16
400.15	5.8
400.514	6.06
400.878	5.93
401.242	6.03
401.605	5.99
401.969	6.02
402.333	6.16
402.697	5.86
403.06	5.87
403.424	6.01
403.787	5.83
404.151	6.24
404.514	6.2
404.878	5.82
405.241	6.08
405.604	5.9
405.968	6.13
406.331	5.96
406.694	6.2
407.057	6.21
407.42	5.87
407.783	5.87
408.146	5.88
408.509	5.86
408.872	5.92
409.235	6.07
409.598	6.13
409.961	5.95
410.323	6.07
410.686	5.86
411.049	5.78
411.411	6.02
411.774	5.92
412.136	5.99
412.499	5.87
412.861	5.92
413.223	6.06
413.586	6.08
413.948	6.03
414.31	6.2
414.672	5.94
415.035	5.85
415.397	6.41
415.759	5.9
416.121	6.09
416.483	6.16
416.845	6.04
417.206	6.35
417.568	6.12
417.93	6.06
418.292	6.06
418.653	6.07
419.015	6.23
419.377	6.11
419.738	5.95
420.1	6.09
420.461	5.97
420.822	6.17
421.184	6.1
421.545	6.13
421.906	5.91
422.267	6.03
422.629	6.12
422.99	6.18
423.351	6.07
423.712	6.2
424.073	6.09
424.434	6.1
424.795	6.11
425.155	6.23
425.516	6.11
425.877	6.11
426.238	6.09
426.598	6.25
426.959	6.25
427.32	6.16
427.68	6.22
428.041	6.21
428.401	6.2
428.761	6.35
429.122	6.45
429.482	6.25
429.842	6.5
430.202	6.4
430.563	6.3
430.923	6.34
431.283	6.46
431.643	6.37
432.003	6.43
432.363	6.45
432.722	6.46
433.082	6.43
433.442	6.56
433.802	6.41
434.161	6.61
434.521	6.84
434.881	6.6
435.24	6.58
435.6	6.64
435.959	6.53
436.319	6.4
436.678	6.71
437.037	6.49
437.396	6.57
437.756	6.71
438.115	6.51
438.474	6.64
438.833	6.61
439.192	6.71
439.551	6.8
439.91	6.59
440.269	6.75
440.628	6.75
440.987	6.57
441.345	6.51
441.704	6.79
442.063	6.69
442.421	6.62
442.78	6.62
443.138	6.58
443.497	6.64
443.855	6.65
444.214	6.73
444.572	6.72
444.93	6.85
445.288	6.73
445.647	6.98
446.005	6.73
446.363	6.94
446.721	7.07
447.079	6.82
447.437	6.84
447.795	6.72
448.153	6.68
448.51	6.81
448.868	6.85
449.226	6.76
449.584	6.72
449.941	6.95
450.299	6.92
450.656	6.84
451.014	6.88
451.371	6.84
451.729	6.84
452.086	7.11
452.443	7.04
452.801	7.22
453.158	7.1
453.515	7.04
453.872	7.21
454.229	7.02
454.586	6.92
454.943	7.05
455.3	7.28
455.657	7.11
456.014	7.12
456.371	7.05
456.727	7.14
457.084	7.21
457.441	7.06
457.797	7.29
458.154	7.4
458.51	7.5
458.867	7.35
459.223	7.37
459.58	7.27
459.936	7.33
460.292	7.31
460.648	7.24
461.005	7.06
461.361	7.32
461.717	7.12
462.073	6.99
462.429	7.18
462.785	7.1
463.141	7.13
463.496	7.23
463.852	7.39
464.208	7.2
464.564	7.48
464.919	7.55
465.275	7.48
465.631	7.44
465.986	7.61
466.342	7.6
466.697	7.36
467.052	7.54
467.408	7.43
467.763	7.29
468.118	7.4
468.473	7.43
468.829	7.42
469.184	7.52
469.539	7.49
469.894	7.3
470.249	7.65
470.603	7.69
470.958	7.83
471.313	7.68
471.668	7.67
472.023	7.63
472.377	7.72
472.732	7.62
473.086	7.61
473.441	7.65
473.795	7.75
474.15	7.93
474.504	7.5
474.859	7.71
475.213	7.71
475.567	7.58
475.921	7.56
476.275	7.66
476.63	7.86
476.984	7.65
477.338	7.82
477.692	7.7
478.045	7.67
478.399	7.74
478.753	7.88
479.107	7.75
479.461	7.69
479.814	7.97
480.168	7.78
480.521	7.69
480.875	7.88
481.228	7.83
481.582	7.84
481.935	7.91
482.289	7.95
482.642	7.89
482.995	7.71
483.348	7.86
483.701	7.79
484.055	7.73
484.408	7.85
484.761	7.73
485.114	7.69
485.466	7.54
485.819	7.47
486.172	7.4
486.525	7.37
486.878	7.42
487.23	7.5
487.583	7.6
487.936	7.69
488.288	7.78
488.641	7.75
488.993	7.69
489.345	7.62
489.698	7.62
490.05	7.51
490.402	7.69
490.754	7.68
491.107	7.66
491.459	7.89
491.811	8
492.163	8.01
492.515	7.94
492.866	7.97
493.218	7.96
493.57	7.86
493.922	7.79
494.274	7.77
494.625	7.89
494.977	7.99
495.328	8.05
495.68	8.09
496.031	8.21
496.383	8.13
496.734	8.43
497.086	8.24
497.437	8.25
497.788	8.32
498.139	8.19
498.49	8.19
498.842	8.21
499.193	8.31
499.544	8.24
499.894	8.33
500.245	8.38
500.596	8.25
500.947	8.29
501.298	8.31
501.648	8.45
501.999	8.51
502.35	8.53
502.7	8.54
503.051	8.39
503.401	8.43
503.752	8.75
504.102	8.47
504.452	8.63
504.803	8.54
505.153	8.58
505.503	8.69
505.853	8.68
506.203	8.75
506.553	8.6
506.903	8.68
507.253	8.52
507.603	8.55
507.953	8.79
508.303	8.73
508.652	8.62
509.002	8.7
509.352	8.75
509.701	8.7
510.051	8.62
510.4	8.6
510.75	8.73
511.099	8.8
511.449	8.66
511.798	8.64
512.147	8.71
512.496	8.68
512.846	8.84
513.195	8.74
513.544	8.78
513.893	8.84
514.242	8.75
514.591	8.85
514.939	8.8
515.288	8.79
515.637	8.8
515.986	8.75
516.334	9.11
516.683	8.86
517.032	9.07
517.38	9
517.729	9.06
518.077	8.82
518.426	8.99
518.774	9.25
519.122	8.93
519.47	9.02
519.819	8.81
520.167	8.7
520.515	8.88
520.863	8.88
521.211	8.88
521.559	9.02
521.907	8.9
522.255	9.01
522.602	9.07
522.95	9.01
523.298	9.03
523.645	9.13
523.993	9.03
524.341	9.3
524.688	9.38
525.036	9.25
525.383	9.19
525.73	9.45
526.078	9.25
526.425	9.12
526.772	9.35
527.119	9.22
527.466	9.05
527.814	9.16
528.161	9.08
528.508	9.14
528.854	9.05
529.201	9.11
529.548	9.03
529.895	8.99
530.242	8.9
530.588	8.93
530.935	8.86
531.282	8.88
531.628	8.78
531.975	8.92
532.321	9.09
532.667	9.14
533.014	9.18
533.36	9.32
533.706	9.36
534.052	9.32
534.399	9.38
534.745	9.34
535.091	9.23
535.437	9.24
535.783	9.18
536.129	9.21
536.474	9.29
536.82	9.41
537.166	9.48
537.512	9.58
537.857	9.58
538.203	9.57
538.549	9.45
538.894	9.51
539.239	9.52
539.585	9.55
539.93	9.48
540.276	9.64
540.621	9.74
540.966	9.78
541.311	9.8
541.656	9.82
542.001	9.84
542.346	9.75
542.691	9.65
543.036	9.68
543.381	9.48
543.726	9.49
544.071	9.67
544.415	9.59
544.76	9.51
545.105	9.66
545.449	9.75
545.794	9.9
546.138	9.8
546.483	9.96
546.827	9.92
547.171	10.02
547.516	10.08
547.86	9.97
548.204	9.93
548.548	9.92
548.892	10.07
549.236	10.04
549.58	9.97
549.924	10.15
550.268	10.24
550.612	10.26
550.956	10.41
551.3	10.16
551.643	10.43
551.987	10.45
552.33	10.37
552.674	10.7
553.017	10.34
553.361	10.39
553.704	10.71
554.048	10.48
554.391	10.56
554.734	10.5
555.077	10.44
555.42	10.28
555.764	10.38
556.107	10.27
556.45	10.41
556.793	10.7
557.135	10.85
557.478	10.88
557.821	10.82
558.164	10.7
558.507	10.66
558.849	10.64
559.192	10.97
559.534	10.68
559.877	10.89
560.219	10.93
560.562	11.13
560.904	10.91
561.246	10.86
561.589	11.05
561.931	10.78
562.273	10.79
562.615	11.21
562.957	11.01
563.299	10.8
563.641	10.73
563.983	11.13
564.325	10.93
564.667	10.92
565.008	11.07
565.35	10.71
565.692	10.99
566.033	11.02
566.375	11.2
566.716	11.33
567.058	10.97
567.399	11.11
567.741	11.04
568.082	11.29
568.423	11.09
568.764	11.04
569.105	11.11
569.447	11.12
569.788	11.19
570.129	11.27
570.47	11.36
570.811	11.44
571.151	11.47
571.492	11.49
571.833	11.57
572.174	11.33
572.514	11.37
572.855	11.44
573.195	11.35
573.536	11.58
573.876	11.4
574.217	11.32
574.557	11.41
574.898	11.48
575.238	11.56
575.578	11.42
575.918	11.48
576.258	11.78
576.598	11.71
576.938	11.55
577.278	11.51
577.618	11.62
577.958	11.73
578.298	11.62
578.638	11.59
578.977	11.79
579.317	11.54
579.657	11.81
579.996	11.89
580.336	11.96
580.675	12.05
581.014	11.91
581.354	12.04
581.693	12.17
582.032	12.19
582.372	11.82
582.711	12.07
583.05	12.12
583.389	12.09
583.728	11.95
584.067	12.21
584.406	12.4
584.745	12.15
585.083	12.59
585.422	12.54
585.761	12.46
586.1	12.33
586.438	12.45
586.777	12.56
587.115	12.7
587.454	12.28
587.792	12.3
588.13	12.38
588.469	12.47
588.807	12.37
589.145	12.31
589.483	12.13
589.821	12.48
590.159	12.56
590.497	12.67
590.835	12.82
591.173	12.8
591.511	12.69
591.849	12.57
592.187	12.63
592.524	12.57
592.862	12.68
593.2	12.93
593.537	12.76
593.875	12.86
594.212	12.53
594.55	12.74
594.887	13.06
595.224	12.88
595.561	13.05
595.899	12.86
596.236	12.63
596.573	12.99
596.91	12.78
597.247	12.73
597.584	13.2
597.921	13.17
598.258	12.81
598.594	13.04
598.931	12.99
599.268	13.2
599.604	13.11
599.941	13.05
600.277	12.68
600.614	13.03
600.95	13.07
601.287	12.93
601.623	13.16
601.959	13.06
602.296	13.5
602.632	13.14
602.968	13.39
603.304	13.55
603.64	13.33
603.976	13.68
604.312	13.04
604.648	13.21
604.984	13.67
605.319	13.34
605.655	13.46
605.991	13.59
606.326	13.47
606.662	13.37
606.998	13.26
607.333	13.61
607.668	13.54
608.004	13.51
608.339	13.87
608.674	13.62
609.01	13.65
609.345	13.58
609.68	13.98
610.015	13.74
610.35	13.79
610.685	13.61
611.02	13.77
611.355	13.89
611.689	13.64
612.024	13.87
612.359	13.8
612.694	13.59
613.028	13.51
613.363	14.12
613.697	14.14
614.032	14.29
614.366	14
614.7	14.39
615.035	13.95
615.369	14.09
615.703	14.05
616.037	14.15
616.371	14.12
616.705	14.38
617.039	14.22
617.373	14.5
617.707	14.27
618.041	14.05
618.375	14.45
618.709	14.45
619.042	14.54
619.376	14.55
619.71	14.68
620.043	14.46
620.377	14.67
620.71	14.51
621.043	14.36
621.377	14.82
621.71	14.57
622.043	14.38
622.376	14.25
622.709	14.93
623.043	14.58
623.376	14.84
623.709	14.45
624.041	15
624.374	14.82
624.707	14.95
625.04	14.84
625.373	14.57
625.705	14.8
626.038	14.99
626.37	14.82
626.703	14.99
627.035	14.75
627.368	15.39
627.7	14.73
628.032	14.69
628.365	15.14
628.697	15.19
629.029	14.77
629.361	14.82
629.693	15.2
630.025	15.09
630.357	15.15
630.689	15.28
631.021	14.97
631.353	15.43
631.684	14.99
632.016	15.12
632.348	15.5
632.679	15.43
633.011	15.51
633.342	15.82
633.674	15.38
634.005	15.67
634.336	15.29
634.668	16.4
634.999	15.4
635.33	15.98
635.661	15.81
635.992	15.49
636.323	15.8
636.654	15.65
636.985	15.66
637.316	15.65
637.647	15.48
637.977	15.8
638.308	15.61
638.639	15.68
638.969	16.08
639.3	16.03
639.63	15.54
639.961	15.94
640.291	16.03
640.622	15.78
640.952	16.22
641.282	16.03
641.612	16
641.943	16.1
642.273	16.73
642.603	16.26
642.933	16.3
643.263	16.21
643.592	16.07
643.922	16.12
644.252	16.4
644.582	16.33
644.911	15.67
645.241	16.18
645.571	16.39
645.9	16.23
646.23	16.29
646.559	16.14
646.888	15.86
647.218	16.02
647.547	16.48
647.876	16.38
648.205	16.68
648.534	16.4
648.863	16.32
649.192	16.55
649.521	16.48
649.85	16.29
650.179	16.22
650.508	16.37
650.837	15.91
651.165	16.14
651.494	17.05
651.822	16.55
652.151	16.87
652.479	16.76
652.808	16.47
653.136	17.11
653.465	16.49
653.793	16.66
654.121	16.5
654.449	16.86
654.777	16.51
655.105	16.55
655.433	16.84
655.761	16.37
656.089	16.55
656.417	16.99
656.745	17.16
657.073	17.19
657.4	17.64
657.728	17.11
658.056	17.19
658.383	16.95
658.711	17.51
659.038	17.28
659.365	17.45
659.693	17.13
660.02	17.08
660.347	17.16
660.674	17.43
661.001	17.47
661.329	16.65
661.656	17.41
661.982	17.06
662.309	17.3
662.636	17.13
662.963	17.47
663.29	17.37
663.616	17.88
663.943	16.74
664.27	17.6
664.596	17.99
664.923	17.28
665.249	18.2
665.576	17.67
665.902	18.1
666.228	18.25
666.554	17.69
666.881	17.89
667.207	17.75
667.533	18.12
667.859	17.56
668.185	17.79
668.511	17.16
668.837	16.82
669.162	17.74
669.488	17.16
669.814	17.9
670.139	18.32
670.465	17.92
670.791	17.71
671.116	17.87
671.442	17.8
671.767	18.1
672.092	18.08
672.418	18.88
672.743	18.55
673.068	17.48
673.393	17.77
673.718	18.86
674.043	17.93
674.368	18.15
674.693	18.32
675.018	18.3
675.343	18.35
675.667	18.8
675.992	18.75
676.317	18.33
676.641	18.49
676.966	18.73
677.29	18.48
677.615	18.62
677.939	18.62
678.264	19.22
678.588	18.54
678.912	18.8
679.236	19.2
679.56	18.83
679.885	19.42
680.209	19.25
680.532	18.73
680.856	19.43
681.18	18.56
681.504	19.1
681.828	19.21
682.152	18.29
682.475	18.78
682.799	19.12
683.122	18.96
683.446	19.05
683.769	18.95
684.093	19.41
684.416	19.41
684.739	19.02
685.062	18.68
685.386	19.19
685.709	18.94
686.032	18.45
686.355	19.32
686.678	19.02
687.001	19.42
687.324	19.78
687.646	19.04
687.969	18.89
688.292	19.31
688.614	18.62
688.937	19.14
689.26	19.56
689.582	19.24
689.904	19.19
690.227	19.65
690.549	18.95
690.871	20.24
691.194	19.42
691.516	19.13
691.838	19.91
692.16	18.95
692.482	19.7
692.804	19.71
693.126	19.46
693.448	19.69
693.769	20.54
694.091	19.05
694.413	19.95
694.735	19.57
695.056	19.42
695.378	19.88
695.699	19.93
696.021	19.28
696.342	19.2
696.663	19.74
696.984	19.54
697.306	18.52
697.627	20.58
697.948	20.63
698.269	19.43
698.59	19.75
698.911	18.79
699.232	19.25
699.553	19.77
699.873	20.27
700.194	20.12
700.515	19.98
700.835	20.22
701.156	20.21
701.477	20.11
701.797	20.14
702.117	20.02
702.438	20.62
702.758	19.57
703.078	21.27
703.398	19.63
703.719	19.85
704.039	19.78
704.359	20.99
704.679	20.35
704.999	20.71
705.319	20.73
705.638	20.73
705.958	19.87
706.278	20.75
706.597	20
706.917	20.74
707.237	20.95
707.556	20.84
707.876	21.45
708.195	20.5
708.514	19.98
708.834	20.49
709.153	20.76
709.472	21.74
709.791	21.86
710.11	21.45
710.429	20.66
710.748	20.96
711.067	21.01
711.386	20.89
711.705	21.39
712.023	21.91
712.342	20.28
712.661	20.81
712.979	20.54
713.298	21.48
713.616	21.32
713.935	20.86
714.253	20.12
714.572	21.01
714.89	20.95
715.208	22.24
715.526	21.65
715.844	21.85
716.162	21.61
716.48	22.18
716.798	21.21
717.116	21.16
717.434	20.33
717.752	20.09
718.069	21.27
718.387	20.78
718.705	21.74
719.022	20.94
719.34	20.38
719.657	20.81
719.975	21.7
720.292	21.7
720.609	21.61
720.927	21.53
721.244	22.07
721.561	22.14
721.878	21.27
722.195	20.73
722.512	22.72
722.829	21.34
723.146	21.32
723.463	21.79
723.779	21.04
724.096	22.65
724.413	20.45
724.729	20.57
725.046	21.22
725.362	22.91
725.679	22.39
725.995	21.04
726.311	20.9
726.628	22.25
726.944	23.87
727.26	22.61
727.576	23.77
727.892	23.09
728.208	21.88
728.524	21.27
728.84	22.05
729.156	21.23
729.472	20.6
729.787	20.97
730.103	23.15
730.419	22.87
730.734	21.34
731.05	21.18
731.365	21.6
731.681	22.72
731.996	22.94
732.311	21.87
732.626	22.74
732.942	20.94
733.257	22.99
733.572	22.43
733.887	22.76
734.202	23.01
734.517	22.28
734.832	22.21
735.146	22.9
735.461	22.91
735.776	22.78
736.091	22.97
736.405	23.87
736.72	21.19
737.034	23.66
737.349	25.09
737.663	22.2
737.977	21.68
738.292	23.39
738.606	23.69
738.92	23.86
739.234	23.08
739.548	23.28
739.862	23.92
740.176	22.74
740.49	23.57
740.804	23.74
741.117	24.51
741.431	22.49
741.745	21.22
742.058	23.19
742.372	24.03
742.685	22.22
742.999	23.08
743.312	21.48
743.626	24.23
743.939	24.22
744.252	24.57
744.565	22.26
744.878	25.27
745.191	22.26
745.505	22.41
745.817	24.9
746.13	24.32
746.443	23.57
746.756	24.45
747.069	24.15
747.381	23.56
747.694	22.36
748.007	22.98
748.319	24.48
748.632	22.95
748.944	23.76
749.256	24.43
749.569	23.28
749.881	24.9
750.193	24.88
750.505	21.55
750.817	24.89
751.129	23.88
751.441	24.33
751.753	24.89
752.065	24.36
752.377	26.26
752.689	24.9
753	23.82
753.312	23.58
753.624	22.99
753.935	25.22
754.247	25.61
754.558	21.86
754.869	25.46
755.181	24.83
755.492	25.73
755.803	24.89
756.114	25.66
756.425	23.06
756.736	20.96
757.047	24.06
757.358	25.44
757.669	24.65
757.98	25.41
758.291	20.73
758.601	25.38
758.912	22.98
759.223	23.65
759.533	23.76
759.844	22.77
760.154	25.14
760.464	24.73
760.775	25.57
761.085	23.98
761.395	25.71
761.705	23.28
762.016	24.8
762.326	24.04
762.636	22.96
762.945	23.35
763.255	26.58
763.565	22.77
763.875	25.77
764.185	23.76
764.494	24.55
764.804	26.18
765.113	24.79
765.423	23.84
765.732	24.07
766.042	24.68
766.351	23.87
766.66	24.29
766.97	25.82
767.279	22.88
767.588	26.99
767.897	27.31
768.206	22.98
768.515	24.78
768.824	23.49
769.133	23.48
769.441	24.14
769.75	25.21
770.059	26.31
770.367	27.39
770.676	24.38
770.984	25.73
771.293	24.73
771.601	30.02
771.91	24.43
772.218	26.83
772.526	26.4
772.834	27.11
773.142	24.29
773.45	24.88
773.758	23.79
774.066	23.31
774.374	21.66
774.682	28.31
774.99	26.59
775.298	23.65
775.605	24.68
775.913	23.01
776.22	28.43
776.528	23.63
776.835	28.39
777.143	26.5
777.45	25.16
777.757	25.71
778.065	24.54
778.372	25.89
778.679	23.02
778.986	25.41
779.293	26.41
779.6	25.67
779.907	26.56
780.214	25.35
780.52	26.57
780.827	26.85
781.134	24.17
781.44	22.29
781.747	25.91
782.053	27.29
782.36	28.17
782.666	24.69
782.973	23.17
783.279	23.84
783.585	26.47
783.891	31.38
784.197	28.47
784.503	28.51
784.809	21.91
785.115	26.41
785.421	27.86
785.727	23.99
786.033	25.54
786.339	26.72
786.644	28.03
786.95	22.49
787.255	26.81
787.561	29.52
787.866	29.06
788.172	26
788.477	26.9
788.782	26.41
789.088	28.78
789.393	24.02
789.698	27.24
790.003	26.95
790.308	24.89
790.613	22.3
790.918	26.96
791.223	25.58
791.527	25.7
791.832	26.84
792.137	21.33
792.441	21.45
792.746	22.57
793.05	25.46
793.355	27.8
793.659	27.39
793.963	25.93
794.268	23.98
794.572	26.67
794.876	25.55
795.18	29.42
795.484	22.32
795.788	27.52
796.092	25.1
796.396	22.88
796.7	23.53
797.004	24.94
797.307	21.99
797.611	27.16
797.915	25.58
798.218	28.29
798.522	30.7
798.825	26.12
799.128	25.47
799.432	25.13
799.735	28.75
800.038	29.27
800.341	25.53
800.644	26.68
800.947	24.56
801.25	29.11
801.553	25.4
801.856	24.97
802.159	25.52
802.462	24.61
802.764	26.31
803.067	23.23
803.37	26.29
803.672	21.44
803.975	30.47
804.277	29.58
804.579	26.63
804.882	23.24
805.184	27.91
805.486	29.58
805.788	28.78
806.09	27.99
806.392	24.68
806.694	27.42
806.996	27.48
807.298	24.83
807.6	28.75
807.902	30.04
808.203	26.98
808.505	28.93
808.807	26.55
809.108	28.8
809.409	30.04
809.711	24.84
810.012	27.15
810.313	21.61
810.615	23.44
810.916	25.76
811.217	22.78
811.518	28.16
811.819	28.75
812.12	29.29
812.421	26.58
812.722	24.7
813.023	32.21
813.323	28.04
813.624	33.4
813.925	35.34
814.225	30.62
814.526	35.01
814.826	30.79
815.126	24
815.427	22.63
815.727	23.93
816.027	27.41
816.327	21.88
816.627	24.81
816.927	27.46
817.227	19.15
817.527	28.66
817.827	35.32
818.127	30.13
818.427	27.09
818.727	25.6
819.026	26.92
819.326	31.85
819.625	27.71
819.925	23.18
820.224	29.81
820.524	28.41
820.823	26.98
821.122	26.49
821.421	27.52
821.72	24.98
822.019	28.57
822.318	24.54
822.617	26.16
822.916	24.98
823.215	25.18
823.514	31.13
823.813	24.96
824.111	28.87
824.41	28.64
824.709	27.72
825.007	28.8
825.306	28.7
825.604	29.11
825.902	29.37
826.201	28.75
826.499	28.57
826.797	28.74
827.095	27.98
827.393	28.38
827.691	28.11
827.989	26.2
828.287	29.32
828.585	28.34
828.882	26.27
829.18	28.65
829.478	30.54
829.775	30.12
830.073	31.36
830.37	32.44
830.668	30.19
830.965	31.57
831.263	27.36
831.56	28.78
831.857	29.04
832.154	30.05
832.451	31.8
832.748	31.18
833.045	33.98
833.342	35.42
833.639	24.88
833.936	26.08
834.232	31.14
834.529	32.17
834.826	24.01
835.122	24.77
835.419	26.96
835.715	22.77
836.012	30.07
836.308	22.71
836.604	24.89
836.901	31.04
837.197	29.52
837.493	28.35
837.789	26.73
838.085	31.42
838.381	31.66
838.677	27.69
838.972	29.63
839.268	27.75
839.564	26.83
839.86	33.91
840.155	24.2
840.451	20.09
840.746	37.39
841.042	33.92
841.337	30.17
841.632	31.46
841.928	43.68
842.223	26.77
842.518	30.13
842.813	31.51
843.108	16
843.403	37.1
843.698	21.78
843.993	28.39
844.287	26.58
844.582	28.41
844.877	25.97
845.171	32.91
845.466	37.03
845.761	19.99
846.055	31.59
846.349	13.77
846.644	24.52
846.938	13.74
847.232	22.65
847.526	23.54
847.82	30.92
848.114	34.47
848.408	21.84
848.702	47.5
848.996	9.68
849.29	30.13
849.584	42.24
849.877	33.47
850.171	42.36
850.465	7.45
850.758	13.63
851.052	27.42
851.345	36.51
851.638	36.19
851.932	19.59
852.225	10.47
852.518	28.44
852.811	29.23
853.104	11.81
853.397	45.43
853.69	23.65
853.983	-3.55
854.276	26.12
854.569	37.19
854.861	1.09
855.154	28.35
855.447	4.29
855.739	25.05
856.032	49.69
856.324	34.57
856.616	37
856.909	37.67
857.201	30.26
857.493	28.49
857.785	-21.17
858.077	42.04
858.369	24.02
858.661	15.77
858.953	20.02
859.245	18.22
859.537	37.17
859.829	24.45
860.12	41.78
860.412	21.84
860.703	15.77
860.995	19.23
861.286	15.78
861.578	9.68
861.869	22.26
862.16	30.05
862.452	16.77
862.743	-2.58
863.034	33.11
863.325	23.53
863.616	27.51
863.907	21.67
864.198	0.59
864.488	25.4
864.779	12.4
865.07	19.46
865.36	13.26
865.651	34.39
865.941	54.05
866.232	6
866.522	-90.86
866.813	24.66
867.103	21.56
867.393	16
867.683	35
867.973	36.61
868.263	24.49
868.553	34.67
868.843	51.33
869.133	-3.95
869.423	23.66
869.713	32.72
870.002	45.21
870.292	39.85
870.582	22.28
870.871	21.65
871.161	26.21
871.45	27.87
871.739	11.28
872.029	22.65
872.318	41.74
872.607	30.62
872.896	-26.51
873.185	27.58
873.474	-68.06
873.763	16.65
874.052	5.38
874.341	26.16
874.63	23.74
874.918	1.77
875.207	61.58
875.496	42.56
875.784	-22.07
876.073	-17.45
876.361	-22.18
876.649	16.26
876.938	-11.33
877.226	25.7
877.514	27.17
877.802	26.73
878.09	35.88
878.378	29.94
878.666	-5.02
878.954	38.65
879.242	7.98
879.53	33.79
879.817	34.9
880.105	26.61
880.392	59.07
880.68	19.62
880.967	18.97
881.255	10.14
881.542	24.85
881.83	-10.29
882.117	28.07
882.404	0.36
882.691	38.66
882.978	40.93
883.265	35.5
883.552	27.07
883.839	23.21
884.126	27
884.413	37.48
884.699	41.87
884.986	36.22
885.273	39.98
885.559	39.98
885.846	39.98
