Data from 0404_crown_Reflection__5__102.txt Node

Date: Fri Dec 15 17:21:31 CST 2023
User: ToomeyLab
Spectrometer: FLMS14357
Trigger mode: 0
Integration Time (sec): 1.000000E-2
Scans to average: 100
Electric dark correction enabled: true
Nonlinearity correction enabled: false
Boxcar width: 0
XAxis mode: Wavelengths
Number of Pixels in Spectrum: 2048
>>>>>Begin Spectral Data<<<<<
189.047	-92.62
189.435	-92.62
189.823	-92.62
190.211	-3.8
190.599	46.48
190.987	148.74
191.375	39.37
191.763	-31.03
192.151	30.08
192.538	40.47
192.926	-45.38
193.314	274.14
193.702	-99.16
194.089	225.14
194.477	-26.75
194.864	-938.65
195.252	38.27
195.639	87.37
196.027	9.41
196.414	205.76
196.801	244.69
197.189	132.39
197.576	22.17
197.963	97.61
198.351	-94.78
198.738	-136.84
199.125	10.65
199.512	-58.6
199.899	8.63
200.286	11.69
200.673	12.14
201.06	42.81
201.447	-13.4
201.833	11.03
202.22	-2.49
202.607	10.29
202.994	-20.54
203.38	13.46
203.767	-5.33
204.154	-22.96
204.54	2.58
204.927	-57.67
205.313	-101.6
205.699	-11.35
206.086	30.36
206.472	33.55
206.858	-1.97
207.245	-55.71
207.631	-2.2
208.017	6.65
208.403	-0.59
208.789	-15.04
209.175	12.05
209.561	1.03
209.947	-38.56
210.333	-25.57
210.719	-26.97
211.105	-21.42
211.491	-11.58
211.876	26.86
212.262	-5.84
212.648	33.53
213.034	-0.29
213.419	-54.23
213.805	-47.93
214.19	-33.09
214.576	-30.85
214.961	-32.72
215.346	-118.17
215.732	33.55
216.117	-4.96
216.502	-39.87
216.888	-8.4
217.273	1.71
217.658	-15.57
218.043	22.1
218.428	-97.28
218.813	-14.38
219.198	-4.42
219.583	10.13
219.968	-8.76
220.353	-43.19
220.738	17.71
221.122	5.26
221.507	-30.19
221.892	-34.23
222.276	-9.25
222.661	-9.96
223.046	4.26
223.43	2.27
223.815	2.38
224.199	-16.47
224.583	-7.15
224.968	-6.78
225.352	8.25
225.736	-14.31
226.121	-15.77
226.505	-7.36
226.889	5.46
227.273	-1.35
227.657	4.94
228.041	5.29
228.425	6.49
228.809	8.53
229.193	2
229.577	0.77
229.961	3.44
230.344	2.43
230.728	3.94
231.112	3.48
231.495	3.42
231.879	2.06
232.263	2.16
232.646	2.07
233.03	2.91
233.413	3.44
233.797	5.57
234.18	-0.53
234.563	3.49
234.946	-1.61
235.33	3.87
235.713	3.51
236.096	2.92
236.479	3.85
236.862	1.75
237.245	6.53
237.628	2.82
238.011	1.83
238.394	3.43
238.777	4.34
239.16	1.75
239.543	1.82
239.925	5.88
240.308	-0.44
240.691	5.92
241.073	3.92
241.456	1.95
241.838	1.06
242.221	1.76
242.603	2.39
242.986	3.51
243.368	3.28
243.75	3.6
244.133	3.43
244.515	3.76
244.897	3.06
245.279	2.96
245.661	2
246.043	2.05
246.425	1.51
246.807	2.58
247.189	3.68
247.571	2.04
247.953	3.19
248.335	3.07
248.717	3.17
249.098	3.27
249.48	3.63
249.862	3.43
250.243	2.88
250.625	3.57
251.006	3.2
251.388	1.62
251.769	2.02
252.151	3.75
252.532	3.45
252.913	2.43
253.295	1.41
253.676	2.55
254.057	3.28
254.438	3.64
254.819	2.5
255.2	2.12
255.581	3.03
255.962	2.23
256.343	3.39
256.724	1.62
257.105	2.37
257.486	2.32
257.867	2.5
258.247	2.98
258.628	3.28
259.009	2.98
259.389	2.59
259.77	3
260.15	2.4
260.531	2.28
260.911	3.65
261.292	2.85
261.672	3.45
262.052	3.13
262.432	3.4
262.813	3.42
263.193	3.3
263.573	2.82
263.953	1.61
264.333	3.49
264.713	3.39
265.093	2.36
265.473	2.78
265.853	2.23
266.233	3.1
266.612	0.24
266.992	1.56
267.372	3.39
267.752	3.05
268.131	3.18
268.511	3.53
268.89	3.42
269.27	2.72
269.649	2.66
270.029	2.31
270.408	2.93
270.787	3.25
271.167	3.6
271.546	3.43
271.925	2.42
272.304	2.76
272.683	2.78
273.062	2.78
273.441	2.84
273.82	2.6
274.199	2.95
274.578	3.18
274.957	2.78
275.336	3.53
275.715	2.67
276.093	2.89
276.472	3.59
276.851	2.65
277.229	2.88
277.608	2.21
277.986	2.71
278.365	3.09
278.743	1.91
279.122	2.65
279.5	3.04
279.878	3.16
280.257	2.72
280.635	2.65
281.013	2.86
281.391	2.92
281.769	2.8
282.147	3.15
282.525	3.68
282.903	2.4
283.281	3.15
283.659	3.49
284.037	2.56
284.415	2.98
284.792	3.31
285.17	1.91
285.548	2.34
285.925	3.06
286.303	3.42
286.68	2.62
287.058	3.42
287.435	2.88
287.813	3.14
288.19	2.75
288.567	2.71
288.945	3.22
289.322	3.03
289.699	2.7
290.076	2.53
290.453	3.05
290.83	2.77
291.207	2.83
291.584	3.27
291.961	3.5
292.338	3.16
292.715	3.29
293.092	2.96
293.469	2.86
293.845	3.34
294.222	2.1
294.599	3.02
294.975	2.35
295.352	3.12
295.728	2.08
296.105	2.8
296.481	3.3
296.858	2.98
297.234	2.5
297.61	2.92
297.986	2.51
298.363	3.18
298.739	3.16
299.115	2.85
299.491	2.66
299.867	2.98
300.243	3.43
300.619	2.66
300.995	2.39
301.371	3.43
301.746	2.1
302.122	3.33
302.498	2.9
302.874	3.2
303.249	2.88
303.625	2.8
304	2.5
304.376	3.01
304.751	2.22
305.127	3.45
305.502	2.13
305.878	2.33
306.253	2.88
306.628	3.08
307.003	2.91
307.378	3.46
307.754	3.15
308.129	2.31
308.504	2.73
308.879	2.75
309.254	3.24
309.629	2.98
310.003	2.88
310.378	3.11
310.753	2.8
311.128	3.08
311.502	3.14
311.877	3.24
312.252	2.13
312.626	2.79
313.001	2.64
313.375	3.01
313.75	2.63
314.124	3.2
314.498	2.69
314.873	2.2
315.247	2.5
315.621	2.59
315.995	1.28
316.369	3.13
316.743	2.25
317.117	2.51
317.491	2.8
317.865	2.59
318.239	2.69
318.613	2.98
318.987	2.82
319.361	2.18
319.734	2.98
320.108	3.33
320.482	2.28
320.855	3.41
321.229	2.81
321.602	2.91
321.976	3.12
322.349	2.2
322.723	2.62
323.096	2.82
323.469	1.91
323.843	2.94
324.216	2.67
324.589	2.15
324.962	2.56
325.335	1.88
325.708	1.99
326.081	2.37
326.454	2.7
326.827	2.66
327.2	2.48
327.573	2.57
327.945	2.95
328.318	1.83
328.691	2.02
329.063	2.81
329.436	2.81
329.809	3.02
330.181	2.43
330.553	2.88
330.926	2.52
331.298	2.94
331.671	2.52
332.043	3.34
332.415	2.94
332.787	2.7
333.159	3.16
333.532	2.81
333.904	2.51
334.276	2.59
334.648	2.69
335.02	2.41
335.391	2.04
335.763	2.4
336.135	3.01
336.507	3.12
336.879	2.95
337.25	2.25
337.622	2.73
337.993	2.32
338.365	3.04
338.736	2.36
339.108	2.72
339.479	2.54
339.851	2.7
340.222	2.59
340.593	2.38
340.964	2.64
341.336	3.4
341.707	2.61
342.078	2.75
342.449	2.71
342.82	2.36
343.191	2.83
343.562	2.84
343.933	2.91
344.303	2.76
344.674	2.39
345.045	2.61
345.416	2.74
345.786	2.27
346.157	3.15
346.527	2.52
346.898	2.44
347.268	2.73
347.639	2.7
348.009	2.76
348.38	2.39
348.75	2.66
349.12	2.32
349.49	2.74
349.861	2.64
350.231	2.24
350.601	2.36
350.971	2.63
351.341	2.68
351.711	2.71
352.081	2.53
352.45	2.82
352.82	2.75
353.19	2.53
353.56	2.3
353.929	3.14
354.299	1.93
354.669	2.26
355.038	2.69
355.408	2.27
355.777	2.66
356.147	2.38
356.516	2.41
356.885	2.66
357.254	2.59
357.624	2.69
357.993	2.85
358.362	2.66
358.731	2.5
359.1	2.49
359.469	3.13
359.838	2.75
360.207	2.39
360.576	2.67
360.945	2.51
361.314	3.28
361.682	2.76
362.051	2.52
362.42	2.79
362.788	2.6
363.157	2.79
363.525	2.76
363.894	2.92
364.262	2.91
364.631	2.87
364.999	2.73
365.367	2.5
365.735	3.13
366.104	2.91
366.472	2.93
366.84	2.66
367.208	2.47
367.576	2.62
367.944	3.17
368.312	2.6
368.68	2.26
369.048	2.82
369.416	2.36
369.783	2.59
370.151	2.72
370.519	3.21
370.886	2.95
371.254	2.51
371.621	3
371.989	2.79
372.356	2.19
372.724	2.44
373.091	2.78
373.458	2.84
373.826	3.01
374.193	2.43
374.56	2.93
374.927	2.4
375.294	2.6
375.661	2.59
376.028	2.41
376.395	2.44
376.762	3.08
377.129	2.59
377.496	2.42
377.863	2.64
378.229	2.21
378.596	2.96
378.963	2.37
379.329	2.47
379.696	2.83
380.062	2.75
380.429	2.6
380.795	2.39
381.161	2.7
381.528	3.16
381.894	2.73
382.26	2.68
382.626	2.83
382.993	2.56
383.359	3.11
383.725	2.93
384.091	2.89
384.457	2.88
384.823	2.67
385.188	2.8
385.554	2.59
385.92	2.92
386.286	2.85
386.651	2.98
387.017	3.15
387.383	3.13
387.748	2.91
388.114	2.83
388.479	2.6
388.845	3.1
389.21	2.86
389.575	2.54
389.94	2.52
390.306	2.77
390.671	2.87
391.036	2.4
391.401	2.46
391.766	2.26
392.131	2.66
392.496	2.9
392.861	2.85
393.226	3.1
393.591	2.82
393.956	2.72
394.32	2.85
394.685	2.58
395.05	2.58
395.414	2.84
395.779	2.53
396.143	2.75
396.508	2.92
396.872	3.03
397.236	3.08
397.601	2.8
397.965	2.71
398.329	2.77
398.694	2.94
399.058	2.73
399.422	2.57
399.786	3.03
400.15	2.82
400.514	2.88
400.878	2.97
401.242	3.14
401.605	2.8
401.969	2.96
402.333	2.92
402.697	2.78
403.06	2.95
403.424	2.96
403.787	2.78
404.151	3.02
404.514	2.89
404.878	2.95
405.241	2.92
405.604	3.01
405.968	3.18
406.331	2.73
406.694	2.92
407.057	2.72
407.42	2.84
407.783	2.74
408.146	2.7
408.509	2.8
408.872	2.52
409.235	2.95
409.598	3.09
409.961	3.01
410.323	3.16
410.686	2.59
411.049	2.7
411.411	2.64
411.774	2.95
412.136	2.96
412.499	2.74
412.861	2.69
413.223	2.66
413.586	2.91
413.948	2.93
414.31	2.88
414.672	2.55
415.035	2.75
415.397	3.28
415.759	2.8
416.121	3.04
416.483	2.72
416.845	2.87
417.206	2.9
417.568	2.79
417.93	2.71
418.292	2.9
418.653	2.83
419.015	2.94
419.377	2.85
419.738	2.95
420.1	2.88
420.461	2.86
420.822	2.99
421.184	2.81
421.545	2.88
421.906	2.81
422.267	2.9
422.629	2.87
422.99	2.86
423.351	2.72
423.712	2.85
424.073	2.94
424.434	2.9
424.795	2.83
425.155	2.93
425.516	2.68
425.877	2.8
426.238	2.72
426.598	2.95
426.959	2.87
427.32	2.76
427.68	2.85
428.041	2.74
428.401	2.95
428.761	3.08
429.122	2.96
429.482	2.82
429.842	2.96
430.202	2.93
430.563	2.96
430.923	2.88
431.283	2.84
431.643	2.93
432.003	2.76
432.363	3.16
432.722	3
433.082	2.98
433.442	2.87
433.802	2.81
434.161	2.8
434.521	3.07
434.881	2.93
435.24	2.79
435.6	2.87
435.959	2.73
436.319	2.94
436.678	2.89
437.037	2.88
437.396	3.13
437.756	2.88
438.115	2.87
438.474	3.19
438.833	2.9
439.192	2.86
439.551	2.92
439.91	2.95
440.269	2.85
440.628	2.91
440.987	2.98
441.345	2.86
441.704	2.93
442.063	2.91
442.421	2.82
442.78	2.86
443.138	2.89
443.497	2.95
443.855	2.9
444.214	2.93
444.572	3.06
444.93	2.86
445.288	2.89
445.647	2.91
446.005	3.06
446.363	3.09
446.721	3.03
447.079	2.78
447.437	2.87
447.795	2.9
448.153	2.83
448.51	2.86
448.868	3.01
449.226	3.02
449.584	2.93
449.941	3.01
450.299	2.94
450.656	2.95
451.014	3.05
451.371	2.82
451.729	2.99
452.086	3.05
452.443	3.17
452.801	2.99
453.158	3.08
453.515	2.75
453.872	3.06
454.229	2.93
454.586	2.88
454.943	2.97
455.3	2.99
455.657	2.95
456.014	2.89
456.371	2.93
456.727	3
457.084	3.08
457.441	3.01
457.797	2.94
458.154	3.25
458.51	3.07
458.867	3.13
459.223	3.14
459.58	3.02
459.936	3.2
460.292	3.1
460.648	2.97
461.005	2.76
461.361	2.89
461.717	2.97
462.073	2.98
462.429	2.95
462.785	2.91
463.141	2.99
463.496	2.94
463.852	3.16
464.208	3.08
464.564	3.06
464.919	3.02
465.275	2.91
465.631	3.14
465.986	2.96
466.342	3.06
466.697	2.97
467.052	3.1
467.408	2.95
467.763	3.02
468.118	3.15
468.473	2.95
468.829	3.05
469.184	2.91
469.539	3.07
469.894	2.97
470.249	3.12
470.603	3.15
470.958	3.25
471.313	3.11
471.668	3.05
472.023	3.22
472.377	3.1
472.732	3
473.086	3
473.441	2.87
473.795	3.2
474.15	3.25
474.504	3.17
474.859	3.07
475.213	2.94
475.567	3.12
475.921	2.85
476.275	2.99
476.63	3.18
476.984	3.26
477.338	3.09
477.692	2.99
478.045	3.1
478.399	2.94
478.753	3.18
479.107	3.15
479.461	2.97
479.814	3.1
480.168	3.06
480.521	3.11
480.875	3.07
481.228	3.04
481.582	3.11
481.935	2.96
482.289	2.96
482.642	3.2
482.995	3.06
483.348	2.92
483.701	3.04
484.055	3.03
484.408	3.02
484.761	2.94
485.114	2.9
485.466	2.8
485.819	2.77
486.172	2.85
486.525	2.96
486.878	3.01
487.23	3
487.583	3.03
487.936	3.13
488.288	2.99
488.641	3.06
488.993	2.94
489.345	2.87
489.698	2.89
490.05	2.94
490.402	2.96
490.754	3
491.107	3.12
491.459	3.18
491.811	3.16
492.163	3.13
492.515	2.98
492.866	3.08
493.218	2.92
493.57	2.87
493.922	2.91
494.274	3.11
494.625	3.17
494.977	3.12
495.328	3.16
495.68	3.18
496.031	3.12
496.383	3.12
496.734	3.2
497.086	3.16
497.437	3.11
497.788	3.02
498.139	3.07
498.49	3.23
498.842	3.01
499.193	3.06
499.544	3.16
499.894	3.13
500.245	3.18
500.596	3.09
500.947	3.2
501.298	3.14
501.648	3.17
501.999	3.19
502.35	3.26
502.7	3.25
503.051	2.94
503.401	3.08
503.752	3.15
504.102	3.12
504.452	3.11
504.803	3.14
505.153	3.11
505.503	3.29
505.853	3.13
506.203	3.24
506.553	3.22
506.903	3.13
507.253	3.16
507.603	3.04
507.953	3.16
508.303	3.33
508.652	3
509.002	3.2
509.352	3.32
509.701	3.11
510.051	3.1
510.4	3.14
510.75	3.11
511.099	3.12
511.449	3.13
511.798	3.2
512.147	3.07
512.496	3.11
512.846	3.07
513.195	3.16
513.544	3
513.893	3.29
514.242	3.17
514.591	3.34
514.939	3.19
515.288	3.1
515.637	3.29
515.986	3.18
516.334	3.17
516.683	3.16
517.032	3.13
517.38	3.29
517.729	3.14
518.077	3.12
518.426	3.16
518.774	3.25
519.122	3.15
519.47	3.21
519.819	3
520.167	3.08
520.515	3.04
520.863	3.16
521.211	3.22
521.559	3.32
521.907	3.08
522.255	3.17
522.602	3.18
522.95	3.23
523.298	3.25
523.645	3.23
523.993	3.25
524.341	3.3
524.688	3.24
525.036	3.23
525.383	3.31
525.73	3.28
526.078	3.17
526.425	3.03
526.772	3.24
527.119	3.15
527.466	3.06
527.814	3.09
528.161	3.04
528.508	3.12
528.854	3.17
529.201	3.05
529.548	3.02
529.895	3.08
530.242	2.91
530.588	2.93
530.935	2.98
531.282	3.05
531.628	3.09
531.975	3.22
532.321	3.23
532.667	3.28
533.014	3.22
533.36	3.25
533.706	3.08
534.052	3.2
534.399	3.07
534.745	3.1
535.091	3.04
535.437	3.09
535.783	3.14
536.129	3.21
536.474	3.25
536.82	3.17
537.166	3.34
537.512	3.32
537.857	3.24
538.203	3.18
538.549	3.23
538.894	3.14
539.239	3.18
539.585	3.29
539.93	3.23
540.276	3.24
540.621	3.25
540.966	3.28
541.311	3.17
541.656	3.11
542.001	3.27
542.346	3.19
542.691	3.07
543.036	3.07
543.381	3.06
543.726	3.06
544.071	3.22
544.415	3.25
544.76	3.13
545.105	3.26
545.449	3.18
545.794	3.23
546.138	3.21
546.483	3.25
546.827	3.34
547.171	3.13
547.516	3.32
547.86	3.17
548.204	3.18
548.548	3.06
548.892	3.32
549.236	3.19
549.58	3.24
549.924	3.36
550.268	3.4
550.612	3.28
550.956	3.4
551.3	3.3
551.643	3.35
551.987	3.48
552.33	3.34
552.674	3.34
553.017	3.28
553.361	3.19
553.704	3.56
554.048	3.17
554.391	3.29
554.734	3.17
555.077	3.23
555.42	3.2
555.764	3.14
556.107	3.22
556.45	3.24
556.793	3.42
557.135	3.15
557.478	3.66
557.821	3.31
558.164	3.29
558.507	3.32
558.849	3.11
559.192	3.49
559.534	3.43
559.877	3.41
560.219	3.19
560.562	3.43
560.904	3.34
561.246	3.53
561.589	3.36
561.931	3.24
562.273	3.25
562.615	3.41
562.957	3.31
563.299	3.13
563.641	3.11
563.983	3.39
564.325	3.24
564.667	3.28
565.008	3.23
565.35	3.31
565.692	3.09
566.033	3.21
566.375	3.55
566.716	3.51
567.058	3.12
567.399	3.28
567.741	3.12
568.082	3.33
568.423	3.29
568.764	3.25
569.105	3.32
569.447	3.43
569.788	3.41
570.129	3.36
570.47	3.07
570.811	3.49
571.151	3.34
571.492	3.34
571.833	3.3
572.174	3.4
572.514	3.33
572.855	3.31
573.195	3.41
573.536	3.32
573.876	3.1
574.217	3.36
574.557	3.36
574.898	3.29
575.238	3.41
575.578	3.09
575.918	3.54
576.258	3.33
576.598	3.42
576.938	3.3
577.278	3.25
577.618	3.22
577.958	3.29
578.298	3.32
578.638	3.45
578.977	3.32
579.317	3.21
579.657	3.48
579.996	3.31
580.336	3.53
580.675	3.32
581.014	3.3
581.354	3.47
581.693	3.36
582.032	3.24
582.372	3.22
582.711	3.24
583.05	3.36
583.389	3.43
583.728	3.1
584.067	3.57
584.406	3.5
584.745	3.42
585.083	3.42
585.422	3.9
585.761	3.25
586.1	3.69
586.438	3.36
586.777	3.43
587.115	3.7
587.454	3.25
587.792	3.43
588.13	3.39
588.469	3.23
588.807	3.35
589.145	3.33
589.483	3.28
589.821	3.35
590.159	3.12
590.497	3.44
590.835	3.69
591.173	3.37
591.511	3.78
591.849	3.43
592.187	3.49
592.524	3.31
592.862	3.23
593.2	3.31
593.537	3.51
593.875	3.16
594.212	3.43
594.55	3.47
594.887	3.56
595.224	3.1
595.561	3.42
595.899	3.38
596.236	3.42
596.573	3.6
596.91	3.02
597.247	3.24
597.584	3.64
597.921	3.37
598.258	3.38
598.594	3.45
598.931	3.29
599.268	3.25
599.604	3.33
599.941	3.7
600.277	3.33
600.614	3.41
600.95	3.31
601.287	3.42
601.623	3.47
601.959	3.29
602.296	3.44
602.632	3.38
602.968	3.51
603.304	3.36
603.64	3.37
603.976	3.66
604.312	3.41
604.648	3.49
604.984	3.62
605.319	3.55
605.655	3.32
605.991	3.5
606.326	3.37
606.662	3.4
606.998	3.31
607.333	3.37
607.668	3.46
608.004	3.47
608.339	3.74
608.674	3.53
609.01	3.19
609.345	3.17
609.68	3.67
610.015	3.38
610.35	3.49
610.685	3.32
611.02	3.37
611.355	3.45
611.689	3.26
612.024	3.56
612.359	3.26
612.694	3.37
613.028	3.47
613.363	3.49
613.697	3.4
614.032	3.34
614.366	3.41
614.7	3.45
615.035	3.23
615.369	3.11
615.703	3.3
616.037	3.32
616.371	3.15
616.705	3.55
617.039	3.64
617.373	3.08
617.707	3.25
618.041	3.18
618.375	3.68
618.709	3.7
619.042	3.07
619.376	3.61
619.71	3.7
620.043	3.43
620.377	3.49
620.71	3.34
621.043	3.28
621.377	3.35
621.71	3.35
622.043	3.21
622.376	3.13
622.709	3.31
623.043	3.52
623.376	3.35
623.709	3.29
624.041	3.57
624.374	3.68
624.707	2.91
625.04	3.49
625.373	3.04
625.705	3.53
626.038	3.57
626.37	3.53
626.703	3.26
627.035	3.46
627.368	3.72
627.7	3.53
628.032	3.11
628.365	3.68
628.697	3.44
629.029	3.4
629.361	3.23
629.693	3.62
630.025	3.51
630.357	3.61
630.689	3.61
631.021	3.2
631.353	3.3
631.684	2.94
632.016	3.12
632.348	3.64
632.679	3.68
633.011	3.66
633.342	3.66
633.674	3.51
634.005	3.86
634.336	3.49
634.668	3.88
634.999	3.33
635.33	3.65
635.661	3.68
635.992	3.52
636.323	3.74
636.654	3.62
636.985	3.41
637.316	3.34
637.647	3.47
637.977	3.71
638.308	3.47
638.639	3.35
638.969	3.77
639.3	3.11
639.63	3.14
639.961	3.2
640.291	3.45
640.622	3.67
640.952	3.34
641.282	3.99
641.612	3.61
641.943	3.59
642.273	3.44
642.603	3.37
642.933	3.61
643.263	3.58
643.592	3.17
643.922	3.25
644.252	3.35
644.582	3.39
644.911	2.98
645.241	3.13
645.571	3.51
645.9	3.01
646.23	3.7
646.559	3.32
646.888	3.02
647.218	3.45
647.547	3.6
647.876	3.45
648.205	3.82
648.534	3.66
648.863	2.99
649.192	3.67
649.521	3.1
649.85	2.83
650.179	3.29
650.508	3.17
650.837	3.36
651.165	3.29
651.494	3.15
651.822	3.42
652.151	3.18
652.479	3.4
652.808	3.03
653.136	3.72
653.465	2.77
653.793	2.9
654.121	2.92
654.449	4.06
654.777	3.49
655.105	3.48
655.433	2.95
655.761	3.23
656.089	3.53
656.417	4.09
656.745	3.08
657.073	3.76
657.4	3.8
657.728	3.49
658.056	3.32
658.383	3.47
658.711	3.3
659.038	3.49
659.365	3.66
659.693	3.35
660.02	3.29
660.347	3.58
660.674	3.25
661.001	3.69
661.329	2.8
661.656	3.38
661.982	3.63
662.309	3.74
662.636	2.96
662.963	3.72
663.29	3.23
663.616	3.8
663.943	2.74
664.27	3.35
664.596	3.45
664.923	3.33
665.249	3.05
665.576	3.52
665.902	4.12
666.228	3.48
666.554	3.7
666.881	3.15
667.207	3.61
667.533	3.48
667.859	3.51
668.185	3.92
668.511	2.95
668.837	2.14
669.162	3.2
669.488	2.87
669.814	3.21
670.139	3.76
670.465	4.12
670.791	4.04
671.116	3.74
671.442	3.45
671.767	3.77
672.092	3.7
672.418	3.86
672.743	3.9
673.068	2.91
673.393	3.89
673.718	3.3
674.043	3.07
674.368	3.18
674.693	4.16
675.018	3.06
675.343	3.69
675.667	3.33
675.992	3.75
676.317	3.58
676.641	4.22
676.966	3.93
677.29	3.11
677.615	4.3
677.939	4.17
678.264	3.68
678.588	3.96
678.912	3.5
679.236	4.23
679.56	2.82
679.885	2.84
680.209	3.94
680.532	3.35
680.856	3.88
681.18	2.69
681.504	3.39
681.828	4.1
682.152	2.86
682.475	3.74
682.799	3.81
683.122	3.81
683.446	3.27
683.769	3.47
684.093	2.84
684.416	4.53
684.739	3.75
685.062	4
685.386	4.08
685.709	3.21
686.032	3.42
686.355	3.3
686.678	3.33
687.001	3.93
687.324	4.14
687.646	2.85
687.969	2.72
688.292	3.32
688.614	3.01
688.937	4.07
689.26	3.45
689.582	3.76
689.904	3.69
690.227	3.56
690.549	3.77
690.871	4.07
691.194	3.18
691.516	3.14
691.838	3.35
692.16	2.47
692.482	3.11
692.804	3.35
693.126	3.38
693.448	3.58
693.769	4.28
694.091	3.56
694.413	3.83
694.735	2.37
695.056	4.27
695.378	3.7
695.699	3.7
696.021	3.65
696.342	3.7
696.663	3.82
696.984	3.26
697.306	2.33
697.627	3.42
697.948	3.22
698.269	2.66
698.59	4.06
698.911	2.68
699.232	3.1
699.553	3.96
699.873	3.76
700.194	3.94
700.515	3.71
700.835	3.42
701.156	3.73
701.477	3.22
701.797	3.42
702.117	3.32
702.438	3.62
702.758	3.6
703.078	3.17
703.398	3.27
703.719	3.26
704.039	2.72
704.359	3.83
704.679	2.86
704.999	3.89
705.319	3.47
705.638	3.71
705.958	3.41
706.278	3.54
706.597	3.4
706.917	3.05
707.237	2.92
707.556	4.21
707.876	4.14
708.195	4
708.514	2.53
708.834	3.93
709.153	3.66
709.472	3.66
709.791	4.08
710.11	2.35
710.429	4.2
710.748	3.73
711.067	1.99
711.386	3.07
711.705	3.78
712.023	4.07
712.342	3.11
712.661	2.05
712.979	2.73
713.298	2.55
713.616	4.38
713.935	3.79
714.253	3.74
714.572	3.87
714.89	3.88
715.208	3.13
715.526	3.3
715.844	3.28
716.162	3.21
716.48	3.59
716.798	4.43
717.116	3.15
717.434	3.86
717.752	1.78
718.069	3.27
718.387	2.42
718.705	3.52
719.022	1.76
719.34	3.42
719.657	3.51
719.975	4.33
720.292	3.52
720.609	3.17
720.927	4.34
721.244	3.7
721.561	3.1
721.878	3.42
722.195	2.69
722.512	3.88
722.829	4
723.146	3.47
723.463	3.84
723.779	3
724.096	3.7
724.413	1.93
724.729	2.84
725.046	2.07
725.362	4.08
725.679	4.46
725.995	4.24
726.311	2.03
726.628	3.09
726.944	3.68
727.26	4.33
727.576	3.75
727.892	3.26
728.208	3.32
728.524	2.16
728.84	2.9
729.156	3.39
729.472	2.04
729.787	2.13
730.103	2.63
730.419	2.17
730.734	3.16
731.05	2.63
731.365	2.25
731.681	3.51
731.996	3.22
732.311	4.43
732.626	3.93
732.942	2.73
733.257	3.34
733.572	3.67
733.887	3.36
734.202	3.93
734.517	5.51
734.832	2.89
735.146	3.49
735.461	4.18
735.776	3.28
736.091	3.58
736.405	2.76
736.72	3.4
737.034	3.38
737.349	5.46
737.663	3.19
737.977	3.41
738.292	2.31
738.606	4
738.92	4.47
739.234	3.54
739.548	3.16
739.862	2.76
740.176	2.99
740.49	4.09
740.804	5.59
741.117	3.66
741.431	3.73
741.745	2.76
742.058	4.45
742.372	2.44
742.685	3.15
742.999	1.1
743.312	2.43
743.626	2.88
743.939	1.1
744.252	3.32
744.565	3.01
744.878	4.05
745.191	3.48
745.505	2.87
745.817	3.81
746.13	2.6
746.443	5.13
746.756	4.48
747.069	2.55
747.381	2.56
747.694	2.07
748.007	4.59
748.319	2.31
748.632	4.56
748.944	2.31
749.256	3.33
749.569	3.46
749.881	5.52
750.193	4.52
750.505	3.67
750.817	4.24
751.129	2.71
751.441	2.39
751.753	4.79
752.065	4.64
752.377	4.13
752.689	3.44
753	2.47
753.312	3.92
753.624	3.69
753.935	4.49
754.247	3.9
754.558	3.44
754.869	3.79
755.181	2.58
755.492	4.34
755.803	2.78
756.114	4.05
756.425	3.61
756.736	2.5
757.047	5.87
757.358	4.39
757.669	1.81
757.98	2.66
758.291	3.5
758.601	4.09
758.912	3.37
759.223	4.76
759.533	3.66
759.844	2.77
760.154	2.67
760.464	4.15
760.775	1.94
761.085	4.16
761.395	3.6
761.705	2.97
762.016	2.21
762.326	3.06
762.636	2.61
762.945	2.17
763.255	4.99
763.565	3.78
763.875	4.77
764.185	3
764.494	1.82
764.804	5.12
765.113	3.73
765.423	4.06
765.732	3.77
766.042	3.49
766.351	3.66
766.66	5.54
766.97	5.59
767.279	3.29
767.588	4.9
767.897	5.5
768.206	2.62
768.515	3.96
768.824	1.88
769.133	2.44
769.441	2.07
769.75	3.08
770.059	5.34
770.367	3.17
770.676	4.53
770.984	5.48
771.293	-0.11
771.601	4.61
771.91	1.83
772.218	6.18
772.526	3.75
772.834	5.96
773.142	0.54
773.45	1.47
773.758	2.5
774.066	1.74
774.374	2.53
774.682	2.49
774.99	3.97
775.298	2.77
775.605	5.3
775.913	0.8
776.22	4.29
776.528	4.73
776.835	5.18
777.143	3.54
777.45	3.95
777.757	2.68
778.065	2.24
778.372	3.18
778.679	1.93
778.986	3.53
779.293	2.58
779.6	3.66
779.907	1.73
780.214	1.55
780.52	4.17
780.827	3.17
781.134	3.3
781.44	0.69
781.747	2.53
782.053	0.32
782.36	2.26
782.666	4.29
782.973	0.19
783.279	3.12
783.585	1.74
783.891	3.03
784.197	3.79
784.503	4.87
784.809	1.77
785.115	4.33
785.421	4.85
785.727	4.3
786.033	4.12
786.339	3.25
786.644	6.06
786.95	-1.43
787.255	7.37
787.561	4.94
787.866	4.62
788.172	4.58
788.477	-0.15
788.782	4.73
789.088	-0.03
789.393	1.48
789.698	1.32
790.003	-2.11
790.308	3.47
790.613	4.58
790.918	2.54
791.223	4.42
791.527	-0.11
791.832	5.31
792.137	1.43
792.441	4.25
792.746	1.84
793.05	2.15
793.355	5.15
793.659	4.22
793.963	2.63
794.268	3.02
794.572	-1.47
794.876	1.22
795.18	1.93
795.484	-0.34
795.788	0.11
796.092	0.52
796.396	1.13
796.7	3.73
797.004	2.27
797.307	0.16
797.611	6.59
797.915	4.13
798.218	4.8
798.522	2.11
798.825	1.84
799.128	1.96
799.432	0.73
799.735	-3.51
800.038	8.52
800.341	2.47
800.644	3.94
800.947	5.77
801.25	-0.14
801.553	4.91
801.856	-0.33
802.159	-1.2
802.462	6.18
802.764	2.81
803.067	2.82
803.37	1.92
803.672	1.45
803.975	0.52
804.277	2.77
804.579	-0.22
804.882	-0.91
805.184	0.41
805.486	0.01
805.788	0.08
806.09	5.06
806.392	0.1
806.694	5.87
806.996	0.27
807.298	-1.43
807.6	5.03
807.902	5.67
808.203	1.08
808.505	4.36
808.807	1.07
809.108	1.34
809.409	1.99
809.711	-0.13
810.012	0.6
810.313	6.06
810.615	4.4
810.916	-1.89
811.217	-0.3
811.518	5.12
811.819	1.04
812.12	-4.29
812.421	2.96
812.722	2.66
813.023	8.05
813.323	5.83
813.624	-7.16
813.925	12.22
814.225	-0.41
814.526	5.32
814.826	1.02
815.126	-0.49
815.427	-0.24
815.727	1.38
816.027	3.22
816.327	4.26
816.627	-5.83
816.927	6.36
817.227	2.8
817.527	1.76
817.827	6.54
818.127	6.22
818.427	-3.67
818.727	1.96
819.026	4.32
819.326	7.38
819.625	2.05
819.925	-0.45
820.224	9.02
820.524	1.01
820.823	9.78
821.122	0.47
821.421	0.52
821.72	5.75
822.019	2.75
822.318	1.91
822.617	0.14
822.916	4.25
823.215	1.92
823.514	5.9
823.813	2.9
824.111	8
824.41	6.65
824.709	4.5
825.007	4.61
825.306	5.04
825.604	5.46
825.902	5.17
826.201	3.73
826.499	4.24
826.797	5.39
827.095	6.03
827.393	5.42
827.691	6.89
827.989	3.62
828.287	5.8
828.585	2.98
828.882	3.17
829.18	3.63
829.478	5.16
829.775	6.07
830.073	5.52
830.37	5.41
830.668	3.96
830.965	7.03
831.263	3.3
831.56	4.03
831.857	3.49
832.154	5.64
832.451	7.07
832.748	4.25
833.045	5.19
833.342	2.54
833.639	6.32
833.936	1.95
834.232	5.75
834.529	6.89
834.826	0.19
835.122	2.75
835.419	-3.2
835.715	3.7
836.012	2.97
836.308	0.41
836.604	0.6
836.901	4.97
837.197	3.08
837.493	3
837.789	3.52
838.085	6.25
838.381	3.34
838.677	3.84
838.972	4.59
839.268	3.26
839.564	4.03
839.86	6.65
840.155	-0.36
840.451	-4.94
840.746	7.72
841.042	6.62
841.337	6.6
841.632	2.28
841.928	12.16
842.223	6.49
842.518	3
842.813	13.21
843.108	1.16
843.403	10.31
843.698	-0.55
843.993	0.74
844.287	1.84
844.582	-4.01
844.877	-1.16
845.171	8.58
845.466	-6.9
845.761	-11.68
846.055	0.96
846.349	-14.89
846.644	-6.02
846.938	-13.19
847.232	9.87
847.526	-4.98
847.82	-6.99
848.114	-7.51
848.408	-4.71
848.702	1.02
848.996	-20.02
849.29	-1.78
849.584	-9.19
849.877	5.54
850.171	-0.68
850.465	2.93
850.758	3.37
851.052	-9.98
851.345	-16.5
851.638	7.11
851.932	-35.2
852.225	-29.07
852.518	-5.02
852.811	-13.89
853.104	-38.36
853.397	14.49
853.69	-14.82
853.983	-5.36
854.276	19.82
854.569	17.27
854.861	-3.41
855.154	-11.71
855.447	-13.32
855.739	-6.54
856.032	0.98
856.324	37.39
856.616	5
856.909	-10.29
857.201	1.53
857.493	-9.32
857.785	-22.04
858.077	-14.28
858.369	-14.57
858.661	0.51
858.953	-26.99
859.245	-18.19
859.537	22.45
859.829	-4.75
860.12	-17.77
860.412	-23.44
860.703	-20.53
860.995	-17.25
861.286	-8.41
861.578	-6.55
861.869	5.49
862.16	-8.45
862.452	-4.91
862.743	-4.17
863.034	-1.85
863.325	4.92
863.616	-13.29
863.907	12.61
864.198	-26.66
864.488	21.5
864.779	-3.58
865.07	-32.99
865.36	-24.57
865.651	-19.31
865.941	4.11
866.232	-26.83
866.522	-95.95
866.813	0.93
867.103	8.74
867.393	-4.47
867.683	8.14
867.973	-62.92
868.263	-19.64
868.553	2.12
868.843	3.75
869.133	-33.25
869.423	-21.79
869.713	-8.67
870.002	9.29
870.292	32.19
870.582	22.91
870.871	-28.49
871.161	-6.83
871.45	-20.53
871.739	-38.88
872.029	-31.67
872.318	4.12
872.607	27.21
872.896	-57.7
873.185	-4.55
873.474	-89.28
873.763	-2.92
874.052	-1.78
874.341	-3.36
874.63	-14.46
874.918	31.48
875.207	11.42
875.496	-19.44
875.784	-20.22
876.073	-60.42
876.361	-56.56
876.649	-34.15
876.938	-24.06
877.226	25.46
877.514	16.71
877.802	1.23
878.09	5.15
878.378	7.8
878.666	-9.78
878.954	-7.07
879.242	10.3
879.53	-9.49
879.817	9.66
880.105	-44.04
880.392	8.86
880.68	-0.37
880.967	-20.41
881.255	4.69
881.542	-28.48
881.83	-94.1
882.117	-6.59
882.404	-28.09
882.691	4.5
882.978	-16.74
883.265	-10.79
883.552	22.76
883.839	8.57
884.126	-1.47
884.413	19.66
884.699	15.87
884.986	9.15
885.273	5.49
885.559	5.49
885.846	5.49
