Data from 0265_chest_Reflection__2__170.txt Node

Date: Fri Oct 20 22:02:26 CDT 2023
User: ToomeyLab
Spectrometer: FLMS14357
Trigger mode: 0
Integration Time (sec): 1.000000E-2
Scans to average: 100
Electric dark correction enabled: true
Nonlinearity correction enabled: false
Boxcar width: 0
XAxis mode: Wavelengths
Number of Pixels in Spectrum: 2048
>>>>>Begin Spectral Data<<<<<
189.047	-6.99
189.435	-6.99
189.823	-6.99
190.211	100.12
190.599	47.3
190.987	104.17
191.375	-11.69
191.763	-12044.62
192.151	-27380
192.538	-62.16
192.926	91.74
193.314	319.38
193.702	153.1
194.089	97.59
194.477	64.52
194.864	1.82
195.252	-102.17
195.639	-44.37
196.027	58.85
196.414	271.18
196.801	238.54
197.189	40.87
197.576	2121.01
197.963	-91.08
198.351	53.51
198.738	15.88
199.125	48.6
199.512	53.16
199.899	79.31
200.286	28.72
200.673	50.63
201.06	80.13
201.447	27.26
201.833	56.09
202.22	64.81
202.607	67.56
202.994	26.63
203.38	14.47
203.767	23.47
204.154	25.53
204.54	42.83
204.927	9.76
205.313	35.7
205.699	40.02
206.086	40.22
206.472	54.55
206.858	61.21
207.245	-43.7
207.631	41.91
208.017	30.18
208.403	37.88
208.789	30.88
209.175	0.03
209.561	42.26
209.947	21.07
210.333	37.84
210.719	21.56
211.105	16.34
211.491	27.99
211.876	-2.63
212.262	23.8
212.648	29.11
213.034	47.73
213.419	22.64
213.805	7.18
214.19	21.88
214.576	10.66
214.961	21.52
215.346	30.79
215.732	29.76
216.117	-38.44
216.502	36.44
216.888	11.96
217.273	23.83
217.658	6.06
218.043	5.02
218.428	1.42
218.813	11.75
219.198	14.36
219.583	-26.48
219.968	31.59
220.353	30.3
220.738	27.78
221.122	4.67
221.507	5.81
221.892	12.15
222.276	22.13
222.661	31.75
223.046	11.52
223.43	17.62
223.815	20.59
224.199	22.21
224.583	-4.31
224.968	-1.44
225.352	1.33
225.736	9.97
226.121	13.19
226.505	1.47
226.889	12.55
227.273	13.62
227.657	15.93
228.041	8.22
228.425	2.36
228.809	5.62
229.193	8.64
229.577	7.93
229.961	5.73
230.344	6.4
230.728	4.95
231.112	5.65
231.495	5.18
231.879	5.5
232.263	6.67
232.646	4.21
233.03	4.35
233.413	4.18
233.797	5.92
234.18	6.25
234.563	8.74
234.946	7.55
235.33	6.4
235.713	4.89
236.096	6.51
236.479	6.6
236.862	5.51
237.245	4.17
237.628	5.14
238.011	5.61
238.394	5.68
238.777	6.66
239.16	4.72
239.543	5.87
239.925	6.43
240.308	5.67
240.691	6.66
241.073	6.28
241.456	6.41
241.838	5.64
242.221	6.32
242.603	5.87
242.986	5.19
243.368	5.97
243.75	4.85
244.133	4.77
244.515	5.01
244.897	5.1
245.279	5.06
245.661	4.76
246.043	4.69
246.425	5.19
246.807	5.52
247.189	4.73
247.571	5.12
247.953	5.52
248.335	5.1
248.717	4.75
249.098	4.91
249.48	4.73
249.862	4.77
250.243	5.13
250.625	5.49
251.006	5.53
251.388	5.42
251.769	5.6
252.151	4.42
252.532	5.42
252.913	5.49
253.295	5.17
253.676	4.95
254.057	4.78
254.438	4.95
254.819	5.32
255.2	4.61
255.581	4.57
255.962	4.63
256.343	4.46
256.724	4.32
257.105	5.8
257.486	6.74
257.867	6.23
258.247	5.35
258.628	4.94
259.009	4.38
259.389	4.83
259.77	4.11
260.15	5.22
260.531	5.45
260.911	5.07
261.292	4.58
261.672	4.73
262.052	4.72
262.432	4.47
262.813	4.77
263.193	4.75
263.573	4.8
263.953	5.27
264.333	4.88
264.713	5.4
265.093	5.23
265.473	4.87
265.853	5.04
266.233	5.29
266.612	5.24
266.992	4.67
267.372	4.3
267.752	4.7
268.131	5.28
268.511	4.75
268.89	4.87
269.27	4.45
269.649	4.18
270.029	4.82
270.408	5.13
270.787	4.82
271.167	4.57
271.546	5.1
271.925	5.68
272.304	5.09
272.683	4.47
273.062	4.68
273.441	4.95
273.82	4.58
274.199	4.88
274.578	4.83
274.957	4.71
275.336	4.84
275.715	4.5
276.093	4.53
276.472	4.6
276.851	4.95
277.229	4.26
277.608	4.34
277.986	4.35
278.365	5.02
278.743	5.09
279.122	4.49
279.5	4.47
279.878	4.07
280.257	4.65
280.635	4.82
281.013	5.21
281.391	4.67
281.769	4.95
282.147	4.56
282.525	4.13
282.903	4.48
283.281	4.59
283.659	4.63
284.037	4.43
284.415	4.14
284.792	4.41
285.17	4.68
285.548	4.19
285.925	4.36
286.303	4.78
286.68	4.33
287.058	5.09
287.435	4.26
287.813	3.91
288.19	4.44
288.567	4.31
288.945	4.58
289.322	4.82
289.699	4.06
290.076	5.05
290.453	4.22
290.83	4
291.207	4.66
291.584	4.44
291.961	4.45
292.338	4.52
292.715	4.74
293.092	4.29
293.469	4.73
293.845	4.45
294.222	4.53
294.599	4.87
294.975	5.28
295.352	4.72
295.728	4.63
296.105	4.38
296.481	4.7
296.858	4.72
297.234	5.15
297.61	4.3
297.986	4.42
298.363	4.75
298.739	4.47
299.115	4.41
299.491	4.51
299.867	4.61
300.243	4.64
300.619	4.53
300.995	4.69
301.371	4.61
301.746	4.58
302.122	4.56
302.498	4.31
302.874	4.84
303.249	4.7
303.625	4.69
304	5
304.376	4.47
304.751	4
305.127	4.59
305.502	4.98
305.878	4.49
306.253	4.46
306.628	4.82
307.003	4.62
307.378	4.38
307.754	4.43
308.129	4.65
308.504	4.89
308.879	5.01
309.254	5.48
309.629	4.19
310.003	4.22
310.378	5.04
310.753	4.65
311.128	5.18
311.502	5
311.877	4.97
312.252	4.57
312.626	5.08
313.001	4.47
313.375	5.01
313.75	5.07
314.124	4.66
314.498	4.97
314.873	4.38
315.247	4.6
315.621	4.7
315.995	5.05
316.369	4.89
316.743	4.95
317.117	4.63
317.491	4.38
317.865	4.82
318.239	5.04
318.613	5.01
318.987	5.01
319.361	5.03
319.734	4.53
320.108	4.37
320.482	5.69
320.855	5.13
321.229	5.29
321.602	5.56
321.976	4.86
322.349	5.49
322.723	4.84
323.096	5.36
323.469	4.92
323.843	5.01
324.216	4.81
324.589	4.7
324.962	5.14
325.335	4.82
325.708	4.97
326.081	4.98
326.454	5.56
326.827	5.15
327.2	5.26
327.573	5.21
327.945	4.83
328.318	4.69
328.691	5.19
329.063	5.24
329.436	4.74
329.809	4.69
330.181	5.66
330.553	5.54
330.926	5.18
331.298	4.69
331.671	4.94
332.043	4.86
332.415	5.17
332.787	5.46
333.159	5.18
333.532	5.27
333.904	5.24
334.276	4.33
334.648	5.36
335.02	5.71
335.391	4.86
335.763	5.18
336.135	4.97
336.507	5.06
336.879	5.04
337.25	4.82
337.622	5.01
337.993	5.79
338.365	5.1
338.736	4.78
339.108	5.73
339.479	4.64
339.851	5.02
340.222	4.7
340.593	4.69
340.964	4.99
341.336	5.16
341.707	5.3
342.078	5.15
342.449	4.9
342.82	4.99
343.191	5.55
343.562	5.39
343.933	5.22
344.303	5.14
344.674	5.55
345.045	5.44
345.416	5.37
345.786	5.2
346.157	5.33
346.527	4.9
346.898	5.49
347.268	5.15
347.639	5.43
348.009	4.68
348.38	5.16
348.75	5.15
349.12	5.38
349.49	5.09
349.861	5.47
350.231	4.67
350.601	5.21
350.971	5.29
351.341	5.28
351.711	5.9
352.081	5.21
352.45	5.33
352.82	5.02
353.19	5.32
353.56	5.46
353.929	5.06
354.299	5.1
354.669	5.29
355.038	5.76
355.408	5.52
355.777	5.14
356.147	5.1
356.516	5.19
356.885	5.41
357.254	5.11
357.624	5.47
357.993	4.89
358.362	5.24
358.731	5.1
359.1	4.59
359.469	5.28
359.838	5.64
360.207	5.35
360.576	5.47
360.945	4.87
361.314	5.03
361.682	5.04
362.051	5.1
362.42	5.22
362.788	5.26
363.157	5.19
363.525	5.04
363.894	5.14
364.262	5.14
364.631	5.23
364.999	5.27
365.367	5.34
365.735	5.13
366.104	5.09
366.472	5.48
366.84	5.46
367.208	5.16
367.576	5.11
367.944	5.61
368.312	5.42
368.68	5.32
369.048	5.19
369.416	5.23
369.783	5.46
370.151	5.43
370.519	5.15
370.886	5.53
371.254	5.73
371.621	5.74
371.989	5.64
372.356	5.24
372.724	5.47
373.091	5.54
373.458	5.2
373.826	5.46
374.193	5.18
374.56	5.26
374.927	5.36
375.294	5.23
375.661	5.48
376.028	5.57
376.395	5.73
376.762	5.25
377.129	5.3
377.496	5.26
377.863	5.55
378.229	5.58
378.596	5.51
378.963	5.52
379.329	5.7
379.696	5.34
380.062	5.64
380.429	5.27
380.795	5.44
381.161	5.31
381.528	5.72
381.894	5.34
382.26	5.61
382.626	5.78
382.993	5.43
383.359	5.42
383.725	5.52
384.091	5.5
384.457	5.48
384.823	5.52
385.188	5.45
385.554	5.52
385.92	5.43
386.286	5.45
386.651	5.38
387.017	5.61
387.383	5.37
387.748	5.36
388.114	5.21
388.479	5.48
388.845	5.76
389.21	5.46
389.575	5.2
389.94	5.41
390.306	5.5
390.671	5.4
391.036	5.57
391.401	5.79
391.766	5.51
392.131	5.39
392.496	5.49
392.861	5.68
393.226	5.78
393.591	5.45
393.956	5.53
394.32	5.61
394.685	5.36
395.05	5.49
395.414	5.78
395.779	5.24
396.143	5.31
396.508	5.53
396.872	5.52
397.236	5.45
397.601	5.55
397.965	5.41
398.329	5.41
398.694	5.62
399.058	5.41
399.422	5.59
399.786	5.5
400.15	5.59
400.514	5.59
400.878	5.75
401.242	5.76
401.605	5.63
401.969	5.53
402.333	5.46
402.697	5.68
403.06	5.66
403.424	5.55
403.787	5.64
404.151	5.44
404.514	5.68
404.878	5.77
405.241	5.58
405.604	5.56
405.968	5.81
406.331	5.51
406.694	5.66
407.057	5.39
407.42	5.96
407.783	5.89
408.146	5.6
408.509	5.61
408.872	5.74
409.235	5.69
409.598	5.72
409.961	5.35
410.323	5.52
410.686	5.41
411.049	5.46
411.411	5.4
411.774	5.81
412.136	5.63
412.499	5.78
412.861	5.79
413.223	5.57
413.586	5.74
413.948	5.74
414.31	5.56
414.672	5.73
415.035	5.61
415.397	5.63
415.759	5.45
416.121	5.65
416.483	5.92
416.845	5.63
417.206	5.65
417.568	5.76
417.93	5.75
418.292	5.73
418.653	5.92
419.015	5.84
419.377	5.59
419.738	5.71
420.1	5.64
420.461	5.7
420.822	5.56
421.184	5.5
421.545	5.55
421.906	5.62
422.267	5.59
422.629	5.69
422.99	5.53
423.351	5.6
423.712	5.55
424.073	5.67
424.434	5.49
424.795	5.52
425.155	5.68
425.516	5.55
425.877	5.69
426.238	5.5
426.598	5.7
426.959	5.57
427.32	5.8
427.68	5.58
428.041	5.64
428.401	5.7
428.761	5.65
429.122	5.71
429.482	5.85
429.842	5.62
430.202	5.87
430.563	5.77
430.923	5.86
431.283	5.9
431.643	5.67
432.003	6
432.363	5.86
432.722	6.05
433.082	5.8
433.442	5.77
433.802	5.91
434.161	5.73
434.521	5.84
434.881	5.87
435.24	5.81
435.6	5.94
435.959	5.82
436.319	5.75
436.678	5.83
437.037	5.7
437.396	5.94
437.756	5.98
438.115	5.6
438.474	5.92
438.833	6.03
439.192	5.6
439.551	5.82
439.91	5.85
440.269	5.96
440.628	5.97
440.987	5.82
441.345	5.74
441.704	5.72
442.063	5.83
442.421	5.8
442.78	5.79
443.138	5.87
443.497	5.8
443.855	5.87
444.214	5.73
444.572	5.75
444.93	5.92
445.288	6.07
445.647	6.14
446.005	5.75
446.363	5.78
446.721	5.81
447.079	5.99
447.437	5.87
447.795	5.74
448.153	5.88
448.51	5.89
448.868	5.76
449.226	5.81
449.584	5.93
449.941	5.81
450.299	5.89
450.656	5.82
451.014	5.97
451.371	5.9
451.729	5.93
452.086	5.93
452.443	6
452.801	5.91
453.158	6.11
453.515	6.11
453.872	5.95
454.229	6.14
454.586	5.99
454.943	5.95
455.3	5.92
455.657	6.05
456.014	5.94
456.371	5.96
456.727	6.09
457.084	5.98
457.441	6.04
457.797	5.96
458.154	5.8
458.51	6.04
458.867	5.85
459.223	5.99
459.58	6.06
459.936	6.05
460.292	6.01
460.648	5.94
461.005	5.94
461.361	6.01
461.717	5.76
462.073	5.9
462.429	5.97
462.785	5.88
463.141	5.98
463.496	6.06
463.852	6.01
464.208	6.17
464.564	6.11
464.919	6
465.275	6.19
465.631	6.12
465.986	6.25
466.342	6.11
466.697	6.1
467.052	6.06
467.408	6.11
467.763	6.16
468.118	6.37
468.473	6.23
468.829	6.16
469.184	6.15
469.539	6.33
469.894	6.11
470.249	5.97
470.603	6.25
470.958	6.26
471.313	6.35
471.668	6.36
472.023	6.22
472.377	6.17
472.732	6
473.086	6.21
473.441	6.26
473.795	6.31
474.15	6.04
474.504	6.21
474.859	6.23
475.213	6.44
475.567	6.29
475.921	6.27
476.275	6.06
476.63	6.48
476.984	6.34
477.338	6.27
477.692	6.32
478.045	6.23
478.399	6.25
478.753	6.33
479.107	6.42
479.461	6.37
479.814	6.35
480.168	6.3
480.521	6.25
480.875	6.22
481.228	6.18
481.582	6.32
481.935	6.17
482.289	6.21
482.642	6.28
482.995	6.23
483.348	6.27
483.701	6.28
484.055	6.42
484.408	6.12
484.761	6.18
485.114	6.12
485.466	6.03
485.819	6.01
486.172	5.89
486.525	5.91
486.878	5.98
487.23	5.99
487.583	6.04
487.936	6.04
488.288	6.07
488.641	6.19
488.993	6.11
489.345	6.07
489.698	6.06
490.05	6.05
490.402	6.04
490.754	6.06
491.107	6.09
491.459	6.2
491.811	6.25
492.163	6.19
492.515	6.31
492.866	6.34
493.218	6.17
493.57	6.12
493.922	6.17
494.274	6.12
494.625	6.14
494.977	6.25
495.328	6.33
495.68	6.35
496.031	6.3
496.383	6.35
496.734	6.48
497.086	6.43
497.437	6.51
497.788	6.56
498.139	6.6
498.49	6.47
498.842	6.43
499.193	6.41
499.544	6.49
499.894	6.43
500.245	6.42
500.596	6.44
500.947	6.54
501.298	6.48
501.648	6.54
501.999	6.58
502.35	6.63
502.7	6.81
503.051	6.54
503.401	6.7
503.752	6.74
504.102	6.66
504.452	6.51
504.803	6.68
505.153	6.48
505.503	6.52
505.853	6.74
506.203	6.52
506.553	6.62
506.903	6.6
507.253	6.69
507.603	6.64
507.953	6.6
508.303	6.65
508.652	6.78
509.002	6.62
509.352	6.8
509.701	6.71
510.051	6.68
510.4	6.71
510.75	6.79
511.099	6.73
511.449	6.75
511.798	6.73
512.147	6.7
512.496	6.76
512.846	6.66
513.195	6.87
513.544	6.74
513.893	6.62
514.242	6.75
514.591	6.77
514.939	6.73
515.288	6.69
515.637	6.78
515.986	6.88
516.334	6.73
516.683	6.73
517.032	6.64
517.38	6.82
517.729	6.9
518.077	7
518.426	6.84
518.774	6.78
519.122	6.85
519.47	6.88
519.819	6.86
520.167	6.86
520.515	6.89
520.863	6.92
521.211	6.87
521.559	6.89
521.907	6.92
522.255	6.94
522.602	6.95
522.95	6.96
523.298	7.03
523.645	7.04
523.993	6.97
524.341	7
524.688	7.04
525.036	7.12
525.383	6.94
525.73	7.21
526.078	7.06
526.425	7.21
526.772	7.13
527.119	7.07
527.466	7.09
527.814	7.16
528.161	7.12
528.508	6.93
528.854	7.03
529.201	7.08
529.548	7.01
529.895	6.98
530.242	6.92
530.588	6.9
530.935	6.94
531.282	6.97
531.628	7.02
531.975	6.92
532.321	7
532.667	7.04
533.014	7.22
533.36	7.24
533.706	7.29
534.052	7.29
534.399	7.14
534.745	7.23
535.091	7.16
535.437	7.26
535.783	7.18
536.129	7.22
536.474	7.32
536.82	7.36
537.166	7.36
537.512	7.46
537.857	7.51
538.203	7.42
538.549	7.53
538.894	7.41
539.239	7.44
539.585	7.41
539.93	7.5
540.276	7.61
540.621	7.51
540.966	7.7
541.311	7.84
541.656	7.58
542.001	7.79
542.346	7.69
542.691	7.59
543.036	7.61
543.381	7.53
543.726	7.48
544.071	7.52
544.415	7.52
544.76	7.58
545.105	7.62
545.449	7.72
545.794	7.79
546.138	7.73
546.483	7.78
546.827	7.75
547.171	7.98
547.516	7.81
547.86	8.07
548.204	7.92
548.548	7.95
548.892	7.91
549.236	7.93
549.58	7.9
549.924	8.08
550.268	7.98
550.612	8.07
550.956	8.12
551.3	8.1
551.643	8.14
551.987	8.36
552.33	8.28
552.674	8.28
553.017	8.46
553.361	8.35
553.704	8.35
554.048	8.32
554.391	8.43
554.734	8.4
555.077	8.41
555.42	8.21
555.764	8.34
556.107	8.45
556.45	8.51
556.793	8.5
557.135	8.41
557.478	8.6
557.821	8.68
558.164	8.73
558.507	8.66
558.849	8.71
559.192	8.7
559.534	8.9
559.877	8.68
560.219	8.62
560.562	8.71
560.904	8.68
561.246	9.01
561.589	8.82
561.931	8.86
562.273	8.86
562.615	9.07
562.957	8.85
563.299	9.17
563.641	9.19
563.983	8.88
564.325	8.99
564.667	8.95
565.008	9.11
565.35	9.01
565.692	8.98
566.033	9.19
566.375	9.31
566.716	9.16
567.058	9.33
567.399	9.31
567.741	9.23
568.082	9.3
568.423	9.35
568.764	9.36
569.105	9.4
569.447	9.15
569.788	9.42
570.129	9.48
570.47	9.36
570.811	9.63
571.151	9.66
571.492	9.59
571.833	9.63
572.174	9.66
572.514	9.44
572.855	9.69
573.195	9.76
573.536	9.49
573.876	9.89
574.217	9.7
574.557	9.86
574.898	9.63
575.238	9.64
575.578	9.85
575.918	9.71
576.258	10.01
576.598	9.89
576.938	9.84
577.278	10.13
577.618	9.91
577.958	9.88
578.298	9.91
578.638	10.12
578.977	10.12
579.317	10.14
579.657	9.85
579.996	10.16
580.336	10.38
580.675	10.47
581.014	10.32
581.354	10.34
581.693	10.34
582.032	10.51
582.372	10.5
582.711	10.77
583.05	10.7
583.389	10.52
583.728	10.59
584.067	10.7
584.406	10.75
584.745	10.64
585.083	10.97
585.422	10.9
585.761	10.65
586.1	11.06
586.438	10.75
586.777	11.05
587.115	11.01
587.454	11.2
587.792	11.07
588.13	11.12
588.469	11.31
588.807	10.65
589.145	11.24
589.483	11.25
589.821	11.1
590.159	11.3
590.497	11.2
590.835	11.33
591.173	11.34
591.511	11.24
591.849	11.33
592.187	11.45
592.524	11.25
592.862	11.36
593.2	11.49
593.537	11.36
593.875	11.41
594.212	11.8
594.55	11.67
594.887	11.66
595.224	11.42
595.561	11.45
595.899	11.82
596.236	11.83
596.573	11.74
596.91	12.05
597.247	11.84
597.584	11.97
597.921	11.79
598.258	11.95
598.594	11.92
598.931	11.91
599.268	11.82
599.604	12.05
599.941	11.87
600.277	11.95
600.614	12.12
600.95	12.26
601.287	12.09
601.623	12.46
601.959	12.32
602.296	12.22
602.632	12.38
602.968	12.04
603.304	12.57
603.64	12.18
603.976	12.54
604.312	12.78
604.648	12.67
604.984	12.7
605.319	12.85
605.655	12.51
605.991	12.68
606.326	12.52
606.662	12.58
606.998	12.56
607.333	12.64
607.668	12.65
608.004	13
608.339	12.73
608.674	13.02
609.01	12.82
609.345	13.02
609.68	13.15
610.015	13.09
610.35	13.39
610.685	13.18
611.02	13.04
611.355	13.12
611.689	13.21
612.024	13.5
612.359	13.29
612.694	13.21
613.028	13.4
613.363	13.47
613.697	13.52
614.032	13.59
614.366	13.54
614.7	13.37
615.035	13.82
615.369	13.74
615.703	13.5
616.037	13.67
616.371	13.6
616.705	13.55
617.039	13.47
617.373	13.87
617.707	14.16
618.041	14.25
618.375	14.18
618.709	14.03
619.042	14.39
619.376	14.52
619.71	14.25
620.043	14.33
620.377	14.3
620.71	14.61
621.043	14.33
621.377	14.16
621.71	14.08
622.043	14.37
622.376	14.69
622.709	14.81
623.043	14.45
623.376	14.27
623.709	14.36
624.041	14.63
624.374	14.98
624.707	14.63
625.04	14.88
625.373	15.25
625.705	14.88
626.038	15.29
626.37	15.18
626.703	14.68
627.035	15.1
627.368	15.13
627.7	15.12
628.032	15.14
628.365	15.26
628.697	15.18
629.029	15.16
629.361	15.23
629.693	15.5
630.025	15.35
630.357	15.38
630.689	15.4
631.021	15.54
631.353	15.58
631.684	15.33
632.016	15.68
632.348	15.67
632.679	15.65
633.011	15.78
633.342	15.76
633.674	16.07
634.005	15.9
634.336	16.33
634.668	15.85
634.999	15.97
635.33	15.79
635.661	16.31
635.992	16.53
636.323	16.31
636.654	16.19
636.985	16.1
637.316	16.36
637.647	16.09
637.977	16.33
638.308	16.65
638.639	16.45
638.969	16.77
639.3	16.43
639.63	16.58
639.961	16.53
640.291	16.44
640.622	16.41
640.952	16.44
641.282	16.54
641.612	17.03
641.943	16.85
642.273	16.65
642.603	17.12
642.933	17.24
643.263	17.62
643.592	17.19
643.922	17.17
644.252	16.83
644.582	17.12
644.911	17.28
645.241	16.95
645.571	17.51
645.9	17.22
646.23	17.39
646.559	17.43
646.888	17.97
647.218	17.62
647.547	16.87
647.876	17.59
648.205	17.65
648.534	17.51
648.863	17.86
649.192	17.72
649.521	17.77
649.85	17.88
650.179	17.93
650.508	17.73
650.837	18.57
651.165	18.38
651.494	17.63
651.822	18.27
652.151	18.17
652.479	18.17
652.808	18.1
653.136	18.35
653.465	18.13
653.793	18.18
654.121	18.2
654.449	18.31
654.777	18.35
655.105	18.64
655.433	18.92
655.761	18.84
656.089	18.51
656.417	18.46
656.745	18.48
657.073	18.59
657.4	19.45
657.728	19.11
658.056	18.89
658.383	18.98
658.711	18.43
659.038	19.11
659.365	19.25
659.693	19.52
660.02	18.99
660.347	18.98
660.674	18.95
661.001	18.87
661.329	19.66
661.656	19.37
661.982	19.19
662.309	19.32
662.636	19.52
662.963	19.47
663.29	19.34
663.616	19.73
663.943	19.14
664.27	19.8
664.596	19.62
664.923	19.55
665.249	19.49
665.576	19.61
665.902	20.19
666.228	20.65
666.554	20.08
666.881	19.47
667.207	19.8
667.533	20.24
667.859	20.37
668.185	20.3
668.511	20.25
668.837	20.45
669.162	20.31
669.488	20.73
669.814	20.11
670.139	20.78
670.465	20.52
670.791	21.17
671.116	20.35
671.442	20.59
671.767	20.62
672.092	21.05
672.418	20.48
672.743	20.21
673.068	21.24
673.393	20.5
673.718	20.63
674.043	21.21
674.368	20.86
674.693	21.52
675.018	21.48
675.343	20.93
675.667	21.16
675.992	20.92
676.317	21.36
676.641	21.26
676.966	21.47
677.29	21.41
677.615	21.57
677.939	21.56
678.264	21.34
678.588	21.37
678.912	21.97
679.236	21.65
679.56	21.75
679.885	21.97
680.209	21.77
680.532	22.08
680.856	21.17
681.18	22.38
681.504	22.12
681.828	22.63
682.152	22.27
682.475	21.53
682.799	22.18
683.122	21.83
683.446	22.13
683.769	22.29
684.093	22.48
684.416	22.18
684.739	21.97
685.062	21.54
685.386	22.47
685.709	22.74
686.032	22.53
686.355	22.65
686.678	22.26
687.001	22.58
687.324	22.62
687.646	22.69
687.969	23.66
688.292	23.38
688.614	22.65
688.937	22.69
689.26	23.2
689.582	23.05
689.904	22.76
690.227	23.72
690.549	23.21
690.871	22.4
691.194	22.94
691.516	23.43
691.838	24.08
692.16	23.19
692.482	23.29
692.804	24.04
693.126	22.81
693.448	24.13
693.769	23.45
694.091	24.49
694.413	23.47
694.735	23.67
695.056	23.6
695.378	22.78
695.699	23.98
696.021	23.92
696.342	23.84
696.663	23.87
696.984	23.15
697.306	24.35
697.627	24.22
697.948	24.9
698.269	23.89
698.59	24.52
698.911	24.15
699.232	24.02
699.553	24.92
699.873	24.25
700.194	25.06
700.515	24.36
700.835	25.05
701.156	24.64
701.477	24.8
701.797	24.93
702.117	24.07
702.438	24.34
702.758	24.26
703.078	24.8
703.398	24.94
703.719	24.92
704.039	25.02
704.359	25.53
704.679	25.27
704.999	25.06
705.319	25.16
705.638	25.02
705.958	26.08
706.278	24.89
706.597	26.26
706.917	25.01
707.237	25.34
707.556	25.17
707.876	25.03
708.195	26.86
708.514	25.28
708.834	26.27
709.153	25.72
709.472	26.04
709.791	26.5
710.11	26.66
710.429	25.52
710.748	26.15
711.067	25.31
711.386	25.84
711.705	26.5
712.023	26.91
712.342	26.43
712.661	26.31
712.979	26.7
713.298	25.52
713.616	26.06
713.935	26.96
714.253	26.1
714.572	26.34
714.89	26.67
715.208	26.78
715.526	27.11
715.844	26.89
716.162	26.37
716.48	27.92
716.798	28.18
717.116	26.71
717.434	27.04
717.752	27.12
718.069	26.71
718.387	26.69
718.705	27.14
719.022	28.23
719.34	26.81
719.657	27.78
719.975	25.46
720.292	26.53
720.609	27.73
720.927	26.5
721.244	27.5
721.561	28.2
721.878	27.08
722.195	28.14
722.512	28.94
722.829	28.5
723.146	27.83
723.463	27.49
723.779	27.92
724.096	28.38
724.413	28.35
724.729	27.72
725.046	29.8
725.362	29.34
725.679	27.77
725.995	29.3
726.311	28.63
726.628	28.48
726.944	29.49
727.26	28.12
727.576	29.41
727.892	28.57
728.208	29.07
728.524	28.59
728.84	28.42
729.156	30.41
729.472	27.99
729.787	29.2
730.103	29.47
730.419	28.93
730.734	28.09
731.05	28.43
731.365	27.91
731.681	27.88
731.996	30.27
732.311	28.72
732.626	30.13
732.942	28.97
733.257	29.23
733.572	29.26
733.887	29.41
734.202	28.57
734.517	28.78
734.832	30.1
735.146	30.59
735.461	30.52
735.776	29.08
736.091	29.88
736.405	28.35
736.72	30.18
737.034	30.33
737.349	28.74
737.663	29.53
737.977	30.29
738.292	29.29
738.606	28.96
738.92	30.1
739.234	30.55
739.548	30.68
739.862	29.42
740.176	30.11
740.49	28.77
740.804	31.14
741.117	31.65
741.431	30.14
741.745	30.75
742.058	30.3
742.372	31.95
742.685	29.92
742.999	31.99
743.312	31.4
743.626	30.97
743.939	32.02
744.252	31.02
744.565	31.29
744.878	30.04
745.191	30.31
745.505	30.62
745.817	32.89
746.13	31.18
746.443	34.16
746.756	31.15
747.069	31.31
747.381	32.44
747.694	32.78
748.007	30.75
748.319	31.68
748.632	31.31
748.944	31.9
749.256	31.56
749.569	31.09
749.881	31.49
750.193	31.71
750.505	31.25
750.817	32.6
751.129	31.54
751.441	29.04
751.753	31.93
752.065	33.83
752.377	32.71
752.689	33.08
753	31.88
753.312	32.56
753.624	31.01
753.935	33.2
754.247	32.4
754.558	34.42
754.869	34.87
755.181	31.81
755.492	31.19
755.803	31.87
756.114	31.74
756.425	32.43
756.736	32.2
757.047	32
757.358	33.48
757.669	33.86
757.98	30.87
758.291	31.9
758.601	33.18
758.912	33.28
759.223	31.34
759.533	33.19
759.844	32.65
760.154	33.4
760.464	35.02
760.775	33.28
761.085	32.14
761.395	32.75
761.705	32.46
762.016	34.95
762.326	35.25
762.636	35.31
762.945	32.35
763.255	35.09
763.565	32.54
763.875	34.99
764.185	31.49
764.494	37.26
764.804	34.75
765.113	34.42
765.423	34.31
765.732	33.58
766.042	33.33
766.351	34.09
766.66	33.68
766.97	34.1
767.279	34.28
767.588	34.19
767.897	33.43
768.206	33.77
768.515	35.55
768.824	35.33
769.133	33.25
769.441	33.95
769.75	35.45
770.059	36.61
770.367	33.28
770.676	35.05
770.984	34.26
771.293	31.85
771.601	34.64
771.91	33.07
772.218	35.58
772.526	34.27
772.834	35.47
773.142	35.26
773.45	36.49
773.758	32.86
774.066	36.68
774.374	35.11
774.682	36.07
774.99	36.1
775.298	33.06
775.605	32.47
775.913	36.41
776.22	36.1
776.528	37.41
776.835	37.22
777.143	32.76
777.45	36.7
777.757	35.78
778.065	36.05
778.372	36.99
778.679	34.25
778.986	33.23
779.293	35.15
779.6	35.74
779.907	37.27
780.214	36.25
780.52	37.48
780.827	36.52
781.134	35.97
781.44	37.73
781.747	37.15
782.053	37.42
782.36	39.15
782.666	34.5
782.973	38.48
783.279	36.18
783.585	37.84
783.891	35.34
784.197	37.27
784.503	38.81
784.809	36.04
785.115	36.72
785.421	35.19
785.727	35.32
786.033	37.55
786.339	33.59
786.644	39.99
786.95	38.44
787.255	39.33
787.561	36.04
787.866	35.51
788.172	39.11
788.477	35.39
788.782	36.31
789.088	38.31
789.393	36.06
789.698	36.52
790.003	38.95
790.308	39.04
790.613	36.13
790.918	43.06
791.223	39.99
791.527	39.78
791.832	39.75
792.137	39.42
792.441	36.05
792.746	38.21
793.05	36.4
793.355	39.03
793.659	43.22
793.963	39.7
794.268	37.92
794.572	37.95
794.876	42.02
795.18	38.07
795.484	37.61
795.788	37.81
796.092	33.94
796.396	38.53
796.7	42.37
797.004	38.66
797.307	39.32
797.611	39.21
797.915	34.19
798.218	36.87
798.522	36.92
798.825	42.38
799.128	41.5
799.432	38.72
799.735	38.88
800.038	36.06
800.341	34.75
800.644	43.5
800.947	43.62
801.25	38.51
801.553	42.05
801.856	40.86
802.159	36.92
802.462	40.21
802.764	42.5
803.067	41.61
803.37	39.67
803.672	40.01
803.975	37.76
804.277	33.96
804.579	34.79
804.882	44.24
805.184	41.09
805.486	37.34
805.788	42.4
806.09	40
806.392	40.07
806.694	39.63
806.996	43.37
807.298	38.65
807.6	42.89
807.902	36.39
808.203	39.05
808.505	43.99
808.807	41
809.108	37.21
809.409	40.33
809.711	35.12
810.012	40.58
810.313	41.44
810.615	38.13
810.916	42.87
811.217	39.82
811.518	41.48
811.819	40.96
812.12	42.87
812.421	41.05
812.722	38.27
813.023	42.82
813.323	36.43
813.624	40.76
813.925	41.97
814.225	41.55
814.526	42.45
814.826	44.96
815.126	44.58
815.427	38.89
815.727	43.54
816.027	41.11
816.327	42.52
816.627	39.96
816.927	42.23
817.227	37.97
817.527	38.94
817.827	36.9
818.127	46.99
818.427	43.5
818.727	44.26
819.026	35.66
819.326	41.1
819.625	40.83
819.925	46.42
820.224	47.72
820.524	39.28
820.823	36.14
821.122	42.69
821.421	43.4
821.72	48.1
822.019	41.1
822.318	40.5
822.617	38.08
822.916	45.61
823.215	41.56
823.514	42.58
823.813	43.68
824.111	39.59
824.41	43.4
824.709	42.5
825.007	43.17
825.306	40.83
825.604	42.21
825.902	41.45
826.201	41.68
826.499	42.69
826.797	41.43
827.095	42.64
827.393	40.76
827.691	42.62
827.989	41.83
828.287	42.59
828.585	43.49
828.882	42.71
829.18	42.76
829.478	42.88
829.775	44
830.073	45.77
830.37	44.01
830.668	41.95
830.965	41.8
831.263	42.44
831.56	43.81
831.857	43.7
832.154	40.64
832.451	45.57
832.748	43.38
833.045	44.42
833.342	51.34
833.639	39.94
833.936	46.81
834.232	39.77
834.529	40.12
834.826	41.77
835.122	41.68
835.419	47.97
835.715	37.45
836.012	45.29
836.308	40.65
836.604	43.72
836.901	44.46
837.197	44.61
837.493	41.46
837.789	44.3
838.085	41.53
838.381	44.29
838.677	44.41
838.972	48.68
839.268	45.03
839.564	43.01
839.86	46.06
840.155	47.89
840.451	48.52
840.746	48.61
841.042	43.35
841.337	51.14
841.632	48.54
841.928	35.57
842.223	47.13
842.518	38.58
842.813	45.32
843.108	46.19
843.403	46.79
843.698	48.16
843.993	49.8
844.287	41.92
844.582	47.96
844.877	51.05
845.171	46.39
845.466	35.96
845.761	51.26
846.055	50.64
846.349	49.41
846.644	45.32
846.938	43.4
847.232	50.47
847.526	40.95
847.82	34.57
848.114	42.72
848.408	42.26
848.702	44.57
848.996	47.09
849.29	47.47
849.584	41.94
849.877	49.94
850.171	50.71
850.465	43.66
850.758	37.34
851.052	40
851.345	54.98
851.638	34.31
851.932	52.06
852.225	68.39
852.518	66.8
852.811	63.7
853.104	50.65
853.397	46.88
853.69	43.25
853.983	66.76
854.276	44.63
854.569	52.68
854.861	35.58
855.154	57.29
855.447	43.89
855.739	55.37
856.032	61.54
856.324	50.45
856.616	42.82
856.909	57.12
857.201	58.18
857.493	42.98
857.785	52.96
858.077	54.11
858.369	42.61
858.661	28.01
858.953	25.18
859.245	31.24
859.537	74.5
859.829	34.9
860.12	48.82
860.412	62.54
860.703	46.43
860.995	43.49
861.286	63.33
861.578	37.7
861.869	41.13
862.16	34.01
862.452	36.34
862.743	52.94
863.034	42.38
863.325	35.62
863.616	45.98
863.907	67.14
864.198	54.89
864.488	52.7
864.779	50.49
865.07	65.53
865.36	51.11
865.651	44.54
865.941	49.42
866.232	42.44
866.522	65.71
866.813	37.29
867.103	39.99
867.393	59.31
867.683	52.12
867.973	66.91
868.263	51.37
868.553	53.92
868.843	23.95
869.133	58.2
869.423	53.92
869.713	53.05
870.002	35
870.292	52.53
870.582	71.22
870.871	40.7
871.161	26.82
871.45	52.52
871.739	37.76
872.029	50.42
872.318	45.69
872.607	63.95
872.896	62.83
873.185	48.01
873.474	41.36
873.763	57.57
874.052	72.76
874.341	39.48
874.63	42.83
874.918	50.71
875.207	50.6
875.496	47.19
875.784	77.18
876.073	76.2
876.361	51.8
876.649	15.57
876.938	59.38
877.226	38.69
877.514	61.07
877.802	34.58
878.09	52.91
878.378	45.74
878.666	26.82
878.954	48.27
879.242	83.28
879.53	33.07
879.817	48.08
880.105	50.59
880.392	69.42
880.68	61.37
880.967	59.89
881.255	68.48
881.542	57.82
881.83	34.6
882.117	55.64
882.404	39.5
882.691	53.86
882.978	56.88
883.265	85.4
883.552	46.15
883.839	37.63
884.126	53.72
884.413	64.7
884.699	57.18
884.986	63.28
885.273	60.77
885.559	60.77
885.846	60.77
