Data from 0265_chest_Reflection__4__172.txt Node

Date: Fri Oct 20 22:02:54 CDT 2023
User: ToomeyLab
Spectrometer: FLMS14357
Trigger mode: 0
Integration Time (sec): 1.000000E-2
Scans to average: 100
Electric dark correction enabled: true
Nonlinearity correction enabled: false
Boxcar width: 0
XAxis mode: Wavelengths
Number of Pixels in Spectrum: 2048
>>>>>Begin Spectral Data<<<<<
189.047	45.05
189.435	45.05
189.823	45.05
190.211	67.43
190.599	34.5
190.987	196.64
191.375	151.43
191.763	-6816.92
192.151	13326.67
192.538	45.27
192.926	41.42
193.314	53.57
193.702	142.98
194.089	122.34
194.477	203.8
194.864	289.07
195.252	-211.96
195.639	239.26
196.027	11.29
196.414	484.31
196.801	203.94
197.189	35.34
197.576	728.79
197.963	-76.62
198.351	64.45
198.738	18.12
199.125	42.3
199.512	32.24
199.899	45.79
200.286	11.46
200.673	20.56
201.06	53.89
201.447	23.47
201.833	38.12
202.22	37.31
202.607	42.17
202.994	49.12
203.38	9.89
203.767	34.05
204.154	22.75
204.54	51.24
204.927	15.62
205.313	30.45
205.699	36.08
206.086	38.78
206.472	35.31
206.858	18.08
207.245	-0.63
207.631	12.31
208.017	28.04
208.403	18.34
208.789	42.17
209.175	14.78
209.561	53.39
209.947	-53.55
210.333	25.61
210.719	35.12
211.105	33.78
211.491	20
211.876	7.37
212.262	27.19
212.648	36.52
213.034	0.45
213.419	33.77
213.805	-14.67
214.19	-21.47
214.576	7.44
214.961	11.46
215.346	46.38
215.732	27.39
216.117	-21.28
216.502	19.91
216.888	10.43
217.273	49.18
217.658	43.82
218.043	11.42
218.428	17.07
218.813	29
219.198	26.32
219.583	-11.18
219.968	5.9
220.353	22.06
220.738	31.8
221.122	-9.52
221.507	7.68
221.892	18
222.276	22.37
222.661	31.24
223.046	13.23
223.43	5.91
223.815	11.2
224.199	21.21
224.583	3.6
224.968	5.31
225.352	1.9
225.736	6.02
226.121	5.72
226.505	3.63
226.889	16.16
227.273	14
227.657	6.68
228.041	11.21
228.425	2.63
228.809	3.47
229.193	4.88
229.577	9.67
229.961	4.09
230.344	6.41
230.728	5.24
231.112	6.08
231.495	4.88
231.879	5.72
232.263	5.94
232.646	5.52
233.03	6.8
233.413	4.77
233.797	5.76
234.18	5.67
234.563	6.84
234.946	8.85
235.33	8.12
235.713	6.46
236.096	6.08
236.479	5.67
236.862	6.12
237.245	6.89
237.628	5.74
238.011	7.26
238.394	6.2
238.777	7.61
239.16	5.54
239.543	8.14
239.925	9.09
240.308	6.09
240.691	6.3
241.073	7.07
241.456	7.46
241.838	6.78
242.221	6.74
242.603	5.97
242.986	5.25
243.368	6.36
243.75	4.94
244.133	5.14
244.515	5.34
244.897	5.37
245.279	5.71
245.661	5.35
246.043	4.64
246.425	4.93
246.807	5.76
247.189	5.82
247.571	4.91
247.953	5.67
248.335	5.18
248.717	4.79
249.098	5.05
249.48	4.89
249.862	5.4
250.243	5.3
250.625	5.33
251.006	5.25
251.388	5.09
251.769	5.51
252.151	5.87
252.532	4.86
252.913	4.8
253.295	4.74
253.676	5
254.057	5.2
254.438	5.04
254.819	5.5
255.2	5.34
255.581	5.32
255.962	4.95
256.343	5.71
256.724	4.4
257.105	5.65
257.486	5.91
257.867	4.66
258.247	6.25
258.628	5.28
259.009	4.71
259.389	4.11
259.77	4.64
260.15	4.92
260.531	4.92
260.911	5.35
261.292	4.79
261.672	4.97
262.052	4.9
262.432	4.82
262.813	4.72
263.193	4.98
263.573	5.07
263.953	4.82
264.333	5.74
264.713	5.22
265.093	5.67
265.473	5.08
265.853	4.99
266.233	5.31
266.612	4.76
266.992	5.67
267.372	4.53
267.752	5.16
268.131	5.59
268.511	4.94
268.89	4.6
269.27	4.42
269.649	4.12
270.029	4.75
270.408	5.04
270.787	5.41
271.167	4.17
271.546	5.05
271.925	5.27
272.304	5.15
272.683	5.57
273.062	5.02
273.441	4.69
273.82	4.94
274.199	4.88
274.578	4.78
274.957	5.48
275.336	5.3
275.715	4.9
276.093	4.94
276.472	4.78
276.851	5.24
277.229	4.56
277.608	4.68
277.986	4.35
278.365	4.43
278.743	4.35
279.122	4.36
279.5	4.67
279.878	4.21
280.257	4.12
280.635	4.65
281.013	4.99
281.391	5.09
281.769	5.02
282.147	4.79
282.525	4.93
282.903	4.69
283.281	4.8
283.659	4.74
284.037	4.97
284.415	4.08
284.792	4.21
285.17	4.66
285.548	4.26
285.925	4.56
286.303	4.62
286.68	4.51
287.058	4.97
287.435	5.17
287.813	4.09
288.19	4.4
288.567	4.74
288.945	4.38
289.322	5.05
289.699	4.18
290.076	5.31
290.453	4.75
290.83	5.04
291.207	5.18
291.584	4.49
291.961	4.55
292.338	4.7
292.715	4.61
293.092	4.53
293.469	4.7
293.845	4.86
294.222	4.51
294.599	5.14
294.975	5.29
295.352	4.26
295.728	4.73
296.105	4.46
296.481	4.65
296.858	4.94
297.234	4.53
297.61	3.96
297.986	4.72
298.363	4.69
298.739	4.58
299.115	4.65
299.491	4.78
299.867	4.84
300.243	5.05
300.619	4.75
300.995	4.43
301.371	4.59
301.746	4.49
302.122	5.13
302.498	4.75
302.874	4.52
303.249	5.13
303.625	4.93
304	4.99
304.376	4.36
304.751	4.48
305.127	4.51
305.502	5.19
305.878	5.06
306.253	5.01
306.628	4.75
307.003	4.86
307.378	4.63
307.754	4.99
308.129	4.86
308.504	4.87
308.879	5.65
309.254	5.19
309.629	4.72
310.003	4.05
310.378	5.37
310.753	4.75
311.128	5.3
311.502	4.58
311.877	4.93
312.252	5.02
312.626	5.1
313.001	4.63
313.375	5
313.75	4.85
314.124	4.74
314.498	4.74
314.873	4.87
315.247	5.12
315.621	5.06
315.995	4.98
316.369	4.5
316.743	5.21
317.117	5.21
317.491	4.88
317.865	5.99
318.239	5.34
318.613	5.39
318.987	5.2
319.361	4.17
319.734	4.53
320.108	5.03
320.482	5.25
320.855	5.51
321.229	5.51
321.602	5.27
321.976	4.88
322.349	5.47
322.723	4.39
323.096	5.03
323.469	4.88
323.843	4.88
324.216	5.53
324.589	5.63
324.962	5.51
325.335	5.48
325.708	4.51
326.081	5.43
326.454	5.51
326.827	5
327.2	5.37
327.573	5.4
327.945	5.24
328.318	4.84
328.691	4.89
329.063	5.49
329.436	4.84
329.809	4.84
330.181	5.29
330.553	5.46
330.926	5.08
331.298	4.91
331.671	4.88
332.043	5.18
332.415	5.25
332.787	5.38
333.159	5.13
333.532	5.31
333.904	5.49
334.276	4.67
334.648	4.98
335.02	5.58
335.391	5.27
335.763	5.63
336.135	5.13
336.507	5.2
336.879	5.14
337.25	5.6
337.622	5.45
337.993	5.45
338.365	5.03
338.736	5.3
339.108	5.61
339.479	5.26
339.851	5.17
340.222	4.7
340.593	4.69
340.964	5.22
341.336	5.61
341.707	5.29
342.078	5.29
342.449	5.23
342.82	5.04
343.191	5.39
343.562	5.12
343.933	5.13
344.303	5.06
344.674	5.19
345.045	5.43
345.416	5.66
345.786	5.16
346.157	5.48
346.527	5.37
346.898	5.52
347.268	5.37
347.639	5.86
348.009	5.35
348.38	5.57
348.75	5.47
349.12	5.12
349.49	5.56
349.861	5.53
350.231	4.97
350.601	5.18
350.971	5.99
351.341	5.57
351.711	5.93
352.081	5.36
352.45	5.3
352.82	5.43
353.19	5.4
353.56	5.48
353.929	5.06
354.299	5.46
354.669	5.21
355.038	5.57
355.408	5.85
355.777	5.43
356.147	5.55
356.516	5.13
356.885	5.34
357.254	5.35
357.624	5.14
357.993	5.23
358.362	5.54
358.731	4.57
359.1	5.19
359.469	5.09
359.838	5.24
360.207	5.43
360.576	5.58
360.945	5.1
361.314	5.05
361.682	5.22
362.051	5.22
362.42	5.12
362.788	5.42
363.157	5.28
363.525	5.51
363.894	5.3
364.262	5.21
364.631	5.6
364.999	5.31
365.367	5.58
365.735	5.47
366.104	5.17
366.472	5.43
366.84	5.81
367.208	5.35
367.576	5.47
367.944	5.54
368.312	5.38
368.68	5.52
369.048	5.44
369.416	5.61
369.783	5.56
370.151	5.63
370.519	5.48
370.886	5.63
371.254	5.87
371.621	5.85
371.989	5.5
372.356	5.59
372.724	5.71
373.091	5.66
373.458	5.36
373.826	5.27
374.193	5.32
374.56	5.64
374.927	5.36
375.294	5.62
375.661	5.47
376.028	6.04
376.395	5.59
376.762	5.26
377.129	5.7
377.496	5.36
377.863	5.79
378.229	5.55
378.596	5.91
378.963	5.48
379.329	5.57
379.696	5.54
380.062	5.48
380.429	5.21
380.795	5.6
381.161	5.71
381.528	5.83
381.894	5.66
382.26	5.48
382.626	5.85
382.993	5.52
383.359	5.47
383.725	5.43
384.091	5.51
384.457	5.62
384.823	5.54
385.188	5.87
385.554	5.74
385.92	5.59
386.286	5.88
386.651	5.48
387.017	5.67
387.383	5.69
387.748	5.12
388.114	5.22
388.479	5.52
388.845	5.9
389.21	5.49
389.575	5.38
389.94	5.66
390.306	5.53
390.671	5.49
391.036	5.56
391.401	5.92
391.766	5.64
392.131	5.52
392.496	5.62
392.861	5.86
393.226	5.97
393.591	5.52
393.956	5.6
394.32	5.93
394.685	5.6
395.05	5.99
395.414	5.85
395.779	5.58
396.143	5.63
396.508	5.6
396.872	5.63
397.236	5.85
397.601	5.72
397.965	5.73
398.329	5.27
398.694	5.58
399.058	5.35
399.422	5.64
399.786	5.8
400.15	5.64
400.514	5.84
400.878	5.63
401.242	6.04
401.605	6.02
401.969	5.54
402.333	5.72
402.697	5.8
403.06	5.63
403.424	5.6
403.787	5.71
404.151	5.75
404.514	6.16
404.878	5.71
405.241	5.65
405.604	5.79
405.968	5.82
406.331	5.72
406.694	5.88
407.057	5.56
407.42	5.94
407.783	5.97
408.146	5.78
408.509	5.78
408.872	6.1
409.235	5.82
409.598	5.89
409.961	5.78
410.323	5.67
410.686	5.5
411.049	5.58
411.411	5.71
411.774	5.76
412.136	5.78
412.499	5.9
412.861	5.78
413.223	5.93
413.586	5.78
413.948	6.09
414.31	5.89
414.672	5.54
415.035	5.83
415.397	6.04
415.759	5.74
416.121	5.96
416.483	6.07
416.845	5.73
417.206	5.81
417.568	5.88
417.93	6.04
418.292	5.65
418.653	5.75
419.015	5.66
419.377	5.82
419.738	5.82
420.1	5.62
420.461	5.76
420.822	5.64
421.184	5.73
421.545	5.82
421.906	5.75
422.267	5.69
422.629	5.76
422.99	5.59
423.351	5.69
423.712	5.67
424.073	5.73
424.434	5.67
424.795	5.66
425.155	5.86
425.516	5.65
425.877	5.75
426.238	5.68
426.598	5.71
426.959	5.67
427.32	5.8
427.68	5.81
428.041	5.73
428.401	5.75
428.761	5.78
429.122	5.89
429.482	5.89
429.842	5.71
430.202	5.67
430.563	5.94
430.923	6.02
431.283	5.65
431.643	5.98
432.003	6.11
432.363	5.79
432.722	6
433.082	5.91
433.442	5.84
433.802	6.15
434.161	5.74
434.521	6
434.881	5.91
435.24	5.88
435.6	5.88
435.959	5.99
436.319	5.84
436.678	6.1
437.037	5.94
437.396	5.95
437.756	5.86
438.115	5.72
438.474	5.97
438.833	6.03
439.192	5.83
439.551	5.71
439.91	6
440.269	6.09
440.628	6.04
440.987	5.96
441.345	5.9
441.704	5.87
442.063	5.87
442.421	5.96
442.78	5.8
443.138	6.07
443.497	5.89
443.855	5.95
444.214	5.91
444.572	5.89
444.93	6.04
445.288	6.06
445.647	6.25
446.005	5.9
446.363	5.94
446.721	5.9
447.079	6.1
447.437	5.88
447.795	5.88
448.153	5.98
448.51	5.89
448.868	5.9
449.226	5.94
449.584	5.91
449.941	5.85
450.299	5.94
450.656	5.96
451.014	6.09
451.371	6.12
451.729	6.07
452.086	6.09
452.443	6.18
452.801	6.07
453.158	6.32
453.515	5.99
453.872	6.18
454.229	6.24
454.586	5.96
454.943	6.08
455.3	6.01
455.657	6.09
456.014	6.1
456.371	6.14
456.727	6.23
457.084	6.14
457.441	6.14
457.797	6.07
458.154	6.04
458.51	6.07
458.867	6.11
459.223	6.32
459.58	6.06
459.936	6.12
460.292	5.96
460.648	5.87
461.005	6.05
461.361	6.04
461.717	5.98
462.073	5.97
462.429	6.04
462.785	6.07
463.141	6.27
463.496	6.16
463.852	6.21
464.208	6.24
464.564	6.25
464.919	5.99
465.275	6.47
465.631	6.34
465.986	6.18
466.342	6.41
466.697	6.19
467.052	6.15
467.408	6.25
467.763	6.32
468.118	6.33
468.473	6.32
468.829	6.26
469.184	6.16
469.539	6.33
469.894	6.26
470.249	6.34
470.603	6.15
470.958	6.3
471.313	6.53
471.668	6.47
472.023	6.26
472.377	6.27
472.732	6.16
473.086	6.21
473.441	6.34
473.795	6.56
474.15	6.22
474.504	6.19
474.859	6.33
475.213	6.35
475.567	6.36
475.921	6.4
476.275	6.2
476.63	6.36
476.984	6.5
477.338	6.38
477.692	6.26
478.045	6.45
478.399	6.47
478.753	6.4
479.107	6.22
479.461	6.29
479.814	6.53
480.168	6.51
480.521	6.4
480.875	6.45
481.228	6.4
481.582	6.59
481.935	6.29
482.289	6.48
482.642	6.38
482.995	6.28
483.348	6.48
483.701	6.35
484.055	6.34
484.408	6.21
484.761	6.22
485.114	6.18
485.466	6.11
485.819	5.96
486.172	5.91
486.525	5.95
486.878	6.03
487.23	6.07
487.583	6.03
487.936	6.17
488.288	6.24
488.641	6.29
488.993	6.17
489.345	6.1
489.698	6.17
490.05	6.15
490.402	6.1
490.754	6.12
491.107	6.15
491.459	6.3
491.811	6.26
492.163	6.34
492.515	6.4
492.866	6.41
493.218	6.21
493.57	6.18
493.922	6.16
494.274	6.19
494.625	6.21
494.977	6.26
495.328	6.37
495.68	6.43
496.031	6.44
496.383	6.47
496.734	6.58
497.086	6.42
497.437	6.68
497.788	6.53
498.139	6.71
498.49	6.52
498.842	6.42
499.193	6.48
499.544	6.53
499.894	6.56
500.245	6.58
500.596	6.55
500.947	6.51
501.298	6.61
501.648	6.6
501.999	6.6
502.35	6.64
502.7	6.78
503.051	6.63
503.401	6.72
503.752	6.69
504.102	6.67
504.452	6.61
504.803	6.74
505.153	6.84
505.503	6.7
505.853	6.9
506.203	6.63
506.553	6.56
506.903	6.7
507.253	6.77
507.603	6.76
507.953	6.77
508.303	6.71
508.652	6.87
509.002	6.66
509.352	6.86
509.701	6.79
510.051	6.7
510.4	6.79
510.75	6.77
511.099	6.83
511.449	6.86
511.798	6.88
512.147	6.74
512.496	6.79
512.846	6.74
513.195	6.76
513.544	6.75
513.893	6.78
514.242	6.75
514.591	6.82
514.939	6.8
515.288	6.97
515.637	6.84
515.986	6.9
516.334	6.93
516.683	6.84
517.032	6.83
517.38	6.79
517.729	6.92
518.077	6.95
518.426	6.96
518.774	6.88
519.122	6.86
519.47	6.92
519.819	6.85
520.167	6.88
520.515	6.83
520.863	6.89
521.211	6.84
521.559	6.86
521.907	6.94
522.255	6.93
522.602	7.11
522.95	6.95
523.298	7.08
523.645	7.1
523.993	7.05
524.341	7.12
524.688	7.08
525.036	7.11
525.383	7.04
525.73	7.17
526.078	7.1
526.425	7.24
526.772	7.11
527.119	7.09
527.466	7
527.814	7.11
528.161	6.94
528.508	7.01
528.854	7
529.201	7.03
529.548	7.14
529.895	7.03
530.242	6.98
530.588	6.86
530.935	6.82
531.282	6.89
531.628	6.93
531.975	6.95
532.321	7.1
532.667	7.13
533.014	7.17
533.36	7.21
533.706	7.21
534.052	7.16
534.399	7.22
534.745	7.11
535.091	7.17
535.437	7.17
535.783	7.11
536.129	7.26
536.474	7.27
536.82	7.29
537.166	7.37
537.512	7.41
537.857	7.37
538.203	7.37
538.549	7.45
538.894	7.43
539.239	7.42
539.585	7.37
539.93	7.45
540.276	7.7
540.621	7.52
540.966	7.71
541.311	7.65
541.656	7.61
542.001	7.74
542.346	7.67
542.691	7.53
543.036	7.54
543.381	7.42
543.726	7.35
544.071	7.41
544.415	7.44
544.76	7.51
545.105	7.61
545.449	7.5
545.794	7.69
546.138	7.7
546.483	7.77
546.827	7.74
547.171	7.88
547.516	7.95
547.86	7.77
548.204	7.79
548.548	7.9
548.892	7.74
549.236	7.9
549.58	7.86
549.924	7.94
550.268	7.88
550.612	8.07
550.956	8.18
551.3	8.11
551.643	8.05
551.987	8.26
552.33	8.16
552.674	8.25
553.017	8.24
553.361	8.34
553.704	8.39
554.048	8.39
554.391	8.31
554.734	8.47
555.077	8.28
555.42	8.08
555.764	8.24
556.107	8.45
556.45	8.33
556.793	8.26
557.135	8.31
557.478	8.37
557.821	8.57
558.164	8.59
558.507	8.6
558.849	8.54
559.192	8.56
559.534	8.73
559.877	8.43
560.219	8.72
560.562	8.83
560.904	8.54
561.246	8.67
561.589	8.67
561.931	8.78
562.273	9.01
562.615	8.96
562.957	8.93
563.299	8.79
563.641	8.96
563.983	8.64
564.325	8.72
564.667	8.92
565.008	8.75
565.35	8.86
565.692	8.91
566.033	9.14
566.375	9.08
566.716	9.04
567.058	9.04
567.399	9.16
567.741	8.92
568.082	8.94
568.423	9.1
568.764	8.88
569.105	9.17
569.447	8.97
569.788	9.01
570.129	9.12
570.47	9.26
570.811	9.47
571.151	9.33
571.492	9.45
571.833	9.33
572.174	9.36
572.514	9.31
572.855	9.44
573.195	9.44
573.536	9.22
573.876	9.5
574.217	9.42
574.557	9.38
574.898	9.29
575.238	9.46
575.578	9.53
575.918	9.47
576.258	9.51
576.598	9.75
576.938	9.73
577.278	9.84
577.618	9.56
577.958	9.6
578.298	9.64
578.638	9.76
578.977	9.64
579.317	9.94
579.657	9.79
579.996	10.13
580.336	10.06
580.675	10.05
581.014	9.94
581.354	9.93
581.693	10.18
582.032	10.14
582.372	10.3
582.711	10.13
583.05	10.22
583.389	10.32
583.728	10.28
584.067	10.2
584.406	10.23
584.745	10.28
585.083	10.31
585.422	10.41
585.761	10.3
586.1	10.35
586.438	10.01
586.777	10.41
587.115	10.74
587.454	10.44
587.792	10.57
588.13	10.61
588.469	10.94
588.807	10.49
589.145	10.69
589.483	10.58
589.821	10.77
590.159	10.72
590.497	10.82
590.835	10.75
591.173	10.57
591.511	10.84
591.849	11.05
592.187	10.89
592.524	10.9
592.862	10.99
593.2	10.75
593.537	11.05
593.875	10.91
594.212	11.27
594.55	11.24
594.887	11.13
595.224	11.21
595.561	11.29
595.899	11.16
596.236	11.31
596.573	11.19
596.91	11.44
597.247	11.38
597.584	11.4
597.921	11.61
598.258	11.61
598.594	11.56
598.931	11.33
599.268	11.31
599.604	11.47
599.941	11.51
600.277	11.55
600.614	11.52
600.95	11.85
601.287	11.66
601.623	11.85
601.959	11.98
602.296	11.93
602.632	11.84
602.968	11.72
603.304	12.41
603.64	11.86
603.976	12.11
604.312	12.07
604.648	12.04
604.984	12.22
605.319	11.73
605.655	11.92
605.991	12.04
606.326	11.85
606.662	11.95
606.998	11.94
607.333	12.13
607.668	11.97
608.004	12.29
608.339	12.07
608.674	12.34
609.01	12.41
609.345	12.55
609.68	12.45
610.015	12.63
610.35	12.49
610.685	12.69
611.02	12.5
611.355	12.48
611.689	12.48
612.024	12.35
612.359	12.49
612.694	12.49
613.028	13.03
613.363	12.85
613.697	12.49
614.032	13.06
614.366	12.89
614.7	12.94
615.035	13.05
615.369	13.19
615.703	12.87
616.037	13.13
616.371	13.16
616.705	13.25
617.039	13.1
617.373	13.66
617.707	13.7
618.041	13.64
618.375	13.44
618.709	13.13
619.042	13.63
619.376	14.11
619.71	13.62
620.043	13.61
620.377	13.43
620.71	13.57
621.043	13.52
621.377	13.39
621.71	13.77
622.043	13.79
622.376	13.78
622.709	14.1
623.043	13.83
623.376	13.77
623.709	13.53
624.041	14.11
624.374	14.16
624.707	14.04
625.04	14.19
625.373	14.4
625.705	14.06
626.038	14.53
626.37	14.03
626.703	14.19
627.035	14.01
627.368	14.24
627.7	14.29
628.032	14.37
628.365	14.55
628.697	14.61
629.029	14.56
629.361	14.55
629.693	14.47
630.025	14.6
630.357	14.62
630.689	14.61
631.021	14.88
631.353	14.9
631.684	14.51
632.016	14.56
632.348	14.59
632.679	14.75
633.011	14.63
633.342	14.45
633.674	14.75
634.005	14.89
634.336	15.36
634.668	15.19
634.999	14.79
635.33	14.93
635.661	15.54
635.992	15.43
636.323	15.1
636.654	15.41
636.985	15.09
637.316	15.48
637.647	15.29
637.977	15.02
638.308	15.59
638.639	15.57
638.969	15.26
639.3	15.19
639.63	15.39
639.961	15.44
640.291	15.23
640.622	15.8
640.952	16.06
641.282	15.76
641.612	15.87
641.943	15.78
642.273	15.64
642.603	16.11
642.933	15.68
643.263	16.06
643.592	15.5
643.922	16.35
644.252	16.3
644.582	15.64
644.911	16.13
645.241	16.17
645.571	16.78
645.9	16.32
646.23	16.66
646.559	16.19
646.888	16.64
647.218	16.32
647.547	16.71
647.876	16.95
648.205	16.26
648.534	16.61
648.863	16.36
649.192	16.31
649.521	16.66
649.85	16.59
650.179	16.25
650.508	16.18
650.837	16.96
651.165	16.84
651.494	16.56
651.822	16.84
652.151	17.19
652.479	16.77
652.808	17.05
653.136	16.83
653.465	17.2
653.793	16.45
654.121	17.54
654.449	17.25
654.777	16.97
655.105	16.96
655.433	18.04
655.761	17.46
656.089	17.64
656.417	16.94
656.745	17.06
657.073	17.12
657.4	18.61
657.728	17.6
658.056	17.33
658.383	17.4
658.711	16.88
659.038	17.57
659.365	17.88
659.693	17.77
660.02	18.06
660.347	18.02
660.674	17.54
661.001	17.61
661.329	18
661.656	17.92
661.982	18.22
662.309	18.19
662.636	18.03
662.963	18.02
663.29	18.24
663.616	18.13
663.943	18.06
664.27	18.21
664.596	18.5
664.923	18.39
665.249	18.58
665.576	18.79
665.902	18.9
666.228	18.82
666.554	19.1
666.881	18.09
667.207	18.37
667.533	18.69
667.859	18.54
668.185	18.99
668.511	19
668.837	19.43
669.162	18.95
669.488	19.27
669.814	18.23
670.139	19.35
670.465	19.12
670.791	19.45
671.116	19.3
671.442	18.9
671.767	19.09
672.092	19.12
672.418	18.58
672.743	18.61
673.068	19.58
673.393	19.16
673.718	19.05
674.043	19.52
674.368	19.78
674.693	19.37
675.018	20.15
675.343	19.29
675.667	19.75
675.992	20
676.317	20.68
676.641	19.61
676.966	19.5
677.29	19.97
677.615	19.41
677.939	18.89
678.264	19.99
678.588	19.85
678.912	19.96
679.236	20.11
679.56	19.92
679.885	20.13
680.209	20.08
680.532	19.7
680.856	19.77
681.18	20.13
681.504	19.94
681.828	20.78
682.152	20.54
682.475	19.8
682.799	20.35
683.122	20.42
683.446	20.78
683.769	20.85
684.093	21.15
684.416	20.81
684.739	20.02
685.062	20.22
685.386	21.05
685.709	20.89
686.032	20.66
686.355	21.06
686.678	20.29
687.001	20.77
687.324	20.59
687.646	20.84
687.969	21.1
688.292	21.1
688.614	21.27
688.937	20.89
689.26	21.04
689.582	21.41
689.904	20.99
690.227	21.65
690.549	21.27
690.871	21.68
691.194	21.82
691.516	21.23
691.838	22.18
692.16	21.31
692.482	22.06
692.804	21.9
693.126	21.05
693.448	23.64
693.769	21.73
694.091	22.03
694.413	21.54
694.735	21.95
695.056	22.38
695.378	22.14
695.699	22.38
696.021	21.27
696.342	22.76
696.663	22.21
696.984	22.29
697.306	22.98
697.627	22.04
697.948	22.89
698.269	22.45
698.59	22.43
698.911	21.85
699.232	21.9
699.553	22.63
699.873	22.62
700.194	23.12
700.515	22.29
700.835	22.37
701.156	22.1
701.477	22.55
701.797	22.14
702.117	22.75
702.438	22.22
702.758	22.87
703.078	22.97
703.398	22.59
703.719	23.5
704.039	23.34
704.359	23.29
704.679	22.99
704.999	23.32
705.319	23.22
705.638	23.18
705.958	23.53
706.278	23.51
706.597	23.92
706.917	22.76
707.237	23.38
707.556	23.17
707.876	23.07
708.195	23.96
708.514	22.62
708.834	24.18
709.153	23.34
709.472	23.84
709.791	25.1
710.11	24.33
710.429	22.87
710.748	23.66
711.067	23.56
711.386	23.33
711.705	23.63
712.023	23.56
712.342	23.68
712.661	24.26
712.979	24.14
713.298	23.85
713.616	24.02
713.935	24.35
714.253	24.75
714.572	24.18
714.89	24.34
715.208	24.75
715.526	25.47
715.844	24.16
716.162	24.62
716.48	24.87
716.798	24.4
717.116	25.06
717.434	25.34
717.752	24.55
718.069	24.21
718.387	25.36
718.705	24.85
719.022	26.01
719.34	24.91
719.657	25.42
719.975	24.83
720.292	24.87
720.609	26.47
720.927	24.34
721.244	25.91
721.561	25.78
721.878	26.09
722.195	25.38
722.512	26.62
722.829	25.65
723.146	24.64
723.463	25.84
723.779	26.26
724.096	24.82
724.413	25.22
724.729	24.72
725.046	28.54
725.362	26.82
725.679	25.61
725.995	27.04
726.311	26.47
726.628	25.81
726.944	25.88
727.26	25.99
727.576	25.65
727.892	25.65
728.208	25.09
728.524	26.85
728.84	25.4
729.156	26.04
729.472	25.58
729.787	27.84
730.103	27.34
730.419	26.17
730.734	26.45
731.05	27.64
731.365	25.23
731.681	26.6
731.996	27.4
732.311	27.5
732.626	26.27
732.942	26.77
733.257	26.74
733.572	26.32
733.887	25.36
734.202	26.8
734.517	27.7
734.832	27.68
735.146	28.31
735.461	27.09
735.776	27.06
736.091	27.8
736.405	27.01
736.72	28.21
737.034	26.6
737.349	26.34
737.663	27.02
737.977	28.69
738.292	26.48
738.606	25.84
738.92	27.2
739.234	27.49
739.548	26.84
739.862	26.51
740.176	26.7
740.49	27.69
740.804	27.41
741.117	28.23
741.431	27.75
741.745	28.3
742.058	29.28
742.372	28.29
742.685	26.63
742.999	26.84
743.312	27.03
743.626	26.15
743.939	27.53
744.252	27.75
744.565	29.13
744.878	28.82
745.191	30.18
745.505	28.63
745.817	28.64
746.13	29.84
746.443	29.56
746.756	30.25
747.069	27.43
747.381	30.96
747.694	28.12
748.007	25.77
748.319	29.03
748.632	28.31
748.944	30.22
749.256	30.11
749.569	29.21
749.881	29.51
750.193	28.46
750.505	26.66
750.817	31.65
751.129	29.69
751.441	29.19
751.753	28.37
752.065	30.06
752.377	29.23
752.689	30.41
753	30.45
753.312	30.92
753.624	30.15
753.935	30.97
754.247	30.27
754.558	30.26
754.869	32.31
755.181	29.9
755.492	28.73
755.803	28.18
756.114	27.83
756.425	29.07
756.736	30.25
757.047	29.18
757.358	28.58
757.669	30.47
757.98	28.99
758.291	29.92
758.601	31.33
758.912	29.82
759.223	27.99
759.533	30.15
759.844	32.88
760.154	31.51
760.464	31.06
760.775	31
761.085	30.88
761.395	29.18
761.705	31.6
762.016	32.17
762.326	32.63
762.636	32.33
762.945	30.01
763.255	31.76
763.565	31.07
763.875	31.83
764.185	30.75
764.494	32.44
764.804	32.01
765.113	30.05
765.423	30.9
765.732	31.3
766.042	29.76
766.351	31.07
766.66	30.24
766.97	31.47
767.279	31.1
767.588	30.21
767.897	31.85
768.206	30.18
768.515	31.75
768.824	31.48
769.133	31.29
769.441	31.29
769.75	32.15
770.059	32.19
770.367	31.46
770.676	33.6
770.984	31.61
771.293	30.66
771.601	31.23
771.91	29.42
772.218	36
772.526	33.55
772.834	33.03
773.142	33.5
773.45	29.54
773.758	33.33
774.066	31.76
774.374	33.42
774.682	33.14
774.99	32.43
775.298	29.15
775.605	33.84
775.913	33.19
776.22	32.51
776.528	33.61
776.835	30.03
777.143	30.93
777.45	34.91
777.757	36.26
778.065	32.37
778.372	35.62
778.679	34.82
778.986	30.71
779.293	33.26
779.6	35.01
779.907	31.29
780.214	30.05
780.52	37.27
780.827	34.73
781.134	35.41
781.44	36.04
781.747	34.88
782.053	34.03
782.36	33.98
782.666	30.42
782.973	30.08
783.279	33.8
783.585	32.07
783.891	28.63
784.197	30.55
784.503	31.68
784.809	34.98
785.115	30.29
785.421	33.55
785.727	36.75
786.033	37.59
786.339	34.08
786.644	34.91
786.95	36.18
787.255	33.39
787.561	33.23
787.866	36.2
788.172	34.5
788.477	32.71
788.782	31.99
789.088	36.37
789.393	32.14
789.698	37.38
790.003	31.98
790.308	35.62
790.613	30.23
790.918	35.45
791.223	36.62
791.527	34.33
791.832	35.98
792.137	34.62
792.441	32.44
792.746	33.54
793.05	32.33
793.355	35.02
793.659	35.22
793.963	38.25
794.268	39.57
794.572	35.55
794.876	32.65
795.18	36.49
795.484	34.78
795.788	36.13
796.092	37.34
796.396	34.16
796.7	38.14
797.004	33.78
797.307	35.09
797.611	34.48
797.915	33.88
798.218	35.15
798.522	36.71
798.825	37.38
799.128	37.19
799.432	32.02
799.735	31.64
800.038	35.38
800.341	35.07
800.644	38.09
800.947	39.82
801.25	37.92
801.553	41.16
801.856	39
802.159	29.25
802.462	34.43
802.764	35.48
803.067	37.66
803.37	37.55
803.672	37.8
803.975	41.68
804.277	35
804.579	33.13
804.882	36.47
805.184	38.23
805.486	39.47
805.788	38.7
806.09	36.36
806.392	42.05
806.694	38.81
806.996	37.74
807.298	36.68
807.6	37.57
807.902	36.97
808.203	39.33
808.505	42.89
808.807	39.11
809.108	32.38
809.409	37.47
809.711	35.32
810.012	38.08
810.313	37.26
810.615	34.68
810.916	35.39
811.217	38.89
811.518	35.76
811.819	40.76
812.12	38.46
812.421	32.23
812.722	34.91
813.023	40.01
813.323	30.46
813.624	38.22
813.925	35.7
814.225	35.92
814.526	42.6
814.826	40.19
815.126	46.58
815.427	39.24
815.727	40.12
816.027	33.57
816.327	39.47
816.627	41.92
816.927	33.54
817.227	36.83
817.527	35.74
817.827	33.37
818.127	33.62
818.427	37.89
818.727	36.96
819.026	32.78
819.326	42.01
819.625	35.97
819.925	43.26
820.224	36.84
820.524	37.46
820.823	38.86
821.122	43.88
821.421	41.52
821.72	41.48
822.019	39.51
822.318	40.99
822.617	37.52
822.916	38.43
823.215	37.77
823.514	43.35
823.813	38.44
824.111	39.03
824.41	37.04
824.709	39.17
825.007	38.48
825.306	38.45
825.604	39.08
825.902	39.68
826.201	39.15
826.499	40.21
826.797	39.48
827.095	39.37
827.393	38.82
827.691	40.04
827.989	40.1
828.287	40.54
828.585	39.95
828.882	39.96
829.18	39.27
829.478	40.75
829.775	39.46
830.073	39.77
830.37	40.37
830.668	40.48
830.965	40.82
831.263	40.11
831.56	42.47
831.857	43.24
832.154	41.18
832.451	42.63
832.748	41.33
833.045	38.69
833.342	46.47
833.639	42.16
833.936	42.75
834.232	45.64
834.529	38.39
834.826	34.03
835.122	40.25
835.419	47.3
835.715	46.98
836.012	43.52
836.308	36.84
836.604	37.13
836.901	42.84
837.197	42.89
837.493	43.84
837.789	40.93
838.085	40.79
838.381	43.64
838.677	41.1
838.972	43.59
839.268	40.55
839.564	46.64
839.86	46.92
840.155	49.39
840.451	42.98
840.746	43.52
841.042	41.69
841.337	40.78
841.632	41.06
841.928	38.93
842.223	40.65
842.518	43.38
842.813	43.29
843.108	36.19
843.403	43.63
843.698	48.38
843.993	38.31
844.287	35.38
844.582	55.66
844.877	37.71
845.171	43.69
845.466	33.18
845.761	41.39
846.055	41.5
846.349	48.78
846.644	47.13
846.938	54.06
847.232	52.97
847.526	42.07
847.82	55.75
848.114	34.16
848.408	54.64
848.702	32.48
848.996	55.42
849.29	44.3
849.584	45.13
849.877	53.15
850.171	48.15
850.465	50.3
850.758	52.52
851.052	44.57
851.345	52.55
851.638	37.77
851.932	35.56
852.225	53.94
852.518	46.97
852.811	54.58
853.104	52.11
853.397	44.74
853.69	50.16
853.983	28.59
854.276	32.75
854.569	56.34
854.861	47.83
855.154	41.92
855.447	40.76
855.739	44.53
856.032	47.42
856.324	37.42
856.616	31.42
856.909	43.55
857.201	32.75
857.493	53.28
857.785	30.83
858.077	53.12
858.369	42.64
858.661	60.69
858.953	43.24
859.245	25.86
859.537	62.63
859.829	50.98
860.12	50
860.412	48.7
860.703	44.28
860.995	46.56
861.286	40.48
861.578	35.46
861.869	41.02
862.16	69.59
862.452	33.79
862.743	49.54
863.034	42.11
863.325	52.45
863.616	4.49
863.907	48.76
864.198	40.71
864.488	61.13
864.779	53.85
865.07	76.52
865.36	37.51
865.651	64.94
865.941	59.5
866.232	52.33
866.522	64.66
866.813	48.69
867.103	40.43
867.393	57.36
867.683	39.61
867.973	70.34
868.263	73.79
868.553	63.56
868.843	32.91
869.133	69.7
869.423	59.23
869.713	48.17
870.002	36.54
870.292	31.77
870.582	36.67
870.871	39.96
871.161	58.86
871.45	67.91
871.739	42.25
872.029	59.06
872.318	50.41
872.607	38.95
872.896	45.08
873.185	46.88
873.474	41.66
873.763	63.39
874.052	43.75
874.341	60.84
874.63	57.12
874.918	38.14
875.207	42.14
875.496	63.04
875.784	60.13
876.073	41.46
876.361	64.35
876.649	63.93
876.938	47
877.226	58.27
877.514	61.34
877.802	59.5
878.09	61.64
878.378	52.14
878.666	56.23
878.954	41.77
879.242	57.11
879.53	45.8
879.817	45.71
880.105	44.92
880.392	44.76
880.68	60.71
880.967	61
881.255	51.68
881.542	35.6
881.83	66.72
882.117	54.95
882.404	52.26
882.691	46.16
882.978	36.41
883.265	63.32
883.552	49.05
883.839	25.22
884.126	55.11
884.413	49.23
884.699	58.42
884.986	55.44
885.273	48.87
885.559	48.87
885.846	48.87
