Data from 0265_crown_Reflection__2__176.txt Node

Date: Fri Oct 20 22:04:32 CDT 2023
User: ToomeyLab
Spectrometer: FLMS14357
Trigger mode: 0
Integration Time (sec): 1.000000E-2
Scans to average: 100
Electric dark correction enabled: true
Nonlinearity correction enabled: false
Boxcar width: 0
XAxis mode: Wavelengths
Number of Pixels in Spectrum: 2048
>>>>>Begin Spectral Data<<<<<
189.047	-1.68
189.435	-1.68
189.823	-1.68
190.211	-10.28
190.599	-15.71
190.987	203.89
191.375	140.59
191.763	-8806.15
192.151	3493.33
192.538	198.18
192.926	27.01
193.314	62.1
193.702	120.3
194.089	139.83
194.477	114.22
194.864	-70.31
195.252	-202.66
195.639	47.3
196.027	138.36
196.414	245
196.801	58.21
197.189	95.8
197.576	960.31
197.963	-48.94
198.351	60.91
198.738	21.14
199.125	49.49
199.512	31.5
199.899	5.79
200.286	3.84
200.673	28.72
201.06	10.27
201.447	-70.76
201.833	26
202.22	45.05
202.607	21.66
202.994	37.98
203.38	-9.65
203.767	15.59
204.154	42.76
204.54	55.9
204.927	28.17
205.313	36.65
205.699	52.29
206.086	-6.47
206.472	41.32
206.858	37.11
207.245	32.27
207.631	17.41
208.017	33.26
208.403	23.02
208.789	29.45
209.175	0.18
209.561	32.86
209.947	6.36
210.333	3.13
210.719	13.37
211.105	14.05
211.491	42.27
211.876	19.93
212.262	38.44
212.648	29.06
213.034	-30.05
213.419	15.94
213.805	24.71
214.19	-4.12
214.576	22.03
214.961	21.35
215.346	15.14
215.732	15.19
216.117	-28.14
216.502	21.94
216.888	26.17
217.273	-5.42
217.658	8.56
218.043	-0.18
218.428	5.9
218.813	23.51
219.198	-1.71
219.583	-28.98
219.968	7.14
220.353	21.64
220.738	2.45
221.122	-2.3
221.507	4.46
221.892	0.93
222.276	7.18
222.661	22.33
223.046	6.08
223.43	14.68
223.815	20.68
224.199	15.63
224.583	7.73
224.968	5.21
225.352	-10.34
225.736	4.29
226.121	4.26
226.505	4.38
226.889	3.62
227.273	6.49
227.657	8.51
228.041	11.6
228.425	6.99
228.809	8.51
229.193	6.54
229.577	9.71
229.961	7.74
230.344	6.74
230.728	6.42
231.112	7.4
231.495	5.87
231.879	6.92
232.263	6.68
232.646	5.71
233.03	5.99
233.413	5.95
233.797	6.33
234.18	6.23
234.563	7.35
234.946	8.45
235.33	8.12
235.713	6.73
236.096	7.74
236.479	6.07
236.862	6.2
237.245	6.73
237.628	6.68
238.011	7.4
238.394	6.5
238.777	7.88
239.16	7.5
239.543	7.69
239.925	7.58
240.308	5.86
240.691	7.86
241.073	8.42
241.456	6.7
241.838	7.38
242.221	7.66
242.603	7.29
242.986	6.44
243.368	6.98
243.75	5.9
244.133	6.33
244.515	6.69
244.897	6.69
245.279	6.54
245.661	6.35
246.043	5.71
246.425	6.79
246.807	7.18
247.189	6.46
247.571	7.02
247.953	6.43
248.335	6.87
248.717	6.3
249.098	6.6
249.48	6.56
249.862	6.61
250.243	6.77
250.625	6.78
251.006	6.68
251.388	6.7
251.769	6.96
252.151	6.36
252.532	6.65
252.913	7.15
253.295	5.43
253.676	6.88
254.057	6.17
254.438	6.56
254.819	7.17
255.2	7.21
255.581	5.86
255.962	6.32
256.343	7.99
256.724	6.03
257.105	7.3
257.486	5.97
257.867	6.48
258.247	7.39
258.628	6.47
259.009	6.04
259.389	5.54
259.77	6.09
260.15	6.43
260.531	5.79
260.911	6.45
261.292	5.9
261.672	6.1
262.052	6.41
262.432	6.25
262.813	6.12
263.193	6.46
263.573	5.53
263.953	6.11
264.333	6.53
264.713	6.6
265.093	6.34
265.473	6.5
265.853	5.64
266.233	6.52
266.612	5.74
266.992	6.18
267.372	5.88
267.752	5.72
268.131	6.41
268.511	6.04
268.89	6.21
269.27	5.25
269.649	5.35
270.029	5.98
270.408	6.04
270.787	5.73
271.167	5.98
271.546	6.42
271.925	6.27
272.304	6.22
272.683	5.69
273.062	6.1
273.441	6.12
273.82	5.83
274.199	6.07
274.578	6.32
274.957	5.73
275.336	5.57
275.715	6
276.093	5.96
276.472	5.97
276.851	5.64
277.229	5.78
277.608	5.36
277.986	5.19
278.365	5.66
278.743	5.38
279.122	5.72
279.5	5.5
279.878	5.02
280.257	5.41
280.635	5.76
281.013	5.76
281.391	6.24
281.769	5.28
282.147	5.34
282.525	5.48
282.903	5.39
283.281	5.74
283.659	5.75
284.037	5.75
284.415	5.2
284.792	5.16
285.17	5.45
285.548	5.58
285.925	4.93
286.303	5.53
286.68	5.45
287.058	5.96
287.435	6.06
287.813	5.23
288.19	5.45
288.567	5.28
288.945	5.78
289.322	5.89
289.699	5.17
290.076	5.5
290.453	5.47
290.83	5.63
291.207	6.06
291.584	5.19
291.961	5.41
292.338	5.46
292.715	5.72
293.092	5.56
293.469	6.26
293.845	5.78
294.222	5.78
294.599	6.2
294.975	6.07
295.352	5.86
295.728	6.25
296.105	6.04
296.481	5.81
296.858	5.61
297.234	5.96
297.61	5.46
297.986	5.77
298.363	5.91
298.739	6.08
299.115	5.78
299.491	6.11
299.867	5.96
300.243	6.05
300.619	6.03
300.995	5.74
301.371	6.36
301.746	5.93
302.122	6.37
302.498	6.16
302.874	6.41
303.249	5.93
303.625	6.4
304	6.31
304.376	5.67
304.751	5.69
305.127	5.66
305.502	6.88
305.878	5.97
306.253	5.97
306.628	5.81
307.003	6.12
307.378	5.82
307.754	5.87
308.129	6.62
308.504	6.23
308.879	6.35
309.254	6.22
309.629	5.9
310.003	5.61
310.378	6.6
310.753	6.21
311.128	6.17
311.502	5.94
311.877	6.14
312.252	5.86
312.626	6.6
313.001	6.12
313.375	6.1
313.75	5.84
314.124	5.68
314.498	6.26
314.873	5.97
315.247	5.94
315.621	5.93
315.995	6.04
316.369	5.81
316.743	6.27
317.117	6.09
317.491	5.82
317.865	6.5
318.239	6.73
318.613	6.27
318.987	6.21
319.361	5.91
319.734	5.71
320.108	5.67
320.482	6.19
320.855	6.68
321.229	6.54
321.602	5.87
321.976	5.78
322.349	6.11
322.723	5.88
323.096	6.36
323.469	5.62
323.843	6.19
324.216	6.42
324.589	6.32
324.962	6.8
325.335	6.28
325.708	6.48
326.081	5.94
326.454	6.3
326.827	6
327.2	6.35
327.573	6.12
327.945	5.97
328.318	5.65
328.691	6.17
329.063	6.95
329.436	6.33
329.809	6.15
330.181	6.43
330.553	6.19
330.926	5.94
331.298	5.89
331.671	5.94
332.043	6.11
332.415	6.24
332.787	6.35
333.159	5.95
333.532	6.35
333.904	6.56
334.276	6.17
334.648	6.52
335.02	6.6
335.391	5.66
335.763	6.67
336.135	6.04
336.507	6.36
336.879	6.28
337.25	6.29
337.622	6.35
337.993	6.3
338.365	6.07
338.736	6.23
339.108	6.39
339.479	5.67
339.851	6.11
340.222	5.82
340.593	5.76
340.964	5.95
341.336	6.63
341.707	6.2
342.078	6.42
342.449	6.23
342.82	6.02
343.191	5.92
343.562	6.3
343.933	6.33
344.303	6.15
344.674	6.49
345.045	6.87
345.416	6.6
345.786	6
346.157	6.18
346.527	6.37
346.898	6.29
347.268	6.32
347.639	6.31
348.009	6
348.38	6.17
348.75	6.13
349.12	6.5
349.49	6.13
349.861	6.73
350.231	6.14
350.601	6.3
350.971	6.51
351.341	6.56
351.711	6.36
352.081	6.54
352.45	5.91
352.82	6.66
353.19	6.52
353.56	6.22
353.929	6.61
354.299	6.12
354.669	6.04
355.038	6.48
355.408	6.33
355.777	6.37
356.147	6.01
356.516	6.47
356.885	6.38
357.254	6.3
357.624	6.34
357.993	6.18
358.362	6.6
358.731	6.06
359.1	6.08
359.469	6.3
359.838	6.42
360.207	6.43
360.576	6.44
360.945	5.95
361.314	6.27
361.682	6.41
362.051	6.01
362.42	6.42
362.788	6.54
363.157	6.28
363.525	5.98
363.894	6.35
364.262	6.29
364.631	6.48
364.999	6.63
365.367	6.42
365.735	6.48
366.104	6.34
366.472	6.27
366.84	6.64
367.208	6.34
367.576	6.21
367.944	6.76
368.312	6.16
368.68	6.49
369.048	6.46
369.416	6.59
369.783	6.57
370.151	6.72
370.519	6.54
370.886	6.63
371.254	7.07
371.621	6.76
371.989	6.37
372.356	6.53
372.724	6.69
373.091	6.51
373.458	6.17
373.826	6.3
374.193	6.38
374.56	6.42
374.927	6.5
375.294	6.39
375.661	6.72
376.028	6.52
376.395	6.81
376.762	6.59
377.129	6.58
377.496	6.51
377.863	7.05
378.229	6.93
378.596	6.46
378.963	6.4
379.329	6.91
379.696	6.71
380.062	6.77
380.429	6.48
380.795	6.21
381.161	6.64
381.528	6.76
381.894	6.78
382.26	7
382.626	6.97
382.993	6.87
383.359	6.77
383.725	6.73
384.091	6.51
384.457	6.96
384.823	6.88
385.188	7.05
385.554	6.8
385.92	6.5
386.286	6.93
386.651	6.46
387.017	7
387.383	6.79
387.748	6.25
388.114	6.57
388.479	6.78
388.845	6.82
389.21	6.72
389.575	6.27
389.94	6.79
390.306	6.6
390.671	6.65
391.036	6.71
391.401	7.04
391.766	7.11
392.131	6.89
392.496	6.75
392.861	6.81
393.226	6.83
393.591	6.96
393.956	6.9
394.32	7.05
394.685	6.79
395.05	7.24
395.414	7.09
395.779	6.7
396.143	6.79
396.508	6.89
396.872	6.97
397.236	6.82
397.601	6.95
397.965	6.81
398.329	6.83
398.694	7.03
399.058	6.73
399.422	6.75
399.786	6.82
400.15	6.7
400.514	6.77
400.878	7.02
401.242	7.07
401.605	7.1
401.969	6.88
402.333	6.79
402.697	6.96
403.06	6.96
403.424	7.05
403.787	6.91
404.151	6.88
404.514	7.23
404.878	6.99
405.241	7.06
405.604	6.99
405.968	7.05
406.331	6.95
406.694	6.97
407.057	6.84
407.42	7.19
407.783	7.23
408.146	7.07
408.509	6.78
408.872	7.09
409.235	7.04
409.598	7.01
409.961	7.1
410.323	7.04
410.686	6.84
411.049	7.05
411.411	7.16
411.774	7.25
412.136	7.05
412.499	7.07
412.861	7.06
413.223	7.13
413.586	7.29
413.948	7.11
414.31	7.55
414.672	7.25
415.035	7.12
415.397	7.05
415.759	7.19
416.121	7.24
416.483	7.24
416.845	7.18
417.206	7.2
417.568	7.19
417.93	7.05
418.292	7.01
418.653	7.41
419.015	7.13
419.377	7.18
419.738	7.12
420.1	7.08
420.461	7.07
420.822	6.92
421.184	7.04
421.545	7.15
421.906	7.08
422.267	7.14
422.629	7.17
422.99	6.94
423.351	7.02
423.712	7
424.073	7.04
424.434	7.02
424.795	7.15
425.155	7.11
425.516	7.03
425.877	7.25
426.238	7.03
426.598	7.17
426.959	7.11
427.32	7.05
427.68	7.19
428.041	7.14
428.401	7.11
428.761	7.17
429.122	7.32
429.482	7.2
429.842	7.26
430.202	7.34
430.563	7.23
430.923	7.29
431.283	7.28
431.643	7.23
432.003	7.49
432.363	7.27
432.722	7.17
433.082	7.32
433.442	7.21
433.802	7.37
434.161	7.15
434.521	7.26
434.881	7.38
435.24	7.32
435.6	7.3
435.959	7.29
436.319	7.31
436.678	7.51
437.037	7.42
437.396	7.43
437.756	7.37
438.115	7.23
438.474	7.5
438.833	7.42
439.192	7.31
439.551	7.21
439.91	7.52
440.269	7.43
440.628	7.44
440.987	7.47
441.345	7.27
441.704	7.43
442.063	7.38
442.421	7.27
442.78	7.35
443.138	7.49
443.497	7.52
443.855	7.25
444.214	7.34
444.572	7.26
444.93	7.53
445.288	7.48
445.647	7.59
446.005	7.38
446.363	7.4
446.721	7.46
447.079	7.42
447.437	7.51
447.795	7.34
448.153	7.33
448.51	7.41
448.868	7.27
449.226	7.33
449.584	7.35
449.941	7.3
450.299	7.41
450.656	7.42
451.014	7.43
451.371	7.41
451.729	7.39
452.086	7.5
452.443	7.62
452.801	7.45
453.158	7.63
453.515	7.41
453.872	7.7
454.229	7.69
454.586	7.67
454.943	7.54
455.3	7.41
455.657	7.55
456.014	7.6
456.371	7.57
456.727	7.81
457.084	7.72
457.441	7.62
457.797	7.55
458.154	7.45
458.51	7.64
458.867	7.67
459.223	7.7
459.58	7.52
459.936	7.7
460.292	7.65
460.648	7.56
461.005	7.46
461.361	7.69
461.717	7.44
462.073	7.51
462.429	7.49
462.785	7.54
463.141	7.68
463.496	7.6
463.852	7.76
464.208	7.71
464.564	7.8
464.919	7.67
465.275	7.81
465.631	7.79
465.986	7.84
466.342	7.9
466.697	7.78
467.052	7.8
467.408	7.75
467.763	7.97
468.118	8.08
468.473	7.91
468.829	7.6
469.184	7.66
469.539	7.87
469.894	7.9
470.249	7.86
470.603	7.68
470.958	7.9
471.313	7.93
471.668	7.92
472.023	7.81
472.377	7.78
472.732	7.62
473.086	7.88
473.441	7.94
473.795	8.02
474.15	7.79
474.504	7.81
474.859	7.8
475.213	7.91
475.567	7.92
475.921	7.73
476.275	7.75
476.63	8.13
476.984	7.94
477.338	7.75
477.692	7.84
478.045	7.83
478.399	7.95
478.753	7.87
479.107	7.89
479.461	7.9
479.814	8.04
480.168	7.94
480.521	7.91
480.875	7.95
481.228	7.98
481.582	7.96
481.935	7.81
482.289	7.81
482.642	7.8
482.995	7.83
483.348	7.74
483.701	7.82
484.055	7.83
484.408	7.75
484.761	7.71
485.114	7.61
485.466	7.5
485.819	7.48
486.172	7.38
486.525	7.38
486.878	7.4
487.23	7.5
487.583	7.55
487.936	7.69
488.288	7.63
488.641	7.79
488.993	7.7
489.345	7.64
489.698	7.53
490.05	7.55
490.402	7.54
490.754	7.53
491.107	7.54
491.459	7.7
491.811	7.73
492.163	7.8
492.515	7.83
492.866	7.93
493.218	7.72
493.57	7.62
493.922	7.63
494.274	7.65
494.625	7.63
494.977	7.72
495.328	7.82
495.68	7.89
496.031	7.85
496.383	8
496.734	7.83
497.086	7.87
497.437	8.02
497.788	7.86
498.139	8.21
498.49	7.91
498.842	7.86
499.193	7.93
499.544	7.94
499.894	8.01
500.245	7.85
500.596	8.02
500.947	8.04
501.298	8.03
501.648	8.06
501.999	7.92
502.35	8.1
502.7	8.17
503.051	7.97
503.401	8.05
503.752	8.2
504.102	8.16
504.452	7.92
504.803	8.07
505.153	8.17
505.503	7.91
505.853	8.24
506.203	7.98
506.553	7.89
506.903	8.18
507.253	8.06
507.603	8.1
507.953	8.15
508.303	8.09
508.652	8.26
509.002	8.16
509.352	8.12
509.701	8.04
510.051	8.13
510.4	8.04
510.75	7.99
511.099	7.98
511.449	8.11
511.798	8.09
512.147	7.98
512.496	8.02
512.846	8.03
513.195	7.97
513.544	8.12
513.893	7.96
514.242	8.03
514.591	8.1
514.939	8.03
515.288	7.95
515.637	8.07
515.986	7.99
516.334	8.09
516.683	8.1
517.032	8.01
517.38	8.09
517.729	8.23
518.077	8.24
518.426	8.13
518.774	8.06
519.122	8.16
519.47	8.05
519.819	8.08
520.167	7.98
520.515	7.95
520.863	8.03
521.211	8.02
521.559	8.03
521.907	8.04
522.255	8.05
522.602	8.24
522.95	8.11
523.298	8.09
523.645	8.11
523.993	8.07
524.341	8.17
524.688	8.19
525.036	8.15
525.383	8.06
525.73	8.33
526.078	8.24
526.425	8.18
526.772	8.08
527.119	8.13
527.466	8.15
527.814	8.05
528.161	8.04
528.508	7.98
528.854	7.9
529.201	7.97
529.548	7.97
529.895	8
530.242	7.88
530.588	7.76
530.935	7.76
531.282	7.8
531.628	7.79
531.975	7.78
532.321	7.89
532.667	7.97
533.014	7.94
533.36	8.07
533.706	8.1
534.052	8.19
534.399	8
534.745	7.91
535.091	7.98
535.437	8.01
535.783	7.99
536.129	8.01
536.474	8.09
536.82	8.14
537.166	8.08
537.512	8.15
537.857	8.15
538.203	8.19
538.549	8.19
538.894	8.1
539.239	8.06
539.585	8.07
539.93	8.19
540.276	8.28
540.621	8.2
540.966	8.19
541.311	8.25
541.656	8.21
542.001	8.34
542.346	8.28
542.691	8.09
543.036	8.11
543.381	8
543.726	7.96
544.071	7.98
544.415	7.97
544.76	8.01
545.105	8.09
545.449	8.07
545.794	8.12
546.138	8.13
546.483	8.13
546.827	8.21
547.171	8.31
547.516	8.16
547.86	8.22
548.204	8.13
548.548	8.19
548.892	8.07
549.236	8.29
549.58	8.1
549.924	8.15
550.268	8.33
550.612	8.32
550.956	8.45
551.3	8.32
551.643	8.38
551.987	8.49
552.33	8.2
552.674	8.39
553.017	8.42
553.361	8.42
553.704	8.52
554.048	8.34
554.391	8.54
554.734	8.35
555.077	8.23
555.42	8.34
555.764	8.38
556.107	8.52
556.45	8.14
556.793	8.25
557.135	8.31
557.478	8.27
557.821	8.56
558.164	8.45
558.507	8.44
558.849	8.36
559.192	8.4
559.534	8.52
559.877	8.28
560.219	8.51
560.562	8.66
560.904	8.38
561.246	8.49
561.589	8.23
561.931	8.3
562.273	8.46
562.615	8.48
562.957	8.39
563.299	8.4
563.641	8.62
563.983	8.35
564.325	8.31
564.667	8.27
565.008	8.44
565.35	8.54
565.692	8.38
566.033	8.37
566.375	8.54
566.716	8.59
567.058	8.43
567.399	8.46
567.741	8.4
568.082	8.53
568.423	8.46
568.764	8.4
569.105	8.6
569.447	8.31
569.788	8.39
570.129	8.37
570.47	8.55
570.811	8.53
571.151	8.5
571.492	8.52
571.833	8.58
572.174	8.51
572.514	8.36
572.855	8.59
573.195	8.7
573.536	8.32
573.876	8.61
574.217	8.24
574.557	8.4
574.898	8.48
575.238	8.41
575.578	8.55
575.918	8.34
576.258	8.55
576.598	8.62
576.938	8.5
577.278	8.5
577.618	8.21
577.958	8.32
578.298	8.39
578.638	8.57
578.977	8.57
579.317	8.42
579.657	8.39
579.996	8.49
580.336	8.5
580.675	8.6
581.014	8.6
581.354	8.45
581.693	8.47
582.032	8.58
582.372	8.6
582.711	8.74
583.05	8.84
583.389	8.57
583.728	8.67
584.067	8.57
584.406	8.46
584.745	8.61
585.083	8.47
585.422	8.59
585.761	8.52
586.1	8.64
586.438	8.15
586.777	8.79
587.115	8.88
587.454	8.67
587.792	8.62
588.13	8.72
588.469	8.52
588.807	8.15
589.145	8.53
589.483	8.61
589.821	8.74
590.159	8.78
590.497	8.66
590.835	8.57
591.173	8.75
591.511	8.67
591.849	8.68
592.187	8.67
592.524	8.26
592.862	8.63
593.2	8.85
593.537	8.39
593.875	8.46
594.212	8.77
594.55	8.8
594.887	8.75
595.224	8.74
595.561	8.43
595.899	8.49
596.236	8.61
596.573	8.74
596.91	8.63
597.247	8.52
597.584	8.55
597.921	8.76
598.258	8.82
598.594	8.96
598.931	8.64
599.268	8.42
599.604	8.47
599.941	8.58
600.277	8.52
600.614	8.55
600.95	8.48
601.287	8.54
601.623	8.8
601.959	8.56
602.296	8.61
602.632	8.88
602.968	8.51
603.304	8.95
603.64	8.59
603.976	8.99
604.312	8.89
604.648	8.59
604.984	8.86
605.319	8.61
605.655	8.53
605.991	8.56
606.326	8.54
606.662	8.53
606.998	8.39
607.333	8.73
607.668	8.43
608.004	8.85
608.339	8.62
608.674	8.72
609.01	8.76
609.345	8.8
609.68	8.65
610.015	8.72
610.35	8.75
610.685	8.88
611.02	8.62
611.355	8.42
611.689	8.57
612.024	8.91
612.359	8.78
612.694	8.69
613.028	8.74
613.363	8.7
613.697	8.67
614.032	8.84
614.366	8.56
614.7	8.8
615.035	8.69
615.369	8.97
615.703	8.48
616.037	8.99
616.371	8.77
616.705	8.78
617.039	8.67
617.373	8.9
617.707	9.12
618.041	8.91
618.375	8.6
618.709	8.62
619.042	8.86
619.376	9.05
619.71	8.78
620.043	8.99
620.377	8.87
620.71	8.95
621.043	9.24
621.377	8.61
621.71	8.8
622.043	9.11
622.376	8.87
622.709	9.03
623.043	8.75
623.376	8.57
623.709	8.87
624.041	8.76
624.374	8.83
624.707	8.79
625.04	8.81
625.373	9.15
625.705	8.68
626.038	9.28
626.37	8.9
626.703	8.77
627.035	8.97
627.368	8.86
627.7	9.07
628.032	8.67
628.365	9.3
628.697	8.96
629.029	8.97
629.361	8.8
629.693	8.81
630.025	8.99
630.357	8.94
630.689	8.79
631.021	9.44
631.353	9.18
631.684	8.9
632.016	9.05
632.348	9.03
632.679	8.65
633.011	9.24
633.342	8.73
633.674	8.82
634.005	9.28
634.336	9.44
634.668	8.82
634.999	9
635.33	8.87
635.661	9.23
635.992	9.16
636.323	9.4
636.654	9.23
636.985	8.99
637.316	9.22
637.647	8.93
637.977	8.68
638.308	8.78
638.639	8.67
638.969	9.34
639.3	8.54
639.63	8.86
639.961	9.06
640.291	9.21
640.622	8.84
640.952	9
641.282	8.77
641.612	9.07
641.943	9.25
642.273	8.98
642.603	9.21
642.933	8.89
643.263	9.36
643.592	8.61
643.922	9.29
644.252	8.94
644.582	8.94
644.911	9.61
645.241	9.31
645.571	9.26
645.9	9.18
646.23	9.48
646.559	8.9
646.888	9.34
647.218	9.1
647.547	8.93
647.876	8.98
648.205	9.6
648.534	8.94
648.863	9.32
649.192	8.95
649.521	9.3
649.85	9.56
650.179	8.96
650.508	9.15
650.837	9.3
651.165	9.55
651.494	8.8
651.822	9.28
652.151	9.48
652.479	9.41
652.808	9.37
653.136	9.03
653.465	9.1
653.793	9.02
654.121	9.32
654.449	9.27
654.777	9.55
655.105	9.4
655.433	10.11
655.761	8.81
656.089	9.37
656.417	9.35
656.745	9.26
657.073	9.47
657.4	10.02
657.728	10.1
658.056	9.7
658.383	9.1
658.711	9.42
659.038	9.17
659.365	9.69
659.693	9.34
660.02	9.78
660.347	9.6
660.674	9.61
661.001	9.21
661.329	9.57
661.656	9.57
661.982	8.94
662.309	9.51
662.636	9.62
662.963	9.13
663.29	9.55
663.616	9.61
663.943	9.55
664.27	9.15
664.596	8.9
664.923	9.32
665.249	9.7
665.576	9.44
665.902	9.83
666.228	9.85
666.554	9.91
666.881	8.99
667.207	9.93
667.533	9.34
667.859	9.76
668.185	9.57
668.511	9.81
668.837	10.3
669.162	9.9
669.488	10.03
669.814	8.92
670.139	10.1
670.465	9.5
670.791	10.21
671.116	9.62
671.442	9.6
671.767	9.64
672.092	10.06
672.418	9.54
672.743	9.47
673.068	10.26
673.393	9.88
673.718	9.31
674.043	9.72
674.368	9.8
674.693	10.22
675.018	10.29
675.343	9.55
675.667	9.36
675.992	9.52
676.317	9.91
676.641	10.09
676.966	9.95
677.29	10.13
677.615	9.7
677.939	9.92
678.264	9.77
678.588	9.81
678.912	9.88
679.236	9.96
679.56	9.69
679.885	9.88
680.209	10.13
680.532	9.39
680.856	10.16
681.18	10.39
681.504	10.28
681.828	9.9
682.152	9.89
682.475	9.69
682.799	9.82
683.122	10.26
683.446	10.09
683.769	9.9
684.093	10.13
684.416	9.73
684.739	9.83
685.062	9.65
685.386	9.56
685.709	10.21
686.032	9.96
686.355	10.32
686.678	9.76
687.001	10.31
687.324	9.2
687.646	10.08
687.969	9.89
688.292	10.23
688.614	10.2
688.937	10.03
689.26	9.64
689.582	10.65
689.904	9.79
690.227	10.46
690.549	10.52
690.871	10
691.194	10.37
691.516	9.97
691.838	10.81
692.16	9.89
692.482	9.52
692.804	10.24
693.126	10.19
693.448	11.68
693.769	10.23
694.091	9.35
694.413	10.18
694.735	10.1
695.056	9.5
695.378	10.3
695.699	10.5
696.021	9.97
696.342	10.98
696.663	10.74
696.984	10.17
697.306	10.31
697.627	10.29
697.948	10.03
698.269	10.07
698.59	10.01
698.911	10.4
699.232	9.73
699.553	10.6
699.873	10.12
700.194	10.93
700.515	9.88
700.835	10.32
701.156	10.32
701.477	9.74
701.797	9.98
702.117	10.15
702.438	10.28
702.758	10.29
703.078	10.43
703.398	10.51
703.719	10.25
704.039	10.62
704.359	10
704.679	10.39
704.999	10.59
705.319	10.07
705.638	10.22
705.958	10.5
706.278	10.41
706.597	10.38
706.917	10.37
707.237	10.63
707.556	9.48
707.876	9.82
708.195	10.98
708.514	10.54
708.834	11.48
709.153	10.79
709.472	10.18
709.791	11.18
710.11	11.13
710.429	10.71
710.748	11.4
711.067	10.08
711.386	11.13
711.705	10.71
712.023	11.14
712.342	11.05
712.661	10.95
712.979	10.56
713.298	10.43
713.616	9.92
713.935	10.63
714.253	10.59
714.572	11.24
714.89	10.74
715.208	11.21
715.526	11.12
715.844	10.81
716.162	11.01
716.48	10.62
716.798	10.53
717.116	11.24
717.434	10.62
717.752	10.64
718.069	10.95
718.387	10.61
718.705	10.26
719.022	10.93
719.34	10.62
719.657	10.95
719.975	9.88
720.292	11.02
720.609	10.64
720.927	10.73
721.244	10.72
721.561	11.97
721.878	10.41
722.195	10.9
722.512	12.24
722.829	10.4
723.146	11.6
723.463	9.94
723.779	11.63
724.096	9.37
724.413	10.36
724.729	10.9
725.046	13.06
725.362	11.97
725.679	10.95
725.995	12.19
726.311	12.76
726.628	11.65
726.944	11.97
727.26	10.45
727.576	11.93
727.892	10.92
728.208	12.39
728.524	11.47
728.84	10.78
729.156	13.32
729.472	10.23
729.787	10.97
730.103	11.12
730.419	11.01
730.734	10.39
731.05	11.26
731.365	8.42
731.681	10.86
731.996	11.25
732.311	11.43
732.626	11.34
732.942	10.77
733.257	11.19
733.572	11.7
733.887	11.09
734.202	11.17
734.517	11.08
734.832	11.3
735.146	12.01
735.461	11.6
735.776	11.91
736.091	10.34
736.405	10.42
736.72	12.76
737.034	11.57
737.349	11.43
737.663	12.75
737.977	11.14
738.292	10.71
738.606	10.55
738.92	11.29
739.234	11.71
739.548	10.53
739.862	11.4
740.176	10.74
740.49	10.74
740.804	12.52
741.117	12.5
741.431	11.7
741.745	11.69
742.058	10.56
742.372	11.9
742.685	10.82
742.999	11.51
743.312	13.2
743.626	12.14
743.939	12.42
744.252	12.71
744.565	13
744.878	13.01
745.191	13.01
745.505	11.26
745.817	14.38
746.13	12.58
746.443	12.65
746.756	14.09
747.069	12.41
747.381	11.95
747.694	11.88
748.007	11.75
748.319	13.08
748.632	9.64
748.944	12.84
749.256	14.09
749.569	9.51
749.881	12.84
750.193	12.73
750.505	10.64
750.817	13.65
751.129	10.63
751.441	10.67
751.753	10.44
752.065	12.28
752.377	11.93
752.689	13.48
753	13.11
753.312	11.52
753.624	9.54
753.935	13.1
754.247	11.59
754.558	13.76
754.869	14.24
755.181	10.54
755.492	11.2
755.803	11.46
756.114	12.67
756.425	13.19
756.736	14.13
757.047	11.98
757.358	12.42
757.669	10.99
757.98	11.4
758.291	12.52
758.601	12.24
758.912	13.59
759.223	9.76
759.533	14
759.844	13.52
760.154	13.44
760.464	13.08
760.775	12.58
761.085	12.59
761.395	13
761.705	10.75
762.016	15.16
762.326	13.9
762.636	13.48
762.945	11.77
763.255	12.7
763.565	12.42
763.875	13.7
764.185	13.49
764.494	13.51
764.804	13.33
765.113	12.45
765.423	11.63
765.732	13.23
766.042	11.97
766.351	13.66
766.66	11.81
766.97	12.33
767.279	11.89
767.588	10.48
767.897	10.45
768.206	12.33
768.515	13.04
768.824	12.31
769.133	13.03
769.441	13.46
769.75	13.24
770.059	13.21
770.367	14.31
770.676	14.52
770.984	11.81
771.293	10.89
771.601	11.37
771.91	10.18
772.218	12.06
772.526	14.79
772.834	14.3
773.142	11.29
773.45	13.67
773.758	12.93
774.066	14.7
774.374	10.3
774.682	13.6
774.99	14.96
775.298	7.3
775.605	13.81
775.913	13.85
776.22	10.33
776.528	11.61
776.835	12.09
777.143	9.2
777.45	14.18
777.757	13.32
778.065	11.87
778.372	15.91
778.679	16.32
778.986	16.46
779.293	11.31
779.6	15.32
779.907	13.62
780.214	12.04
780.52	15.2
780.827	10.93
781.134	13.2
781.44	15
781.747	16.64
782.053	14.92
782.36	15.18
782.666	12.92
782.973	12.69
783.279	10.11
783.585	13.23
783.891	13.41
784.197	12.92
784.503	13.18
784.809	11.19
785.115	12.5
785.421	15.16
785.727	14.3
786.033	15.36
786.339	16.68
786.644	17.56
786.95	16.01
787.255	12.59
787.561	12.99
787.866	10.99
788.172	14.8
788.477	13.85
788.782	12.22
789.088	17.4
789.393	10.39
789.698	11.7
790.003	14.13
790.308	15.15
790.613	13.42
790.918	16.54
791.223	11.79
791.527	11
791.832	14.91
792.137	16.28
792.441	11.21
792.746	14.96
793.05	12.43
793.355	15.07
793.659	12.07
793.963	14.73
794.268	14.22
794.572	12.69
794.876	15.23
795.18	12.59
795.484	14.36
795.788	14.03
796.092	7.95
796.396	11.7
796.7	14.4
797.004	14.05
797.307	10.22
797.611	16.84
797.915	9.27
798.218	10.48
798.522	12.09
798.825	17.29
799.128	17.2
799.432	10.34
799.735	12.57
800.038	12.52
800.341	10.88
800.644	19.56
800.947	12.94
801.25	15.04
801.553	18.62
801.856	15.61
802.159	12.31
802.462	12.82
802.764	9.82
803.067	15.9
803.37	13.51
803.672	13.2
803.975	13.07
804.277	10.23
804.579	10.86
804.882	12.47
805.184	14.89
805.486	16.38
805.788	17.7
806.09	14.86
806.392	14.71
806.694	13.87
806.996	17.69
807.298	16.99
807.6	20.85
807.902	12.25
808.203	15.55
808.505	21.54
808.807	11.42
809.108	9.3
809.409	14.54
809.711	9.63
810.012	11.11
810.313	10.86
810.615	6.39
810.916	17.79
811.217	12.9
811.518	8.57
811.819	16.22
812.12	15.96
812.421	13.13
812.722	10.67
813.023	16.65
813.323	6.47
813.624	14.3
813.925	12.65
814.225	14.43
814.526	17.21
814.826	13.79
815.126	18.84
815.427	18.06
815.727	25.07
816.027	12.78
816.327	15.22
816.627	21.23
816.927	12.12
817.227	16.17
817.527	12.76
817.827	12.27
818.127	11.78
818.427	13.78
818.727	12.75
819.026	12.66
819.326	22.96
819.625	10.33
819.925	18.17
820.224	20.21
820.524	13.51
820.823	10.39
821.122	12.95
821.421	15.14
821.72	21.89
822.019	18.31
822.318	12.92
822.617	9.27
822.916	14.1
823.215	12.73
823.514	14.21
823.813	15.86
824.111	16.52
824.41	13.75
824.709	17.73
825.007	15.68
825.306	15.75
825.604	14.56
825.902	15.27
826.201	15.37
826.499	15.31
826.797	15.04
827.095	14.51
827.393	13.97
827.691	16.21
827.989	14.31
828.287	14.94
828.585	15.58
828.882	15.1
829.18	15.99
829.478	15.78
829.775	17.19
830.073	15.53
830.37	15.1
830.668	15.3
830.965	14.67
831.263	14.23
831.56	15.73
831.857	14.36
832.154	14.28
832.451	17.43
832.748	17.25
833.045	12.21
833.342	20.02
833.639	17.32
833.936	15.28
834.232	11.57
834.529	14.62
834.826	11.4
835.122	14.22
835.419	16.99
835.715	11.32
836.012	20.33
836.308	14.68
836.604	17.23
836.901	14.51
837.197	16.89
837.493	14.42
837.789	17.64
838.085	12.95
838.381	14.06
838.677	11.67
838.972	18.55
839.268	12.66
839.564	21.45
839.86	17.27
840.155	18.98
840.451	11.47
840.746	22.75
841.042	20.23
841.337	7.02
841.632	12.24
841.928	16.49
842.223	22.72
842.518	13.23
842.813	10.33
843.108	14.94
843.403	11
843.698	18.54
843.993	19.61
844.287	16.62
844.582	23.68
844.877	17.82
845.171	20.17
845.466	17.03
845.761	14.02
846.055	24.03
846.349	23.96
846.644	24.62
846.938	27.85
847.232	9.65
847.526	25.33
847.82	7.55
848.114	23.46
848.408	19.1
848.702	-0.42
848.996	24.99
849.29	17.97
849.584	5.17
849.877	35.52
850.171	30.52
850.465	11.2
850.758	1.83
851.052	11.43
851.345	17.43
851.638	8.34
851.932	11.27
852.225	31.33
852.518	29.17
852.811	31.95
853.104	50.78
853.397	18.7
853.69	15.86
853.983	26.07
854.276	14.05
854.569	19.75
854.861	5.92
855.154	47.9
855.447	5.3
855.739	26.47
856.032	18.16
856.324	6.35
856.616	5.44
856.909	19.87
857.201	23.38
857.493	30.97
857.785	4.77
858.077	20.31
858.369	10.41
858.661	14.86
858.953	10.68
859.245	-14.79
859.537	14.87
859.829	39.77
860.12	12.61
860.412	52.7
860.703	16.82
860.995	20.6
861.286	41.26
861.578	20.51
861.869	-7.45
862.16	5.64
862.452	6.55
862.743	18.05
863.034	5.24
863.325	31.95
863.616	0.21
863.907	20.96
864.198	8.81
864.488	11.57
864.779	13.41
865.07	21.03
865.36	18.36
865.651	12.68
865.941	19.27
866.232	27.75
866.522	18.79
866.813	13.42
867.103	0.63
867.393	34.79
867.683	18.4
867.973	37.17
868.263	15.89
868.553	22.22
868.843	15
869.133	29.91
869.423	10.19
869.713	1.67
870.002	11.49
870.292	24.13
870.582	24.43
870.871	14
871.161	3.45
871.45	32.53
871.739	8.5
872.029	7.78
872.318	29.4
872.607	31.38
872.896	17.77
873.185	24.88
873.474	19.78
873.763	39.64
874.052	12.83
874.341	21.67
874.63	8.83
874.918	2.52
875.207	13.97
875.496	5.81
875.784	22.3
876.073	1.88
876.361	13.77
876.649	6.99
876.938	13.9
877.226	30.41
877.514	17.29
877.802	12.59
878.09	18.2
878.378	26.31
878.666	-0.96
878.954	28.72
879.242	15.23
879.53	14.84
879.817	26.42
880.105	2.15
880.392	33.09
880.68	36.91
880.967	34.26
881.255	32.91
881.542	32.18
881.83	0.15
882.117	29.55
882.404	20.64
882.691	28.76
882.978	33.57
883.265	12.26
883.552	13.24
883.839	14.15
884.126	7.81
884.413	13.54
884.699	24.59
884.986	37.3
885.273	18.17
885.559	18.17
885.846	18.17
