Data from 0205_chest_Reflection__0__278.txt Node

Date: Fri Dec 15 18:45:55 CST 2023
User: ToomeyLab
Spectrometer: FLMS14357
Trigger mode: 0
Integration Time (sec): 1.000000E-2
Scans to average: 100
Electric dark correction enabled: true
Nonlinearity correction enabled: false
Boxcar width: 0
XAxis mode: Wavelengths
Number of Pixels in Spectrum: 2048
>>>>>Begin Spectral Data<<<<<
189.047	-158.73
189.435	-158.73
189.823	-158.73
190.211	60.76
190.599	-178.21
190.987	109.73
191.375	-189.36
191.763	1.19
192.151	60.08
192.538	97.62
192.926	-86.12
193.314	5397.33
193.702	84.32
194.089	39.12
194.477	79.16
194.864	211.12
195.252	73.82
195.639	90.2
196.027	163.37
196.414	-3525.2
196.801	-2.35
197.189	151.22
197.576	187.52
197.963	-132.67
198.351	-102.79
198.738	-61.15
199.125	10.27
199.512	-1.2
199.899	13.48
200.286	-44.75
200.673	-20.76
201.06	-63.58
201.447	-14.58
201.833	-7.77
202.22	26.25
202.607	7.74
202.994	-24.47
203.38	-26.54
203.767	11.47
204.154	-14.22
204.54	-3.63
204.927	-41.18
205.313	-105.18
205.699	15.32
206.086	43.71
206.472	26.23
206.858	20.42
207.245	-34.28
207.631	3.76
208.017	16.49
208.403	-45.28
208.789	48.6
209.175	33.94
209.561	-56.44
209.947	1.87
210.333	-92.17
210.719	44.38
211.105	10.54
211.491	-22.39
211.876	24.21
212.262	-26.27
212.648	-11.3
213.034	-1.03
213.419	-27.13
213.805	5.64
214.19	-24.77
214.576	-3.37
214.961	-52.03
215.346	-136.09
215.732	2.17
216.117	7.84
216.502	-15.8
216.888	-37.85
217.273	23.22
217.658	14.34
218.043	17.98
218.428	-151.21
218.813	-33.11
219.198	-47.14
219.583	-19.15
219.968	-2.01
220.353	-21
220.738	19.13
221.122	-26.73
221.507	-35.76
221.892	-46.58
222.276	-22.47
222.661	-0.67
223.046	-3.79
223.43	19.1
223.815	-6.68
224.199	-11.31
224.583	0.05
224.968	8.92
225.352	0.62
225.736	-2.08
226.121	-17.33
226.505	5.46
226.889	11.12
227.273	-3.78
227.657	10.84
228.041	2.23
228.425	-0.18
228.809	5.72
229.193	2.44
229.577	2.14
229.961	3.46
230.344	3.46
230.728	3.81
231.112	5.42
231.495	3.2
231.879	3.51
232.263	4.87
232.646	4.49
233.03	3.96
233.413	1.34
233.797	4.86
234.18	3.79
234.563	4.51
234.946	1.51
235.33	5.24
235.713	5.27
236.096	3.64
236.479	4.29
236.862	4.36
237.245	4.18
237.628	3.04
238.011	3.4
238.394	4.9
238.777	3.68
239.16	2.57
239.543	4.62
239.925	4.99
240.308	5.31
240.691	4.4
241.073	4.07
241.456	2.94
241.838	2.45
242.221	3.25
242.603	5.01
242.986	3.93
243.368	4.6
243.75	4.43
244.133	3.82
244.515	4.42
244.897	4.1
245.279	4.33
245.661	4.16
246.043	3.86
246.425	3.81
246.807	5.12
247.189	5.03
247.571	4.46
247.953	4.3
248.335	3.96
248.717	4.3
249.098	4.1
249.48	3.98
249.862	3.87
250.243	4.07
250.625	4.22
251.006	4.01
251.388	2.14
251.769	3.32
252.151	3.74
252.532	3.72
252.913	3.63
253.295	3.04
253.676	3.54
254.057	4.08
254.438	3.53
254.819	3.41
255.2	3.88
255.581	3.58
255.962	2.62
256.343	4.42
256.724	3.19
257.105	3.55
257.486	3.19
257.867	3.07
258.247	3.97
258.628	3.11
259.009	3.59
259.389	3.29
259.77	3.41
260.15	3.21
260.531	3
260.911	3.92
261.292	3.74
261.672	4.04
262.052	3.86
262.432	4.03
262.813	3.9
263.193	3.76
263.573	3.05
263.953	3.23
264.333	4.1
264.713	3.68
265.093	3.92
265.473	3.53
265.853	3.13
266.233	3.93
266.612	1.48
266.992	2.59
267.372	3.31
267.752	3.34
268.131	2.78
268.511	4.04
268.89	4.07
269.27	3.41
269.649	3.79
270.029	3.5
270.408	4.76
270.787	3.39
271.167	4.65
271.546	3.69
271.925	2.97
272.304	3.12
272.683	4.29
273.062	3.75
273.441	3.95
273.82	3.24
274.199	3.54
274.578	3.71
274.957	3.95
275.336	3.72
275.715	3.44
276.093	3.23
276.472	3.45
276.851	3.29
277.229	2.91
277.608	2.79
277.986	3.21
278.365	3.7
278.743	3.2
279.122	3.12
279.5	3.13
279.878	3.35
280.257	3.21
280.635	2.32
281.013	2.88
281.391	4.17
281.769	3.2
282.147	3.97
282.525	4.21
282.903	2.92
283.281	3.91
283.659	3.65
284.037	3.34
284.415	3.33
284.792	3.49
285.17	3.4
285.548	3.19
285.925	3.45
286.303	3.43
286.68	3.06
287.058	3.61
287.435	3.48
287.813	3.55
288.19	3.34
288.567	3.04
288.945	3.44
289.322	3.41
289.699	3.24
290.076	3.43
290.453	3.47
290.83	2.96
291.207	3.63
291.584	3.36
291.961	3.88
292.338	3.59
292.715	3.76
293.092	3.62
293.469	3.13
293.845	4.04
294.222	3.3
294.599	3.33
294.975	3.27
295.352	3.39
295.728	3.06
296.105	2.98
296.481	3.79
296.858	3.66
297.234	3.31
297.61	3.54
297.986	3.5
298.363	3.84
298.739	3.43
299.115	3.05
299.491	3.25
299.867	3.21
300.243	3.51
300.619	2.79
300.995	3.15
301.371	3.2
301.746	3.34
302.122	3.27
302.498	3.97
302.874	3.61
303.249	3.66
303.625	3.39
304	3.76
304.376	2.91
304.751	3.1
305.127	4.19
305.502	3.09
305.878	2.93
306.253	2.88
306.628	3.64
307.003	3.29
307.378	3.94
307.754	3.26
308.129	2.61
308.504	3.43
308.879	3.48
309.254	4.29
309.629	3.44
310.003	3.13
310.378	3.49
310.753	3.41
311.128	3.36
311.502	3.34
311.877	3.91
312.252	3.01
312.626	3.39
313.001	2.94
313.375	4.07
313.75	3.4
314.124	3.52
314.498	3.26
314.873	3.38
315.247	3.17
315.621	3.55
315.995	2.38
316.369	3.01
316.743	3.55
317.117	3.54
317.491	3.26
317.865	3.22
318.239	3.13
318.613	3.26
318.987	4.16
319.361	2.53
319.734	3.8
320.108	3.3
320.482	2.93
320.855	3.4
321.229	3.72
321.602	3.12
321.976	4.08
322.349	3.43
322.723	3.11
323.096	4.34
323.469	2.95
323.843	3.44
324.216	3.94
324.589	2.83
324.962	3.94
325.335	3.64
325.708	3.04
326.081	3.16
326.454	3.51
326.827	3.04
327.2	3.87
327.573	3.75
327.945	3.53
328.318	3.34
328.691	3.02
329.063	3.49
329.436	2.81
329.809	4.32
330.181	3.04
330.553	3.83
330.926	3.34
331.298	3.61
331.671	3.43
332.043	3.9
332.415	3.38
332.787	3.27
333.159	3.49
333.532	3.8
333.904	2.98
334.276	3.28
334.648	3.47
335.02	3.78
335.391	3.39
335.763	2.89
336.135	2.94
336.507	4.37
336.879	3.74
337.25	3.5
337.622	2.88
337.993	3.35
338.365	3.62
338.736	3.38
339.108	3.76
339.479	3.63
339.851	3.91
340.222	3.05
340.593	3.72
340.964	3.11
341.336	3.9
341.707	3.36
342.078	3.58
342.449	3.63
342.82	3.52
343.191	3.22
343.562	3.66
343.933	3.61
344.303	3.46
344.674	3.76
345.045	3.41
345.416	4.24
345.786	3.59
346.157	3.58
346.527	2.95
346.898	3.33
347.268	3.67
347.639	3.32
348.009	4.21
348.38	2.99
348.75	3.76
349.12	3.31
349.49	3.98
349.861	3.74
350.231	3.33
350.601	3.59
350.971	3.71
351.341	3.72
351.711	3.6
352.081	3.62
352.45	3.28
352.82	3.75
353.19	3.6
353.56	3.21
353.929	4
354.299	3.79
354.669	3.99
355.038	3.92
355.408	3.48
355.777	3.26
356.147	3.58
356.516	3.35
356.885	3.63
357.254	3.6
357.624	3.92
357.993	3.65
358.362	3.14
358.731	3.32
359.1	3.5
359.469	3.82
359.838	3.81
360.207	3.61
360.576	3.48
360.945	3.42
361.314	3.88
361.682	3.44
362.051	3.55
362.42	3.86
362.788	3.57
363.157	3.9
363.525	4.02
363.894	3.65
364.262	3.6
364.631	3.63
364.999	3.56
365.367	3.17
365.735	4.2
366.104	3.63
366.472	3.77
366.84	3.4
367.208	3.7
367.576	3.63
367.944	3.69
368.312	3.62
368.68	3.39
369.048	3.73
369.416	3.53
369.783	3.35
370.151	3.79
370.519	4.06
370.886	3.7
371.254	3.69
371.621	3.65
371.989	3.98
372.356	3.52
372.724	3.83
373.091	3.57
373.458	3.21
373.826	3.72
374.193	3.71
374.56	3.8
374.927	4.06
375.294	3.66
375.661	3.52
376.028	3.93
376.395	3.44
376.762	3.41
377.129	3.54
377.496	3.64
377.863	3.82
378.229	3.36
378.596	3.68
378.963	3.61
379.329	3.6
379.696	3.91
380.062	3.73
380.429	3.73
380.795	3.77
381.161	3.78
381.528	4.05
381.894	3.75
382.26	3.69
382.626	4.1
382.993	3.41
383.359	4.07
383.725	3.75
384.091	3.79
384.457	4.1
384.823	3.82
385.188	3.77
385.554	3.91
385.92	3.99
386.286	3.88
386.651	4.05
387.017	4.23
387.383	3.9
387.748	3.55
388.114	3.95
388.479	3.92
388.845	4.21
389.21	4.05
389.575	3.6
389.94	4.1
390.306	3.99
390.671	4.1
391.036	3.62
391.401	3.7
391.766	3.92
392.131	3.84
392.496	4.01
392.861	3.94
393.226	4.18
393.591	4.05
393.956	3.84
394.32	3.92
394.685	3.8
395.05	3.67
395.414	3.77
395.779	3.54
396.143	3.97
396.508	4.03
396.872	3.91
397.236	3.8
397.601	3.78
397.965	3.93
398.329	4.11
398.694	4.27
399.058	4
399.422	3.56
399.786	4.32
400.15	3.87
400.514	3.88
400.878	3.83
401.242	4.23
401.605	4.07
401.969	4
402.333	4.22
402.697	4.07
403.06	4.03
403.424	4.31
403.787	3.94
404.151	3.94
404.514	4.06
404.878	3.84
405.241	4.24
405.604	4.07
405.968	4.18
406.331	3.96
406.694	4.11
407.057	3.9
407.42	4.25
407.783	3.97
408.146	4.08
408.509	4.1
408.872	3.84
409.235	4.26
409.598	4.1
409.961	3.89
410.323	4.09
410.686	4
411.049	3.97
411.411	3.83
411.774	3.91
412.136	4.05
412.499	4.05
412.861	3.89
413.223	3.99
413.586	4.18
413.948	3.99
414.31	4.12
414.672	4.04
415.035	3.94
415.397	4.37
415.759	3.76
416.121	4.33
416.483	3.96
416.845	3.91
417.206	3.98
417.568	4.24
417.93	4
418.292	3.99
418.653	4.26
419.015	3.93
419.377	4.04
419.738	4.12
420.1	4.11
420.461	4.17
420.822	3.99
421.184	4.01
421.545	4
421.906	3.92
422.267	4.09
422.629	3.97
422.99	4.03
423.351	4
423.712	3.99
424.073	4.03
424.434	3.9
424.795	4.04
425.155	4.1
425.516	3.97
425.877	4
426.238	3.89
426.598	4.07
426.959	4.06
427.32	4
427.68	3.97
428.041	4.02
428.401	4.17
428.761	4.13
429.122	4.14
429.482	4.01
429.842	4.1
430.202	4.23
430.563	4.04
430.923	4.01
431.283	4.21
431.643	4.06
432.003	4.01
432.363	4.18
432.722	4.2
433.082	4.11
433.442	4.14
433.802	4.03
434.161	4.18
434.521	4.32
434.881	4.37
435.24	4.06
435.6	4.09
435.959	4.06
436.319	4.12
436.678	3.95
437.037	4.04
437.396	4.24
437.756	4.28
438.115	4.15
438.474	4.29
438.833	3.94
439.192	3.99
439.551	4.28
439.91	4.1
440.269	4.23
440.628	4.08
440.987	4.22
441.345	4.12
441.704	4.28
442.063	4.01
442.421	4.08
442.78	4.22
443.138	4.15
443.497	4.08
443.855	4.08
444.214	4.15
444.572	4.34
444.93	4.09
445.288	4.21
445.647	4.3
446.005	4.14
446.363	4.26
446.721	4.24
447.079	3.95
447.437	4.15
447.795	4.24
448.153	4.07
448.51	4.2
448.868	4.09
449.226	4.18
449.584	4.16
449.941	4.18
450.299	4.2
450.656	4.2
451.014	4.28
451.371	4.15
451.729	4.19
452.086	4.36
452.443	4.17
452.801	4.18
453.158	4.32
453.515	4.18
453.872	4.33
454.229	4.23
454.586	4.13
454.943	4.35
455.3	4.27
455.657	4.11
456.014	4.25
456.371	4.15
456.727	4.21
457.084	4.28
457.441	4.31
457.797	4.35
458.154	4.35
458.51	4.35
458.867	4.22
459.223	4.07
459.58	4.37
459.936	4.3
460.292	4.23
460.648	4.18
461.005	4.32
461.361	4.34
461.717	4.15
462.073	4.13
462.429	4.18
462.785	4.24
463.141	4.15
463.496	4.21
463.852	4.34
464.208	4.27
464.564	4.31
464.919	4.37
465.275	4.34
465.631	4.43
465.986	4.25
466.342	4.2
466.697	4.14
467.052	4.26
467.408	4.45
467.763	4.29
468.118	4.41
468.473	4.21
468.829	4.28
469.184	4.17
469.539	4.32
469.894	4.24
470.249	4.5
470.603	4.56
470.958	4.34
471.313	4.35
471.668	4.22
472.023	4.44
472.377	4.2
472.732	4.22
473.086	4.07
473.441	4.19
473.795	4.56
474.15	4.23
474.504	4.22
474.859	4.45
475.213	4.28
475.567	4.43
475.921	4.39
476.275	4.32
476.63	4.36
476.984	4.45
477.338	4.57
477.692	4.36
478.045	4.17
478.399	4.36
478.753	4.36
479.107	4.32
479.461	4.32
479.814	4.33
480.168	4.4
480.521	4.2
480.875	4.25
481.228	4.33
481.582	4.45
481.935	4.3
482.289	4.32
482.642	4.32
482.995	4.23
483.348	4.3
483.701	4.33
484.055	4.46
484.408	4.36
484.761	4.23
485.114	4.33
485.466	4.2
485.819	4.13
486.172	4.15
486.525	4.15
486.878	4.16
487.23	4.17
487.583	4.26
487.936	4.29
488.288	4.24
488.641	4.3
488.993	4.24
489.345	4.26
489.698	4.22
490.05	4.23
490.402	4.27
490.754	4.19
491.107	4.31
491.459	4.29
491.811	4.32
492.163	4.35
492.515	4.4
492.866	4.36
493.218	4.38
493.57	4.3
493.922	4.28
494.274	4.29
494.625	4.34
494.977	4.4
495.328	4.46
495.68	4.44
496.031	4.45
496.383	4.41
496.734	4.57
497.086	4.56
497.437	4.53
497.788	4.48
498.139	4.31
498.49	4.5
498.842	4.44
499.193	4.4
499.544	4.52
499.894	4.4
500.245	4.38
500.596	4.45
500.947	4.54
501.298	4.5
501.648	4.62
501.999	4.62
502.35	4.51
502.7	4.69
503.051	4.4
503.401	4.5
503.752	4.65
504.102	4.52
504.452	4.63
504.803	4.43
505.153	4.53
505.503	4.56
505.853	4.61
506.203	4.57
506.553	4.56
506.903	4.5
507.253	4.58
507.603	4.55
507.953	4.71
508.303	4.64
508.652	4.55
509.002	4.66
509.352	4.72
509.701	4.55
510.051	4.52
510.4	4.49
510.75	4.56
511.099	4.53
511.449	4.52
511.798	4.51
512.147	4.55
512.496	4.58
512.846	4.57
513.195	4.62
513.544	4.61
513.893	4.66
514.242	4.61
514.591	4.75
514.939	4.69
515.288	4.49
515.637	4.58
515.986	4.8
516.334	4.69
516.683	4.69
517.032	4.55
517.38	4.74
517.729	4.74
518.077	4.61
518.426	4.71
518.774	4.68
519.122	4.64
519.47	4.7
519.819	4.6
520.167	4.6
520.515	4.6
520.863	4.72
521.211	4.72
521.559	4.62
521.907	4.69
522.255	4.61
522.602	4.7
522.95	4.67
523.298	4.64
523.645	4.81
523.993	4.64
524.341	4.95
524.688	4.82
525.036	4.76
525.383	4.72
525.73	4.89
526.078	4.84
526.425	4.71
526.772	4.86
527.119	4.66
527.466	4.75
527.814	4.75
528.161	4.82
528.508	4.86
528.854	4.69
529.201	4.71
529.548	4.67
529.895	4.69
530.242	4.63
530.588	4.62
530.935	4.61
531.282	4.58
531.628	4.66
531.975	4.68
532.321	4.73
532.667	4.82
533.014	4.79
533.36	4.81
533.706	4.74
534.052	4.8
534.399	4.75
534.745	4.78
535.091	4.84
535.437	4.77
535.783	4.79
536.129	4.83
536.474	4.82
536.82	4.88
537.166	4.98
537.512	4.96
537.857	4.92
538.203	4.96
538.549	4.89
538.894	4.95
539.239	5
539.585	4.9
539.93	4.86
540.276	5.16
540.621	5.05
540.966	5.03
541.311	4.91
541.656	4.95
542.001	5.01
542.346	5.23
542.691	4.96
543.036	4.92
543.381	4.86
543.726	4.84
544.071	4.92
544.415	4.99
544.76	4.99
545.105	5.06
545.449	4.99
545.794	5.1
546.138	5.07
546.483	5.16
546.827	5.09
547.171	5.09
547.516	5.22
547.86	5.04
548.204	5.09
548.548	5.15
548.892	5.24
549.236	5.19
549.58	5.17
549.924	5.24
550.268	5.3
550.612	5.21
550.956	5.39
551.3	5.29
551.643	5.31
551.987	5.38
552.33	5.28
552.674	5.41
553.017	5.25
553.361	5.2
553.704	5.57
554.048	5.29
554.391	5.31
554.734	5.31
555.077	5.38
555.42	5.29
555.764	5.38
556.107	5.21
556.45	5.28
556.793	5.5
557.135	5.5
557.478	5.5
557.821	5.57
558.164	5.37
558.507	5.49
558.849	5.32
559.192	5.58
559.534	5.55
559.877	5.72
560.219	5.56
560.562	5.61
560.904	5.53
561.246	5.43
561.589	5.57
561.931	5.63
562.273	5.48
562.615	5.71
562.957	5.66
563.299	5.4
563.641	5.68
563.983	5.61
564.325	5.72
564.667	5.59
565.008	5.59
565.35	5.91
565.692	5.44
566.033	5.79
566.375	5.82
566.716	5.89
567.058	5.78
567.399	5.66
567.741	5.71
568.082	5.85
568.423	5.83
568.764	5.83
569.105	5.84
569.447	5.88
569.788	5.85
570.129	6.03
570.47	5.93
570.811	5.88
571.151	5.85
571.492	5.99
571.833	5.98
572.174	5.96
572.514	6.15
572.855	5.97
573.195	5.94
573.536	6.01
573.876	5.86
574.217	5.94
574.557	6.23
574.898	6.31
575.238	6.15
575.578	5.94
575.918	6.38
576.258	6.06
576.598	6.38
576.938	6.15
577.278	6.21
577.618	6.06
577.958	6.13
578.298	6.13
578.638	6.03
578.977	6.05
579.317	6.09
579.657	6.39
579.996	6.2
580.336	6.28
580.675	6.29
581.014	6.49
581.354	6.47
581.693	6.51
582.032	6.42
582.372	6.41
582.711	6.52
583.05	6.38
583.389	6.62
583.728	6.41
584.067	6.54
584.406	6.83
584.745	6.73
585.083	6.84
585.422	6.7
585.761	6.98
586.1	6.9
586.438	6.42
586.777	6.97
587.115	6.59
587.454	6.77
587.792	6.67
588.13	7.03
588.469	6.72
588.807	7
589.145	6.6
589.483	6.85
589.821	6.76
590.159	6.87
590.497	7.16
590.835	7.21
591.173	6.8
591.511	7.12
591.849	7
592.187	6.97
592.524	6.98
592.862	6.99
593.2	7.15
593.537	7.08
593.875	7.15
594.212	6.78
594.55	6.79
594.887	7.53
595.224	7.19
595.561	7.25
595.899	7.3
596.236	7.25
596.573	7.6
596.91	6.87
597.247	7.12
597.584	7.44
597.921	7.32
598.258	7.05
598.594	7.36
598.931	7.17
599.268	7.43
599.604	7.31
599.941	7.36
600.277	7.37
600.614	7.22
600.95	7.24
601.287	7.33
601.623	7.65
601.959	7.38
602.296	7.57
602.632	7.53
602.968	7.63
603.304	7.72
603.64	7.8
603.976	7.94
604.312	7.67
604.648	7.58
604.984	7.68
605.319	7.68
605.655	7.71
605.991	7.7
606.326	7.87
606.662	7.75
606.998	7.59
607.333	7.74
607.668	7.85
608.004	7.81
608.339	7.99
608.674	7.99
609.01	7.85
609.345	7.88
609.68	8.02
610.015	7.7
610.35	8.08
610.685	8.19
611.02	8.04
611.355	8.09
611.689	8
612.024	8.23
612.359	8.02
612.694	7.99
613.028	7.93
613.363	8.52
613.697	8.32
614.032	8.44
614.366	8.36
614.7	8.08
615.035	8.4
615.369	8.24
615.703	8.2
616.037	8.39
616.371	7.83
616.705	8.56
617.039	8.19
617.373	8.29
617.707	8.49
618.041	8.56
618.375	8.65
618.709	8.41
619.042	8.57
619.376	8.86
619.71	8.83
620.043	8.75
620.377	8.66
620.71	8.72
621.043	8.75
621.377	8.91
621.71	8.72
622.043	8.33
622.376	8.61
622.709	8.54
623.043	9.11
623.376	9.01
623.709	8.54
624.041	9.33
624.374	9.05
624.707	8.71
625.04	9.14
625.373	8.65
625.705	8.97
626.038	8.81
626.37	8.82
626.703	9.01
627.035	8.9
627.368	9.32
627.7	8.99
628.032	9.43
628.365	9.25
628.697	9.37
629.029	9.14
629.361	9.25
629.693	9.52
630.025	9.09
630.357	9.55
630.689	9.43
631.021	9.16
631.353	9.58
631.684	9.28
632.016	9.23
632.348	9.44
632.679	9.65
633.011	9.94
633.342	9.84
633.674	9.47
634.005	9.87
634.336	9.59
634.668	9.99
634.999	9.69
635.33	9.87
635.661	9.94
635.992	9.67
636.323	9.78
636.654	9.98
636.985	9.81
637.316	9.4
637.647	9.4
637.977	9.91
638.308	10
638.639	9.65
638.969	9.96
639.3	9.99
639.63	9.56
639.961	9.75
640.291	10.21
640.622	10.3
640.952	10.13
641.282	10.42
641.612	10.13
641.943	10.04
642.273	10.37
642.603	10.55
642.933	10.98
643.263	10.39
643.592	9.94
643.922	10.34
644.252	10.24
644.582	10.3
644.911	10.11
645.241	10.85
645.571	10.28
645.9	9.94
646.23	10.49
646.559	10.88
646.888	10.38
647.218	10.29
647.547	10.49
647.876	10.69
648.205	10.52
648.534	10.71
648.863	10.38
649.192	10.78
649.521	10.61
649.85	10.67
650.179	11.05
650.508	10.45
650.837	10.74
651.165	10.47
651.494	11.24
651.822	11.43
652.151	10.84
652.479	10.95
652.808	11.18
653.136	11.14
653.465	10.45
653.793	10.65
654.121	10.79
654.449	11.21
654.777	11.1
655.105	11.1
655.433	10.83
655.761	11.01
656.089	11.54
656.417	11.67
656.745	11.15
657.073	11.49
657.4	11.95
657.728	11.32
658.056	11.86
658.383	11.44
658.711	11.56
659.038	12.24
659.365	11.94
659.693	11.59
660.02	10.91
660.347	11.91
660.674	11.27
661.001	11.48
661.329	11.29
661.656	11.59
661.982	12.04
662.309	11.71
662.636	11.41
662.963	12.3
663.29	12.13
663.616	11.61
663.943	11.69
664.27	11.97
664.596	11.95
664.923	11.96
665.249	12.33
665.576	11.63
665.902	12.55
666.228	12.26
666.554	12.48
666.881	12.08
667.207	12.41
667.533	11.76
667.859	12.45
668.185	12.6
668.511	11.61
668.837	11.58
669.162	12.42
669.488	11.55
669.814	12.34
670.139	12.59
670.465	12.28
670.791	12.85
671.116	13.39
671.442	12.06
671.767	12.98
672.092	12.58
672.418	12.58
672.743	13.08
673.068	12.36
673.393	13.08
673.718	12.73
674.043	12.68
674.368	12.29
674.693	13.28
675.018	12.88
675.343	12.78
675.667	12.33
675.992	12.91
676.317	13.13
676.641	13.34
676.966	12.97
677.29	12.52
677.615	13.09
677.939	13.11
678.264	13.62
678.588	13.52
678.912	13.23
679.236	13.49
679.56	12.34
679.885	13.32
680.209	13
680.532	12.83
680.856	13.8
681.18	13.16
681.504	13.74
681.828	13.24
682.152	13.15
682.475	13.38
682.799	14.13
683.122	13.66
683.446	12.97
683.769	13.71
684.093	13.2
684.416	14.09
684.739	13.66
685.062	13.19
685.386	14.16
685.709	13.63
686.032	14.02
686.355	13.9
686.678	13.06
687.001	14.35
687.324	13.95
687.646	13.33
687.969	13.58
688.292	13.39
688.614	13.62
688.937	14.43
689.26	13.52
689.582	14.4
689.904	14.18
690.227	14.18
690.549	14.23
690.871	14.47
691.194	14.17
691.516	14.58
691.838	14.43
692.16	14.02
692.482	14.25
692.804	14.7
693.126	14
693.448	14.66
693.769	15.32
694.091	14.25
694.413	15.07
694.735	14.86
695.056	14.22
695.378	14.96
695.699	13.3
696.021	14.15
696.342	14.25
696.663	14.51
696.984	14.3
697.306	14.03
697.627	15.22
697.948	15.44
698.269	14.27
698.59	15.17
698.911	15.33
699.232	14.53
699.553	15.51
699.873	14.83
700.194	15.25
700.515	15.16
700.835	15.22
701.156	15.03
701.477	15.05
701.797	15.18
702.117	15.31
702.438	15.44
702.758	15.06
703.078	14.58
703.398	15.33
703.719	15.01
704.039	13.91
704.359	15.78
704.679	14.95
704.999	15.1
705.319	14.56
705.638	15.7
705.958	14.78
706.278	15.74
706.597	16.23
706.917	15.7
707.237	16.68
707.556	15.2
707.876	15.21
708.195	15.69
708.514	16.11
708.834	16.13
709.153	15.46
709.472	16.26
709.791	16.22
710.11	16.11
710.429	16.27
710.748	16.05
711.067	15.82
711.386	15.22
711.705	16.6
712.023	16.56
712.342	14.98
712.661	15.35
712.979	16.37
713.298	16.23
713.616	16.25
713.935	16.17
714.253	16.14
714.572	16.56
714.89	16.86
715.208	17.08
715.526	16.56
715.844	17.43
716.162	16.93
716.48	16.44
716.798	17.27
717.116	16.81
717.434	17.44
717.752	15.79
718.069	16.59
718.387	17.35
718.705	16.47
719.022	16.65
719.34	16.28
719.657	15.56
719.975	17.94
720.292	17.5
720.609	16.42
720.927	16.82
721.244	16.58
721.561	17.05
721.878	17.2
722.195	16.46
722.512	17.47
722.829	17.7
723.146	16.44
723.463	17.06
723.779	15.78
724.096	17.89
724.413	16.21
724.729	17.55
725.046	15.88
725.362	16.51
725.679	15.49
725.995	16.58
726.311	17.34
726.628	17.94
726.944	18.31
727.26	18.6
727.576	17.26
727.892	17.1
728.208	16.15
728.524	16.62
728.84	16.45
729.156	17.14
729.472	17.06
729.787	17.33
730.103	17.52
730.419	17.78
730.734	16.58
731.05	17.65
731.365	17.4
731.681	18.09
731.996	18.19
732.311	17.23
732.626	17.3
732.942	17.17
733.257	17.73
733.572	17.75
733.887	17.61
734.202	18.57
734.517	18.11
734.832	18.64
735.146	17.9
735.461	19.26
735.776	17.65
736.091	18.33
736.405	18.01
736.72	17.16
737.034	19.17
737.349	19
737.663	19.02
737.977	17.96
738.292	17.49
738.606	18.03
738.92	19.36
739.234	19.15
739.548	18.57
739.862	17.63
740.176	18.62
740.49	18.84
740.804	20.74
741.117	20.18
741.431	20.03
741.745	18.71
742.058	19.01
742.372	18.21
742.685	18.32
742.999	17.87
743.312	18.78
743.626	17.7
743.939	18.65
744.252	18.37
744.565	18.36
744.878	20.06
745.191	18.69
745.505	19.33
745.817	20.31
746.13	18.21
746.443	20.07
746.756	21.21
747.069	17.79
747.381	21.3
747.694	16.85
748.007	18.3
748.319	19
748.632	20.84
748.944	21.15
749.256	20.18
749.569	17.65
749.881	20.15
750.193	21.1
750.505	18.99
750.817	20.06
751.129	19.22
751.441	19.34
751.753	19.43
752.065	20.82
752.377	19.15
752.689	20.99
753	20.34
753.312	19.02
753.624	20.63
753.935	21.46
754.247	19.93
754.558	21.01
754.869	19.54
755.181	19.89
755.492	22.09
755.803	19.2
756.114	21.91
756.425	19.25
756.736	19.59
757.047	20.62
757.358	20.06
757.669	20.09
757.98	20.08
758.291	18.71
758.601	20.86
758.912	18.39
759.223	19.58
759.533	18.88
759.844	18.13
760.154	19.51
760.464	19.65
760.775	19.7
761.085	19.31
761.395	22.44
761.705	20.84
762.016	21.03
762.326	19.44
762.636	18.91
762.945	20.26
763.255	21.9
763.565	19.16
763.875	20.7
764.185	21.15
764.494	21.42
764.804	20.32
765.113	22.11
765.423	19.86
765.732	22.81
766.042	21.59
766.351	22.35
766.66	22.42
766.97	22.62
767.279	21
767.588	21.89
767.897	22.68
768.206	20.14
768.515	22.81
768.824	21.57
769.133	21.29
769.441	20.94
769.75	24.09
770.059	22.12
770.367	22.12
770.676	22.07
770.984	22.24
771.293	20.9
771.601	23.5
771.91	20.14
772.218	22.86
772.526	24.06
772.834	20.17
773.142	23.93
773.45	20.03
773.758	19.7
774.066	21.26
774.374	20.39
774.682	20.33
774.99	24.77
775.298	19.88
775.605	20.35
775.913	20.33
776.22	23.07
776.528	25.33
776.835	21.09
777.143	20.27
777.45	20.42
777.757	24.73
778.065	19.44
778.372	21.09
778.679	21.93
778.986	21.47
779.293	20.26
779.6	22.02
779.907	23.3
780.214	21.9
780.52	23.41
780.827	23.64
781.134	22.94
781.44	19.09
781.747	23.18
782.053	22.12
782.36	18.97
782.666	22.85
782.973	21.71
783.279	22.19
783.585	24.44
783.891	23.95
784.197	23.74
784.503	24
784.809	17.04
785.115	24.32
785.421	24.29
785.727	20.29
786.033	24.8
786.339	22.29
786.644	24.54
786.95	19.75
787.255	23.76
787.561	23.08
787.866	24.43
788.172	20.84
788.477	21.2
788.782	19.04
789.088	20.04
789.393	26.29
789.698	25.44
790.003	20.39
790.308	25.17
790.613	21.5
790.918	26.29
791.223	23.22
791.527	19.73
791.832	24.31
792.137	20.2
792.441	20.21
792.746	23.65
793.05	19.95
793.355	24.4
793.659	25.74
793.963	22.1
794.268	24.02
794.572	23.85
794.876	17.82
795.18	19.93
795.484	23.91
795.788	25.39
796.092	23.66
796.396	21.25
796.7	24.8
797.004	27.64
797.307	18.79
797.611	23.89
797.915	27.58
798.218	24.35
798.522	20.22
798.825	17.94
799.128	24.45
799.432	21.85
799.735	19.99
800.038	28.55
800.341	24.64
800.644	26.47
800.947	25.8
801.25	22.96
801.553	20.5
801.856	17.92
802.159	23.53
802.462	21.27
802.764	23.07
803.067	25.8
803.37	25.6
803.672	21.36
803.975	22.68
804.277	22.14
804.579	20.62
804.882	19.44
805.184	21.81
805.486	25.9
805.788	25.94
806.09	31.75
806.392	23.8
806.694	23.13
806.996	31.27
807.298	20.73
807.6	23.76
807.902	21.36
808.203	25.15
808.505	23.06
808.807	19.7
809.108	21.51
809.409	22.93
809.711	19.53
810.012	22.61
810.313	22.23
810.615	21.21
810.916	21.35
811.217	20.45
811.518	26.86
811.819	28.2
812.12	23.97
812.421	24.77
812.722	30.34
813.023	26.3
813.323	28.19
813.624	24.3
813.925	30.31
814.225	23.26
814.526	29.27
814.826	26.06
815.126	24.4
815.427	18.2
815.727	24.42
816.027	24.3
816.327	24.47
816.627	23.28
816.927	28.39
817.227	23.27
817.527	24.94
817.827	32.39
818.127	26.97
818.427	30.33
818.727	23.51
819.026	19.06
819.326	26.16
819.625	28.09
819.925	22.53
820.224	30.45
820.524	25.75
820.823	25.82
821.122	20.29
821.421	23.64
821.72	16.85
822.019	27.5
822.318	25.12
822.617	23.74
822.916	21.72
823.215	29.24
823.514	27.93
823.813	26.69
824.111	29.56
824.41	28.94
824.709	28.95
825.007	29.01
825.306	28.45
825.604	29.24
825.902	29.19
826.201	29.65
826.499	28.7
826.797	28.94
827.095	27.42
827.393	29.2
827.691	28.94
827.989	25.88
828.287	27.98
828.585	27.81
828.882	27.83
829.18	26.03
829.478	30.79
829.775	28.93
830.073	30.94
830.37	30.78
830.668	27.33
830.965	29
831.263	27.92
831.56	27.84
831.857	29.92
832.154	27.04
832.451	27.16
832.748	28.08
833.045	26.8
833.342	29.37
833.639	27.17
833.936	30.22
834.232	33.64
834.529	29.32
834.826	25.06
835.122	21.09
835.419	21.56
835.715	22.65
836.012	30.01
836.308	26.47
836.604	22.61
836.901	27.1
837.197	26.6
837.493	31.55
837.789	27.8
838.085	31.36
838.381	29.6
838.677	26.19
838.972	28.23
839.268	25.59
839.564	29.83
839.86	25.7
840.155	28.14
840.451	20.22
840.746	18.91
841.042	31.03
841.337	24.2
841.632	30.71
841.928	34.11
842.223	17.27
842.518	26.42
842.813	26.26
843.108	21.16
843.403	33.47
843.698	21.82
843.993	13
844.287	24.73
844.582	15.98
844.877	18.28
845.171	30.51
845.466	17.27
845.761	21.71
846.055	29.46
846.349	13.57
846.644	20.04
846.938	7.63
847.232	31.05
847.526	25.62
847.82	24.01
848.114	5.7
848.408	23.75
848.702	25.52
848.996	14.53
849.29	22.06
849.584	27.45
849.877	30.6
850.171	26.02
850.465	21.79
850.758	44.42
851.052	30.01
851.345	25.86
851.638	30.34
851.932	0.95
852.225	7.2
852.518	16.81
852.811	7.8
853.104	3.59
853.397	18.08
853.69	22.18
853.983	12.6
854.276	23.42
854.569	20.47
854.861	13.8
855.154	4.23
855.447	-6.99
855.739	45.33
856.032	27.09
856.324	20.09
856.616	27.9
856.909	20.87
857.201	27.4
857.493	35.64
857.785	45
858.077	33.14
858.369	17.76
858.661	35.52
858.953	9.05
859.245	23.43
859.537	51.2
859.829	13.17
860.12	37.65
860.412	23.18
860.703	15.32
860.995	22.61
861.286	18.39
861.578	11.83
861.869	26.77
862.16	7.88
862.452	23.36
862.743	3.68
863.034	25.46
863.325	-19.91
863.616	12.4
863.907	24.57
864.198	2.29
864.488	23.27
864.779	10.39
865.07	-12.73
865.36	-0.85
865.651	-26.97
865.941	26.35
866.232	9.63
866.522	23.49
866.813	26.88
867.103	18.59
867.393	14.1
867.683	10.76
867.973	-15.78
868.263	-2.58
868.553	47.89
868.843	29.27
869.133	-16.09
869.423	27.02
869.713	18.63
870.002	19.37
870.292	23.09
870.582	39.57
870.871	-11.96
871.161	11.47
871.45	32.63
871.739	-15.95
872.029	36.47
872.318	24.46
872.607	27.68
872.896	19.98
873.185	54.19
873.474	-9.13
873.763	46.79
874.052	35.98
874.341	18.76
874.63	-5.83
874.918	4.83
875.207	28.21
875.496	15.83
875.784	-73.17
876.073	-55.93
876.361	-32.47
876.649	-1.88
876.938	41.27
877.226	16.09
877.514	75.3
877.802	14.03
878.09	-4.58
878.378	44.81
878.666	10.29
878.954	24.4
879.242	16.18
879.53	31.04
879.817	32.62
880.105	14.91
880.392	19.68
880.68	3.28
880.967	-1.78
881.255	37.08
881.542	9.38
881.83	-92.23
882.117	26.88
882.404	7.67
882.691	46.8
882.978	4.71
883.265	-4.41
883.552	22.82
883.839	24.28
884.126	11.47
884.413	27.87
884.699	47.35
884.986	38.48
885.273	29.28
885.559	29.28
885.846	29.28
