Data from 0273_crown_Reflection__1__252.txt Node

Date: Fri Oct 20 22:41:26 CDT 2023
User: ToomeyLab
Spectrometer: FLMS14357
Trigger mode: 0
Integration Time (sec): 1.000000E-2
Scans to average: 100
Electric dark correction enabled: true
Nonlinearity correction enabled: false
Boxcar width: 0
XAxis mode: Wavelengths
Number of Pixels in Spectrum: 2048
>>>>>Begin Spectral Data<<<<<
189.047	-162.32
189.435	-162.32
189.823	-162.32
190.211	-895.31
190.599	79.41
190.987	43.64
191.375	40.02
191.763	148.92
192.151	-186.59
192.538	-254.7
192.926	172.24
193.314	141.47
193.702	33.64
194.089	225.86
194.477	-49.05
194.864	191.62
195.252	399.5
195.639	-17.1
196.027	108.67
196.414	-4.64
196.801	60.78
197.189	70.14
197.576	-8.39
197.963	-115.06
198.351	20.85
198.738	26.73
199.125	8.65
199.512	51.78
199.899	25.18
200.286	11.23
200.673	51.84
201.06	62.71
201.447	15.08
201.833	74.78
202.22	-2.07
202.607	42.08
202.994	38.81
203.38	2.05
203.767	32.92
204.154	29.72
204.54	51.1
204.927	36.14
205.313	7.08
205.699	35.98
206.086	28.49
206.472	33.48
206.858	43.97
207.245	-13.79
207.631	32.71
208.017	41.29
208.403	-0.37
208.789	38.22
209.175	-12.69
209.561	21.99
209.947	42.84
210.333	-7.72
210.719	6.47
211.105	50.35
211.491	0.16
211.876	13.75
212.262	17.75
212.648	16.03
213.034	-16.56
213.419	12.64
213.805	29.49
214.19	-19.41
214.576	40.48
214.961	24.69
215.346	37.64
215.732	22.12
216.117	-43.04
216.502	10.17
216.888	5.77
217.273	-7.77
217.658	2.57
218.043	-6.51
218.428	11.92
218.813	15.52
219.198	-6.12
219.583	-7.79
219.968	1.51
220.353	11.24
220.738	22.4
221.122	0.46
221.507	0.89
221.892	14.91
222.276	13.73
222.661	21.13
223.046	20.47
223.43	20.31
223.815	17.45
224.199	21.06
224.583	9.71
224.968	1.5
225.352	-1.36
225.736	8.72
226.121	11.19
226.505	15.8
226.889	8.66
227.273	13.18
227.657	14.12
228.041	10.4
228.425	11.08
228.809	11.61
229.193	12.62
229.577	12.5
229.961	11.71
230.344	10.8
230.728	10.34
231.112	11.92
231.495	11.54
231.879	12.02
232.263	11.27
232.646	10.32
233.03	11.42
233.413	11.65
233.797	11.08
234.18	12.1
234.563	9.99
234.946	12.23
235.33	11.3
235.713	10.61
236.096	11.77
236.479	11.85
236.862	11.31
237.245	11.57
237.628	9.82
238.011	11.72
238.394	11.22
238.777	11.36
239.16	11.75
239.543	11.82
239.925	13.29
240.308	12.25
240.691	11.96
241.073	13.49
241.456	12.12
241.838	12.06
242.221	11.81
242.603	10.45
242.986	11.3
243.368	11.17
243.75	11.55
244.133	10.82
244.515	10.69
244.897	10.74
245.279	11.43
245.661	10.4
246.043	10.58
246.425	10.95
246.807	10.8
247.189	10.73
247.571	10.47
247.953	10.64
248.335	10.96
248.717	10.51
249.098	10.17
249.48	10.53
249.862	10.45
250.243	10.81
250.625	10.51
251.006	10.36
251.388	10.81
251.769	11.25
252.151	9.63
252.532	10.01
252.913	10.71
253.295	9.51
253.676	10.54
254.057	10.43
254.438	10.68
254.819	10.28
255.2	10.44
255.581	9.93
255.962	9.96
256.343	10.68
256.724	9.7
257.105	10.63
257.486	11.11
257.867	10.07
258.247	10.49
258.628	10.4
259.009	9.97
259.389	9.45
259.77	10.12
260.15	10.11
260.531	9.69
260.911	10.38
261.292	9.94
261.672	10.04
262.052	9.97
262.432	9.81
262.813	9.74
263.193	9.98
263.573	9.83
263.953	9.7
264.333	10.13
264.713	10.66
265.093	10.02
265.473	10.18
265.853	10.22
266.233	10.14
266.612	9.6
266.992	9.58
267.372	9.48
267.752	9.33
268.131	9.7
268.511	9.93
268.89	9.78
269.27	9.27
269.649	9.09
270.029	9.34
270.408	9.5
270.787	9.69
271.167	9.4
271.546	9.44
271.925	10.06
272.304	10.05
272.683	10.04
273.062	9.87
273.441	9.51
273.82	9.42
274.199	9.53
274.578	9.58
274.957	9.22
275.336	9.35
275.715	9.28
276.093	8.91
276.472	9.12
276.851	8.96
277.229	9.08
277.608	8.58
277.986	8.57
278.365	9.69
278.743	9.18
279.122	8.91
279.5	8.34
279.878	8.83
280.257	9.14
280.635	8.87
281.013	9.28
281.391	9.03
281.769	8.47
282.147	8.71
282.525	8.72
282.903	8.87
283.281	8.52
283.659	8.43
284.037	8.73
284.415	8.05
284.792	8.2
285.17	8.62
285.548	8.69
285.925	7.94
286.303	8.03
286.68	8.55
287.058	8.74
287.435	8.65
287.813	8.19
288.19	8.2
288.567	8.52
288.945	8.58
289.322	8.54
289.699	8.13
290.076	8.63
290.453	8.53
290.83	8.37
291.207	8.37
291.584	8.08
291.961	7.85
292.338	8.01
292.715	8.07
293.092	8.08
293.469	8.45
293.845	8.1
294.222	7.8
294.599	7.47
294.975	9.15
295.352	7.93
295.728	8.1
296.105	7.87
296.481	8.36
296.858	8.12
297.234	7.86
297.61	7.48
297.986	7.9
298.363	7.77
298.739	8.09
299.115	7.57
299.491	7.85
299.867	7.63
300.243	7.94
300.619	7.63
300.995	7.55
301.371	7.67
301.746	7.6
302.122	7.71
302.498	7.52
302.874	7.65
303.249	7.62
303.625	7.78
304	7.82
304.376	7.12
304.751	7.04
305.127	7.65
305.502	7.91
305.878	7.35
306.253	7.56
306.628	7.44
307.003	7.78
307.378	7.44
307.754	7.38
308.129	7.7
308.504	7.66
308.879	7.51
309.254	7.78
309.629	6.77
310.003	6.8
310.378	7.18
310.753	6.99
311.128	7.3
311.502	7.22
311.877	7.62
312.252	6.76
312.626	7.5
313.001	7.19
313.375	7.07
313.75	6.96
314.124	6.93
314.498	7.16
314.873	6.7
315.247	7.4
315.621	7.25
315.995	6.96
316.369	6.2
316.743	7.12
317.117	7.06
317.491	7.09
317.865	7.06
318.239	7.84
318.613	7.44
318.987	6.93
319.361	6.47
319.734	6.54
320.108	6.68
320.482	6.96
320.855	6.8
321.229	7.62
321.602	6.99
321.976	6.67
322.349	7.28
322.723	6.66
323.096	6.77
323.469	6.68
323.843	6.83
324.216	6.7
324.589	7.07
324.962	7.02
325.335	6.74
325.708	6.93
326.081	6.97
326.454	7.25
326.827	7.49
327.2	7.34
327.573	7.06
327.945	6.88
328.318	6.9
328.691	6.96
329.063	7.14
329.436	6.77
329.809	7.31
330.181	7.38
330.553	7.5
330.926	7.19
331.298	6.52
331.671	6.37
332.043	6.81
332.415	6.54
332.787	7.11
333.159	6.81
333.532	7
333.904	7.01
334.276	6.63
334.648	6.93
335.02	7.01
335.391	6.27
335.763	7.52
336.135	7.01
336.507	6.75
336.879	6.53
337.25	7.18
337.622	7.19
337.993	7.09
338.365	6.63
338.736	6.33
339.108	7.12
339.479	6.67
339.851	6.85
340.222	6.53
340.593	6.15
340.964	6.9
341.336	7.59
341.707	6.58
342.078	6.54
342.449	6.71
342.82	6.68
343.191	6.9
343.562	7.1
343.933	6.79
344.303	6.97
344.674	6.89
345.045	7.09
345.416	7.61
345.786	6.74
346.157	7.14
346.527	6.86
346.898	6.85
347.268	7
347.639	7.07
348.009	6.73
348.38	6.79
348.75	7.04
349.12	6.7
349.49	7.17
349.861	7.19
350.231	7
350.601	6.68
350.971	7.12
351.341	7.35
351.711	7.24
352.081	6.86
352.45	7.1
352.82	7.45
353.19	7.09
353.56	7.36
353.929	7.18
354.299	7.03
354.669	7.19
355.038	7.44
355.408	7.3
355.777	7.18
356.147	6.82
356.516	6.93
356.885	7.27
357.254	7.1
357.624	7.02
357.993	7.03
358.362	6.98
358.731	6.64
359.1	6.99
359.469	6.86
359.838	7.07
360.207	6.99
360.576	7.32
360.945	7.1
361.314	7.17
361.682	7.44
362.051	6.93
362.42	6.87
362.788	7.39
363.157	7.5
363.525	7
363.894	7.42
364.262	7.05
364.631	7.39
364.999	7.03
365.367	7.45
365.735	7.46
366.104	6.92
366.472	7.22
366.84	7.52
367.208	7.6
367.576	7.56
367.944	7.31
368.312	7.67
368.68	7.36
369.048	7.53
369.416	7.72
369.783	7.63
370.151	7.29
370.519	7.07
370.886	7.71
371.254	7.67
371.621	7.98
371.989	7.28
372.356	7.49
372.724	7.84
373.091	7.72
373.458	7.44
373.826	7.37
374.193	7.56
374.56	7.5
374.927	7.42
375.294	7.77
375.661	7.68
376.028	7.85
376.395	7.35
376.762	7.82
377.129	7.62
377.496	7.79
377.863	7.91
378.229	7.95
378.596	7.67
378.963	7.74
379.329	7.69
379.696	7.75
380.062	7.71
380.429	7.59
380.795	7.77
381.161	7.69
381.528	8.29
381.894	7.49
382.26	8.24
382.626	8
382.993	7.9
383.359	7.9
383.725	8.11
384.091	7.76
384.457	7.93
384.823	7.89
385.188	8.36
385.554	8.06
385.92	7.96
386.286	8.33
386.651	7.74
387.017	8.27
387.383	7.92
387.748	7.78
388.114	7.97
388.479	8.09
388.845	8.27
389.21	7.97
389.575	7.88
389.94	8.23
390.306	8.12
390.671	7.9
391.036	7.92
391.401	7.99
391.766	8.12
392.131	8.31
392.496	8.17
392.861	8.12
393.226	8.31
393.591	8.21
393.956	8.25
394.32	8.45
394.685	8.19
395.05	8.43
395.414	8.32
395.779	8.07
396.143	8.12
396.508	8.2
396.872	8.26
397.236	8.31
397.601	8.17
397.965	8.21
398.329	8.27
398.694	8.53
399.058	8.14
399.422	8.51
399.786	8.54
400.15	8.23
400.514	8.37
400.878	8.58
401.242	8.53
401.605	8.66
401.969	8.28
402.333	8.52
402.697	8.5
403.06	8.6
403.424	8.51
403.787	8.54
404.151	8.35
404.514	8.51
404.878	8.78
405.241	8.74
405.604	8.32
405.968	8.77
406.331	8.55
406.694	8.46
407.057	8.45
407.42	8.74
407.783	8.64
408.146	8.57
408.509	8.47
408.872	8.77
409.235	8.81
409.598	8.59
409.961	8.68
410.323	8.82
410.686	8.61
411.049	8.47
411.411	8.61
411.774	8.78
412.136	8.83
412.499	8.75
412.861	8.8
413.223	8.83
413.586	8.63
413.948	8.69
414.31	8.92
414.672	8.64
415.035	8.98
415.397	8.85
415.759	9
416.121	8.78
416.483	9.11
416.845	8.74
417.206	8.87
417.568	8.87
417.93	8.71
418.292	8.7
418.653	8.79
419.015	8.79
419.377	8.81
419.738	8.79
420.1	8.74
420.461	8.75
420.822	8.67
421.184	8.71
421.545	8.83
421.906	8.7
422.267	8.77
422.629	8.81
422.99	8.74
423.351	8.77
423.712	8.73
424.073	8.67
424.434	8.56
424.795	8.75
425.155	8.82
425.516	8.72
425.877	8.8
426.238	8.76
426.598	8.83
426.959	8.76
427.32	8.89
427.68	8.82
428.041	8.84
428.401	8.81
428.761	8.85
429.122	9
429.482	8.9
429.842	9.22
430.202	9.09
430.563	9.07
430.923	9.2
431.283	9.04
431.643	9.15
432.003	9.24
432.363	9.08
432.722	9.07
433.082	9.05
433.442	8.84
433.802	9.28
434.161	8.97
434.521	9.01
434.881	9.17
435.24	9.18
435.6	9.12
435.959	8.97
436.319	9.06
436.678	9.08
437.037	8.96
437.396	9.1
437.756	9.22
438.115	8.94
438.474	9.12
438.833	9.17
439.192	9.15
439.551	9.12
439.91	9.02
440.269	9.29
440.628	9.11
440.987	9.16
441.345	9.1
441.704	9.19
442.063	9.13
442.421	9.1
442.78	9.09
443.138	9.1
443.497	9.16
443.855	9.14
444.214	9.06
444.572	9.25
444.93	9.33
445.288	9.24
445.647	9.46
446.005	9
446.363	9.1
446.721	9.16
447.079	9.3
447.437	9.23
447.795	9.06
448.153	9.04
448.51	9.15
448.868	9.05
449.226	9.08
449.584	9.11
449.941	9.1
450.299	9.15
450.656	9.17
451.014	9.25
451.371	9.23
451.729	9.07
452.086	9.13
452.443	9.3
452.801	9.22
453.158	9.4
453.515	9.32
453.872	9.27
454.229	9.45
454.586	9.3
454.943	9.23
455.3	9.32
455.657	9.34
456.014	9.22
456.371	9.29
456.727	9.33
457.084	9.27
457.441	9.32
457.797	9.29
458.154	9.23
458.51	9.34
458.867	9.27
459.223	9.34
459.58	9.29
459.936	9.35
460.292	9.39
460.648	9.25
461.005	9.37
461.361	9.23
461.717	9.12
462.073	9.26
462.429	9.11
462.785	9.3
463.141	9.23
463.496	9.23
463.852	9.42
464.208	9.47
464.564	9.32
464.919	9.3
465.275	9.64
465.631	9.37
465.986	9.57
466.342	9.4
466.697	9.42
467.052	9.48
467.408	9.57
467.763	9.61
468.118	9.67
468.473	9.51
468.829	9.52
469.184	9.38
469.539	9.4
469.894	9.43
470.249	9.36
470.603	9.27
470.958	9.5
471.313	9.46
471.668	9.51
472.023	9.45
472.377	9.47
472.732	9.5
473.086	9.7
473.441	9.63
473.795	9.53
474.15	9.4
474.504	9.36
474.859	9.5
475.213	9.48
475.567	9.51
475.921	9.35
476.275	9.41
476.63	9.68
476.984	9.59
477.338	9.39
477.692	9.48
478.045	9.47
478.399	9.42
478.753	9.63
479.107	9.49
479.461	9.54
479.814	9.73
480.168	9.69
480.521	9.69
480.875	9.48
481.228	9.5
481.582	9.67
481.935	9.48
482.289	9.56
482.642	9.48
482.995	9.4
483.348	9.48
483.701	9.47
484.055	9.47
484.408	9.34
484.761	9.23
485.114	9.25
485.466	9.13
485.819	9.02
486.172	9.01
486.525	9.01
486.878	9.01
487.23	9.02
487.583	9.1
487.936	9.16
488.288	9.28
488.641	9.33
488.993	9.17
489.345	9.16
489.698	9.17
490.05	9.13
490.402	9.1
490.754	9.11
491.107	9.14
491.459	9.26
491.811	9.34
492.163	9.32
492.515	9.4
492.866	9.41
493.218	9.27
493.57	9.2
493.922	9.17
494.274	9.24
494.625	9.14
494.977	9.22
495.328	9.34
495.68	9.42
496.031	9.33
496.383	9.51
496.734	9.58
497.086	9.4
497.437	9.51
497.788	9.5
498.139	9.59
498.49	9.53
498.842	9.5
499.193	9.6
499.544	9.54
499.894	9.45
500.245	9.43
500.596	9.6
500.947	9.56
501.298	9.51
501.648	9.45
501.999	9.66
502.35	9.65
502.7	9.73
503.051	9.52
503.401	9.59
503.752	9.56
504.102	9.6
504.452	9.47
504.803	9.69
505.153	9.43
505.503	9.67
505.853	9.72
506.203	9.54
506.553	9.5
506.903	9.62
507.253	9.57
507.603	9.57
507.953	9.52
508.303	9.49
508.652	9.56
509.002	9.57
509.352	9.71
509.701	9.75
510.051	9.5
510.4	9.6
510.75	9.56
511.099	9.56
511.449	9.55
511.798	9.59
512.147	9.61
512.496	9.52
512.846	9.48
513.195	9.62
513.544	9.5
513.893	9.48
514.242	9.63
514.591	9.63
514.939	9.47
515.288	9.5
515.637	9.58
515.986	9.6
516.334	9.56
516.683	9.61
517.032	9.46
517.38	9.57
517.729	9.58
518.077	9.65
518.426	9.65
518.774	9.5
519.122	9.57
519.47	9.48
519.819	9.44
520.167	9.49
520.515	9.49
520.863	9.46
521.211	9.49
521.559	9.48
521.907	9.39
522.255	9.45
522.602	9.65
522.95	9.48
523.298	9.58
523.645	9.66
523.993	9.52
524.341	9.51
524.688	9.45
525.036	9.49
525.383	9.5
525.73	9.66
526.078	9.48
526.425	9.55
526.772	9.49
527.119	9.53
527.466	9.4
527.814	9.45
528.161	9.41
528.508	9.26
528.854	9.32
529.201	9.29
529.548	9.38
529.895	9.38
530.242	9.29
530.588	9.16
530.935	9.13
531.282	9.22
531.628	9.09
531.975	9.07
532.321	9.16
532.667	9.29
533.014	9.32
533.36	9.39
533.706	9.52
534.052	9.42
534.399	9.36
534.745	9.34
535.091	9.29
535.437	9.37
535.783	9.23
536.129	9.29
536.474	9.26
536.82	9.32
537.166	9.31
537.512	9.37
537.857	9.43
538.203	9.4
538.549	9.54
538.894	9.35
539.239	9.44
539.585	9.47
539.93	9.41
540.276	9.4
540.621	9.47
540.966	9.47
541.311	9.57
541.656	9.53
542.001	9.44
542.346	9.49
542.691	9.39
543.036	9.38
543.381	9.22
543.726	9.17
544.071	9.23
544.415	9.21
544.76	9.22
545.105	9.31
545.449	9.34
545.794	9.32
546.138	9.32
546.483	9.33
546.827	9.44
547.171	9.57
547.516	9.46
547.86	9.58
548.204	9.36
548.548	9.46
548.892	9.46
549.236	9.43
549.58	9.34
549.924	9.2
550.268	9.35
550.612	9.42
550.956	9.51
551.3	9.51
551.643	9.5
551.987	9.49
552.33	9.4
552.674	9.68
553.017	9.51
553.361	9.71
553.704	9.64
554.048	9.63
554.391	9.59
554.734	9.4
555.077	9.38
555.42	9.33
555.764	9.44
556.107	9.41
556.45	9.42
556.793	9.52
557.135	9.41
557.478	9.39
557.821	9.54
558.164	9.62
558.507	9.54
558.849	9.66
559.192	9.53
559.534	9.5
559.877	9.44
560.219	9.55
560.562	9.51
560.904	9.32
561.246	9.62
561.589	9.35
561.931	9.64
562.273	9.56
562.615	9.52
562.957	9.65
563.299	9.41
563.641	9.65
563.983	9.37
564.325	9.38
564.667	9.53
565.008	9.24
565.35	9.5
565.692	9.48
566.033	9.46
566.375	9.33
566.716	9.53
567.058	9.31
567.399	9.55
567.741	9.45
568.082	9.44
568.423	9.53
568.764	9.32
569.105	9.41
569.447	9.45
569.788	9.44
570.129	9.45
570.47	9.42
570.811	9.57
571.151	9.31
571.492	9.4
571.833	9.49
572.174	9.51
572.514	9.42
572.855	9.37
573.195	9.51
573.536	9.27
573.876	9.36
574.217	9.21
574.557	9.21
574.898	9.24
575.238	9.12
575.578	9.34
575.918	9.22
576.258	9.23
576.598	9.23
576.938	9.36
577.278	9.32
577.618	9.1
577.958	9.09
578.298	9.22
578.638	9.23
578.977	9.33
579.317	9.25
579.657	9.32
579.996	9.3
580.336	9.46
580.675	9.4
581.014	9.31
581.354	9.21
581.693	9.18
582.032	9.29
582.372	9.2
582.711	9.41
583.05	9.62
583.389	9.26
583.728	9.24
584.067	9.39
584.406	9.15
584.745	9.43
585.083	9.35
585.422	9.22
585.761	9.05
586.1	9.37
586.438	9.1
586.777	9.35
587.115	9.55
587.454	9.22
587.792	9.33
588.13	9.16
588.469	9.44
588.807	8.71
589.145	9.13
589.483	9.21
589.821	9.05
590.159	9.21
590.497	9.05
590.835	9.22
591.173	9.1
591.511	9.13
591.849	9.04
592.187	9.19
592.524	9.11
592.862	9.33
593.2	9.25
593.537	8.94
593.875	9.1
594.212	9.11
594.55	9.21
594.887	9.41
595.224	8.93
595.561	9.15
595.899	9.11
596.236	9.02
596.573	8.96
596.91	9.14
597.247	8.92
597.584	8.69
597.921	8.94
598.258	9.08
598.594	9.11
598.931	8.9
599.268	8.73
599.604	9.01
599.941	8.94
600.277	8.78
600.614	9.06
600.95	9
601.287	8.74
601.623	8.92
601.959	9.01
602.296	8.86
602.632	9.09
602.968	8.72
603.304	9.25
603.64	8.93
603.976	8.79
604.312	8.86
604.648	9
604.984	9.2
605.319	8.98
605.655	8.95
605.991	8.71
606.326	8.96
606.662	8.56
606.998	8.8
607.333	8.69
607.668	8.68
608.004	8.73
608.339	8.52
608.674	8.71
609.01	8.84
609.345	8.94
609.68	8.85
610.015	8.91
610.35	8.96
610.685	9.05
611.02	8.62
611.355	8.87
611.689	8.84
612.024	9.02
612.359	8.86
612.694	8.85
613.028	8.86
613.363	8.83
613.697	8.83
614.032	8.91
614.366	8.85
614.7	8.94
615.035	8.72
615.369	8.41
615.703	8.48
616.037	8.75
616.371	8.9
616.705	8.6
617.039	8.6
617.373	8.61
617.707	8.82
618.041	8.88
618.375	8.76
618.709	8.46
619.042	8.88
619.376	9.01
619.71	9.09
620.043	8.91
620.377	8.7
620.71	8.8
621.043	8.45
621.377	8.34
621.71	8.31
622.043	8.79
622.376	8.97
622.709	8.94
623.043	8.87
623.376	8.69
623.709	8.57
624.041	9.02
624.374	9
624.707	8.38
625.04	8.71
625.373	8.74
625.705	8.3
626.038	8.89
626.37	8.58
626.703	8.66
627.035	8.41
627.368	8.8
627.7	9.04
628.032	8.75
628.365	8.94
628.697	8.53
629.029	8.72
629.361	8.61
629.693	8.69
630.025	8.6
630.357	8.76
630.689	8.59
631.021	8.79
631.353	8.94
631.684	8.05
632.016	8.93
632.348	8.68
632.679	8.24
633.011	8.44
633.342	8.21
633.674	8.4
634.005	8.63
634.336	8.8
634.668	8.65
634.999	8.44
635.33	8.01
635.661	9.05
635.992	8.55
636.323	8.76
636.654	8.58
636.985	8.68
637.316	8.53
637.647	8.16
637.977	7.75
638.308	8.38
638.639	8.3
638.969	8.72
639.3	8.25
639.63	8.31
639.961	8.3
640.291	8.35
640.622	8.57
640.952	8.64
641.282	8.57
641.612	8.39
641.943	8.49
642.273	8.48
642.603	8.33
642.933	8.91
643.263	8.58
643.592	8.24
643.922	8.58
644.252	8.35
644.582	8.39
644.911	7.73
645.241	8.45
645.571	8.81
645.9	8.03
646.23	8.5
646.559	8.23
646.888	8.41
647.218	8.42
647.547	8.42
647.876	8.32
648.205	8.52
648.534	7.97
648.863	8.54
649.192	8.11
649.521	8.26
649.85	8.58
650.179	8.32
650.508	8.3
650.837	8.33
651.165	8.19
651.494	8.27
651.822	8
652.151	8.44
652.479	8.36
652.808	7.94
653.136	8.31
653.465	8.46
653.793	7.99
654.121	8.24
654.449	8.32
654.777	8.25
655.105	7.94
655.433	8.88
655.761	7.91
656.089	8.13
656.417	8.1
656.745	7.91
657.073	7.93
657.4	8.71
657.728	8.49
658.056	8.2
658.383	8.51
658.711	7.7
659.038	8.49
659.365	8.48
659.693	8.35
660.02	8.21
660.347	8.13
660.674	7.88
661.001	7.79
661.329	8.23
661.656	8.38
661.982	8.23
662.309	8.24
662.636	7.98
662.963	8.2
663.29	8.14
663.616	8.01
663.943	8
664.27	8.3
664.596	8.39
664.923	8
665.249	8.27
665.576	7.74
665.902	8.23
666.228	8.72
666.554	8.19
666.881	7.65
667.207	8.62
667.533	8.19
667.859	8.38
668.185	8.65
668.511	8.35
668.837	8.08
669.162	8.09
669.488	7.86
669.814	7.96
670.139	8.07
670.465	8.27
670.791	8.24
671.116	8.3
671.442	8.54
671.767	7.98
672.092	8.77
672.418	7.54
672.743	8.15
673.068	8.34
673.393	7.93
673.718	7.74
674.043	7.78
674.368	7.85
674.693	8.62
675.018	8.86
675.343	8.19
675.667	8.5
675.992	8.48
676.317	8.1
676.641	8.49
676.966	8.02
677.29	8.26
677.615	8.16
677.939	7.51
678.264	8.33
678.588	8.2
678.912	8.71
679.236	8.25
679.56	8.15
679.885	8.59
680.209	7.75
680.532	8.32
680.856	7.78
681.18	8.03
681.504	8.58
681.828	8.79
682.152	8.2
682.475	8.12
682.799	8.27
683.122	7.92
683.446	8.08
683.769	8.52
684.093	8.43
684.416	7.82
684.739	7.75
685.062	7.17
685.386	7.23
685.709	8.13
686.032	8.05
686.355	8.07
686.678	7.63
687.001	8.22
687.324	7.43
687.646	7.96
687.969	8.51
688.292	8.58
688.614	8.67
688.937	7.66
689.26	8.52
689.582	7.77
689.904	7.48
690.227	8.17
690.549	8.29
690.871	7.87
691.194	8.37
691.516	7.75
691.838	8.33
692.16	8.2
692.482	7.51
692.804	8.05
693.126	7.49
693.448	8.91
693.769	7.97
694.091	8.8
694.413	7.71
694.735	6.6
695.056	7.7
695.378	8.03
695.699	8.57
696.021	9.04
696.342	8.3
696.663	7.2
696.984	7.54
697.306	8.83
697.627	8.21
697.948	8.59
698.269	8.1
698.59	8.24
698.911	8.12
699.232	7.51
699.553	8.45
699.873	8.19
700.194	8.54
700.515	8.42
700.835	8.22
701.156	8.4
701.477	8.51
701.797	7.87
702.117	7.99
702.438	7.89
702.758	8.59
703.078	8.22
703.398	7.72
703.719	7.79
704.039	8.38
704.359	7.57
704.679	8.52
704.999	7.99
705.319	8.2
705.638	7.78
705.958	7.36
706.278	6.98
706.597	8.6
706.917	7.15
707.237	8.71
707.556	7.35
707.876	7.91
708.195	8.61
708.514	8.1
708.834	7.98
709.153	7.63
709.472	8.58
709.791	10.42
710.11	9.04
710.429	7.78
710.748	8.32
711.067	8.41
711.386	7.18
711.705	8.49
712.023	9.31
712.342	8.1
712.661	7.67
712.979	7.03
713.298	8.15
713.616	7.68
713.935	7.83
714.253	7.94
714.572	9.06
714.89	7.65
715.208	8.49
715.526	9.32
715.844	8.21
716.162	8.58
716.48	8.96
716.798	7.95
717.116	8.16
717.434	8.31
717.752	8.23
718.069	8.13
718.387	7.43
718.705	8.52
719.022	8.29
719.34	8.2
719.657	9.06
719.975	8.28
720.292	6.65
720.609	9.02
720.927	7.39
721.244	7.78
721.561	9.41
721.878	8.63
722.195	7.75
722.512	9.62
722.829	7.76
723.146	8.59
723.463	7.41
723.779	8.4
724.096	8.04
724.413	7.36
724.729	9.2
725.046	8.96
725.362	8.5
725.679	8.19
725.995	9.21
726.311	9.33
726.628	8.46
726.944	8.94
727.26	7.21
727.576	7.52
727.892	7.99
728.208	7.95
728.524	7.9
728.84	7.82
729.156	9.48
729.472	8.87
729.787	9.85
730.103	8.77
730.419	7.48
730.734	7.88
731.05	7.52
731.365	7.23
731.681	9.24
731.996	10.09
732.311	8.96
732.626	8.2
732.942	6.43
733.257	8.4
733.572	9.71
733.887	8.34
734.202	8.28
734.517	8.24
734.832	8.78
735.146	8.6
735.461	8.62
735.776	8.63
736.091	9.63
736.405	8.62
736.72	9.47
737.034	8.34
737.349	9.15
737.663	7.75
737.977	8.38
738.292	7.08
738.606	6.98
738.92	8.61
739.234	7.98
739.548	8.3
739.862	8.62
740.176	9.05
740.49	7.79
740.804	10.05
741.117	9.66
741.431	8.58
741.745	7.66
742.058	8.47
742.372	7.82
742.685	9.21
742.999	7.9
743.312	7.91
743.626	10.91
743.939	9.74
744.252	8.04
744.565	8.62
744.878	7.23
745.191	8.52
745.505	7.18
745.817	8.55
746.13	9.68
746.443	12.7
746.756	8.62
747.069	8.85
747.381	8.75
747.694	7.92
748.007	8.06
748.319	8.78
748.632	6.75
748.944	10.02
749.256	8.85
749.569	7.89
749.881	9.33
750.193	8.5
750.505	7.79
750.817	8.97
751.129	9.3
751.441	8.82
751.753	8.21
752.065	10.62
752.377	7.84
752.689	9.01
753	8.97
753.312	5.51
753.624	6.02
753.935	9.55
754.247	9.98
754.558	10.86
754.869	10.76
755.181	6.75
755.492	8.68
755.803	7.27
756.114	8.71
756.425	10.33
756.736	9.65
757.047	8.28
757.358	9.97
757.669	9.22
757.98	7.39
758.291	9.42
758.601	9.72
758.912	8.42
759.223	6.73
759.533	11.26
759.844	10.41
760.154	10.48
760.464	9.23
760.775	10.16
761.085	8.1
761.395	9.6
761.705	7.8
762.016	11.41
762.326	9.46
762.636	9.19
762.945	7.99
763.255	9.69
763.565	11.28
763.875	9.08
764.185	10.09
764.494	10.94
764.804	9.59
765.113	9.23
765.423	8.59
765.732	7.8
766.042	9.3
766.351	8.34
766.66	8.18
766.97	8.56
767.279	8.7
767.588	8.27
767.897	9.62
768.206	9.17
768.515	8.27
768.824	7.06
769.133	8.7
769.441	7.49
769.75	9.96
770.059	10.83
770.367	10.53
770.676	11.22
770.984	9.39
771.293	7.41
771.601	7.53
771.91	7.29
772.218	12.1
772.526	9.93
772.834	7.62
773.142	8.39
773.45	6.92
773.758	7.61
774.066	9.03
774.374	9.47
774.682	7.74
774.99	9.81
775.298	5.08
775.605	8.66
775.913	10.29
776.22	6.82
776.528	8.92
776.835	10.57
777.143	6.74
777.45	13.13
777.757	8.69
778.065	10.89
778.372	12.94
778.679	10.34
778.986	8.97
779.293	9.74
779.6	9.55
779.907	7.59
780.214	10.92
780.52	13.95
780.827	9.51
781.134	5.18
781.44	9.28
781.747	12.95
782.053	12.84
782.36	7.07
782.666	5.26
782.973	9.03
783.279	6.23
783.585	8.86
783.891	4.8
784.197	8.74
784.503	10.16
784.809	6.68
785.115	7.45
785.421	10.77
785.727	10.16
786.033	14.02
786.339	9.2
786.644	7.85
786.95	14.78
787.255	12.07
787.561	7.25
787.866	7.94
788.172	11.48
788.477	8.34
788.782	8.47
789.088	11.03
789.393	7.82
789.698	6.43
790.003	10.52
790.308	12.52
790.613	9.82
790.918	14.82
791.223	11.48
791.527	9.45
791.832	11.44
792.137	12.61
792.441	7.81
792.746	9.89
793.05	9
793.355	10.51
793.659	10.47
793.963	11.19
794.268	7.11
794.572	10.92
794.876	10.54
795.18	5.96
795.484	9.32
795.788	8.51
796.092	8.24
796.396	7.27
796.7	8.56
797.004	7.68
797.307	12.65
797.611	9.56
797.915	9.71
798.218	4.79
798.522	6.55
798.825	11.19
799.128	13.19
799.432	4.56
799.735	9.84
800.038	8.73
800.341	9.11
800.644	12.58
800.947	8.03
801.25	8.37
801.553	9.99
801.856	10.8
802.159	6.45
802.462	9.94
802.764	11.36
803.067	11.91
803.37	10.98
803.672	7.85
803.975	10.33
804.277	6
804.579	2.91
804.882	9.07
805.184	8.23
805.486	7.8
805.788	12
806.09	9.46
806.392	11.45
806.694	7.42
806.996	15.28
807.298	9.49
807.6	8.84
807.902	8.33
808.203	11.43
808.505	15.36
808.807	11.51
809.108	6.07
809.409	10.6
809.711	-2.41
810.012	9.54
810.313	12.44
810.615	5.54
810.916	9.76
811.217	15.51
811.518	7.8
811.819	8.94
812.12	12.91
812.421	7.37
812.722	6.41
813.023	13.81
813.323	0.58
813.624	6.06
813.925	12.26
814.225	9.19
814.526	12.18
814.826	5.92
815.126	13.49
815.427	7.77
815.727	11.43
816.027	0.14
816.327	12.22
816.627	14.52
816.927	6.83
817.227	13.86
817.527	0.15
817.827	9.9
818.127	6.23
818.427	8.79
818.727	6.77
819.026	3.42
819.326	9.35
819.625	12.26
819.925	14.17
820.224	9.91
820.524	13.58
820.823	4.01
821.122	5.47
821.421	8.29
821.72	15
822.019	8.38
822.318	8.14
822.617	7.77
822.916	9.82
823.215	9.69
823.514	8.76
823.813	9.8
824.111	10.11
824.41	10.35
824.709	10.47
825.007	9.26
825.306	9.97
825.604	10.36
825.902	10.59
826.201	10.57
826.499	9.24
826.797	9.79
827.095	9.72
827.393	9.71
827.691	10.63
827.989	9.19
828.287	9.08
828.585	10.73
828.882	8.65
829.18	9.77
829.478	7.84
829.775	10
830.073	11.63
830.37	11.06
830.668	11.53
830.965	9.12
831.263	9.77
831.56	10.72
831.857	8.19
832.154	8.59
832.451	10.49
832.748	9.72
833.045	8.05
833.342	12.69
833.639	14.04
833.936	12.45
834.232	18.65
834.529	14.03
834.826	6.51
835.122	13.19
835.419	12.84
835.715	13.97
836.012	10.26
836.308	9.77
836.604	11.26
836.901	10.98
837.197	12.35
837.493	13.79
837.789	7.54
838.085	7.15
838.381	13.68
838.677	8.71
838.972	16.61
839.268	10.48
839.564	10.83
839.86	3.32
840.155	12.36
840.451	18.8
840.746	18.99
841.042	15.13
841.337	13.41
841.632	13.45
841.928	11.81
842.223	12.95
842.518	-0.99
842.813	11.59
843.108	12.69
843.403	3.73
843.698	8.17
843.993	11.74
844.287	19.88
844.582	8.95
844.877	6.48
845.171	20.82
845.466	9.72
845.761	7.95
846.055	15.24
846.349	8.49
846.644	7.3
846.938	20.91
847.232	6.88
847.526	9.91
847.82	-11.06
848.114	24.64
848.408	18.31
848.702	7.83
848.996	19.36
849.29	-1.19
849.584	9.83
849.877	18.97
850.171	25.3
850.465	-6.76
850.758	6.38
851.052	14.28
851.345	30.48
851.638	-11.02
851.932	12.66
852.225	16.77
852.518	28.09
852.811	23.32
853.104	25.18
853.397	13.9
853.69	15.34
853.983	4.49
854.276	25.16
854.569	28.04
854.861	-2.57
855.154	45.51
855.447	5.28
855.739	17.49
856.032	-0.34
856.324	13.26
856.616	-19.59
856.909	23.19
857.201	6.48
857.493	28.56
857.785	18.86
858.077	8.24
858.369	6.18
858.661	4.79
858.953	-4.87
859.245	21.71
859.537	18.97
859.829	10.89
860.12	9.94
860.412	27.63
860.703	4
860.995	16.07
861.286	8.48
861.578	29.22
861.869	-27.15
862.16	-1.48
862.452	8.03
862.743	4.44
863.034	3.28
863.325	37.13
863.616	-14.07
863.907	4.49
864.198	12.32
864.488	26.14
864.779	23.3
865.07	23.81
865.36	18.93
865.651	9.95
865.941	6
866.232	23.92
866.522	14.51
866.813	-4.92
867.103	-7.25
867.393	28.89
867.683	38.97
867.973	35.03
868.263	28.62
868.553	0.55
868.843	7.12
869.133	25.56
869.423	6.46
869.713	29.24
870.002	18.07
870.292	6.9
870.582	34.23
870.871	5.66
871.161	4.47
871.45	38.16
871.739	13.14
872.029	3.32
872.318	9.79
872.607	14.26
872.896	15.37
873.185	32.32
873.474	3.21
873.763	34.13
874.052	-11.11
874.341	14.04
874.63	-0.01
874.918	1.62
875.207	1.91
875.496	-30.15
875.784	10.43
876.073	-12.28
876.361	12.04
876.649	-20.41
876.938	3.32
877.226	37.89
877.514	-9.07
877.802	-19.87
878.09	11.4
878.378	19.2
878.666	-0.87
878.954	19.43
879.242	19.63
879.53	9.13
879.817	-21.37
880.105	22.6
880.392	20.65
880.68	19.39
880.967	-3.54
881.255	29.63
881.542	25.92
881.83	0.58
882.117	17.05
882.404	27.82
882.691	31.8
882.978	30.49
883.265	5.47
883.552	12.76
883.839	-5.3
884.126	-7.12
884.413	5.97
884.699	24.78
884.986	18.84
885.273	10.74
885.559	10.74
885.846	10.74
