Data from 0052_forehead_Reflection__2__75.txt Node

Date: Fri Dec 16 14:27:48 CST 2022
User: ToomeyLab
Spectrometer: FLMS14357
Trigger mode: 0
Integration Time (sec): 1.000000E-2
Scans to average: 100
Electric dark correction enabled: true
Nonlinearity correction enabled: false
Boxcar width: 0
XAxis mode: Wavelengths
Number of Pixels in Spectrum: 2048
>>>>>Begin Spectral Data<<<<<
189.047	314.67
189.435	314.67
189.823	314.67
190.211	43.51
190.599	6.09
190.987	-157.85
191.375	-339.33
191.763	105.91
192.151	-150.14
192.538	145.95
192.926	234.04
193.314	53.62
193.702	-1318.73
194.089	34.81
194.477	-141.37
194.864	117.69
195.252	-4.02
195.639	173.77
196.027	22.52
196.414	72.14
196.801	-28.23
197.189	1604.26
197.576	-111.03
197.963	-436.64
198.351	16.09
198.738	1.8
199.125	37.98
199.512	36.58
199.899	-31.99
200.286	-51.83
200.673	23.61
201.06	23.97
201.447	57.15
201.833	22.28
202.22	22.35
202.607	-25.86
202.994	12.55
203.38	-4.34
203.767	-43.04
204.154	-24.13
204.54	75.45
204.927	-20.97
205.313	61.28
205.699	23.79
206.086	12.66
206.472	2.28
206.858	10.88
207.245	24.48
207.631	-23.63
208.017	30.32
208.403	17.69
208.789	-2.15
209.175	49.19
209.561	11.91
209.947	8.85
210.333	-18.93
210.719	-13.73
211.105	-27.35
211.491	39.26
211.876	0.05
212.262	-12.88
212.648	1.44
213.034	8.64
213.419	63.23
213.805	-4.37
214.19	22.42
214.576	7.42
214.961	-8.34
215.346	-30.31
215.732	12.54
216.117	-0.76
216.502	-11.57
216.888	-10.58
217.273	8.6
217.658	13.06
218.043	14.73
218.428	34.12
218.813	12.35
219.198	-45.66
219.583	21.81
219.968	4.3
220.353	26.21
220.738	-5.11
221.122	-8.54
221.507	0.3
221.892	8.75
222.276	3.83
222.661	-3.61
223.046	2.08
223.43	1.17
223.815	8.55
224.199	2.94
224.583	-0.05
224.968	15.17
225.352	8.95
225.736	11.04
226.121	1.38
226.505	7.52
226.889	6.22
227.273	8.35
227.657	5.46
228.041	-1.01
228.425	2.27
228.809	2.5
229.193	0.93
229.577	2.31
229.961	2.69
230.344	2.68
230.728	2.26
231.112	2.56
231.495	0.96
231.879	2.26
232.263	2.19
232.646	2.57
233.03	1.92
233.413	2.24
233.797	4.32
234.18	1.04
234.563	1.95
234.946	0.78
235.33	3.12
235.713	2.47
236.096	1.79
236.479	4.01
236.862	3.15
237.245	4.98
237.628	4.15
238.011	3.03
238.394	4.63
238.777	3
239.16	2.74
239.543	2.1
239.925	3.58
240.308	3.7
240.691	2.42
241.073	3.26
241.456	1.69
241.838	2.82
242.221	1.98
242.603	2.64
242.986	3.48
243.368	2.3
243.75	2.28
244.133	2.54
244.515	2.22
244.897	2.57
245.279	2.07
245.661	3.13
246.043	3.16
246.425	2.42
246.807	2.81
247.189	2.9
247.571	3.18
247.953	2.82
248.335	2.78
248.717	2.78
249.098	2.8
249.48	2.73
249.862	2.95
250.243	2.97
250.625	3.01
251.006	3.11
251.388	3.26
251.769	3.63
252.151	3.37
252.532	2.19
252.913	3.78
253.295	2.87
253.676	3.3
254.057	2.73
254.438	2.57
254.819	3.22
255.2	2.53
255.581	2.42
255.962	3.28
256.343	2.52
256.724	3.43
257.105	2.17
257.486	2.99
257.867	1.26
258.247	2.99
258.628	3.73
259.009	3.26
259.389	3.4
259.77	3.45
260.15	3.23
260.531	2.73
260.911	2.85
261.292	2.87
261.672	2.81
262.052	2.75
262.432	3.02
262.813	3
263.193	2.89
263.573	3.51
263.953	2.97
264.333	3.16
264.713	2.45
265.093	3.03
265.473	3.89
265.853	3.03
266.233	3.07
266.612	2.85
266.992	2.66
267.372	3.01
267.752	2.6
268.131	3.24
268.511	2.92
268.89	3.31
269.27	2.87
269.649	3.3
270.029	2.59
270.408	2.75
270.787	2.75
271.167	3.16
271.546	2.35
271.925	2.68
272.304	2.82
272.683	2.72
273.062	3.14
273.441	3.16
273.82	3.06
274.199	3.03
274.578	2.72
274.957	2.98
275.336	2.73
275.715	3.29
276.093	3.71
276.472	3.1
276.851	3.19
277.229	3.22
277.608	3.13
277.986	2.91
278.365	2.07
278.743	2.98
279.122	2.34
279.5	2.75
279.878	2.1
280.257	3.43
280.635	2.72
281.013	2.59
281.391	2.71
281.769	2.55
282.147	3.12
282.525	2.96
282.903	2.82
283.281	2.9
283.659	2.74
284.037	3.08
284.415	3.29
284.792	2.75
285.17	2.6
285.548	2.65
285.925	2.76
286.303	2.64
286.68	2.69
287.058	2.8
287.435	2.64
287.813	2.85
288.19	3.38
288.567	2.81
288.945	2.8
289.322	2.5
289.699	3.2
290.076	3.04
290.453	3.15
290.83	3.12
291.207	3.26
291.584	2.97
291.961	3.23
292.338	3.24
292.715	3.48
293.092	2.89
293.469	3.39
293.845	4
294.222	3.52
294.599	4.38
294.975	3.69
295.352	3.41
295.728	3.49
296.105	3.84
296.481	3.9
296.858	3.78
297.234	3.97
297.61	3.85
297.986	3.56
298.363	3.63
298.739	3.91
299.115	3.35
299.491	3.98
299.867	3.87
300.243	4.03
300.619	4.05
300.995	4.34
301.371	4.34
301.746	4.23
302.122	3.96
302.498	4.47
302.874	4.25
303.249	4.4
303.625	3.92
304	4.2
304.376	3.94
304.751	4.22
305.127	4.68
305.502	4.38
305.878	4.5
306.253	4.49
306.628	5.14
307.003	4.59
307.378	4.52
307.754	4.86
308.129	4.57
308.504	4.63
308.879	4.86
309.254	4.91
309.629	5.15
310.003	5.33
310.378	5.05
310.753	5.02
311.128	5.08
311.502	4.59
311.877	5.09
312.252	4.95
312.626	4.65
313.001	4.83
313.375	5.34
313.75	5.11
314.124	5.7
314.498	5.12
314.873	4.98
315.247	5.22
315.621	6.04
315.995	5.4
316.369	5.24
316.743	5.81
317.117	5.58
317.491	6.03
317.865	5.48
318.239	5.92
318.613	6.08
318.987	5.91
319.361	6.1
319.734	6.33
320.108	6.54
320.482	5.97
320.855	5.71
321.229	6.91
321.602	6.17
321.976	5.86
322.349	5.91
322.723	5.84
323.096	6.41
323.469	5.88
323.843	6.49
324.216	6.05
324.589	6.74
324.962	6.28
325.335	6.05
325.708	6.77
326.081	6.7
326.454	6.73
326.827	6.48
327.2	7.29
327.573	6.92
327.945	7.01
328.318	6.77
328.691	6.96
329.063	6.96
329.436	6.91
329.809	6.74
330.181	6.76
330.553	6.93
330.926	7.47
331.298	7.03
331.671	7.29
332.043	7.29
332.415	7.25
332.787	7.15
333.159	7.02
333.532	7.16
333.904	7.38
334.276	7.17
334.648	7.92
335.02	7.04
335.391	7.77
335.763	7.15
336.135	7.61
336.507	8.08
336.879	7.35
337.25	7.59
337.622	7.49
337.993	7.45
338.365	7.78
338.736	7.95
339.108	7.51
339.479	7.62
339.851	8.12
340.222	8.11
340.593	7.6
340.964	7.67
341.336	7.28
341.707	7.84
342.078	7.25
342.449	8.28
342.82	8.13
343.191	7.58
343.562	8.2
343.933	8.2
344.303	8.47
344.674	7.86
345.045	8.18
345.416	8.43
345.786	8.08
346.157	8.71
346.527	7.96
346.898	8.27
347.268	8.09
347.639	8.38
348.009	8.51
348.38	8.36
348.75	8.82
349.12	8.3
349.49	8.78
349.861	9.06
350.231	8.77
350.601	8.66
350.971	8.82
351.341	8.73
351.711	8.81
352.081	8.65
352.45	9.2
352.82	9.03
353.19	8.7
353.56	9.05
353.929	9.48
354.299	8.92
354.669	9.09
355.038	9.03
355.408	9.37
355.777	9.03
356.147	9.34
356.516	9.61
356.885	9.06
357.254	9.27
357.624	9.54
357.993	9.16
358.362	9.55
358.731	9.05
359.1	9.44
359.469	9.47
359.838	9.52
360.207	9.26
360.576	9.44
360.945	9.39
361.314	9.64
361.682	9.32
362.051	9.72
362.42	9.57
362.788	9.61
363.157	9.44
363.525	9.61
363.894	9.77
364.262	9.76
364.631	10.24
364.999	9.6
365.367	10.15
365.735	9.59
366.104	9.61
366.472	9.84
366.84	10.09
367.208	10.21
367.576	10.26
367.944	10.15
368.312	9.68
368.68	10.52
369.048	10.5
369.416	10.32
369.783	10.67
370.151	10.67
370.519	9.95
370.886	10.34
371.254	10.59
371.621	10.5
371.989	10.67
372.356	10.52
372.724	10.85
373.091	10.55
373.458	10.66
373.826	10.52
374.193	11.18
374.56	10.3
374.927	10.87
375.294	10.87
375.661	11.17
376.028	11.09
376.395	10.83
376.762	11.05
377.129	11.19
377.496	11
377.863	11.38
378.229	10.93
378.596	11.04
378.963	10.9
379.329	11.01
379.696	11.15
380.062	11.52
380.429	11.29
380.795	11.32
381.161	11.42
381.528	11.07
381.894	11.42
382.26	11.38
382.626	11.3
382.993	11.53
383.359	11.44
383.725	11.67
384.091	11.37
384.457	11.56
384.823	11.66
385.188	11.75
385.554	11.65
385.92	11.92
386.286	11.88
386.651	11.93
387.017	11.88
387.383	11.97
387.748	11.57
388.114	11.89
388.479	11.99
388.845	12.05
389.21	12.22
389.575	11.91
389.94	11.9
390.306	12.25
390.671	11.91
391.036	12.18
391.401	12.2
391.766	12.3
392.131	12.19
392.496	12.21
392.861	11.95
393.226	12.4
393.591	12.25
393.956	12.2
394.32	12.44
394.685	12.53
395.05	12.21
395.414	12.46
395.779	12.47
396.143	12.66
396.508	12.66
396.872	12.83
397.236	12.31
397.601	12.95
397.965	12.42
398.329	13.07
398.694	12.38
399.058	12.6
399.422	12.79
399.786	12.94
400.15	12.72
400.514	12.81
400.878	12.95
401.242	13.07
401.605	12.89
401.969	13.05
402.333	12.83
402.697	13.45
403.06	13.2
403.424	13.05
403.787	13.29
404.151	13.01
404.514	13.07
404.878	13.31
405.241	13.19
405.604	13.21
405.968	13.31
406.331	13.46
406.694	13.37
407.057	13.73
407.42	13.54
407.783	13.38
408.146	13.55
408.509	13.39
408.872	13.77
409.235	13.79
409.598	13.83
409.961	13.88
410.323	13.75
410.686	13.6
411.049	13.53
411.411	13.89
411.774	13.77
412.136	13.97
412.499	14.01
412.861	13.7
413.223	14.09
413.586	13.83
413.948	13.94
414.31	14.18
414.672	13.94
415.035	14.07
415.397	14.03
415.759	14.02
416.121	13.99
416.483	14.33
416.845	14.15
417.206	14.16
417.568	14.19
417.93	14
418.292	14.08
418.653	14.07
419.015	14.2
419.377	14.22
419.738	14.07
420.1	13.95
420.461	14.12
420.822	14.15
421.184	14.19
421.545	14.04
421.906	14.12
422.267	13.91
422.629	14.08
422.99	14.24
423.351	14.24
423.712	14.29
424.073	14.47
424.434	14.47
424.795	14.25
425.155	14.31
425.516	14.22
425.877	14.36
426.238	14.48
426.598	14.65
426.959	14.64
427.32	14.83
427.68	14.84
428.041	14.96
428.401	14.79
428.761	14.88
429.122	14.86
429.482	14.89
429.842	15.1
430.202	14.97
430.563	15.14
430.923	15.04
431.283	15.36
431.643	15.29
432.003	15.13
432.363	15.17
432.722	15.4
433.082	15.19
433.442	15.13
433.802	15.19
434.161	15.11
434.521	15.19
434.881	15.39
435.24	15.33
435.6	15.34
435.959	15.45
436.319	15.54
436.678	15.54
437.037	15.61
437.396	15.54
437.756	15.46
438.115	15.65
438.474	15.67
438.833	15.69
439.192	15.75
439.551	15.62
439.91	15.81
440.269	15.72
440.628	15.67
440.987	15.55
441.345	15.63
441.704	15.67
442.063	15.69
442.421	15.74
442.78	15.69
443.138	15.93
443.497	15.96
443.855	15.93
444.214	16.08
444.572	16.07
444.93	16.09
445.288	16.13
445.647	16.09
446.005	15.91
446.363	16.02
446.721	15.79
447.079	15.87
447.437	15.87
447.795	15.8
448.153	15.98
448.51	15.98
448.868	16.27
449.226	16.36
449.584	16.28
449.941	16.48
450.299	16.29
450.656	16.62
451.014	16.43
451.371	16.71
451.729	16.68
452.086	16.52
452.443	16.71
452.801	16.75
453.158	16.58
453.515	16.76
453.872	16.73
454.229	16.7
454.586	16.73
454.943	16.76
455.3	17.06
455.657	16.9
456.014	16.89
456.371	16.93
456.727	16.92
457.084	16.77
457.441	16.96
457.797	17.28
458.154	17.23
458.51	16.99
458.867	17.04
459.223	16.86
459.58	16.94
459.936	16.99
460.292	16.79
460.648	16.68
461.005	16.6
461.361	16.69
461.717	16.87
462.073	17.2
462.429	17.3
462.785	17.4
463.141	17.54
463.496	17.31
463.852	17.71
464.208	17.68
464.564	17.35
464.919	17.52
465.275	17.42
465.631	17.7
465.986	17.53
466.342	17.72
466.697	17.85
467.052	17.87
467.408	17.78
467.763	17.52
468.118	17.87
468.473	17.82
468.829	17.78
469.184	17.91
469.539	17.69
469.894	18.01
470.249	18
470.603	18.08
470.958	17.99
471.313	18.06
471.668	17.94
472.023	18.3
472.377	18.1
472.732	17.95
473.086	18
473.441	18.25
473.795	18.35
474.15	18.2
474.504	18.14
474.859	18.57
475.213	18.3
475.567	18.34
475.921	18.47
476.275	18.46
476.63	18.49
476.984	18.27
477.338	18.79
477.692	18.26
478.045	18.19
478.399	18.5
478.753	18.3
479.107	18.56
479.461	18.45
479.814	18.27
480.168	18.57
480.521	18.48
480.875	18.54
481.228	18.64
481.582	18.48
481.935	18.44
482.289	18.38
482.642	18.44
482.995	18.34
483.348	18.4
483.701	18.19
484.055	18.03
484.408	17.79
484.761	17.35
485.114	17.19
485.466	17.34
485.819	17.91
486.172	18.24
486.525	18.42
486.878	18.54
487.23	18.59
487.583	18.44
487.936	18.27
488.288	17.95
488.641	17.85
488.993	17.87
489.345	18.03
489.698	18.26
490.05	18.54
490.402	18.75
490.754	19.01
491.107	18.95
491.459	19.01
491.811	18.92
492.163	18.75
492.515	18.34
492.866	18.07
493.218	18.17
493.57	18.56
493.922	19.06
494.274	19.2
494.625	19.41
494.977	19.4
495.328	19.49
495.68	19.79
496.031	19.61
496.383	19.51
496.734	19.63
497.086	19.4
497.437	19.57
497.788	19.34
498.139	19.29
498.49	19.29
498.842	19.46
499.193	19.55
499.544	19.64
499.894	19.52
500.245	19.72
500.596	19.62
500.947	19.71
501.298	19.81
501.648	19.89
501.999	20.04
502.35	19.99
502.7	20.07
503.051	20.17
503.401	20.19
503.752	20.02
504.102	20.05
504.452	20.01
504.803	19.97
505.153	20.03
505.503	20.04
505.853	20.14
506.203	20.25
506.553	20.37
506.903	20.28
507.253	20.35
507.603	20.33
507.953	20.3
508.303	20.25
508.652	20.27
509.002	20.33
509.352	20.16
509.701	20.19
510.051	20.26
510.4	20.14
510.75	20.29
511.099	20.3
511.449	20.27
511.798	20.52
512.147	20.56
512.496	20.39
512.846	20.29
513.195	20.39
513.544	20.4
513.893	20.46
514.242	20.52
514.591	20.64
514.939	20.64
515.288	20.78
515.637	20.96
515.986	20.83
516.334	20.88
516.683	20.79
517.032	20.93
517.38	20.9
517.729	20.88
518.077	20.8
518.426	20.75
518.774	20.73
519.122	20.5
519.47	20.45
519.819	20.39
520.167	20.39
520.515	20.55
520.863	20.71
521.211	20.81
521.559	20.86
521.907	20.91
522.255	21.14
522.602	21.23
522.95	21.31
523.298	21.06
523.645	21.22
523.993	21.33
524.341	21.35
524.688	21.19
525.036	21.41
525.383	21.39
525.73	21.26
526.078	21.02
526.425	20.94
526.772	20.57
527.119	20.63
527.466	20.83
527.814	20.98
528.161	21.16
528.508	20.98
528.854	20.81
529.201	20.58
529.548	20.2
529.895	19.95
530.242	20.18
530.588	20.69
530.935	21.01
531.282	21.22
531.628	21.33
531.975	21.32
532.321	21.45
532.667	21.35
533.014	21.49
533.36	21.51
533.706	21.32
534.052	21.12
534.399	20.75
534.745	20.6
535.091	21
535.437	21.34
535.783	21.62
536.129	21.88
536.474	21.94
536.82	21.76
537.166	21.83
537.512	21.59
537.857	21.36
538.203	21.46
538.549	21.59
538.894	21.87
539.239	22.35
539.585	22.2
539.93	22.29
540.276	22.19
540.621	22.16
540.966	21.98
541.311	22.01
541.656	21.82
542.001	21.57
542.346	21.11
542.691	20.97
543.036	21.18
543.381	21.56
543.726	21.88
544.071	22.11
544.415	22.09
544.76	21.88
545.105	22.12
545.449	22.25
545.794	22.38
546.138	22.48
546.483	22.47
546.827	22.39
547.171	22.26
547.516	22.5
547.86	22.26
548.204	22.22
548.548	22.45
548.892	22.6
549.236	22.7
549.58	22.89
549.924	22.91
550.268	23.03
550.612	23.12
550.956	22.88
551.3	22.93
551.643	23.07
551.987	22.93
552.33	23.07
552.674	23.22
553.017	23.34
553.361	23.14
553.704	23
554.048	22.94
554.391	22.96
554.734	23.18
555.077	23.19
555.42	23.36
555.764	23.53
556.107	23.48
556.45	23.33
556.793	23.29
557.135	23.87
557.478	23.6
557.821	23.25
558.164	23.54
558.507	23.29
558.849	23.55
559.192	23.62
559.534	23.47
559.877	23.58
560.219	23.79
560.562	23.79
560.904	23.63
561.246	23.9
561.589	23.75
561.931	23.74
562.273	23.67
562.615	23.64
562.957	23.7
563.299	23.71
563.641	24.04
563.983	23.85
564.325	23.88
564.667	23.94
565.008	23.95
565.35	24
565.692	24
566.033	23.97
566.375	23.68
566.716	23.91
567.058	23.75
567.399	23.83
567.741	23.67
568.082	23.83
568.423	23.97
568.764	23.89
569.105	24.33
569.447	24.14
569.788	24.42
570.129	24.32
570.47	24.09
570.811	23.95
571.151	24.23
571.492	24.32
571.833	24.11
572.174	24.25
572.514	24.07
572.855	24.06
573.195	23.94
573.536	24.05
573.876	24.1
574.217	24.25
574.557	24.34
574.898	24.08
575.238	24.31
575.578	24.42
575.918	24.33
576.258	24.24
576.598	24.21
576.938	24.44
577.278	24.46
577.618	24.48
577.958	24.61
578.298	24.76
578.638	24.73
578.977	24.77
579.317	24.72
579.657	25
579.996	24.88
580.336	24.94
580.675	24.9
581.014	24.74
581.354	24.83
581.693	25.18
582.032	24.74
582.372	25.01
582.711	25.02
583.05	25.11
583.389	24.87
583.728	25.02
584.067	25.19
584.406	24.97
584.745	25.18
585.083	25.48
585.422	25.49
585.761	25.22
586.1	25.44
586.438	25.17
586.777	25.26
587.115	25.39
587.454	25.49
587.792	25.25
588.13	25.5
588.469	25.37
588.807	25.59
589.145	25.53
589.483	25.38
589.821	25.51
590.159	25.24
590.497	25.08
590.835	25.4
591.173	25.4
591.511	25.49
591.849	25.59
592.187	25.52
592.524	25.48
592.862	25.73
593.2	25.51
593.537	25.67
593.875	25.77
594.212	25.57
594.55	25.5
594.887	25.64
595.224	25.41
595.561	25.4
595.899	25.44
596.236	25.72
596.573	25.62
596.91	25.84
597.247	25.59
597.584	25.41
597.921	25.33
598.258	25.21
598.594	25.19
598.931	25.6
599.268	25.94
599.604	25.99
599.941	25.9
600.277	25.88
600.614	26.13
600.95	26.31
601.287	25.89
601.623	26.1
601.959	25.92
602.296	26.16
602.632	26.16
602.968	26.31
603.304	26.16
603.64	25.78
603.976	26.13
604.312	25.74
604.648	25.86
604.984	25.92
605.319	25.93
605.655	25.82
605.991	25.66
606.326	25.55
606.662	25.77
606.998	26.18
607.333	26.3
607.668	26.14
608.004	26.32
608.339	26.46
608.674	26.44
609.01	26.39
609.345	26.67
609.68	26.11
610.015	26.72
610.35	26.13
610.685	26.08
611.02	26.22
611.355	26.24
611.689	26.02
612.024	26.75
612.359	26.66
612.694	26.71
613.028	26.81
613.363	26.57
613.697	26.77
614.032	26.99
614.366	26.67
614.7	26.74
615.035	27.01
615.369	26.61
615.703	27.35
616.037	26.94
616.371	26.74
616.705	26.83
617.039	27.22
617.373	27.03
617.707	26.88
618.041	27.19
618.375	26.43
618.709	26.9
619.042	27.11
619.376	27.09
619.71	27.16
620.043	26.81
620.377	27.15
620.71	26.82
621.043	26.82
621.377	27
621.71	26.86
622.043	27.36
622.376	26.97
622.709	27.39
623.043	27.18
623.376	27.46
623.709	27.04
624.041	27.27
624.374	27.29
624.707	27.17
625.04	27.61
625.373	27.15
625.705	27.13
626.038	27.31
626.37	27.28
626.703	27.11
627.035	27.8
627.368	27.36
627.7	27.18
628.032	27.13
628.365	27
628.697	27.03
629.029	27.27
629.361	27.44
629.693	27.88
630.025	27.52
630.357	27.49
630.689	27.68
631.021	27.51
631.353	27.52
631.684	27.71
632.016	27.4
632.348	27.68
632.679	27.64
633.011	27.78
633.342	27.47
633.674	27.46
634.005	27.57
634.336	27.32
634.668	27.88
634.999	27.9
635.33	27.18
635.661	27.93
635.992	27.84
636.323	27.83
636.654	27.77
636.985	27.91
637.316	28.08
637.647	27.7
637.977	27.68
638.308	27.91
638.639	27.74
638.969	28.09
639.3	27.97
639.63	28.15
639.961	27.87
640.291	28.44
640.622	28.17
640.952	27.94
641.282	27.74
641.612	27.98
641.943	28.43
642.273	28.23
642.603	27.97
642.933	28.14
643.263	28.29
643.592	27.9
643.922	28.47
644.252	28.13
644.582	28.06
644.911	27.87
645.241	28.26
645.571	28.29
645.9	28.73
646.23	28.56
646.559	28.65
646.888	27.91
647.218	28.8
647.547	28.49
647.876	28.58
648.205	28.42
648.534	28.51
648.863	28.47
649.192	28.33
649.521	28.58
649.85	28.75
650.179	28.22
650.508	28.25
650.837	28.88
651.165	28.98
651.494	28.88
651.822	28.21
652.151	28.58
652.479	28.71
652.808	28.09
653.136	28.65
653.465	28.49
653.793	28.44
654.121	28.72
654.449	28.76
654.777	28.65
655.105	28.45
655.433	29.05
655.761	28.9
656.089	28.6
656.417	28.77
656.745	29.29
657.073	29.07
657.4	28.99
657.728	28.63
658.056	28.33
658.383	29.16
658.711	28.59
659.038	28.76
659.365	28.63
659.693	29.12
660.02	28.37
660.347	28.62
660.674	28.48
661.001	28.35
661.329	28.46
661.656	28.97
661.982	29.02
662.309	28.64
662.636	28.77
662.963	29.58
663.29	29.48
663.616	29.35
663.943	29.59
664.27	29.48
664.596	29.08
664.923	29.78
665.249	28.94
665.576	29.48
665.902	28.92
666.228	28.69
666.554	29.1
666.881	29.84
667.207	29.03
667.533	29.3
667.859	29.41
668.185	29.47
668.511	29.15
668.837	28.79
669.162	29.59
669.488	30.07
669.814	29.5
670.139	30.02
670.465	29.25
670.791	29.6
671.116	29.16
671.442	29.37
671.767	29.53
672.092	29.75
672.418	29.57
672.743	29.51
673.068	29.49
673.393	29.65
673.718	29.3
674.043	29.85
674.368	30.02
674.693	29.34
675.018	29.17
675.343	29.19
675.667	30.54
675.992	29.49
676.317	29.83
676.641	30.2
676.966	29.66
677.29	29.67
677.615	29.74
677.939	29.9
678.264	29.99
678.588	29.71
678.912	29.18
679.236	30.06
679.56	30.15
679.885	29.78
680.209	29.25
680.532	29.21
680.856	29.79
681.18	29.69
681.504	29.41
681.828	29.5
682.152	29.24
682.475	29.51
682.799	30.52
683.122	30.34
683.446	29.54
683.769	30.22
684.093	29.93
684.416	30.1
684.739	30.09
685.062	30.1
685.386	30.23
685.709	29.59
686.032	30.2
686.355	30.05
686.678	29.97
687.001	29.75
687.324	30.11
687.646	30.21
687.969	29.54
688.292	30.3
688.614	31.15
688.937	29.52
689.26	29.45
689.582	30.57
689.904	30.83
690.227	30.16
690.549	29.94
690.871	30.26
691.194	30.97
691.516	29.98
691.838	29.88
692.16	30.09
692.482	30.48
692.804	30.13
693.126	30.36
693.448	29.86
693.769	30.52
694.091	31.12
694.413	30.68
694.735	30.2
695.056	30.17
695.378	30.77
695.699	30.86
696.021	30.59
696.342	30.66
696.663	30.74
696.984	30.69
697.306	30.11
697.627	30.24
697.948	30.12
698.269	30.09
698.59	30.39
698.911	30.12
699.232	30.69
699.553	30.26
699.873	30
700.194	29.92
700.515	29.91
700.835	30.44
701.156	30.6
701.477	30.63
701.797	30.02
702.117	31.3
702.438	30.89
702.758	30.29
703.078	30.89
703.398	31.24
703.719	29.98
704.039	31.51
704.359	31.45
704.679	31.1
704.999	31.33
705.319	30.53
705.638	31.35
705.958	31.48
706.278	30.5
706.597	31.45
706.917	30.21
707.237	31.85
707.556	30.84
707.876	30.53
708.195	30.52
708.514	30.8
708.834	31.39
709.153	31.46
709.472	30.53
709.791	31.84
710.11	30.62
710.429	30.37
710.748	31.64
711.067	30.87
711.386	31.39
711.705	30.71
712.023	31.28
712.342	30.48
712.661	30.84
712.979	32.06
713.298	31.17
713.616	30.87
713.935	30.88
714.253	31.2
714.572	31.29
714.89	31.81
715.208	31.9
715.526	31.94
715.844	32.29
716.162	31.03
716.48	31.29
716.798	31.02
717.116	32.17
717.434	31.99
717.752	30.89
718.069	30.76
718.387	31.53
718.705	31
719.022	31.4
719.34	30.57
719.657	31.54
719.975	32.22
720.292	31.67
720.609	31.07
720.927	32.36
721.244	31.44
721.561	31.03
721.878	32.16
722.195	32.35
722.512	32.15
722.829	31.46
723.146	30.58
723.463	30.96
723.779	30.66
724.096	31.43
724.413	31.82
724.729	32.32
725.046	31.62
725.362	30.91
725.679	32.13
725.995	30.7
726.311	32.25
726.628	31.12
726.944	31.74
727.26	32.32
727.576	30.92
727.892	31.91
728.208	31.01
728.524	31.76
728.84	32.33
729.156	31.85
729.472	32.89
729.787	33.19
730.103	32.13
730.419	32.35
730.734	30.31
731.05	31.6
731.365	31.07
731.681	31.41
731.996	30.71
732.311	32.68
732.626	31.69
732.942	31.79
733.257	32.6
733.572	32.5
733.887	32.81
734.202	32.26
734.517	32.26
734.832	31.95
735.146	32.08
735.461	32.41
735.776	32.15
736.091	33.05
736.405	32.36
736.72	32.47
737.034	31.56
737.349	31.44
737.663	31.53
737.977	32.73
738.292	31.16
738.606	31.4
738.92	33.32
739.234	33.39
739.548	32.81
739.862	32.54
740.176	31.97
740.49	33.22
740.804	31.76
741.117	32.7
741.431	31.71
741.745	31.65
742.058	33.79
742.372	32.44
742.685	30.6
742.999	31.62
743.312	31.99
743.626	32.09
743.939	31.56
744.252	33.1
744.565	32.72
744.878	32.48
745.191	32.96
745.505	32.39
745.817	31.45
746.13	32.87
746.443	33.26
746.756	31.14
747.069	31.86
747.381	32.29
747.694	31.83
748.007	34.58
748.319	33.61
748.632	31.35
748.944	33.37
749.256	34.05
749.569	33.41
749.881	32.43
750.193	34.49
750.505	32.58
750.817	30.1
751.129	32.55
751.441	32.23
751.753	34.51
752.065	32.9
752.377	32.54
752.689	32.52
753	31.81
753.312	31.9
753.624	31.84
753.935	30.9
754.247	34.49
754.558	33.79
754.869	35.39
755.181	33.16
755.492	33.77
755.803	32.51
756.114	32.23
756.425	31.99
756.736	31.69
757.047	33.91
757.358	31.37
757.669	33.33
757.98	34.06
758.291	33.08
758.601	32.75
758.912	31.9
759.223	32.38
759.533	33.9
759.844	32.59
760.154	34.91
760.464	30.98
760.775	34.25
761.085	32.4
761.395	33.04
761.705	33.57
762.016	33.6
762.326	33.09
762.636	34.79
762.945	32.83
763.255	33.2
763.565	32.76
763.875	34.6
764.185	34.05
764.494	32.74
764.804	33.05
765.113	31.32
765.423	32.61
765.732	32.83
766.042	33.63
766.351	34.28
766.66	33.88
766.97	33.12
767.279	33.19
767.588	34.01
767.897	34.65
768.206	33.27
768.515	32.48
768.824	33.65
769.133	33.08
769.441	34.88
769.75	34.28
770.059	30.27
770.367	33.52
770.676	31.6
770.984	33.02
771.293	33.44
771.601	34.77
771.91	33.54
772.218	31.3
772.526	32.17
772.834	33.46
773.142	31.67
773.45	31.32
773.758	33
774.066	31.18
774.374	32.16
774.682	34.15
774.99	33.02
775.298	31.27
775.605	32.73
775.913	34.25
776.22	35.06
776.528	32.9
776.835	36.77
777.143	34.17
777.45	34.13
777.757	34.2
778.065	34.23
778.372	31.58
778.679	31.88
778.986	33.18
779.293	33.49
779.6	30.46
779.907	33.22
780.214	31.26
780.52	33.88
780.827	31.72
781.134	36.12
781.44	36.29
781.747	35.97
782.053	36.06
782.36	34.06
782.666	35.09
782.973	34.61
783.279	36.88
783.585	35.42
783.891	34.06
784.197	33.51
784.503	36.38
784.809	37.03
785.115	30.25
785.421	32.65
785.727	30.38
786.033	32.83
786.339	37.08
786.644	36.28
786.95	33.28
787.255	34.76
787.561	37.01
787.866	30.62
788.172	34.93
788.477	29.65
788.782	29.2
789.088	36.54
789.393	32.2
789.698	30.28
790.003	34.39
790.308	34.29
790.613	34.24
790.918	37.93
791.223	34.8
791.527	37.76
791.832	37.97
792.137	33.14
792.441	37.76
792.746	33.02
793.05	37.49
793.355	38.8
793.659	39.9
793.963	34
794.268	33.65
794.572	34.94
794.876	32.96
795.18	33.77
795.484	33.73
795.788	35.48
796.092	34.24
796.396	36.46
796.7	33.57
797.004	36.69
797.307	35.93
797.611	31.96
797.915	33.95
798.218	37.59
798.522	32.77
798.825	35.06
799.128	36.24
799.432	34.66
799.735	34.25
800.038	34.31
800.341	34.21
800.644	34.87
800.947	36.55
801.25	32.79
801.553	35.69
801.856	38.33
802.159	33.94
802.462	35.42
802.764	33.83
803.067	34.08
803.37	37.4
803.672	33.38
803.975	32.58
804.277	34.85
804.579	35.94
804.882	35.09
805.184	34.98
805.486	37.39
805.788	36.79
806.09	36.06
806.392	35.99
806.694	35.68
806.996	35.27
807.298	30.83
807.6	39.3
807.902	35.96
808.203	38.08
808.505	32.16
808.807	34.2
809.108	31.14
809.409	41.61
809.711	38.83
810.012	38.57
810.313	40.54
810.615	33.16
810.916	36.2
811.217	39.8
811.518	37.88
811.819	31.18
812.12	34.08
812.421	32.72
812.722	35.72
813.023	39.42
813.323	40.85
813.624	36.76
813.925	37.22
814.225	38.88
814.526	39.07
814.826	35.92
815.126	35.48
815.427	38.33
815.727	33.57
816.027	35.75
816.327	31.35
816.627	33.66
816.927	35.29
817.227	34.62
817.527	30.57
817.827	32.05
818.127	36.06
818.427	39.97
818.727	40.44
819.026	39.52
819.326	45.18
819.625	38.05
819.925	38.76
820.224	38.32
820.524	37.03
820.823	32.65
821.122	30.67
821.421	32.53
821.72	35.29
822.019	38.54
822.318	36.7
822.617	36.61
822.916	35.98
823.215	36.27
823.514	35.87
823.813	36.27
824.111	35.28
824.41	34.9
824.709	35.65
825.007	36.78
825.306	37.57
825.604	38.24
825.902	37.76
826.201	38.49
826.499	37.51
826.797	39.54
827.095	35.53
827.393	38.02
827.691	37.29
827.989	39.59
828.287	40.41
828.585	37.71
828.882	39.35
829.18	35.57
829.478	37.37
829.775	39.29
830.073	38.31
830.37	37.21
830.668	37.77
830.965	37.73
831.263	39.22
831.56	38.25
831.857	36.88
832.154	40.69
832.451	37.56
832.748	39.24
833.045	40.34
833.342	42.88
833.639	36.29
833.936	38.06
834.232	37.13
834.529	44.37
834.826	38.76
835.122	37.76
835.419	33.26
835.715	35.8
836.012	39.96
836.308	37.4
836.604	36.72
836.901	44.82
837.197	35.91
837.493	38.17
837.789	38.78
838.085	37.64
838.381	34.86
838.677	35.06
838.972	38.33
839.268	33.06
839.564	33.55
839.86	28.8
840.155	38.64
840.451	37.9
840.746	35.27
841.042	38.28
841.337	33.34
841.632	35.89
841.928	45.85
842.223	35.21
842.518	40.98
842.813	33.62
843.108	36.96
843.403	38.52
843.698	29.63
843.993	40.34
844.287	33.62
844.582	38.3
844.877	34.26
845.171	36.01
845.466	20.98
845.761	30.78
846.055	27.17
846.349	24.65
846.644	36.43
846.938	38.09
847.232	19.29
847.526	45.1
847.82	38.11
848.114	40.26
848.408	52.03
848.702	44.45
848.996	35.62
849.29	44.86
849.584	37.67
849.877	21.09
850.171	42.82
850.465	33.33
850.758	53.72
851.052	53.31
851.345	46.04
851.638	39.06
851.932	59.08
852.225	31.9
852.518	29.55
852.811	34.79
853.104	43.87
853.397	35.69
853.69	46.96
853.983	36.73
854.276	32.28
854.569	38.06
854.861	52.06
855.154	22.63
855.447	29.19
855.739	40.97
856.032	39.61
856.324	25.44
856.616	52.35
856.909	30.03
857.201	38.17
857.493	30.22
857.785	28.49
858.077	48.14
858.369	29.37
858.661	44.33
858.953	22.81
859.245	23.9
859.537	52.56
859.829	42.18
860.12	33.86
860.412	47.86
860.703	36.42
860.995	31.56
861.286	50.04
861.578	17.06
861.869	39.14
862.16	40.39
862.452	29.8
862.743	38.83
863.034	52.51
863.325	37.56
863.616	47.19
863.907	28.17
864.198	45.53
864.488	22.68
864.779	21.16
865.07	25.55
865.36	47.94
865.651	30.58
865.941	44.34
866.232	44.08
866.522	60.31
866.813	65.31
867.103	33.05
867.393	48.65
867.683	42
867.973	13.86
868.263	32.36
868.553	33.5
868.843	16.18
869.133	55.27
869.423	41.08
869.713	44.91
870.002	19.22
870.292	28.66
870.582	11.28
870.871	17.88
871.161	43.08
871.45	28.24
871.739	-3.36
872.029	9.63
872.318	40.04
872.607	45.58
872.896	31.2
873.185	39.78
873.474	40.01
873.763	49.12
874.052	32.42
874.341	-8.69
874.63	42.31
874.918	38.52
875.207	18.53
875.496	44.94
875.784	-1.6
876.073	35.09
876.361	33.7
876.649	49.62
876.938	18.87
877.226	5.46
877.514	39.31
877.802	16.31
878.09	35.31
878.378	28.37
878.666	31.07
878.954	35.89
879.242	29.3
879.53	40.37
879.817	21.79
880.105	25.78
880.392	23.74
880.68	27.15
880.967	37.64
881.255	38.18
881.542	40.58
881.83	48.92
882.117	32.92
882.404	34.89
882.691	14.5
882.978	29.59
883.265	44.23
883.552	40.01
883.839	44.15
884.126	35.07
884.413	35.29
884.699	31.9
884.986	44.41
885.273	35.95
885.559	35.95
885.846	35.95
