Data from 0052_chest_Reflection__1__63.txt Node

Date: Fri Dec 16 14:24:25 CST 2022
User: ToomeyLab
Spectrometer: FLMS14357
Trigger mode: 0
Integration Time (sec): 1.000000E-2
Scans to average: 100
Electric dark correction enabled: true
Nonlinearity correction enabled: false
Boxcar width: 0
XAxis mode: Wavelengths
Number of Pixels in Spectrum: 2048
>>>>>Begin Spectral Data<<<<<
189.047	586.49
189.435	586.49
189.823	586.49
190.211	42.11
190.599	105.03
190.987	-180.24
191.375	-53.3
191.763	-30.67
192.151	54.56
192.538	-98.73
192.926	110.36
193.314	63.59
193.702	-680.47
194.089	111.67
194.477	-187.39
194.864	29.33
195.252	-181.91
195.639	76.34
196.027	-47.96
196.414	-46.85
196.801	-56.84
197.189	-368.94
197.576	232.2
197.963	1035.54
198.351	-19.86
198.738	30.43
199.125	15.52
199.512	0.18
199.899	-28.27
200.286	24.01
200.673	24.5
201.06	26.61
201.447	48.12
201.833	3.12
202.22	55.84
202.607	8.8
202.994	23.61
203.38	21.43
203.767	1.5
204.154	-6.81
204.54	7.75
204.927	53.87
205.313	27.72
205.699	3.02
206.086	-16.38
206.472	-14.38
206.858	-0.87
207.245	-20.56
207.631	-8
208.017	44.07
208.403	6.99
208.789	3.91
209.175	50.53
209.561	27.72
209.947	23.69
210.333	12.22
210.719	-9.23
211.105	-45.78
211.491	-7.78
211.876	7.62
212.262	4.86
212.648	-21.84
213.034	4.48
213.419	17.57
213.805	-13.02
214.19	23.29
214.576	-9.31
214.961	23.26
215.346	9.21
215.732	2.12
216.117	15.12
216.502	-15.48
216.888	-8.47
217.273	40.1
217.658	-17.52
218.043	2.25
218.428	16.4
218.813	4.45
219.198	8.02
219.583	-4.29
219.968	-12.25
220.353	27.63
220.738	-0.05
221.122	5.16
221.507	15.61
221.892	9
222.276	-1.7
222.661	0.49
223.046	4.1
223.43	1.08
223.815	9.98
224.199	7.35
224.583	-0.65
224.968	3.47
225.352	-1.53
225.736	4.25
226.121	4.26
226.505	4.92
226.889	8.63
227.273	2.88
227.657	4.72
228.041	7.03
228.425	8.86
228.809	6.47
229.193	3.87
229.577	5.09
229.961	5.55
230.344	4.75
230.728	4.94
231.112	4.09
231.495	4.2
231.879	4.67
232.263	4.66
232.646	4.19
233.03	5.09
233.413	5.2
233.797	9.36
234.18	4.01
234.563	5.59
234.946	3.57
235.33	5.1
235.713	3.77
236.096	4.59
236.479	6.01
236.862	5.11
237.245	7.04
237.628	6.84
238.011	4.93
238.394	5.99
238.777	5.53
239.16	1.79
239.543	5.32
239.925	6.07
240.308	5.82
240.691	6.17
241.073	4.38
241.456	4.21
241.838	4.82
242.221	5.47
242.603	4.98
242.986	5.37
243.368	4.53
243.75	4.16
244.133	4.76
244.515	4.67
244.897	4.75
245.279	4.63
245.661	4.14
246.043	4.87
246.425	3.96
246.807	4.99
247.189	4.49
247.571	4.71
247.953	4.85
248.335	4.8
248.717	4.64
249.098	4.61
249.48	4.54
249.862	4.83
250.243	4.72
250.625	4.97
251.006	4.91
251.388	4.94
251.769	4.5
252.151	4.94
252.532	5.18
252.913	4.8
253.295	4.43
253.676	4.86
254.057	4.32
254.438	4.29
254.819	4.29
255.2	3.89
255.581	3.54
255.962	4.7
256.343	5.11
256.724	4.32
257.105	4.12
257.486	4.26
257.867	3.92
258.247	5.02
258.628	5.42
259.009	4.47
259.389	5.11
259.77	4.86
260.15	5.16
260.531	4.81
260.911	4.64
261.292	4.39
261.672	4.44
262.052	4.45
262.432	4.33
262.813	4.73
263.193	3.9
263.573	4.25
263.953	4.45
264.333	4.69
264.713	4.05
265.093	3.73
265.473	5.49
265.853	4.37
266.233	4.29
266.612	4.59
266.992	3.75
267.372	4.85
267.752	4.02
268.131	4.34
268.511	4.7
268.89	4.76
269.27	5.19
269.649	4.67
270.029	4.52
270.408	4.64
270.787	4.2
271.167	4.66
271.546	4.07
271.925	4.52
272.304	4.75
272.683	4.42
273.062	4.57
273.441	4.35
273.82	4.3
274.199	4.68
274.578	3.97
274.957	4.16
275.336	4.19
275.715	4.32
276.093	5.05
276.472	4.1
276.851	4.6
277.229	4.65
277.608	4.41
277.986	4.36
278.365	4.05
278.743	4.54
279.122	3.88
279.5	3.79
279.878	3.26
280.257	4.21
280.635	3.91
281.013	4.6
281.391	4.22
281.769	4.35
282.147	4.59
282.525	3.98
282.903	4.33
283.281	4.19
283.659	4.36
284.037	4.67
284.415	4.38
284.792	4.54
285.17	4.1
285.548	4.09
285.925	3.95
286.303	4.38
286.68	4.19
287.058	3.98
287.435	4.03
287.813	4.19
288.19	4.51
288.567	4.04
288.945	4.1
289.322	4.13
289.699	4.17
290.076	4.72
290.453	4.05
290.83	4.2
291.207	4.04
291.584	3.89
291.961	4.69
292.338	4.15
292.715	4.23
293.092	4.19
293.469	4.16
293.845	4.81
294.222	4.37
294.599	4.72
294.975	4.25
295.352	4.05
295.728	4.61
296.105	4.27
296.481	4.36
296.858	4.47
297.234	4.17
297.61	4.54
297.986	3.96
298.363	3.92
298.739	4.48
299.115	3.98
299.491	4.29
299.867	4.29
300.243	4.48
300.619	4.04
300.995	4.68
301.371	4.59
301.746	4.01
302.122	4.61
302.498	3.87
302.874	4.46
303.249	4.55
303.625	4.24
304	3.8
304.376	4.3
304.751	4.45
305.127	4.35
305.502	4.42
305.878	4.02
306.253	4.19
306.628	4.32
307.003	4.5
307.378	4.4
307.754	4.64
308.129	4.56
308.504	4.23
308.879	4.71
309.254	4.87
309.629	4.07
310.003	5.04
310.378	4.79
310.753	4.78
311.128	4.48
311.502	4.3
311.877	4.29
312.252	4.04
312.626	4.2
313.001	4.32
313.375	4.17
313.75	4.23
314.124	4.86
314.498	3.74
314.873	4.44
315.247	3.79
315.621	4.72
315.995	4.28
316.369	4.39
316.743	4.48
317.117	4.27
317.491	4.11
317.865	4.31
318.239	5.09
318.613	4.18
318.987	4.53
319.361	4.1
319.734	4.22
320.108	4.26
320.482	4.93
320.855	4.52
321.229	4.97
321.602	4.13
321.976	4.6
322.349	4.22
322.723	4.12
323.096	4.52
323.469	3.81
323.843	4.53
324.216	4.41
324.589	4.55
324.962	4.45
325.335	4.44
325.708	4.99
326.081	4.93
326.454	4.76
326.827	4.15
327.2	5
327.573	4.74
327.945	4.25
328.318	4.64
328.691	4.66
329.063	4.54
329.436	4.7
329.809	3.88
330.181	4.19
330.553	5.04
330.926	4.65
331.298	3.93
331.671	4.65
332.043	4.73
332.415	4.23
332.787	4.65
333.159	4.6
333.532	4.28
333.904	4.68
334.276	4.56
334.648	4.45
335.02	4.41
335.391	4.67
335.763	4.3
336.135	4.38
336.507	4.82
336.879	4.67
337.25	4.85
337.622	4.55
337.993	4.42
338.365	5.2
338.736	4.74
339.108	4
339.479	4.13
339.851	4.93
340.222	4.15
340.593	4.38
340.964	4.33
341.336	4.42
341.707	4.6
342.078	3.82
342.449	4.58
342.82	4.36
343.191	4.37
343.562	4.33
343.933	4.45
344.303	4.53
344.674	4.27
345.045	4.74
345.416	4.34
345.786	4.16
346.157	4.62
346.527	4.51
346.898	4.38
347.268	4.61
347.639	4.49
348.009	4.9
348.38	4.58
348.75	4.01
349.12	4.62
349.49	4.72
349.861	4.69
350.231	4.8
350.601	4.56
350.971	4.62
351.341	4.79
351.711	4.37
352.081	4.59
352.45	4.74
352.82	4.51
353.19	4.33
353.56	4.51
353.929	4.84
354.299	4.32
354.669	4.78
355.038	4.51
355.408	4.69
355.777	4.53
356.147	4.81
356.516	4.53
356.885	4.43
357.254	4.74
357.624	4.59
357.993	4.65
358.362	4.63
358.731	4.42
359.1	4.77
359.469	4.63
359.838	4.3
360.207	4.52
360.576	4.34
360.945	4.35
361.314	4.67
361.682	4.32
362.051	4.23
362.42	4.86
362.788	4.71
363.157	4.35
363.525	4.36
363.894	4.31
364.262	4.41
364.631	5.11
364.999	4.4
365.367	4.75
365.735	4.26
366.104	4.18
366.472	4.56
366.84	4.54
367.208	4.15
367.576	4.69
367.944	4.93
368.312	4.15
368.68	4.84
369.048	4.71
369.416	4.51
369.783	4.54
370.151	4.9
370.519	4.41
370.886	4.57
371.254	4.36
371.621	4.98
371.989	4.56
372.356	4.66
372.724	4.79
373.091	4.54
373.458	4.35
373.826	4.58
374.193	4.95
374.56	4.27
374.927	4.22
375.294	4.95
375.661	4.79
376.028	4.84
376.395	4.73
376.762	4.81
377.129	4.7
377.496	4.72
377.863	4.81
378.229	4.63
378.596	4.81
378.963	4.69
379.329	4.86
379.696	4.58
380.062	4.93
380.429	4.74
380.795	4.37
381.161	4.6
381.528	4.25
381.894	4.91
382.26	4.4
382.626	4.52
382.993	4.38
383.359	4.54
383.725	4.8
384.091	4.7
384.457	4.68
384.823	4.73
385.188	5.14
385.554	4.71
385.92	4.92
386.286	4.98
386.651	4.55
387.017	4.58
387.383	4.64
387.748	4.41
388.114	4.59
388.479	4.57
388.845	4.88
389.21	4.67
389.575	4.96
389.94	4.7
390.306	4.71
390.671	4.79
391.036	4.86
391.401	5.03
391.766	4.59
392.131	4.68
392.496	4.77
392.861	4.76
393.226	4.74
393.591	4.82
393.956	4.72
394.32	4.77
394.685	4.71
395.05	4.55
395.414	4.76
395.779	4.78
396.143	4.97
396.508	4.87
396.872	4.78
397.236	4.44
397.601	4.82
397.965	4.51
398.329	4.88
398.694	4.83
399.058	4.67
399.422	4.82
399.786	4.78
400.15	4.64
400.514	4.73
400.878	4.74
401.242	4.99
401.605	4.66
401.969	4.75
402.333	4.88
402.697	5.04
403.06	4.89
403.424	4.96
403.787	4.97
404.151	4.58
404.514	4.83
404.878	4.96
405.241	5
405.604	5.03
405.968	4.94
406.331	4.95
406.694	4.98
407.057	5.21
407.42	4.98
407.783	4.81
408.146	4.79
408.509	4.79
408.872	4.56
409.235	5.13
409.598	5.04
409.961	4.93
410.323	4.93
410.686	5.04
411.049	4.69
411.411	4.94
411.774	5.13
412.136	5.1
412.499	4.82
412.861	4.8
413.223	4.94
413.586	4.83
413.948	4.87
414.31	4.98
414.672	5.04
415.035	5
415.397	5.2
415.759	4.94
416.121	4.97
416.483	5.07
416.845	4.91
417.206	4.92
417.568	4.99
417.93	4.99
418.292	5.04
418.653	5.08
419.015	4.95
419.377	5
419.738	4.88
420.1	4.91
420.461	4.85
420.822	4.89
421.184	4.93
421.545	4.92
421.906	4.9
422.267	4.83
422.629	4.89
422.99	4.9
423.351	4.82
423.712	4.9
424.073	4.92
424.434	4.85
424.795	4.85
425.155	4.89
425.516	4.78
425.877	4.84
426.238	4.81
426.598	4.96
426.959	4.87
427.32	4.89
427.68	4.95
428.041	4.97
428.401	4.95
428.761	4.9
429.122	4.86
429.482	5.03
429.842	5.07
430.202	5.02
430.563	5.11
430.923	5.04
431.283	4.96
431.643	5.01
432.003	5.18
432.363	5.02
432.722	5.13
433.082	5.15
433.442	5.09
433.802	4.88
434.161	4.95
434.521	5.08
434.881	5.1
435.24	5.05
435.6	5.09
435.959	5.17
436.319	5.12
436.678	5.18
437.037	5.1
437.396	5.15
437.756	5.09
438.115	5.28
438.474	5.01
438.833	5.2
439.192	5.15
439.551	5.12
439.91	5.14
440.269	5.32
440.628	5.14
440.987	5.01
441.345	5.11
441.704	5.09
442.063	5.12
442.421	4.99
442.78	4.98
443.138	5.17
443.497	5.03
443.855	5.13
444.214	5.13
444.572	5.21
444.93	5.11
445.288	5.21
445.647	5.32
446.005	5
446.363	5.12
446.721	5.03
447.079	5.09
447.437	5.09
447.795	5.07
448.153	5.08
448.51	5.18
448.868	5.12
449.226	5.09
449.584	5.18
449.941	5.21
450.299	5.2
450.656	5.19
451.014	5.12
451.371	5.29
451.729	5.2
452.086	5.18
452.443	5.29
452.801	5.38
453.158	5.21
453.515	5.22
453.872	5.29
454.229	5.27
454.586	5.25
454.943	5.26
455.3	5.39
455.657	5.15
456.014	5.18
456.371	5.31
456.727	5.23
457.084	5.33
457.441	5.19
457.797	5.28
458.154	5.32
458.51	5.36
458.867	5.3
459.223	5.33
459.58	5.18
459.936	5.2
460.292	5.29
460.648	5.33
461.005	5.15
461.361	5.25
461.717	5.28
462.073	5.21
462.429	5.29
462.785	5.4
463.141	5.36
463.496	5.24
463.852	5.42
464.208	5.48
464.564	5.25
464.919	5.18
465.275	5.31
465.631	5.38
465.986	5.36
466.342	5.45
466.697	5.38
467.052	5.4
467.408	5.35
467.763	5.19
468.118	5.38
468.473	5.55
468.829	5.39
469.184	5.44
469.539	5.28
469.894	5.46
470.249	5.46
470.603	5.45
470.958	5.52
471.313	5.42
471.668	5.39
472.023	5.63
472.377	5.42
472.732	5.48
473.086	5.5
473.441	5.62
473.795	5.55
474.15	5.36
474.504	5.42
474.859	5.49
475.213	5.53
475.567	5.59
475.921	5.7
476.275	5.53
476.63	5.54
476.984	5.59
477.338	5.77
477.692	5.4
478.045	5.47
478.399	5.64
478.753	5.39
479.107	5.45
479.461	5.48
479.814	5.49
480.168	5.53
480.521	5.5
480.875	5.6
481.228	5.68
481.582	5.51
481.935	5.46
482.289	5.53
482.642	5.58
482.995	5.62
483.348	5.51
483.701	5.61
484.055	5.5
484.408	5.46
484.761	5.32
485.114	5.31
485.466	5.29
485.819	5.26
486.172	5.31
486.525	5.36
486.878	5.39
487.23	5.44
487.583	5.49
487.936	5.53
488.288	5.48
488.641	5.46
488.993	5.4
489.345	5.39
489.698	5.44
490.05	5.38
490.402	5.52
490.754	5.59
491.107	5.54
491.459	5.62
491.811	5.73
492.163	5.64
492.515	5.62
492.866	5.52
493.218	5.47
493.57	5.46
493.922	5.57
494.274	5.56
494.625	5.62
494.977	5.65
495.328	5.76
495.68	5.82
496.031	5.71
496.383	5.81
496.734	5.83
497.086	5.59
497.437	5.92
497.788	5.77
498.139	5.78
498.49	5.86
498.842	5.78
499.193	5.76
499.544	5.79
499.894	5.83
500.245	5.82
500.596	5.81
500.947	5.8
501.298	5.83
501.648	5.83
501.999	6.03
502.35	6.02
502.7	5.99
503.051	6.06
503.401	5.96
503.752	5.83
504.102	5.97
504.452	5.92
504.803	5.95
505.153	6.05
505.503	5.84
505.853	5.93
506.203	5.97
506.553	5.91
506.903	5.95
507.253	5.96
507.603	5.99
507.953	6.14
508.303	6.03
508.652	6.16
509.002	6.04
509.352	5.94
509.701	6.03
510.051	6.05
510.4	6.03
510.75	6.02
511.099	6.01
511.449	6
511.798	6.21
512.147	6.12
512.496	5.96
512.846	6.06
513.195	6.12
513.544	6.09
513.893	6.08
514.242	6.08
514.591	6.16
514.939	6.1
515.288	6.2
515.637	6.22
515.986	6.18
516.334	6.35
516.683	6.26
517.032	6.26
517.38	6.18
517.729	6.24
518.077	6.31
518.426	6.07
518.774	6.2
519.122	6.22
519.47	6.2
519.819	6.11
520.167	6.19
520.515	6.15
520.863	6.15
521.211	6.22
521.559	6.21
521.907	6.25
522.255	6.42
522.602	6.39
522.95	6.27
523.298	6.35
523.645	6.37
523.993	6.57
524.341	6.43
524.688	6.41
525.036	6.59
525.383	6.59
525.73	6.35
526.078	6.5
526.425	6.44
526.772	6.31
527.119	6.37
527.466	6.46
527.814	6.39
528.161	6.5
528.508	6.46
528.854	6.39
529.201	6.37
529.548	6.32
529.895	6.27
530.242	6.29
530.588	6.36
530.935	6.28
531.282	6.39
531.628	6.46
531.975	6.47
532.321	6.49
532.667	6.57
533.014	6.62
533.36	6.67
533.706	6.65
534.052	6.56
534.399	6.57
534.745	6.53
535.091	6.56
535.437	6.56
535.783	6.65
536.129	6.56
536.474	6.78
536.82	6.75
537.166	6.83
537.512	6.8
537.857	6.72
538.203	6.75
538.549	6.81
538.894	6.83
539.239	6.94
539.585	6.9
539.93	6.86
540.276	6.88
540.621	6.83
540.966	6.96
541.311	6.99
541.656	6.99
542.001	7
542.346	6.88
542.691	6.81
543.036	6.82
543.381	6.85
543.726	6.95
544.071	6.96
544.415	7
544.76	6.96
545.105	7.04
545.449	7.01
545.794	7.07
546.138	7.19
546.483	7.2
546.827	7.23
547.171	7.17
547.516	7.23
547.86	7.15
548.204	7.23
548.548	7.36
548.892	7.2
549.236	7.37
549.58	7.36
549.924	7.45
550.268	7.51
550.612	7.55
550.956	7.26
551.3	7.38
551.643	7.58
551.987	7.46
552.33	7.51
552.674	7.7
553.017	7.63
553.361	7.63
553.704	7.57
554.048	7.71
554.391	7.54
554.734	7.58
555.077	7.58
555.42	7.66
555.764	7.71
556.107	7.74
556.45	7.54
556.793	7.82
557.135	7.93
557.478	8
557.821	7.93
558.164	7.99
558.507	7.66
558.849	8.02
559.192	8.02
559.534	7.92
559.877	8.13
560.219	8.32
560.562	8.15
560.904	8.05
561.246	8.14
561.589	8.17
561.931	8.26
562.273	8.32
562.615	8.27
562.957	8.25
563.299	8.18
563.641	8.24
563.983	8.3
564.325	8.25
564.667	8.34
565.008	8.3
565.35	8.54
565.692	8.55
566.033	8.54
566.375	8.27
566.716	8.51
567.058	8.41
567.399	8.46
567.741	8.53
568.082	8.54
568.423	8.7
568.764	8.43
569.105	8.68
569.447	8.65
569.788	8.68
570.129	8.66
570.47	8.72
570.811	8.88
571.151	8.74
571.492	8.84
571.833	8.75
572.174	8.76
572.514	8.66
572.855	9
573.195	8.82
573.536	8.84
573.876	8.83
574.217	8.9
574.557	9
574.898	9.1
575.238	9.15
575.578	9.14
575.918	8.94
576.258	9
576.598	9.1
576.938	9.21
577.278	8.97
577.618	9
577.958	9.39
578.298	9.25
578.638	9.21
578.977	9.32
579.317	9.44
579.657	9.45
579.996	9.33
580.336	9.53
580.675	9.73
581.014	9.66
581.354	9.59
581.693	9.53
582.032	9.49
582.372	9.76
582.711	9.55
583.05	9.97
583.389	9.67
583.728	9.85
584.067	9.95
584.406	9.93
584.745	9.92
585.083	10.27
585.422	10.12
585.761	10.07
586.1	10.15
586.438	10.14
586.777	10.07
587.115	10.22
587.454	10.19
587.792	9.94
588.13	10.35
588.469	10.2
588.807	10.29
589.145	10.24
589.483	10.32
589.821	10.5
590.159	10.33
590.497	10.5
590.835	10.47
591.173	10.73
591.511	10.71
591.849	10.66
592.187	10.54
592.524	10.43
592.862	10.56
593.2	10.44
593.537	10.51
593.875	10.6
594.212	10.8
594.55	10.77
594.887	10.98
595.224	10.81
595.561	10.73
595.899	10.55
596.236	11.18
596.573	10.82
596.91	11.06
597.247	11.1
597.584	10.87
597.921	10.98
598.258	11.11
598.594	11.03
598.931	11.08
599.268	11.04
599.604	11.16
599.941	11.21
600.277	11.13
600.614	11.43
600.95	11.39
601.287	11.33
601.623	11.32
601.959	11.4
602.296	11.66
602.632	11.63
602.968	11.25
603.304	11.45
603.64	11.67
603.976	11.73
604.312	11.5
604.648	11.67
604.984	11.83
605.319	11.78
605.655	11.71
605.991	11.66
606.326	11.72
606.662	11.73
606.998	11.67
607.333	12
607.668	11.93
608.004	12.04
608.339	12.18
608.674	12.12
609.01	11.96
609.345	12.15
609.68	11.93
610.015	12.05
610.35	11.99
610.685	12.17
611.02	12.27
611.355	12.43
611.689	12.29
612.024	12.45
612.359	12.68
612.694	12.65
613.028	12.73
613.363	12.23
613.697	12.6
614.032	12.99
614.366	12.52
614.7	13.03
615.035	12.44
615.369	12.67
615.703	13.37
616.037	12.84
616.371	12.97
616.705	12.76
617.039	13.07
617.373	12.98
617.707	12.98
618.041	13.35
618.375	13.34
618.709	13.36
619.042	13.48
619.376	13.07
619.71	13.43
620.043	13.29
620.377	13.52
620.71	13.22
621.043	12.89
621.377	13.36
621.71	13.45
622.043	13.62
622.376	13.23
622.709	13.98
623.043	13.71
623.376	14.04
623.709	13.79
624.041	13.67
624.374	13.78
624.707	13.79
625.04	14.13
625.373	14.06
625.705	14.3
626.038	14.21
626.37	13.93
626.703	13.83
627.035	14.3
627.368	14.27
627.7	13.92
628.032	14.14
628.365	14.1
628.697	13.95
629.029	14.51
629.361	14.31
629.693	14.49
630.025	14.46
630.357	14.6
630.689	14.66
631.021	14.56
631.353	14.71
631.684	14.8
632.016	14.34
632.348	14.66
632.679	14.71
633.011	14.78
633.342	15.13
633.674	14.4
634.005	14.74
634.336	14.77
634.668	14.77
634.999	15.15
635.33	14.92
635.661	14.82
635.992	14.93
636.323	15.1
636.654	14.97
636.985	15.05
637.316	15.23
637.647	15.38
637.977	15.05
638.308	15.34
638.639	15.3
638.969	15.23
639.3	15.61
639.63	15.45
639.961	15.31
640.291	16.26
640.622	15.54
640.952	15.61
641.282	15.45
641.612	15.67
641.943	15.97
642.273	15.5
642.603	16.01
642.933	15.72
643.263	16.04
643.592	15.88
643.922	16.48
644.252	16.04
644.582	16.38
644.911	15.85
645.241	16.21
645.571	15.45
645.9	16.91
646.23	16.25
646.559	16.43
646.888	16.29
647.218	16.4
647.547	16.51
647.876	16.68
648.205	16.37
648.534	16.41
648.863	17.15
649.192	16.38
649.521	16.53
649.85	16.88
650.179	16.53
650.508	16.7
650.837	17.17
651.165	16.57
651.494	16.88
651.822	16.72
652.151	17.2
652.479	17.16
652.808	16.91
653.136	16.72
653.465	17.03
653.793	17.48
654.121	17.05
654.449	17.33
654.777	17.17
655.105	17.39
655.433	17.31
655.761	16.97
656.089	17.56
656.417	17.38
656.745	18.02
657.073	17.95
657.4	18.04
657.728	17.57
658.056	17.34
658.383	18.1
658.711	17.6
659.038	17.73
659.365	17.62
659.693	18.13
660.02	17.94
660.347	17.83
660.674	18.01
661.001	17.62
661.329	17.93
661.656	17.93
661.982	18.55
662.309	18.05
662.636	18
662.963	18.7
663.29	18.27
663.616	18.14
663.943	18.49
664.27	18.12
664.596	18.81
664.923	19.29
665.249	18.83
665.576	18.47
665.902	18.53
666.228	18.35
666.554	18.09
666.881	18.88
667.207	18.41
667.533	18.93
667.859	18.41
668.185	19.31
668.511	18.38
668.837	18
669.162	18.88
669.488	19.11
669.814	19.35
670.139	19.35
670.465	19.35
670.791	19.52
671.116	19.45
671.442	19.45
671.767	19.75
672.092	19.52
672.418	19.7
672.743	19.56
673.068	19.41
673.393	19.73
673.718	20.38
674.043	19.33
674.368	20.07
674.693	19.65
675.018	19.9
675.343	19.36
675.667	19.78
675.992	19.33
676.317	20.43
676.641	20.37
676.966	20.58
677.29	19.67
677.615	20.17
677.939	19.84
678.264	20.8
678.588	20.23
678.912	19.79
679.236	20.79
679.56	20.1
679.885	20.59
680.209	20.17
680.532	20.25
680.856	20.88
681.18	20.44
681.504	20.42
681.828	20.65
682.152	20.34
682.475	20.43
682.799	20.97
683.122	20.86
683.446	20.44
683.769	20.83
684.093	20.15
684.416	20.32
684.739	21.32
685.062	21.62
685.386	20.9
685.709	20.64
686.032	21.6
686.355	21.05
686.678	21.37
687.001	21.1
687.324	21.21
687.646	21.11
687.969	21.13
688.292	21.72
688.614	22.06
688.937	21.71
689.26	21.47
689.582	21.61
689.904	21.17
690.227	21.59
690.549	21.97
690.871	22.03
691.194	22.21
691.516	21.78
691.838	21.35
692.16	21.73
692.482	22.06
692.804	21.8
693.126	21.8
693.448	21.85
693.769	22.11
694.091	21.84
694.413	22.22
694.735	22.29
695.056	22.04
695.378	22.74
695.699	22.98
696.021	21.64
696.342	22.3
696.663	21.6
696.984	22.13
697.306	22.28
697.627	22.19
697.948	22.45
698.269	22.6
698.59	23.66
698.911	22.82
699.232	23.44
699.553	22.91
699.873	23.01
700.194	22.91
700.515	23.07
700.835	22.71
701.156	23.05
701.477	22.92
701.797	23.07
702.117	23.32
702.438	23.29
702.758	23.51
703.078	23.83
703.398	23.61
703.719	22.76
704.039	23.71
704.359	23.77
704.679	23.94
704.999	23.26
705.319	23.15
705.638	23.27
705.958	24.64
706.278	23.28
706.597	23.62
706.917	23.77
707.237	23.84
707.556	23.98
707.876	23.41
708.195	23.65
708.514	23.72
708.834	23.99
709.153	24.45
709.472	24.26
709.791	23.82
710.11	23.53
710.429	24.04
710.748	24.52
711.067	25.15
711.386	24.85
711.705	24.42
712.023	23.22
712.342	24.13
712.661	24.89
712.979	25.29
713.298	24.91
713.616	24.97
713.935	25.56
714.253	25.39
714.572	24.62
714.89	24.96
715.208	24.6
715.526	25.02
715.844	25.22
716.162	24.11
716.48	25.84
716.798	25.34
717.116	25.98
717.434	25.43
717.752	24.76
718.069	25.13
718.387	25.26
718.705	25.1
719.022	25.22
719.34	24.53
719.657	25.38
719.975	27.26
720.292	26.21
720.609	25.17
720.927	25.38
721.244	26.09
721.561	26.25
721.878	26.89
722.195	27.1
722.512	26.51
722.829	26.07
723.146	25.04
723.463	25.18
723.779	26.72
724.096	26.18
724.413	26.02
724.729	27.09
725.046	26.83
725.362	24.86
725.679	26.56
725.995	25.98
726.311	27.39
726.628	26.19
726.944	26.15
727.26	27.33
727.576	27.21
727.892	27.02
728.208	25.21
728.524	26.73
728.84	26.79
729.156	27.16
729.472	28.11
729.787	27.33
730.103	26.29
730.419	27.63
730.734	26.62
731.05	27.06
731.365	27.03
731.681	27.03
731.996	26.96
732.311	28.23
732.626	26.41
732.942	26.96
733.257	27.52
733.572	27.37
733.887	27.05
734.202	27.3
734.517	27.51
734.832	27.57
735.146	27.64
735.461	27.52
735.776	27.91
736.091	27.68
736.405	28.3
736.72	27.86
737.034	26.23
737.349	26.73
737.663	27.73
737.977	28.23
738.292	26.84
738.606	27.72
738.92	28.38
739.234	29.03
739.548	27.21
739.862	29.01
740.176	26.4
740.49	29.17
740.804	28.05
741.117	27.73
741.431	26.55
741.745	26.55
742.058	27.96
742.372	27.14
742.685	28.04
742.999	27.64
743.312	26.62
743.626	29.53
743.939	28.52
744.252	28.92
744.565	28.5
744.878	27.64
745.191	28.59
745.505	27.8
745.817	30.49
746.13	29.72
746.443	27.65
746.756	29.18
747.069	29.43
747.381	30.05
747.694	28.28
748.007	28.72
748.319	28.57
748.632	28.8
748.944	30.1
749.256	30.72
749.569	29.99
749.881	28.47
750.193	30.09
750.505	30.15
750.817	27.57
751.129	30.56
751.441	28.45
751.753	31.3
752.065	29.77
752.377	30.36
752.689	30.16
753	27.92
753.312	29.12
753.624	31.72
753.935	29.24
754.247	32.87
754.558	30.31
754.869	31.73
755.181	30.44
755.492	31.11
755.803	29.21
756.114	29.44
756.425	30.73
756.736	29.6
757.047	30.04
757.358	30.6
757.669	31.26
757.98	31.22
758.291	31.89
758.601	31.12
758.912	30.89
759.223	32.85
759.533	30.84
759.844	29.05
760.154	32.98
760.464	29.36
760.775	32.37
761.085	29.61
761.395	31.93
761.705	30.51
762.016	30.86
762.326	31.9
762.636	31.84
762.945	29.54
763.255	31.24
763.565	31.48
763.875	31.56
764.185	31.8
764.494	30.95
764.804	30.67
765.113	30.61
765.423	32.08
765.732	31.53
766.042	31.91
766.351	31.41
766.66	31.02
766.97	31.11
767.279	30.17
767.588	32.33
767.897	32.61
768.206	31.69
768.515	30
768.824	31.97
769.133	29.99
769.441	33.88
769.75	31.66
770.059	31.98
770.367	32.28
770.676	31.59
770.984	31.44
771.293	29.18
771.601	31.53
771.91	34.8
772.218	30.63
772.526	29.97
772.834	30.81
773.142	32.13
773.45	30.09
773.758	31.97
774.066	28.97
774.374	31.31
774.682	30.38
774.99	32.61
775.298	33.86
775.605	31.33
775.913	30.38
776.22	30.55
776.528	35.41
776.835	33.93
777.143	31.9
777.45	31.27
777.757	34.34
778.065	31.17
778.372	32.22
778.679	32.44
778.986	31.84
779.293	34.27
779.6	32.53
779.907	30.21
780.214	33.58
780.52	36.1
780.827	35.37
781.134	29.57
781.44	33.21
781.747	35.87
782.053	33.72
782.36	30.38
782.666	32.97
782.973	33.8
783.279	34.92
783.585	33.31
783.891	32.25
784.197	32.66
784.503	32.62
784.809	38.23
785.115	29.29
785.421	32.19
785.727	31.76
786.033	28.94
786.339	32.54
786.644	35.1
786.95	34.05
787.255	36.1
787.561	36.53
787.866	33.53
788.172	37.57
788.477	33.45
788.782	32.23
789.088	35.17
789.393	34.69
789.698	34.45
790.003	38.28
790.308	34.62
790.613	34.18
790.918	37.23
791.223	33.87
791.527	33.24
791.832	33.79
792.137	37.94
792.441	36.9
792.746	35.91
793.05	32.96
793.355	37.31
793.659	36.23
793.963	36.5
794.268	31.95
794.572	32.58
794.876	34.95
795.18	27.3
795.484	32.05
795.788	33.88
796.092	35.93
796.396	34.47
796.7	35.38
797.004	39.07
797.307	34.23
797.611	36.07
797.915	32.94
798.218	33.74
798.522	34.32
798.825	35.69
799.128	38.46
799.432	33.63
799.735	37.13
800.038	34.62
800.341	31.65
800.644	33.27
800.947	37.73
801.25	36.27
801.553	37.49
801.856	34.97
802.159	32.18
802.462	39.36
802.764	35.78
803.067	35.75
803.37	38.62
803.672	37.42
803.975	32.19
804.277	37.78
804.579	38.36
804.882	36.5
805.184	33.41
805.486	38.14
805.788	38.46
806.09	34.57
806.392	35.93
806.694	38.5
806.996	37.67
807.298	35.92
807.6	37.12
807.902	36.56
808.203	39.73
808.505	31.94
808.807	37.11
809.108	33.24
809.409	41.27
809.711	37.82
810.012	37.08
810.313	35.69
810.615	39.63
810.916	35.08
811.217	38.38
811.518	38.16
811.819	34.71
812.12	33.73
812.421	29.44
812.722	29.66
813.023	39.84
813.323	41.76
813.624	35.05
813.925	31.92
814.225	33.47
814.526	39.74
814.826	39.98
815.126	37.26
815.427	37.52
815.727	35.55
816.027	33.89
816.327	33.4
816.627	32.93
816.927	30.89
817.227	39.85
817.527	35.78
817.827	42.12
818.127	40.51
818.427	37.05
818.727	40.43
819.026	38.78
819.326	40.24
819.625	37.89
819.925	33.47
820.224	35.15
820.524	36.04
820.823	33.32
821.122	40.94
821.421	34.54
821.72	39.17
822.019	36.79
822.318	36.98
822.617	38.79
822.916	35.98
823.215	39.3
823.514	37.54
823.813	38.81
824.111	38.59
824.41	40.27
824.709	39.99
825.007	39.72
825.306	39.69
825.604	40.65
825.902	39.74
826.201	40.06
826.499	39.69
826.797	38.78
827.095	38.21
827.393	37.97
827.691	39.45
827.989	41.92
828.287	41.71
828.585	37.05
828.882	39.5
829.18	36.74
829.478	39.48
829.775	41
830.073	39.14
830.37	38.14
830.668	37.43
830.965	37.65
831.263	39.85
831.56	41.27
831.857	38.82
832.154	44.38
832.451	37.19
832.748	38.29
833.045	42.51
833.342	40.7
833.639	41.5
833.936	39.14
834.232	40.46
834.529	41.74
834.826	40.1
835.122	39.06
835.419	35.75
835.715	38.87
836.012	42.42
836.308	41.86
836.604	36.96
836.901	45.24
837.197	40.71
837.493	42.87
837.789	41.97
838.085	38.78
838.381	38.19
838.677	37.3
838.972	36.65
839.268	36.23
839.564	39.76
839.86	32.12
840.155	40.26
840.451	34.57
840.746	32.38
841.042	35.82
841.337	41.99
841.632	50.77
841.928	44.17
842.223	35.62
842.518	46.3
842.813	36.47
843.108	29.18
843.403	49.82
843.698	40.02
843.993	39.21
844.287	38.26
844.582	46.1
844.877	46.6
845.171	33.03
845.466	34.68
845.761	40.93
846.055	42.59
846.349	26.78
846.644	44.96
846.938	39.87
847.232	34.23
847.526	44.14
847.82	31.24
848.114	22.81
848.408	31.29
848.702	39.27
848.996	31.06
849.29	35.4
849.584	23.94
849.877	40.95
850.171	42.05
850.465	43.74
850.758	31.34
851.052	34.8
851.345	37.75
851.638	48.33
851.932	34.71
852.225	33.39
852.518	46.17
852.811	38.29
853.104	28.62
853.397	36.41
853.69	45.37
853.983	26.09
854.276	41.68
854.569	48.53
854.861	39.36
855.154	46.82
855.447	47.25
855.739	32.06
856.032	51.22
856.324	29.81
856.616	35.6
856.909	36.5
857.201	41.52
857.493	35.45
857.785	36.91
858.077	45.21
858.369	29.21
858.661	56.33
858.953	43.39
859.245	22.2
859.537	56.95
859.829	60.99
860.12	25.04
860.412	29.54
860.703	43.37
860.995	38.66
861.286	53.3
861.578	27.34
861.869	27.82
862.16	34.17
862.452	58.61
862.743	52.23
863.034	54.54
863.325	21.19
863.616	18.57
863.907	43.28
864.198	41.84
864.488	31.57
864.779	40.41
865.07	38.2
865.36	37.43
865.651	35.72
865.941	49.17
866.232	32.96
866.522	42.42
866.813	61.05
867.103	30.87
867.393	31.96
867.683	33.32
867.973	34.25
868.263	59.06
868.553	39.13
868.843	25.27
869.133	45.52
869.423	43.15
869.713	39.58
870.002	37.68
870.292	46.77
870.582	13.96
870.871	21.28
871.161	33.74
871.45	56.86
871.739	-6.33
872.029	35.79
872.318	45.12
872.607	60.62
872.896	38.04
873.185	60.55
873.474	72.42
873.763	59.13
874.052	59.13
874.341	16
874.63	20.13
874.918	60.49
875.207	51.38
875.496	51.46
875.784	13.47
876.073	27.54
876.361	24.29
876.649	48.81
876.938	23.87
877.226	27.1
877.514	46.96
877.802	78.03
878.09	35.87
878.378	45.39
878.666	43.37
878.954	44.27
879.242	46.92
879.53	18.98
879.817	44.95
880.105	15.21
880.392	41.32
880.68	27.63
880.967	72.72
881.255	25.44
881.542	40.49
881.83	37.98
882.117	22.18
882.404	37.42
882.691	38.59
882.978	35.85
883.265	41.45
883.552	44.9
883.839	52.75
884.126	46.52
884.413	42.79
884.699	44.95
884.986	45.55
885.273	45.77
885.559	45.77
885.846	45.77
