Data from 0230_chest_Reflection__0__298.txt Node

Date: Fri Sep 22 23:05:26 CDT 2023
User: ToomeyLab
Spectrometer: FLMS14357
Trigger mode: 0
Integration Time (sec): 1.000000E-2
Scans to average: 100
Electric dark correction enabled: true
Nonlinearity correction enabled: false
Boxcar width: 0
XAxis mode: Wavelengths
Number of Pixels in Spectrum: 2048
>>>>>Begin Spectral Data<<<<<
189.047	-389.75
189.435	-389.75
189.823	-389.75
190.211	24.58
190.599	46.15
190.987	147.57
191.375	238.3
191.763	219.09
192.151	132.47
192.538	70.31
192.926	157.56
193.314	149.67
193.702	619.34
194.089	61.17
194.477	-145.86
194.864	13.27
195.252	185.63
195.639	922.96
196.027	46.6
196.414	157.96
196.801	-35.49
197.189	58.94
197.576	65.9
197.963	221.9
198.351	-16.37
198.738	7.64
199.125	-23.5
199.512	15.89
199.899	55.28
200.286	-0.26
200.673	-8.94
201.06	-5.55
201.447	29.64
201.833	4.75
202.22	22.72
202.607	11.25
202.994	35.57
203.38	9.44
203.767	4.63
204.154	31.45
204.54	26.18
204.927	-1.52
205.313	22.53
205.699	39.93
206.086	45.68
206.472	46.93
206.858	25.13
207.245	-28.66
207.631	49.78
208.017	27.59
208.403	16.24
208.789	10.2
209.175	49.72
209.561	34.88
209.947	11.73
210.333	23.72
210.719	23.79
211.105	26.09
211.491	13.21
211.876	27.25
212.262	9.8
212.648	29.48
213.034	24.28
213.419	5.67
213.805	29.76
214.19	23.71
214.576	36.34
214.961	22.66
215.346	25.59
215.732	34.98
216.117	-2.01
216.502	33.1
216.888	33.53
217.273	18.14
217.658	7.71
218.043	8.05
218.428	25.13
218.813	-9.17
219.198	-17.13
219.583	-1.29
219.968	3.03
220.353	33.7
220.738	1.21
221.122	12.06
221.507	11.38
221.892	-5.21
222.276	11.38
222.661	-15.44
223.046	24.06
223.43	30.77
223.815	0.39
224.199	14.56
224.583	13.82
224.968	14.57
225.352	-8.36
225.736	20.6
226.121	12
226.505	13.25
226.889	10.96
227.273	7.13
227.657	-0.03
228.041	0.99
228.425	9.77
228.809	2.45
229.193	7.8
229.577	9.42
229.961	4.09
230.344	7.1
230.728	4.41
231.112	6.58
231.495	5.49
231.879	5.66
232.263	5.73
232.646	6.14
233.03	6.82
233.413	6.22
233.797	6.47
234.18	5.6
234.563	8.68
234.946	7.41
235.33	2.06
235.713	4.98
236.096	4.25
236.479	7.06
236.862	7.28
237.245	6.09
237.628	6.56
238.011	5.27
238.394	6.17
238.777	7.5
239.16	7.03
239.543	6.44
239.925	7.31
240.308	5.3
240.691	5.19
241.073	6.46
241.456	5.86
241.838	5.86
242.221	4.39
242.603	6.15
242.986	5.98
243.368	5.32
243.75	5.73
244.133	6.39
244.515	5.31
244.897	4.77
245.279	5.36
245.661	5.06
246.043	5.78
246.425	4.93
246.807	5.71
247.189	4.37
247.571	5.92
247.953	5.78
248.335	5.71
248.717	5.26
249.098	5.31
249.48	5.09
249.862	5.23
250.243	5.17
250.625	5.51
251.006	4.71
251.388	5.4
251.769	5.2
252.151	5.03
252.532	4.67
252.913	4.86
253.295	6.56
253.676	6.15
254.057	6.12
254.438	5.4
254.819	4.59
255.2	4.78
255.581	4.84
255.962	6.07
256.343	4.85
256.724	4.19
257.105	5.68
257.486	5.52
257.867	6.2
258.247	6.37
258.628	5.51
259.009	4.68
259.389	4.68
259.77	4.79
260.15	5.18
260.531	4.3
260.911	4.54
261.292	4.91
261.672	4.62
262.052	4.75
262.432	4.71
262.813	4.74
263.193	3.98
263.573	5.05
263.953	4.78
264.333	5.55
264.713	4.43
265.093	4.81
265.473	5.19
265.853	4.88
266.233	4.56
266.612	4.45
266.992	5.45
267.372	5.93
267.752	4.83
268.131	4.98
268.511	4.45
268.89	5.19
269.27	4.77
269.649	4.47
270.029	4.5
270.408	5.14
270.787	4.4
271.167	4.49
271.546	4.67
271.925	4.37
272.304	4.32
272.683	4.44
273.062	4.83
273.441	4.72
273.82	5.36
274.199	4.55
274.578	4.76
274.957	4.31
275.336	4.08
275.715	4.57
276.093	4.57
276.472	4.55
276.851	4.45
277.229	3.3
277.608	4.76
277.986	4.98
278.365	4.48
278.743	4.67
279.122	4.2
279.5	5.13
279.878	4.58
280.257	4.83
280.635	4.4
281.013	4.71
281.391	3.99
281.769	4.85
282.147	4.55
282.525	4.25
282.903	4.84
283.281	4.23
283.659	4.27
284.037	4.32
284.415	4.92
284.792	4.32
285.17	4.58
285.548	5.12
285.925	4.49
286.303	4.12
286.68	4.57
287.058	4.72
287.435	4.52
287.813	4.22
288.19	4.32
288.567	4.48
288.945	4.26
289.322	4.59
289.699	4.45
290.076	4.36
290.453	4.23
290.83	3.94
291.207	4.42
291.584	4.44
291.961	3.86
292.338	4.46
292.715	4.6
293.092	4.48
293.469	4.25
293.845	4.41
294.222	4.38
294.599	3.89
294.975	4.92
295.352	4.39
295.728	4.77
296.105	4.9
296.481	4.71
296.858	4.73
297.234	4.37
297.61	4.2
297.986	4.42
298.363	4.77
298.739	4.35
299.115	4.73
299.491	4.55
299.867	4.62
300.243	4.31
300.619	4.46
300.995	3.8
301.371	4.78
301.746	4.56
302.122	4.71
302.498	4.02
302.874	4.35
303.249	4.74
303.625	4.34
304	4.63
304.376	5.18
304.751	4.27
305.127	4.7
305.502	5.12
305.878	4.18
306.253	4.21
306.628	4.02
307.003	4.5
307.378	4.4
307.754	3.73
308.129	4.23
308.504	4.38
308.879	4.23
309.254	4.52
309.629	4.06
310.003	4.94
310.378	4.96
310.753	4.12
311.128	4.25
311.502	4.35
311.877	4.1
312.252	4.29
312.626	4.41
313.001	4.46
313.375	4.42
313.75	4.88
314.124	4.86
314.498	4.09
314.873	4.26
315.247	4.42
315.621	4.81
315.995	4.44
316.369	4.34
316.743	4.19
317.117	5.4
317.491	5.33
317.865	4.01
318.239	4.73
318.613	5.33
318.987	4.27
319.361	4.56
319.734	3.92
320.108	4.49
320.482	4.12
320.855	4.61
321.229	5.5
321.602	5.03
321.976	4.47
322.349	4.67
322.723	4.48
323.096	4.37
323.469	4.32
323.843	4.58
324.216	5
324.589	4.59
324.962	4.21
325.335	4.51
325.708	4.58
326.081	4.92
326.454	3.61
326.827	4.33
327.2	4.63
327.573	4.89
327.945	4.52
328.318	4.54
328.691	4.73
329.063	4.52
329.436	5.12
329.809	4.42
330.181	4.6
330.553	4.25
330.926	4.25
331.298	4.81
331.671	4.64
332.043	4.14
332.415	4.48
332.787	4.82
333.159	3.95
333.532	4.37
333.904	4.49
334.276	4.18
334.648	4.19
335.02	4.56
335.391	4.5
335.763	4.48
336.135	4.29
336.507	4.78
336.879	3.91
337.25	4.37
337.622	4.53
337.993	4.62
338.365	4.79
338.736	4.29
339.108	5.25
339.479	4.56
339.851	4.27
340.222	4.68
340.593	4.12
340.964	4.53
341.336	4.71
341.707	4.61
342.078	4.62
342.449	4.46
342.82	3.89
343.191	4
343.562	4.06
343.933	4.56
344.303	4.19
344.674	4.76
345.045	4.67
345.416	4.87
345.786	3.99
346.157	4.42
346.527	4.36
346.898	4.25
347.268	4.7
347.639	4.47
348.009	4.61
348.38	4.52
348.75	4.68
349.12	4.75
349.49	4.83
349.861	4.32
350.231	4.69
350.601	4.73
350.971	4.4
351.341	4.53
351.711	4.18
352.081	4.4
352.45	4.53
352.82	4.74
353.19	4.81
353.56	4.53
353.929	5.03
354.299	4.43
354.669	4.46
355.038	4.3
355.408	4.68
355.777	4.79
356.147	4.26
356.516	4.57
356.885	4.39
357.254	4.79
357.624	4.27
357.993	4.39
358.362	4.37
358.731	4.35
359.1	4.4
359.469	4.82
359.838	4.27
360.207	4.43
360.576	4.59
360.945	4.36
361.314	4.46
361.682	4.66
362.051	4.65
362.42	4.47
362.788	4.4
363.157	4.47
363.525	4.67
363.894	4.59
364.262	4.45
364.631	4.51
364.999	4.47
365.367	4.53
365.735	4.42
366.104	4.66
366.472	4.74
366.84	4.38
367.208	4.8
367.576	4.67
367.944	4.61
368.312	4.6
368.68	4.54
369.048	4.74
369.416	4.8
369.783	4.35
370.151	4.55
370.519	4.45
370.886	4.65
371.254	4.59
371.621	4.58
371.989	4.63
372.356	4.55
372.724	4.89
373.091	4.67
373.458	4.34
373.826	4.7
374.193	4.81
374.56	4.66
374.927	4.7
375.294	4.45
375.661	4.21
376.028	4.46
376.395	4.77
376.762	4.48
377.129	4.64
377.496	4.86
377.863	4.67
378.229	4.54
378.596	4.57
378.963	4.89
379.329	4.48
379.696	4.97
380.062	4.18
380.429	4.65
380.795	4.59
381.161	4.78
381.528	4.48
381.894	4.06
382.26	4.4
382.626	4.69
382.993	4.74
383.359	4.37
383.725	4.68
384.091	4.45
384.457	4.45
384.823	4.69
385.188	4.79
385.554	4.61
385.92	4.71
386.286	4.7
386.651	4.37
387.017	4.71
387.383	4.67
387.748	4.54
388.114	4.47
388.479	4.68
388.845	4.27
389.21	4.33
389.575	4.77
389.94	4.57
390.306	4.53
390.671	4.8
391.036	4.27
391.401	4.29
391.766	4.63
392.131	4.38
392.496	4.59
392.861	4.59
393.226	4.87
393.591	4.64
393.956	4.76
394.32	4.58
394.685	4.6
395.05	4.81
395.414	4.76
395.779	4.44
396.143	4.83
396.508	4.81
396.872	4.63
397.236	4.83
397.601	4.69
397.965	4.68
398.329	4.76
398.694	4.56
399.058	4.43
399.422	4.56
399.786	4.55
400.15	4.87
400.514	4.77
400.878	4.75
401.242	4.8
401.605	4.72
401.969	4.36
402.333	4.68
402.697	4.54
403.06	4.57
403.424	4.53
403.787	4.75
404.151	4.89
404.514	4.89
404.878	4.67
405.241	4.87
405.604	4.67
405.968	4.82
406.331	4.69
406.694	4.69
407.057	4.7
407.42	4.7
407.783	4.58
408.146	4.52
408.509	4.58
408.872	4.59
409.235	4.55
409.598	4.66
409.961	4.76
410.323	4.69
410.686	4.81
411.049	4.81
411.411	4.88
411.774	4.75
412.136	4.53
412.499	4.61
412.861	4.79
413.223	4.82
413.586	4.86
413.948	4.8
414.31	4.68
414.672	4.74
415.035	4.5
415.397	4.82
415.759	5.04
416.121	4.64
416.483	4.76
416.845	4.53
417.206	4.71
417.568	4.62
417.93	4.54
418.292	4.53
418.653	4.55
419.015	4.67
419.377	4.52
419.738	4.81
420.1	4.69
420.461	4.68
420.822	4.56
421.184	4.63
421.545	4.74
421.906	4.68
422.267	4.62
422.629	4.71
422.99	4.65
423.351	4.58
423.712	4.54
424.073	4.51
424.434	4.71
424.795	4.63
425.155	4.63
425.516	4.68
425.877	4.68
426.238	4.46
426.598	4.56
426.959	4.61
427.32	4.63
427.68	4.58
428.041	4.67
428.401	4.7
428.761	4.84
429.122	4.78
429.482	4.83
429.842	4.67
430.202	4.62
430.563	4.76
430.923	4.84
431.283	4.82
431.643	4.81
432.003	4.82
432.363	4.93
432.722	4.91
433.082	4.94
433.442	4.65
433.802	4.81
434.161	4.85
434.521	4.77
434.881	4.89
435.24	4.72
435.6	4.62
435.959	4.61
436.319	4.74
436.678	4.79
437.037	4.72
437.396	4.55
437.756	4.75
438.115	4.85
438.474	4.83
438.833	4.89
439.192	4.76
439.551	4.83
439.91	4.97
440.269	4.92
440.628	4.56
440.987	4.88
441.345	4.82
441.704	4.93
442.063	4.74
442.421	4.83
442.78	4.77
443.138	4.72
443.497	4.74
443.855	4.67
444.214	4.69
444.572	4.82
444.93	4.77
445.288	4.79
445.647	4.95
446.005	4.79
446.363	4.73
446.721	4.81
447.079	4.72
447.437	4.82
447.795	4.88
448.153	4.71
448.51	4.64
448.868	4.69
449.226	4.74
449.584	4.67
449.941	4.79
450.299	4.93
450.656	4.84
451.014	4.95
451.371	4.87
451.729	4.87
452.086	4.76
452.443	4.85
452.801	5.1
453.158	4.81
453.515	4.96
453.872	5.07
454.229	4.86
454.586	4.81
454.943	4.86
455.3	4.87
455.657	4.85
456.014	4.89
456.371	4.92
456.727	4.99
457.084	4.95
457.441	4.76
457.797	5.05
458.154	4.94
458.51	4.69
458.867	4.83
459.223	4.9
459.58	4.89
459.936	5.05
460.292	4.91
460.648	4.94
461.005	4.87
461.361	4.98
461.717	4.68
462.073	4.84
462.429	4.72
462.785	4.8
463.141	4.84
463.496	4.99
463.852	4.93
464.208	4.78
464.564	5.05
464.919	4.9
465.275	4.95
465.631	5.06
465.986	5.08
466.342	4.98
466.697	5.09
467.052	4.87
467.408	5.03
467.763	4.94
468.118	5.06
468.473	4.99
468.829	4.87
469.184	4.96
469.539	5
469.894	4.93
470.249	5.03
470.603	4.93
470.958	5.1
471.313	5.05
471.668	5
472.023	4.99
472.377	5.2
472.732	5.02
473.086	5.16
473.441	4.97
473.795	5.01
474.15	4.81
474.504	4.93
474.859	5.16
475.213	4.98
475.567	4.91
475.921	5.05
476.275	4.8
476.63	4.82
476.984	4.9
477.338	5.1
477.692	5.11
478.045	5.05
478.399	5.07
478.753	4.96
479.107	5.15
479.461	4.96
479.814	5.08
480.168	5.03
480.521	5.06
480.875	5.17
481.228	4.96
481.582	4.92
481.935	5.04
482.289	5.12
482.642	4.93
482.995	4.98
483.348	5.06
483.701	4.93
484.055	4.98
484.408	4.89
484.761	4.93
485.114	4.86
485.466	4.83
485.819	4.79
486.172	4.71
486.525	4.71
486.878	4.69
487.23	4.77
487.583	4.81
487.936	4.84
488.288	4.95
488.641	4.87
488.993	4.96
489.345	4.81
489.698	4.85
490.05	4.89
490.402	4.82
490.754	4.78
491.107	4.78
491.459	4.94
491.811	4.95
492.163	4.95
492.515	4.98
492.866	4.94
493.218	4.98
493.57	4.92
493.922	4.92
494.274	4.91
494.625	4.93
494.977	5
495.328	5
495.68	5.03
496.031	5.05
496.383	5.21
496.734	5.16
497.086	5.17
497.437	5.16
497.788	5.19
498.139	5.06
498.49	5.26
498.842	5
499.193	5
499.544	5.2
499.894	5.08
500.245	5.06
500.596	5.16
500.947	5.14
501.298	5.21
501.648	5.32
501.999	5.36
502.35	5.12
502.7	5.23
503.051	5.17
503.401	5.18
503.752	5.29
504.102	5.25
504.452	5.23
504.803	5.13
505.153	5.24
505.503	5.24
505.853	5.39
506.203	5.04
506.553	5.41
506.903	5.26
507.253	5.18
507.603	5.29
507.953	5.3
508.303	5.25
508.652	5.21
509.002	5.41
509.352	5.25
509.701	5.33
510.051	5.26
510.4	5.33
510.75	5.33
511.099	5.15
511.449	5.33
511.798	5.25
512.147	5.34
512.496	5.34
512.846	5.26
513.195	5.43
513.544	5.39
513.893	5.39
514.242	5.25
514.591	5.37
514.939	5.36
515.288	5.26
515.637	5.36
515.986	5.41
516.334	5.42
516.683	5.33
517.032	5.53
517.38	5.27
517.729	5.39
518.077	5.46
518.426	5.42
518.774	5.45
519.122	5.46
519.47	5.46
519.819	5.39
520.167	5.48
520.515	5.41
520.863	5.39
521.211	5.42
521.559	5.37
521.907	5.37
522.255	5.53
522.602	5.51
522.95	5.46
523.298	5.55
523.645	5.58
523.993	5.54
524.341	5.45
524.688	5.48
525.036	5.6
525.383	5.67
525.73	5.62
526.078	5.59
526.425	5.61
526.772	5.73
527.119	5.59
527.466	5.51
527.814	5.45
528.161	5.51
528.508	5.52
528.854	5.54
529.201	5.58
529.548	5.51
529.895	5.51
530.242	5.41
530.588	5.42
530.935	5.39
531.282	5.41
531.628	5.47
531.975	5.4
532.321	5.47
532.667	5.55
533.014	5.64
533.36	5.67
533.706	5.6
534.052	5.71
534.399	5.68
534.745	5.69
535.091	5.6
535.437	5.58
535.783	5.53
536.129	5.64
536.474	5.68
536.82	5.64
537.166	5.83
537.512	5.72
537.857	5.82
538.203	5.81
538.549	5.7
538.894	5.75
539.239	5.76
539.585	5.76
539.93	5.98
540.276	5.83
540.621	5.94
540.966	5.94
541.311	5.91
541.656	5.93
542.001	6
542.346	6.02
542.691	5.99
543.036	5.96
543.381	5.83
543.726	5.81
544.071	5.83
544.415	5.8
544.76	5.85
545.105	5.78
545.449	5.99
545.794	6.05
546.138	6.05
546.483	6.09
546.827	6.01
547.171	6.12
547.516	6.09
547.86	6.19
548.204	6.13
548.548	6.22
548.892	6.15
549.236	6.13
549.58	6.13
549.924	6.26
550.268	6.29
550.612	6.27
550.956	6.33
551.3	6.39
551.643	6.45
551.987	6.5
552.33	6.46
552.674	6.35
553.017	6.25
553.361	6.38
553.704	6.35
554.048	6.49
554.391	6.52
554.734	6.49
555.077	6.36
555.42	6.4
555.764	6.45
556.107	6.5
556.45	6.44
556.793	6.37
557.135	6.49
557.478	6.65
557.821	6.86
558.164	6.7
558.507	6.81
558.849	6.46
559.192	6.73
559.534	6.69
559.877	6.76
560.219	6.75
560.562	6.84
560.904	6.79
561.246	7
561.589	6.83
561.931	6.76
562.273	6.7
562.615	6.7
562.957	6.81
563.299	6.88
563.641	6.91
563.983	6.96
564.325	6.87
564.667	6.96
565.008	7.02
565.35	7.15
565.692	7.06
566.033	6.99
566.375	7.09
566.716	6.93
567.058	7.06
567.399	7.12
567.741	7.07
568.082	7.05
568.423	7.21
568.764	7.27
569.105	7.05
569.447	7.18
569.788	7
570.129	7.21
570.47	7.3
570.811	7.3
571.151	7.28
571.492	7.27
571.833	7.24
572.174	7.39
572.514	7.4
572.855	7.31
573.195	7.2
573.536	7.45
573.876	7.31
574.217	7.46
574.557	7.29
574.898	7.51
575.238	7.39
575.578	7.49
575.918	7.51
576.258	7.48
576.598	7.49
576.938	7.55
577.278	7.67
577.618	7.58
577.958	7.54
578.298	7.65
578.638	7.54
578.977	7.55
579.317	7.58
579.657	7.81
579.996	7.76
580.336	7.83
580.675	8.04
581.014	7.72
581.354	7.72
581.693	7.91
582.032	7.94
582.372	8.01
582.711	8
583.05	8.26
583.389	8.11
583.728	8.14
584.067	8.09
584.406	8.03
584.745	7.83
585.083	8.25
585.422	8.26
585.761	8.14
586.1	8.22
586.438	8.23
586.777	8.3
587.115	8.56
587.454	8.14
587.792	8.58
588.13	8.47
588.469	8.46
588.807	8.32
589.145	8.52
589.483	8.18
589.821	8.41
590.159	8.41
590.497	8.73
590.835	8.54
591.173	8.41
591.511	8.71
591.849	8.91
592.187	8.52
592.524	8.77
592.862	8.46
593.2	8.65
593.537	8.59
593.875	8.71
594.212	8.81
594.55	9.1
594.887	8.7
595.224	8.96
595.561	8.94
595.899	9.08
596.236	9.32
596.573	9.02
596.91	8.88
597.247	8.87
597.584	9.26
597.921	9.01
598.258	9.19
598.594	9.14
598.931	8.98
599.268	9.1
599.604	9.32
599.941	9.19
600.277	9.02
600.614	9.3
600.95	9.21
601.287	9.25
601.623	9.31
601.959	9.54
602.296	9.47
602.632	9.21
602.968	9.33
603.304	9.49
603.64	9.55
603.976	9.69
604.312	9.75
604.648	9.62
604.984	9.65
605.319	9.59
605.655	9.6
605.991	9.53
606.326	9.52
606.662	9.57
606.998	9.8
607.333	9.78
607.668	9.79
608.004	9.93
608.339	9.59
608.674	9.73
609.01	9.72
609.345	9.87
609.68	10.09
610.015	9.82
610.35	9.94
610.685	10.17
611.02	10.02
611.355	10.14
611.689	10.08
612.024	9.82
612.359	9.94
612.694	10.17
613.028	10.26
613.363	10.02
613.697	10.08
614.032	10.22
614.366	10.19
614.7	10.17
615.035	10.42
615.369	10.1
615.703	10.53
616.037	10.46
616.371	10.46
616.705	10.86
617.039	10.64
617.373	10.47
617.707	10.51
618.041	10.69
618.375	10.4
618.709	10.5
619.042	10.76
619.376	10.81
619.71	10.69
620.043	10.32
620.377	10.51
620.71	10.96
621.043	10.81
621.377	10.78
621.71	10.98
622.043	10.88
622.376	11.23
622.709	11.12
623.043	11.01
623.376	11.06
623.709	11.35
624.041	11.13
624.374	11.44
624.707	11.35
625.04	11.47
625.373	10.97
625.705	11.1
626.038	11.19
626.37	11.36
626.703	11.35
627.035	11.4
627.368	11.53
627.7	11.99
628.032	11.44
628.365	11.59
628.697	11.73
629.029	11.37
629.361	11.72
629.693	11.66
630.025	11.73
630.357	11.53
630.689	11.86
631.021	11.77
631.353	11.78
631.684	12.04
632.016	12.14
632.348	11.95
632.679	11.74
633.011	12.12
633.342	12.05
633.674	12.03
634.005	11.84
634.336	11.94
634.668	12.02
634.999	11.93
635.33	12.1
635.661	12.16
635.992	12.22
636.323	12.11
636.654	11.88
636.985	11.91
637.316	12.18
637.647	12.09
637.977	11.75
638.308	12.29
638.639	12.37
638.969	12.62
639.3	12.21
639.63	13.1
639.961	12.36
640.291	12.6
640.622	12.86
640.952	12.82
641.282	12.72
641.612	12.59
641.943	12.77
642.273	13.02
642.603	12.42
642.933	12.9
643.263	12.54
643.592	12.52
643.922	13.28
644.252	12.89
644.582	13.06
644.911	13.1
645.241	13.26
645.571	12.95
645.9	13
646.23	13.1
646.559	13.16
646.888	13.57
647.218	13.34
647.547	13.23
647.876	13.05
648.205	13.14
648.534	13.59
648.863	13.09
649.192	13.04
649.521	13.07
649.85	13.55
650.179	13.56
650.508	13.18
650.837	13.69
651.165	13.4
651.494	13.48
651.822	13.65
652.151	13.37
652.479	13.71
652.808	13.61
653.136	13.92
653.465	13.89
653.793	13.8
654.121	13.87
654.449	13.5
654.777	14.15
655.105	13.77
655.433	13.85
655.761	14.27
656.089	13.82
656.417	13.78
656.745	14.13
657.073	13.86
657.4	14.48
657.728	14.52
658.056	14.22
658.383	14.33
658.711	14.27
659.038	13.76
659.365	14.19
659.693	13.95
660.02	14.77
660.347	14.51
660.674	14.17
661.001	14.18
661.329	14.27
661.656	14.69
661.982	14.4
662.309	14.7
662.636	14.6
662.963	14.32
663.29	14.77
663.616	14.49
663.943	15.04
664.27	14.88
664.596	14.8
664.923	14.71
665.249	14.39
665.576	13.88
665.902	14.88
666.228	14.56
666.554	14.41
666.881	15.13
667.207	14.73
667.533	15.06
667.859	14.93
668.185	15.14
668.511	15.68
668.837	14.98
669.162	15.03
669.488	15.49
669.814	15.06
670.139	15.33
670.465	15.36
670.791	15.59
671.116	14.98
671.442	15.92
671.767	15.22
672.092	15.31
672.418	16
672.743	15.62
673.068	15.86
673.393	15.15
673.718	15.53
674.043	15.88
674.368	16.25
674.693	15.64
675.018	15.76
675.343	15.89
675.667	15.65
675.992	15.63
676.317	16.81
676.641	15.7
676.966	16.36
677.29	15.69
677.615	15.97
677.939	16.42
678.264	16.19
678.588	16.11
678.912	15.74
679.236	16.17
679.56	16.04
679.885	16.43
680.209	17.1
680.532	15.93
680.856	16.01
681.18	16.4
681.504	16.42
681.828	16.81
682.152	16.34
682.475	17.14
682.799	16.63
683.122	16.22
683.446	16.6
683.769	16.79
684.093	17.06
684.416	16.68
684.739	16.74
685.062	17.06
685.386	16.91
685.709	16.59
686.032	16.31
686.355	17.2
686.678	17.69
687.001	17.01
687.324	17.33
687.646	16.74
687.969	18.12
688.292	17.38
688.614	17.2
688.937	17.09
689.26	17.58
689.582	17.24
689.904	17.04
690.227	18.4
690.549	18.04
690.871	17.03
691.194	17.18
691.516	16.65
691.838	17.93
692.16	17.37
692.482	17.68
692.804	16.35
693.126	16.95
693.448	17.56
693.769	17.72
694.091	17.49
694.413	17.9
694.735	18.36
695.056	17.88
695.378	18.18
695.699	17.52
696.021	17.98
696.342	18.59
696.663	17.84
696.984	17.87
697.306	17.36
697.627	17.35
697.948	18.03
698.269	18.68
698.59	17.92
698.911	18.74
699.232	18.36
699.553	18.28
699.873	18.69
700.194	18.23
700.515	17.77
700.835	18.46
701.156	18.38
701.477	18.45
701.797	18.23
702.117	18.92
702.438	18.79
702.758	18.01
703.078	18.58
703.398	18.72
703.719	18.68
704.039	19.39
704.359	18.06
704.679	18.75
704.999	19.34
705.319	18.89
705.638	18.92
705.958	19
706.278	19.81
706.597	19.25
706.917	19.09
707.237	19.14
707.556	18.4
707.876	18.92
708.195	19.66
708.514	19.41
708.834	19.54
709.153	19.25
709.472	18.85
709.791	19.87
710.11	20.61
710.429	20.15
710.748	19.23
711.067	20.13
711.386	19.69
711.705	19.6
712.023	19.52
712.342	19.38
712.661	19.47
712.979	20.14
713.298	20.52
713.616	19.54
713.935	19.59
714.253	20.71
714.572	19.8
714.89	20.89
715.208	20.07
715.526	19.19
715.844	20.35
716.162	19.22
716.48	20.75
716.798	19.64
717.116	21.78
717.434	20.3
717.752	21.37
718.069	20.24
718.387	19.65
718.705	20.77
719.022	20.34
719.34	21.19
719.657	19.81
719.975	22.14
720.292	19.93
720.609	21.7
720.927	21.51
721.244	21.9
721.561	21.21
721.878	21.55
722.195	20.05
722.512	21.59
722.829	20.37
723.146	20.22
723.463	21.51
723.779	20.27
724.096	20.88
724.413	22.49
724.729	21.26
725.046	20.86
725.362	21
725.679	20.86
725.995	21.44
726.311	20.12
726.628	20.63
726.944	21.27
727.26	20.85
727.576	20.96
727.892	20.94
728.208	23.8
728.524	21.27
728.84	20.84
729.156	21.17
729.472	22.85
729.787	21.95
730.103	21.6
730.419	23.51
730.734	21.85
731.05	21.16
731.365	22.27
731.681	22.88
731.996	22.36
732.311	23.12
732.626	22.28
732.942	21.62
733.257	21.34
733.572	20.93
733.887	22.63
734.202	22.68
734.517	23.36
734.832	22.19
735.146	22.2
735.461	22.1
735.776	21.83
736.091	21.97
736.405	23.86
736.72	22.22
737.034	21.33
737.349	21.99
737.663	21.47
737.977	22.78
738.292	21.89
738.606	22.35
738.92	22.43
739.234	22.87
739.548	24.3
739.862	21.22
740.176	22.48
740.49	22.28
740.804	23.18
741.117	21.69
741.431	22.94
741.745	23.47
742.058	22.84
742.372	21.67
742.685	24.15
742.999	23.28
743.312	24.17
743.626	22.96
743.939	22.93
744.252	23.71
744.565	23.24
744.878	24.09
745.191	23.45
745.505	24.76
745.817	23.86
746.13	24.82
746.443	23.67
746.756	23.32
747.069	22.57
747.381	19.3
747.694	22.2
748.007	24.74
748.319	24.15
748.632	23.43
748.944	24.6
749.256	26.09
749.569	23.34
749.881	23.91
750.193	22.85
750.505	24.78
750.817	23.43
751.129	23.98
751.441	26.01
751.753	24.01
752.065	25.87
752.377	23.16
752.689	23.63
753	23.56
753.312	24.01
753.624	22.85
753.935	25.23
754.247	24.25
754.558	24.66
754.869	25.19
755.181	23.04
755.492	23.48
755.803	26.55
756.114	24.23
756.425	26.42
756.736	24.66
757.047	23.3
757.358	25.66
757.669	24.48
757.98	25.16
758.291	23.26
758.601	25.16
758.912	24.13
759.223	26.69
759.533	24.58
759.844	26.23
760.154	24.63
760.464	24.57
760.775	25.32
761.085	25.63
761.395	24.96
761.705	25.78
762.016	24.31
762.326	26.25
762.636	25.21
762.945	24.09
763.255	24.87
763.565	25.67
763.875	25.33
764.185	27.29
764.494	26.45
764.804	23.52
765.113	26.03
765.423	25.77
765.732	26.15
766.042	25.61
766.351	25.48
766.66	25.64
766.97	26.99
767.279	24.84
767.588	26.24
767.897	26.11
768.206	25.44
768.515	24.53
768.824	25.24
769.133	25.86
769.441	25.92
769.75	28.05
770.059	28.68
770.367	25.45
770.676	27.12
770.984	25.41
771.293	27.97
771.601	26.83
771.91	27.08
772.218	24.35
772.526	27.53
772.834	27.28
773.142	28.53
773.45	27.19
773.758	25.58
774.066	27.81
774.374	23.57
774.682	28.3
774.99	27.53
775.298	26.56
775.605	26.42
775.913	29.26
776.22	29.33
776.528	24.6
776.835	25.85
777.143	27.42
777.45	27.53
777.757	26.08
778.065	25.68
778.372	30.65
778.679	28.61
778.986	27.58
779.293	24.43
779.6	25.3
779.907	28.78
780.214	29.83
780.52	25.39
780.827	29.66
781.134	29.01
781.44	28.67
781.747	28.31
782.053	27.38
782.36	27.63
782.666	27.38
782.973	30.93
783.279	22.84
783.585	29.3
783.891	28.34
784.197	29.37
784.503	28.7
784.809	26.3
785.115	28.23
785.421	31.94
785.727	29.23
786.033	26.62
786.339	27.1
786.644	28.9
786.95	29.4
787.255	31.13
787.561	28.92
787.866	27.51
788.172	29.9
788.477	29.15
788.782	28.01
789.088	29.07
789.393	25.95
789.698	26.95
790.003	28.94
790.308	28.56
790.613	29.81
790.918	27.95
791.223	27.1
791.527	26.43
791.832	30.58
792.137	27.17
792.441	28.86
792.746	31.61
793.05	28.13
793.355	30.15
793.659	30.28
793.963	27.08
794.268	31.45
794.572	27.6
794.876	24.34
795.18	28.8
795.484	23.63
795.788	27.6
796.092	28.14
796.396	31.78
796.7	30.55
797.004	26.76
797.307	25.47
797.611	31.05
797.915	26.8
798.218	29.92
798.522	29.88
798.825	30.35
799.128	31.32
799.432	26.33
799.735	30.33
800.038	30.04
800.341	29.92
800.644	31.29
800.947	32.76
801.25	33.62
801.553	27.48
801.856	33.96
802.159	28.89
802.462	27.77
802.764	34.15
803.067	26.47
803.37	33.11
803.672	30.48
803.975	28.78
804.277	30.47
804.579	33.49
804.882	32.02
805.184	29.45
805.486	29.37
805.788	30.4
806.09	29.75
806.392	31.94
806.694	26.95
806.996	27.46
807.298	28.42
807.6	33.06
807.902	30.79
808.203	28.59
808.505	34.73
808.807	31.97
809.108	33.98
809.409	32.09
809.711	30.13
810.012	34.48
810.313	27.83
810.615	30.3
810.916	28.56
811.217	34.45
811.518	30.31
811.819	34.2
812.12	31.81
812.421	27.83
812.722	33.05
813.023	28.61
813.323	32.17
813.624	32.13
813.925	34.03
814.225	32.19
814.526	32.42
814.826	32.17
815.126	36.98
815.427	30.12
815.727	29.14
816.027	30.23
816.327	28.26
816.627	36.71
816.927	36.84
817.227	31.31
817.527	30.37
817.827	25.41
818.127	31.34
818.427	35.61
818.727	31.18
819.026	32.26
819.326	28.97
819.625	26.11
819.925	33.42
820.224	29.69
820.524	30.04
820.823	26.78
821.122	26.72
821.421	39.05
821.72	34.3
822.019	29.4
822.318	31.29
822.617	35.61
822.916	30.51
823.215	36.02
823.514	30.25
823.813	35.16
824.111	35
824.41	32.05
824.709	33.01
825.007	32.58
825.306	31.42
825.604	31.37
825.902	32.51
826.201	32.71
826.499	31.87
826.797	33.23
827.095	32.98
827.393	32.45
827.691	32.9
827.989	30.8
828.287	33.31
828.585	32.72
828.882	33.13
829.18	32.85
829.478	32.8
829.775	31.98
830.073	32.16
830.37	32.63
830.668	31.63
830.965	32.86
831.263	31.7
831.56	31.7
831.857	34.86
832.154	35.14
832.451	34.32
832.748	34.66
833.045	33.98
833.342	31.17
833.639	28.15
833.936	36.94
834.232	27.32
834.529	32.23
834.826	35.61
835.122	33.69
835.419	27.56
835.715	32.85
836.012	30.65
836.308	35.73
836.604	37.32
836.901	33.23
837.197	34.11
837.493	34.43
837.789	33.81
838.085	29.1
838.381	34.4
838.677	32.07
838.972	30.48
839.268	34.77
839.564	36.98
839.86	36.94
840.155	31.8
840.451	33
840.746	33.54
841.042	34.82
841.337	41.99
841.632	40.15
841.928	34.83
842.223	40.17
842.518	33.2
842.813	35.54
843.108	31.72
843.403	31.01
843.698	35.52
843.993	32.55
844.287	37.8
844.582	37.54
844.877	29.75
845.171	40.38
845.466	29.45
845.761	33.05
846.055	32.84
846.349	34.24
846.644	31.24
846.938	28.89
847.232	33.42
847.526	48.94
847.82	27.28
848.114	35.59
848.408	29.09
848.702	37.5
848.996	34.46
849.29	38.58
849.584	47.8
849.877	31.25
850.171	32.05
850.465	32.06
850.758	39.05
851.052	31.83
851.345	51.92
851.638	32.35
851.932	46.13
852.225	32.06
852.518	33.69
852.811	42.8
853.104	48.81
853.397	39.62
853.69	16.47
853.983	37.37
854.276	32.21
854.569	39.22
854.861	43.16
855.154	44.46
855.447	41.01
855.739	24.22
856.032	31.49
856.324	45.36
856.616	41.04
856.909	47.71
857.201	43.7
857.493	41.95
857.785	48.43
858.077	32.79
858.369	35.2
858.661	46.44
858.953	40.65
859.245	55.2
859.537	21.39
859.829	18.27
860.12	48.77
860.412	24.38
860.703	32.92
860.995	14.3
861.286	49.73
861.578	34.54
861.869	37.72
862.16	45.35
862.452	19.77
862.743	60.23
863.034	54.78
863.325	35.08
863.616	37.39
863.907	44.76
864.198	31.42
864.488	12.75
864.779	31.8
865.07	20.1
865.36	18.39
865.651	45.2
865.941	44.82
866.232	10.97
866.522	20.4
866.813	31.62
867.103	51.75
867.393	39.88
867.683	39.81
867.973	27.71
868.263	4.24
868.553	21.43
868.843	59.18
869.133	41.85
869.423	53.66
869.713	36.03
870.002	39.43
870.292	31.82
870.582	33.78
870.871	21.82
871.161	36.65
871.45	67.41
871.739	46.66
872.029	55.94
872.318	35
872.607	44.82
872.896	36.02
873.185	47.52
873.474	66.02
873.763	34.45
874.052	39.2
874.341	42.98
874.63	60.78
874.918	35.13
875.207	59.23
875.496	55.85
875.784	29.98
876.073	43.21
876.361	50.49
876.649	-1.36
876.938	66.33
877.226	34.19
877.514	36.22
877.802	36.06
878.09	39.9
878.378	23.52
878.666	48.31
878.954	36.11
879.242	56.12
879.53	26.22
879.817	32.11
880.105	21.1
880.392	40.93
880.68	28.71
880.967	39.84
881.255	41.63
881.542	13.74
881.83	59.46
882.117	34.5
882.404	37.34
882.691	40.38
882.978	49.88
883.265	26.81
883.552	43.8
883.839	20.22
884.126	46.4
884.413	50.01
884.699	33.06
884.986	45.34
885.273	37.74
885.559	37.74
885.846	37.74
