Data from 0230_crown_Reflection__1__304.txt Node

Date: Fri Sep 22 23:07:12 CDT 2023
User: ToomeyLab
Spectrometer: FLMS14357
Trigger mode: 0
Integration Time (sec): 1.000000E-2
Scans to average: 100
Electric dark correction enabled: true
Nonlinearity correction enabled: false
Boxcar width: 0
XAxis mode: Wavelengths
Number of Pixels in Spectrum: 2048
>>>>>Begin Spectral Data<<<<<
189.047	-591.1
189.435	-591.1
189.823	-591.1
190.211	115.65
190.599	217.92
190.987	172.51
191.375	16.88
191.763	-24.14
192.151	10.63
192.538	33.39
192.926	45.52
193.314	82.01
193.702	866.3
194.089	51.99
194.477	-28.68
194.864	16.38
195.252	-17.77
195.639	-24.17
196.027	71.28
196.414	59.73
196.801	61.92
197.189	176.01
197.576	51.47
197.963	146.03
198.351	29.19
198.738	49.83
199.125	5.03
199.512	-6.1
199.899	32.18
200.286	-15.91
200.673	12.89
201.06	-8.01
201.447	23.1
201.833	-74.51
202.22	7.45
202.607	24.18
202.994	22
203.38	7.39
203.767	-22.63
204.154	39.04
204.54	18.51
204.927	-25.43
205.313	30.09
205.699	59.59
206.086	48.86
206.472	44.65
206.858	46.97
207.245	-5.61
207.631	11.29
208.017	-0.9
208.403	24.32
208.789	25.3
209.175	31.56
209.561	35.13
209.947	32.81
210.333	17.96
210.719	-20.1
211.105	4.44
211.491	43.87
211.876	37.45
212.262	0.18
212.648	-11.7
213.034	32.55
213.419	-5.24
213.805	3.97
214.19	5.16
214.576	8.45
214.961	-1.56
215.346	-23.32
215.732	17.49
216.117	4.86
216.502	18.53
216.888	-3.14
217.273	-5.99
217.658	-6.83
218.043	9.58
218.428	32.47
218.813	4.54
219.198	-7.57
219.583	-16.74
219.968	-6.72
220.353	28.29
220.738	1.74
221.122	13.4
221.507	7.66
221.892	-9.04
222.276	6.14
222.661	-15.93
223.046	29.59
223.43	14.49
223.815	11.46
224.199	0.28
224.583	18.79
224.968	17.5
225.352	11.4
225.736	16.14
226.121	9.51
226.505	4.58
226.889	5.78
227.273	6.07
227.657	15.72
228.041	8.15
228.425	15.34
228.809	8.02
229.193	8.89
229.577	9.36
229.961	11.19
230.344	12.36
230.728	8.32
231.112	10.68
231.495	9.97
231.879	10.22
232.263	9.98
232.646	10.2
233.03	10.51
233.413	10.25
233.797	9.52
234.18	8.17
234.563	11.39
234.946	10.75
235.33	6.41
235.713	5.73
236.096	9.64
236.479	7.56
236.862	10.98
237.245	11.26
237.628	8.22
238.011	10.18
238.394	10.01
238.777	12.69
239.16	10.51
239.543	11.08
239.925	8.82
240.308	11.22
240.691	9.73
241.073	11.82
241.456	9.56
241.838	8.34
242.221	8.58
242.603	10.31
242.986	8.98
243.368	8.4
243.75	10.3
244.133	10.02
244.515	9.36
244.897	8.93
245.279	9.22
245.661	9.12
246.043	9.38
246.425	8.6
246.807	9.1
247.189	6.9
247.571	9.09
247.953	9.13
248.335	9.39
248.717	9.19
249.098	8.96
249.48	8.45
249.862	8.79
250.243	8.6
250.625	9.06
251.006	8.62
251.388	8.84
251.769	9.31
252.151	8.34
252.532	8.85
252.913	8.5
253.295	9.32
253.676	8.15
254.057	8.84
254.438	9.13
254.819	8.08
255.2	8.17
255.581	8.04
255.962	9.17
256.343	7.82
256.724	6.64
257.105	8.09
257.486	8.37
257.867	7.95
258.247	7.62
258.628	8.36
259.009	7.97
259.389	8.54
259.77	8.39
260.15	7.64
260.531	7.62
260.911	7.51
261.292	7.62
261.672	7.54
262.052	7.96
262.432	7.65
262.813	7.85
263.193	7.38
263.573	8.19
263.953	7.89
264.333	7.98
264.713	7.88
265.093	6.87
265.473	7.1
265.853	7.38
266.233	7.88
266.612	7.05
266.992	7.78
267.372	7.19
267.752	8.22
268.131	7.83
268.511	6.41
268.89	7.93
269.27	6.9
269.649	7.75
270.029	7.16
270.408	7.56
270.787	7.4
271.167	7.45
271.546	6.92
271.925	6.93
272.304	6.53
272.683	7.1
273.062	7.34
273.441	7.3
273.82	7.4
274.199	7.45
274.578	7.19
274.957	7.15
275.336	7.04
275.715	6.78
276.093	6.79
276.472	7.14
276.851	6.81
277.229	6.92
277.608	7.12
277.986	6.73
278.365	7.56
278.743	6.77
279.122	7.64
279.5	7.14
279.878	6.8
280.257	7.7
280.635	6.82
281.013	7.46
281.391	6.25
281.769	6.39
282.147	6.48
282.525	6.21
282.903	7.26
283.281	6.53
283.659	6.19
284.037	6.43
284.415	6.89
284.792	7.02
285.17	6.49
285.548	6.62
285.925	6.87
286.303	6.21
286.68	6.15
287.058	6.28
287.435	6.62
287.813	6.39
288.19	5.98
288.567	6.52
288.945	6.27
289.322	6.3
289.699	6.38
290.076	6.66
290.453	6.05
290.83	5.55
291.207	6.36
291.584	6.13
291.961	6.36
292.338	6.29
292.715	6.39
293.092	6.19
293.469	6.22
293.845	6.23
294.222	6.46
294.599	6.3
294.975	5.97
295.352	5.99
295.728	5.83
296.105	6.26
296.481	5.37
296.858	5.7
297.234	5.75
297.61	6.28
297.986	5.9
298.363	5.88
298.739	5.88
299.115	6.08
299.491	6
299.867	5.86
300.243	5.75
300.619	6.44
300.995	5.98
301.371	6.35
301.746	5.91
302.122	5.53
302.498	5.67
302.874	6.01
303.249	5.99
303.625	5.64
304	5.71
304.376	6.17
304.751	5.73
305.127	6.13
305.502	6.52
305.878	5.43
306.253	5.91
306.628	5.6
307.003	5.95
307.378	5.38
307.754	5.88
308.129	5.43
308.504	5.41
308.879	5.88
309.254	5.81
309.629	5.72
310.003	5.94
310.378	6.1
310.753	5.59
311.128	5.9
311.502	5.91
311.877	5.25
312.252	5.5
312.626	5.35
313.001	5.85
313.375	5.7
313.75	6.26
314.124	6
314.498	5.53
314.873	5.41
315.247	6.26
315.621	5.52
315.995	5.76
316.369	5.71
316.743	5.61
317.117	5.65
317.491	6
317.865	5.49
318.239	5.68
318.613	5.8
318.987	5.51
319.361	5.41
319.734	5.15
320.108	5.4
320.482	5.26
320.855	5.55
321.229	5.62
321.602	5.18
321.976	5.62
322.349	5.24
322.723	5.44
323.096	5.05
323.469	5.72
323.843	5.45
324.216	5.31
324.589	5.62
324.962	4.68
325.335	5.15
325.708	5.49
326.081	6.28
326.454	5.31
326.827	5.24
327.2	5.39
327.573	5.77
327.945	5.49
328.318	5.38
328.691	5.64
329.063	5.47
329.436	5.95
329.809	5.46
330.181	5.88
330.553	5.03
330.926	5.34
331.298	5.9
331.671	5.61
332.043	4.34
332.415	5.22
332.787	5.5
333.159	5.3
333.532	5.01
333.904	5.81
334.276	5.34
334.648	5.3
335.02	5.05
335.391	5.39
335.763	5.83
336.135	5.24
336.507	5.62
336.879	4.92
337.25	5.55
337.622	5.85
337.993	5.41
338.365	5.66
338.736	5.75
339.108	5.68
339.479	5.58
339.851	5.47
340.222	5.46
340.593	5.38
340.964	5.48
341.336	5.41
341.707	5.63
342.078	5.73
342.449	5.51
342.82	5.36
343.191	5.04
343.562	5.08
343.933	5.29
344.303	5.52
344.674	5.6
345.045	5.61
345.416	6.08
345.786	5.15
346.157	5.59
346.527	5.31
346.898	5.48
347.268	5.31
347.639	5.47
348.009	5.89
348.38	5.89
348.75	5.77
349.12	5.38
349.49	5.83
349.861	5.75
350.231	5.86
350.601	5.2
350.971	5.53
351.341	5.35
351.711	4.99
352.081	5.33
352.45	5.53
352.82	5.63
353.19	6.08
353.56	5.62
353.929	5.6
354.299	5.79
354.669	5.35
355.038	5.52
355.408	5.68
355.777	5.97
356.147	5.5
356.516	5.8
356.885	5.64
357.254	6.14
357.624	5.55
357.993	5.88
358.362	5.61
358.731	5.62
359.1	5.63
359.469	6.08
359.838	5.27
360.207	5.53
360.576	5.62
360.945	5.45
361.314	5.63
361.682	6.07
362.051	6.2
362.42	5.73
362.788	5.67
363.157	6.19
363.525	5.54
363.894	5.5
364.262	5.77
364.631	5.49
364.999	5.63
365.367	5.68
365.735	5.48
366.104	5.73
366.472	6
366.84	5.68
367.208	6.1
367.576	6.15
367.944	5.91
368.312	5.75
368.68	5.51
369.048	5.84
369.416	5.69
369.783	5.64
370.151	5.74
370.519	5.74
370.886	6.06
371.254	5.89
371.621	5.83
371.989	5.83
372.356	5.61
372.724	6.18
373.091	5.88
373.458	6.18
373.826	6.01
374.193	5.99
374.56	6.25
374.927	6.07
375.294	5.93
375.661	5.81
376.028	6.2
376.395	6.26
376.762	5.97
377.129	6.39
377.496	6.28
377.863	6.07
378.229	6.14
378.596	6
378.963	6.16
379.329	5.96
379.696	6.33
380.062	5.95
380.429	5.92
380.795	6.33
381.161	6.01
381.528	6.15
381.894	5.83
382.26	5.99
382.626	6.44
382.993	6.3
383.359	5.88
383.725	5.89
384.091	6.27
384.457	6.04
384.823	6.1
385.188	6.53
385.554	6.18
385.92	6.32
386.286	5.94
386.651	6.09
387.017	6.44
387.383	6.2
387.748	6.12
388.114	6.03
388.479	6.18
388.845	5.97
389.21	5.99
389.575	6.65
389.94	6.24
390.306	6.4
390.671	6.49
391.036	6.06
391.401	6.1
391.766	6.34
392.131	6.11
392.496	6.01
392.861	6.34
393.226	6.27
393.591	6.75
393.956	6.18
394.32	6.28
394.685	6.29
395.05	6.61
395.414	6.4
395.779	6.2
396.143	6.41
396.508	6.32
396.872	6.21
397.236	6.26
397.601	5.94
397.965	6.46
398.329	6.15
398.694	6.36
399.058	6.22
399.422	6.33
399.786	6.34
400.15	6.47
400.514	6.56
400.878	6.59
401.242	6.43
401.605	6.37
401.969	6.28
402.333	6.42
402.697	6.25
403.06	6.4
403.424	6.48
403.787	6.3
404.151	6.57
404.514	6.46
404.878	6.78
405.241	6.93
405.604	6.42
405.968	6.67
406.331	6.67
406.694	6.45
407.057	6.24
407.42	6.61
407.783	6.64
408.146	6.51
408.509	6.44
408.872	6.41
409.235	6.62
409.598	6.43
409.961	6.62
410.323	6.58
410.686	6.47
411.049	6.49
411.411	6.77
411.774	6.55
412.136	6.59
412.499	6.55
412.861	6.42
413.223	6.66
413.586	6.57
413.948	6.62
414.31	6.33
414.672	6.62
415.035	6.58
415.397	6.8
415.759	6.84
416.121	6.44
416.483	6.56
416.845	6.53
417.206	6.78
417.568	6.58
417.93	6.73
418.292	6.54
418.653	6.56
419.015	6.45
419.377	6.53
419.738	6.58
420.1	6.31
420.461	6.45
420.822	6.58
421.184	6.73
421.545	6.58
421.906	6.54
422.267	6.62
422.629	6.68
422.99	6.52
423.351	6.46
423.712	6.42
424.073	6.44
424.434	6.6
424.795	6.57
425.155	6.64
425.516	6.63
425.877	6.58
426.238	6.45
426.598	6.46
426.959	6.53
427.32	6.52
427.68	6.51
428.041	6.45
428.401	6.63
428.761	6.65
429.122	6.59
429.482	6.63
429.842	6.52
430.202	6.61
430.563	6.93
430.923	6.72
431.283	6.81
431.643	6.97
432.003	6.81
432.363	6.79
432.722	6.74
433.082	6.76
433.442	6.8
433.802	6.84
434.161	6.69
434.521	6.75
434.881	6.76
435.24	6.82
435.6	6.74
435.959	6.78
436.319	6.69
436.678	6.9
437.037	6.85
437.396	6.65
437.756	6.78
438.115	6.81
438.474	6.85
438.833	6.89
439.192	6.84
439.551	6.79
439.91	6.97
440.269	6.87
440.628	6.66
440.987	6.75
441.345	7.05
441.704	6.81
442.063	6.77
442.421	6.79
442.78	6.81
443.138	6.66
443.497	6.72
443.855	6.84
444.214	6.67
444.572	6.88
444.93	6.76
445.288	6.81
445.647	6.93
446.005	6.69
446.363	6.87
446.721	6.75
447.079	6.71
447.437	6.75
447.795	6.96
448.153	6.66
448.51	6.64
448.868	6.61
449.226	6.65
449.584	6.69
449.941	6.75
450.299	6.81
450.656	6.84
451.014	6.91
451.371	6.79
451.729	6.83
452.086	6.74
452.443	7
452.801	6.98
453.158	6.88
453.515	7.01
453.872	6.99
454.229	6.78
454.586	6.89
454.943	6.97
455.3	6.87
455.657	6.87
456.014	6.87
456.371	6.99
456.727	7.08
457.084	6.99
457.441	6.84
457.797	7.03
458.154	6.86
458.51	6.84
458.867	7.07
459.223	6.91
459.58	6.88
459.936	6.89
460.292	6.87
460.648	7.18
461.005	6.82
461.361	7.13
461.717	6.7
462.073	6.74
462.429	6.67
462.785	6.72
463.141	6.81
463.496	6.9
463.852	6.87
464.208	6.81
464.564	7.03
464.919	6.83
465.275	7.11
465.631	7.03
465.986	6.91
466.342	7.05
466.697	7.11
467.052	6.9
467.408	7.02
467.763	6.91
468.118	7.15
468.473	6.87
468.829	6.84
469.184	7.01
469.539	7
469.894	6.88
470.249	6.94
470.603	6.92
470.958	6.97
471.313	7.14
471.668	6.99
472.023	7.08
472.377	7.1
472.732	6.84
473.086	7.19
473.441	6.8
473.795	7.12
474.15	6.93
474.504	6.83
474.859	7.02
475.213	6.81
475.567	6.86
475.921	7.16
476.275	7.07
476.63	6.98
476.984	6.86
477.338	7.07
477.692	7.11
478.045	7.1
478.399	7.12
478.753	6.94
479.107	6.94
479.461	6.83
479.814	7.05
480.168	7
480.521	6.96
480.875	7.06
481.228	6.99
481.582	6.92
481.935	6.87
482.289	6.91
482.642	6.98
482.995	6.9
483.348	6.94
483.701	6.89
484.055	6.95
484.408	6.81
484.761	6.83
485.114	6.69
485.466	6.64
485.819	6.56
486.172	6.54
486.525	6.52
486.878	6.47
487.23	6.55
487.583	6.62
487.936	6.62
488.288	6.75
488.641	6.75
488.993	6.66
489.345	6.63
489.698	6.66
490.05	6.61
490.402	6.56
490.754	6.55
491.107	6.63
491.459	6.69
491.811	6.7
492.163	6.75
492.515	6.82
492.866	6.77
493.218	6.81
493.57	6.7
493.922	6.6
494.274	6.66
494.625	6.66
494.977	6.73
495.328	6.77
495.68	6.79
496.031	6.7
496.383	7
496.734	6.78
497.086	6.85
497.437	7.01
497.788	6.83
498.139	6.94
498.49	6.99
498.842	6.82
499.193	6.74
499.544	6.94
499.894	6.89
500.245	6.88
500.596	6.78
500.947	6.84
501.298	6.86
501.648	6.87
501.999	6.93
502.35	6.89
502.7	7
503.051	6.9
503.401	6.92
503.752	6.85
504.102	6.85
504.452	6.98
504.803	6.92
505.153	6.85
505.503	6.8
505.853	6.84
506.203	6.71
506.553	6.84
506.903	6.84
507.253	6.81
507.603	6.86
507.953	6.9
508.303	6.81
508.652	6.83
509.002	6.92
509.352	6.85
509.701	6.76
510.051	6.8
510.4	6.76
510.75	6.77
511.099	6.69
511.449	6.87
511.798	6.81
512.147	6.8
512.496	6.72
512.846	6.73
513.195	6.77
513.544	6.8
513.893	6.82
514.242	6.77
514.591	6.86
514.939	6.82
515.288	6.55
515.637	6.71
515.986	6.74
516.334	6.76
516.683	6.81
517.032	6.9
517.38	6.76
517.729	6.71
518.077	6.76
518.426	6.72
518.774	6.69
519.122	6.81
519.47	6.63
519.819	6.65
520.167	6.68
520.515	6.64
520.863	6.61
521.211	6.57
521.559	6.69
521.907	6.55
522.255	6.7
522.602	6.76
522.95	6.62
523.298	6.74
523.645	6.74
523.993	6.71
524.341	6.76
524.688	6.69
525.036	6.74
525.383	6.66
525.73	6.8
526.078	6.7
526.425	6.61
526.772	6.7
527.119	6.54
527.466	6.52
527.814	6.44
528.161	6.46
528.508	6.53
528.854	6.59
529.201	6.54
529.548	6.47
529.895	6.42
530.242	6.36
530.588	6.31
530.935	6.21
531.282	6.22
531.628	6.27
531.975	6.27
532.321	6.23
532.667	6.33
533.014	6.4
533.36	6.47
533.706	6.43
534.052	6.58
534.399	6.4
534.745	6.44
535.091	6.32
535.437	6.3
535.783	6.24
536.129	6.31
536.474	6.33
536.82	6.29
537.166	6.44
537.512	6.47
537.857	6.48
538.203	6.47
538.549	6.45
538.894	6.4
539.239	6.31
539.585	6.35
539.93	6.4
540.276	6.4
540.621	6.38
540.966	6.51
541.311	6.42
541.656	6.31
542.001	6.44
542.346	6.46
542.691	6.45
543.036	6.3
543.381	6.21
543.726	6.15
544.071	6.2
544.415	6.14
544.76	6.18
545.105	6.12
545.449	6.11
545.794	6.22
546.138	6.3
546.483	6.33
546.827	6.28
547.171	6.19
547.516	6.41
547.86	6.3
548.204	6.38
548.548	6.27
548.892	6.39
549.236	6.31
549.58	6.28
549.924	6.38
550.268	6.36
550.612	6.42
550.956	6.32
551.3	6.51
551.643	6.51
551.987	6.57
552.33	6.61
552.674	6.34
553.017	6.37
553.361	6.51
553.704	6.35
554.048	6.47
554.391	6.36
554.734	6.37
555.077	6.28
555.42	6.34
555.764	6.16
556.107	6.3
556.45	6.32
556.793	6.16
557.135	6.39
557.478	6.22
557.821	6.33
558.164	6.59
558.507	6.45
558.849	6.33
559.192	6.3
559.534	6.51
559.877	6.21
560.219	6.34
560.562	6.34
560.904	6.47
561.246	6.46
561.589	6.16
561.931	6.2
562.273	6.22
562.615	6.31
562.957	6.18
563.299	6.43
563.641	6.25
563.983	6.3
564.325	6.31
564.667	6.39
565.008	6.26
565.35	6.27
565.692	6.22
566.033	6.29
566.375	6.3
566.716	6.29
567.058	6.35
567.399	6.19
567.741	6.3
568.082	6
568.423	6.24
568.764	6.39
569.105	5.94
569.447	6.12
569.788	6.06
570.129	6.09
570.47	6.2
570.811	6.14
571.151	6.3
571.492	6.08
571.833	6.08
572.174	6.15
572.514	6.16
572.855	6.12
573.195	5.93
573.536	6
573.876	6.07
574.217	6.04
574.557	5.92
574.898	6.19
575.238	6.01
575.578	6.06
575.918	6.04
576.258	5.99
576.598	5.87
576.938	6.04
577.278	6.19
577.618	5.98
577.958	6.12
578.298	6.14
578.638	6
578.977	6.12
579.317	6
579.657	6.03
579.996	6.12
580.336	6.05
580.675	6.17
581.014	5.91
581.354	5.87
581.693	6.05
582.032	6.11
582.372	6.08
582.711	6.03
583.05	6.03
583.389	5.93
583.728	6.03
584.067	6.13
584.406	6.02
584.745	5.93
585.083	6.02
585.422	6.12
585.761	5.99
586.1	6
586.438	6.09
586.777	5.96
587.115	6.14
587.454	5.7
587.792	6.12
588.13	5.96
588.469	5.84
588.807	6.31
589.145	6.03
589.483	5.97
589.821	6.08
590.159	5.89
590.497	6.34
590.835	5.9
591.173	5.85
591.511	5.86
591.849	6.12
592.187	6.04
592.524	6.03
592.862	6.02
593.2	5.87
593.537	5.83
593.875	5.84
594.212	5.92
594.55	6
594.887	5.89
595.224	6.07
595.561	5.88
595.899	6.1
596.236	6.01
596.573	6.12
596.91	5.99
597.247	5.79
597.584	5.99
597.921	6.07
598.258	5.82
598.594	5.9
598.931	5.94
599.268	5.79
599.604	5.97
599.941	5.83
600.277	5.67
600.614	5.83
600.95	5.88
601.287	5.78
601.623	5.81
601.959	5.97
602.296	5.93
602.632	5.72
602.968	6.04
603.304	5.87
603.64	5.77
603.976	6.08
604.312	5.7
604.648	5.77
604.984	6.04
605.319	5.82
605.655	5.76
605.991	5.69
606.326	5.87
606.662	5.61
606.998	5.79
607.333	5.97
607.668	5.58
608.004	5.69
608.339	5.63
608.674	5.91
609.01	5.79
609.345	5.71
609.68	5.96
610.015	5.86
610.35	5.83
610.685	5.77
611.02	5.83
611.355	5.97
611.689	5.95
612.024	5.82
612.359	5.75
612.694	5.87
613.028	5.63
613.363	5.85
613.697	5.74
614.032	5.68
614.366	5.67
614.7	5.46
615.035	5.61
615.369	5.59
615.703	5.74
616.037	5.93
616.371	5.94
616.705	5.74
617.039	5.61
617.373	6.16
617.707	5.53
618.041	5.84
618.375	5.82
618.709	5.46
619.042	5.74
619.376	5.93
619.71	5.57
620.043	5.47
620.377	5.64
620.71	5.88
621.043	5.83
621.377	5.56
621.71	5.67
622.043	5.75
622.376	5.76
622.709	5.94
623.043	5.89
623.376	5.65
623.709	6.1
624.041	5.58
624.374	6.04
624.707	6
625.04	5.99
625.373	5.39
625.705	5.61
626.038	5.8
626.37	5.87
626.703	5.61
627.035	5.89
627.368	5.8
627.7	5.77
628.032	5.78
628.365	5.88
628.697	5.78
629.029	5.67
629.361	5.78
629.693	5.72
630.025	5.85
630.357	5.5
630.689	5.67
631.021	5.46
631.353	5.79
631.684	5.78
632.016	5.97
632.348	5.59
632.679	5.62
633.011	5.59
633.342	5.75
633.674	5.96
634.005	5.58
634.336	5.73
634.668	6.02
634.999	5.65
635.33	5.94
635.661	5.82
635.992	5.57
636.323	5.45
636.654	5.46
636.985	5.46
637.316	5.39
637.647	5.71
637.977	5.23
638.308	5.92
638.639	5.22
638.969	5.69
639.3	5.71
639.63	5.76
639.961	5.3
640.291	5.57
640.622	5.91
640.952	5.72
641.282	5.58
641.612	5.72
641.943	5.97
642.273	5.8
642.603	5.65
642.933	5.79
643.263	5.07
643.592	5.76
643.922	5.42
644.252	5.52
644.582	5.84
644.911	5.46
645.241	5.84
645.571	5.29
645.9	5.7
646.23	6.35
646.559	5.88
646.888	6.08
647.218	5.3
647.547	5.29
647.876	5.31
648.205	5.44
648.534	5.64
648.863	5.51
649.192	5.41
649.521	5.48
649.85	5.73
650.179	5.67
650.508	5.23
650.837	5.97
651.165	5.52
651.494	5.69
651.822	5.62
652.151	4.97
652.479	5.86
652.808	5.33
653.136	5.73
653.465	5.51
653.793	5.17
654.121	5.92
654.449	5.34
654.777	5.88
655.105	5.92
655.433	5.9
655.761	6.24
656.089	5.74
656.417	5.46
656.745	5.61
657.073	5.61
657.4	6.17
657.728	5.79
658.056	5.51
658.383	5.63
658.711	5.72
659.038	5.25
659.365	6.1
659.693	5.57
660.02	5.69
660.347	6.23
660.674	5.76
661.001	5.6
661.329	5.46
661.656	5.96
661.982	5.59
662.309	5.78
662.636	5.7
662.963	5.77
663.29	5.81
663.616	5.36
663.943	6
664.27	6
664.596	5.67
664.923	5.87
665.249	5.63
665.576	4.93
665.902	5.82
666.228	5.28
666.554	5.12
666.881	5.55
667.207	5.53
667.533	5.57
667.859	5.63
668.185	6.11
668.511	5.64
668.837	5.61
669.162	5.36
669.488	5.92
669.814	5.42
670.139	5.64
670.465	6.26
670.791	5.95
671.116	5.84
671.442	6.53
671.767	5.04
672.092	6.11
672.418	5.99
672.743	5.89
673.068	6.03
673.393	5.03
673.718	6.31
674.043	5.77
674.368	5.67
674.693	5.72
675.018	5.15
675.343	6.01
675.667	5.64
675.992	5.33
676.317	6.33
676.641	5.75
676.966	5.86
677.29	5.57
677.615	5.76
677.939	5.76
678.264	5.41
678.588	6.11
678.912	5.55
679.236	5.59
679.56	6.1
679.885	5.62
680.209	6.65
680.532	5.27
680.856	5.26
681.18	5.62
681.504	6.22
681.828	5.36
682.152	5.41
682.475	6.46
682.799	6.34
683.122	5.79
683.446	5.65
683.769	5.49
684.093	5.88
684.416	6.12
684.739	6.38
685.062	6.3
685.386	5.65
685.709	5.17
686.032	5.67
686.355	5.95
686.678	6
687.001	5.85
687.324	6.25
687.646	5.3
687.969	6.48
688.292	5.45
688.614	6.2
688.937	5.54
689.26	5.73
689.582	6.01
689.904	5.84
690.227	6.49
690.549	6.23
690.871	5.23
691.194	6.02
691.516	5.4
691.838	5.83
692.16	5.22
692.482	5.31
692.804	5.54
693.126	5.34
693.448	6.82
693.769	5.42
694.091	5.88
694.413	5.79
694.735	6.3
695.056	6.85
695.378	6.78
695.699	6.16
696.021	5.69
696.342	5.74
696.663	5.32
696.984	5.53
697.306	6.33
697.627	4.84
697.948	6.2
698.269	6.15
698.59	5.66
698.911	5.8
699.232	5.97
699.553	5.76
699.873	6.12
700.194	5.38
700.515	5.3
700.835	6.32
701.156	6.17
701.477	6.03
701.797	5.52
702.117	5.96
702.438	5.66
702.758	5.1
703.078	6.43
703.398	6.29
703.719	5.96
704.039	6.24
704.359	5.58
704.679	5.02
704.999	6.42
705.319	6.68
705.638	6.28
705.958	6.32
706.278	6.8
706.597	5.89
706.917	6.11
707.237	5.99
707.556	5.89
707.876	4.21
708.195	6.42
708.514	6.67
708.834	5.89
709.153	6.95
709.472	5.33
709.791	5.87
710.11	6.33
710.429	6.82
710.748	6.64
711.067	6.58
711.386	6.53
711.705	6.35
712.023	5.91
712.342	6.06
712.661	6.11
712.979	5.31
713.298	6.78
713.616	6.03
713.935	7.07
714.253	6.43
714.572	6.75
714.89	6.11
715.208	6.66
715.526	5.71
715.844	6.4
716.162	5.82
716.48	6.66
716.798	5.84
717.116	6.01
717.434	5.84
717.752	6.29
718.069	5.9
718.387	6.51
718.705	5.95
719.022	6.41
719.34	6.9
719.657	5.58
719.975	6.71
720.292	5.87
720.609	7.06
720.927	6.68
721.244	6.45
721.561	5.97
721.878	6.32
722.195	6.34
722.512	6.17
722.829	5.85
723.146	5.98
723.463	5.78
723.779	6.61
724.096	5.63
724.413	7.92
724.729	8.03
725.046	7.38
725.362	6.3
725.679	5.63
725.995	6.7
726.311	5.34
726.628	5.26
726.944	5.74
727.26	6.69
727.576	5.35
727.892	4.61
728.208	8.49
728.524	7.09
728.84	6.2
729.156	6.04
729.472	6.68
729.787	6.83
730.103	5.88
730.419	5.95
730.734	6.42
731.05	5.25
731.365	5.32
731.681	7
731.996	6.59
732.311	6.75
732.626	5.8
732.942	6.32
733.257	5.31
733.572	6.23
733.887	5.5
734.202	6.44
734.517	8.01
734.832	7.3
735.146	7.4
735.461	6.83
735.776	5.85
736.091	6.83
736.405	5.5
736.72	7.01
737.034	5.02
737.349	5.42
737.663	6.11
737.977	6.99
738.292	4.9
738.606	6.76
738.92	6.24
739.234	6.22
739.548	7.61
739.862	6.19
740.176	6.29
740.49	4.34
740.804	7.26
741.117	7.54
741.431	6.46
741.745	8.09
742.058	6.4
742.372	5.26
742.685	5.85
742.999	6.77
743.312	5.6
743.626	6.41
743.939	6.68
744.252	5.23
744.565	4.19
744.878	8.12
745.191	5.81
745.505	6.39
745.817	6.51
746.13	7.33
746.443	7.86
746.756	5.96
747.069	6.46
747.381	2.66
747.694	6.82
748.007	7.09
748.319	6.2
748.632	4.92
748.944	7.27
749.256	6.81
749.569	5.36
749.881	6.65
750.193	6.62
750.505	6.59
750.817	8.42
751.129	7.62
751.441	7.24
751.753	6.77
752.065	8.87
752.377	6.73
752.689	4.76
753	5.53
753.312	7.05
753.624	6.24
753.935	6.44
754.247	5.97
754.558	8.23
754.869	7.6
755.181	5.48
755.492	6.26
755.803	9
756.114	6.87
756.425	7.85
756.736	6.23
757.047	5.72
757.358	6.33
757.669	6.57
757.98	7.95
758.291	6.21
758.601	6.19
758.912	5.94
759.223	7.5
759.533	8.64
759.844	8.01
760.154	5.48
760.464	5.73
760.775	7.32
761.085	9.06
761.395	5.7
761.705	5.97
762.016	5.68
762.326	8.25
762.636	6.7
762.945	5.93
763.255	5.64
763.565	7.51
763.875	6.29
764.185	8.01
764.494	7.94
764.804	6.62
765.113	7.75
765.423	6.61
765.732	6.26
766.042	6.33
766.351	7.14
766.66	7.02
766.97	6.85
767.279	7.06
767.588	7.85
767.897	6.9
768.206	7.31
768.515	7.61
768.824	6.9
769.133	8.77
769.441	7.32
769.75	8.85
770.059	7.73
770.367	5.02
770.676	8.92
770.984	7.28
771.293	6.83
771.601	7.92
771.91	7.39
772.218	5.93
772.526	6.94
772.834	8.25
773.142	8.06
773.45	7.68
773.758	6.3
774.066	6.73
774.374	5.1
774.682	6.08
774.99	6.41
775.298	7.7
775.605	8.16
775.913	9.08
776.22	4.59
776.528	4.12
776.835	5.5
777.143	6.04
777.45	8.02
777.757	4.64
778.065	9.47
778.372	9.69
778.679	7.04
778.986	8.01
779.293	3.29
779.6	5.35
779.907	5.4
780.214	10.94
780.52	4.4
780.827	9.01
781.134	11.29
781.44	5.73
781.747	9.25
782.053	6.8
782.36	6.14
782.666	5.91
782.973	9.69
783.279	8.73
783.585	6.4
783.891	7.41
784.197	7.05
784.503	6.99
784.809	7.34
785.115	6.57
785.421	9.65
785.727	5.81
786.033	6.89
786.339	10.02
786.644	9.82
786.95	3.17
787.255	8.47
787.561	9.26
787.866	5.07
788.172	9.13
788.477	6.37
788.782	3.17
789.088	6.1
789.393	4.26
789.698	7.64
790.003	4.36
790.308	8.24
790.613	8.72
790.918	9.19
791.223	4.62
791.527	5.71
791.832	6.83
792.137	5.61
792.441	10
792.746	7.19
793.05	8.57
793.355	9.56
793.659	7.49
793.963	8.42
794.268	6.89
794.572	7.75
794.876	3.82
795.18	7.89
795.484	7.41
795.788	3.23
796.092	9.14
796.396	12.97
796.7	9.14
797.004	8.75
797.307	2.64
797.611	4.15
797.915	4.25
798.218	5.38
798.522	4.56
798.825	8.32
799.128	8.24
799.432	4.72
799.735	8.48
800.038	6.04
800.341	9.45
800.644	11.61
800.947	8.74
801.25	8.13
801.553	9.12
801.856	15.98
802.159	6.59
802.462	7.66
802.764	9.26
803.067	4.74
803.37	8.61
803.672	10.66
803.975	7.23
804.277	10.6
804.579	8.34
804.882	10.38
805.184	9.99
805.486	2
805.788	10.24
806.09	6.67
806.392	6.91
806.694	6.4
806.996	6.48
807.298	10.63
807.6	11.26
807.902	6.68
808.203	8.41
808.505	11.88
808.807	8.01
809.108	10.11
809.409	14.85
809.711	10.94
810.012	10.26
810.313	9.05
810.615	10.25
810.916	3.57
811.217	10.39
811.518	11.96
811.819	11.25
812.12	11.37
812.421	10.04
812.722	6.44
813.023	11.79
813.323	6.35
813.624	15.54
813.925	10.46
814.225	14.92
814.526	8.33
814.826	8.38
815.126	12.49
815.427	6.44
815.727	1.38
816.027	10.53
816.327	11.96
816.627	6.8
816.927	11.26
817.227	9.87
817.527	7.04
817.827	-0.95
818.127	2.63
818.427	14.32
818.727	9.71
819.026	8.19
819.326	6.08
819.625	6.28
819.925	8.46
820.224	8.79
820.524	12.37
820.823	11.8
821.122	-0.69
821.421	8.03
821.72	11.64
822.019	8.59
822.318	1.84
822.617	10.67
822.916	9.47
823.215	11.05
823.514	7.08
823.813	10.57
824.111	12.38
824.41	8.88
824.709	8.19
825.007	8.22
825.306	8.21
825.604	8
825.902	9.21
826.201	7.75
826.499	8.92
826.797	8.23
827.095	8.44
827.393	9.16
827.691	8.21
827.989	7.25
828.287	7.7
828.585	10.3
828.882	9.37
829.18	10.57
829.478	8.41
829.775	8.93
830.073	4.49
830.37	8.62
830.668	7.79
830.965	10.83
831.263	4.86
831.56	7.72
831.857	9.33
832.154	8.63
832.451	6.97
832.748	10.33
833.045	11.71
833.342	8.95
833.639	9.54
833.936	12.71
834.232	4.04
834.529	10.3
834.826	8.88
835.122	9.9
835.419	5.06
835.715	7.8
836.012	7.89
836.308	6.18
836.604	13.81
836.901	4.74
837.197	8.84
837.493	9.3
837.789	8.07
838.085	9.23
838.381	7.03
838.677	11.24
838.972	10.04
839.268	9.99
839.564	9.08
839.86	4.17
840.155	8.6
840.451	10.1
840.746	15.09
841.042	2.58
841.337	13.24
841.632	14.53
841.928	14.06
842.223	16.39
842.518	6.88
842.813	13.68
843.108	7.31
843.403	15.03
843.698	13.78
843.993	8.53
844.287	14.39
844.582	2.28
844.877	-5.35
845.171	12.76
845.466	0.38
845.761	7.67
846.055	11.17
846.349	9.95
846.644	11.61
846.938	15.06
847.232	9.04
847.526	15.72
847.82	8.05
848.114	0.3
848.408	4.64
848.702	-1.15
848.996	7.11
849.29	23.17
849.584	16.15
849.877	12.63
850.171	5.96
850.465	9.64
850.758	15.28
851.052	3.8
851.345	18.33
851.638	10.67
851.932	23.39
852.225	1.94
852.518	13.02
852.811	24.82
853.104	17.13
853.397	9.05
853.69	14.7
853.983	18.24
854.276	2.49
854.569	6.77
854.861	6.99
855.154	17.95
855.447	-1.22
855.739	-16.9
856.032	11.22
856.324	-0.32
856.616	11.56
856.909	-8.56
857.201	-4.21
857.493	5.45
857.785	17.84
858.077	3.22
858.369	-0.48
858.661	19.51
858.953	13.1
859.245	27.87
859.537	-5.99
859.829	6.7
860.12	11.95
860.412	5.59
860.703	-13.55
860.995	-13.4
861.286	6.48
861.578	16.4
861.869	8.82
862.16	-2.24
862.452	-5.89
862.743	12.49
863.034	30.08
863.325	2.29
863.616	-3.78
863.907	12.47
864.198	-11.58
864.488	-20.82
864.779	6.94
865.07	15.34
865.36	-14.11
865.651	29.5
865.941	16.35
866.232	-10.81
866.522	25.07
866.813	17.76
867.103	26.89
867.393	-5.7
867.683	9.03
867.973	6.46
868.263	-12.31
868.553	5.7
868.843	1.07
869.133	17.25
869.423	16.82
869.713	-2.12
870.002	6.73
870.292	25.08
870.582	7.67
870.871	0.82
871.161	-8.82
871.45	4.82
871.739	20.57
872.029	-15.94
872.318	9.5
872.607	12.09
872.896	3.57
873.185	39.48
873.474	40.78
873.763	-5.22
874.052	13.66
874.341	25.89
874.63	11.56
874.918	-11.86
875.207	46.5
875.496	23.2
875.784	4.07
876.073	-2.59
876.361	-1.66
876.649	11.03
876.938	25.78
877.226	5.56
877.514	10.09
877.802	18.5
878.09	39.35
878.378	31.39
878.666	-10.97
878.954	10.98
879.242	9.9
879.53	-3.22
879.817	16.77
880.105	-7.7
880.392	-3.15
880.68	-14.83
880.967	10.82
881.255	13.54
881.542	0.66
881.83	23.51
882.117	0.81
882.404	3.68
882.691	5.36
882.978	-26.94
883.265	7.01
883.552	8.17
883.839	-31.67
884.126	25.84
884.413	4.77
884.699	15.52
884.986	21.07
885.273	14.7
885.559	14.7
885.846	14.7
