Data from 0230_crown_Reflection__4__307.txt Node

Date: Fri Sep 22 23:07:40 CDT 2023
User: ToomeyLab
Spectrometer: FLMS14357
Trigger mode: 0
Integration Time (sec): 1.000000E-2
Scans to average: 100
Electric dark correction enabled: true
Nonlinearity correction enabled: false
Boxcar width: 0
XAxis mode: Wavelengths
Number of Pixels in Spectrum: 2048
>>>>>Begin Spectral Data<<<<<
189.047	-110.06
189.435	-110.06
189.823	-110.06
190.211	52.06
190.599	-62.49
190.987	37.09
191.375	203.17
191.763	199.25
192.151	90.37
192.538	59.36
192.926	16.51
193.314	59.75
193.702	1816.02
194.089	55.28
194.477	130.92
194.864	28.91
195.252	16.22
195.639	374.92
196.027	39.23
196.414	-300.89
196.801	-2.84
197.189	147.9
197.576	104.54
197.963	259.7
198.351	11.65
198.738	3
199.125	9.24
199.512	5.61
199.899	41.06
200.286	-7.14
200.673	-21.45
201.06	19.04
201.447	46.62
201.833	25.03
202.22	10.63
202.607	15.92
202.994	30.99
203.38	27.65
203.767	52.01
204.154	10.58
204.54	14.26
204.927	9.17
205.313	23.47
205.699	61.37
206.086	40.93
206.472	47.91
206.858	27.21
207.245	-3.29
207.631	28.08
208.017	12.79
208.403	13.96
208.789	23.84
209.175	37.51
209.561	32.25
209.947	33.27
210.333	34.06
210.719	-7.91
211.105	9.48
211.491	35.16
211.876	33.65
212.262	24.51
212.648	39.18
213.034	21.6
213.419	5.2
213.805	26.56
214.19	20.33
214.576	11.28
214.961	64.55
215.346	9.43
215.732	49.31
216.117	0.05
216.502	26.56
216.888	5.77
217.273	27.31
217.658	-3.57
218.043	5.2
218.428	23.29
218.813	-14.52
219.198	9.84
219.583	17.82
219.968	13.12
220.353	9.29
220.738	1.35
221.122	-9.21
221.507	19.24
221.892	10.11
222.276	8.18
222.661	0.29
223.046	24.64
223.43	17.93
223.815	13.5
224.199	8.57
224.583	24.23
224.968	13.16
225.352	12.37
225.736	4.6
226.121	21.76
226.505	9.11
226.889	16.52
227.273	11
227.657	7.29
228.041	11.24
228.425	17.9
228.809	7.97
229.193	7.62
229.577	11.98
229.961	11.53
230.344	12.5
230.728	8.43
231.112	10.01
231.495	9.52
231.879	9.86
232.263	8
232.646	9.25
233.03	8.55
233.413	8.44
233.797	10.77
234.18	8.17
234.563	10.22
234.946	9.18
235.33	7.28
235.713	7.59
236.096	8.73
236.479	7.38
236.862	11.08
237.245	8.53
237.628	11.02
238.011	6.71
238.394	9.04
238.777	9.59
239.16	8.9
239.543	9.66
239.925	10.46
240.308	10.67
240.691	10.26
241.073	8.79
241.456	9.94
241.838	8.48
242.221	7.4
242.603	9.47
242.986	9.35
243.368	7.71
243.75	8.78
244.133	9.08
244.515	8.24
244.897	7.97
245.279	7.74
245.661	7.95
246.043	8.02
246.425	7.82
246.807	9.18
247.189	7.27
247.571	8.12
247.953	8.83
248.335	8.16
248.717	7.85
249.098	7.71
249.48	7.42
249.862	7.65
250.243	7.72
250.625	7.78
251.006	7.64
251.388	7.69
251.769	8.02
252.151	6.76
252.532	7.42
252.913	7.78
253.295	8.04
253.676	7.61
254.057	8.22
254.438	8.18
254.819	7.29
255.2	7.5
255.581	8.06
255.962	7.9
256.343	8.58
256.724	5.77
257.105	7.39
257.486	7.13
257.867	7.25
258.247	7.2
258.628	8.02
259.009	7.17
259.389	7.82
259.77	7.81
260.15	7.95
260.531	6.67
260.911	7.31
261.292	7.49
261.672	7.02
262.052	6.93
262.432	6.92
262.813	6.96
263.193	6.82
263.573	7.24
263.953	7.85
264.333	6.99
264.713	7.29
265.093	6.91
265.473	6.69
265.853	6.6
266.233	7.64
266.612	6.09
266.992	6.75
267.372	7.58
267.752	7.83
268.131	6.57
268.511	6.31
268.89	7.36
269.27	6.09
269.649	6.79
270.029	6.41
270.408	6.39
270.787	6.84
271.167	7.47
271.546	6.66
271.925	6.44
272.304	6.26
272.683	6.68
273.062	6.72
273.441	6.97
273.82	7.07
274.199	6.94
274.578	6.83
274.957	6.43
275.336	6.52
275.715	6.55
276.093	6.39
276.472	6.57
276.851	6.09
277.229	6.15
277.608	6.66
277.986	6.23
278.365	6.88
278.743	6.65
279.122	6.23
279.5	6.91
279.878	6.37
280.257	6.88
280.635	6.47
281.013	7.37
281.391	6.44
281.769	5.9
282.147	6.38
282.525	6.47
282.903	7.17
283.281	6.59
283.659	6.85
284.037	6.5
284.415	6.38
284.792	6.62
285.17	6.38
285.548	7.08
285.925	6.63
286.303	6.23
286.68	5.98
287.058	6.01
287.435	6.16
287.813	6.31
288.19	6.2
288.567	6.54
288.945	6.37
289.322	6.64
289.699	6.18
290.076	6.76
290.453	5.88
290.83	6.12
291.207	6.34
291.584	6.24
291.961	6.24
292.338	6.18
292.715	6.66
293.092	6.12
293.469	6.63
293.845	6.19
294.222	6.41
294.599	6.48
294.975	6.58
295.352	6.29
295.728	5.96
296.105	6.4
296.481	6.42
296.858	5.88
297.234	6.21
297.61	6.18
297.986	6.14
298.363	6.07
298.739	6.27
299.115	6.2
299.491	6.51
299.867	6.31
300.243	5.94
300.619	5.92
300.995	6.17
301.371	6.51
301.746	6.19
302.122	6.35
302.498	6.04
302.874	5.74
303.249	6.07
303.625	5.93
304	6.12
304.376	6.38
304.751	6.02
305.127	5.81
305.502	6.32
305.878	5.96
306.253	6.35
306.628	6.29
307.003	6.21
307.378	6.07
307.754	5.79
308.129	6.3
308.504	6.1
308.879	6.01
309.254	5.81
309.629	6.52
310.003	6.14
310.378	6.75
310.753	5.84
311.128	5.75
311.502	6.28
311.877	5.95
312.252	5.97
312.626	5.87
313.001	6.32
313.375	6.11
313.75	6.46
314.124	6.45
314.498	5.71
314.873	5.65
315.247	6.15
315.621	6.07
315.995	6.37
316.369	5.9
316.743	6.08
317.117	6.52
317.491	6.3
317.865	6
318.239	5.88
318.613	6.58
318.987	6.55
319.361	6.09
319.734	5.49
320.108	6.28
320.482	5.98
320.855	6.53
321.229	6.39
321.602	6.2
321.976	5.58
322.349	5.72
322.723	6.14
323.096	6.02
323.469	5.81
323.843	5.84
324.216	6.45
324.589	6.09
324.962	5.78
325.335	5.92
325.708	5.46
326.081	6.31
326.454	5.68
326.827	6.15
327.2	6.16
327.573	6.1
327.945	5.77
328.318	5.95
328.691	6.02
329.063	5.34
329.436	5.92
329.809	5.68
330.181	6.49
330.553	5.89
330.926	6.06
331.298	5.89
331.671	6.41
332.043	5.59
332.415	6.2
332.787	6.17
333.159	6.08
333.532	6
333.904	5.88
334.276	5.56
334.648	6.24
335.02	6.08
335.391	6.37
335.763	6.08
336.135	5.9
336.507	6.3
336.879	5.99
337.25	6.1
337.622	5.62
337.993	6.03
338.365	6.16
338.736	6.14
339.108	6.53
339.479	5.45
339.851	6.06
340.222	6.03
340.593	5.91
340.964	5.68
341.336	5.93
341.707	6.19
342.078	6
342.449	6.24
342.82	5.44
343.191	5.75
343.562	6.1
343.933	6.34
344.303	5.91
344.674	5.63
345.045	6
345.416	6.12
345.786	5.63
346.157	6
346.527	5.66
346.898	5.81
347.268	6.06
347.639	5.89
348.009	5.9
348.38	6.32
348.75	6.08
349.12	5.96
349.49	6.35
349.861	5.54
350.231	6.3
350.601	6.12
350.971	6.23
351.341	5.72
351.711	6.18
352.081	6.06
352.45	5.74
352.82	6.26
353.19	6.46
353.56	6.11
353.929	6.04
354.299	5.94
354.669	5.88
355.038	5.97
355.408	5.96
355.777	6.06
356.147	5.77
356.516	5.78
356.885	5.64
357.254	6.34
357.624	5.78
357.993	6.05
358.362	6.32
358.731	5.87
359.1	6.09
359.469	6.05
359.838	5.99
360.207	5.99
360.576	5.92
360.945	5.87
361.314	6.03
361.682	6.04
362.051	6.17
362.42	5.98
362.788	5.88
363.157	5.93
363.525	5.84
363.894	5.87
364.262	5.84
364.631	5.85
364.999	5.8
365.367	6.22
365.735	5.88
366.104	6.01
366.472	6.05
366.84	5.89
367.208	6.15
367.576	6.07
367.944	6.02
368.312	6.08
368.68	5.88
369.048	6.19
369.416	5.91
369.783	5.91
370.151	5.85
370.519	6.03
370.886	6.24
371.254	6.08
371.621	5.94
371.989	6.15
372.356	5.7
372.724	6.15
373.091	6.2
373.458	6.19
373.826	6.2
374.193	6.19
374.56	6.25
374.927	5.93
375.294	5.83
375.661	6.11
376.028	6.16
376.395	6.06
376.762	5.88
377.129	6.26
377.496	6.38
377.863	6.31
378.229	6.14
378.596	6.08
378.963	6.19
379.329	6.15
379.696	6.25
380.062	5.9
380.429	6.09
380.795	6.03
381.161	6.04
381.528	6.35
381.894	5.55
382.26	5.74
382.626	6.18
382.993	6.15
383.359	5.89
383.725	6.07
384.091	6.27
384.457	5.9
384.823	6.11
385.188	6.32
385.554	5.88
385.92	6.3
386.286	6.32
386.651	6.18
387.017	6.27
387.383	6
387.748	6.27
388.114	5.74
388.479	6.26
388.845	5.87
389.21	6.02
389.575	6.21
389.94	6.06
390.306	6.32
390.671	6.37
391.036	6.11
391.401	6
391.766	6.03
392.131	6.2
392.496	6.23
392.861	6.09
393.226	6.2
393.591	6.29
393.956	6.28
394.32	6.12
394.685	5.9
395.05	6.23
395.414	6.3
395.779	6.09
396.143	6.08
396.508	6.15
396.872	5.92
397.236	6.27
397.601	6.01
397.965	6.3
398.329	5.9
398.694	6.05
399.058	6.19
399.422	6.18
399.786	6.02
400.15	6.2
400.514	6.12
400.878	6.37
401.242	6.39
401.605	5.95
401.969	6.07
402.333	6.28
402.697	6.13
403.06	6.1
403.424	6.07
403.787	6.22
404.151	6.15
404.514	6.32
404.878	6.43
405.241	6.27
405.604	6.24
405.968	6.39
406.331	6.27
406.694	6.32
407.057	6.03
407.42	6.19
407.783	6.34
408.146	6.41
408.509	6.16
408.872	6.08
409.235	6.05
409.598	6.18
409.961	6.27
410.323	6.14
410.686	6.42
411.049	6.43
411.411	6.33
411.774	6.41
412.136	6.22
412.499	6.2
412.861	6.17
413.223	6.22
413.586	6.48
413.948	6.37
414.31	6.09
414.672	6.23
415.035	6.09
415.397	6.46
415.759	6.46
416.121	6.15
416.483	6.16
416.845	6.09
417.206	6.09
417.568	6.2
417.93	6.17
418.292	6.22
418.653	6.2
419.015	6.18
419.377	6.03
419.738	6.21
420.1	6.02
420.461	6.1
420.822	6.06
421.184	5.93
421.545	6.08
421.906	6.01
422.267	6.06
422.629	6.18
422.99	6.05
423.351	6.01
423.712	5.99
424.073	5.94
424.434	6.09
424.795	5.98
425.155	6.03
425.516	6.07
425.877	6.03
426.238	5.95
426.598	5.95
426.959	5.98
427.32	6.05
427.68	5.95
428.041	6.03
428.401	6.1
428.761	6.09
429.122	6.12
429.482	6.12
429.842	5.94
430.202	6.06
430.563	6.25
430.923	6.13
431.283	6.15
431.643	6.11
432.003	6.27
432.363	6.37
432.722	6.16
433.082	6.2
433.442	6.11
433.802	6.33
434.161	6.3
434.521	6.1
434.881	6.15
435.24	6.05
435.6	5.99
435.959	5.97
436.319	6.06
436.678	6.09
437.037	6.15
437.396	6.18
437.756	6.09
438.115	6.22
438.474	6.34
438.833	6.25
439.192	6.1
439.551	6.07
439.91	6.34
440.269	6.29
440.628	6.02
440.987	6.11
441.345	6.09
441.704	6.14
442.063	6.01
442.421	6.02
442.78	6.11
443.138	6.06
443.497	6.06
443.855	6.04
444.214	5.97
444.572	6.11
444.93	6.06
445.288	6.06
445.647	6.21
446.005	6.24
446.363	5.99
446.721	6.13
447.079	5.98
447.437	6.23
447.795	6.2
448.153	5.92
448.51	6.04
448.868	5.98
449.226	5.93
449.584	5.94
449.941	5.93
450.299	6.15
450.656	6.11
451.014	6.02
451.371	6.14
451.729	6.02
452.086	6.02
452.443	6.26
452.801	6.02
453.158	6.2
453.515	6.33
453.872	6.13
454.229	6.19
454.586	6.17
454.943	6.11
455.3	6.12
455.657	6.11
456.014	6.23
456.371	6.08
456.727	6.32
457.084	6.31
457.441	6.07
457.797	6.21
458.154	6.22
458.51	6.01
458.867	6.14
459.223	6.24
459.58	6.25
459.936	6.28
460.292	6.22
460.648	6.28
461.005	6.14
461.361	6.09
461.717	5.84
462.073	6.05
462.429	5.76
462.785	5.94
463.141	6.04
463.496	6.21
463.852	6.02
464.208	6.14
464.564	6.17
464.919	6.15
465.275	6.38
465.631	6.21
465.986	6.23
466.342	6.2
466.697	6.22
467.052	6.09
467.408	6.05
467.763	6.1
468.118	6.2
468.473	6.12
468.829	6.05
469.184	6.3
469.539	6.21
469.894	6.11
470.249	6.1
470.603	6.02
470.958	6.2
471.313	6.24
471.668	6.19
472.023	6.21
472.377	6.2
472.732	6.09
473.086	6.17
473.441	6.14
473.795	6.26
474.15	6.03
474.504	6.08
474.859	6.31
475.213	5.95
475.567	5.93
475.921	6.06
476.275	6.19
476.63	5.99
476.984	5.98
477.338	6.29
477.692	6.09
478.045	6.2
478.399	6.27
478.753	6.07
479.107	6.1
479.461	6.03
479.814	6.19
480.168	6.02
480.521	6.1
480.875	6.03
481.228	6.14
481.582	6.11
481.935	6.24
482.289	5.99
482.642	6.08
482.995	6.04
483.348	6.09
483.701	6.06
484.055	5.99
484.408	6
484.761	5.86
485.114	5.8
485.466	5.78
485.819	5.68
486.172	5.66
486.525	5.63
486.878	5.65
487.23	5.72
487.583	5.76
487.936	5.82
488.288	5.85
488.641	5.9
488.993	5.75
489.345	5.73
489.698	5.73
490.05	5.7
490.402	5.69
490.754	5.67
491.107	5.69
491.459	5.8
491.811	5.8
492.163	5.88
492.515	5.93
492.866	5.97
493.218	5.99
493.57	5.84
493.922	5.77
494.274	5.74
494.625	5.8
494.977	5.8
495.328	5.9
495.68	5.88
496.031	5.92
496.383	6.02
496.734	6
497.086	5.93
497.437	6.02
497.788	5.99
498.139	6.02
498.49	6.15
498.842	5.89
499.193	5.84
499.544	5.99
499.894	6
500.245	6.08
500.596	5.99
500.947	6.05
501.298	5.97
501.648	6.05
501.999	6.11
502.35	6.04
502.7	6.02
503.051	6.09
503.401	5.98
503.752	6.02
504.102	6
504.452	6.03
504.803	6.01
505.153	6.01
505.503	6.08
505.853	6.07
506.203	5.93
506.553	6
506.903	6.02
507.253	5.97
507.603	5.97
507.953	6.09
508.303	6.16
508.652	5.88
509.002	6.14
509.352	5.91
509.701	5.99
510.051	6.05
510.4	6.02
510.75	5.91
511.099	5.82
511.449	5.96
511.798	5.98
512.147	5.95
512.496	5.97
512.846	5.89
513.195	5.95
513.544	5.97
513.893	6.05
514.242	5.84
514.591	5.93
514.939	5.96
515.288	5.92
515.637	5.89
515.986	5.8
516.334	5.96
516.683	5.9
517.032	6.06
517.38	5.87
517.729	5.81
518.077	5.93
518.426	5.84
518.774	5.95
519.122	5.91
519.47	5.88
519.819	5.96
520.167	5.87
520.515	5.87
520.863	5.76
521.211	5.79
521.559	5.8
521.907	5.83
522.255	5.75
522.602	5.82
522.95	5.84
523.298	5.89
523.645	5.99
523.993	5.93
524.341	5.85
524.688	5.87
525.036	5.9
525.383	5.89
525.73	6.04
526.078	5.92
526.425	5.86
526.772	6.02
527.119	5.89
527.466	5.75
527.814	5.73
528.161	5.73
528.508	5.77
528.854	5.79
529.201	5.83
529.548	5.75
529.895	5.65
530.242	5.64
530.588	5.57
530.935	5.5
531.282	5.51
531.628	5.54
531.975	5.55
532.321	5.56
532.667	5.61
533.014	5.73
533.36	5.76
533.706	5.77
534.052	5.77
534.399	5.76
534.745	5.75
535.091	5.65
535.437	5.61
535.783	5.5
536.129	5.65
536.474	5.74
536.82	5.62
537.166	5.76
537.512	5.78
537.857	5.68
538.203	5.85
538.549	5.71
538.894	5.64
539.239	5.62
539.585	5.67
539.93	5.78
540.276	5.79
540.621	5.75
540.966	5.78
541.311	5.91
541.656	5.74
542.001	5.75
542.346	5.78
542.691	5.77
543.036	5.73
543.381	5.59
543.726	5.54
544.071	5.56
544.415	5.54
544.76	5.57
545.105	5.48
545.449	5.54
545.794	5.72
546.138	5.71
546.483	5.69
546.827	5.71
547.171	5.79
547.516	5.86
547.86	5.87
548.204	5.75
548.548	5.8
548.892	5.76
549.236	5.76
549.58	5.65
549.924	5.9
550.268	5.86
550.612	5.8
550.956	5.88
551.3	5.91
551.643	5.84
551.987	5.83
552.33	6
552.674	5.88
553.017	5.83
553.361	5.83
553.704	5.85
554.048	5.95
554.391	5.87
554.734	5.87
555.077	5.88
555.42	5.77
555.764	5.83
556.107	5.95
556.45	5.83
556.793	5.87
557.135	5.94
557.478	5.76
557.821	5.9
558.164	5.95
558.507	6.01
558.849	5.74
559.192	5.87
559.534	5.99
559.877	5.81
560.219	5.95
560.562	6.02
560.904	5.91
561.246	6.16
561.589	6.04
561.931	5.71
562.273	5.76
562.615	5.69
562.957	5.77
563.299	6.01
563.641	5.92
563.983	6.01
564.325	5.94
564.667	5.8
565.008	5.69
565.35	5.89
565.692	5.95
566.033	5.95
566.375	5.92
566.716	5.96
567.058	5.95
567.399	5.87
567.741	6.07
568.082	5.64
568.423	5.98
568.764	6.11
569.105	5.75
569.447	5.69
569.788	5.69
570.129	5.95
570.47	5.94
570.811	5.86
571.151	5.96
571.492	5.68
571.833	5.8
572.174	5.83
572.514	5.77
572.855	5.97
573.195	5.74
573.536	5.9
573.876	5.97
574.217	5.68
574.557	5.69
574.898	5.8
575.238	5.79
575.578	5.8
575.918	5.74
576.258	5.83
576.598	5.77
576.938	5.9
577.278	5.94
577.618	5.78
577.958	5.86
578.298	5.84
578.638	5.74
578.977	5.84
579.317	5.87
579.657	5.9
579.996	5.87
580.336	6.02
580.675	6.1
581.014	5.6
581.354	5.63
581.693	5.96
582.032	5.87
582.372	6.15
582.711	5.88
583.05	5.99
583.389	5.91
583.728	5.92
584.067	5.8
584.406	6.02
584.745	5.93
585.083	6.26
585.422	6.14
585.761	5.84
586.1	6.08
586.438	5.76
586.777	6.03
587.115	6.21
587.454	5.79
587.792	6.11
588.13	5.75
588.469	5.87
588.807	6.09
589.145	5.96
589.483	6
589.821	6.13
590.159	5.81
590.497	6.15
590.835	5.91
591.173	5.83
591.511	5.89
591.849	6.16
592.187	5.81
592.524	5.9
592.862	5.9
593.2	5.89
593.537	5.67
593.875	5.91
594.212	5.8
594.55	6.01
594.887	6.09
595.224	6.2
595.561	6.02
595.899	5.97
596.236	6.2
596.573	6.25
596.91	5.87
597.247	5.94
597.584	5.94
597.921	5.88
598.258	6.12
598.594	5.91
598.931	5.84
599.268	5.95
599.604	6.03
599.941	5.91
600.277	5.83
600.614	5.83
600.95	6.02
601.287	5.94
601.623	5.97
601.959	5.75
602.296	6.04
602.632	5.79
602.968	6
603.304	5.97
603.64	5.99
603.976	6.03
604.312	5.97
604.648	5.98
604.984	5.84
605.319	5.84
605.655	5.74
605.991	5.8
606.326	6.01
606.662	5.87
606.998	5.89
607.333	5.94
607.668	5.92
608.004	6.03
608.339	5.8
608.674	5.99
609.01	5.92
609.345	6.13
609.68	6.02
610.015	6.07
610.35	5.75
610.685	6.26
611.02	6
611.355	6.03
611.689	6.03
612.024	6
612.359	5.93
612.694	5.74
613.028	5.83
613.363	6
613.697	5.79
614.032	6.14
614.366	5.87
614.7	6.05
615.035	6.16
615.369	5.74
615.703	5.89
616.037	6.2
616.371	6.17
616.705	6.37
617.039	6.05
617.373	6.08
617.707	5.82
618.041	6.19
618.375	5.93
618.709	5.86
619.042	6.33
619.376	6.09
619.71	5.95
620.043	5.83
620.377	6.11
620.71	6.02
621.043	6.18
621.377	6
621.71	6.13
622.043	6.11
622.376	6.07
622.709	6.05
623.043	6.03
623.376	6.41
623.709	6.22
624.041	5.77
624.374	6.33
624.707	6.12
625.04	6.38
625.373	5.72
625.705	6.15
626.038	6.17
626.37	6.44
626.703	6.22
627.035	6.01
627.368	6.11
627.7	6.57
628.032	6.23
628.365	6.04
628.697	6.1
629.029	6.22
629.361	6.03
629.693	6.37
630.025	6.04
630.357	5.92
630.689	6.18
631.021	6.01
631.353	6.18
631.684	6.25
632.016	6.15
632.348	6.11
632.679	6.02
633.011	5.97
633.342	6.14
633.674	6.49
634.005	6
634.336	6.42
634.668	6.3
634.999	6.11
635.33	6.27
635.661	6.27
635.992	6.01
636.323	6.04
636.654	6.31
636.985	5.85
637.316	6.05
637.647	6.26
637.977	5.99
638.308	6.7
638.639	6.13
638.969	6.55
639.3	6.52
639.63	6.31
639.961	6.15
640.291	6.06
640.622	6.37
640.952	6.3
641.282	6.26
641.612	6.21
641.943	6.67
642.273	6.34
642.603	6.22
642.933	6.08
643.263	5.61
643.592	5.92
643.922	6.38
644.252	6.05
644.582	6.56
644.911	6.38
645.241	6.86
645.571	6.1
645.9	6.15
646.23	6.77
646.559	6.59
646.888	6.52
647.218	6.35
647.547	6.37
647.876	6.11
648.205	6.22
648.534	6.49
648.863	6.08
649.192	5.82
649.521	6.54
649.85	6.34
650.179	6.42
650.508	6.01
650.837	6.75
651.165	6.51
651.494	6.26
651.822	6.43
652.151	6.29
652.479	6.08
652.808	6.22
653.136	6.66
653.465	6.73
653.793	6.33
654.121	6.48
654.449	6.14
654.777	6.41
655.105	6.14
655.433	6.03
655.761	6.99
656.089	6.67
656.417	6.18
656.745	6.68
657.073	6.49
657.4	7.05
657.728	6.65
658.056	6.31
658.383	6.84
658.711	6.14
659.038	6.18
659.365	6.24
659.693	6.08
660.02	6.62
660.347	6.6
660.674	5.84
661.001	6.15
661.329	6.4
661.656	6.45
661.982	6.18
662.309	6.72
662.636	6.16
662.963	6.61
663.29	6.62
663.616	6.48
663.943	6.53
664.27	6.6
664.596	6.58
664.923	6.64
665.249	6.47
665.576	6.46
665.902	5.94
666.228	6.58
666.554	5.98
666.881	6.47
667.207	6.27
667.533	6.07
667.859	6.37
668.185	6.82
668.511	6.87
668.837	6.28
669.162	6.65
669.488	6.65
669.814	6.57
670.139	6.98
670.465	7.1
670.791	6.49
671.116	6.33
671.442	6.83
671.767	6.31
672.092	6.97
672.418	6.9
672.743	6.55
673.068	6.68
673.393	6.54
673.718	6.62
674.043	6.61
674.368	7.17
674.693	6.69
675.018	6.36
675.343	6.32
675.667	6.17
675.992	6.45
676.317	6.88
676.641	6.12
676.966	6.61
677.29	6.38
677.615	7.03
677.939	6.81
678.264	6.7
678.588	7.12
678.912	6.92
679.236	6.74
679.56	6.31
679.885	5.99
680.209	7.61
680.532	6.79
680.856	6.78
681.18	6.75
681.504	6.59
681.828	7.17
682.152	6.77
682.475	7.08
682.799	6.72
683.122	6.74
683.446	6.76
683.769	6.73
684.093	7.45
684.416	7.15
684.739	7.41
685.062	7.14
685.386	6.89
685.709	6.39
686.032	6.78
686.355	6.78
686.678	7.06
687.001	7.33
687.324	7.67
687.646	6.49
687.969	7.21
688.292	6.86
688.614	7.24
688.937	7.28
689.26	7.16
689.582	6.94
689.904	6.38
690.227	7.31
690.549	7.13
690.871	6.79
691.194	6.62
691.516	6.79
691.838	6.91
692.16	6.24
692.482	7.29
692.804	6.07
693.126	6.39
693.448	7.37
693.769	7.08
694.091	7
694.413	7.24
694.735	7.44
695.056	7.4
695.378	7.17
695.699	7.52
696.021	5.77
696.342	7.62
696.663	6.99
696.984	6.43
697.306	6.25
697.627	7.18
697.948	7.38
698.269	7.15
698.59	6.11
698.911	6.4
699.232	7.13
699.553	6.49
699.873	7.25
700.194	6.83
700.515	6.57
700.835	7.88
701.156	7.04
701.477	7.24
701.797	6.83
702.117	6.91
702.438	7.2
702.758	7.05
703.078	7.47
703.398	7.29
703.719	6.73
704.039	7.9
704.359	7.55
704.679	6.09
704.999	7.73
705.319	7.42
705.638	7.56
705.958	7.94
706.278	7.63
706.597	7.21
706.917	6.96
707.237	6.4
707.556	7.27
707.876	5.92
708.195	7.7
708.514	8.03
708.834	6.74
709.153	7.85
709.472	7.1
709.791	6.7
710.11	8.06
710.429	7.19
710.748	7.9
711.067	7.76
711.386	8.3
711.705	7.46
712.023	6.44
712.342	6.87
712.661	8.57
712.979	6.56
713.298	8.39
713.616	6.68
713.935	8.44
714.253	8.29
714.572	8.01
714.89	8.44
715.208	8.48
715.526	7.46
715.844	8.27
716.162	7.08
716.48	7.5
716.798	7.89
717.116	7.84
717.434	7.44
717.752	7.37
718.069	6.18
718.387	8.1
718.705	7.49
719.022	7.73
719.34	8.06
719.657	6.49
719.975	8.05
720.292	7.44
720.609	7.66
720.927	7.87
721.244	7.52
721.561	8.21
721.878	7.78
722.195	7.21
722.512	8.23
722.829	8.45
723.146	6.84
723.463	8.15
723.779	7.06
724.096	6.31
724.413	8.73
724.729	9.05
725.046	7.64
725.362	7.76
725.679	7.27
725.995	7.98
726.311	7
726.628	7.55
726.944	6.2
727.26	7.65
727.576	7.46
727.892	6.09
728.208	6.92
728.524	8.29
728.84	7.2
729.156	5.92
729.472	7.77
729.787	6.73
730.103	6.51
730.419	7.72
730.734	7.5
731.05	7.45
731.365	7.43
731.681	8.19
731.996	7.98
732.311	9.04
732.626	7.55
732.942	8.69
733.257	7.56
733.572	7.51
733.887	7.56
734.202	9.03
734.517	8.49
734.832	8.15
735.146	7.89
735.461	7.98
735.776	7.86
736.091	8.1
736.405	7.63
736.72	8.33
737.034	6.49
737.349	6.34
737.663	7.84
737.977	9.38
738.292	8.39
738.606	7.38
738.92	8.14
739.234	8.17
739.548	8.88
739.862	6.53
740.176	6.54
740.49	6.77
740.804	8.73
741.117	7.38
741.431	6.58
741.745	8.04
742.058	7.7
742.372	6.64
742.685	8.55
742.999	8.03
743.312	8.55
743.626	7.57
743.939	7.6
744.252	7.08
744.565	6.95
744.878	8.42
745.191	8.51
745.505	7.13
745.817	6.69
746.13	9.79
746.443	10.63
746.756	9.53
747.069	8.28
747.381	6.26
747.694	7.56
748.007	9.69
748.319	9.85
748.632	9.31
748.944	9.71
749.256	9.12
749.569	7.07
749.881	8.15
750.193	10.14
750.505	9.1
750.817	9.99
751.129	9.91
751.441	9.41
751.753	9.42
752.065	9.88
752.377	9.35
752.689	7.23
753	8.93
753.312	9.05
753.624	8.35
753.935	10.43
754.247	6.76
754.558	9.4
754.869	8.08
755.181	8.56
755.492	8.4
755.803	11.31
756.114	9.25
756.425	10.23
756.736	7.75
757.047	8.25
757.358	6.77
757.669	6.43
757.98	7.53
758.291	7.42
758.601	8.77
758.912	9.76
759.223	11.29
759.533	8.68
759.844	8.96
760.154	8.69
760.464	7.64
760.775	10.85
761.085	11.1
761.395	9.25
761.705	10.23
762.016	8.94
762.326	9.42
762.636	9.12
762.945	9.65
763.255	7.7
763.565	10.31
763.875	7.41
764.185	9.64
764.494	9.45
764.804	8.6
765.113	7.84
765.423	7.72
765.732	9.08
766.042	8.58
766.351	8.37
766.66	8.69
766.97	9.5
767.279	8.26
767.588	8.46
767.897	7.63
768.206	9.26
768.515	7.94
768.824	9.93
769.133	9.24
769.441	7.51
769.75	10.94
770.059	12.31
770.367	5.78
770.676	7.98
770.984	7.58
771.293	8.93
771.601	8.9
771.91	9.22
772.218	8.27
772.526	10.6
772.834	7.87
773.142	8.04
773.45	10.26
773.758	8.56
774.066	10.6
774.374	8.81
774.682	8.37
774.99	10.6
775.298	10.23
775.605	10.2
775.913	13.04
776.22	6.39
776.528	9.68
776.835	8.19
777.143	9.96
777.45	11.09
777.757	7.85
778.065	10.61
778.372	9.11
778.679	13.97
778.986	10.74
779.293	5.09
779.6	7.91
779.907	7.88
780.214	15.45
780.52	9.09
780.827	10.1
781.134	10.72
781.44	9.83
781.747	8.15
782.053	10.74
782.36	9.47
782.666	10.7
782.973	10.05
783.279	6.5
783.585	10.32
783.891	7.92
784.197	9.1
784.503	7.64
784.809	8.06
785.115	8.14
785.421	14.54
785.727	8.76
786.033	12.96
786.339	13.15
786.644	14.05
786.95	7.51
787.255	11.84
787.561	9.67
787.866	9.13
788.172	11.65
788.477	10.2
788.782	11.09
789.088	9.72
789.393	5.66
789.698	11.28
790.003	12.4
790.308	7.57
790.613	7.56
790.918	11.86
791.223	9.11
791.527	6.58
791.832	9.75
792.137	7.63
792.441	13.35
792.746	10.19
793.05	10.43
793.355	14.83
793.659	9.87
793.963	9.17
794.268	10.17
794.572	10.76
794.876	8.92
795.18	11.26
795.484	7.69
795.788	8.22
796.092	11.66
796.396	14.28
796.7	11.41
797.004	7.86
797.307	3.36
797.611	5.4
797.915	8.22
798.218	10.35
798.522	13.1
798.825	12.7
799.128	11.58
799.432	7.49
799.735	12.26
800.038	10.31
800.341	9.31
800.644	13.24
800.947	14.45
801.25	8.29
801.553	10.61
801.856	12.24
802.159	8.98
802.462	5.32
802.764	8.58
803.067	9.2
803.37	10.7
803.672	10.99
803.975	8.63
804.277	14.43
804.579	16.59
804.882	17.77
805.184	14.19
805.486	6.49
805.788	12.61
806.09	13.72
806.392	5.4
806.694	10.06
806.996	11.24
807.298	12.73
807.6	15.97
807.902	9.21
808.203	11.97
808.505	12.45
808.807	13.56
809.108	14.48
809.409	15.16
809.711	15.47
810.012	9.75
810.313	9.01
810.615	14.14
810.916	10.07
811.217	9.56
811.518	10.13
811.819	11.97
812.12	6.6
812.421	10.93
812.722	10.3
813.023	10.2
813.323	14.88
813.624	17.52
813.925	13.98
814.225	18.32
814.526	14.07
814.826	13.59
815.126	11
815.427	9.86
815.727	11.78
816.027	8.66
816.327	9.59
816.627	12.58
816.927	12.55
817.227	12.15
817.527	5.11
817.827	8.38
818.127	6.17
818.427	17.41
818.727	13.84
819.026	16.69
819.326	11.93
819.625	6.56
819.925	8.93
820.224	11.58
820.524	10.19
820.823	5.76
821.122	7.61
821.421	13.35
821.72	14.06
822.019	15.16
822.318	10.15
822.617	11.94
822.916	11.71
823.215	13.32
823.514	8.59
823.813	16.16
824.111	13.3
824.41	11.34
824.709	10.4
825.007	11.58
825.306	10.62
825.604	10.18
825.902	11.4
826.201	10.68
826.499	10.67
826.797	10.52
827.095	11
827.393	11.49
827.691	11.06
827.989	9.26
828.287	8.73
828.585	11.99
828.882	11.5
829.18	11.39
829.478	9.64
829.775	9.63
830.073	9.5
830.37	11.08
830.668	11.55
830.965	13
831.263	8.99
831.56	9.17
831.857	12.83
832.154	12.9
832.451	10.01
832.748	14.72
833.045	15.36
833.342	10.58
833.639	9.98
833.936	13.58
834.232	14.86
834.529	14.26
834.826	9.54
835.122	16.49
835.419	12.66
835.715	7.21
836.012	10.33
836.308	15.53
836.604	9.35
836.901	10.91
837.197	14.01
837.493	11.8
837.789	8.87
838.085	9.18
838.381	10.12
838.677	9.92
838.972	12.19
839.268	14.34
839.564	17.21
839.86	9.04
840.155	8.73
840.451	10.79
840.746	13.34
841.042	14.21
841.337	14.48
841.632	15.9
841.928	7.55
842.223	17.33
842.518	15.3
842.813	17.88
843.108	11.87
843.403	15.02
843.698	17.08
843.993	10.21
844.287	16.22
844.582	13.05
844.877	9.33
845.171	16.68
845.466	13.99
845.761	8.01
846.055	17.59
846.349	8.25
846.644	14.8
846.938	10.91
847.232	11.36
847.526	11.26
847.82	13.89
848.114	30.95
848.408	17.3
848.702	23.57
848.996	11.93
849.29	8.7
849.584	38.03
849.877	14.67
850.171	5.14
850.465	-5.06
850.758	16.4
851.052	-0.5
851.345	19.22
851.638	10.84
851.932	31.97
852.225	29.84
852.518	23.08
852.811	18.19
853.104	25.32
853.397	15.63
853.69	19.81
853.983	15.99
854.276	17.74
854.569	15.17
854.861	7.41
855.154	15.94
855.447	7.39
855.739	-9.53
856.032	21.36
856.324	29.66
856.616	33.99
856.909	20.53
857.201	-22.62
857.493	4.72
857.785	26.35
858.077	10.05
858.369	13.57
858.661	38.08
858.953	4.79
859.245	30.77
859.537	0.15
859.829	0.04
860.12	21.14
860.412	18.31
860.703	5.02
860.995	6.31
861.286	16.46
861.578	8.14
861.869	1.06
862.16	-0.31
862.452	-22.03
862.743	34.58
863.034	22.04
863.325	22.66
863.616	22.66
863.907	19.87
864.198	8.14
864.488	-1.6
864.779	-2.11
865.07	12.39
865.36	-6.97
865.651	13.62
865.941	-3.47
866.232	8.76
866.522	21.2
866.813	14.95
867.103	11.23
867.393	8.82
867.683	5.37
867.973	0.77
868.263	3.87
868.553	17.68
868.843	15.16
869.133	18.76
869.423	25.73
869.713	14.73
870.002	45.34
870.292	16.56
870.582	18.78
870.871	8.56
871.161	17.78
871.45	-10.3
871.739	12.1
872.029	2.65
872.318	17.47
872.607	33.37
872.896	11.6
873.185	31.38
873.474	43.35
873.763	8.62
874.052	14.02
874.341	42.8
874.63	44.9
874.918	31.42
875.207	41.38
875.496	11.15
875.784	6.34
876.073	16.07
876.361	33.13
876.649	12.63
876.938	51.54
877.226	21.13
877.514	27.2
877.802	1.37
878.09	47.78
878.378	30.81
878.666	36.6
878.954	26.52
879.242	30.03
879.53	7.47
879.817	9.55
880.105	-14.97
880.392	13.37
880.68	36
880.967	30.44
881.255	19.77
881.542	8.94
881.83	23.55
882.117	23.92
882.404	-4.61
882.691	-18.91
882.978	13.69
883.265	11.24
883.552	31.43
883.839	-33.44
884.126	24.08
884.413	12.73
884.699	22.5
884.986	23.31
885.273	12.89
885.559	12.89
885.846	12.89
