Data from 0174_crown_Reflection__2__103.txt Node

Date: Mon Aug 28 19:32:48 CDT 2023
User: ToomeyLab
Spectrometer: FLMS14357
Trigger mode: 0
Integration Time (sec): 1.000000E-2
Scans to average: 100
Electric dark correction enabled: true
Nonlinearity correction enabled: false
Boxcar width: 0
XAxis mode: Wavelengths
Number of Pixels in Spectrum: 2048
>>>>>Begin Spectral Data<<<<<
189.047	29.01
189.435	29.01
189.823	29.01
190.211	2909.3
190.599	-14.15
190.987	583.31
191.375	24.03
191.763	69.49
192.151	64.47
192.538	103.66
192.926	232.02
193.314	1333.41
193.702	204.95
194.089	61.75
194.477	-455.29
194.864	309.55
195.252	70.89
195.639	-877.78
196.027	72.03
196.414	227.26
196.801	-69.45
197.189	-8.92
197.576	-244.03
197.963	-51.57
198.351	11.05
198.738	30.59
199.125	-19.77
199.512	-38.08
199.899	-12.37
200.286	-151.65
200.673	10.32
201.06	22.65
201.447	-94.67
201.833	-62.55
202.22	3.99
202.607	-17.32
202.994	10.86
203.38	13.86
203.767	-11.12
204.154	-38.16
204.54	-1.76
204.927	-37.55
205.313	-12.82
205.699	-32.88
206.086	29.26
206.472	-14.12
206.858	-46.72
207.245	7.08
207.631	5.39
208.017	-29.23
208.403	-16.51
208.789	-12.14
209.175	-61.73
209.561	-7.37
209.947	-22.03
210.333	11.94
210.719	-34.09
211.105	27.66
211.491	29.03
211.876	29.08
212.262	13.82
212.648	6.68
213.034	6.64
213.419	-15.68
213.805	-13.46
214.19	-33.86
214.576	12.61
214.961	30.3
215.346	-11.67
215.732	10.15
216.117	-2.07
216.502	-23.82
216.888	-87.33
217.273	-19.07
217.658	5.61
218.043	7.4
218.428	-1.26
218.813	-28.68
219.198	-2.58
219.583	-0.94
219.968	-0.08
220.353	-30.82
220.738	21.93
221.122	10.38
221.507	-1.79
221.892	-14.97
222.276	-4.15
222.661	-14.23
223.046	-10.82
223.43	2.51
223.815	4.65
224.199	14.52
224.583	-1.98
224.968	-0.44
225.352	6.12
225.736	3.14
226.121	1.13
226.505	-1.79
226.889	6.84
227.273	8.92
227.657	7.01
228.041	3.82
228.425	7.55
228.809	3.39
229.193	4.81
229.577	4.5
229.961	2.27
230.344	5.25
230.728	4.63
231.112	4
231.495	4.71
231.879	4.09
232.263	4.57
232.646	5.19
233.03	4.93
233.413	6.84
233.797	4.58
234.18	4.04
234.563	0.77
234.946	6.68
235.33	3.3
235.713	1.92
236.096	5.81
236.479	3.93
236.862	5.01
237.245	3.53
237.628	3.42
238.011	6.9
238.394	6.03
238.777	4.51
239.16	4.34
239.543	-0.68
239.925	5.38
240.308	3.6
240.691	3.77
241.073	1.37
241.456	3.31
241.838	4.16
242.221	5.21
242.603	6.62
242.986	5.24
243.368	5.34
243.75	4.71
244.133	4.25
244.515	4.44
244.897	4.55
245.279	4.86
245.661	4.09
246.043	5.17
246.425	4.55
246.807	5.58
247.189	2.84
247.571	5.69
247.953	4.52
248.335	4.79
248.717	4.46
249.098	4.51
249.48	4.58
249.862	4.63
250.243	4.12
250.625	4.9
251.006	4.63
251.388	4.35
251.769	5.21
252.151	4.7
252.532	3.7
252.913	4.93
253.295	2.69
253.676	3.82
254.057	4.31
254.438	4.03
254.819	3.74
255.2	4.28
255.581	4.8
255.962	5.05
256.343	5.72
256.724	4.21
257.105	4.02
257.486	4.83
257.867	3.27
258.247	4.07
258.628	4
259.009	3.03
259.389	3.85
259.77	4.17
260.15	3.09
260.531	3.19
260.911	3.92
261.292	4.24
261.672	4.09
262.052	3.96
262.432	3.93
262.813	4.38
263.193	4.3
263.573	4.38
263.953	4.28
264.333	3.16
264.713	3.62
265.093	4.59
265.473	3.95
265.853	3.31
266.233	4
266.612	4.08
266.992	4.08
267.372	3.94
267.752	4.84
268.131	4.11
268.511	3.5
268.89	4.48
269.27	3.79
269.649	3.35
270.029	4.36
270.408	4.25
270.787	3.95
271.167	3.93
271.546	2.98
271.925	4.07
272.304	3.44
272.683	4.31
273.062	3.64
273.441	3.89
273.82	3.71
274.199	3.64
274.578	3.9
274.957	3.57
275.336	4
275.715	4.4
276.093	3.78
276.472	3.38
276.851	3.69
277.229	3.88
277.608	3.45
277.986	3.34
278.365	3.38
278.743	3.56
279.122	3.22
279.5	3.59
279.878	3.82
280.257	3.59
280.635	3.68
281.013	3.44
281.391	3.08
281.769	3.6
282.147	3.54
282.525	4.03
282.903	3.81
283.281	3.3
283.659	4.18
284.037	3.94
284.415	3.44
284.792	3.83
285.17	3.53
285.548	3.49
285.925	4.12
286.303	3.79
286.68	3.97
287.058	3.68
287.435	3.69
287.813	3.62
288.19	3.77
288.567	3.77
288.945	4.02
289.322	3.61
289.699	4.06
290.076	4.29
290.453	3.72
290.83	3
291.207	3.49
291.584	3.72
291.961	4.16
292.338	3.6
292.715	3.31
293.092	3.85
293.469	3.45
293.845	3.39
294.222	3.21
294.599	3.04
294.975	3.18
295.352	3.45
295.728	3.47
296.105	3.92
296.481	3.71
296.858	3.96
297.234	3.74
297.61	3.8
297.986	3.36
298.363	3.67
298.739	3.54
299.115	3.26
299.491	3.9
299.867	3.66
300.243	3.84
300.619	3.51
300.995	3.79
301.371	3.55
301.746	3.78
302.122	3.97
302.498	3.7
302.874	4.09
303.249	3.61
303.625	3.79
304	3.74
304.376	3.41
304.751	3.71
305.127	3.7
305.502	3.83
305.878	3.7
306.253	3.39
306.628	3.65
307.003	3.72
307.378	3.52
307.754	3.45
308.129	3.2
308.504	3.75
308.879	3.38
309.254	3.57
309.629	3.22
310.003	3.76
310.378	3.12
310.753	3.45
311.128	3.55
311.502	4.05
311.877	3.37
312.252	3.73
312.626	3.44
313.001	3.4
313.375	3.3
313.75	3.49
314.124	3.45
314.498	3.72
314.873	3.55
315.247	3.53
315.621	3.59
315.995	3.87
316.369	3.89
316.743	3.02
317.117	3.49
317.491	2.81
317.865	3.05
318.239	3.27
318.613	3.63
318.987	4.01
319.361	4.08
319.734	3.69
320.108	3.16
320.482	3.85
320.855	3.36
321.229	3.28
321.602	3.5
321.976	2.95
322.349	3.56
322.723	2.99
323.096	3.42
323.469	2.92
323.843	3.36
324.216	3.55
324.589	3.5
324.962	3.59
325.335	3.97
325.708	3.09
326.081	3.06
326.454	3.55
326.827	3.55
327.2	3.13
327.573	3.07
327.945	3.67
328.318	3.84
328.691	3.34
329.063	2.88
329.436	3.11
329.809	3.54
330.181	2.88
330.553	3.06
330.926	3.38
331.298	3.42
331.671	3.1
332.043	2.89
332.415	3.97
332.787	3.28
333.159	3.12
333.532	3.87
333.904	3.27
334.276	3.13
334.648	3.35
335.02	3.96
335.391	3.55
335.763	3.02
336.135	3.95
336.507	3.25
336.879	2.82
337.25	3.76
337.622	3.32
337.993	3.12
338.365	3.24
338.736	3.82
339.108	3.06
339.479	2.84
339.851	3.36
340.222	3.33
340.593	3.08
340.964	3.47
341.336	3.21
341.707	3.4
342.078	3
342.449	3.2
342.82	3.27
343.191	3.27
343.562	3.31
343.933	3.38
344.303	3.56
344.674	3.56
345.045	3.24
345.416	3.27
345.786	3.35
346.157	3.68
346.527	3.11
346.898	3.43
347.268	3.54
347.639	2.95
348.009	3.05
348.38	3.62
348.75	3.45
349.12	3.42
349.49	3.01
349.861	2.82
350.231	3.19
350.601	3.67
350.971	4.07
351.341	3.06
351.711	3.34
352.081	3.18
352.45	3.31
352.82	3.38
353.19	3.91
353.56	3.56
353.929	3.75
354.299	2.96
354.669	3.7
355.038	3.23
355.408	3.66
355.777	2.94
356.147	3.26
356.516	3.64
356.885	3.56
357.254	3.23
357.624	3.32
357.993	3.53
358.362	3.15
358.731	3.54
359.1	3.47
359.469	3.44
359.838	3.07
360.207	3.52
360.576	3.48
360.945	3.47
361.314	3.24
361.682	3
362.051	3.78
362.42	3.42
362.788	3.32
363.157	3.6
363.525	3.31
363.894	3.69
364.262	3.42
364.631	3.06
364.999	3.44
365.367	3.41
365.735	3.35
366.104	3.33
366.472	3.42
366.84	3.4
367.208	3.54
367.576	3.02
367.944	3.49
368.312	3.77
368.68	3.46
369.048	3.28
369.416	3.41
369.783	3.48
370.151	3.58
370.519	3.47
370.886	3.2
371.254	3.39
371.621	3.76
371.989	3.59
372.356	3.48
372.724	3.85
373.091	3.75
373.458	3.44
373.826	3.5
374.193	3.35
374.56	3.54
374.927	3.02
375.294	3.56
375.661	3.42
376.028	3.26
376.395	3.27
376.762	3.69
377.129	3.18
377.496	3.43
377.863	3.55
378.229	3.18
378.596	3.9
378.963	3.67
379.329	3.6
379.696	3.56
380.062	3.29
380.429	3.32
380.795	3.64
381.161	3.56
381.528	3.71
381.894	3.27
382.26	3.67
382.626	3.56
382.993	3.37
383.359	3.71
383.725	3.83
384.091	3.37
384.457	3.38
384.823	3.51
385.188	3.45
385.554	3.47
385.92	3.2
386.286	3.58
386.651	3.64
387.017	3.78
387.383	3.45
387.748	3.5
388.114	3.43
388.479	3.5
388.845	3.42
389.21	3.5
389.575	3.75
389.94	3.51
390.306	3.68
390.671	3.29
391.036	3.32
391.401	3.73
391.766	3.93
392.131	3.93
392.496	3.5
392.861	3.42
393.226	3.65
393.591	3.29
393.956	3.61
394.32	3.38
394.685	3.56
395.05	3.7
395.414	3.55
395.779	3.81
396.143	3.52
396.508	3.27
396.872	3.8
397.236	3.64
397.601	3.66
397.965	3.77
398.329	3.74
398.694	4
399.058	3.55
399.422	3.68
399.786	3.77
400.15	3.86
400.514	3.48
400.878	3.6
401.242	3.76
401.605	3.54
401.969	3.53
402.333	3.55
402.697	3.89
403.06	3.74
403.424	3.61
403.787	3.49
404.151	3.52
404.514	3.84
404.878	3.54
405.241	3.76
405.604	3.58
405.968	3.37
406.331	3.82
406.694	3.66
407.057	3.79
407.42	3.55
407.783	3.7
408.146	3.59
408.509	3.88
408.872	3.83
409.235	3.74
409.598	3.7
409.961	3.42
410.323	3.88
410.686	3.82
411.049	3.67
411.411	3.8
411.774	3.69
412.136	3.33
412.499	3.69
412.861	3.88
413.223	3.57
413.586	3.63
413.948	3.7
414.31	3.98
414.672	3.6
415.035	3.55
415.397	3.57
415.759	3.67
416.121	3.93
416.483	3.85
416.845	3.85
417.206	4.13
417.568	3.95
417.93	3.66
418.292	3.71
418.653	3.62
419.015	3.7
419.377	3.66
419.738	4.01
420.1	3.69
420.461	3.7
420.822	3.74
421.184	3.65
421.545	3.7
421.906	3.76
422.267	3.73
422.629	3.67
422.99	3.6
423.351	3.77
423.712	3.65
424.073	3.76
424.434	3.77
424.795	3.81
425.155	3.62
425.516	3.71
425.877	3.64
426.238	3.57
426.598	3.79
426.959	3.6
427.32	3.72
427.68	3.81
428.041	3.7
428.401	3.88
428.761	3.75
429.122	3.73
429.482	3.82
429.842	3.94
430.202	3.96
430.563	3.76
430.923	3.93
431.283	3.73
431.643	3.71
432.003	3.88
432.363	3.89
432.722	3.81
433.082	3.59
433.442	3.86
433.802	3.85
434.161	3.83
434.521	3.85
434.881	3.83
435.24	3.7
435.6	3.86
435.959	3.91
436.319	3.94
436.678	3.79
437.037	3.91
437.396	3.93
437.756	3.69
438.115	4.05
438.474	4.13
438.833	3.75
439.192	3.98
439.551	3.8
439.91	3.7
440.269	3.84
440.628	3.8
440.987	3.82
441.345	3.86
441.704	3.84
442.063	3.78
442.421	3.79
442.78	3.85
443.138	3.83
443.497	3.75
443.855	3.87
444.214	3.94
444.572	4
444.93	4.02
445.288	3.72
445.647	3.85
446.005	3.86
446.363	3.82
446.721	3.9
447.079	3.83
447.437	3.79
447.795	3.76
448.153	3.84
448.51	3.79
448.868	3.91
449.226	3.94
449.584	3.85
449.941	3.92
450.299	4.01
450.656	3.91
451.014	3.92
451.371	3.85
451.729	3.91
452.086	3.92
452.443	4
452.801	4.02
453.158	4.03
453.515	3.99
453.872	3.81
454.229	3.99
454.586	4
454.943	3.95
455.3	3.95
455.657	3.91
456.014	3.94
456.371	4
456.727	3.92
457.084	3.95
457.441	4.1
457.797	4.05
458.154	4.17
458.51	4.21
458.867	3.86
459.223	4.19
459.58	3.89
459.936	3.97
460.292	4.07
460.648	3.98
461.005	3.79
461.361	3.99
461.717	3.84
462.073	3.85
462.429	3.8
462.785	3.8
463.141	4
463.496	4
463.852	4
464.208	4.06
464.564	4.14
464.919	4.1
465.275	4.1
465.631	3.93
465.986	4.1
466.342	4.12
466.697	3.96
467.052	4.07
467.408	4.07
467.763	3.9
468.118	4
468.473	4.02
468.829	4.05
469.184	4.07
469.539	4.1
469.894	4
470.249	3.94
470.603	4.14
470.958	4.05
471.313	4.13
471.668	3.9
472.023	4.05
472.377	4.05
472.732	4.09
473.086	4.21
473.441	4.05
473.795	4.02
474.15	4.03
474.504	4.05
474.859	4.05
475.213	4.16
475.567	3.98
475.921	4.25
476.275	4.03
476.63	4.15
476.984	4.19
477.338	4.18
477.692	4.07
478.045	4.07
478.399	4.08
478.753	3.95
479.107	4.09
479.461	3.94
479.814	4.19
480.168	4.18
480.521	4.12
480.875	4.11
481.228	4.05
481.582	3.99
481.935	4.08
482.289	4.01
482.642	4.13
482.995	4.11
483.348	4.09
483.701	4.08
484.055	4.03
484.408	4.03
484.761	3.99
485.114	3.98
485.466	3.86
485.819	3.74
486.172	3.69
486.525	3.77
486.878	3.84
487.23	3.99
487.583	4.12
487.936	4.14
488.288	4.12
488.641	4.1
488.993	3.99
489.345	3.91
489.698	3.9
490.05	3.86
490.402	3.87
490.754	3.99
491.107	4.04
491.459	4.02
491.811	4.06
492.163	4.21
492.515	4.16
492.866	4.2
493.218	4
493.57	3.99
493.922	3.79
494.274	3.94
494.625	4
494.977	4.16
495.328	4.24
495.68	4.21
496.031	4.26
496.383	4.19
496.734	4.21
497.086	4.39
497.437	4.27
497.788	4.22
498.139	4.16
498.49	4.06
498.842	4.2
499.193	4.01
499.544	4.04
499.894	4.19
500.245	4.1
500.596	4.11
500.947	4.17
501.298	4.39
501.648	4.19
501.999	4.29
502.35	4.25
502.7	4.25
503.051	4.31
503.401	4.32
503.752	4.27
504.102	4.23
504.452	4.18
504.803	4.37
505.153	4.14
505.503	4.17
505.853	4.11
506.203	4.19
506.553	4.17
506.903	4.28
507.253	4.37
507.603	4.17
507.953	4.36
508.303	4.38
508.652	4.43
509.002	4.38
509.352	4.21
509.701	4.18
510.051	4.14
510.4	4.19
510.75	4.23
511.099	4.21
511.449	4.19
511.798	4.24
512.147	4.28
512.496	4.32
512.846	4.27
513.195	4.2
513.544	4.28
513.893	4.26
514.242	4.18
514.591	4.36
514.939	4.09
515.288	4.33
515.637	4.33
515.986	4.2
516.334	4.32
516.683	4.45
517.032	4.3
517.38	4.25
517.729	4.4
518.077	4.23
518.426	4.32
518.774	4.3
519.122	4.36
519.47	4.25
519.819	4.24
520.167	4.27
520.515	4.22
520.863	4.1
521.211	4.2
521.559	4.29
521.907	4.25
522.255	4.28
522.602	4.34
522.95	4.37
523.298	4.32
523.645	4.44
523.993	4.25
524.341	4.43
524.688	4.43
525.036	4.36
525.383	4.48
525.73	4.44
526.078	4.51
526.425	4.33
526.772	4.4
527.119	4.32
527.466	4.2
527.814	4.15
528.161	4.15
528.508	4.31
528.854	4.2
529.201	4.28
529.548	4.21
529.895	4.27
530.242	4.17
530.588	4
530.935	3.97
531.282	4.03
531.628	4.12
531.975	4.21
532.321	4.29
532.667	4.29
533.014	4.35
533.36	4.34
533.706	4.39
534.052	4.31
534.399	4.28
534.745	4.3
535.091	4.22
535.437	4.16
535.783	4.16
536.129	4.17
536.474	4.33
536.82	4.37
537.166	4.38
537.512	4.42
537.857	4.45
538.203	4.31
538.549	4.32
538.894	4.18
539.239	4.23
539.585	4.33
539.93	4.36
540.276	4.37
540.621	4.51
540.966	4.39
541.311	4.51
541.656	4.45
542.001	4.35
542.346	4.45
542.691	4.31
543.036	4.24
543.381	4.21
543.726	4.08
544.071	4.17
544.415	4.27
544.76	4.36
545.105	4.44
545.449	4.34
545.794	4.35
546.138	4.4
546.483	4.44
546.827	4.36
547.171	4.43
547.516	4.32
547.86	4.38
548.204	4.46
548.548	4.41
548.892	4.26
549.236	4.28
549.58	4.35
549.924	4.46
550.268	4.54
550.612	4.45
550.956	4.58
551.3	4.56
551.643	4.69
551.987	4.4
552.33	4.6
552.674	4.52
553.017	4.55
553.361	4.56
553.704	4.35
554.048	4.6
554.391	4.38
554.734	4.45
555.077	4.39
555.42	4.48
555.764	4.51
556.107	4.44
556.45	4.49
556.793	4.62
557.135	4.8
557.478	4.6
557.821	4.52
558.164	4.63
558.507	4.53
558.849	4.53
559.192	4.48
559.534	4.58
559.877	4.54
560.219	4.78
560.562	4.49
560.904	4.73
561.246	4.42
561.589	4.59
561.931	4.49
562.273	4.35
562.615	4.44
562.957	4.55
563.299	4.61
563.641	4.4
563.983	4.49
564.325	4.67
564.667	4.36
565.008	4.48
565.35	4.7
565.692	4.77
566.033	4.52
566.375	4.57
566.716	4.59
567.058	4.53
567.399	4.55
567.741	4.49
568.082	4.42
568.423	4.45
568.764	4.46
569.105	4.74
569.447	4.45
569.788	4.64
570.129	4.58
570.47	4.74
570.811	4.7
571.151	4.56
571.492	4.58
571.833	4.37
572.174	4.68
572.514	4.57
572.855	4.35
573.195	4.69
573.536	4.79
573.876	4.49
574.217	4.49
574.557	4.52
574.898	4.64
575.238	4.61
575.578	4.36
575.918	4.64
576.258	4.61
576.598	4.57
576.938	4.5
577.278	4.46
577.618	4.54
577.958	4.63
578.298	4.76
578.638	4.5
578.977	4.77
579.317	4.59
579.657	4.62
579.996	4.78
580.336	4.61
580.675	4.69
581.014	4.77
581.354	4.72
581.693	4.77
582.032	4.88
582.372	4.77
582.711	4.87
583.05	4.68
583.389	4.52
583.728	4.61
584.067	4.56
584.406	4.67
584.745	4.63
585.083	4.57
585.422	4.6
585.761	4.69
586.1	4.8
586.438	4.48
586.777	4.55
587.115	4.82
587.454	4.76
587.792	4.73
588.13	4.83
588.469	4.85
588.807	4.81
589.145	4.91
589.483	4.75
589.821	4.7
590.159	4.95
590.497	4.45
590.835	4.82
591.173	4.49
591.511	4.62
591.849	4.67
592.187	4.77
592.524	4.79
592.862	4.71
593.2	4.69
593.537	4.7
593.875	4.91
594.212	4.79
594.55	4.82
594.887	4.57
595.224	4.92
595.561	4.44
595.899	4.67
596.236	4.82
596.573	4.92
596.91	4.64
597.247	4.8
597.584	4.65
597.921	4.62
598.258	4.63
598.594	4.67
598.931	4.64
599.268	4.55
599.604	4.53
599.941	4.68
600.277	4.87
600.614	5.01
600.95	4.75
601.287	4.83
601.623	4.94
601.959	4.81
602.296	4.82
602.632	4.88
602.968	4.83
603.304	4.88
603.64	5.03
603.976	4.78
604.312	4.68
604.648	4.68
604.984	4.61
605.319	4.69
605.655	4.78
605.991	5.01
606.326	4.72
606.662	4.78
606.998	4.76
607.333	4.63
607.668	4.81
608.004	4.93
608.339	4.85
608.674	4.8
609.01	5
609.345	4.96
609.68	4.82
610.015	5.01
610.35	4.97
610.685	5.01
611.02	4.79
611.355	4.92
611.689	4.54
612.024	4.78
612.359	4.81
612.694	4.82
613.028	4.97
613.363	4.79
613.697	4.62
614.032	4.98
614.366	4.82
614.7	4.69
615.035	4.54
615.369	4.85
615.703	5.23
616.037	4.68
616.371	4.81
616.705	4.89
617.039	5.08
617.373	4.76
617.707	4.6
618.041	4.83
618.375	4.91
618.709	4.97
619.042	5.04
619.376	4.58
619.71	4.8
620.043	5.04
620.377	5.2
620.71	4.72
621.043	4.56
621.377	4.96
621.71	4.94
622.043	4.44
622.376	4.76
622.709	5.04
623.043	5.12
623.376	4.82
623.709	4.77
624.041	5.15
624.374	4.81
624.707	4.39
625.04	4.55
625.373	5.27
625.705	5.36
626.038	4.93
626.37	4.76
626.703	5.42
627.035	4.9
627.368	5.38
627.7	4.77
628.032	5.06
628.365	4.78
628.697	4.79
629.029	5.11
629.361	5.01
629.693	4.88
630.025	4.82
630.357	4.8
630.689	5.03
631.021	5.2
631.353	4.91
631.684	4.97
632.016	4.77
632.348	4.82
632.679	4.62
633.011	4.89
633.342	4.88
633.674	5.12
634.005	4.91
634.336	4.47
634.668	5.07
634.999	5.07
635.33	5.17
635.661	5.22
635.992	4.75
636.323	5.26
636.654	5
636.985	4.77
637.316	4.84
637.647	4.93
637.977	4.86
638.308	5.21
638.639	4.52
638.969	5.11
639.3	4.85
639.63	4.57
639.961	5.05
640.291	5.23
640.622	4.93
640.952	4.75
641.282	4.95
641.612	5.25
641.943	5.13
642.273	5.32
642.603	5.21
642.933	4.93
643.263	5.27
643.592	4.89
643.922	5.15
644.252	4.8
644.582	4.99
644.911	5.51
645.241	5.22
645.571	5.13
645.9	4.72
646.23	4.5
646.559	4.78
646.888	5.41
647.218	4.68
647.547	5.35
647.876	5.25
648.205	5.24
648.534	5.29
648.863	4.69
649.192	5.72
649.521	5.21
649.85	4.9
650.179	5
650.508	5.01
650.837	5.11
651.165	5.08
651.494	5.4
651.822	4.95
652.151	4.96
652.479	5.6
652.808	4.94
653.136	5.41
653.465	5.04
653.793	5.23
654.121	5.2
654.449	5.22
654.777	5.09
655.105	5.01
655.433	4.88
655.761	5.04
656.089	5.16
656.417	5.03
656.745	5.22
657.073	4.42
657.4	5.33
657.728	5.32
658.056	4.82
658.383	5.13
658.711	5.32
659.038	5.39
659.365	5.18
659.693	5
660.02	4.74
660.347	5.58
660.674	5.3
661.001	5.54
661.329	5.02
661.656	5.23
661.982	5.09
662.309	5.24
662.636	5.34
662.963	5.1
663.29	4.9
663.616	5.13
663.943	5.31
664.27	5.62
664.596	5.1
664.923	5.37
665.249	5.72
665.576	5.56
665.902	4.97
666.228	5.47
666.554	5.54
666.881	5.23
667.207	5.41
667.533	5.29
667.859	4.94
668.185	5.46
668.511	5.52
668.837	4.56
669.162	5.08
669.488	4.95
669.814	5.25
670.139	5.27
670.465	5.83
670.791	5.71
671.116	5.07
671.442	5.56
671.767	4.66
672.092	5.48
672.418	5.08
672.743	6.09
673.068	5.2
673.393	5.51
673.718	4.37
674.043	4.76
674.368	5.38
674.693	5.62
675.018	5.61
675.343	5.3
675.667	5.78
675.992	5.7
676.317	4.91
676.641	5.63
676.966	5.59
677.29	4.42
677.615	5.7
677.939	5.25
678.264	4.79
678.588	5.56
678.912	5.6
679.236	5.13
679.56	4.98
679.885	5.96
680.209	5.13
680.532	6.29
680.856	5.4
681.18	5.15
681.504	4.94
681.828	5.48
682.152	5.42
682.475	5.39
682.799	5.65
683.122	5.42
683.446	5.25
683.769	5.51
684.093	5.6
684.416	5.99
684.739	5.14
685.062	5.55
685.386	4.9
685.709	5.76
686.032	4.46
686.355	5.34
686.678	6.07
687.001	4.93
687.324	5.62
687.646	5.05
687.969	5.38
688.292	5.67
688.614	6.03
688.937	5.76
689.26	4.93
689.582	4.57
689.904	5.5
690.227	5.32
690.549	5.04
690.871	6.04
691.194	5.46
691.516	5.91
691.838	5.99
692.16	5.96
692.482	5.09
692.804	5.26
693.126	4.93
693.448	5.3
693.769	5.84
694.091	4.64
694.413	4.86
694.735	6.18
695.056	5.76
695.378	6.19
695.699	6.09
696.021	5.53
696.342	5.28
696.663	5.64
696.984	4.69
697.306	5.59
697.627	5.69
697.948	5.49
698.269	5.78
698.59	5.57
698.911	4.9
699.232	5.21
699.553	5.53
699.873	4.81
700.194	5.51
700.515	6.11
700.835	5.72
701.156	5.77
701.477	5.9
701.797	5.68
702.117	5.14
702.438	5.77
702.758	5.94
703.078	6.39
703.398	5.16
703.719	6.46
704.039	5.9
704.359	5.67
704.679	5.51
704.999	5.2
705.319	4.84
705.638	5.36
705.958	5.86
706.278	5.75
706.597	4.42
706.917	5.97
707.237	5.31
707.556	6.04
707.876	6.63
708.195	5.49
708.514	5.45
708.834	5.2
709.153	6.77
709.472	6.02
709.791	5.81
710.11	6.32
710.429	5.78
710.748	6.13
711.067	5.27
711.386	6.17
711.705	7.21
712.023	5.06
712.342	5.91
712.661	5.67
712.979	5.9
713.298	5.6
713.616	6.32
713.935	5.2
714.253	6.12
714.572	5.73
714.89	6.81
715.208	6.74
715.526	5.56
715.844	6.5
716.162	5.4
716.48	5.41
716.798	5.3
717.116	5.53
717.434	5.92
717.752	5.86
718.069	6.43
718.387	6.13
718.705	6.34
719.022	6.3
719.34	6.47
719.657	6.27
719.975	5.54
720.292	6.28
720.609	5.73
720.927	4.84
721.244	5.48
721.561	6.13
721.878	6.53
722.195	5.64
722.512	4.28
722.829	6.13
723.146	6.8
723.463	5.74
723.779	5.94
724.096	7.18
724.413	6.95
724.729	5.64
725.046	4.26
725.362	6.97
725.679	7.12
725.995	6.36
726.311	7.06
726.628	7.09
726.944	5.84
727.26	4.39
727.576	5.18
727.892	4.95
728.208	7.7
728.524	5.68
728.84	6.55
729.156	4.87
729.472	6.11
729.787	6.48
730.103	6.77
730.419	6.13
730.734	5.48
731.05	5.76
731.365	6.05
731.681	5.72
731.996	6.44
732.311	6.38
732.626	6.93
732.942	6.61
733.257	6.1
733.572	5.28
733.887	5.85
734.202	6.77
734.517	6.19
734.832	5.94
735.146	6.55
735.461	4.51
735.776	5.17
736.091	5.88
736.405	7.54
736.72	7.35
737.034	4.61
737.349	6.07
737.663	4.36
737.977	7.2
738.292	6.12
738.606	6.97
738.92	5.55
739.234	5.08
739.548	6.73
739.862	7.97
740.176	6.3
740.49	6.71
740.804	4.82
741.117	4.99
741.431	6.29
741.745	6.55
742.058	5.84
742.372	7.5
742.685	8.06
742.999	6.07
743.312	6.56
743.626	5.45
743.939	6.58
744.252	5.36
744.565	5.2
744.878	7.82
745.191	5.29
745.505	6.98
745.817	6.14
746.13	7.18
746.443	6.64
746.756	7.25
747.069	7.23
747.381	5.99
747.694	6.49
748.007	6.83
748.319	5.47
748.632	5.08
748.944	5.99
749.256	7.54
749.569	4.88
749.881	6.52
750.193	7.15
750.505	9.32
750.817	6.9
751.129	5.07
751.441	6.87
751.753	6.71
752.065	6.41
752.377	6.9
752.689	5.96
753	5.51
753.312	9.52
753.624	7.3
753.935	7.07
754.247	6.25
754.558	5.88
754.869	6.67
755.181	6.55
755.492	6.51
755.803	8.05
756.114	6.35
756.425	6.3
756.736	7.81
757.047	4.38
757.358	5.49
757.669	7.84
757.98	7.48
758.291	3.88
758.601	6.8
758.912	6.48
759.223	6.25
759.533	7.54
759.844	6.29
760.154	7.82
760.464	7.91
760.775	7.01
761.085	5.04
761.395	7.01
761.705	6.76
762.016	8.67
762.326	9.24
762.636	6.29
762.945	6.83
763.255	5.38
763.565	6.36
763.875	8.45
764.185	4.54
764.494	6.83
764.804	4.98
765.113	7.14
765.423	6.51
765.732	6.09
766.042	6.07
766.351	7.01
766.66	7.08
766.97	7.63
767.279	8.89
767.588	6.44
767.897	6.31
768.206	5.8
768.515	5.95
768.824	7.36
769.133	7.61
769.441	7.18
769.75	7.96
770.059	7.45
770.367	9.69
770.676	3.74
770.984	7.46
771.293	6.89
771.601	7.12
771.91	6.16
772.218	7.22
772.526	7.73
772.834	7.58
773.142	7.61
773.45	4.83
773.758	5.7
774.066	8.72
774.374	6.24
774.682	9.41
774.99	6.66
775.298	7.52
775.605	4.82
775.913	5.4
776.22	5.43
776.528	10.49
776.835	4.59
777.143	7.16
777.45	7.32
777.757	5.42
778.065	7.84
778.372	9.1
778.679	6.1
778.986	4.78
779.293	8.41
779.6	6.55
779.907	6.6
780.214	4.66
780.52	10.43
780.827	6.64
781.134	8.62
781.44	6.83
781.747	4.55
782.053	8.78
782.36	5.06
782.666	7.77
782.973	7.45
783.279	6.81
783.585	6.81
783.891	6.58
784.197	5.82
784.503	7.57
784.809	5.39
785.115	6.87
785.421	10.03
785.727	9.71
786.033	7.6
786.339	8.05
786.644	5.99
786.95	8.75
787.255	5.28
787.561	7.58
787.866	8.17
788.172	9.7
788.477	7.18
788.782	3.28
789.088	8.32
789.393	10.48
789.698	7.98
790.003	8.43
790.308	6.58
790.613	6.29
790.918	6.25
791.223	8.38
791.527	3.37
791.832	5.53
792.137	6.56
792.441	8.64
792.746	8.71
793.05	6.65
793.355	10.63
793.659	7.97
793.963	6.94
794.268	9.12
794.572	6.82
794.876	7.21
795.18	3.72
795.484	5.5
795.788	7.75
796.092	10.91
796.396	8.97
796.7	11.38
797.004	4.58
797.307	7.6
797.611	8.82
797.915	7.58
798.218	2.31
798.522	8.05
798.825	6.99
799.128	4.92
799.432	9.38
799.735	9.38
800.038	7.92
800.341	7.41
800.644	9.22
800.947	7.58
801.25	9.67
801.553	9.84
801.856	5.59
802.159	8.98
802.462	9.86
802.764	6.29
803.067	5.36
803.37	5.31
803.672	2.85
803.975	2.87
804.277	5.97
804.579	5.32
804.882	5.66
805.184	6.06
805.486	8.27
805.788	8.66
806.09	5.9
806.392	10.3
806.694	7.21
806.996	6.08
807.298	11.47
807.6	7.87
807.902	4.58
808.203	5.61
808.505	9.7
808.807	7.98
809.108	9.83
809.409	3.84
809.711	5.02
810.012	7.06
810.313	5.25
810.615	7.54
810.916	5.18
811.217	8.56
811.518	6.98
811.819	9.96
812.12	9.94
812.421	5.03
812.722	5.58
813.023	5.89
813.323	7.46
813.624	6.33
813.925	11.85
814.225	12.37
814.526	6.19
814.826	12.01
815.126	8.23
815.427	10.61
815.727	0.37
816.027	3.56
816.327	7.8
816.627	11.07
816.927	12.04
817.227	7.85
817.527	7.76
817.827	10.32
818.127	7.31
818.427	4.83
818.727	9.61
819.026	5.43
819.326	3.45
819.625	11.42
819.925	6.28
820.224	3.48
820.524	3.63
820.823	8.98
821.122	9.89
821.421	0.3
821.72	5.22
822.019	11.94
822.318	4.49
822.617	9.39
822.916	9.35
823.215	7.39
823.514	5.05
823.813	10.07
824.111	7.4
824.41	7.76
824.709	9.3
825.007	7.47
825.306	8.33
825.604	9.99
825.902	9.72
826.201	9.28
826.499	9.41
826.797	8.25
827.095	8.83
827.393	10.12
827.691	7.35
827.989	9.31
828.287	8.79
828.585	8.59
828.882	8.67
829.18	8.36
829.478	10.48
829.775	9.21
830.073	9.07
830.37	9.43
830.668	9.59
830.965	7.5
831.263	9.98
831.56	7.37
831.857	10.69
832.154	5.7
832.451	6.67
832.748	11.36
833.045	2.14
833.342	9.49
833.639	5.94
833.936	8.27
834.232	11.79
834.529	8.42
834.826	9.68
835.122	5.24
835.419	9.17
835.715	7.36
836.012	7.01
836.308	5.51
836.604	8.11
836.901	8.84
837.197	10.23
837.493	7.71
837.789	6.36
838.085	10.51
838.381	8.1
838.677	6.4
838.972	10.11
839.268	8.47
839.564	7.95
839.86	6.76
840.155	5.25
840.451	8.8
840.746	4.77
841.042	9.85
841.337	14.81
841.632	-0.95
841.928	0.38
842.223	4.19
842.518	2.02
842.813	6.03
843.108	-0.78
843.403	11.92
843.698	4.32
843.993	3.46
844.287	14.95
844.582	15.91
844.877	11.05
845.171	8.28
845.466	3.09
845.761	10.96
846.055	6.03
846.349	-0.54
846.644	1.15
846.938	-7.79
847.232	-9.72
847.526	-0.78
847.82	3.14
848.114	2.32
848.408	12.14
848.702	4.85
848.996	6.45
849.29	12.35
849.584	-7.78
849.877	17.9
850.171	-12.13
850.465	7.43
850.758	4.53
851.052	8.28
851.345	0.51
851.638	-0.44
851.932	-18.06
852.225	7.36
852.518	17.12
852.811	-12.95
853.104	2.27
853.397	3.23
853.69	-6.43
853.983	14.47
854.276	-1.12
854.569	-7.68
854.861	4.93
855.154	-1.66
855.447	8.5
855.739	2.24
856.032	-1.63
856.324	-1.6
856.616	-12.63
856.909	-4.33
857.201	7.78
857.493	5.76
857.785	-3.7
858.077	-6.51
858.369	24.31
858.661	8.74
858.953	8.16
859.245	-5.45
859.537	18.65
859.829	12.3
860.12	-18.26
860.412	-11.77
860.703	-4.98
860.995	15.54
861.286	8.3
861.578	9.78
861.869	-19.43
862.16	16.77
862.452	9.91
862.743	17.83
863.034	16.37
863.325	17.33
863.616	11.22
863.907	-1.87
864.198	-17.93
864.488	-26.49
864.779	21.71
865.07	11.3
865.36	4.41
865.651	-8.57
865.941	-5.07
866.232	8.38
866.522	14.83
866.813	24.5
867.103	13.28
867.393	-6.05
867.683	0.12
867.973	9.08
868.263	-20.4
868.553	8.95
868.843	11.6
869.133	-2.65
869.423	8.81
869.713	3.24
870.002	-1.39
870.292	-13.82
870.582	-9.18
870.871	8.46
871.161	-3.01
871.45	16.07
871.739	-5.93
872.029	2.57
872.318	10.94
872.607	15.37
872.896	16.53
873.185	13.78
873.474	4.58
873.763	-29.53
874.052	3.87
874.341	-13.33
874.63	1.83
874.918	-10.61
875.207	-1.84
875.496	3.95
875.784	8.57
876.073	-3.17
876.361	0.2
876.649	1.47
876.938	3.58
877.226	5.01
877.514	0.36
877.802	23.91
878.09	-9.78
878.378	37.26
878.666	11.49
878.954	4.98
879.242	-11.29
879.53	0.18
879.817	2.51
880.105	23.39
880.392	9.04
880.68	8.83
880.967	20.19
881.255	18.02
881.542	26.43
881.83	6.48
882.117	4.82
882.404	3.76
882.691	5.15
882.978	10.62
883.265	17.09
883.552	7.34
883.839	-1.22
884.126	-7.34
884.413	3.98
884.699	-1.02
884.986	20.19
885.273	10.41
885.559	10.41
885.846	10.41
