Data from 0022_crown_Reflection__2__38.txt Node

Date: Thu Oct 20 20:38:18 CDT 2022
User: ToomeyLab
Spectrometer: FLMS14357
Trigger mode: 0
Integration Time (sec): 1.000000E-2
Scans to average: 100
Electric dark correction enabled: true
Nonlinearity correction enabled: false
Boxcar width: 0
XAxis mode: Wavelengths
Number of Pixels in Spectrum: 2048
>>>>>Begin Spectral Data<<<<<
189.047	171.56
189.435	171.56
189.823	171.56
190.211	190.67
190.599	74.29
190.987	-247.65
191.375	45
191.763	75.19
192.151	109.2
192.538	-114.42
192.926	165.26
193.314	52.4
193.702	53.09
194.089	28.65
194.477	-475.9
194.864	80.56
195.252	300.46
195.639	-48.82
196.027	24.08
196.414	-930.19
196.801	383.85
197.189	-79.38
197.576	-21.8
197.963	-28.91
198.351	6.78
198.738	52.29
199.125	37.08
199.512	-3.87
199.899	2.28
200.286	-1.54
200.673	49.56
201.06	35.17
201.447	19.7
201.833	28.02
202.22	49.45
202.607	34.29
202.994	32.38
203.38	-14.76
203.767	30.51
204.154	4.49
204.54	18
204.927	56.64
205.313	36.35
205.699	42.69
206.086	47.71
206.472	6.36
206.858	20.06
207.245	13.11
207.631	23.69
208.017	36.03
208.403	48.78
208.789	2.92
209.175	42.85
209.561	15.59
209.947	14.09
210.333	14.77
210.719	23.02
211.105	-12.96
211.491	6.44
211.876	-3.79
212.262	-2.37
212.648	-32.61
213.034	2.1
213.419	14.65
213.805	4.17
214.19	14.01
214.576	5.19
214.961	9.49
215.346	0.9
215.732	32.68
216.117	11.32
216.502	28.78
216.888	22.81
217.273	23.58
217.658	27.62
218.043	-3.98
218.428	16.33
218.813	8.11
219.198	32.25
219.583	13.39
219.968	9.4
220.353	10.62
220.738	15.86
221.122	18.59
221.507	8.47
221.892	7.24
222.276	13.23
222.661	1.5
223.046	9.24
223.43	11.3
223.815	2.41
224.199	4.55
224.583	0.75
224.968	11.01
225.352	11.37
225.736	3.67
226.121	15.82
226.505	10.21
226.889	4.9
227.273	5.85
227.657	4.5
228.041	7.61
228.425	8.36
228.809	7.56
229.193	5.15
229.577	7.03
229.961	6.12
230.344	6.43
230.728	7.3
231.112	6.44
231.495	6.96
231.879	7.33
232.263	6.42
232.646	7.89
233.03	6.25
233.413	6.92
233.797	4.82
234.18	7.28
234.563	6.39
234.946	6.08
235.33	5.49
235.713	8.67
236.096	6.48
236.479	6.42
236.862	7.24
237.245	5.43
237.628	5.45
238.011	5.79
238.394	6.04
238.777	4.72
239.16	5.96
239.543	7.29
239.925	6.39
240.308	6.1
240.691	6.9
241.073	5.85
241.456	5.75
241.838	5.62
242.221	6.79
242.603	6.71
242.986	5.82
243.368	5.72
243.75	6.24
244.133	6.06
244.515	5.96
244.897	6.02
245.279	6.11
245.661	5.62
246.043	5.37
246.425	5.09
246.807	6.02
247.189	5.61
247.571	5.65
247.953	5.72
248.335	5.47
248.717	5.68
249.098	5.64
249.48	5.34
249.862	5.86
250.243	5.37
250.625	6.16
251.006	6.13
251.388	5.27
251.769	5.52
252.151	5.54
252.532	5.89
252.913	5.42
253.295	5.51
253.676	5.7
254.057	5.75
254.438	6.33
254.819	6.69
255.2	4.54
255.581	5.92
255.962	4.41
256.343	7.27
256.724	5.81
257.105	5.19
257.486	5.16
257.867	5.34
258.247	5.67
258.628	4.89
259.009	5.48
259.389	4.86
259.77	5.16
260.15	5.28
260.531	5.89
260.911	5.01
261.292	4.92
261.672	5.21
262.052	5.53
262.432	5.28
262.813	5.67
263.193	5.34
263.573	4.67
263.953	5.14
264.333	5.63
264.713	5.31
265.093	5.37
265.473	5.8
265.853	5.24
266.233	5.66
266.612	5.24
266.992	5.47
267.372	5.33
267.752	5.1
268.131	4.55
268.511	4.74
268.89	5.17
269.27	5.1
269.649	4.83
270.029	5.21
270.408	4.77
270.787	5.06
271.167	5.29
271.546	4.77
271.925	4.97
272.304	5.19
272.683	4.71
273.062	4.74
273.441	5.26
273.82	4.65
274.199	4.96
274.578	4.88
274.957	5.02
275.336	4.88
275.715	4.58
276.093	5.02
276.472	4.97
276.851	4.85
277.229	4.07
277.608	4.75
277.986	4.22
278.365	4.68
278.743	4.72
279.122	5.48
279.5	5.02
279.878	4.87
280.257	4.39
280.635	5.37
281.013	4.94
281.391	4.56
281.769	4.46
282.147	4.65
282.525	4.6
282.903	4.71
283.281	4.61
283.659	4.41
284.037	4.52
284.415	4.85
284.792	4.5
285.17	5.05
285.548	4.07
285.925	4.66
286.303	4.49
286.68	4.63
287.058	4.51
287.435	4.37
287.813	4.61
288.19	4.82
288.567	4.11
288.945	4.56
289.322	3.66
289.699	4.71
290.076	4.71
290.453	4.28
290.83	4.35
291.207	4.64
291.584	3.92
291.961	4.04
292.338	4.23
292.715	4.45
293.092	4.71
293.469	4.49
293.845	4.17
294.222	3.75
294.599	4.58
294.975	4.04
295.352	4.31
295.728	4.69
296.105	4.27
296.481	4.15
296.858	4.39
297.234	3.94
297.61	4.05
297.986	4.01
298.363	4.25
298.739	4.37
299.115	4.24
299.491	4.52
299.867	3.94
300.243	3.91
300.619	4.48
300.995	4.22
301.371	4.03
301.746	4.11
302.122	3.73
302.498	4.2
302.874	4.32
303.249	4.17
303.625	3.99
304	4.57
304.376	4.08
304.751	3.96
305.127	3.43
305.502	4.14
305.878	3.91
306.253	4.38
306.628	4.4
307.003	3.84
307.378	4.53
307.754	4.33
308.129	4.14
308.504	3.68
308.879	3.81
309.254	4.31
309.629	4.33
310.003	3.99
310.378	4.27
310.753	4.18
311.128	3.63
311.502	4.04
311.877	3.87
312.252	4
312.626	3.87
313.001	4.19
313.375	4.22
313.75	3.96
314.124	4.23
314.498	3.81
314.873	3.94
315.247	3.96
315.621	3.96
315.995	4.22
316.369	3.77
316.743	4.57
317.117	3.98
317.491	4.12
317.865	4.41
318.239	3.89
318.613	4.16
318.987	4.16
319.361	4.08
319.734	3.77
320.108	4.27
320.482	3.49
320.855	3.82
321.229	3.66
321.602	4.32
321.976	4.02
322.349	3.89
322.723	3.86
323.096	3.36
323.469	4.11
323.843	4.26
324.216	3.7
324.589	3.88
324.962	4.42
325.335	3.36
325.708	4.09
326.081	4.28
326.454	3.98
326.827	3.96
327.2	4.2
327.573	4.05
327.945	4.05
328.318	3.46
328.691	4.18
329.063	3.31
329.436	3.16
329.809	4.17
330.181	4.08
330.553	3.67
330.926	3.66
331.298	3.48
331.671	4.19
332.043	4.38
332.415	4.19
332.787	3.96
333.159	3.61
333.532	3.88
333.904	3.79
334.276	4.12
334.648	3.91
335.02	4.2
335.391	4.34
335.763	3.92
336.135	4.03
336.507	4.13
336.879	3.97
337.25	3.97
337.622	3.87
337.993	4.12
338.365	3.63
338.736	4.07
339.108	3.8
339.479	3.85
339.851	4.41
340.222	3.72
340.593	3.92
340.964	3.79
341.336	4.03
341.707	3.62
342.078	3.38
342.449	3.86
342.82	3.89
343.191	3.92
343.562	4.14
343.933	3.86
344.303	4.04
344.674	3.31
345.045	3.85
345.416	3.74
345.786	3.99
346.157	4.05
346.527	3.45
346.898	3.77
347.268	4.01
347.639	3.94
348.009	3.99
348.38	4.06
348.75	3.81
349.12	3.76
349.49	4.14
349.861	4.42
350.231	3.78
350.601	4.49
350.971	3.76
351.341	3.99
351.711	4.01
352.081	4.48
352.45	3.95
352.82	3.89
353.19	4.19
353.56	3.84
353.929	3.99
354.299	3.51
354.669	4.34
355.038	3.67
355.408	3.86
355.777	4.12
356.147	3.86
356.516	4.1
356.885	4.55
357.254	4.23
357.624	3.74
357.993	3.92
358.362	3.97
358.731	4.22
359.1	4.25
359.469	4.02
359.838	4.03
360.207	4.29
360.576	3.75
360.945	3.6
361.314	4.24
361.682	3.9
362.051	3.88
362.42	3.78
362.788	4.01
363.157	4.05
363.525	3.93
363.894	4.14
364.262	4
364.631	4.15
364.999	3.99
365.367	4.13
365.735	3.97
366.104	4.22
366.472	4.11
366.84	4.05
367.208	4.21
367.576	4.37
367.944	4.27
368.312	4.52
368.68	4.45
369.048	3.95
369.416	4.25
369.783	4.1
370.151	4.17
370.519	4.39
370.886	4.25
371.254	4.4
371.621	4.22
371.989	3.92
372.356	4.28
372.724	4.25
373.091	4.33
373.458	4.17
373.826	4.21
374.193	3.96
374.56	4.43
374.927	4.37
375.294	4.08
375.661	4.37
376.028	4.25
376.395	4.2
376.762	4.2
377.129	4.36
377.496	4.3
377.863	4.33
378.229	4.01
378.596	3.95
378.963	4.31
379.329	4.18
379.696	4.62
380.062	4.14
380.429	4.3
380.795	4.37
381.161	4.28
381.528	4.3
381.894	4.36
382.26	4.2
382.626	4.22
382.993	4.4
383.359	4.44
383.725	4.4
384.091	3.93
384.457	4.24
384.823	4.3
385.188	4.57
385.554	4.41
385.92	4.41
386.286	4.3
386.651	4.38
387.017	4.23
387.383	4.42
387.748	4.55
388.114	4.47
388.479	4.62
388.845	4.38
389.21	4.57
389.575	4.27
389.94	4.5
390.306	4.47
390.671	4.23
391.036	4.44
391.401	4.37
391.766	4.64
392.131	4.35
392.496	4.28
392.861	4.35
393.226	4.57
393.591	4.3
393.956	4.22
394.32	4.44
394.685	4.23
395.05	4.18
395.414	4.47
395.779	4.3
396.143	4.34
396.508	4.43
396.872	4.31
397.236	4.65
397.601	4.56
397.965	4.65
398.329	4.52
398.694	4.51
399.058	4.7
399.422	4.37
399.786	4.68
400.15	4.35
400.514	4.55
400.878	4.6
401.242	4.67
401.605	4.52
401.969	4.63
402.333	4.54
402.697	4.56
403.06	4.66
403.424	4.59
403.787	4.36
404.151	4.56
404.514	4.58
404.878	4.53
405.241	4.54
405.604	4.74
405.968	4.64
406.331	4.59
406.694	4.69
407.057	4.51
407.42	4.4
407.783	4.54
408.146	4.77
408.509	4.6
408.872	4.93
409.235	4.63
409.598	4.66
409.961	4.51
410.323	4.57
410.686	4.8
411.049	4.28
411.411	4.62
411.774	4.59
412.136	4.5
412.499	4.85
412.861	4.56
413.223	4.84
413.586	4.85
413.948	4.74
414.31	4.69
414.672	4.66
415.035	4.84
415.397	4.72
415.759	4.69
416.121	4.31
416.483	4.46
416.845	4.74
417.206	4.64
417.568	4.64
417.93	4.29
418.292	4.68
418.653	4.45
419.015	4.63
419.377	4.56
419.738	4.71
420.1	4.6
420.461	4.62
420.822	4.67
421.184	4.65
421.545	4.56
421.906	4.62
422.267	4.55
422.629	4.69
422.99	4.42
423.351	4.53
423.712	4.5
424.073	4.53
424.434	4.6
424.795	4.57
425.155	4.63
425.516	4.52
425.877	4.58
426.238	4.68
426.598	4.54
426.959	4.68
427.32	4.7
427.68	4.63
428.041	4.65
428.401	4.73
428.761	4.77
429.122	4.72
429.482	4.7
429.842	4.68
430.202	4.74
430.563	4.69
430.923	4.55
431.283	4.74
431.643	4.81
432.003	4.78
432.363	4.83
432.722	4.82
433.082	4.79
433.442	4.85
433.802	4.9
434.161	4.9
434.521	4.8
434.881	4.86
435.24	4.63
435.6	4.9
435.959	4.75
436.319	4.76
436.678	4.66
437.037	4.89
437.396	4.81
437.756	4.85
438.115	4.78
438.474	4.93
438.833	4.73
439.192	4.87
439.551	4.65
439.91	4.78
440.269	4.82
440.628	4.8
440.987	4.83
441.345	4.7
441.704	4.71
442.063	4.68
442.421	4.7
442.78	4.74
443.138	4.79
443.497	4.8
443.855	4.88
444.214	4.75
444.572	4.67
444.93	4.84
445.288	4.82
445.647	4.69
446.005	4.8
446.363	4.79
446.721	4.8
447.079	4.68
447.437	4.75
447.795	4.67
448.153	4.85
448.51	4.7
448.868	4.71
449.226	4.75
449.584	4.77
449.941	4.75
450.299	4.65
450.656	4.76
451.014	4.81
451.371	4.88
451.729	4.88
452.086	4.66
452.443	5.05
452.801	4.88
453.158	4.89
453.515	4.83
453.872	4.79
454.229	4.86
454.586	4.9
454.943	4.98
455.3	4.78
455.657	4.79
456.014	4.88
456.371	4.93
456.727	4.84
457.084	4.89
457.441	4.85
457.797	5.07
458.154	4.9
458.51	4.68
458.867	4.89
459.223	5.01
459.58	4.9
459.936	4.75
460.292	4.77
460.648	4.86
461.005	4.73
461.361	4.69
461.717	4.82
462.073	4.81
462.429	4.9
462.785	4.84
463.141	4.81
463.496	4.98
463.852	4.96
464.208	4.92
464.564	4.9
464.919	5.14
465.275	4.86
465.631	4.87
465.986	5.02
466.342	4.89
466.697	4.83
467.052	4.97
467.408	4.83
467.763	4.93
468.118	4.83
468.473	4.97
468.829	4.96
469.184	4.91
469.539	4.8
469.894	5
470.249	4.9
470.603	4.89
470.958	4.99
471.313	4.95
471.668	4.82
472.023	4.88
472.377	4.8
472.732	4.89
473.086	4.84
473.441	5.07
473.795	5
474.15	4.86
474.504	4.81
474.859	4.98
475.213	5.09
475.567	4.89
475.921	4.92
476.275	4.76
476.63	5.08
476.984	4.96
477.338	4.95
477.692	4.9
478.045	4.89
478.399	4.94
478.753	4.96
479.107	4.83
479.461	4.86
479.814	4.71
480.168	4.92
480.521	4.81
480.875	4.86
481.228	4.85
481.582	4.81
481.935	4.81
482.289	4.95
482.642	4.86
482.995	4.9
483.348	4.73
483.701	4.74
484.055	4.71
484.408	4.68
484.761	4.6
485.114	4.5
485.466	4.54
485.819	4.6
486.172	4.63
486.525	4.77
486.878	4.71
487.23	4.77
487.583	4.78
487.936	4.72
488.288	4.71
488.641	4.71
488.993	4.7
489.345	4.68
489.698	4.71
490.05	4.74
490.402	4.79
490.754	4.79
491.107	4.74
491.459	4.83
491.811	4.87
492.163	4.75
492.515	4.74
492.866	4.65
493.218	4.63
493.57	4.72
493.922	4.86
494.274	4.86
494.625	4.97
494.977	4.87
495.328	5.01
495.68	4.87
496.031	5.02
496.383	4.95
496.734	4.92
497.086	4.9
497.437	4.97
497.788	4.87
498.139	4.86
498.49	4.91
498.842	4.9
499.193	4.83
499.544	4.96
499.894	4.98
500.245	4.84
500.596	4.91
500.947	5
501.298	5.02
501.648	5.04
501.999	4.96
502.35	5.05
502.7	5.08
503.051	5.11
503.401	5
503.752	5.04
504.102	4.92
504.452	4.94
504.803	5.04
505.153	4.86
505.503	4.89
505.853	4.86
506.203	4.79
506.553	4.9
506.903	5.03
507.253	4.89
507.603	4.93
507.953	4.96
508.303	5.14
508.652	4.96
509.002	4.98
509.352	4.95
509.701	4.76
510.051	4.92
510.4	4.85
510.75	4.94
511.099	4.8
511.449	5.02
511.798	4.96
512.147	4.91
512.496	4.88
512.846	4.97
513.195	4.91
513.544	4.9
513.893	4.8
514.242	4.92
514.591	4.97
514.939	4.92
515.288	4.99
515.637	5.02
515.986	4.99
516.334	4.95
516.683	4.92
517.032	5.03
517.38	4.88
517.729	4.97
518.077	4.92
518.426	4.96
518.774	5
519.122	4.83
519.47	4.9
519.819	4.78
520.167	4.88
520.515	4.87
520.863	4.85
521.211	4.95
521.559	5.02
521.907	4.88
522.255	4.95
522.602	4.99
522.95	4.94
523.298	4.91
523.645	4.98
523.993	5
524.341	5.08
524.688	4.87
525.036	5.05
525.383	4.86
525.73	4.89
526.078	4.99
526.425	4.84
526.772	4.83
527.119	4.75
527.466	4.84
527.814	4.84
528.161	4.92
528.508	4.8
528.854	4.88
529.201	4.74
529.548	4.69
529.895	4.62
530.242	4.62
530.588	4.7
530.935	4.75
531.282	4.84
531.628	4.77
531.975	4.82
532.321	4.88
532.667	4.79
533.014	4.83
533.36	4.78
533.706	4.81
534.052	4.71
534.399	4.7
534.745	4.68
535.091	4.69
535.437	4.78
535.783	4.83
536.129	4.93
536.474	4.87
536.82	4.88
537.166	4.84
537.512	4.83
537.857	4.84
538.203	4.86
538.549	4.87
538.894	4.87
539.239	4.96
539.585	4.88
539.93	4.83
540.276	4.98
540.621	4.93
540.966	4.9
541.311	4.86
541.656	4.92
542.001	4.78
542.346	4.7
542.691	4.65
543.036	4.7
543.381	4.74
543.726	4.77
544.071	4.83
544.415	4.82
544.76	4.79
545.105	4.93
545.449	4.73
545.794	4.89
546.138	4.93
546.483	4.95
546.827	4.78
547.171	4.81
547.516	4.78
547.86	4.84
548.204	4.87
548.548	4.9
548.892	4.86
549.236	4.88
549.58	4.9
549.924	4.94
550.268	4.93
550.612	5.03
550.956	4.99
551.3	4.99
551.643	4.96
551.987	4.89
552.33	5.19
552.674	5
553.017	4.82
553.361	5.02
553.704	4.94
554.048	4.93
554.391	4.89
554.734	4.94
555.077	4.9
555.42	4.93
555.764	5.08
556.107	5.1
556.45	5.11
556.793	5.04
557.135	4.99
557.478	5.15
557.821	5.02
558.164	4.94
558.507	5.03
558.849	4.98
559.192	5.17
559.534	5.11
559.877	4.93
560.219	4.96
560.562	5.11
560.904	5.15
561.246	4.84
561.589	5.08
561.931	4.94
562.273	4.94
562.615	4.83
562.957	5.18
563.299	5.14
563.641	5.2
563.983	4.95
564.325	5.06
564.667	5.08
565.008	4.77
565.35	4.93
565.692	4.76
566.033	4.86
566.375	5.1
566.716	4.89
567.058	4.74
567.399	5.08
567.741	4.92
568.082	4.87
568.423	4.88
568.764	4.96
569.105	4.91
569.447	5.08
569.788	4.99
570.129	5.08
570.47	4.91
570.811	4.73
571.151	4.98
571.492	4.86
571.833	4.98
572.174	4.94
572.514	4.8
572.855	4.92
573.195	4.81
573.536	4.88
573.876	4.85
574.217	4.75
574.557	4.78
574.898	4.98
575.238	5.03
575.578	5.04
575.918	4.83
576.258	4.84
576.598	4.81
576.938	4.96
577.278	4.89
577.618	4.86
577.958	5.02
578.298	5.08
578.638	5.05
578.977	4.77
579.317	4.77
579.657	4.86
579.996	5.03
580.336	4.68
580.675	4.85
581.014	5.18
581.354	5.02
581.693	5.09
582.032	4.92
582.372	4.71
582.711	4.83
583.05	4.89
583.389	4.89
583.728	4.82
584.067	4.9
584.406	4.54
584.745	5.1
585.083	5.06
585.422	4.84
585.761	5.16
586.1	4.98
586.438	4.79
586.777	5.15
587.115	5.12
587.454	4.87
587.792	4.79
588.13	4.76
588.469	4.97
588.807	4.91
589.145	4.86
589.483	4.79
589.821	4.74
590.159	4.87
590.497	4.8
590.835	5.03
591.173	4.94
591.511	5.08
591.849	4.94
592.187	4.82
592.524	4.71
592.862	4.92
593.2	4.83
593.537	4.93
593.875	4.68
594.212	4.83
594.55	4.8
594.887	4.97
595.224	4.66
595.561	4.99
595.899	4.86
596.236	4.83
596.573	4.7
596.91	5.04
597.247	4.8
597.584	4.99
597.921	4.67
598.258	4.92
598.594	4.91
598.931	4.81
599.268	4.84
599.604	4.71
599.941	4.89
600.277	4.82
600.614	4.87
600.95	4.95
601.287	4.8
601.623	5.01
601.959	5.04
602.296	4.78
602.632	4.9
602.968	4.94
603.304	5.05
603.64	4.8
603.976	5.02
604.312	4.92
604.648	4.74
604.984	4.76
605.319	4.77
605.655	4.72
605.991	4.7
606.326	4.66
606.662	4.65
606.998	4.77
607.333	4.76
607.668	4.78
608.004	4.79
608.339	4.67
608.674	4.82
609.01	4.69
609.345	4.66
609.68	4.89
610.015	4.69
610.35	5.02
610.685	4.76
611.02	4.89
611.355	4.59
611.689	4.67
612.024	4.78
612.359	4.77
612.694	4.78
613.028	4.78
613.363	4.67
613.697	5.11
614.032	4.98
614.366	4.9
614.7	4.99
615.035	4.97
615.369	4.75
615.703	4.91
616.037	4.88
616.371	4.81
616.705	4.96
617.039	4.96
617.373	4.89
617.707	5
618.041	4.73
618.375	4.7
618.709	5.14
619.042	4.77
619.376	4.94
619.71	4.86
620.043	5.2
620.377	4.83
620.71	4.74
621.043	4.76
621.377	5
621.71	5.18
622.043	4.76
622.376	4.86
622.709	4.9
623.043	5.44
623.376	5.02
623.709	4.76
624.041	4.68
624.374	5.09
624.707	4.87
625.04	4.68
625.373	5.09
625.705	4.82
626.038	4.76
626.37	5.05
626.703	5.11
627.035	4.85
627.368	4.82
627.7	5.17
628.032	4.69
628.365	4.77
628.697	4.52
629.029	4.79
629.361	5.03
629.693	4.56
630.025	4.61
630.357	4.51
630.689	4.92
631.021	4.56
631.353	4.79
631.684	4.68
632.016	5.07
632.348	4.9
632.679	5.02
633.011	4.49
633.342	5.14
633.674	4.72
634.005	4.96
634.336	4.94
634.668	5.13
634.999	4.77
635.33	4.77
635.661	4.91
635.992	4.75
636.323	5.16
636.654	4.77
636.985	4.95
637.316	4.9
637.647	4.65
637.977	4.64
638.308	4.52
638.639	4.63
638.969	4.36
639.3	4.71
639.63	5.12
639.961	5
640.291	4.98
640.622	4.71
640.952	4.87
641.282	5.2
641.612	5.04
641.943	4.62
642.273	5.52
642.603	4.57
642.933	4.59
643.263	4.85
643.592	4.72
643.922	4.61
644.252	5.11
644.582	4.55
644.911	4.75
645.241	5.41
645.571	4.81
645.9	4.79
646.23	4.62
646.559	4.36
646.888	4.87
647.218	4.62
647.547	4.76
647.876	5.01
648.205	4.84
648.534	4.48
648.863	4.7
649.192	4.83
649.521	5.26
649.85	4.75
650.179	4.94
650.508	4.75
650.837	4.88
651.165	4.34
651.494	5.29
651.822	5.05
652.151	4.35
652.479	4.98
652.808	5.21
653.136	4.77
653.465	4.61
653.793	4.82
654.121	4.65
654.449	4.8
654.777	4.28
655.105	4.82
655.433	4.77
655.761	4.73
656.089	4.58
656.417	4.96
656.745	4.76
657.073	5.06
657.4	4.44
657.728	5.52
658.056	4.8
658.383	4.8
658.711	5.13
659.038	4.8
659.365	4.96
659.693	4.44
660.02	4.75
660.347	5.3
660.674	4.78
661.001	4.74
661.329	4.88
661.656	4.71
661.982	4.48
662.309	4.76
662.636	4.5
662.963	5.09
663.29	4.57
663.616	5.03
663.943	4.66
664.27	5.31
664.596	4.68
664.923	4.96
665.249	4.84
665.576	4.72
665.902	4.87
666.228	5.18
666.554	4.82
666.881	5
667.207	5.08
667.533	4.97
667.859	5.1
668.185	5.04
668.511	5.06
668.837	5.11
669.162	4.96
669.488	4.46
669.814	4.89
670.139	4.87
670.465	4.88
670.791	4.26
671.116	5.1
671.442	5.36
671.767	4.92
672.092	5.01
672.418	4.35
672.743	4.92
673.068	4.77
673.393	5.19
673.718	5.05
674.043	5.01
674.368	5.04
674.693	4.54
675.018	4.86
675.343	4.62
675.667	5.04
675.992	5.21
676.317	5.24
676.641	4.41
676.966	5.49
677.29	5.02
677.615	4.78
677.939	5.42
678.264	4.71
678.588	5.67
678.912	4.61
679.236	5.03
679.56	4.63
679.885	4.48
680.209	5.03
680.532	4.93
680.856	4.58
681.18	4.4
681.504	4.26
681.828	5.1
682.152	4.8
682.475	4.56
682.799	4.58
683.122	4.94
683.446	5.38
683.769	5.17
684.093	4.94
684.416	5.15
684.739	5.27
685.062	5.69
685.386	5.54
685.709	5.11
686.032	4.97
686.355	5.34
686.678	4.78
687.001	5.41
687.324	5.47
687.646	5.47
687.969	5.13
688.292	4.47
688.614	4.73
688.937	4.38
689.26	4.85
689.582	4.75
689.904	4.73
690.227	5.13
690.549	5.01
690.871	4.88
691.194	5.35
691.516	4.92
691.838	4.7
692.16	5.07
692.482	5.25
692.804	5.42
693.126	5.24
693.448	5.68
693.769	4.8
694.091	5.03
694.413	4.3
694.735	4.76
695.056	5.17
695.378	5.12
695.699	4.92
696.021	4.35
696.342	4.99
696.663	5.15
696.984	5.92
697.306	5.19
697.627	4.86
697.948	5.72
698.269	4.92
698.59	4.53
698.911	4.34
699.232	4.88
699.553	4.85
699.873	4.92
700.194	5.12
700.515	5.33
700.835	5.28
701.156	5.13
701.477	5.24
701.797	4.97
702.117	5.59
702.438	5.36
702.758	5.02
703.078	5.52
703.398	5.22
703.719	4.77
704.039	5.79
704.359	4.76
704.679	5.25
704.999	4.68
705.319	5.76
705.638	5.9
705.958	4.24
706.278	5.07
706.597	5.18
706.917	6.35
707.237	4.91
707.556	4.67
707.876	5.02
708.195	4.86
708.514	4.77
708.834	4.96
709.153	5.59
709.472	4.54
709.791	4.63
710.11	5.49
710.429	4.76
710.748	4.95
711.067	4.33
711.386	5.07
711.705	4.96
712.023	6.52
712.342	5.12
712.661	5.43
712.979	5.69
713.298	5.57
713.616	4.79
713.935	4.34
714.253	4.62
714.572	5.4
714.89	5.78
715.208	4.85
715.526	5.28
715.844	6.01
716.162	6.18
716.48	4.68
716.798	5.38
717.116	5.3
717.434	5.42
717.752	4.69
718.069	6.4
718.387	5.6
718.705	4.76
719.022	5.49
719.34	6.01
719.657	5.84
719.975	5.11
720.292	6.52
720.609	4.67
720.927	6.28
721.244	5.15
721.561	5.04
721.878	3.99
722.195	5.84
722.512	6.04
722.829	6.98
723.146	5.26
723.463	5.52
723.779	6.26
724.096	6.06
724.413	5.28
724.729	5.97
725.046	5.53
725.362	6.31
725.679	6.49
725.995	5.6
726.311	6.3
726.628	5.98
726.944	6.97
727.26	6.26
727.576	5.69
727.892	5
728.208	5.12
728.524	5.96
728.84	6.21
729.156	5.7
729.472	6.69
729.787	5.43
730.103	5.23
730.419	4.74
730.734	5.54
731.05	6.24
731.365	5.56
731.681	5.55
731.996	4.57
732.311	6.16
732.626	5.89
732.942	6.44
733.257	4.77
733.572	6.18
733.887	7.18
734.202	6.29
734.517	5.61
734.832	6.15
735.146	6.42
735.461	5.3
735.776	6.01
736.091	6.04
736.405	5.74
736.72	7.15
737.034	6.12
737.349	5.53
737.663	6.74
737.977	5.78
738.292	5.93
738.606	5.59
738.92	4.98
739.234	7.79
739.548	6.92
739.862	4.57
740.176	5.66
740.49	6.66
740.804	6.23
741.117	7.12
741.431	7.49
741.745	6.11
742.058	5.38
742.372	6.62
742.685	5.33
742.999	4.91
743.312	5.56
743.626	6.43
743.939	5.59
744.252	6.62
744.565	5.25
744.878	7.2
745.191	7.15
745.505	7.28
745.817	5.35
746.13	5.88
746.443	6.08
746.756	6.46
747.069	5.54
747.381	6.99
747.694	5.49
748.007	3.96
748.319	6.4
748.632	4.84
748.944	5.74
749.256	5.84
749.569	6.9
749.881	5.61
750.193	6.99
750.505	5.89
750.817	5.38
751.129	5.55
751.441	6.24
751.753	5.72
752.065	5.62
752.377	6.26
752.689	5.79
753	5.46
753.312	5.32
753.624	6
753.935	6.11
754.247	6.15
754.558	5.35
754.869	6.42
755.181	6.82
755.492	6.24
755.803	8.16
756.114	7.1
756.425	6.45
756.736	6.62
757.047	7.64
757.358	7.49
757.669	5.52
757.98	5.92
758.291	6.21
758.601	4.99
758.912	6.32
759.223	5.75
759.533	7.35
759.844	7.81
760.154	7.18
760.464	4.73
760.775	5.21
761.085	7.79
761.395	4.33
761.705	7.4
762.016	6.1
762.326	6.9
762.636	7.49
762.945	7.81
763.255	7.16
763.565	6.45
763.875	6.91
764.185	5.36
764.494	6.36
764.804	5.92
765.113	6.72
765.423	6.97
765.732	6.75
766.042	7.4
766.351	6.76
766.66	6.96
766.97	6.63
767.279	7.31
767.588	7.75
767.897	7.48
768.206	5.4
768.515	6.56
768.824	7.78
769.133	5.73
769.441	4.11
769.75	7.05
770.059	4.91
770.367	8.83
770.676	6.71
770.984	6.81
771.293	6.13
771.601	6.76
771.91	7.26
772.218	6.99
772.526	6.81
772.834	6.2
773.142	5.74
773.45	7.9
773.758	6.8
774.066	5.37
774.374	7.21
774.682	7.53
774.99	1.94
775.298	5.41
775.605	4.79
775.913	6.56
776.22	8.14
776.528	9.12
776.835	6.54
777.143	7.18
777.45	7.58
777.757	5.36
778.065	4.87
778.372	6.76
778.679	7.39
778.986	7.45
779.293	6.07
779.6	8.21
779.907	7.74
780.214	7.48
780.52	4.8
780.827	5.71
781.134	6.19
781.44	3.29
781.747	4.42
782.053	8.44
782.36	8.41
782.666	7.96
782.973	6.17
783.279	4.86
783.585	5.38
783.891	6.8
784.197	9.74
784.503	9.42
784.809	7.11
785.115	7.1
785.421	7.77
785.727	5.69
786.033	6.33
786.339	8.98
786.644	5.85
786.95	8.07
787.255	9.69
787.561	8.17
787.866	7.8
788.172	3.83
788.477	7.47
788.782	6.83
789.088	8.45
789.393	6.65
789.698	7.32
790.003	6.49
790.308	5.99
790.613	8.11
790.918	9.75
791.223	9.67
791.527	3.9
791.832	8.34
792.137	8
792.441	11.85
792.746	4.21
793.05	7.05
793.355	5.08
793.659	8.23
793.963	5.94
794.268	2.96
794.572	6.68
794.876	7.64
795.18	8.74
795.484	5.5
795.788	3.76
796.092	7.02
796.396	3.98
796.7	11.16
797.004	6.13
797.307	5.97
797.611	10.59
797.915	6.14
798.218	7.43
798.522	7.12
798.825	5.71
799.128	9.07
799.432	7.99
799.735	10.03
800.038	10.97
800.341	8.89
800.644	8.25
800.947	10.67
801.25	12.22
801.553	7.69
801.856	10.32
802.159	10.01
802.462	4.59
802.764	11.09
803.067	0.43
803.37	9.03
803.672	10.6
803.975	10.69
804.277	7.36
804.579	8.01
804.882	7.74
805.184	11.09
805.486	5.57
805.788	8.38
806.09	9.38
806.392	4.91
806.694	5.33
806.996	7.88
807.298	2.9
807.6	4.46
807.902	6.55
808.203	5.9
808.505	8.99
808.807	6.85
809.108	5.51
809.409	9.02
809.711	14.26
810.012	9.29
810.313	11.07
810.615	8.73
810.916	10.46
811.217	5.66
811.518	10.8
811.819	9.81
812.12	7.1
812.421	5.56
812.722	6.08
813.023	7.94
813.323	8.53
813.624	9.3
813.925	13.81
814.225	11.51
814.526	8.7
814.826	9.99
815.126	11.68
815.427	3.52
815.727	7.45
816.027	4.08
816.327	5.28
816.627	7.11
816.927	8.8
817.227	7.29
817.527	11.5
817.827	5.05
818.127	5.58
818.427	5.99
818.727	7.38
819.026	9.54
819.326	10.07
819.625	2.06
819.925	8.51
820.224	7.11
820.524	5.59
820.823	7.95
821.122	13.44
821.421	5.1
821.72	9.24
822.019	10.82
822.318	9.71
822.617	6.66
822.916	6.87
823.215	7.21
823.514	6.45
823.813	9.69
824.111	8.07
824.41	6.72
824.709	7.97
825.007	8.02
825.306	7.86
825.604	7.63
825.902	8.63
826.201	7.69
826.499	8.16
826.797	7.35
827.095	8.35
827.393	8.96
827.691	6.66
827.989	8.51
828.287	7.55
828.585	4.23
828.882	9.56
829.18	6.74
829.478	7.81
829.775	8.32
830.073	7.62
830.37	9.62
830.668	7.45
830.965	11.41
831.263	9.66
831.56	7.85
831.857	6.81
832.154	6.14
832.451	10.82
832.748	6.02
833.045	7.29
833.342	9.55
833.639	7.89
833.936	7.19
834.232	11.44
834.529	7.71
834.826	11.09
835.122	8.52
835.419	11.28
835.715	6.69
836.012	9.26
836.308	8.7
836.604	8.06
836.901	6.86
837.197	7.92
837.493	6.76
837.789	8.44
838.085	10.7
838.381	10.79
838.677	13.66
838.972	12.17
839.268	9.58
839.564	11.98
839.86	8.81
840.155	14.76
840.451	1.16
840.746	18.96
841.042	5.3
841.337	9.99
841.632	-0.63
841.928	17.82
842.223	3.38
842.518	10.17
842.813	10.99
843.108	5.96
843.403	2.57
843.698	9.38
843.993	10.63
844.287	14.04
844.582	11.77
844.877	19.56
845.171	11.45
845.466	7
845.761	13.89
846.055	10.75
846.349	9.71
846.644	21.25
846.938	1.84
847.232	10.04
847.526	13.18
847.82	11.3
848.114	20.49
848.408	8.6
848.702	11.21
848.996	8.75
849.29	22.94
849.584	8.76
849.877	-3.85
850.171	5.97
850.465	1.12
850.758	13.63
851.052	1.57
851.345	20.98
851.638	9.04
851.932	16.17
852.225	2.43
852.518	17.72
852.811	1.04
853.104	17.14
853.397	3.91
853.69	12.1
853.983	27.81
854.276	18.63
854.569	15.6
854.861	31.39
855.154	17.83
855.447	19.47
855.739	24.38
856.032	21.32
856.324	24.6
856.616	21
856.909	5.43
857.201	18.98
857.493	4.61
857.785	16.34
858.077	43.02
858.369	9.08
858.661	10.61
858.953	15.18
859.245	24.5
859.537	14.18
859.829	22.72
860.12	-14.72
860.412	9.75
860.703	20.11
860.995	6.68
861.286	13.32
861.578	-0.08
861.869	9.69
862.16	17.32
862.452	4.08
862.743	7.54
863.034	15.14
863.325	13.47
863.616	28.57
863.907	-3.19
864.198	-3.27
864.488	10.82
864.779	18.45
865.07	-4.14
865.36	3.74
865.651	-6.12
865.941	18.59
866.232	18.31
866.522	16.78
866.813	13.95
867.103	57.1
867.393	-12.76
867.683	19.84
867.973	31.16
868.263	23.1
868.553	35.46
868.843	5.23
869.133	20.91
869.423	26.8
869.713	19.52
870.002	20.63
870.292	22.92
870.582	38.26
870.871	-6.5
871.161	10.34
871.45	28.37
871.739	2.98
872.029	31.49
872.318	16.36
872.607	5.5
872.896	-2.52
873.185	-2.8
873.474	32.41
873.763	22.28
874.052	24.99
874.341	18.6
874.63	20.99
874.918	7.97
875.207	16.12
875.496	-7.9
875.784	45.71
876.073	14.88
876.361	12.86
876.649	22.86
876.938	16.31
877.226	33.32
877.514	-0.43
877.802	10.31
878.09	15.2
878.378	-4.78
878.666	-22.11
878.954	-20.9
879.242	18.36
879.53	9.34
879.817	22.25
880.105	-4.25
880.392	21.82
880.68	-2.67
880.967	-0.74
881.255	25.54
881.542	-14.5
881.83	15.01
882.117	18.58
882.404	9.14
882.691	3.9
882.978	8.74
883.265	12.32
883.552	22.44
883.839	15.02
884.126	13.26
884.413	2.54
884.699	13.44
884.986	9.35
885.273	9.25
885.559	9.25
885.846	9.25
