Data from 0022_forehead_Reflection__1__42.txt Node

Date: Thu Oct 20 20:39:36 CDT 2022
User: ToomeyLab
Spectrometer: FLMS14357
Trigger mode: 0
Integration Time (sec): 1.000000E-2
Scans to average: 100
Electric dark correction enabled: true
Nonlinearity correction enabled: false
Boxcar width: 0
XAxis mode: Wavelengths
Number of Pixels in Spectrum: 2048
>>>>>Begin Spectral Data<<<<<
189.047	21.01
189.435	21.01
189.823	21.01
190.211	5.95
190.599	71.76
190.987	-217.04
191.375	55.11
191.763	94.65
192.151	-28.34
192.538	-88.54
192.926	103.62
193.314	104.48
193.702	75.08
194.089	19.82
194.477	1531.93
194.864	341.12
195.252	322.47
195.639	84.93
196.027	76.47
196.414	1902.83
196.801	390.21
197.189	-64.5
197.576	259.02
197.963	61.24
198.351	36.51
198.738	59.12
199.125	60.58
199.512	14.96
199.899	55.6
200.286	40.24
200.673	28.57
201.06	34.53
201.447	14.97
201.833	31.21
202.22	55.61
202.607	24.96
202.994	26.01
203.38	62.43
203.767	47.37
204.154	29.93
204.54	62.92
204.927	34.37
205.313	47.49
205.699	48.13
206.086	47.09
206.472	43.68
206.858	42.39
207.245	2.76
207.631	13.72
208.017	25.96
208.403	28.85
208.789	39.46
209.175	60.05
209.561	46.78
209.947	38.39
210.333	67.02
210.719	21.42
211.105	32.03
211.491	2.55
211.876	5.53
212.262	3.7
212.648	4.91
213.034	37.57
213.419	52.14
213.805	0.19
214.19	32.4
214.576	35.06
214.961	19.97
215.346	17.39
215.732	26.05
216.117	33.41
216.502	20.07
216.888	46.64
217.273	44.9
217.658	29.42
218.043	27.54
218.428	19.95
218.813	8.31
219.198	41.95
219.583	28.64
219.968	18.38
220.353	19.05
220.738	28.67
221.122	24.35
221.507	-2.77
221.892	9.87
222.276	19.47
222.661	13.52
223.046	12.99
223.43	22.84
223.815	2.25
224.199	11.74
224.583	9.87
224.968	13
225.352	17.08
225.736	11.37
226.121	6.27
226.505	13.1
226.889	14.44
227.273	8.79
227.657	12.84
228.041	9.52
228.425	7.62
228.809	7.85
229.193	8.64
229.577	7.45
229.961	5.96
230.344	6.62
230.728	6.28
231.112	6.08
231.495	5.97
231.879	7.19
232.263	7.58
232.646	8
233.03	5.91
233.413	7.69
233.797	5.86
234.18	5.01
234.563	7.66
234.946	7.53
235.33	5.95
235.713	9.56
236.096	5.6
236.479	5.59
236.862	6.97
237.245	5.5
237.628	5.35
238.011	7.09
238.394	6.69
238.777	7.43
239.16	6.94
239.543	4.2
239.925	6.92
240.308	8.4
240.691	6.36
241.073	6.48
241.456	6.81
241.838	6.53
242.221	7.08
242.603	6.72
242.986	6.44
243.368	6.02
243.75	6.35
244.133	5.69
244.515	5.88
244.897	5.67
245.279	5.18
245.661	5.87
246.043	6.24
246.425	6.21
246.807	7.36
247.189	6.63
247.571	5.9
247.953	6.41
248.335	6.07
248.717	5.91
249.098	5.63
249.48	5.93
249.862	6.02
250.243	5.99
250.625	6.63
251.006	6.81
251.388	6.53
251.769	6.02
252.151	6.7
252.532	6.37
252.913	6.59
253.295	6.08
253.676	6.06
254.057	6.41
254.438	6.68
254.819	7.34
255.2	5.91
255.581	6.86
255.962	6.35
256.343	7.63
256.724	6.31
257.105	6.98
257.486	6.57
257.867	6.79
258.247	6.73
258.628	5.77
259.009	6.47
259.389	6.27
259.77	6.73
260.15	6.41
260.531	6.4
260.911	5.73
261.292	5.79
261.672	5.56
262.052	5.6
262.432	6
262.813	5.81
263.193	6.2
263.573	5.64
263.953	5.83
264.333	5.81
264.713	6.16
265.093	6.11
265.473	7.47
265.853	5.84
266.233	6.36
266.612	5.65
266.992	6.85
267.372	6.65
267.752	6.27
268.131	5.58
268.511	5.83
268.89	5.9
269.27	6.32
269.649	6.12
270.029	5.96
270.408	5.28
270.787	5.55
271.167	6.52
271.546	5.58
271.925	6.85
272.304	6.16
272.683	5.76
273.062	5.65
273.441	6.03
273.82	5.44
274.199	5.76
274.578	5.85
274.957	6.02
275.336	5.9
275.715	5.48
276.093	5.94
276.472	5.92
276.851	6.12
277.229	5.11
277.608	5.61
277.986	5.17
278.365	5.79
278.743	5.78
279.122	6.28
279.5	5.85
279.878	5.74
280.257	5.83
280.635	6.41
281.013	5.94
281.391	6.66
281.769	6.11
282.147	6.17
282.525	6.02
282.903	6.07
283.281	5.95
283.659	5.45
284.037	5.82
284.415	6.06
284.792	5.87
285.17	6.04
285.548	5.89
285.925	5.84
286.303	6.11
286.68	5.89
287.058	6.06
287.435	5.78
287.813	5.79
288.19	6.24
288.567	5.48
288.945	6.03
289.322	5.24
289.699	6.39
290.076	6.49
290.453	6.16
290.83	5.94
291.207	6.45
291.584	5.81
291.961	6.15
292.338	6.17
292.715	5.84
293.092	7.02
293.469	6.48
293.845	5.99
294.222	6.29
294.599	7.14
294.975	6.51
295.352	6.71
295.728	6.95
296.105	6.5
296.481	6.99
296.858	6.65
297.234	6.86
297.61	6.47
297.986	6.84
298.363	6.82
298.739	6.94
299.115	7.17
299.491	7.38
299.867	6.97
300.243	7.33
300.619	7.49
300.995	7.17
301.371	7.49
301.746	6.9
302.122	7.23
302.498	7.82
302.874	7.73
303.249	7.77
303.625	7.53
304	8.11
304.376	7.94
304.751	8.07
305.127	7.54
305.502	8.2
305.878	7.83
306.253	8.01
306.628	8.29
307.003	8.02
307.378	8.7
307.754	8.46
308.129	8.46
308.504	8.55
308.879	9.13
309.254	8.88
309.629	8.76
310.003	9.21
310.378	9.2
310.753	8.92
311.128	8.75
311.502	8.9
311.877	8.82
312.252	9.44
312.626	9.14
313.001	9.26
313.375	9.22
313.75	9.59
314.124	9.32
314.498	9.89
314.873	9.8
315.247	9.85
315.621	9.93
315.995	10.09
316.369	9.77
316.743	10.45
317.117	9.93
317.491	10.06
317.865	10.49
318.239	10.43
318.613	10.58
318.987	10.3
319.361	10.5
319.734	11.22
320.108	11.3
320.482	10.89
320.855	10.88
321.229	11.16
321.602	11.32
321.976	11.02
322.349	11.2
322.723	10.88
323.096	11.02
323.469	11.25
323.843	12.14
324.216	12
324.589	11.78
324.962	11.86
325.335	11.69
325.708	11.95
326.081	12.14
326.454	12.15
326.827	12.24
327.2	12.54
327.573	12.25
327.945	12.37
328.318	12.07
328.691	12.13
329.063	12.27
329.436	11.98
329.809	12.59
330.181	12.69
330.553	12.2
330.926	12.53
331.298	12.5
331.671	12.94
332.043	12.82
332.415	13.29
332.787	13.17
333.159	13.02
333.532	13.02
333.904	12.97
334.276	13.44
334.648	13.36
335.02	13.18
335.391	13.18
335.763	13.62
336.135	12.96
336.507	13.36
336.879	13.74
337.25	13.97
337.622	13.77
337.993	13.6
338.365	13.7
338.736	14.08
339.108	13.85
339.479	13.62
339.851	14.61
340.222	14.37
340.593	14.03
340.964	14.38
341.336	14.39
341.707	14.77
342.078	14.86
342.449	14.62
342.82	14.54
343.191	14.92
343.562	14.89
343.933	14.44
344.303	14.81
344.674	14.58
345.045	14.83
345.416	14.82
345.786	15.24
346.157	15.31
346.527	15.02
346.898	15.02
347.268	15
347.639	15.44
348.009	15.42
348.38	15.81
348.75	15.71
349.12	16.14
349.49	15.76
349.861	16.46
350.231	15.53
350.601	16.14
350.971	16.45
351.341	16.16
351.711	16.22
352.081	16.63
352.45	16.2
352.82	15.82
353.19	16.56
353.56	16.28
353.929	16.68
354.299	16.86
354.669	16.86
355.038	17.08
355.408	16.73
355.777	16.92
356.147	16.87
356.516	17.34
356.885	17.03
357.254	17.45
357.624	16.87
357.993	17.1
358.362	17.42
358.731	17.56
359.1	17.56
359.469	17.5
359.838	17.52
360.207	17.74
360.576	17.51
360.945	17.91
361.314	18.03
361.682	17.95
362.051	18.07
362.42	18.03
362.788	18.19
363.157	18.18
363.525	18.31
363.894	17.97
364.262	18.18
364.631	18.2
364.999	18.7
365.367	18.37
365.735	18.73
366.104	18.66
366.472	18.58
366.84	18.76
367.208	18.53
367.576	19.1
367.944	19.47
368.312	19.51
368.68	19.34
369.048	19.02
369.416	19.39
369.783	19.2
370.151	19.82
370.519	19.91
370.886	19.55
371.254	19.89
371.621	19.7
371.989	19.66
372.356	19.99
372.724	20.03
373.091	20.15
373.458	19.92
373.826	20.3
374.193	20.26
374.56	20.45
374.927	20.49
375.294	20.72
375.661	20.62
376.028	20.18
376.395	20.64
376.762	20.61
377.129	21.01
377.496	20.83
377.863	20.87
378.229	21.11
378.596	21.26
378.963	21.11
379.329	21.07
379.696	21.38
380.062	21.27
380.429	21.63
380.795	21.24
381.161	21.58
381.528	21.66
381.894	21.34
382.26	21.9
382.626	21.76
382.993	22.12
383.359	21.88
383.725	22.12
384.091	21.91
384.457	22.13
384.823	22.26
385.188	22.44
385.554	22.07
385.92	22.31
386.286	22.59
386.651	22.39
387.017	22.53
387.383	22.56
387.748	22.61
388.114	22.7
388.479	23.08
388.845	23.06
389.21	23.22
389.575	22.78
389.94	23.44
390.306	23.1
390.671	23.29
391.036	23.56
391.401	23.39
391.766	23.56
392.131	23.68
392.496	23.56
392.861	23.81
393.226	24.15
393.591	23.78
393.956	23.6
394.32	24.02
394.685	24.15
395.05	23.76
395.414	24.11
395.779	24.35
396.143	24.05
396.508	24.37
396.872	24.48
397.236	24.78
397.601	24.43
397.965	24.87
398.329	24.85
398.694	24.78
399.058	24.93
399.422	25.11
399.786	25.16
400.15	25.1
400.514	24.96
400.878	25.28
401.242	25.4
401.605	25.32
401.969	25.55
402.333	25.33
402.697	25.69
403.06	25.78
403.424	25.65
403.787	25.62
404.151	25.82
404.514	25.79
404.878	25.93
405.241	25.8
405.604	26.23
405.968	25.81
406.331	26.1
406.694	26.38
407.057	26.08
407.42	26.2
407.783	26.24
408.146	26.41
408.509	26.38
408.872	26.56
409.235	26.39
409.598	26.55
409.961	26.64
410.323	26.67
410.686	27.09
411.049	27.07
411.411	27.14
411.774	27.07
412.136	27.05
412.499	27.23
412.861	27.44
413.223	27.38
413.586	27.32
413.948	27.4
414.31	27.53
414.672	27.58
415.035	27.74
415.397	27.8
415.759	27.91
416.121	27.77
416.483	27.96
416.845	27.76
417.206	28.12
417.568	27.84
417.93	27.87
418.292	28.22
418.653	28
419.015	28.13
419.377	28.19
419.738	28.16
420.1	28.14
420.461	28.33
420.822	28.23
421.184	28.14
421.545	28.07
421.906	28.38
422.267	28.25
422.629	28.3
422.99	28.21
423.351	28.21
423.712	28.22
424.073	28.38
424.434	28.58
424.795	28.55
425.155	28.79
425.516	28.56
425.877	28.68
426.238	28.83
426.598	28.62
426.959	28.91
427.32	29.15
427.68	29.1
428.041	29.11
428.401	29.45
428.761	29.41
429.122	29.61
429.482	29.67
429.842	29.84
430.202	29.91
430.563	30.03
430.923	30
431.283	30.1
431.643	29.97
432.003	30.58
432.363	30.21
432.722	30.31
433.082	30.52
433.442	30.61
433.802	30.52
434.161	30.55
434.521	30.67
434.881	30.61
435.24	30.6
435.6	30.73
435.959	30.58
436.319	30.71
436.678	30.76
437.037	30.79
437.396	31
437.756	30.95
438.115	30.95
438.474	31.13
438.833	31.19
439.192	31.24
439.551	31.18
439.91	31.29
440.269	31.52
440.628	31.46
440.987	31.54
441.345	31.63
441.704	31.52
442.063	31.52
442.421	31.42
442.78	31.37
443.138	31.79
443.497	31.62
443.855	31.73
444.214	31.91
444.572	31.93
444.93	31.94
445.288	32.24
445.647	32.24
446.005	32.36
446.363	32.13
446.721	32.29
447.079	32.27
447.437	32.39
447.795	32.21
448.153	32.22
448.51	32.19
448.868	32.19
449.226	32.09
449.584	32.46
449.941	32.55
450.299	32.61
450.656	32.75
451.014	32.84
451.371	32.94
451.729	33.11
452.086	32.91
452.443	33.37
452.801	33.7
453.158	33.35
453.515	33.46
453.872	33.46
454.229	33.53
454.586	33.65
454.943	33.36
455.3	33.68
455.657	33.92
456.014	33.75
456.371	33.9
456.727	34.11
457.084	33.93
457.441	34.11
457.797	34.27
458.154	34.14
458.51	34.06
458.867	34.29
459.223	34.23
459.58	34.42
459.936	34.41
460.292	34.37
460.648	34.57
461.005	34.3
461.361	34.18
461.717	34.07
462.073	34.15
462.429	34.15
462.785	34.58
463.141	34.46
463.496	34.79
463.852	34.59
464.208	35
464.564	35.04
464.919	35.31
465.275	35.16
465.631	35.31
465.986	35.38
466.342	35.61
466.697	35.51
467.052	35.32
467.408	35.52
467.763	35.71
468.118	35.85
468.473	35.36
468.829	35.63
469.184	35.58
469.539	35.76
469.894	35.68
470.249	35.92
470.603	35.83
470.958	35.96
471.313	36.11
471.668	36.07
472.023	36.17
472.377	36.3
472.732	36.41
473.086	36.49
473.441	36.64
473.795	36.43
474.15	36.57
474.504	36.51
474.859	36.56
475.213	36.51
475.567	36.7
475.921	36.77
476.275	36.53
476.63	36.92
476.984	37.07
477.338	37.2
477.692	37.26
478.045	37.29
478.399	37
478.753	37.1
479.107	37.23
479.461	37.2
479.814	37.18
480.168	37.23
480.521	37.46
480.875	37.33
481.228	37.45
481.582	37.45
481.935	37.34
482.289	37.49
482.642	37.39
482.995	37.43
483.348	37.39
483.701	37.28
484.055	37.34
484.408	37.27
484.761	37.12
485.114	37.5
485.466	37.46
485.819	37.03
486.172	36.57
486.525	36.53
486.878	36.76
487.23	36.89
487.583	37.22
487.936	37.47
488.288	37.67
488.641	37.73
488.993	37.63
489.345	37.5
489.698	37.41
490.05	37.34
490.402	37.4
490.754	37.55
491.107	37.71
491.459	38.03
491.811	38.37
492.163	38.33
492.515	38.41
492.866	38.38
493.218	38.23
493.57	38.02
493.922	37.94
494.274	38.12
494.625	38.34
494.977	38.47
495.328	38.62
495.68	39.07
496.031	39.32
496.383	39.21
496.734	39.46
497.086	39.47
497.437	39.43
497.788	39.47
498.139	39.36
498.49	39.53
498.842	39.37
499.193	39.48
499.544	39.6
499.894	39.68
500.245	39.68
500.596	39.66
500.947	40
501.298	40.1
501.648	39.87
501.999	40.3
502.35	40.28
502.7	40.39
503.051	40.5
503.401	40.5
503.752	40.61
504.102	40.44
504.452	40.8
504.803	40.78
505.153	40.98
505.503	40.8
505.853	40.78
506.203	40.8
506.553	40.84
506.903	40.92
507.253	40.75
507.603	41.02
507.953	41.04
508.303	41.34
508.652	41.22
509.002	41.15
509.352	41.25
509.701	41.16
510.051	41.13
510.4	41.32
510.75	41.01
511.099	41.19
511.449	41.3
511.798	41.57
512.147	41.31
512.496	41.27
512.846	41.4
513.195	41.63
513.544	41.5
513.893	41.47
514.242	41.58
514.591	41.77
514.939	41.84
515.288	42.05
515.637	41.97
515.986	42.1
516.334	42.24
516.683	42.14
517.032	42.18
517.38	42.3
517.729	42.35
518.077	42.17
518.426	42.43
518.774	42.31
519.122	42.14
519.47	42.43
519.819	42.46
520.167	42.36
520.515	42.17
520.863	42.09
521.211	42.25
521.559	42.57
521.907	42.43
522.255	42.44
522.602	42.78
522.95	42.87
523.298	42.99
523.645	43.03
523.993	43.06
524.341	43.02
524.688	43
525.036	43.29
525.383	43.4
525.73	43.27
526.078	43.2
526.425	43.22
526.772	43.13
527.119	43.21
527.466	43.15
527.814	43.15
528.161	42.96
528.508	43.19
528.854	43.11
529.201	43.09
529.548	43.05
529.895	43.45
530.242	43.43
530.588	43.11
530.935	42.85
531.282	42.69
531.628	42.74
531.975	42.96
532.321	43.18
532.667	43.46
533.014	43.59
533.36	43.6
533.706	43.9
534.052	43.86
534.399	43.79
534.745	43.92
535.091	43.92
535.437	43.71
535.783	43.65
536.129	43.68
536.474	43.88
536.82	44.08
537.166	44.22
537.512	44.31
537.857	44.51
538.203	44.8
538.549	44.49
538.894	44.32
539.239	44.32
539.585	44.32
539.93	44.5
540.276	44.84
540.621	45.2
540.966	44.98
541.311	45.16
541.656	45.16
542.001	45.08
542.346	44.95
542.691	44.83
543.036	44.92
543.381	44.65
543.726	44.52
544.071	44.41
544.415	44.8
544.76	45.1
545.105	45.15
545.449	45.3
545.794	45.53
546.138	45.39
546.483	45.56
546.827	45.74
547.171	45.77
547.516	45.81
547.86	45.77
548.204	45.86
548.548	45.97
548.892	45.82
549.236	45.88
549.58	45.91
549.924	46.26
550.268	46.26
550.612	46.67
550.956	46.55
551.3	46.7
551.643	46.62
551.987	46.63
552.33	47.03
552.674	46.93
553.017	46.86
553.361	47.24
553.704	47.07
554.048	47.25
554.391	47.12
554.734	46.9
555.077	47
555.42	47.21
555.764	47.31
556.107	47.41
556.45	47.31
556.793	47.38
557.135	47.4
557.478	47.51
557.821	47.71
558.164	47.86
558.507	47.74
558.849	47.59
559.192	47.89
559.534	48.13
559.877	47.74
560.219	47.92
560.562	48.13
560.904	48.18
561.246	48.01
561.589	48.07
561.931	48.11
562.273	48.18
562.615	48.25
562.957	48.18
563.299	48.16
563.641	48.5
563.983	48.47
564.325	48.5
564.667	48.5
565.008	48.35
565.35	48.56
565.692	48.52
566.033	48.63
566.375	48.74
566.716	48.73
567.058	48.9
567.399	48.91
567.741	48.68
568.082	48.69
568.423	48.78
568.764	48.57
569.105	48.61
569.447	48.97
569.788	48.93
570.129	48.88
570.47	48.86
570.811	49.04
571.151	49.17
571.492	49.52
571.833	49.25
572.174	49.09
572.514	49.34
572.855	49.38
573.195	49.46
573.536	49.57
573.876	49.4
574.217	49.37
574.557	49.17
574.898	49.3
575.238	49.54
575.578	49.54
575.918	49.46
576.258	49.51
576.598	49.72
576.938	49.73
577.278	49.66
577.618	49.83
577.958	49.87
578.298	50.16
578.638	49.93
578.977	50.23
579.317	50.37
579.657	50.12
579.996	50.17
580.336	50.21
580.675	49.91
581.014	50.33
581.354	50.52
581.693	50.56
582.032	50.46
582.372	50.69
582.711	50.74
583.05	50.56
583.389	50.37
583.728	50.87
584.067	51.14
584.406	50.93
584.745	51.25
585.083	50.78
585.422	50.78
585.761	51.33
586.1	51.29
586.438	51.39
586.777	51.29
587.115	51.33
587.454	51.17
587.792	51.32
588.13	51.42
588.469	51.42
588.807	51.44
589.145	51.4
589.483	51.44
589.821	51.17
590.159	51.39
590.497	51.51
590.835	51.58
591.173	51.55
591.511	51.81
591.849	51.62
592.187	51.58
592.524	51.75
592.862	51.9
593.2	51.73
593.537	51.63
593.875	51.65
594.212	52.25
594.55	51.89
594.887	52.18
595.224	51.93
595.561	51.98
595.899	52.06
596.236	52.1
596.573	51.86
596.91	52.16
597.247	52.31
597.584	51.93
597.921	52.25
598.258	52.31
598.594	52.28
598.931	52.22
599.268	52.11
599.604	52.09
599.941	52.68
600.277	52.2
600.614	52.38
600.95	52.58
601.287	52.69
601.623	52.49
601.959	53.05
602.296	53.12
602.632	52.64
602.968	52.94
603.304	52.87
603.64	52.99
603.976	52.89
604.312	53.03
604.648	53.04
604.984	52.75
605.319	52.93
605.655	53.05
605.991	52.72
606.326	53.2
606.662	53.17
606.998	52.67
607.333	52.77
607.668	53.02
608.004	53.06
608.339	53.26
608.674	53.26
609.01	53.51
609.345	53.61
609.68	53.48
610.015	53.54
610.35	53.73
610.685	53.66
611.02	53.67
611.355	53.85
611.689	53.53
612.024	53.25
612.359	53.82
612.694	53.81
613.028	53.98
613.363	53.65
613.697	54.37
614.032	54.36
614.366	53.86
614.7	54.16
615.035	53.93
615.369	54.51
615.703	54.39
616.037	54.25
616.371	54.52
616.705	54.51
617.039	54.5
617.373	54.39
617.707	54.46
618.041	54.56
618.375	54.9
618.709	54.55
619.042	54.72
619.376	55.08
619.71	55
620.043	54.79
620.377	55.03
620.71	54.67
621.043	54.92
621.377	54.91
621.71	55.23
622.043	55.35
622.376	55.06
622.709	55
623.043	55.27
623.376	54.89
623.709	55.41
624.041	55.24
624.374	55.48
624.707	55.43
625.04	55.37
625.373	55.59
625.705	55.87
626.038	55.49
626.37	55.71
626.703	55.71
627.035	55.86
627.368	55.59
627.7	55.48
628.032	55.67
628.365	55.9
628.697	55.41
629.029	55.59
629.361	55.65
629.693	55.4
630.025	55.42
630.357	56.06
630.689	55.46
631.021	55.93
631.353	55.74
631.684	55.87
632.016	55.96
632.348	56.28
632.679	56.18
633.011	56.5
633.342	56.02
633.674	55.9
634.005	56.32
634.336	56.56
634.668	56.16
634.999	56.43
635.33	56.24
635.661	56.6
635.992	55.88
636.323	56.05
636.654	55.94
636.985	56.23
637.316	56.33
637.647	56.42
637.977	56.57
638.308	56.47
638.639	56.41
638.969	56.73
639.3	56.58
639.63	56.86
639.961	56.97
640.291	56.49
640.622	56.8
640.952	57.13
641.282	57.07
641.612	57.02
641.943	57.5
642.273	57.29
642.603	56.81
642.933	57.35
643.263	57.04
643.592	57.31
643.922	57.69
644.252	57.24
644.582	57.02
644.911	57.18
645.241	57.43
645.571	57.01
645.9	57.42
646.23	57.41
646.559	57
646.888	57.87
647.218	57.36
647.547	57.72
647.876	57.7
648.205	58.08
648.534	57.74
648.863	57.74
649.192	57.79
649.521	58.15
649.85	58.26
650.179	58.04
650.508	58.54
650.837	57.92
651.165	57.84
651.494	57.62
651.822	58.26
652.151	57.78
652.479	58.15
652.808	58.54
653.136	58.28
653.465	58.34
653.793	58.34
654.121	58.06
654.449	58.48
654.777	58.13
655.105	58.28
655.433	58.54
655.761	58.7
656.089	58.33
656.417	58.15
656.745	58.36
657.073	58.79
657.4	58.63
657.728	58.93
658.056	58.69
658.383	58.6
658.711	58.9
659.038	59.18
659.365	58.7
659.693	58.72
660.02	58.61
660.347	58.94
660.674	59.17
661.001	59.17
661.329	58.37
661.656	58.32
661.982	58.51
662.309	58.89
662.636	59.26
662.963	59.26
663.29	58.47
663.616	59.35
663.943	58.5
664.27	59.26
664.596	58.55
664.923	59.32
665.249	58.84
665.576	59.31
665.902	58.93
666.228	59.8
666.554	59.68
666.881	59.64
667.207	60.01
667.533	59.48
667.859	60.3
668.185	59.64
668.511	59.65
668.837	60.02
669.162	59.56
669.488	59.44
669.814	59.86
670.139	59.83
670.465	59.49
670.791	59.72
671.116	59.87
671.442	60.11
671.767	59.83
672.092	60.24
672.418	59.25
672.743	60.42
673.068	60.01
673.393	59.7
673.718	60.59
674.043	60.38
674.368	60.57
674.693	59.97
675.018	60.34
675.343	60.4
675.667	60.21
675.992	59.52
676.317	60.74
676.641	60.21
676.966	60.16
677.29	60.46
677.615	59.85
677.939	60.83
678.264	60.71
678.588	60.73
678.912	60.83
679.236	61.13
679.56	60.13
679.885	60.74
680.209	60.59
680.532	60.33
680.856	60.34
681.18	60.66
681.504	60.64
681.828	60.98
682.152	61.39
682.475	60.63
682.799	60.28
683.122	61.27
683.446	61.23
683.769	60.77
684.093	60.78
684.416	61.16
684.739	61.12
685.062	61.34
685.386	60.6
685.709	60.66
686.032	60.64
686.355	60.56
686.678	59.93
687.001	60.92
687.324	61.34
687.646	61.16
687.969	60.93
688.292	61.17
688.614	61.97
688.937	60.55
689.26	60.62
689.582	61.45
689.904	61.47
690.227	60.95
690.549	61.06
690.871	61.93
691.194	61.66
691.516	61.84
691.838	61.4
692.16	61.33
692.482	61.53
692.804	61.59
693.126	62.01
693.448	62.09
693.769	62.44
694.091	62.16
694.413	60.94
694.735	61.85
695.056	61.72
695.378	61.51
695.699	61.62
696.021	62.14
696.342	60.93
696.663	61.46
696.984	61.96
697.306	62.46
697.627	61.63
697.948	61.87
698.269	61.54
698.59	61.77
698.911	60.96
699.232	61.17
699.553	62.22
699.873	61.77
700.194	62.27
700.515	62.15
700.835	62.78
701.156	62.28
701.477	62.08
701.797	62.3
702.117	62.09
702.438	61.8
702.758	62.87
703.078	62.66
703.398	62.74
703.719	62.5
704.039	61.24
704.359	62.8
704.679	62.25
704.999	63.07
705.319	63.4
705.638	62.98
705.958	63.53
706.278	63
706.597	62.48
706.917	63.42
707.237	63.2
707.556	61.87
707.876	62.69
708.195	63.3
708.514	62.26
708.834	62.23
709.153	62.11
709.472	62.1
709.791	61.39
710.11	62.5
710.429	62.95
710.748	62.79
711.067	63.44
711.386	63.07
711.705	63.41
712.023	64.34
712.342	62.41
712.661	63.11
712.979	62.2
713.298	63.81
713.616	62.83
713.935	63.56
714.253	62.32
714.572	64.02
714.89	63.17
715.208	62.41
715.526	63.63
715.844	63.33
716.162	63.63
716.48	64.36
716.798	63.35
717.116	63.86
717.434	63.7
717.752	63.18
718.069	63.57
718.387	63.85
718.705	63.78
719.022	64.56
719.34	62.95
719.657	63.85
719.975	63.28
720.292	63.2
720.609	63.48
720.927	63.81
721.244	63.93
721.561	65.01
721.878	63.28
722.195	63.5
722.512	64.56
722.829	65.11
723.146	64.37
723.463	63.48
723.779	62.91
724.096	65
724.413	63.44
724.729	64.06
725.046	63.85
725.362	65.22
725.679	64.34
725.995	64.57
726.311	64.8
726.628	64.66
726.944	63.82
727.26	65.15
727.576	64.51
727.892	65.29
728.208	63.87
728.524	65.07
728.84	64.88
729.156	64.14
729.472	65.01
729.787	65
730.103	64.81
730.419	63.69
730.734	64.59
731.05	63.84
731.365	64.71
731.681	64.67
731.996	65.02
732.311	65.21
732.626	64.82
732.942	65.07
733.257	63.67
733.572	64.31
733.887	65.78
734.202	66.07
734.517	64.02
734.832	64.5
735.146	65.69
735.461	64.43
735.776	65.17
736.091	65.16
736.405	64.43
736.72	65.2
737.034	65.18
737.349	64.52
737.663	65.83
737.977	65.85
738.292	65.1
738.606	64.48
738.92	63.9
739.234	67.1
739.548	66.3
739.862	65.14
740.176	65.73
740.49	65.05
740.804	65.96
741.117	65.14
741.431	65.93
741.745	65.53
742.058	64.95
742.372	67.75
742.685	66.28
742.999	66.36
743.312	65.25
743.626	65.03
743.939	64.45
744.252	64.08
744.565	65.35
744.878	65.05
745.191	65.63
745.505	64.62
745.817	65.26
746.13	64.74
746.443	65.29
746.756	67.49
747.069	64.39
747.381	64.79
747.694	67.35
748.007	64.86
748.319	65.87
748.632	66.76
748.944	63.2
749.256	66.67
749.569	66.75
749.881	66.73
750.193	65.01
750.505	66.08
750.817	64.59
751.129	63.08
751.441	65.66
751.753	65.64
752.065	64.87
752.377	65.43
752.689	64.85
753	66.87
753.312	65.71
753.624	65.13
753.935	66.63
754.247	65.84
754.558	65.45
754.869	66.8
755.181	66.02
755.492	65.83
755.803	66.08
756.114	67.1
756.425	66.58
756.736	66.94
757.047	66.77
757.358	66.95
757.669	65.24
757.98	64.22
758.291	66.31
758.601	66.44
758.912	67.36
759.223	66.69
759.533	66.76
759.844	66.11
760.154	66.73
760.464	66.74
760.775	66.82
761.085	66.99
761.395	64.79
761.705	65.51
762.016	66.34
762.326	65.45
762.636	67.94
762.945	67.37
763.255	67.07
763.565	65.77
763.875	68.21
764.185	66.73
764.494	65.48
764.804	66.62
765.113	65.84
765.423	67.19
765.732	66.66
766.042	67.07
766.351	67.06
766.66	66.61
766.97	68.67
767.279	66.16
767.588	66.38
767.897	68.38
768.206	68.42
768.515	66.17
768.824	68
769.133	67.93
769.441	66.84
769.75	67.48
770.059	66.4
770.367	67.61
770.676	65.51
770.984	68.76
771.293	67.83
771.601	71.48
771.91	66.37
772.218	67.59
772.526	66.89
772.834	68.11
773.142	67.73
773.45	69.78
773.758	66.92
774.066	67.03
774.374	70.93
774.682	68.59
774.99	67.43
775.298	68.3
775.605	69.49
775.913	71.23
776.22	68.45
776.528	66.26
776.835	68.07
777.143	68.5
777.45	66.1
777.757	66.9
778.065	66.69
778.372	67.6
778.679	66.5
778.986	69.12
779.293	64.28
779.6	66.02
779.907	69.7
780.214	68.56
780.52	69.52
780.827	65.79
781.134	67.3
781.44	66.1
781.747	67.88
782.053	69.13
782.36	67.24
782.666	67.83
782.973	68.19
783.279	66.95
783.585	67.02
783.891	70.35
784.197	67.59
784.503	67.3
784.809	66.64
785.115	66.95
785.421	67.56
785.727	68.25
786.033	67.42
786.339	71.28
786.644	64.02
786.95	68.01
787.255	65.27
787.561	69.81
787.866	67.06
788.172	68.34
788.477	67.67
788.782	68.3
789.088	64.33
789.393	69.04
789.698	67.65
790.003	69.85
790.308	65.65
790.613	70.95
790.918	68.43
791.223	67.07
791.527	69.95
791.832	68.36
792.137	68.42
792.441	67.6
792.746	69.18
793.05	67.25
793.355	67.51
793.659	69.41
793.963	65.76
794.268	64.18
794.572	65.85
794.876	67.08
795.18	67.94
795.484	65.68
795.788	68.8
796.092	71.17
796.396	69.42
796.7	71.3
797.004	65.39
797.307	68.28
797.611	72.89
797.915	67.2
798.218	67.56
798.522	70.96
798.825	70.88
799.128	69.05
799.432	67.32
799.735	73.3
800.038	67.6
800.341	70.1
800.644	66.9
800.947	70.35
801.25	68.78
801.553	67.65
801.856	71.04
802.159	65.88
802.462	70.65
802.764	67.88
803.067	64.92
803.37	68.82
803.672	68.54
803.975	70.3
804.277	68.01
804.579	71.57
804.882	65.82
805.184	70.29
805.486	69.54
805.788	73.31
806.09	64.84
806.392	69.68
806.694	64.89
806.996	64.54
807.298	65.94
807.6	67.02
807.902	63.94
808.203	68.37
808.505	70.07
808.807	70.95
809.108	68.39
809.409	62.76
809.711	70.17
810.012	70.02
810.313	68.1
810.615	68.71
810.916	65.26
811.217	64.85
811.518	69.95
811.819	69.24
812.12	66.44
812.421	65
812.722	69.37
813.023	61.9
813.323	67.85
813.624	71.16
813.925	70.25
814.225	71.66
814.526	64.31
814.826	67.54
815.126	67.16
815.427	64.38
815.727	70.59
816.027	67.89
816.327	65.28
816.627	70.72
816.927	64.9
817.227	65.43
817.527	69.4
817.827	72.7
818.127	70.69
818.427	62.46
818.727	63.72
819.026	69.9
819.326	75.53
819.625	68.42
819.925	72.1
820.224	69.25
820.524	65.71
820.823	71.57
821.122	73.14
821.421	75.91
821.72	74.23
822.019	67.69
822.318	69.79
822.617	69.08
822.916	69.94
823.215	73.13
823.514	66.56
823.813	71.25
824.111	70.74
824.41	68.81
824.709	69.78
825.007	70.5
825.306	69.76
825.604	69.28
825.902	70.04
826.201	68.92
826.499	69.23
826.797	68.37
827.095	70.41
827.393	69.14
827.691	69.06
827.989	69.7
828.287	70.06
828.585	68.12
828.882	70.95
829.18	70.02
829.478	69.48
829.775	69.09
830.073	70.54
830.37	72.06
830.668	69.26
830.965	72.23
831.263	68.26
831.56	67.13
831.857	67.52
832.154	68.13
832.451	70.49
832.748	65.63
833.045	63.46
833.342	68.05
833.639	75.48
833.936	73.64
834.232	72.52
834.529	73.64
834.826	70.84
835.122	69.7
835.419	69.68
835.715	70.1
836.012	73.27
836.308	71.35
836.604	70.2
836.901	72.6
837.197	70.49
837.493	70.04
837.789	72.57
838.085	70.74
838.381	67.07
838.677	65.51
838.972	71.04
839.268	66.64
839.564	71.94
839.86	70.58
840.155	67.4
840.451	68
840.746	71.28
841.042	74.76
841.337	70.07
841.632	70.5
841.928	72.39
842.223	63.47
842.518	70.8
842.813	67.01
843.108	67.44
843.403	69.42
843.698	66.78
843.993	69.32
844.287	68.3
844.582	68.6
844.877	78.06
845.171	66.19
845.466	70.98
845.761	68.62
846.055	68.91
846.349	74.95
846.644	68.78
846.938	62.9
847.232	68.04
847.526	64.16
847.82	51.81
848.114	61.26
848.408	91.41
848.702	52.95
848.996	66.65
849.29	67.4
849.584	80.23
849.877	69.06
850.171	70.16
850.465	76.56
850.758	74.61
851.052	76.37
851.345	76.04
851.638	57.73
851.932	71.95
852.225	69.63
852.518	57.42
852.811	69.31
853.104	67.94
853.397	63.46
853.69	79.89
853.983	62.6
854.276	77.12
854.569	51.91
854.861	64.57
855.154	71.33
855.447	60.32
855.739	49.99
856.032	93.43
856.324	78.27
856.616	63.05
856.909	72.4
857.201	76.33
857.493	79.89
857.785	65.32
858.077	86.91
858.369	64.39
858.661	65.38
858.953	70.81
859.245	78.3
859.537	62.49
859.829	66.65
860.12	71.52
860.412	66.15
860.703	66.9
860.995	63.12
861.286	67.26
861.578	64.53
861.869	61.36
862.16	85.25
862.452	64
862.743	77.21
863.034	73.91
863.325	61.51
863.616	85.43
863.907	60.65
864.198	76.13
864.488	78.97
864.779	83.21
865.07	101.09
865.36	107.27
865.651	71.52
865.941	79.49
866.232	62.24
866.522	72.68
866.813	64.54
867.103	94.72
867.393	70.77
867.683	78.3
867.973	65.83
868.263	69.52
868.553	73.97
868.843	74.22
869.133	61.91
869.423	83.23
869.713	83.99
870.002	78.55
870.292	88.42
870.582	73.52
870.871	72.03
871.161	87.8
871.45	79.77
871.739	62.36
872.029	68.59
872.318	57.44
872.607	59.2
872.896	73.42
873.185	63.55
873.474	71.41
873.763	66.04
874.052	83.76
874.341	81.34
874.63	83.99
874.918	59.81
875.207	57.06
875.496	100.14
875.784	116.39
876.073	70.01
876.361	64.72
876.649	56.79
876.938	70.46
877.226	76.12
877.514	85.96
877.802	91.63
878.09	77.07
878.378	71.07
878.666	99.11
878.954	55.11
879.242	71.01
879.53	55.22
879.817	61.92
880.105	66.01
880.392	63.89
880.68	73.08
880.967	74.68
881.255	80.27
881.542	42.52
881.83	58.72
882.117	74.34
882.404	70.51
882.691	72.32
882.978	87.56
883.265	63.21
883.552	77
883.839	70.27
884.126	65.63
884.413	71.42
884.699	70.73
884.986	72.98
885.273	69.9
885.559	69.9
885.846	69.9
