Data from 0068_forehead_Reflection__3__282.txt Node

Date: Fri Dec 16 16:19:52 CST 2022
User: ToomeyLab
Spectrometer: FLMS14357
Trigger mode: 0
Integration Time (sec): 1.000000E-2
Scans to average: 100
Electric dark correction enabled: true
Nonlinearity correction enabled: false
Boxcar width: 0
XAxis mode: Wavelengths
Number of Pixels in Spectrum: 2048
>>>>>Begin Spectral Data<<<<<
189.047	69.87
189.435	69.87
189.823	69.87
190.211	-43.38
190.599	13.73
190.987	-385.96
191.375	-286.77
191.763	1739.69
192.151	87.9
192.538	67.86
192.926	212.86
193.314	101.35
193.702	-201.4
194.089	-2676.09
194.477	-14.62
194.864	-94.91
195.252	-172.57
195.639	191.54
196.027	-518.54
196.414	132.71
196.801	48.36
197.189	164.08
197.576	-172.49
197.963	199.32
198.351	8.43
198.738	4.5
199.125	58.04
199.512	50.56
199.899	-23.57
200.286	4.88
200.673	21.95
201.06	51.11
201.447	57.66
201.833	35.89
202.22	25.26
202.607	2.57
202.994	35.67
203.38	4.4
203.767	6.76
204.154	-36.33
204.54	65.24
204.927	31.23
205.313	61.64
205.699	59
206.086	11.53
206.472	26.17
206.858	31.01
207.245	34.56
207.631	71.43
208.017	47.17
208.403	24.78
208.789	38.56
209.175	68.52
209.561	11.5
209.947	51.84
210.333	13.96
210.719	-13.56
211.105	-11.96
211.491	-11.31
211.876	-2.78
212.262	-47.78
212.648	-46.11
213.034	17.18
213.419	44.24
213.805	25.52
214.19	37.27
214.576	7.34
214.961	9.39
215.346	-20.14
215.732	-28.46
216.117	-3.11
216.502	-5.29
216.888	-28.81
217.273	38.29
217.658	-12.78
218.043	30.13
218.428	27.72
218.813	19.34
219.198	-20.75
219.583	16.55
219.968	-40.45
220.353	-1.98
220.738	3.09
221.122	1.32
221.507	-2.79
221.892	27.39
222.276	30.16
222.661	10.14
223.046	-8.06
223.43	0.8
223.815	-6.32
224.199	9.34
224.583	16.58
224.968	10.13
225.352	7.91
225.736	7.99
226.121	-7.33
226.505	6.67
226.889	7
227.273	10.69
227.657	5.67
228.041	6.06
228.425	10.85
228.809	3.5
229.193	2.4
229.577	3.15
229.961	3.5
230.344	4.96
230.728	4.15
231.112	3.83
231.495	4.45
231.879	5.07
232.263	2.55
232.646	4.82
233.03	1.98
233.413	6.25
233.797	4.46
234.18	3.11
234.563	6.04
234.946	5.91
235.33	5.03
235.713	5.77
236.096	4.6
236.479	6.59
236.862	5.8
237.245	5.08
237.628	6.06
238.011	4.97
238.394	6.08
238.777	5.39
239.16	3.13
239.543	2.93
239.925	6.98
240.308	7.37
240.691	5.71
241.073	7.41
241.456	5.27
241.838	4.68
242.221	5.78
242.603	5.17
242.986	5.37
243.368	4.69
243.75	4.69
244.133	4.86
244.515	4.79
244.897	4.2
245.279	4.22
245.661	4.63
246.043	5.73
246.425	4.52
246.807	5.67
247.189	4.59
247.571	4.88
247.953	4.92
248.335	4.84
248.717	5.02
249.098	5.36
249.48	4.73
249.862	5.45
250.243	5.26
250.625	4.79
251.006	5.68
251.388	5.59
251.769	6.36
252.151	6.31
252.532	4.22
252.913	5.72
253.295	5.37
253.676	5.6
254.057	5.24
254.438	5.04
254.819	5.64
255.2	5.72
255.581	4.17
255.962	5.9
256.343	5.45
256.724	5.23
257.105	5.08
257.486	6.69
257.867	3.86
258.247	4.95
258.628	5.76
259.009	5.39
259.389	5.6
259.77	4.91
260.15	5.92
260.531	4.95
260.911	5.24
261.292	5.12
261.672	5.19
262.052	5.37
262.432	5.06
262.813	5.52
263.193	5.25
263.573	5.21
263.953	4.97
264.333	5.14
264.713	5.15
265.093	5.15
265.473	5.35
265.853	5.61
266.233	5.34
266.612	4.96
266.992	4.91
267.372	4.8
267.752	5.17
268.131	5.03
268.511	5.42
268.89	5.18
269.27	5.7
269.649	5.7
270.029	5.15
270.408	5.29
270.787	5.2
271.167	5.19
271.546	3.59
271.925	4.78
272.304	5.99
272.683	4.92
273.062	5.15
273.441	5.5
273.82	5.07
274.199	5.53
274.578	4.63
274.957	5.04
275.336	4.34
275.715	5.61
276.093	5.21
276.472	5.46
276.851	5.71
277.229	6.07
277.608	4.54
277.986	4.97
278.365	4.53
278.743	5.47
279.122	4.52
279.5	5.11
279.878	4.51
280.257	5.58
280.635	4.17
281.013	4.98
281.391	5.33
281.769	4.3
282.147	4.68
282.525	5.21
282.903	5.43
283.281	4.84
283.659	5.37
284.037	5.15
284.415	5.28
284.792	5.23
285.17	5.05
285.548	4.91
285.925	4.96
286.303	4.8
286.68	5.37
287.058	5.22
287.435	4.91
287.813	4.99
288.19	5.67
288.567	5.35
288.945	5.39
289.322	5.02
289.699	5.28
290.076	5.43
290.453	5.2
290.83	5.75
291.207	5.63
291.584	4.99
291.961	5.67
292.338	6.05
292.715	5.99
293.092	5.3
293.469	6.15
293.845	6.51
294.222	6.1
294.599	6.82
294.975	6.86
295.352	5.71
295.728	6.16
296.105	5.95
296.481	6.46
296.858	6.26
297.234	6.21
297.61	6.21
297.986	6.48
298.363	6.09
298.739	6.62
299.115	6.13
299.491	6.7
299.867	6.91
300.243	6.8
300.619	7.03
300.995	6.66
301.371	7.15
301.746	7.15
302.122	7.39
302.498	7.36
302.874	7.33
303.249	7.41
303.625	7.32
304	6.91
304.376	7.32
304.751	7.13
305.127	7.39
305.502	7.71
305.878	7.23
306.253	7.64
306.628	8.32
307.003	7.54
307.378	7.33
307.754	7.93
308.129	7.83
308.504	7.94
308.879	8.11
309.254	7.89
309.629	8.39
310.003	9.16
310.378	8.52
310.753	8.63
311.128	8.54
311.502	8.23
311.877	8.5
312.252	8.29
312.626	8.41
313.001	8.97
313.375	8.98
313.75	9.14
314.124	9.29
314.498	9.02
314.873	9.33
315.247	8.94
315.621	9.59
315.995	9.76
316.369	9.26
316.743	9.87
317.117	9.83
317.491	9.5
317.865	9.17
318.239	10.08
318.613	9.81
318.987	10.36
319.361	9.94
319.734	10.02
320.108	10.4
320.482	10.12
320.855	10.51
321.229	10.85
321.602	10.13
321.976	10.2
322.349	10.02
322.723	10.42
323.096	10.46
323.469	10.35
323.843	10.43
324.216	10.38
324.589	11.4
324.962	10.85
325.335	10.85
325.708	11.15
326.081	11.39
326.454	11
326.827	11.3
327.2	11.9
327.573	11.79
327.945	11.35
328.318	11.71
328.691	11.96
329.063	11.16
329.436	11.26
329.809	11.95
330.181	11.36
330.553	11.75
330.926	11.87
331.298	10.86
331.671	11.37
332.043	12.51
332.415	12.5
332.787	12.48
333.159	12.06
333.532	12.36
333.904	12.34
334.276	12.31
334.648	12.3
335.02	12.1
335.391	12.82
335.763	12.55
336.135	12.95
336.507	12.74
336.879	12.67
337.25	12.2
337.622	12.85
337.993	13.5
338.365	12.89
338.736	13.66
339.108	12.95
339.479	12.66
339.851	13.86
340.222	13.36
340.593	13.62
340.964	13.2
341.336	13.31
341.707	13.16
342.078	12.67
342.449	13.57
342.82	13.68
343.191	13.27
343.562	13.71
343.933	13.71
344.303	13.77
344.674	13.69
345.045	14.24
345.416	13.79
345.786	13.75
346.157	13.75
346.527	13.61
346.898	13.69
347.268	14.06
347.639	14.06
348.009	14.5
348.38	14.26
348.75	14.4
349.12	14.79
349.49	14.8
349.861	14.47
350.231	14.84
350.601	14.78
350.971	14.55
351.341	14.98
351.711	14.84
352.081	14.75
352.45	14.9
352.82	15.09
353.19	15.07
353.56	15.03
353.929	15.1
354.299	15.17
354.669	15.05
355.038	14.95
355.408	15.79
355.777	15.75
356.147	15.66
356.516	15.61
356.885	15.53
357.254	15.95
357.624	15.78
357.993	15.42
358.362	15.72
358.731	15.85
359.1	15.89
359.469	15.99
359.838	15.9
360.207	15.72
360.576	15.79
360.945	15.7
361.314	15.9
361.682	15.64
362.051	16.36
362.42	16.51
362.788	16.17
363.157	15.96
363.525	16.33
363.894	16.29
364.262	16.48
364.631	16.86
364.999	16.4
365.367	16.76
365.735	16.48
366.104	16.61
366.472	16.93
366.84	16.82
367.208	16.78
367.576	17.06
367.944	17.26
368.312	16.78
368.68	17.29
369.048	17.25
369.416	17.33
369.783	17.27
370.151	17.44
370.519	17.2
370.886	17.3
371.254	17.52
371.621	17.65
371.989	17.51
372.356	17.91
372.724	17.93
373.091	17.78
373.458	17.74
373.826	17.63
374.193	18.38
374.56	17.98
374.927	17.94
375.294	18.65
375.661	18.36
376.028	17.93
376.395	18.17
376.762	18.14
377.129	18.66
377.496	18.62
377.863	18.69
378.229	18.42
378.596	18.57
378.963	18.56
379.329	18.57
379.696	19.01
380.062	19.12
380.429	19.05
380.795	18.7
381.161	18.63
381.528	18.81
381.894	18.96
382.26	18.82
382.626	19.04
382.993	18.97
383.359	19.25
383.725	19.78
384.091	19.26
384.457	19.55
384.823	19.35
385.188	19.59
385.554	19.64
385.92	19.62
386.286	20.17
386.651	19.68
387.017	20.14
387.383	19.91
387.748	19.84
388.114	20.05
388.479	20.18
388.845	19.88
389.21	20.32
389.575	20.23
389.94	20.27
390.306	20.45
390.671	20.31
391.036	20.78
391.401	20.59
391.766	20.48
392.131	20.41
392.496	20.5
392.861	20.41
393.226	20.66
393.591	20.69
393.956	20.92
394.32	20.68
394.685	21.04
395.05	20.84
395.414	20.96
395.779	21.02
396.143	20.91
396.508	21.15
396.872	21.23
397.236	21.01
397.601	21.08
397.965	21.13
398.329	21.54
398.694	21.39
399.058	21.53
399.422	21.31
399.786	21.59
400.15	21.55
400.514	21.78
400.878	21.62
401.242	22.05
401.605	22.07
401.969	21.84
402.333	22.12
402.697	22.22
403.06	22.07
403.424	21.99
403.787	22.28
404.151	22.31
404.514	22.2
404.878	22.24
405.241	22.27
405.604	22.29
405.968	22.39
406.331	22.36
406.694	22.43
407.057	22.72
407.42	22.58
407.783	22.66
408.146	22.84
408.509	22.72
408.872	22.8
409.235	22.8
409.598	22.93
409.961	23.02
410.323	22.98
410.686	23.05
411.049	22.89
411.411	23.17
411.774	23.06
412.136	23.43
412.499	23.16
412.861	23.24
413.223	23.38
413.586	23.44
413.948	23.43
414.31	23.53
414.672	23.43
415.035	23.8
415.397	23.86
415.759	23.7
416.121	23.83
416.483	24.05
416.845	23.71
417.206	24.13
417.568	24.06
417.93	23.82
418.292	24.05
418.653	23.91
419.015	24.04
419.377	23.86
419.738	23.9
420.1	23.9
420.461	24.07
420.822	24.1
421.184	24.12
421.545	24.04
421.906	23.98
422.267	23.87
422.629	23.96
422.99	24.07
423.351	24.15
423.712	24.31
424.073	24.35
424.434	24.47
424.795	24.33
425.155	24.39
425.516	24.5
425.877	24.44
426.238	24.47
426.598	24.7
426.959	24.68
427.32	24.84
427.68	25.01
428.041	25.44
428.401	25.01
428.761	25.15
429.122	25.3
429.482	25.44
429.842	25.54
430.202	25.73
430.563	25.46
430.923	25.4
431.283	25.73
431.643	25.86
432.003	25.97
432.363	25.68
432.722	26
433.082	25.81
433.442	25.79
433.802	25.78
434.161	25.92
434.521	25.94
434.881	26.01
435.24	25.94
435.6	25.95
435.959	26.16
436.319	26.38
436.678	26.38
437.037	26.43
437.396	26.72
437.756	26.51
438.115	26.38
438.474	26.57
438.833	26.58
439.192	26.6
439.551	26.58
439.91	26.56
440.269	26.83
440.628	26.67
440.987	26.64
441.345	26.59
441.704	26.64
442.063	26.67
442.421	26.66
442.78	26.79
443.138	27.04
443.497	27.09
443.855	27.23
444.214	27.21
444.572	27.33
444.93	27.53
445.288	27.31
445.647	27.36
446.005	27.22
446.363	27.29
446.721	27.24
447.079	27.28
447.437	27.35
447.795	27.13
448.153	27.2
448.51	27.34
448.868	27.58
449.226	27.64
449.584	27.77
449.941	28.13
450.299	28.01
450.656	28.32
451.014	28.2
451.371	28.33
451.729	28.39
452.086	28.34
452.443	28.37
452.801	28.6
453.158	28.5
453.515	28.39
453.872	28.6
454.229	28.44
454.586	28.47
454.943	28.72
455.3	28.84
455.657	28.76
456.014	28.93
456.371	28.87
456.727	28.96
457.084	29.08
457.441	29.25
457.797	29.13
458.154	28.99
458.51	29.28
458.867	29.35
459.223	29.5
459.58	29.15
459.936	29.13
460.292	29.28
460.648	29.05
461.005	28.66
461.361	28.94
461.717	29.14
462.073	29.3
462.429	29.53
462.785	29.65
463.141	29.9
463.496	29.78
463.852	29.86
464.208	29.92
464.564	30.06
464.919	30.23
465.275	30.16
465.631	30.24
465.986	30.2
466.342	30.04
466.697	30.32
467.052	30.17
467.408	30.58
467.763	30.45
468.118	30.24
468.473	30.57
468.829	30.49
469.184	30.67
469.539	30.55
469.894	30.7
470.249	30.93
470.603	30.83
470.958	30.99
471.313	30.74
471.668	30.98
472.023	31.13
472.377	30.87
472.732	31.1
473.086	30.93
473.441	31.19
473.795	31.28
474.15	31.17
474.504	31.33
474.859	31.43
475.213	31.49
475.567	31.37
475.921	31.65
476.275	31.68
476.63	31.64
476.984	31.72
477.338	31.73
477.692	31.72
478.045	31.6
478.399	31.84
478.753	31.56
479.107	31.87
479.461	31.95
479.814	31.95
480.168	31.94
480.521	32
480.875	32.14
481.228	32.29
481.582	31.9
481.935	32.26
482.289	32.03
482.642	32.06
482.995	32.02
483.348	32.06
483.701	31.92
484.055	31.85
484.408	31.33
484.761	31.09
485.114	30.96
485.466	31.23
485.819	31.46
486.172	31.7
486.525	31.85
486.878	31.96
487.23	32.25
487.583	32.22
487.936	32.19
488.288	31.88
488.641	31.81
488.993	31.63
489.345	31.77
489.698	31.98
490.05	32.19
490.402	32.42
490.754	32.69
491.107	32.76
491.459	32.99
491.811	32.78
492.163	32.7
492.515	32.37
492.866	32.19
493.218	32.36
493.57	32.67
493.922	32.96
494.274	33.19
494.625	33.35
494.977	33.68
495.328	33.79
495.68	33.94
496.031	33.84
496.383	33.93
496.734	34.13
497.086	33.92
497.437	34.07
497.788	34.04
498.139	33.9
498.49	33.94
498.842	34.07
499.193	34.2
499.544	34.33
499.894	34.4
500.245	34.44
500.596	34.47
500.947	34.53
501.298	34.55
501.648	34.54
501.999	34.87
502.35	34.9
502.7	34.97
503.051	35.14
503.401	34.95
503.752	34.95
504.102	34.99
504.452	35.13
504.803	34.95
505.153	35.18
505.503	35.12
505.853	35.1
506.203	35.3
506.553	35.53
506.903	35.26
507.253	35.54
507.603	35.55
507.953	35.56
508.303	35.51
508.652	35.61
509.002	35.65
509.352	35.55
509.701	35.58
510.051	35.6
510.4	35.66
510.75	35.57
511.099	35.72
511.449	35.58
511.798	35.81
512.147	35.8
512.496	36.19
512.846	35.99
513.195	36.02
513.544	35.96
513.893	35.97
514.242	36.03
514.591	36.26
514.939	36.39
515.288	36.41
515.637	36.46
515.986	36.37
516.334	36.4
516.683	36.65
517.032	36.57
517.38	36.74
517.729	36.73
518.077	36.89
518.426	36.52
518.774	36.69
519.122	36.6
519.47	36.34
519.819	36.4
520.167	36.53
520.515	36.45
520.863	36.67
521.211	36.63
521.559	36.97
521.907	37.09
522.255	37.21
522.602	37.32
522.95	37.53
523.298	37.42
523.645	37.32
523.993	37.59
524.341	37.6
524.688	37.7
525.036	37.6
525.383	37.77
525.73	37.55
526.078	37.8
526.425	37.6
526.772	37.23
527.119	37.31
527.466	37.25
527.814	37.37
528.161	37.6
528.508	37.49
528.854	37.47
529.201	37.27
529.548	36.92
529.895	36.75
530.242	37.04
530.588	37.28
530.935	37.34
531.282	37.46
531.628	37.71
531.975	38.04
532.321	38.08
532.667	38.09
533.014	38.23
533.36	38.28
533.706	38.19
534.052	38.12
534.399	37.96
534.745	37.6
535.091	37.94
535.437	38.11
535.783	38.29
536.129	38.51
536.474	38.6
536.82	38.91
537.166	38.92
537.512	38.89
537.857	38.58
538.203	38.62
538.549	38.86
538.894	38.86
539.239	39.1
539.585	39.25
539.93	39.69
540.276	39.56
540.621	39.71
540.966	39.61
541.311	39.5
541.656	39.47
542.001	39.19
542.346	39.05
542.691	38.6
543.036	38.72
543.381	38.98
543.726	39.37
544.071	39.38
544.415	39.43
544.76	39.47
545.105	39.66
545.449	39.61
545.794	39.91
546.138	39.92
546.483	40.18
546.827	40.24
547.171	40.32
547.516	40.19
547.86	40.21
548.204	39.99
548.548	40.23
548.892	40.58
549.236	40.59
549.58	40.61
549.924	40.77
550.268	40.99
550.612	40.99
550.956	41.19
551.3	41.29
551.643	41.3
551.987	41.05
552.33	41.22
552.674	41.55
553.017	41.4
553.361	41.32
553.704	41.21
554.048	41.41
554.391	41.24
554.734	41.64
555.077	41.67
555.42	41.54
555.764	41.75
556.107	41.91
556.45	41.98
556.793	42.19
557.135	41.98
557.478	41.95
557.821	42.08
558.164	42.08
558.507	42.15
558.849	42.06
559.192	42.32
559.534	42.33
559.877	42.3
560.219	42.52
560.562	42.47
560.904	42.63
561.246	42.75
561.589	42.74
561.931	42.74
562.273	42.35
562.615	42.68
562.957	42.72
563.299	42.65
563.641	42.71
563.983	42.73
564.325	42.68
564.667	42.82
565.008	42.98
565.35	43.18
565.692	43.15
566.033	43.26
566.375	42.91
566.716	43.43
567.058	43.08
567.399	43.08
567.741	43
568.082	43.06
568.423	43.3
568.764	43.32
569.105	43.32
569.447	43.38
569.788	43.65
570.129	43.65
570.47	43.53
570.811	43.67
571.151	43.68
571.492	43.73
571.833	43.66
572.174	43.8
572.514	43.62
572.855	43.59
573.195	43.68
573.536	43.77
573.876	43.8
574.217	43.85
574.557	44.06
574.898	44.08
575.238	44.07
575.578	44.19
575.918	44.08
576.258	44.14
576.598	44.13
576.938	44.36
577.278	44.36
577.618	44.4
577.958	44.17
578.298	44.39
578.638	44.53
578.977	44.78
579.317	44.71
579.657	44.9
579.996	44.75
580.336	44.84
580.675	44.98
581.014	45.06
581.354	45.43
581.693	45.35
582.032	45.12
582.372	45.49
582.711	44.99
583.05	45.58
583.389	45.48
583.728	45.55
584.067	45.47
584.406	45.74
584.745	45.24
585.083	45.59
585.422	45.44
585.761	45.49
586.1	45.79
586.438	45.87
586.777	45.4
587.115	45.92
587.454	45.99
587.792	45.75
588.13	45.97
588.469	46.42
588.807	46.13
589.145	46.14
589.483	46.16
589.821	46.09
590.159	46.03
590.497	45.88
590.835	46.27
591.173	46.29
591.511	46.65
591.849	46.28
592.187	46.88
592.524	46.6
592.862	46.44
593.2	46.67
593.537	46.7
593.875	46.68
594.212	46.52
594.55	46.67
594.887	46.93
595.224	46.89
595.561	46.66
595.899	47.03
596.236	46.64
596.573	47.16
596.91	46.89
597.247	46.64
597.584	46.98
597.921	47.19
598.258	46.57
598.594	46.58
598.931	46.69
599.268	47.16
599.604	47.03
599.941	47.29
600.277	47.52
600.614	47.44
600.95	47.74
601.287	47.66
601.623	48.07
601.959	47.51
602.296	47.29
602.632	48.06
602.968	47.77
603.304	47.86
603.64	47.51
603.976	47.79
604.312	47.72
604.648	47.95
604.984	47.6
605.319	47.35
605.655	47.46
605.991	47.3
606.326	47.66
606.662	47.48
606.998	47.42
607.333	47.91
607.668	48.02
608.004	48.12
608.339	48.37
608.674	48.35
609.01	48.66
609.345	48.72
609.68	48.46
610.015	48.49
610.35	48.23
610.685	48.25
611.02	48.14
611.355	48.15
611.689	48.24
612.024	48.78
612.359	48.56
612.694	48.73
613.028	48.64
613.363	48.79
613.697	48.92
614.032	48.85
614.366	48.92
614.7	49.31
615.035	49.06
615.369	49.15
615.703	48.96
616.037	49.58
616.371	49.68
616.705	49.17
617.039	49.32
617.373	49.62
617.707	49.26
618.041	49.25
618.375	49.77
618.709	49.35
619.042	49.71
619.376	49.43
619.71	49.16
620.043	49.93
620.377	49.71
620.71	49.95
621.043	49.49
621.377	49.65
621.71	50.24
622.043	49.93
622.376	49.97
622.709	49.84
623.043	50.11
623.376	49.98
623.709	50.59
624.041	50.11
624.374	49.64
624.707	49.96
625.04	50.07
625.373	50.39
625.705	50.3
626.038	49.8
626.37	50.13
626.703	50.39
627.035	50.86
627.368	50.22
627.7	50.03
628.032	50.63
628.365	50.04
628.697	50.06
629.029	50.42
629.361	50.35
629.693	50.72
630.025	50.49
630.357	49.94
630.689	50.9
631.021	51.41
631.353	50.75
631.684	51.12
632.016	50.51
632.348	51.06
632.679	50.9
633.011	50.98
633.342	51.5
633.674	50.85
634.005	50.93
634.336	51.28
634.668	51.35
634.999	51.32
635.33	51.43
635.661	51.16
635.992	50.77
636.323	51.14
636.654	50.96
636.985	51.7
637.316	51.47
637.647	51.48
637.977	51.61
638.308	51.02
638.639	51.65
638.969	51.53
639.3	51.84
639.63	51.36
639.961	51.33
640.291	52.31
640.622	51.93
640.952	51.92
641.282	51.67
641.612	51.68
641.943	51.85
642.273	52.01
642.603	52.09
642.933	52.46
643.263	52.35
643.592	52.06
643.922	52.64
644.252	52.66
644.582	52.57
644.911	52.18
645.241	52.15
645.571	52.04
645.9	52.41
646.23	52.42
646.559	52.65
646.888	52.09
647.218	52.62
647.547	52.22
647.876	52.06
648.205	52.87
648.534	52.28
648.863	52.63
649.192	52.15
649.521	52.34
649.85	52.85
650.179	53.01
650.508	52.93
650.837	53.07
651.165	53.01
651.494	52.84
651.822	52.92
652.151	53.24
652.479	53.21
652.808	52.99
653.136	52.49
653.465	52.81
653.793	53
654.121	53
654.449	53.17
654.777	53.26
655.105	53.56
655.433	53.17
655.761	52.86
656.089	53.11
656.417	53.1
656.745	53.21
657.073	53.11
657.4	53.47
657.728	52.96
658.056	53.43
658.383	53.48
658.711	53.11
659.038	53.8
659.365	53.57
659.693	53.66
660.02	53.54
660.347	53.5
660.674	53.05
661.001	53.41
661.329	53.92
661.656	53.34
661.982	53.6
662.309	53.92
662.636	53.55
662.963	53.69
663.29	53.55
663.616	53.86
663.943	54.35
664.27	54.33
664.596	53.84
664.923	54.87
665.249	54.02
665.576	54.19
665.902	53.91
666.228	53.94
666.554	53.6
666.881	54.21
667.207	54.93
667.533	53.87
667.859	54.22
668.185	54.65
668.511	54.49
668.837	54.65
669.162	54.57
669.488	54.37
669.814	54.51
670.139	54.28
670.465	54.69
670.791	54.69
671.116	54.31
671.442	54.45
671.767	54.22
672.092	54.91
672.418	54.85
672.743	55.01
673.068	54.93
673.393	54.95
673.718	54.13
674.043	54.52
674.368	55.24
674.693	54.99
675.018	55.05
675.343	55.36
675.667	55.13
675.992	55.43
676.317	55
676.641	55.25
676.966	54.72
677.29	54.94
677.615	55.88
677.939	55.77
678.264	55.4
678.588	54.61
678.912	55.52
679.236	56.2
679.56	55.02
679.885	55.13
680.209	55.49
680.532	55.43
680.856	55.47
681.18	55.36
681.504	55.07
681.828	54.99
682.152	55.05
682.475	55.16
682.799	55.68
683.122	55.52
683.446	55.66
683.769	55.49
684.093	55.52
684.416	55.08
684.739	56.09
685.062	55.95
685.386	55.62
685.709	55.48
686.032	55.2
686.355	56.58
686.678	55.56
687.001	55.36
687.324	56.37
687.646	55.63
687.969	55.79
688.292	56.46
688.614	56.89
688.937	56.49
689.26	56.57
689.582	55.98
689.904	56.19
690.227	55.47
690.549	55.91
690.871	56.27
691.194	56.55
691.516	56.34
691.838	56.05
692.16	56.32
692.482	57.17
692.804	56.02
693.126	55.96
693.448	56.23
693.769	56.58
694.091	57.11
694.413	57.33
694.735	55.4
695.056	56.99
695.378	56.68
695.699	57.13
696.021	57.05
696.342	57.08
696.663	57.15
696.984	56.68
697.306	58.04
697.627	56.68
697.948	56.51
698.269	56.72
698.59	56.62
698.911	57.09
699.232	56.99
699.553	56.85
699.873	56.89
700.194	57.31
700.515	56.72
700.835	57.31
701.156	56.96
701.477	57.35
701.797	57.37
702.117	56.86
702.438	57.79
702.758	57.21
703.078	57.51
703.398	57.09
703.719	57.8
704.039	56.85
704.359	57.57
704.679	57.29
704.999	57.5
705.319	57.52
705.638	57.16
705.958	58.31
706.278	57.82
706.597	57.85
706.917	56.91
707.237	57.04
707.556	58.86
707.876	57.29
708.195	57.67
708.514	59.11
708.834	58
709.153	59.2
709.472	57.15
709.791	58
710.11	57.88
710.429	57.69
710.748	58.06
711.067	57.51
711.386	59.34
711.705	58.56
712.023	58.2
712.342	57.89
712.661	58.25
712.979	58.77
713.298	58.83
713.616	58.37
713.935	56.67
714.253	58.4
714.572	57.79
714.89	58.84
715.208	58.19
715.526	58.62
715.844	59.63
716.162	57.65
716.48	58.49
716.798	59.41
717.116	59.66
717.434	58.05
717.752	57.59
718.069	58.36
718.387	59.2
718.705	58.33
719.022	58.05
719.34	57.65
719.657	59.18
719.975	57.2
720.292	58.43
720.609	58.33
720.927	59.01
721.244	58.63
721.561	59.28
721.878	59
722.195	57.49
722.512	59.44
722.829	59.08
723.146	58.61
723.463	59.37
723.779	59.67
724.096	59.22
724.413	59.55
724.729	59.66
725.046	59.17
725.362	59.42
725.679	60.4
725.995	58.95
726.311	59.65
726.628	60.32
726.944	58.81
727.26	58.5
727.576	57.68
727.892	60.21
728.208	59.72
728.524	59.41
728.84	59.56
729.156	59.34
729.472	60.38
729.787	59.2
730.103	59.26
730.419	60.08
730.734	60.11
731.05	58.49
731.365	59.12
731.681	58.87
731.996	59.26
732.311	61.75
732.626	60.77
732.942	58.93
733.257	59.97
733.572	61.23
733.887	60.95
734.202	60.31
734.517	60.55
734.832	60.24
735.146	59.33
735.461	59.11
735.776	59.44
736.091	60.74
736.405	60.15
736.72	60.58
737.034	59.78
737.349	59.51
737.663	60.79
737.977	61.53
738.292	59.55
738.606	59.84
738.92	58.34
739.234	60.33
739.548	59.62
739.862	59.44
740.176	59.96
740.49	61.23
740.804	59.91
741.117	59.84
741.431	60.72
741.745	60.16
742.058	59.01
742.372	59.05
742.685	59.51
742.999	63.03
743.312	60.08
743.626	59.67
743.939	60.1
744.252	59.61
744.565	61.11
744.878	59.79
745.191	61.23
745.505	60.14
745.817	60.05
746.13	62.04
746.443	61.39
746.756	59.95
747.069	60.34
747.381	60.11
747.694	61.15
748.007	61.79
748.319	62.29
748.632	59.6
748.944	60.64
749.256	63.16
749.569	61.81
749.881	61.06
750.193	61.53
750.505	60.66
750.817	59.64
751.129	61.73
751.441	60.86
751.753	62.41
752.065	60.04
752.377	60.01
752.689	60.4
753	60.22
753.312	61.46
753.624	61.36
753.935	59.21
754.247	61.67
754.558	62.66
754.869	61.23
755.181	63.45
755.492	62.05
755.803	61.75
756.114	61.96
756.425	62.8
756.736	62.82
757.047	62.62
757.358	63.13
757.669	60.95
757.98	61.46
758.291	62.4
758.601	63.13
758.912	61.96
759.223	60.44
759.533	62.22
759.844	62.3
760.154	61.7
760.464	63.04
760.775	63.66
761.085	61.95
761.395	62.85
761.705	60.68
762.016	61.5
762.326	61.5
762.636	61.81
762.945	61.59
763.255	61.22
763.565	61.15
763.875	62.53
764.185	62.65
764.494	61.96
764.804	62.28
765.113	61.02
765.423	63.43
765.732	61.77
766.042	62.29
766.351	61.81
766.66	62.88
766.97	62.77
767.279	63.06
767.588	62.93
767.897	63.47
768.206	63.38
768.515	63.35
768.824	63.29
769.133	61.26
769.441	61.54
769.75	62.99
770.059	62.72
770.367	62.22
770.676	60.87
770.984	62.56
771.293	65.33
771.601	61.67
771.91	64.58
772.218	62.15
772.526	63.03
772.834	64.86
773.142	61.3
773.45	62.54
773.758	64.92
774.066	60.41
774.374	59.9
774.682	59.94
774.99	61.57
775.298	59.85
775.605	61.08
775.913	62.65
776.22	64.68
776.528	63.05
776.835	64.42
777.143	62.06
777.45	65.11
777.757	61.51
778.065	62.58
778.372	59.8
778.679	63.8
778.986	58.54
779.293	63.57
779.6	65.58
779.907	59.18
780.214	61.43
780.52	62.57
780.827	62.07
781.134	63.17
781.44	60.44
781.747	65.24
782.053	65.3
782.36	64.72
782.666	66.37
782.973	63.05
783.279	64.23
783.585	60.76
783.891	64.09
784.197	59.33
784.503	59.67
784.809	64.85
785.115	59.62
785.421	63.21
785.727	63.51
786.033	60.63
786.339	63.25
786.644	62.53
786.95	63.69
787.255	57.07
787.561	63.68
787.866	60.17
788.172	64.97
788.477	65.6
788.782	60.81
789.088	62.59
789.393	67.8
789.698	61.36
790.003	67.42
790.308	64.2
790.613	63.37
790.918	64.84
791.223	63.21
791.527	63.83
791.832	65.09
792.137	65.26
792.441	61.05
792.746	68.7
793.05	66.44
793.355	65.52
793.659	65
793.963	60.61
794.268	61.66
794.572	66.52
794.876	61.9
795.18	65.19
795.484	59.27
795.788	63.59
796.092	66.34
796.396	62
796.7	62.4
797.004	62.67
797.307	64.11
797.611	65.04
797.915	64.21
798.218	66.98
798.522	61.54
798.825	60.12
799.128	63.41
799.432	68.63
799.735	63.56
800.038	62.49
800.341	63.11
800.644	61.76
800.947	67.58
801.25	66.44
801.553	66.45
801.856	64.34
802.159	61.02
802.462	64.8
802.764	59.06
803.067	63.85
803.37	64.43
803.672	64.65
803.975	62.94
804.277	66.12
804.579	60.98
804.882	60.98
805.184	65.55
805.486	62.75
805.788	62.23
806.09	60.08
806.392	61.03
806.694	68.37
806.996	60.99
807.298	63.11
807.6	62.97
807.902	66.1
808.203	59.49
808.505	64.46
808.807	64.09
809.108	67.64
809.409	64.94
809.711	66.94
810.012	64.24
810.313	66.12
810.615	67.62
810.916	63.75
811.217	60.07
811.518	68.57
811.819	64.63
812.12	64.99
812.421	65.28
812.722	61.93
813.023	66.23
813.323	67.08
813.624	62.93
813.925	60.7
814.225	64.73
814.526	66.77
814.826	69.1
815.126	70.22
815.427	62.45
815.727	65.62
816.027	58.77
816.327	61.01
816.627	69.2
816.927	63.94
817.227	58.86
817.527	63.03
817.827	68.45
818.127	65.81
818.427	67.35
818.727	61.63
819.026	63.25
819.326	67.66
819.625	71.99
819.925	60.14
820.224	76
820.524	77.72
820.823	65.53
821.122	72
821.421	64.18
821.72	62.1
822.019	67.98
822.318	65.41
822.617	67
822.916	65.59
823.215	65.25
823.514	65.99
823.813	65.31
824.111	65.03
824.41	65.69
824.709	66.07
825.007	66.18
825.306	66.35
825.604	66.57
825.902	65.94
826.201	65.38
826.499	65.23
826.797	65.84
827.095	65.54
827.393	65.58
827.691	67.34
827.989	64.66
828.287	68.56
828.585	66.01
828.882	66.37
829.18	65.97
829.478	65.76
829.775	65.57
830.073	64.68
830.37	67.87
830.668	64.45
830.965	65.45
831.263	66.05
831.56	65.11
831.857	68.66
832.154	67.4
832.451	62.71
832.748	68.83
833.045	72.08
833.342	61.85
833.639	65.02
833.936	61.96
834.232	69.64
834.529	60.26
834.826	68.77
835.122	65.48
835.419	69.96
835.715	62.69
836.012	70.03
836.308	71.06
836.604	63.08
836.901	66.12
837.197	66.44
837.493	70.32
837.789	69.26
838.085	70.07
838.381	70.08
838.677	59.7
838.972	63.88
839.268	69.57
839.564	71.32
839.86	66.39
840.155	57.41
840.451	59.04
840.746	64.65
841.042	66.22
841.337	72.87
841.632	67.55
841.928	57.82
842.223	62.67
842.518	65.92
842.813	72.77
843.108	66.77
843.403	67.65
843.698	70.41
843.993	69.59
844.287	71.87
844.582	71.29
844.877	70.08
845.171	69.29
845.466	67.34
845.761	68.51
846.055	79.64
846.349	70.68
846.644	66.03
846.938	62.14
847.232	52.66
847.526	51.99
847.82	66.25
848.114	60.65
848.408	65.05
848.702	61.56
848.996	58.4
849.29	72.28
849.584	46.66
849.877	69.95
850.171	64.29
850.465	53.31
850.758	68.7
851.052	62.64
851.345	77.69
851.638	87.87
851.932	64.17
852.225	61.47
852.518	75.51
852.811	55.52
853.104	67.11
853.397	61.32
853.69	70.09
853.983	56.72
854.276	35.19
854.569	65.76
854.861	77.42
855.154	71.91
855.447	55.55
855.739	70.07
856.032	75.85
856.324	89.65
856.616	57.84
856.909	59.36
857.201	62.67
857.493	49.8
857.785	51.18
858.077	81.86
858.369	69.33
858.661	78.84
858.953	35.36
859.245	76.82
859.537	67.12
859.829	89.89
860.12	64.14
860.412	53.52
860.703	52.59
860.995	46.04
861.286	58.3
861.578	55.6
861.869	85.37
862.16	61.45
862.452	61.28
862.743	64.35
863.034	52.29
863.325	43.18
863.616	65.95
863.907	80.8
864.198	57.22
864.488	58.58
864.779	71.62
865.07	65.21
865.36	123.32
865.651	93.74
865.941	68.64
866.232	59.08
866.522	70.1
866.813	68.96
867.103	89.07
867.393	50.92
867.683	72.41
867.973	57.87
868.263	66.04
868.553	71.76
868.843	66.75
869.133	70.01
869.423	73.23
869.713	79.24
870.002	73.03
870.292	42.33
870.582	63.28
870.871	73.5
871.161	73.54
871.45	44.63
871.739	33.24
872.029	47.68
872.318	87.35
872.607	54.14
872.896	76.16
873.185	68.39
873.474	77.82
873.763	60.04
874.052	39.55
874.341	37.26
874.63	57.25
874.918	55.35
875.207	84.97
875.496	73.88
875.784	44.01
876.073	65.86
876.361	74.84
876.649	81.54
876.938	61.73
877.226	82.43
877.514	55.72
877.802	58.32
878.09	150.74
878.378	59.15
878.666	32.85
878.954	89.78
879.242	84.13
879.53	62.91
879.817	98.08
880.105	17.43
880.392	26.36
880.68	66.54
880.967	81.75
881.255	74.75
881.542	61.81
881.83	49.81
882.117	71.52
882.404	42.35
882.691	56.28
882.978	75.01
883.265	68.37
883.552	47.12
883.839	65.1
884.126	53.64
884.413	60.81
884.699	75.43
884.986	63.88
885.273	74.33
885.559	74.33
885.846	74.33
