Data from 0068_chest_Reflection__1__270.txt Node

Date: Fri Dec 16 16:14:09 CST 2022
User: ToomeyLab
Spectrometer: FLMS14357
Trigger mode: 0
Integration Time (sec): 1.000000E-2
Scans to average: 100
Electric dark correction enabled: true
Nonlinearity correction enabled: false
Boxcar width: 0
XAxis mode: Wavelengths
Number of Pixels in Spectrum: 2048
>>>>>Begin Spectral Data<<<<<
189.047	10.9
189.435	10.9
189.823	10.9
190.211	401.8
190.599	29.57
190.987	-267.29
191.375	-645.74
191.763	2119.59
192.151	-277.75
192.538	60.13
192.926	-830.48
193.314	78.58
193.702	-100.08
194.089	4452.17
194.477	-65.89
194.864	-151.35
195.252	16.14
195.639	188.09
196.027	809.97
196.414	143.23
196.801	155.36
197.189	136.36
197.576	-206.7
197.963	-107.06
198.351	44.82
198.738	19.31
199.125	17.87
199.512	-27.13
199.899	-29.74
200.286	-44.13
200.673	51.78
201.06	61.77
201.447	45.27
201.833	-5.61
202.22	23.04
202.607	94.75
202.994	51.11
203.38	-42.95
203.767	-14.17
204.154	67.72
204.54	38.85
204.927	-8.83
205.313	-8.15
205.699	-9.25
206.086	18.06
206.472	2.97
206.858	12.31
207.245	38.27
207.631	-48.84
208.017	4.72
208.403	27.38
208.789	32.86
209.175	51.6
209.561	17.05
209.947	-65.29
210.333	-37.74
210.719	8.32
211.105	-33.26
211.491	27.79
211.876	-16.41
212.262	-59.56
212.648	-64.26
213.034	1.51
213.419	46.64
213.805	35.07
214.19	10
214.576	-46.37
214.961	-24.48
215.346	9.58
215.732	-10.71
216.117	-21.26
216.502	19.3
216.888	-56.19
217.273	11.95
217.658	3.3
218.043	-7.88
218.428	9.45
218.813	7.39
219.198	-8.84
219.583	-2.05
219.968	-22.18
220.353	0.34
220.738	-25
221.122	0.66
221.507	-14.21
221.892	7.33
222.276	0
222.661	-27.23
223.046	18.85
223.43	10.03
223.815	8.35
224.199	6.52
224.583	7.47
224.968	12.68
225.352	4.69
225.736	-3.89
226.121	-13.56
226.505	4.5
226.889	7.92
227.273	10.72
227.657	6.13
228.041	4.23
228.425	7.09
228.809	4.8
229.193	3.13
229.577	4.03
229.961	5.42
230.344	5.08
230.728	4.57
231.112	4.67
231.495	4.07
231.879	4.63
232.263	4.13
232.646	5.35
233.03	1.63
233.413	4.32
233.797	4.13
234.18	3.04
234.563	4.67
234.946	5.55
235.33	6.34
235.713	5.07
236.096	5.23
236.479	5.76
236.862	6.59
237.245	7.01
237.628	5.6
238.011	5.18
238.394	5.64
238.777	4.88
239.16	2.98
239.543	4.08
239.925	6.37
240.308	7.2
240.691	6.47
241.073	6.15
241.456	4.82
241.838	4.1
242.221	4.49
242.603	5.05
242.986	6.17
243.368	4.81
243.75	4.79
244.133	5.31
244.515	5.43
244.897	4.18
245.279	4.84
245.661	4.9
246.043	6.09
246.425	4.29
246.807	4.75
247.189	5.38
247.571	5.19
247.953	4.73
248.335	5.09
248.717	5.19
249.098	4.85
249.48	4.37
249.862	5.32
250.243	4.66
250.625	5.61
251.006	4.91
251.388	5.54
251.769	4.89
252.151	4.47
252.532	4.56
252.913	4.78
253.295	4.42
253.676	5.28
254.057	4.39
254.438	4.7
254.819	4.77
255.2	5.11
255.581	4.59
255.962	4.94
256.343	5.17
256.724	4.32
257.105	5.02
257.486	4.57
257.867	2.59
258.247	6.04
258.628	5.82
259.009	5.49
259.389	5.47
259.77	4.65
260.15	5.03
260.531	4.96
260.911	4.75
261.292	4.64
261.672	4.46
262.052	4.3
262.432	4.24
262.813	5.48
263.193	4.73
263.573	4.4
263.953	4.48
264.333	5.33
264.713	4.11
265.093	4.77
265.473	5.11
265.853	3.81
266.233	4.7
266.612	4.55
266.992	4.32
267.372	4.47
267.752	3.94
268.131	4.36
268.511	4.64
268.89	4.96
269.27	5.21
269.649	4.58
270.029	4.57
270.408	4.3
270.787	3.96
271.167	3.99
271.546	3.62
271.925	4.2
272.304	4.33
272.683	4.34
273.062	5.04
273.441	4.89
273.82	5.1
274.199	4.5
274.578	4.31
274.957	4.58
275.336	4.02
275.715	4.61
276.093	5.08
276.472	4.55
276.851	4.94
277.229	4.95
277.608	4.46
277.986	4.1
278.365	4.45
278.743	4.29
279.122	3.38
279.5	4.01
279.878	3.21
280.257	4.8
280.635	4.09
281.013	4.99
281.391	4.53
281.769	3.84
282.147	4.11
282.525	3.76
282.903	4.47
283.281	4.76
283.659	4.71
284.037	4.26
284.415	4.2
284.792	4.59
285.17	3.8
285.548	3.98
285.925	4.74
286.303	3.9
286.68	4.84
287.058	4.12
287.435	4.15
287.813	4.65
288.19	4.16
288.567	4.44
288.945	4.08
289.322	4.13
289.699	4.38
290.076	4.53
290.453	4.17
290.83	4.34
291.207	4.46
291.584	4.25
291.961	4.59
292.338	4.47
292.715	4.02
293.092	4.76
293.469	4.95
293.845	4.61
294.222	5.05
294.599	4.78
294.975	4.92
295.352	4.17
295.728	4.87
296.105	4.37
296.481	5.15
296.858	5.33
297.234	4.39
297.61	4.73
297.986	4.55
298.363	4.54
298.739	4.83
299.115	4.31
299.491	4.55
299.867	5.15
300.243	5.08
300.619	4.42
300.995	4.88
301.371	4.96
301.746	4.82
302.122	5
302.498	4.7
302.874	4.95
303.249	5.41
303.625	4.62
304	4.68
304.376	4.36
304.751	5.03
305.127	4.17
305.502	4.6
305.878	4.45
306.253	4.69
306.628	5.38
307.003	5.35
307.378	4.49
307.754	4.99
308.129	4.27
308.504	4.5
308.879	4.76
309.254	5.08
309.629	4.89
310.003	5.52
310.378	4.7
310.753	4.84
311.128	5.07
311.502	4.85
311.877	5.07
312.252	4.86
312.626	4.56
313.001	4.69
313.375	4.92
313.75	4.78
314.124	5.19
314.498	4.22
314.873	4.73
315.247	4.58
315.621	5
315.995	5.14
316.369	4.89
316.743	4.93
317.117	4.65
317.491	5.2
317.865	4.82
318.239	4.82
318.613	5.56
318.987	5.01
319.361	4.53
319.734	4.73
320.108	5.17
320.482	4.38
320.855	4.78
321.229	5.64
321.602	5.07
321.976	4.85
322.349	4.32
322.723	4.17
323.096	4.72
323.469	4.6
323.843	4.88
324.216	4.41
324.589	5.04
324.962	4.77
325.335	5.04
325.708	5.03
326.081	5.19
326.454	4.74
326.827	5.27
327.2	5.09
327.573	5.14
327.945	4.61
328.318	5.44
328.691	4.94
329.063	4.53
329.436	4.91
329.809	4.3
330.181	4.42
330.553	5.08
330.926	5.08
331.298	4.61
331.671	4.96
332.043	4.84
332.415	5.04
332.787	5.07
333.159	4.73
333.532	5.38
333.904	5.43
334.276	4.8
334.648	4.61
335.02	4.84
335.391	4.87
335.763	5.15
336.135	4.7
336.507	5.14
336.879	4.93
337.25	4.87
337.622	5.46
337.993	5.05
338.365	5.11
338.736	4.93
339.108	4.58
339.479	4.46
339.851	5.04
340.222	4.74
340.593	4.95
340.964	5.08
341.336	4.64
341.707	4.97
342.078	4.4
342.449	5.26
342.82	4.72
343.191	4.68
343.562	4.94
343.933	4.69
344.303	4.92
344.674	5.06
345.045	5.39
345.416	5.06
345.786	4.46
346.157	5.3
346.527	4.9
346.898	4.98
347.268	4.64
347.639	4.61
348.009	5.15
348.38	4.9
348.75	5.18
349.12	4.98
349.49	5.13
349.861	5.17
350.231	5.01
350.601	4.99
350.971	4.88
351.341	5.31
351.711	4.95
352.081	5.28
352.45	5
352.82	4.95
353.19	4.73
353.56	5.07
353.929	5.06
354.299	5.01
354.669	5.02
355.038	5.13
355.408	5.46
355.777	5.09
356.147	5.11
356.516	5.4
356.885	4.78
357.254	5.06
357.624	4.77
357.993	4.79
358.362	5.36
358.731	4.91
359.1	5.2
359.469	4.9
359.838	4.89
360.207	5.04
360.576	4.9
360.945	4.67
361.314	5.36
361.682	4.84
362.051	4.86
362.42	5.26
362.788	5.23
363.157	4.91
363.525	4.85
363.894	4.73
364.262	4.87
364.631	5.55
364.999	4.77
365.367	5.4
365.735	4.66
366.104	4.73
366.472	5.16
366.84	4.99
367.208	5.06
367.576	5.28
367.944	5.21
368.312	4.65
368.68	4.9
369.048	5.1
369.416	4.97
369.783	5
370.151	5.11
370.519	5
370.886	5.38
371.254	4.75
371.621	5.18
371.989	5.1
372.356	4.95
372.724	5.19
373.091	4.85
373.458	5.19
373.826	4.92
374.193	5.37
374.56	5.11
374.927	5.18
375.294	5.12
375.661	5.26
376.028	5.22
376.395	5.46
376.762	5.46
377.129	5.22
377.496	5.18
377.863	5.21
378.229	4.98
378.596	5.19
378.963	4.95
379.329	4.86
379.696	5.25
380.062	5.22
380.429	5.29
380.795	5.13
381.161	5.06
381.528	4.86
381.894	5.33
382.26	5.03
382.626	5.27
382.993	5.04
383.359	5.11
383.725	5.39
384.091	5.15
384.457	5.37
384.823	5.15
385.188	5.34
385.554	5.39
385.92	5.49
386.286	5.46
386.651	5.12
387.017	5.26
387.383	5.16
387.748	5.25
388.114	4.96
388.479	5.56
388.845	5.03
389.21	5.47
389.575	5.25
389.94	5.09
390.306	5.03
390.671	5.08
391.036	5.38
391.401	5.66
391.766	5.18
392.131	5.11
392.496	5.38
392.861	4.91
393.226	5.25
393.591	5.27
393.956	5.6
394.32	5.02
394.685	5.35
395.05	5.22
395.414	5.28
395.779	5.21
396.143	5.44
396.508	5.29
396.872	5.39
397.236	5.08
397.601	5.65
397.965	5.08
398.329	5.24
398.694	5.28
399.058	5.26
399.422	5.42
399.786	5.47
400.15	5.35
400.514	5.32
400.878	5.07
401.242	5.58
401.605	5.58
401.969	5.45
402.333	5.16
402.697	5.56
403.06	5.6
403.424	5.36
403.787	5.39
404.151	5.29
404.514	5.42
404.878	5.57
405.241	5.5
405.604	5.21
405.968	5.47
406.331	5.48
406.694	5.5
407.057	5.61
407.42	5.38
407.783	5.56
408.146	5.26
408.509	5.31
408.872	5.13
409.235	5.52
409.598	5.87
409.961	5.73
410.323	5.61
410.686	5.41
411.049	5.33
411.411	5.71
411.774	5.22
412.136	5.51
412.499	5.19
412.861	5.21
413.223	5.52
413.586	5.35
413.948	5.43
414.31	5.46
414.672	5.5
415.035	5.66
415.397	5.57
415.759	5.61
416.121	5.7
416.483	5.65
416.845	5.53
417.206	5.57
417.568	5.44
417.93	5.4
418.292	5.38
418.653	5.47
419.015	5.64
419.377	5.57
419.738	5.51
420.1	5.45
420.461	5.35
420.822	5.39
421.184	5.47
421.545	5.38
421.906	5.54
422.267	5.47
422.629	5.47
422.99	5.39
423.351	5.55
423.712	5.37
424.073	5.54
424.434	5.35
424.795	5.35
425.155	5.43
425.516	5.36
425.877	5.51
426.238	5.31
426.598	5.36
426.959	5.36
427.32	5.58
427.68	5.57
428.041	5.69
428.401	5.55
428.761	5.51
429.122	5.41
429.482	5.44
429.842	5.8
430.202	5.6
430.563	5.51
430.923	5.58
431.283	5.7
431.643	5.61
432.003	5.66
432.363	5.68
432.722	5.54
433.082	5.58
433.442	5.67
433.802	5.64
434.161	5.43
434.521	5.58
434.881	5.73
435.24	5.64
435.6	5.6
435.959	5.69
436.319	5.61
436.678	5.63
437.037	5.55
437.396	5.83
437.756	5.63
438.115	5.73
438.474	5.78
438.833	5.78
439.192	5.79
439.551	5.84
439.91	5.72
440.269	5.91
440.628	5.63
440.987	5.62
441.345	5.7
441.704	5.69
442.063	5.61
442.421	5.64
442.78	5.64
443.138	5.6
443.497	5.61
443.855	5.66
444.214	5.67
444.572	5.81
444.93	5.79
445.288	5.75
445.647	5.86
446.005	5.58
446.363	5.75
446.721	5.7
447.079	5.73
447.437	5.71
447.795	5.65
448.153	5.58
448.51	5.64
448.868	5.69
449.226	5.72
449.584	5.66
449.941	5.79
450.299	5.75
450.656	5.81
451.014	5.78
451.371	5.87
451.729	5.94
452.086	5.71
452.443	5.82
452.801	5.99
453.158	5.89
453.515	5.7
453.872	5.97
454.229	5.87
454.586	5.79
454.943	5.75
455.3	5.9
455.657	5.82
456.014	6.04
456.371	6.02
456.727	5.78
457.084	5.83
457.441	5.96
457.797	6
458.154	5.86
458.51	5.91
458.867	5.86
459.223	5.86
459.58	5.85
459.936	5.88
460.292	5.89
460.648	5.85
461.005	5.78
461.361	5.92
461.717	5.89
462.073	5.84
462.429	5.92
462.785	5.9
463.141	5.97
463.496	5.86
463.852	6.05
464.208	5.9
464.564	5.9
464.919	5.97
465.275	6.16
465.631	5.94
465.986	5.8
466.342	5.88
466.697	5.87
467.052	6.19
467.408	6.01
467.763	5.95
468.118	6.04
468.473	6.03
468.829	5.84
469.184	6.05
469.539	5.83
469.894	5.95
470.249	6.02
470.603	5.93
470.958	6.33
471.313	5.92
471.668	6.19
472.023	6.27
472.377	6.04
472.732	6.1
473.086	5.88
473.441	6.07
473.795	6.39
474.15	6.18
474.504	6.05
474.859	6.05
475.213	6.14
475.567	5.97
475.921	6.31
476.275	6.31
476.63	6.13
476.984	6.1
477.338	6.35
477.692	6.15
478.045	6.13
478.399	6.22
478.753	6.1
479.107	6.32
479.461	6.21
479.814	6.31
480.168	6.23
480.521	6.1
480.875	6.33
481.228	6.34
481.582	6.11
481.935	6.02
482.289	6.14
482.642	6.23
482.995	6.2
483.348	6.22
483.701	6.09
484.055	6.15
484.408	6.17
484.761	6.02
485.114	5.95
485.466	5.93
485.819	5.86
486.172	5.84
486.525	5.89
486.878	5.98
487.23	6.04
487.583	6.07
487.936	6.18
488.288	6.12
488.641	6.08
488.993	6.03
489.345	6.02
489.698	6.03
490.05	6.05
490.402	6.14
490.754	6.17
491.107	6.17
491.459	6.3
491.811	6.32
492.163	6.35
492.515	6.32
492.866	6.13
493.218	6.19
493.57	6.11
493.922	6.15
494.274	6.19
494.625	6.19
494.977	6.27
495.328	6.39
495.68	6.45
496.031	6.43
496.383	6.42
496.734	6.46
497.086	6.4
497.437	6.5
497.788	6.41
498.139	6.45
498.49	6.45
498.842	6.43
499.193	6.41
499.544	6.49
499.894	6.5
500.245	6.55
500.596	6.55
500.947	6.4
501.298	6.47
501.648	6.53
501.999	6.59
502.35	6.63
502.7	6.64
503.051	6.74
503.401	6.63
503.752	6.55
504.102	6.48
504.452	6.47
504.803	6.49
505.153	6.61
505.503	6.52
505.853	6.54
506.203	6.71
506.553	6.71
506.903	6.67
507.253	6.71
507.603	6.82
507.953	6.8
508.303	6.7
508.652	6.74
509.002	6.79
509.352	6.87
509.701	6.61
510.051	6.84
510.4	6.69
510.75	6.78
511.099	6.68
511.449	6.76
511.798	6.92
512.147	6.78
512.496	6.91
512.846	6.76
513.195	6.8
513.544	6.91
513.893	6.83
514.242	6.94
514.591	6.86
514.939	6.8
515.288	6.86
515.637	7
515.986	6.84
516.334	7.01
516.683	7.03
517.032	6.94
517.38	6.9
517.729	7.03
518.077	6.97
518.426	7.05
518.774	7.03
519.122	6.94
519.47	7.05
519.819	6.96
520.167	6.99
520.515	6.97
520.863	6.97
521.211	6.9
521.559	7.03
521.907	7.12
522.255	7.05
522.602	7.19
522.95	7.09
523.298	7.13
523.645	7.17
523.993	7.28
524.341	7.3
524.688	7.14
525.036	7.23
525.383	7.26
525.73	7.17
526.078	7.3
526.425	7.28
526.772	7.17
527.119	7.23
527.466	7.14
527.814	7.15
528.161	7.31
528.508	7.14
528.854	7.21
529.201	7.2
529.548	7.18
529.895	7.14
530.242	7.14
530.588	7.09
530.935	7.03
531.282	7.12
531.628	7.19
531.975	7.26
532.321	7.29
532.667	7.3
533.014	7.38
533.36	7.51
533.706	7.46
534.052	7.44
534.399	7.44
534.745	7.4
535.091	7.34
535.437	7.41
535.783	7.47
536.129	7.4
536.474	7.48
536.82	7.58
537.166	7.65
537.512	7.7
537.857	7.61
538.203	7.65
538.549	7.76
538.894	7.59
539.239	7.68
539.585	7.73
539.93	7.78
540.276	7.65
540.621	7.84
540.966	7.79
541.311	7.88
541.656	7.84
542.001	7.95
542.346	7.85
542.691	7.77
543.036	7.67
543.381	7.7
543.726	7.74
544.071	7.76
544.415	7.76
544.76	7.75
545.105	7.9
545.449	7.86
545.794	7.95
546.138	7.96
546.483	8.08
546.827	8.16
547.171	8.17
547.516	8.03
547.86	8.2
548.204	8.2
548.548	8.27
548.892	8.18
549.236	8.11
549.58	8.16
549.924	8.21
550.268	8.3
550.612	8.34
550.956	8.33
551.3	8.5
551.643	8.22
551.987	8.21
552.33	8.26
552.674	8.56
553.017	8.64
553.361	8.46
553.704	8.45
554.048	8.66
554.391	8.6
554.734	8.61
555.077	8.77
555.42	8.68
555.764	8.85
556.107	8.62
556.45	8.59
556.793	8.65
557.135	8.86
557.478	8.9
557.821	8.74
558.164	8.88
558.507	8.87
558.849	8.99
559.192	9.01
559.534	8.75
559.877	8.85
560.219	9.26
560.562	9.03
560.904	8.92
561.246	9.35
561.589	9.09
561.931	9.36
562.273	9.13
562.615	9.25
562.957	9.16
563.299	9.21
563.641	9.25
563.983	9.2
564.325	9.05
564.667	9.14
565.008	9.35
565.35	9.32
565.692	9.43
566.033	9.21
566.375	9.24
566.716	9.55
567.058	9.57
567.399	9.62
567.741	9.56
568.082	9.4
568.423	9.55
568.764	9.63
569.105	9.54
569.447	9.54
569.788	9.56
570.129	9.69
570.47	9.85
570.811	9.85
571.151	9.88
571.492	9.89
571.833	9.81
572.174	9.76
572.514	9.7
572.855	9.93
573.195	9.92
573.536	9.96
573.876	9.82
574.217	9.91
574.557	10.04
574.898	10.02
575.238	9.86
575.578	10.2
575.918	10.19
576.258	10.12
576.598	10.26
576.938	10.34
577.278	10.25
577.618	10.16
577.958	10.21
578.298	10.37
578.638	10.3
578.977	10.39
579.317	10.57
579.657	10.35
579.996	10.36
580.336	10.23
580.675	10.57
581.014	10.56
581.354	10.77
581.693	10.66
582.032	10.56
582.372	10.8
582.711	10.64
583.05	10.94
583.389	11.11
583.728	10.81
584.067	10.77
584.406	11.15
584.745	10.94
585.083	11.18
585.422	11.08
585.761	11.36
586.1	11.11
586.438	10.94
586.777	11.01
587.115	11.12
587.454	11.1
587.792	11.18
588.13	11.45
588.469	11.4
588.807	11.41
589.145	11.61
589.483	11.14
589.821	11.33
590.159	11.43
590.497	11.34
590.835	11.48
591.173	11.8
591.511	11.64
591.849	11.56
592.187	11.46
592.524	11.48
592.862	11.8
593.2	11.75
593.537	11.84
593.875	11.71
594.212	11.59
594.55	12.33
594.887	12.26
595.224	12.14
595.561	11.96
595.899	12.2
596.236	12.01
596.573	12.17
596.91	12
597.247	11.88
597.584	12.42
597.921	12.17
598.258	12.29
598.594	12.23
598.931	12.13
599.268	12.14
599.604	12.44
599.941	12.23
600.277	12.18
600.614	12.24
600.95	12.38
601.287	12.58
601.623	12.57
601.959	12.36
602.296	12.63
602.632	13.01
602.968	12.7
603.304	12.6
603.64	12.67
603.976	12.76
604.312	12.93
604.648	12.99
604.984	12.93
605.319	13.02
605.655	12.9
605.991	13.01
606.326	12.95
606.662	12.89
606.998	13.09
607.333	13.05
607.668	13.01
608.004	12.97
608.339	13.31
608.674	13.11
609.01	13.33
609.345	13.61
609.68	13.26
610.015	13.59
610.35	13.54
610.685	13.49
611.02	13.66
611.355	13.65
611.689	13.47
612.024	13.79
612.359	13.85
612.694	13.8
613.028	13.96
613.363	13.67
613.697	13.69
614.032	14.22
614.366	13.94
614.7	14.39
615.035	13.99
615.369	14.15
615.703	14.48
616.037	14.21
616.371	14.5
616.705	14.13
617.039	14.63
617.373	14.3
617.707	14.22
618.041	14.67
618.375	14.41
618.709	14.52
619.042	14.23
619.376	14.45
619.71	14.45
620.043	14.41
620.377	14.78
620.71	14.57
621.043	14.35
621.377	14.53
621.71	14.98
622.043	14.92
622.376	14.9
622.709	15.35
623.043	14.63
623.376	15.01
623.709	15.1
624.041	15.19
624.374	14.93
624.707	14.97
625.04	14.98
625.373	14.99
625.705	15.2
626.038	15
626.37	15.47
626.703	15.16
627.035	15.48
627.368	15.4
627.7	15.65
628.032	15.53
628.365	15.12
628.697	15.6
629.029	15.69
629.361	15.29
629.693	15.77
630.025	15.52
630.357	15.24
630.689	15.75
631.021	15.69
631.353	16.09
631.684	15.73
632.016	15.82
632.348	15.88
632.679	15.8
633.011	15.91
633.342	16.86
633.674	16.05
634.005	15.96
634.336	16.11
634.668	16.17
634.999	16.38
635.33	16.65
635.661	16.23
635.992	16.4
636.323	16.6
636.654	16.57
636.985	16.48
637.316	16.34
637.647	16.86
637.977	16.95
638.308	16.84
638.639	16.52
638.969	16.4
639.3	17.02
639.63	16.64
639.961	16.95
640.291	17.22
640.622	16.58
640.952	17.19
641.282	16.91
641.612	16.97
641.943	16.89
642.273	17.35
642.603	16.97
642.933	16.96
643.263	17.37
643.592	17.44
643.922	17.52
644.252	17.49
644.582	17.52
644.911	17.18
645.241	17.31
645.571	17.57
645.9	17.77
646.23	17.49
646.559	17.57
646.888	17.31
647.218	17.65
647.547	17.94
647.876	17.94
648.205	17.78
648.534	17.55
648.863	17.86
649.192	17.95
649.521	17.69
649.85	18.05
650.179	17.92
650.508	18.12
650.837	18.28
651.165	17.87
651.494	18.05
651.822	18.54
652.151	18.56
652.479	18.86
652.808	18.32
653.136	18.45
653.465	18.5
653.793	18.61
654.121	18.22
654.449	18.6
654.777	18.76
655.105	18.61
655.433	18.56
655.761	18.73
656.089	19.01
656.417	18.39
656.745	18.99
657.073	19.2
657.4	19.07
657.728	19.13
658.056	19.09
658.383	19.67
658.711	19.22
659.038	19.19
659.365	19.16
659.693	19.4
660.02	19.49
660.347	19.31
660.674	19.22
661.001	18.99
661.329	19.16
661.656	19.62
661.982	19.75
662.309	19.65
662.636	19.45
662.963	19.6
663.29	19.56
663.616	19.42
663.943	19.75
664.27	19.69
664.596	19.69
664.923	20.61
665.249	19.53
665.576	19.66
665.902	20.13
666.228	19.45
666.554	19.51
666.881	20.06
667.207	20.58
667.533	21.24
667.859	20.57
668.185	20.11
668.511	19.98
668.837	19.78
669.162	20.41
669.488	20.72
669.814	20.82
670.139	21.14
670.465	20.72
670.791	20.48
671.116	20.58
671.442	20.83
671.767	20.43
672.092	20.9
672.418	20.52
672.743	20.56
673.068	19.82
673.393	20.84
673.718	21
674.043	20.8
674.368	21.1
674.693	21.29
675.018	21.15
675.343	21.04
675.667	21.16
675.992	21.08
676.317	21.26
676.641	21.25
676.966	21.32
677.29	21.3
677.615	21.4
677.939	20.62
678.264	21.1
678.588	21.04
678.912	21.55
679.236	21.95
679.56	21.09
679.885	21.45
680.209	21.07
680.532	21.79
680.856	22.75
681.18	21.76
681.504	21.76
681.828	21.19
682.152	21.47
682.475	21.88
682.799	21.92
683.122	21.59
683.446	22.04
683.769	22.39
684.093	22.23
684.416	21.42
684.739	22.44
685.062	21.97
685.386	22.21
685.709	22.46
686.032	22.11
686.355	22.51
686.678	22.62
687.001	21.71
687.324	22.45
687.646	22.29
687.969	22.47
688.292	23.13
688.614	23.71
688.937	23.32
689.26	22.45
689.582	22.11
689.904	22.7
690.227	22.27
690.549	23.31
690.871	22.79
691.194	22.65
691.516	22.46
691.838	22.76
692.16	23.47
692.482	23.63
692.804	22.84
693.126	23.19
693.448	23.29
693.769	23.04
694.091	23.42
694.413	23.46
694.735	23.6
695.056	23.06
695.378	23.44
695.699	24.43
696.021	23.79
696.342	24.3
696.663	23.34
696.984	24.03
697.306	23.71
697.627	23.73
697.948	23.5
698.269	24.2
698.59	23.92
698.911	24.49
699.232	24.61
699.553	24.32
699.873	24.37
700.194	24.26
700.515	24.03
700.835	23.98
701.156	24.71
701.477	24.23
701.797	24.59
702.117	24.63
702.438	25.24
702.758	24.17
703.078	24.81
703.398	24.68
703.719	24.47
704.039	26.11
704.359	25.05
704.679	25.11
704.999	24.31
705.319	24.89
705.638	26.02
705.958	24.99
706.278	25.23
706.597	24.6
706.917	24.44
707.237	25.87
707.556	24.89
707.876	25.15
708.195	25.38
708.514	24.47
708.834	25.49
709.153	25.88
709.472	26.12
709.791	26.49
710.11	25.19
710.429	25.61
710.748	25.95
711.067	26.04
711.386	25.92
711.705	24.65
712.023	24.65
712.342	24.14
712.661	25.97
712.979	26.18
713.298	25.59
713.616	26.11
713.935	24.67
714.253	26.04
714.572	24.91
714.89	25.85
715.208	26.59
715.526	26.07
715.844	26.11
716.162	25.61
716.48	26.69
716.798	26.67
717.116	26.76
717.434	27.06
717.752	25.97
718.069	25.75
718.387	26.66
718.705	25.82
719.022	26.42
719.34	26.42
719.657	26.63
719.975	26.46
720.292	26.45
720.609	26.12
720.927	27.67
721.244	27.28
721.561	27.67
721.878	27.13
722.195	26.73
722.512	28.33
722.829	27.66
723.146	26.76
723.463	27.37
723.779	26.74
724.096	26.62
724.413	26.67
724.729	27.05
725.046	27.71
725.362	25.18
725.679	28.25
725.995	27.19
726.311	27.33
726.628	28.01
726.944	28.04
727.26	27.39
727.576	28.88
727.892	27.93
728.208	28.02
728.524	28.13
728.84	27.2
729.156	27.12
729.472	29.89
729.787	28.87
730.103	28.24
730.419	27.74
730.734	27.54
731.05	29.05
731.365	27.86
731.681	27.25
731.996	26.75
732.311	28.84
732.626	28.86
732.942	28.17
733.257	28.67
733.572	29.55
733.887	29.21
734.202	28.19
734.517	27.39
734.832	28.06
735.146	29.16
735.461	27.34
735.776	28.5
736.091	28.86
736.405	29.04
736.72	28.66
737.034	28.18
737.349	28.13
737.663	27.96
737.977	28.83
738.292	27.46
738.606	27.18
738.92	30.14
739.234	27.87
739.548	28.51
739.862	29.35
740.176	29.37
740.49	29.27
740.804	28.94
741.117	29.43
741.431	29.54
741.745	28.02
742.058	29.52
742.372	29.28
742.685	29.34
742.999	29.59
743.312	29.73
743.626	30.93
743.939	30.04
744.252	29.66
744.565	30.5
744.878	29.56
745.191	29.66
745.505	30.2
745.817	29.99
746.13	31.17
746.443	30.83
746.756	30.62
747.069	28.52
747.381	29.36
747.694	28.65
748.007	31.77
748.319	31.84
748.632	28.48
748.944	30.09
749.256	31.26
749.569	30
749.881	28.9
750.193	30.51
750.505	30.99
750.817	30.61
751.129	30.99
751.441	29.33
751.753	32.39
752.065	30.17
752.377	29.42
752.689	31.61
753	30.49
753.312	30.33
753.624	31.8
753.935	29.55
754.247	32.41
754.558	33.06
754.869	32.43
755.181	32.31
755.492	32.43
755.803	31.36
756.114	31.55
756.425	31.59
756.736	30.85
757.047	31.45
757.358	31.4
757.669	33
757.98	32.76
758.291	32.23
758.601	32.22
758.912	30.1
759.223	33.58
759.533	32.3
759.844	30.78
760.154	31.74
760.464	31.02
760.775	32.98
761.085	30.95
761.395	33.85
761.705	31.42
762.016	31.81
762.326	30.09
762.636	32.54
762.945	30.84
763.255	31.16
763.565	31.81
763.875	32.68
764.185	31.1
764.494	31.08
764.804	33.05
765.113	32.3
765.423	33.79
765.732	31.72
766.042	31.67
766.351	32.52
766.66	32.27
766.97	32.58
767.279	32.7
767.588	33.2
767.897	33.46
768.206	32.73
768.515	33.18
768.824	32.92
769.133	34.95
769.441	33.44
769.75	32.77
770.059	29.28
770.367	32.01
770.676	33.29
770.984	34.08
771.293	33.82
771.601	31.86
771.91	34.78
772.218	30.89
772.526	34.62
772.834	35.74
773.142	33.32
773.45	30.95
773.758	34.17
774.066	31.34
774.374	30.75
774.682	34.97
774.99	29.25
775.298	33.4
775.605	32.41
775.913	31.18
776.22	33.82
776.528	32.83
776.835	35.53
777.143	33.59
777.45	31.79
777.757	32.74
778.065	32.91
778.372	30.41
778.679	35.31
778.986	34.06
779.293	32.73
779.6	33.01
779.907	29.31
780.214	34.12
780.52	36.11
780.827	32.1
781.134	32.71
781.44	32.75
781.747	35.7
782.053	38.53
782.36	33.26
782.666	35.41
782.973	34.01
783.279	36.01
783.585	38.32
783.891	33.79
784.197	32.56
784.503	33.96
784.809	35.62
785.115	32.6
785.421	34.47
785.727	36.15
786.033	36.79
786.339	38.57
786.644	35.21
786.95	37.21
787.255	34.25
787.561	36.51
787.866	35.48
788.172	33.87
788.477	34.52
788.782	27.74
789.088	34.82
789.393	37.25
789.698	33.39
790.003	31.08
790.308	34.85
790.613	36.2
790.918	35.8
791.223	38
791.527	36.28
791.832	34.85
792.137	37.34
792.441	34.3
792.746	38.78
793.05	34.88
793.355	36.89
793.659	33.19
793.963	35.19
794.268	28.99
794.572	39.75
794.876	34.78
795.18	31.33
795.484	35.19
795.788	36.25
796.092	34.95
796.396	38.84
796.7	30.75
797.004	35.16
797.307	35.91
797.611	35.78
797.915	34.93
798.218	32.68
798.522	35.4
798.825	36.63
799.128	37.75
799.432	40.59
799.735	31.87
800.038	31.27
800.341	35.81
800.644	36.13
800.947	34.62
801.25	33.84
801.553	38.02
801.856	38.13
802.159	31.15
802.462	36.49
802.764	34.71
803.067	38.01
803.37	38
803.672	37.34
803.975	35.32
804.277	38.51
804.579	37.87
804.882	33.86
805.184	37.59
805.486	35.34
805.788	35.08
806.09	34.72
806.392	38.07
806.694	33.46
806.996	38.58
807.298	36.03
807.6	39.63
807.902	38.5
808.203	32.66
808.505	33.23
808.807	35.07
809.108	34.24
809.409	36.79
809.711	35.96
810.012	34.77
810.313	44.26
810.615	35.64
810.916	35.81
811.217	34.99
811.518	35.96
811.819	34.3
812.12	35.18
812.421	30.08
812.722	36.16
813.023	37.56
813.323	39.35
813.624	34.56
813.925	34.21
814.225	40.6
814.526	34.29
814.826	37.82
815.126	32.62
815.427	39.62
815.727	36.86
816.027	37.6
816.327	32.84
816.627	38.41
816.927	35.39
817.227	33.97
817.527	37.33
817.827	34.87
818.127	38.46
818.427	30.58
818.727	41.02
819.026	36.51
819.326	40.31
819.625	36.95
819.925	40.85
820.224	39.34
820.524	43.18
820.823	32.3
821.122	46.22
821.421	35.45
821.72	40.48
822.019	37.09
822.318	41.18
822.617	35.52
822.916	40.42
823.215	38.01
823.514	37.26
823.813	38.47
824.111	39.48
824.41	37.93
824.709	38.47
825.007	38.77
825.306	38.4
825.604	39.98
825.902	39.49
826.201	37.89
826.499	38.29
826.797	38.36
827.095	38.32
827.393	36.7
827.691	39.04
827.989	39.43
828.287	39.25
828.585	37.85
828.882	38.76
829.18	37.67
829.478	38.61
829.775	40.65
830.073	37.8
830.37	39.09
830.668	36.69
830.965	40.76
831.263	38.8
831.56	38.8
831.857	38.63
832.154	40.13
832.451	37.67
832.748	39.46
833.045	49.06
833.342	38
833.639	44.25
833.936	37.54
834.232	40.75
834.529	41.85
834.826	41.51
835.122	39.14
835.419	38
835.715	37.77
836.012	42.13
836.308	40.15
836.604	39.71
836.901	43.39
837.197	40.64
837.493	41.29
837.789	39.46
838.085	34.48
838.381	44.8
838.677	33.37
838.972	38.42
839.268	43.56
839.564	41.8
839.86	34.84
840.155	41.48
840.451	43.02
840.746	43.94
841.042	30.47
841.337	31.16
841.632	42.25
841.928	41.76
842.223	32.2
842.518	37.73
842.813	35.6
843.108	34.19
843.403	38.51
843.698	45.32
843.993	37.6
844.287	41.2
844.582	44.46
844.877	37.49
845.171	50.98
845.466	33.71
845.761	44.34
846.055	38.9
846.349	19.08
846.644	49.14
846.938	40.33
847.232	37.04
847.526	43.68
847.82	27.06
848.114	43.63
848.408	38.02
848.702	41.06
848.996	45.28
849.29	47.72
849.584	23.71
849.877	40.99
850.171	45.89
850.465	27.9
850.758	45.85
851.052	41
851.345	49.53
851.638	49.51
851.932	27.91
852.225	36.42
852.518	58.11
852.811	46.5
853.104	64.39
853.397	32.03
853.69	35.43
853.983	40.5
854.276	26
854.569	37.72
854.861	26.11
855.154	54.53
855.447	33.25
855.739	54.11
856.032	33.33
856.324	31.08
856.616	36.25
856.909	29.88
857.201	12.61
857.493	23.74
857.785	41.27
858.077	28.31
858.369	32.64
858.661	48.93
858.953	21.19
859.245	46.41
859.537	52.98
859.829	60.42
860.12	33.51
860.412	45.39
860.703	36.48
860.995	16
861.286	57.76
861.578	7.45
861.869	36.28
862.16	20.94
862.452	54.82
862.743	56.62
863.034	15.33
863.325	23.68
863.616	52.94
863.907	67.16
864.198	51.89
864.488	48.84
864.779	63.62
865.07	30.64
865.36	57.46
865.651	60.68
865.941	64.11
866.232	25.48
866.522	51.22
866.813	52.94
867.103	44.58
867.393	40.98
867.683	31.15
867.973	9.58
868.263	19.01
868.553	22.92
868.843	10.16
869.133	14.94
869.423	36.82
869.713	54.07
870.002	5.87
870.292	48.65
870.582	55.78
870.871	42.93
871.161	35.71
871.45	26.78
871.739	-0.5
872.029	48.81
872.318	32.33
872.607	45.13
872.896	28.51
873.185	48.88
873.474	38.32
873.763	67.59
874.052	-4.96
874.341	2.49
874.63	14.24
874.918	45.6
875.207	34.04
875.496	30.2
875.784	22.73
876.073	16.58
876.361	23.76
876.649	48.43
876.938	33.46
877.226	74.65
877.514	47.41
877.802	31.68
878.09	31.12
878.378	69.94
878.666	27.96
878.954	59.08
879.242	40.72
879.53	26.92
879.817	41.41
880.105	35.28
880.392	38.64
880.68	32.31
880.967	36.91
881.255	49.69
881.542	52.04
881.83	34.36
882.117	53.42
882.404	56.74
882.691	50.79
882.978	53.46
883.265	63.19
883.552	48.8
883.839	48.98
884.126	23.66
884.413	35.23
884.699	50.72
884.986	41.19
885.273	46.52
885.559	46.52
885.846	46.52
