Data from 0048_forehead_Reflection__0__191.txt Node

Date: Fri Nov 04 16:24:40 CDT 2022
User: ToomeyLab
Spectrometer: FLMS14357
Trigger mode: 0
Integration Time (sec): 1.000000E-2
Scans to average: 100
Electric dark correction enabled: true
Nonlinearity correction enabled: false
Boxcar width: 0
XAxis mode: Wavelengths
Number of Pixels in Spectrum: 2048
>>>>>Begin Spectral Data<<<<<
189.047	-54.36
189.435	-54.36
189.823	-54.36
190.211	-351.07
190.599	-155.06
190.987	74.82
191.375	-23.43
191.763	-73.09
192.151	-8.8
192.538	-3.8
192.926	18.76
193.314	1006.5
193.702	50.75
194.089	33.56
194.477	-368.64
194.864	15.07
195.252	116.7
195.639	270.69
196.027	-42.62
196.414	-53.1
196.801	388.24
197.189	600
197.576	211.4
197.963	145.3
198.351	-11.68
198.738	51.23
199.125	1.81
199.512	-44.6
199.899	21.66
200.286	-46.04
200.673	-9.53
201.06	-24.21
201.447	62.97
201.833	33.7
202.22	34.6
202.607	24.62
202.994	27.95
203.38	51.95
203.767	5.14
204.154	21.84
204.54	-32.18
204.927	-9.33
205.313	35.99
205.699	75.29
206.086	2.36
206.472	-6.62
206.858	-20.68
207.245	2.82
207.631	11.22
208.017	10.23
208.403	-2.35
208.789	33.24
209.175	32.09
209.561	0.09
209.947	-67.44
210.333	41.36
210.719	13.12
211.105	-2.52
211.491	24.23
211.876	-9.93
212.262	-42.07
212.648	-19.24
213.034	12.81
213.419	19.42
213.805	-16.46
214.19	-1.64
214.576	21.52
214.961	14.9
215.346	2.36
215.732	9.72
216.117	26.3
216.502	4.43
216.888	-27.19
217.273	-0.54
217.658	-22.58
218.043	-13.09
218.428	6.82
218.813	0.75
219.198	3.22
219.583	-16.53
219.968	5.53
220.353	-7.89
220.738	-18.84
221.122	-2.81
221.507	21.11
221.892	1.55
222.276	-8.33
222.661	6.53
223.046	-1.02
223.43	7.43
223.815	-9.12
224.199	11.78
224.583	-1.16
224.968	2.37
225.352	2.71
225.736	-1.57
226.121	-14.23
226.505	11.47
226.889	3.32
227.273	4.15
227.657	-1.3
228.041	6.72
228.425	2.24
228.809	2.27
229.193	0.37
229.577	-0.3
229.961	2.97
230.344	2.03
230.728	1.75
231.112	0.94
231.495	1.04
231.879	2
232.263	0.9
232.646	0.75
233.03	1.19
233.413	0.52
233.797	0.32
234.18	1.02
234.563	0.61
234.946	-0.09
235.33	2.66
235.713	1.23
236.096	1.67
236.479	-0.23
236.862	0.37
237.245	0.7
237.628	1.07
238.011	-0.65
238.394	2.2
238.777	0.02
239.16	1.44
239.543	0.44
239.925	0.33
240.308	2.08
240.691	0.36
241.073	1.36
241.456	0.83
241.838	0.65
242.221	1.71
242.603	1.28
242.986	0.83
243.368	2.28
243.75	2.14
244.133	1.61
244.515	1.53
244.897	1.6
245.279	1.65
245.661	1.4
246.043	0.86
246.425	0.63
246.807	2.23
247.189	1.96
247.571	2.32
247.953	1.31
248.335	1.34
248.717	1.41
249.098	1.28
249.48	1.31
249.862	1.6
250.243	1.13
250.625	1.29
251.006	1.23
251.388	1.4
251.769	2.13
252.151	2.07
252.532	1.33
252.913	2.17
253.295	2
253.676	1.34
254.057	1.26
254.438	1.41
254.819	1.96
255.2	1.17
255.581	2.07
255.962	1.66
256.343	1.74
256.724	1.84
257.105	0.68
257.486	1.68
257.867	2.56
258.247	1.62
258.628	0.94
259.009	1.51
259.389	1.67
259.77	2.05
260.15	1.9
260.531	1.51
260.911	1.36
261.292	1.24
261.672	1.52
262.052	1.46
262.432	1.46
262.813	1.21
263.193	0.87
263.573	1.39
263.953	1.47
264.333	1.76
264.713	2.08
265.093	1.55
265.473	1.92
265.853	1.01
266.233	1.67
266.612	1.97
266.992	2.31
267.372	0.86
267.752	2.04
268.131	1.55
268.511	1.73
268.89	2.12
269.27	1.73
269.649	1.7
270.029	0.91
270.408	1.54
270.787	1.55
271.167	1.76
271.546	2.51
271.925	1.42
272.304	0.76
272.683	1.52
273.062	1.73
273.441	1.68
273.82	1.53
274.199	1.89
274.578	1.23
274.957	1.54
275.336	0.81
275.715	1.23
276.093	1.86
276.472	1.35
276.851	1.38
277.229	1.55
277.608	1.33
277.986	1.77
278.365	1.75
278.743	1.28
279.122	1.27
279.5	1.6
279.878	1.41
280.257	1.21
280.635	1.23
281.013	1.24
281.391	1.48
281.769	1.74
282.147	1.3
282.525	1.6
282.903	1.26
283.281	1.62
283.659	1.59
284.037	1.56
284.415	1.32
284.792	1.22
285.17	1.35
285.548	1.75
285.925	1.76
286.303	1.79
286.68	2.03
287.058	1.44
287.435	1.64
287.813	1.27
288.19	1.36
288.567	1.54
288.945	1.79
289.322	1.97
289.699	1.7
290.076	1.97
290.453	1.43
290.83	1.44
291.207	1.98
291.584	1.93
291.961	1.95
292.338	1.94
292.715	1.72
293.092	1.81
293.469	1.74
293.845	1.46
294.222	1.84
294.599	1.4
294.975	1.65
295.352	2.15
295.728	2.08
296.105	1.65
296.481	1.79
296.858	2.25
297.234	2.55
297.61	2.26
297.986	1.52
298.363	1.92
298.739	1.83
299.115	1.88
299.491	1.87
299.867	1.97
300.243	2.16
300.619	1.94
300.995	2.17
301.371	2.64
301.746	2.57
302.122	2.32
302.498	2.2
302.874	2.26
303.249	1.92
303.625	2.16
304	2.68
304.376	2.07
304.751	1.97
305.127	2.06
305.502	2.59
305.878	2.65
306.253	2.41
306.628	1.98
307.003	2.4
307.378	2.84
307.754	1.98
308.129	2.18
308.504	2.2
308.879	2.33
309.254	2.81
309.629	2.72
310.003	2.63
310.378	2.38
310.753	2.66
311.128	2.04
311.502	2.43
311.877	2.73
312.252	2.61
312.626	2.83
313.001	2.93
313.375	2.62
313.75	2.54
314.124	2.37
314.498	2.81
314.873	2.8
315.247	2.74
315.621	2.64
315.995	3.07
316.369	2.74
316.743	3.36
317.117	2.64
317.491	3.03
317.865	2.45
318.239	2.87
318.613	3.39
318.987	2.74
319.361	2.86
319.734	3.27
320.108	3.26
320.482	2.49
320.855	3.28
321.229	3.59
321.602	2.81
321.976	3.22
322.349	3.56
322.723	3.2
323.096	3.56
323.469	2.8
323.843	3
324.216	3.25
324.589	3.36
324.962	3.76
325.335	3.53
325.708	2.98
326.081	3.64
326.454	3.34
326.827	3.41
327.2	3.11
327.573	3.15
327.945	3.64
328.318	3.34
328.691	3.34
329.063	3.41
329.436	3.43
329.809	3.48
330.181	3.66
330.553	3.48
330.926	3.65
331.298	3.97
331.671	3.58
332.043	3.49
332.415	3.47
332.787	3.26
333.159	3.54
333.532	3.23
333.904	3.99
334.276	3.51
334.648	4.36
335.02	3.42
335.391	3.74
335.763	3.86
336.135	4.12
336.507	3.76
336.879	3.7
337.25	4.13
337.622	4.2
337.993	3.89
338.365	3.82
338.736	3.79
339.108	4.31
339.479	4.27
339.851	3.83
340.222	3.96
340.593	3.96
340.964	4.29
341.336	3.88
341.707	3.37
342.078	4.27
342.449	4.11
342.82	3.93
343.191	3.92
343.562	4.28
343.933	4.31
344.303	4.51
344.674	4.79
345.045	4
345.416	3.71
345.786	4.26
346.157	4.36
346.527	4.65
346.898	4.34
347.268	3.81
347.639	4.19
348.009	4.74
348.38	4.29
348.75	4.36
349.12	4.32
349.49	4.45
349.861	4.14
350.231	4.48
350.601	4.37
350.971	4.49
351.341	4.81
351.711	4.54
352.081	4.83
352.45	4.74
352.82	4.81
353.19	4.81
353.56	4.61
353.929	4.49
354.299	5.01
354.669	5.01
355.038	5.15
355.408	4.61
355.777	4.91
356.147	4.61
356.516	4.86
356.885	5.07
357.254	4.94
357.624	5.17
357.993	4.75
358.362	4.68
358.731	5.08
359.1	5.02
359.469	4.81
359.838	5.01
360.207	4.82
360.576	4.98
360.945	5.12
361.314	5.48
361.682	5.13
362.051	5.19
362.42	5.05
362.788	5.05
363.157	5.19
363.525	5.13
363.894	5.03
364.262	5.33
364.631	5.4
364.999	5.17
365.367	5.35
365.735	5.32
366.104	5.19
366.472	5.26
366.84	5
367.208	5.48
367.576	5.16
367.944	5.41
368.312	5.47
368.68	5.29
369.048	5.41
369.416	5.27
369.783	5.3
370.151	5.04
370.519	5.81
370.886	5.59
371.254	5.7
371.621	5.37
371.989	5.58
372.356	5.87
372.724	5.81
373.091	5.7
373.458	5.57
373.826	5.82
374.193	5.81
374.56	5.45
374.927	6.06
375.294	5.87
375.661	6.07
376.028	5.79
376.395	6.2
376.762	6.07
377.129	6.02
377.496	6.24
377.863	6.02
378.229	6.16
378.596	6.02
378.963	6.1
379.329	5.85
379.696	6.04
380.062	6.13
380.429	6.21
380.795	6.17
381.161	6.22
381.528	6.4
381.894	6.04
382.26	6.29
382.626	6.18
382.993	6.27
383.359	6.44
383.725	6.4
384.091	6.22
384.457	6.32
384.823	6.64
385.188	6.34
385.554	6.48
385.92	6.3
386.286	6.29
386.651	6.33
387.017	6.42
387.383	6.67
387.748	6.61
388.114	6.17
388.479	6.82
388.845	6.76
389.21	6.7
389.575	6.9
389.94	6.58
390.306	6.79
390.671	6.54
391.036	6.58
391.401	6.71
391.766	6.55
392.131	6.65
392.496	6.87
392.861	6.74
393.226	6.78
393.591	6.94
393.956	6.9
394.32	6.82
394.685	7.13
395.05	7.11
395.414	6.76
395.779	6.96
396.143	6.77
396.508	7.04
396.872	7.02
397.236	7.16
397.601	7
397.965	7.07
398.329	7.29
398.694	7.27
399.058	7.22
399.422	7.32
399.786	7.18
400.15	7.11
400.514	7.17
400.878	7.13
401.242	7.37
401.605	7.21
401.969	7.36
402.333	7.61
402.697	7.44
403.06	7.47
403.424	7.35
403.787	7.51
404.151	7.7
404.514	7.55
404.878	7.57
405.241	7.77
405.604	7.55
405.968	7.37
406.331	7.52
406.694	7.43
407.057	7.66
407.42	7.43
407.783	7.51
408.146	7.57
408.509	7.65
408.872	7.8
409.235	7.9
409.598	7.9
409.961	7.92
410.323	7.83
410.686	7.8
411.049	7.9
411.411	7.96
411.774	7.95
412.136	8.1
412.499	7.86
412.861	8.13
413.223	8.07
413.586	8.01
413.948	8.22
414.31	8.04
414.672	8.06
415.035	8.28
415.397	8.09
415.759	8.34
416.121	8.02
416.483	8.28
416.845	8.39
417.206	8.03
417.568	8.14
417.93	8.17
418.292	8.25
418.653	8.21
419.015	8.29
419.377	8.24
419.738	8.01
420.1	8.24
420.461	8.32
420.822	8.11
421.184	8.3
421.545	8.08
421.906	8.27
422.267	8.14
422.629	8.28
422.99	8.15
423.351	8.13
423.712	8.24
424.073	8.39
424.434	8.38
424.795	8.33
425.155	8.61
425.516	8.43
425.877	8.35
426.238	8.39
426.598	8.41
426.959	8.42
427.32	8.51
427.68	8.64
428.041	8.62
428.401	8.73
428.761	8.69
429.122	8.76
429.482	9
429.842	8.75
430.202	9.04
430.563	8.87
430.923	8.9
431.283	8.83
431.643	9.13
432.003	9.17
432.363	9.08
432.722	9.02
433.082	9.18
433.442	9.1
433.802	9.12
434.161	9.12
434.521	9.21
434.881	9.13
435.24	9.16
435.6	9.22
435.959	9.15
436.319	9.29
436.678	9.37
437.037	9.41
437.396	9.52
437.756	9.48
438.115	9.37
438.474	9.43
438.833	9.49
439.192	9.38
439.551	9.49
439.91	9.42
440.269	9.54
440.628	9.61
440.987	9.48
441.345	9.45
441.704	9.54
442.063	9.39
442.421	9.47
442.78	9.45
443.138	9.44
443.497	9.47
443.855	9.6
444.214	9.8
444.572	9.72
444.93	9.76
445.288	9.83
445.647	9.9
446.005	9.78
446.363	9.82
446.721	9.83
447.079	9.81
447.437	9.8
447.795	9.67
448.153	9.65
448.51	9.75
448.868	9.73
449.226	9.66
449.584	9.89
449.941	9.87
450.299	10.05
450.656	10.03
451.014	10.14
451.371	10.28
451.729	10.31
452.086	10.22
452.443	10.25
452.801	10.26
453.158	10.35
453.515	10.46
453.872	10.2
454.229	10.35
454.586	10.51
454.943	10.57
455.3	10.31
455.657	10.34
456.014	10.45
456.371	10.49
456.727	10.73
457.084	10.54
457.441	10.45
457.797	10.56
458.154	10.63
458.51	10.56
458.867	10.62
459.223	10.74
459.58	10.85
459.936	10.67
460.292	10.71
460.648	10.68
461.005	10.65
461.361	10.61
461.717	10.6
462.073	10.64
462.429	10.71
462.785	10.83
463.141	10.99
463.496	10.84
463.852	10.99
464.208	11.05
464.564	11.02
464.919	11.24
465.275	11.36
465.631	11.26
465.986	11.19
466.342	11.18
466.697	11.16
467.052	11.25
467.408	11.31
467.763	11.21
468.118	11.46
468.473	11.4
468.829	11.18
469.184	11.38
469.539	11.53
469.894	11.61
470.249	11.46
470.603	11.45
470.958	11.49
471.313	11.45
471.668	11.59
472.023	11.52
472.377	11.57
472.732	11.61
473.086	11.77
473.441	11.78
473.795	11.69
474.15	11.78
474.504	11.66
474.859	11.68
475.213	11.77
475.567	11.89
475.921	11.83
476.275	11.89
476.63	11.93
476.984	11.91
477.338	11.9
477.692	11.92
478.045	12.06
478.399	11.91
478.753	11.89
479.107	12.13
479.461	12.14
479.814	12.16
480.168	12.02
480.521	11.98
480.875	11.99
481.228	12.21
481.582	12.27
481.935	12.3
482.289	12.15
482.642	12.21
482.995	12.25
483.348	12.2
483.701	12.19
484.055	12
484.408	12.09
484.761	12.02
485.114	11.71
485.466	11.67
485.819	11.52
486.172	11.55
486.525	11.71
486.878	11.88
487.23	12.09
487.583	12.19
487.936	12.29
488.288	12.23
488.641	12.17
488.993	12.01
489.345	11.98
489.698	11.99
490.05	12.06
490.402	12.08
490.754	12.27
491.107	12.43
491.459	12.64
491.811	12.6
492.163	12.6
492.515	12.77
492.866	12.49
493.218	12.41
493.57	12.3
493.922	12.33
494.274	12.49
494.625	12.66
494.977	12.87
495.328	13.05
495.68	13.04
496.031	13.16
496.383	13.35
496.734	13.13
497.086	13.54
497.437	13.29
497.788	13.32
498.139	13.19
498.49	13.09
498.842	13.24
499.193	13.22
499.544	13.41
499.894	13.36
500.245	13.38
500.596	13.37
500.947	13.42
501.298	13.55
501.648	13.64
501.999	13.72
502.35	13.64
502.7	13.59
503.051	13.82
503.401	13.67
503.752	13.93
504.102	13.8
504.452	13.86
504.803	13.92
505.153	13.88
505.503	13.85
505.853	14.12
506.203	13.88
506.553	14.11
506.903	13.97
507.253	14.08
507.603	14.04
507.953	14.12
508.303	14.09
508.652	14.13
509.002	14.33
509.352	14.16
509.701	14.2
510.051	14.17
510.4	14.02
510.75	14.24
511.099	14.11
511.449	14.11
511.798	14.28
512.147	14.38
512.496	14.3
512.846	14.25
513.195	14.41
513.544	14.38
513.893	14.47
514.242	14.45
514.591	14.45
514.939	14.56
515.288	14.6
515.637	14.65
515.986	14.71
516.334	14.77
516.683	14.86
517.032	14.92
517.38	14.98
517.729	14.99
518.077	15.07
518.426	14.79
518.774	14.95
519.122	14.89
519.47	14.81
519.819	14.77
520.167	14.66
520.515	14.68
520.863	14.68
521.211	14.67
521.559	14.81
521.907	14.93
522.255	15.05
522.602	15.11
522.95	15.17
523.298	15.3
523.645	15.43
523.993	15.32
524.341	15.37
524.688	15.47
525.036	15.48
525.383	15.41
525.73	15.46
526.078	15.55
526.425	15.51
526.772	15.26
527.119	15.22
527.466	15.27
527.814	15.13
528.161	15.11
528.508	15.27
528.854	15.31
529.201	15.32
529.548	15.24
529.895	15.07
530.242	14.91
530.588	14.86
530.935	14.86
531.282	15.08
531.628	15.17
531.975	15.32
532.321	15.56
532.667	15.61
533.014	15.69
533.36	15.8
533.706	15.81
534.052	15.77
534.399	15.7
534.745	15.61
535.091	15.45
535.437	15.5
535.783	15.6
536.129	15.79
536.474	15.99
536.82	15.97
537.166	16.2
537.512	16.28
537.857	16.22
538.203	15.99
538.549	15.97
538.894	16.17
539.239	16.23
539.585	16.3
539.93	16.52
540.276	16.6
540.621	16.65
540.966	16.71
541.311	16.54
541.656	16.7
542.001	16.6
542.346	16.55
542.691	16.36
543.036	16.01
543.381	16.07
543.726	16.1
544.071	16.21
544.415	16.41
544.76	16.54
545.105	16.58
545.449	16.63
545.794	16.75
546.138	16.93
546.483	16.98
546.827	17.07
547.171	17.15
547.516	17.11
547.86	17.16
548.204	17.12
548.548	17.05
548.892	17.11
549.236	17.06
549.58	17.03
549.924	17.43
550.268	17.57
550.612	17.56
550.956	17.56
551.3	17.58
551.643	17.73
551.987	17.67
552.33	17.78
552.674	17.75
553.017	18.03
553.361	17.84
553.704	17.83
554.048	17.99
554.391	17.74
554.734	17.79
555.077	17.93
555.42	17.97
555.764	18.16
556.107	18.18
556.45	18.03
556.793	18.43
557.135	18.46
557.478	18.32
557.821	18.52
558.164	18.48
558.507	18.4
558.849	18.4
559.192	18.58
559.534	18.33
559.877	18.64
560.219	18.53
560.562	18.55
560.904	18.74
561.246	18.65
561.589	18.65
561.931	18.6
562.273	18.9
562.615	18.46
562.957	18.82
563.299	18.66
563.641	18.94
563.983	18.88
564.325	18.69
564.667	18.88
565.008	18.87
565.35	18.74
565.692	19.18
566.033	19.05
566.375	19.08
566.716	19.06
567.058	19.08
567.399	19.03
567.741	19.11
568.082	19.28
568.423	18.88
568.764	19.01
569.105	19.11
569.447	19.01
569.788	19.25
570.129	19.49
570.47	19.53
570.811	19.41
571.151	19.43
571.492	19.47
571.833	19.38
572.174	19.81
572.514	19.34
572.855	19.33
573.195	19.55
573.536	19.42
573.876	19.5
574.217	19.63
574.557	19.5
574.898	19.77
575.238	19.66
575.578	19.79
575.918	19.75
576.258	19.99
576.598	19.79
576.938	19.98
577.278	19.82
577.618	19.9
577.958	20.01
578.298	20.09
578.638	20.09
578.977	20.27
579.317	20.34
579.657	20.24
579.996	20.34
580.336	20.31
580.675	20.17
581.014	20.33
581.354	20.51
581.693	20.51
582.032	20.47
582.372	20.7
582.711	20.51
583.05	20.9
583.389	20.66
583.728	20.61
584.067	20.7
584.406	20.7
584.745	20.97
585.083	20.99
585.422	21
585.761	20.79
586.1	20.75
586.438	20.75
586.777	21.07
587.115	21.09
587.454	21.04
587.792	20.91
588.13	20.78
588.469	21.41
588.807	21.17
589.145	21.23
589.483	21.22
589.821	21.14
590.159	20.99
590.497	21.37
590.835	21.05
591.173	21.08
591.511	21.11
591.849	21.22
592.187	21.14
592.524	21.31
592.862	21.31
593.2	21.62
593.537	21.33
593.875	21.53
594.212	21.38
594.55	21.64
594.887	21.66
595.224	21.87
595.561	21.41
595.899	21.69
596.236	21.85
596.573	21.53
596.91	21.53
597.247	21.63
597.584	21.56
597.921	21.75
598.258	21.61
598.594	21.34
598.931	21.65
599.268	21.83
599.604	21.75
599.941	21.72
600.277	21.81
600.614	21.84
600.95	22.19
601.287	21.91
601.623	22.34
601.959	22.36
602.296	22.05
602.632	22.28
602.968	22.32
603.304	22.51
603.64	22.18
603.976	21.88
604.312	22.45
604.648	22.37
604.984	22.19
605.319	22.09
605.655	22.2
605.991	22.47
606.326	22.07
606.662	22.19
606.998	22.2
607.333	22.31
607.668	22.36
608.004	22.71
608.339	22.37
608.674	23.11
609.01	22.87
609.345	22.78
609.68	22.65
610.015	22.75
610.35	22.62
610.685	22.73
611.02	22.85
611.355	22.63
611.689	22.93
612.024	22.7
612.359	22.57
612.694	23
613.028	23.36
613.363	23.19
613.697	23.11
614.032	23.16
614.366	23.07
614.7	23.5
615.035	23.43
615.369	23.57
615.703	23.97
616.037	23.41
616.371	23.33
616.705	23.32
617.039	23.68
617.373	23.69
617.707	23.67
618.041	23.74
618.375	23.65
618.709	23.74
619.042	23.91
619.376	24.01
619.71	23.81
620.043	23.96
620.377	24.1
620.71	23.66
621.043	23.82
621.377	23.8
621.71	23.79
622.043	23.91
622.376	24.18
622.709	24
623.043	23.93
623.376	24.44
623.709	24.12
624.041	24.05
624.374	24.04
624.707	24.11
625.04	23.76
625.373	24.18
625.705	23.89
626.038	24.02
626.37	24.26
626.703	24.33
627.035	24.1
627.368	24.38
627.7	24.04
628.032	24.07
628.365	24.3
628.697	24.22
629.029	24.06
629.361	24.1
629.693	24.67
630.025	24.69
630.357	24.29
630.689	24.74
631.021	24.55
631.353	24.85
631.684	24.65
632.016	24.79
632.348	24.46
632.679	24.64
633.011	24.75
633.342	25.28
633.674	24.57
634.005	24.57
634.336	25.01
634.668	24.99
634.999	25.19
635.33	24.71
635.661	25.05
635.992	24.89
636.323	24.89
636.654	24.72
636.985	25.22
637.316	25.09
637.647	24.95
637.977	25.21
638.308	25.36
638.639	25.22
638.969	25.13
639.3	25.51
639.63	25.3
639.961	25.61
640.291	25.51
640.622	25.49
640.952	25.33
641.282	25.36
641.612	25.36
641.943	25.98
642.273	25.35
642.603	25.81
642.933	25.32
643.263	25.38
643.592	25.47
643.922	26.15
644.252	25.92
644.582	25.72
644.911	25.64
645.241	25.53
645.571	26.03
645.9	26
646.23	26.08
646.559	26.25
646.888	26.17
647.218	26.36
647.547	26.06
647.876	25.62
648.205	25.86
648.534	26.63
648.863	26.76
649.192	26.12
649.521	25.89
649.85	26.44
650.179	26.4
650.508	26.03
650.837	25.93
651.165	26.49
651.494	25.88
651.822	25.97
652.151	26.38
652.479	26.16
652.808	25.6
653.136	25.82
653.465	26.26
653.793	26.38
654.121	26.18
654.449	25.91
654.777	26.14
655.105	26.09
655.433	26.49
655.761	26.54
656.089	25.93
656.417	26.76
656.745	26.73
657.073	26.59
657.4	26.47
657.728	26.88
658.056	26.11
658.383	26.81
658.711	26.35
659.038	26.43
659.365	26.94
659.693	26.65
660.02	27.01
660.347	26.64
660.674	26.9
661.001	26.44
661.329	26.6
661.656	26.55
661.982	26.34
662.309	26.43
662.636	26.77
662.963	26.74
663.29	27.01
663.616	27.17
663.943	26.99
664.27	26.91
664.596	27.35
664.923	27.14
665.249	26.88
665.576	26.94
665.902	27.21
666.228	26.99
666.554	27.35
666.881	27.55
667.207	27.44
667.533	27.07
667.859	27.55
668.185	27.4
668.511	27.8
668.837	26.93
669.162	27.66
669.488	26.78
669.814	27.23
670.139	26.75
670.465	27.65
670.791	27.3
671.116	27.42
671.442	27.51
671.767	27.6
672.092	27.43
672.418	27.59
672.743	27.85
673.068	27.78
673.393	27.95
673.718	28.22
674.043	27.79
674.368	27.6
674.693	27.46
675.018	27.89
675.343	27.96
675.667	28.06
675.992	27.78
676.317	28.03
676.641	27.95
676.966	27.57
677.29	27.83
677.615	28.03
677.939	27.69
678.264	27.7
678.588	28.05
678.912	28.15
679.236	27.47
679.56	28.47
679.885	27.67
680.209	28.18
680.532	28.09
680.856	28.2
681.18	28.04
681.504	28.49
681.828	27.89
682.152	28.63
682.475	28.07
682.799	28.46
683.122	28.37
683.446	28.14
683.769	27.95
684.093	28.82
684.416	28.22
684.739	28.44
685.062	29.51
685.386	28.79
685.709	28.64
686.032	28.85
686.355	29.22
686.678	28.29
687.001	28.95
687.324	28.11
687.646	28.63
687.969	28.48
688.292	28.39
688.614	29.13
688.937	28.95
689.26	28.68
689.582	29.4
689.904	29.07
690.227	28.96
690.549	29.32
690.871	29.14
691.194	29.26
691.516	29.46
691.838	28.76
692.16	29.2
692.482	29.33
692.804	28.2
693.126	28.87
693.448	28.91
693.769	29.48
694.091	29.8
694.413	28.59
694.735	29.61
695.056	28.82
695.378	28.84
695.699	29.35
696.021	29.67
696.342	28.97
696.663	28.62
696.984	29.5
697.306	28.38
697.627	29.18
697.948	28.47
698.269	29.25
698.59	29.89
698.911	29.71
699.232	29
699.553	29.48
699.873	29.43
700.194	29.9
700.515	29.2
700.835	28.81
701.156	28.84
701.477	29.43
701.797	29.49
702.117	29.48
702.438	29.37
702.758	29.88
703.078	29.86
703.398	29.05
703.719	29.61
704.039	29.41
704.359	30.24
704.679	30.3
704.999	29.18
705.319	29.97
705.638	29.71
705.958	30.3
706.278	30.56
706.597	29.45
706.917	29.52
707.237	28.96
707.556	29.73
707.876	29.59
708.195	29.26
708.514	29.95
708.834	29.81
709.153	30.42
709.472	30.71
709.791	30.21
710.11	29.58
710.429	30.02
710.748	29.92
711.067	30.11
711.386	29.95
711.705	29.23
712.023	30.91
712.342	30.74
712.661	29.99
712.979	30.73
713.298	29.72
713.616	29.38
713.935	29.93
714.253	30.22
714.572	30.19
714.89	30.16
715.208	31.28
715.526	30.77
715.844	30.24
716.162	30.48
716.48	30.94
716.798	30.92
717.116	30.98
717.434	29.84
717.752	30.16
718.069	30.66
718.387	30.32
718.705	30.35
719.022	30.84
719.34	30.55
719.657	31.35
719.975	29.52
720.292	31.8
720.609	30.62
720.927	31.21
721.244	30.63
721.561	30.75
721.878	30.18
722.195	31.26
722.512	30.26
722.829	30.83
723.146	29.35
723.463	30.8
723.779	31.4
724.096	30.64
724.413	30.8
724.729	31.12
725.046	31.38
725.362	32.19
725.679	32.17
725.995	31.17
726.311	31.93
726.628	31.27
726.944	31.94
727.26	30.81
727.576	32.14
727.892	32.04
728.208	31.72
728.524	32.12
728.84	30.07
729.156	31.62
729.472	31.03
729.787	31.35
730.103	31.12
730.419	31.15
730.734	31.55
731.05	30.76
731.365	30.68
731.681	31.69
731.996	32.2
732.311	30.55
732.626	31.51
732.942	31.31
733.257	32.11
733.572	32.21
733.887	31.69
734.202	31.62
734.517	30.35
734.832	33.09
735.146	32.01
735.461	31.78
735.776	31.85
736.091	32.38
736.405	31.71
736.72	31.34
737.034	30.72
737.349	30.57
737.663	31.19
737.977	31.65
738.292	33.05
738.606	32.89
738.92	31.54
739.234	30.02
739.548	32.57
739.862	31.95
740.176	31.13
740.49	31.01
740.804	32.51
741.117	31.65
741.431	31.99
741.745	32.99
742.058	32.75
742.372	31.78
742.685	31.9
742.999	32.58
743.312	33.25
743.626	31.79
743.939	32.89
744.252	31.81
744.565	30.56
744.878	33.29
745.191	32.49
745.505	31.54
745.817	31.92
746.13	31.84
746.443	32.16
746.756	31.88
747.069	31.96
747.381	31.58
747.694	35.24
748.007	30.55
748.319	32.24
748.632	31.67
748.944	31.26
749.256	33.15
749.569	33.44
749.881	31.6
750.193	33.3
750.505	32.99
750.817	33.06
751.129	31.53
751.441	31.71
751.753	32.32
752.065	33
752.377	33.21
752.689	31.72
753	31.48
753.312	32.22
753.624	32.21
753.935	31.86
754.247	33.11
754.558	30.92
754.869	31.66
755.181	32.25
755.492	33.6
755.803	32.6
756.114	34.01
756.425	32.17
756.736	32.99
757.047	33.84
757.358	33.6
757.669	33.02
757.98	32.92
758.291	33.12
758.601	33.03
758.912	34.9
759.223	35.09
759.533	33.14
759.844	30.8
760.154	32.06
760.464	34.04
760.775	34.46
761.085	32.76
761.395	31.02
761.705	35.34
762.016	33.3
762.326	34.22
762.636	34.29
762.945	33.03
763.255	33.05
763.565	34.06
763.875	32.28
764.185	32.77
764.494	32.17
764.804	34.81
765.113	34.05
765.423	34.33
765.732	33.22
766.042	33.76
766.351	33.7
766.66	34.39
766.97	32.67
767.279	32.45
767.588	33.53
767.897	33.01
768.206	35.36
768.515	34.56
768.824	33.27
769.133	32.67
769.441	34.32
769.75	33.34
770.059	33.45
770.367	32.75
770.676	32.88
770.984	34.73
771.293	33.55
771.601	33.06
771.91	34.2
772.218	32.26
772.526	32.88
772.834	33.67
773.142	32.64
773.45	34.16
773.758	32.95
774.066	35.41
774.374	34.7
774.682	33.7
774.99	33.34
775.298	34
775.605	34.63
775.913	33.69
776.22	34.24
776.528	35.29
776.835	32.24
777.143	32.19
777.45	32.17
777.757	32.12
778.065	33.45
778.372	35
778.679	34.25
778.986	34.86
779.293	32.23
779.6	34.19
779.907	35.68
780.214	33.47
780.52	34.23
780.827	36.82
781.134	34.44
781.44	31.95
781.747	35.07
782.053	33.04
782.36	31.42
782.666	33.89
782.973	32.93
783.279	35.61
783.585	35.45
783.891	35.77
784.197	34.69
784.503	33.78
784.809	35.26
785.115	33.3
785.421	31.96
785.727	31.09
786.033	31.31
786.339	31.96
786.644	32.31
786.95	35.27
787.255	33.71
787.561	34.29
787.866	34.34
788.172	34.6
788.477	33.07
788.782	32.53
789.088	36.02
789.393	36.87
789.698	33.68
790.003	32.2
790.308	36.71
790.613	32.12
790.918	32.48
791.223	35.94
791.527	31.96
791.832	35.56
792.137	33.34
792.441	34.01
792.746	34.28
793.05	35.35
793.355	34.12
793.659	36.81
793.963	35.28
794.268	36.27
794.572	35.45
794.876	33.12
795.18	33.69
795.484	34.59
795.788	33.47
796.092	38.64
796.396	33.82
796.7	35.62
797.004	36.17
797.307	35.65
797.611	34.94
797.915	41.8
798.218	35.96
798.522	34.9
798.825	34.58
799.128	33.1
799.432	33.62
799.735	32.54
800.038	37.35
800.341	36.74
800.644	37.62
800.947	36.01
801.25	34.49
801.553	36.69
801.856	36.37
802.159	37.39
802.462	36.54
802.764	32.16
803.067	34.2
803.37	31.42
803.672	36.89
803.975	34.41
804.277	36.99
804.579	33.34
804.882	34.19
805.184	36.62
805.486	37.84
805.788	36.53
806.09	32.54
806.392	34.96
806.694	32.42
806.996	32.33
807.298	32.76
807.6	38.07
807.902	34.46
808.203	33.43
808.505	33.34
808.807	32.7
809.108	42.14
809.409	40.13
809.711	34.87
810.012	36.95
810.313	37.67
810.615	36.52
810.916	31.21
811.217	37.14
811.518	34.36
811.819	37.44
812.12	39.13
812.421	35.37
812.722	35.26
813.023	35.43
813.323	39.88
813.624	36.47
813.925	34.73
814.225	35.23
814.526	38.16
814.826	34.97
815.126	33.02
815.427	37.84
815.727	34.42
816.027	36.16
816.327	41.82
816.627	34.29
816.927	30.06
817.227	39.61
817.527	34.77
817.827	31.89
818.127	38.44
818.427	35.33
818.727	40.52
819.026	38.39
819.326	31.89
819.625	33.64
819.925	34.68
820.224	30.26
820.524	38.91
820.823	40.09
821.122	30.76
821.421	34.28
821.72	35.53
822.019	31.23
822.318	38.02
822.617	36.82
822.916	36.96
823.215	38.72
823.514	40.37
823.813	36.88
824.111	39.03
824.41	35.64
824.709	36.57
825.007	36.39
825.306	36.34
825.604	36.3
825.902	37.23
826.201	37.85
826.499	36.84
826.797	37.45
827.095	37.23
827.393	36.74
827.691	38.09
827.989	37.32
828.287	38.97
828.585	37.56
828.882	36.25
829.18	36.85
829.478	37.48
829.775	36.72
830.073	37.17
830.37	38.42
830.668	36.74
830.965	37.46
831.263	38.72
831.56	36.79
831.857	37.01
832.154	39.05
832.451	37.27
832.748	38.39
833.045	41.39
833.342	39.34
833.639	40.51
833.936	37.68
834.232	34.86
834.529	40.66
834.826	41.71
835.122	44.02
835.419	38.26
835.715	35.88
836.012	35.95
836.308	35.23
836.604	37.57
836.901	37.24
837.197	36.63
837.493	37.03
837.789	36.51
838.085	38.77
838.381	36.87
838.677	40.29
838.972	38
839.268	38.89
839.564	38.79
839.86	39.07
840.155	33.4
840.451	36.21
840.746	41.55
841.042	39.86
841.337	41.25
841.632	36.73
841.928	29.36
842.223	34.13
842.518	45.67
842.813	34.66
843.108	36.08
843.403	36.57
843.698	33.29
843.993	34.71
844.287	38.46
844.582	39.91
844.877	39.95
845.171	36.38
845.466	36.69
845.761	31.45
846.055	39.02
846.349	39.49
846.644	44.69
846.938	34.48
847.232	31.33
847.526	41.21
847.82	23.98
848.114	50.91
848.408	45.9
848.702	58.37
848.996	37.23
849.29	40.52
849.584	31.36
849.877	44.51
850.171	44.24
850.465	30.7
850.758	30.42
851.052	38.61
851.345	40.76
851.638	32.67
851.932	35.77
852.225	27.45
852.518	31.91
852.811	42.46
853.104	62.58
853.397	10.75
853.69	42.5
853.983	33.56
854.276	39.98
854.569	40.1
854.861	8.32
855.154	33.07
855.447	17.34
855.739	48.72
856.032	40.28
856.324	48.27
856.616	38.72
856.909	55.01
857.201	35.62
857.493	65.05
857.785	27.8
858.077	27.23
858.369	33.24
858.661	32.21
858.953	25.36
859.245	35.87
859.537	46.57
859.829	36.99
860.12	41.74
860.412	34.16
860.703	17.55
860.995	-1.06
861.286	35.34
861.578	32.37
861.869	38.29
862.16	62.94
862.452	53.49
862.743	44.33
863.034	18.46
863.325	16.98
863.616	64.21
863.907	32.02
864.198	59.64
864.488	33.98
864.779	32.53
865.07	53.38
865.36	27.4
865.651	31
865.941	43.48
866.232	11.16
866.522	39
866.813	25.65
867.103	59.22
867.393	38.91
867.683	23
867.973	47.27
868.263	35.43
868.553	39.16
868.843	45.86
869.133	56.49
869.423	28.3
869.713	28.53
870.002	59.1
870.292	31.11
870.582	53.71
870.871	27.37
871.161	44.74
871.45	55.67
871.739	25.58
872.029	34.79
872.318	33.3
872.607	25.58
872.896	36.85
873.185	53.26
873.474	41.11
873.763	61.77
874.052	48.22
874.341	34.69
874.63	45.23
874.918	39.83
875.207	46.07
875.496	17.68
875.784	36.22
876.073	44.58
876.361	35.68
876.649	15.3
876.938	23.75
877.226	47.95
877.514	48.34
877.802	35.42
878.09	5.21
878.378	46.46
878.666	17.83
878.954	56.83
879.242	33.41
879.53	39.06
879.817	33
880.105	32.82
880.392	37.22
880.68	8.51
880.967	28.59
881.255	37.13
881.542	15.9
881.83	21.68
882.117	30.16
882.404	13.59
882.691	43.39
882.978	70.27
883.265	44.76
883.552	25.64
883.839	50.96
884.126	45.6
884.413	53.62
884.699	35.24
884.986	42.97
885.273	37.29
885.559	37.29
885.846	37.29
