Data from 0048_chest_Reflection__2__183.txt Node

Date: Fri Nov 04 16:21:03 CDT 2022
User: ToomeyLab
Spectrometer: FLMS14357
Trigger mode: 0
Integration Time (sec): 1.000000E-2
Scans to average: 100
Electric dark correction enabled: true
Nonlinearity correction enabled: false
Boxcar width: 0
XAxis mode: Wavelengths
Number of Pixels in Spectrum: 2048
>>>>>Begin Spectral Data<<<<<
189.047	-399.87
189.435	-399.87
189.823	-399.87
190.211	-336.59
190.599	80.94
190.987	84.46
191.375	198.94
191.763	389.44
192.151	43.43
192.538	29.65
192.926	-13.24
193.314	507.52
193.702	106.19
194.089	13.11
194.477	-55.35
194.864	-63.02
195.252	76.3
195.639	294.33
196.027	46.9
196.414	192.62
196.801	490.48
197.189	175
197.576	136.74
197.963	93.52
198.351	-33.19
198.738	12.02
199.125	17.95
199.512	-70.76
199.899	-13.98
200.286	-34.31
200.673	-15
201.06	-29.19
201.447	-17.78
201.833	13.53
202.22	-5.85
202.607	-12
202.994	20.09
203.38	13.68
203.767	-7.05
204.154	71.14
204.54	-51.84
204.927	-27.4
205.313	24.17
205.699	19.69
206.086	-1.9
206.472	-4.14
206.858	-45.5
207.245	3.13
207.631	18.89
208.017	1.17
208.403	-29.93
208.789	27.96
209.175	-3.92
209.561	-62.58
209.947	-130.48
210.333	-8.31
210.719	12.05
211.105	-43.16
211.491	-29.24
211.876	1.05
212.262	-32.15
212.648	-21.8
213.034	1.02
213.419	6.05
213.805	23.84
214.19	-105.16
214.576	-14.55
214.961	10.85
215.346	-16.46
215.732	-2.82
216.117	-35.29
216.502	1.58
216.888	-11.69
217.273	-12.59
217.658	-6.99
218.043	-38.73
218.428	-1.98
218.813	7.02
219.198	5.58
219.583	-20.08
219.968	-6.03
220.353	-29.83
220.738	-31.01
221.122	-6.09
221.507	1.1
221.892	-19.91
222.276	-14.9
222.661	2.28
223.046	-10.55
223.43	2.22
223.815	-11.45
224.199	3.99
224.583	-0.26
224.968	-2.87
225.352	1.88
225.736	-2.5
226.121	-11.2
226.505	-9.58
226.889	0.68
227.273	-0.54
227.657	-2.57
228.041	-0.6
228.425	0.77
228.809	1.08
229.193	0.82
229.577	-1.12
229.961	1.67
230.344	1.9
230.728	1.76
231.112	1.03
231.495	1.27
231.879	1.5
232.263	0.55
232.646	0.43
233.03	0.59
233.413	-1.44
233.797	0.49
234.18	-0.09
234.563	2.84
234.946	-1.36
235.33	2.1
235.713	0.78
236.096	1.66
236.479	0.92
236.862	0.66
237.245	-0.74
237.628	0.78
238.011	0.16
238.394	3.39
238.777	0.53
239.16	1.23
239.543	-1.16
239.925	-0.36
240.308	2.34
240.691	2.21
241.073	3.51
241.456	1.87
241.838	0.44
242.221	0.85
242.603	1.88
242.986	0.6
243.368	1.64
243.75	1.89
244.133	1.66
244.515	1.77
244.897	1.99
245.279	1.61
245.661	2.21
246.043	2.52
246.425	1.2
246.807	1.96
247.189	1.33
247.571	2.06
247.953	1.79
248.335	1.52
248.717	1.77
249.098	1.82
249.48	1.85
249.862	1.64
250.243	1.79
250.625	1.51
251.006	1.69
251.388	1.72
251.769	2.77
252.151	2.48
252.532	1.62
252.913	1.11
253.295	1.96
253.676	1.67
254.057	1.37
254.438	1.86
254.819	1.93
255.2	1.17
255.581	2.13
255.962	2.2
256.343	0.89
256.724	1.36
257.105	1.59
257.486	2
257.867	2.45
258.247	2.18
258.628	1.17
259.009	1.37
259.389	1.42
259.77	1.74
260.15	1.57
260.531	1.72
260.911	1.4
261.292	1.53
261.672	1.62
262.052	1.82
262.432	1.72
262.813	1.46
263.193	0.84
263.573	1.25
263.953	1.44
264.333	1.42
264.713	2.11
265.093	1.96
265.473	1.65
265.853	1.38
266.233	1.9
266.612	2.44
266.992	2.25
267.372	1.37
267.752	2.19
268.131	2.05
268.511	1.67
268.89	2.45
269.27	1.46
269.649	1.57
270.029	1.21
270.408	1.48
270.787	1.84
271.167	1.58
271.546	2.24
271.925	1.55
272.304	1.58
272.683	1.42
273.062	1.43
273.441	1.47
273.82	1.37
274.199	1.3
274.578	1.29
274.957	1.46
275.336	1.13
275.715	1.48
276.093	1.89
276.472	0.97
276.851	0.86
277.229	1.17
277.608	1.73
277.986	1.87
278.365	1.81
278.743	1.95
279.122	1.84
279.5	1.62
279.878	2.16
280.257	1.32
280.635	1.05
281.013	1.51
281.391	2.22
281.769	1.44
282.147	0.84
282.525	1.52
282.903	2.01
283.281	2.2
283.659	1.68
284.037	1.21
284.415	1.61
284.792	1.64
285.17	1.29
285.548	1.9
285.925	1.14
286.303	1.81
286.68	1.9
287.058	1.51
287.435	1.68
287.813	1.56
288.19	1.51
288.567	1.46
288.945	1.99
289.322	1.78
289.699	1.42
290.076	1.69
290.453	1.19
290.83	1.26
291.207	1.65
291.584	1.88
291.961	1.93
292.338	1.65
292.715	1.71
293.092	1.78
293.469	1.35
293.845	1.55
294.222	1.56
294.599	1.37
294.975	1.25
295.352	1.55
295.728	1.69
296.105	1.62
296.481	1.65
296.858	1.84
297.234	1.86
297.61	1.76
297.986	1.31
298.363	1.57
298.739	1.3
299.115	1.89
299.491	1.71
299.867	1.64
300.243	1.63
300.619	1.74
300.995	1.96
301.371	1.95
301.746	1.61
302.122	1.3
302.498	1.76
302.874	1.89
303.249	1.44
303.625	1.34
304	1.77
304.376	1.77
304.751	2.01
305.127	1.19
305.502	1.72
305.878	1.86
306.253	1.95
306.628	1.49
307.003	1.81
307.378	1.62
307.754	1.44
308.129	1.31
308.504	1.65
308.879	1.57
309.254	1.82
309.629	1.64
310.003	1.77
310.378	1.78
310.753	2.09
311.128	1.58
311.502	1.69
311.877	1.55
312.252	1.4
312.626	1.78
313.001	1.7
313.375	1.52
313.75	1.68
314.124	1.68
314.498	1.69
314.873	1.79
315.247	1.59
315.621	1.72
315.995	2.05
316.369	2.09
316.743	2.06
317.117	2.19
317.491	2.12
317.865	1.45
318.239	1.74
318.613	2.12
318.987	1.46
319.361	1.98
319.734	1.85
320.108	1.52
320.482	1
320.855	1.89
321.229	1.85
321.602	1.87
321.976	1.83
322.349	2.34
322.723	1.69
323.096	1.63
323.469	1.47
323.843	1.82
324.216	1.74
324.589	1.72
324.962	2.14
325.335	1.55
325.708	1.27
326.081	1.54
326.454	1.81
326.827	1.96
327.2	1.88
327.573	1.75
327.945	1.6
328.318	1.28
328.691	1.27
329.063	1.77
329.436	1.5
329.809	1.42
330.181	1.62
330.553	1.4
330.926	1.69
331.298	1.68
331.671	1.72
332.043	1.77
332.415	1.91
332.787	1.42
333.159	1.4
333.532	1.34
333.904	2.18
334.276	1.54
334.648	1.94
335.02	1.25
335.391	1.86
335.763	1.76
336.135	1.56
336.507	1.63
336.879	2.14
337.25	2.15
337.622	2.04
337.993	1.61
338.365	1.22
338.736	2.4
339.108	2.01
339.479	1.65
339.851	1.42
340.222	1.58
340.593	1.96
340.964	1.77
341.336	1.59
341.707	1.21
342.078	1.74
342.449	1.73
342.82	1.69
343.191	1.38
343.562	1.64
343.933	1.89
344.303	1.79
344.674	2.22
345.045	1.17
345.416	1.28
345.786	2
346.157	2
346.527	2.08
346.898	2.05
347.268	1.45
347.639	1.86
348.009	1.96
348.38	1.63
348.75	1.45
349.12	1.41
349.49	1.8
349.861	1.51
350.231	1.93
350.601	1.84
350.971	1.87
351.341	1.74
351.711	1.86
352.081	1.95
352.45	1.92
352.82	2.1
353.19	1.52
353.56	1.69
353.929	1.91
354.299	2.19
354.669	1.89
355.038	2.15
355.408	1.62
355.777	1.95
356.147	1.68
356.516	1.69
356.885	1.58
357.254	1.95
357.624	1.85
357.993	1.76
358.362	1.85
358.731	1.95
359.1	1.94
359.469	1.69
359.838	1.86
360.207	1.58
360.576	1.69
360.945	1.94
361.314	2.19
361.682	1.85
362.051	1.84
362.42	1.81
362.788	1.67
363.157	1.85
363.525	1.68
363.894	1.78
364.262	1.97
364.631	1.93
364.999	2.02
365.367	1.45
365.735	2.1
366.104	1.74
366.472	2.07
366.84	1.41
367.208	1.8
367.576	1.75
367.944	1.72
368.312	1.75
368.68	1.69
369.048	1.68
369.416	1.72
369.783	1.48
370.151	1.75
370.519	2.22
370.886	2.11
371.254	1.99
371.621	1.94
371.989	1.74
372.356	1.65
372.724	1.98
373.091	1.86
373.458	2.1
373.826	2.29
374.193	1.64
374.56	1.54
374.927	1.99
375.294	1.79
375.661	1.78
376.028	1.66
376.395	1.9
376.762	2.02
377.129	1.95
377.496	2.08
377.863	2
378.229	1.75
378.596	1.97
378.963	2.02
379.329	1.72
379.696	1.91
380.062	2.43
380.429	1.85
380.795	1.8
381.161	1.7
381.528	2.01
381.894	1.75
382.26	1.85
382.626	1.79
382.993	2
383.359	2.2
383.725	1.9
384.091	2.02
384.457	2.04
384.823	2.21
385.188	1.92
385.554	1.93
385.92	1.85
386.286	1.93
386.651	1.84
387.017	1.79
387.383	2.11
387.748	1.91
388.114	1.59
388.479	2.42
388.845	2.09
389.21	2.37
389.575	2.18
389.94	1.99
390.306	1.95
390.671	1.98
391.036	1.67
391.401	2.2
391.766	1.96
392.131	1.84
392.496	2.31
392.861	2.17
393.226	2.06
393.591	2.15
393.956	2.38
394.32	1.84
394.685	2
395.05	2.13
395.414	1.76
395.779	2.12
396.143	1.83
396.508	2.11
396.872	2.05
397.236	1.99
397.601	1.86
397.965	2.03
398.329	2.01
398.694	2.02
399.058	2.2
399.422	2.09
399.786	2.13
400.15	1.8
400.514	2.17
400.878	1.99
401.242	2.24
401.605	2.06
401.969	2.27
402.333	2.17
402.697	2.11
403.06	2.05
403.424	2.15
403.787	2.15
404.151	2.16
404.514	2.14
404.878	2.14
405.241	2.12
405.604	2.08
405.968	1.99
406.331	1.86
406.694	2.03
407.057	2.21
407.42	2.03
407.783	2.1
408.146	2.08
408.509	1.97
408.872	1.99
409.235	2.03
409.598	2.13
409.961	2.18
410.323	2.03
410.686	2.04
411.049	2.09
411.411	2.01
411.774	2.24
412.136	2.2
412.499	2.27
412.861	2.19
413.223	2.12
413.586	2.02
413.948	2.41
414.31	2.09
414.672	2.18
415.035	2.34
415.397	2
415.759	2.18
416.121	2.04
416.483	2.39
416.845	2.15
417.206	1.99
417.568	2.23
417.93	2.35
418.292	2.24
418.653	2.3
419.015	2.16
419.377	2.16
419.738	2.17
420.1	2.29
420.461	2.23
420.822	2.17
421.184	2.19
421.545	2.03
421.906	2.19
422.267	1.98
422.629	2.14
422.99	2.02
423.351	2.08
423.712	2.11
424.073	2.14
424.434	2.13
424.795	2.13
425.155	2.21
425.516	2.11
425.877	2.11
426.238	2.14
426.598	2.2
426.959	2.11
427.32	2.15
427.68	2.21
428.041	2.09
428.401	2.23
428.761	2.17
429.122	2.17
429.482	2.16
429.842	2.1
430.202	2.33
430.563	2.23
430.923	2.36
431.283	2.25
431.643	2.32
432.003	2.41
432.363	2.27
432.722	2.15
433.082	2.34
433.442	2.25
433.802	2.29
434.161	2.25
434.521	2.25
434.881	2.25
435.24	2.1
435.6	2.34
435.959	2.19
436.319	2.16
436.678	2.28
437.037	2.23
437.396	2.41
437.756	2.36
438.115	2.11
438.474	2.15
438.833	2.34
439.192	2.29
439.551	2.23
439.91	2.23
440.269	2.34
440.628	2.27
440.987	2.34
441.345	2.2
441.704	2.32
442.063	2.21
442.421	2.22
442.78	2.27
443.138	2.39
443.497	2.17
443.855	2.31
444.214	2.37
444.572	2.27
444.93	2.23
445.288	2.32
445.647	2.28
446.005	2.31
446.363	2.19
446.721	2.27
447.079	2.35
447.437	2.18
447.795	2.31
448.153	2.15
448.51	2.27
448.868	2.22
449.226	2.28
449.584	2.3
449.941	2.21
450.299	2.3
450.656	2.26
451.014	2.38
451.371	2.43
451.729	2.29
452.086	2.32
452.443	2.41
452.801	2.41
453.158	2.49
453.515	2.45
453.872	2.23
454.229	2.49
454.586	2.33
454.943	2.48
455.3	2.21
455.657	2.3
456.014	2.23
456.371	2.34
456.727	2.54
457.084	2.5
457.441	2.27
457.797	2.38
458.154	2.46
458.51	2.45
458.867	2.19
459.223	2.3
459.58	2.63
459.936	2.39
460.292	2.49
460.648	2.43
461.005	2.32
461.361	2.36
461.717	2.37
462.073	2.4
462.429	2.45
462.785	2.37
463.141	2.43
463.496	2.39
463.852	2.5
464.208	2.23
464.564	2.22
464.919	2.5
465.275	2.55
465.631	2.52
465.986	2.53
466.342	2.47
466.697	2.53
467.052	2.39
467.408	2.5
467.763	2.44
468.118	2.58
468.473	2.35
468.829	2.42
469.184	2.46
469.539	2.37
469.894	2.47
470.249	2.46
470.603	2.48
470.958	2.37
471.313	2.35
471.668	2.37
472.023	2.26
472.377	2.36
472.732	2.56
473.086	2.59
473.441	2.52
473.795	2.52
474.15	2.44
474.504	2.49
474.859	2.47
475.213	2.63
475.567	2.52
475.921	2.49
476.275	2.66
476.63	2.56
476.984	2.4
477.338	2.52
477.692	2.62
478.045	2.59
478.399	2.44
478.753	2.57
479.107	2.48
479.461	2.63
479.814	2.56
480.168	2.45
480.521	2.42
480.875	2.5
481.228	2.48
481.582	2.57
481.935	2.59
482.289	2.5
482.642	2.48
482.995	2.48
483.348	2.5
483.701	2.54
484.055	2.6
484.408	2.53
484.761	2.49
485.114	2.4
485.466	2.39
485.819	2.4
486.172	2.4
486.525	2.42
486.878	2.48
487.23	2.47
487.583	2.51
487.936	2.53
488.288	2.5
488.641	2.53
488.993	2.47
489.345	2.45
489.698	2.44
490.05	2.48
490.402	2.51
490.754	2.54
491.107	2.57
491.459	2.6
491.811	2.53
492.163	2.66
492.515	2.66
492.866	2.58
493.218	2.48
493.57	2.49
493.922	2.54
494.274	2.5
494.625	2.62
494.977	2.64
495.328	2.69
495.68	2.59
496.031	2.71
496.383	2.66
496.734	2.67
497.086	2.9
497.437	2.75
497.788	2.75
498.139	2.62
498.49	2.6
498.842	2.77
499.193	2.7
499.544	2.64
499.894	2.65
500.245	2.73
500.596	2.7
500.947	2.77
501.298	2.7
501.648	2.75
501.999	2.85
502.35	2.67
502.7	2.66
503.051	2.82
503.401	2.73
503.752	2.78
504.102	2.68
504.452	2.83
504.803	2.72
505.153	2.8
505.503	2.78
505.853	2.83
506.203	2.85
506.553	2.78
506.903	2.86
507.253	2.77
507.603	2.82
507.953	2.76
508.303	2.87
508.652	2.75
509.002	2.99
509.352	2.87
509.701	2.87
510.051	2.87
510.4	2.77
510.75	2.86
511.099	2.83
511.449	2.84
511.798	2.8
512.147	2.85
512.496	2.82
512.846	2.66
513.195	2.94
513.544	2.89
513.893	2.92
514.242	2.84
514.591	2.89
514.939	2.96
515.288	2.91
515.637	2.91
515.986	2.9
516.334	2.91
516.683	2.96
517.032	3.02
517.38	3.01
517.729	2.99
518.077	2.99
518.426	2.94
518.774	2.93
519.122	2.93
519.47	2.87
519.819	2.91
520.167	2.93
520.515	2.91
520.863	2.93
521.211	2.91
521.559	3.04
521.907	2.96
522.255	3.1
522.602	3.05
522.95	3
523.298	3.02
523.645	3
523.993	3.11
524.341	3.08
524.688	3.13
525.036	2.99
525.383	3.18
525.73	3.11
526.078	3.1
526.425	3.14
526.772	2.94
527.119	3.07
527.466	3.07
527.814	3.09
528.161	3.09
528.508	3.01
528.854	3.05
529.201	3.08
529.548	3.04
529.895	3.05
530.242	2.97
530.588	2.98
530.935	3.01
531.282	3.03
531.628	2.99
531.975	3.12
532.321	3.2
532.667	3.16
533.014	3.14
533.36	3.24
533.706	3.23
534.052	3.19
534.399	3.21
534.745	3.19
535.091	3.14
535.437	3.19
535.783	3.17
536.129	3.27
536.474	3.27
536.82	3.27
537.166	3.26
537.512	3.29
537.857	3.37
538.203	3.21
538.549	3.3
538.894	3.36
539.239	3.33
539.585	3.25
539.93	3.36
540.276	3.38
540.621	3.35
540.966	3.48
541.311	3.44
541.656	3.39
542.001	3.45
542.346	3.41
542.691	3.38
543.036	3.31
543.381	3.37
543.726	3.4
544.071	3.39
544.415	3.42
544.76	3.41
545.105	3.42
545.449	3.46
545.794	3.51
546.138	3.5
546.483	3.52
546.827	3.5
547.171	3.55
547.516	3.64
547.86	3.51
548.204	3.54
548.548	3.54
548.892	3.6
549.236	3.58
549.58	3.59
549.924	3.68
550.268	3.73
550.612	3.56
550.956	3.72
551.3	3.66
551.643	3.82
551.987	3.67
552.33	3.77
552.674	3.72
553.017	3.79
553.361	3.83
553.704	3.78
554.048	3.77
554.391	3.83
554.734	3.91
555.077	3.96
555.42	3.87
555.764	4.05
556.107	4.02
556.45	4.01
556.793	4.01
557.135	4.04
557.478	3.91
557.821	4.09
558.164	4.12
558.507	3.8
558.849	4.01
559.192	4.29
559.534	4.1
559.877	4.12
560.219	4.04
560.562	4.19
560.904	4.33
561.246	4.13
561.589	4.23
561.931	4.21
562.273	4.18
562.615	4.04
562.957	4.15
563.299	4.1
563.641	4.3
563.983	4.22
564.325	4.2
564.667	4.33
565.008	4.31
565.35	4.35
565.692	4.42
566.033	4.36
566.375	4.36
566.716	4.35
567.058	4.56
567.399	4.38
567.741	4.34
568.082	4.48
568.423	4.41
568.764	4.28
569.105	4.48
569.447	4.44
569.788	4.4
570.129	4.51
570.47	4.55
570.811	4.69
571.151	4.71
571.492	4.79
571.833	4.64
572.174	4.69
572.514	4.59
572.855	4.62
573.195	4.64
573.536	4.63
573.876	4.65
574.217	4.64
574.557	4.55
574.898	4.77
575.238	4.63
575.578	4.91
575.918	4.67
576.258	4.57
576.598	4.87
576.938	4.96
577.278	4.58
577.618	4.6
577.958	4.75
578.298	4.84
578.638	4.94
578.977	5.09
579.317	5.16
579.657	4.95
579.996	5.04
580.336	4.96
580.675	4.93
581.014	5.14
581.354	5.19
581.693	5.21
582.032	5.01
582.372	5.27
582.711	5.33
583.05	5.1
583.389	5.14
583.728	5.24
584.067	5.35
584.406	5.08
584.745	5.63
585.083	5.29
585.422	5.53
585.761	5.43
586.1	5.42
586.438	5.05
586.777	5.6
587.115	5.4
587.454	5.67
587.792	5.71
588.13	5.45
588.469	5.63
588.807	5.58
589.145	5.58
589.483	5.31
589.821	5.75
590.159	5.43
590.497	5.65
590.835	5.51
591.173	5.54
591.511	5.78
591.849	5.94
592.187	5.51
592.524	5.68
592.862	5.66
593.2	5.79
593.537	5.71
593.875	5.74
594.212	5.59
594.55	5.67
594.887	5.8
595.224	6
595.561	5.77
595.899	5.91
596.236	5.94
596.573	6.02
596.91	6.05
597.247	5.98
597.584	5.83
597.921	6.28
598.258	5.88
598.594	5.72
598.931	6.13
599.268	6.21
599.604	6.04
599.941	6.21
600.277	6.07
600.614	6.28
600.95	6.23
601.287	6.03
601.623	6.32
601.959	6.14
602.296	6.25
602.632	6.43
602.968	6.53
603.304	6.46
603.64	6.65
603.976	6.18
604.312	6.54
604.648	6.23
604.984	6.46
605.319	6.4
605.655	6.34
605.991	6.56
606.326	6.47
606.662	6.28
606.998	6.37
607.333	6.48
607.668	6.57
608.004	6.46
608.339	6.61
608.674	6.87
609.01	6.61
609.345	6.71
609.68	6.83
610.015	6.76
610.35	6.82
610.685	7.06
611.02	6.92
611.355	6.73
611.689	7.05
612.024	6.83
612.359	6.94
612.694	7
613.028	7.2
613.363	7.29
613.697	7.11
614.032	7.01
614.366	7.19
614.7	7.21
615.035	7.2
615.369	6.96
615.703	7.63
616.037	7.05
616.371	7.27
616.705	7.17
617.039	7.3
617.373	7.51
617.707	7.52
618.041	7.5
618.375	7.72
618.709	7.62
619.042	7.79
619.376	7.55
619.71	7.5
620.043	7.82
620.377	7.75
620.71	7.63
621.043	7.3
621.377	7.8
621.71	7.48
622.043	7.73
622.376	7.77
622.709	7.86
623.043	7.76
623.376	8.07
623.709	7.51
624.041	7.79
624.374	7.56
624.707	7.63
625.04	7.97
625.373	8.03
625.705	7.88
626.038	7.75
626.37	7.95
626.703	8.23
627.035	7.76
627.368	7.83
627.7	7.96
628.032	8.21
628.365	8.36
628.697	7.75
629.029	8.04
629.361	8.04
629.693	8.11
630.025	8.37
630.357	8.24
630.689	8.39
631.021	8.18
631.353	8.23
631.684	8.41
632.016	8.18
632.348	8.45
632.679	8.32
633.011	8.23
633.342	8.43
633.674	8.52
634.005	8.65
634.336	8.52
634.668	8.51
634.999	8.68
635.33	8.45
635.661	8.7
635.992	8.78
636.323	8.83
636.654	8.46
636.985	8.98
637.316	8.65
637.647	8.68
637.977	8.93
638.308	8.93
638.639	8.98
638.969	8.87
639.3	8.92
639.63	8.68
639.961	8.75
640.291	9.29
640.622	9.36
640.952	9.05
641.282	9.11
641.612	9.17
641.943	9.12
642.273	9
642.603	9.29
642.933	9.23
643.263	9.23
643.592	9.14
643.922	9.48
644.252	9.24
644.582	9.31
644.911	9.65
645.241	9.48
645.571	9.27
645.9	9.49
646.23	9.18
646.559	9.8
646.888	9.47
647.218	9.92
647.547	9.5
647.876	9.8
648.205	9.08
648.534	9.86
648.863	9.5
649.192	9.86
649.521	9.79
649.85	10.03
650.179	9.62
650.508	9.37
650.837	9.97
651.165	9.61
651.494	9.88
651.822	10.23
652.151	9.9
652.479	9.54
652.808	9.46
653.136	10.23
653.465	9.58
653.793	10.13
654.121	10.09
654.449	9.37
654.777	9.78
655.105	10.17
655.433	9.66
655.761	10.1
656.089	9.62
656.417	9.62
656.745	9.67
657.073	10.09
657.4	10.22
657.728	9.71
658.056	9.67
658.383	10.38
658.711	9.94
659.038	10.2
659.365	10.75
659.693	10.55
660.02	10.31
660.347	10.38
660.674	10.22
661.001	10.34
661.329	10.21
661.656	10.39
661.982	10.07
662.309	10.19
662.636	10.06
662.963	10.37
663.29	10.05
663.616	10.39
663.943	10.64
664.27	10.84
664.596	10.53
664.923	10.58
665.249	10.46
665.576	10.57
665.902	10.6
666.228	10.24
666.554	11.21
666.881	10.8
667.207	11.09
667.533	11.12
667.859	10.98
668.185	10.64
668.511	11.19
668.837	10.96
669.162	11.26
669.488	10.56
669.814	10.89
670.139	11.16
670.465	10.76
670.791	10.45
671.116	11.1
671.442	11.03
671.767	11.05
672.092	10.71
672.418	11.32
672.743	11.65
673.068	11.38
673.393	11.71
673.718	11.45
674.043	11.46
674.368	11.06
674.693	11.72
675.018	11.55
675.343	11.71
675.667	11.88
675.992	11.09
676.317	11.39
676.641	11.3
676.966	11.21
677.29	11.45
677.615	11.07
677.939	11.56
678.264	12.05
678.588	11.12
678.912	11.89
679.236	11.67
679.56	11.33
679.885	11.74
680.209	11.54
680.532	11.71
680.856	11.85
681.18	11.78
681.504	11.82
681.828	11.68
682.152	12.14
682.475	12.3
682.799	11.81
683.122	12.23
683.446	12.05
683.769	11.81
684.093	11.78
684.416	11.15
684.739	11.62
685.062	12.68
685.386	12.53
685.709	12.37
686.032	12.73
686.355	12.85
686.678	12.38
687.001	12.07
687.324	12.28
687.646	12.95
687.969	11.89
688.292	12.78
688.614	12.11
688.937	12.73
689.26	12.12
689.582	12.77
689.904	12.97
690.227	11.97
690.549	12.98
690.871	11.68
691.194	12.33
691.516	12.31
691.838	12.17
692.16	13.07
692.482	12.46
692.804	12.33
693.126	12.73
693.448	12.63
693.769	12.87
694.091	12.87
694.413	12.06
694.735	12.39
695.056	11.99
695.378	12.48
695.699	13.4
696.021	12.77
696.342	12.28
696.663	12.45
696.984	11.91
697.306	12.19
697.627	12.51
697.948	12.01
698.269	12.64
698.59	13.08
698.911	13.11
699.232	13.14
699.553	13.86
699.873	12.78
700.194	13.2
700.515	12.62
700.835	13.11
701.156	13.18
701.477	13.19
701.797	13.62
702.117	13.47
702.438	12.92
702.758	13.39
703.078	13.35
703.398	12.83
703.719	13.57
704.039	13.84
704.359	14
704.679	13.26
704.999	13.05
705.319	14.35
705.638	13.45
705.958	13.26
706.278	13.23
706.597	13.69
706.917	13.48
707.237	12.99
707.556	14.12
707.876	13.4
708.195	13.01
708.514	14.2
708.834	13.46
709.153	14.16
709.472	14.76
709.791	13.22
710.11	13.26
710.429	15.23
710.748	14.76
711.067	14.39
711.386	13.15
711.705	12.44
712.023	14.1
712.342	14.03
712.661	13.64
712.979	13.44
713.298	13.05
713.616	14.26
713.935	13.55
714.253	14.21
714.572	13.78
714.89	13.52
715.208	16.17
715.526	14.94
715.844	12.89
716.162	14.18
716.48	14.15
716.798	14.08
717.116	13.9
717.434	13.69
717.752	15.66
718.069	14.16
718.387	13.8
718.705	14.08
719.022	14.81
719.34	15.17
719.657	15.34
719.975	14.77
720.292	15.14
720.609	14.74
720.927	14.32
721.244	14.35
721.561	14.02
721.878	14.54
722.195	13.92
722.512	13.84
722.829	15.76
723.146	13.96
723.463	15.73
723.779	15.13
724.096	14.64
724.413	15.98
724.729	14.96
725.046	15.13
725.362	15.55
725.679	14.72
725.995	15.33
726.311	16.01
726.628	15.55
726.944	15.38
727.26	15.44
727.576	14.22
727.892	15.75
728.208	16.76
728.524	16.1
728.84	13.99
729.156	14.35
729.472	15.99
729.787	15.68
730.103	15.22
730.419	15.65
730.734	15.53
731.05	16.84
731.365	14.91
731.681	15
731.996	17.65
732.311	14.61
732.626	15.2
732.942	16.37
733.257	15.31
733.572	14.86
733.887	15.66
734.202	16.2
734.517	14.6
734.832	16.56
735.146	16.12
735.461	16.3
735.776	14.63
736.091	15.24
736.405	15.76
736.72	15.32
737.034	15.57
737.349	15.79
737.663	16.37
737.977	15.98
738.292	17.16
738.606	15.84
738.92	15.62
739.234	15.91
739.548	16.4
739.862	18.2
740.176	17.32
740.49	15.56
740.804	16.37
741.117	15.68
741.431	16.33
741.745	17.76
742.058	16.22
742.372	14.24
742.685	16.71
742.999	16.7
743.312	16.77
743.626	16.28
743.939	15.27
744.252	16.61
744.565	14.03
744.878	15.67
745.191	16.46
745.505	15.01
745.817	16.43
746.13	16.35
746.443	17.67
746.756	15.45
747.069	17.33
747.381	18.11
747.694	18.81
748.007	15.04
748.319	16.17
748.632	16.11
748.944	16.39
749.256	16.74
749.569	16.32
749.881	16.35
750.193	16.89
750.505	17.27
750.817	17.67
751.129	16.49
751.441	16.66
751.753	17.68
752.065	16.58
752.377	16.7
752.689	16.06
753	14.61
753.312	17.07
753.624	16.85
753.935	18.74
754.247	18.46
754.558	17.52
754.869	16.16
755.181	18.4
755.492	18.47
755.803	19.23
756.114	18.03
756.425	17.49
756.736	19
757.047	18.21
757.358	18.98
757.669	17.67
757.98	17.17
758.291	18.36
758.601	17.86
758.912	18.17
759.223	19.82
759.533	17.71
759.844	16.54
760.154	17.85
760.464	18.04
760.775	17.19
761.085	17.35
761.395	18.48
761.705	18.21
762.016	19.4
762.326	19
762.636	19.11
762.945	17.63
763.255	18.53
763.565	20.57
763.875	18.99
764.185	15.85
764.494	17.79
764.804	18.95
765.113	19.27
765.423	18.56
765.732	19.73
766.042	18.37
766.351	18.71
766.66	18.73
766.97	17.74
767.279	17.62
767.588	18.95
767.897	19.85
768.206	20.21
768.515	17.69
768.824	18.34
769.133	17.39
769.441	19.23
769.75	18.78
770.059	16.96
770.367	17.16
770.676	18.4
770.984	19.64
771.293	20.17
771.601	17.31
771.91	20.89
772.218	18.83
772.526	17.91
772.834	20.81
773.142	19.59
773.45	19.31
773.758	19.73
774.066	19.38
774.374	20.38
774.682	20.15
774.99	16.32
775.298	18.07
775.605	17.96
775.913	17.95
776.22	18.23
776.528	17.94
776.835	18.41
777.143	17.01
777.45	17.76
777.757	17.69
778.065	18.04
778.372	18.49
778.679	21.43
778.986	19.36
779.293	20.9
779.6	19.79
779.907	21.73
780.214	19.41
780.52	20.69
780.827	21.42
781.134	17.88
781.44	17.44
781.747	16.35
782.053	18.35
782.36	17.32
782.666	20.61
782.973	19.11
783.279	20.85
783.585	22.25
783.891	22.6
784.197	17.07
784.503	15.61
784.809	18.41
785.115	19.98
785.421	18.94
785.727	18.42
786.033	16.37
786.339	21.38
786.644	18.38
786.95	18.86
787.255	16.92
787.561	19.69
787.866	17.19
788.172	20.06
788.477	19.46
788.782	20.47
789.088	19.66
789.393	19.23
789.698	18.83
790.003	18.57
790.308	20.09
790.613	17.28
790.918	18.97
791.223	22.74
791.527	19.91
791.832	21.3
792.137	19.75
792.441	22.75
792.746	20.69
793.05	22.11
793.355	20.5
793.659	18.81
793.963	19.11
794.268	19.56
794.572	23.45
794.876	18.25
795.18	21.92
795.484	15.2
795.788	21.67
796.092	20.43
796.396	21.47
796.7	22.66
797.004	22.74
797.307	20.24
797.611	21.02
797.915	24.38
798.218	20.59
798.522	18.64
798.825	21.16
799.128	19.75
799.432	21.11
799.735	24.09
800.038	22.6
800.341	19.42
800.644	17.04
800.947	20.56
801.25	22.71
801.553	21.75
801.856	24.92
802.159	24.12
802.462	24.58
802.764	17.86
803.067	19.8
803.37	17.63
803.672	22.96
803.975	22.75
804.277	19.65
804.579	17.95
804.882	17.96
805.184	17.59
805.486	16.89
805.788	23.4
806.09	19.17
806.392	19.09
806.694	16.97
806.996	20.25
807.298	21.88
807.6	23.23
807.902	21.88
808.203	17.62
808.505	21.49
808.807	19.53
809.108	23.76
809.409	24.85
809.711	19.87
810.012	22.41
810.313	23.48
810.615	17.63
810.916	22.46
811.217	22.16
811.518	18.91
811.819	25.51
812.12	22.17
812.421	22.48
812.722	23.65
813.023	16.47
813.323	22.98
813.624	28.39
813.925	21.78
814.225	22.87
814.526	23.81
814.826	18.12
815.126	16.55
815.427	18.98
815.727	18.89
816.027	14.19
816.327	27.84
816.627	19.27
816.927	18.05
817.227	24.87
817.527	16.62
817.827	21.11
818.127	20.97
818.427	20.68
818.727	22.94
819.026	22.45
819.326	15.97
819.625	20.72
819.925	21.72
820.224	26.32
820.524	27.39
820.823	23.71
821.122	22.08
821.421	21.24
821.72	21.32
822.019	17.91
822.318	23.77
822.617	22.96
822.916	18.45
823.215	23.96
823.514	23.33
823.813	24.96
824.111	22.94
824.41	22.33
824.709	24.69
825.007	24.31
825.306	24
825.604	24.31
825.902	23.83
826.201	25.04
826.499	23.74
826.797	24.62
827.095	24.01
827.393	23.31
827.691	23.76
827.989	23.31
828.287	24.18
828.585	23.08
828.882	23.59
829.18	23.97
829.478	22.77
829.775	24.72
830.073	24.42
830.37	24.62
830.668	25.53
830.965	24.7
831.263	25.68
831.56	22.84
831.857	22.76
832.154	23.94
832.451	21.45
832.748	24.64
833.045	28.65
833.342	28.02
833.639	25.73
833.936	25.54
834.232	21.82
834.529	28.96
834.826	26.99
835.122	22.6
835.419	22.37
835.715	20.06
836.012	25.65
836.308	22.34
836.604	27.89
836.901	24.4
837.197	25.12
837.493	21.5
837.789	24.54
838.085	22.43
838.381	25.35
838.677	24.2
838.972	26.8
839.268	23.89
839.564	24.59
839.86	24.67
840.155	19.21
840.451	20.18
840.746	27.46
841.042	27.4
841.337	19.01
841.632	20.63
841.928	15.71
842.223	24.63
842.518	19.03
842.813	24.14
843.108	25.38
843.403	28.29
843.698	15.06
843.993	29.37
844.287	18.61
844.582	22.9
844.877	29.07
845.171	22.06
845.466	23.05
845.761	20.79
846.055	30.17
846.349	17.48
846.644	25.12
846.938	10.17
847.232	6.6
847.526	18.84
847.82	12.95
848.114	38.74
848.408	4.39
848.702	18.9
848.996	20
849.29	24.66
849.584	15
849.877	23.2
850.171	25.92
850.465	29.92
850.758	13.24
851.052	21.96
851.345	33.36
851.638	25.1
851.932	10.44
852.225	6.4
852.518	11.97
852.811	17.18
853.104	40.07
853.397	12.42
853.69	29.78
853.983	25.58
854.276	18.73
854.569	29.05
854.861	-4.53
855.154	4.46
855.447	-29.51
855.739	42.56
856.032	20.41
856.324	37.64
856.616	17.1
856.909	27.3
857.201	20.68
857.493	17.65
857.785	37.01
858.077	32
858.369	23.18
858.661	23.81
858.953	3.3
859.245	-1.25
859.537	-1.4
859.829	29.71
860.12	9.63
860.412	15.1
860.703	-3.67
860.995	3.36
861.286	16.79
861.578	30.77
861.869	17.46
862.16	28.53
862.452	9.08
862.743	13.84
863.034	32.38
863.325	9.94
863.616	33.3
863.907	22.35
864.198	18.58
864.488	11.81
864.779	40.85
865.07	9.43
865.36	21.06
865.651	24.07
865.941	3.23
866.232	13.51
866.522	22.51
866.813	33.82
867.103	37.59
867.393	20.12
867.683	12.67
867.973	30.92
868.263	22.73
868.553	18.04
868.843	36.77
869.133	10.46
869.423	21.74
869.713	6.23
870.002	38.74
870.292	-10.98
870.582	18.42
870.871	5.53
871.161	28.46
871.45	44.9
871.739	17.91
872.029	-1.6
872.318	15.44
872.607	16.29
872.896	29.9
873.185	24.68
873.474	15.21
873.763	15.13
874.052	11.99
874.341	20.43
874.63	16.95
874.918	25.78
875.207	32.91
875.496	4.79
875.784	14.43
876.073	26.48
876.361	20.89
876.649	-22.82
876.938	37.31
877.226	48.31
877.514	42.32
877.802	14.8
878.09	13.72
878.378	17.12
878.666	6.02
878.954	18.61
879.242	16.43
879.53	20.87
879.817	16.39
880.105	26.04
880.392	29.24
880.68	-3.33
880.967	38.97
881.255	19.91
881.542	4.74
881.83	26.1
882.117	23.25
882.404	16.57
882.691	23.08
882.978	41.64
883.265	10.36
883.552	7.21
883.839	24.72
884.126	20.28
884.413	26.44
884.699	23.38
884.986	21.36
885.273	23.52
885.559	23.52
885.846	23.52
