Data from 001-16_crown_Reflection__3__72.txt Node

Date: Fri Nov 11 16:41:39 CST 2022
User: ToomeyLab
Spectrometer: FLMS14357
Trigger mode: 0
Integration Time (sec): 1.000000E-2
Scans to average: 100
Electric dark correction enabled: true
Nonlinearity correction enabled: false
Boxcar width: 0
XAxis mode: Wavelengths
Number of Pixels in Spectrum: 2048
>>>>>Begin Spectral Data<<<<<
189.047	61.46
189.435	61.46
189.823	61.46
190.211	-165.11
190.599	8.95
190.987	2447.46
191.375	46.85
191.763	-152.04
192.151	55.83
192.538	-813.79
192.926	-267.18
193.314	172.89
193.702	-7.35
194.089	76.48
194.477	46.61
194.864	2117.33
195.252	75.25
195.639	69.29
196.027	-4.06
196.414	153.25
196.801	2878.43
197.189	97.34
197.576	-49.08
197.963	81.48
198.351	31.04
198.738	-1.28
199.125	4.58
199.512	14.5
199.899	-10.13
200.286	24.1
200.673	-6.28
201.06	-25.33
201.447	22.15
201.833	10.85
202.22	-1.24
202.607	49.53
202.994	-16.08
203.38	-18.05
203.767	1.43
204.154	-61.65
204.54	18.44
204.927	-14.88
205.313	29.55
205.699	18.23
206.086	16.91
206.472	0.31
206.858	-11.48
207.245	11.83
207.631	2.91
208.017	4.47
208.403	5.26
208.789	-66.32
209.175	12.67
209.561	22.05
209.947	-17.19
210.333	38.64
210.719	-13.32
211.105	2.48
211.491	-129.06
211.876	17.82
212.262	-31.33
212.648	4.16
213.034	18.86
213.419	18.62
213.805	16.11
214.19	-44.15
214.576	-10.59
214.961	-12.06
215.346	-65.19
215.732	-42.28
216.117	2.07
216.502	5.88
216.888	10.4
217.273	-19.79
217.658	-19.03
218.043	-30.64
218.428	-13.06
218.813	16.29
219.198	-37.98
219.583	8.12
219.968	5.08
220.353	-34.96
220.738	25.36
221.122	-37.97
221.507	18.23
221.892	-8.6
222.276	-3.93
222.661	1.09
223.046	7.96
223.43	-6.16
223.815	-6.01
224.199	7.02
224.583	-3.46
224.968	8.17
225.352	-3.36
225.736	-5.7
226.121	0.93
226.505	2.97
226.889	2.56
227.273	6.51
227.657	-4.87
228.041	-2.97
228.425	3.65
228.809	5.83
229.193	-1.29
229.577	3.35
229.961	1.8
230.344	2.35
230.728	2.11
231.112	2.46
231.495	1.99
231.879	1.78
232.263	-0.32
232.646	1.24
233.03	0.17
233.413	0.65
233.797	1.19
234.18	2.27
234.563	0.66
234.946	0.34
235.33	2.12
235.713	2.12
236.096	-0.93
236.479	1.4
236.862	3.36
237.245	2.59
237.628	3.37
238.011	3.4
238.394	2.06
238.777	0.2
239.16	2.67
239.543	1.82
239.925	3.15
240.308	0.58
240.691	1.47
241.073	3.05
241.456	1.41
241.838	2.77
242.221	2.22
242.603	1.18
242.986	2.02
243.368	2.29
243.75	2.1
244.133	1.74
244.515	2.39
244.897	1.7
245.279	1.62
245.661	1.75
246.043	2.41
246.425	2.33
246.807	2.11
247.189	1.34
247.571	1.27
247.953	1.75
248.335	2.17
248.717	2.16
249.098	2.26
249.48	2.33
249.862	2.09
250.243	1.92
250.625	2.07
251.006	2.45
251.388	1.5
251.769	2.37
252.151	2.7
252.532	2.33
252.913	1.21
253.295	1.59
253.676	2
254.057	1.53
254.438	2.07
254.819	1.71
255.2	3.05
255.581	2.7
255.962	1.48
256.343	2.82
256.724	1.81
257.105	1.81
257.486	2.42
257.867	1.73
258.247	2.38
258.628	2.57
259.009	2.27
259.389	1.83
259.77	2.42
260.15	2.08
260.531	1.54
260.911	1.63
261.292	2.07
261.672	1.91
262.052	2.16
262.432	2.5
262.813	1.99
263.193	2.09
263.573	2.64
263.953	1.79
264.333	2.29
264.713	1.59
265.093	2.57
265.473	2.68
265.853	1.05
266.233	1.29
266.612	1.46
266.992	2.21
267.372	1.8
267.752	2.1
268.131	2.09
268.511	2.1
268.89	2.93
269.27	1.49
269.649	1.36
270.029	1.3
270.408	1.67
270.787	2.4
271.167	1.66
271.546	2.7
271.925	2.34
272.304	2.83
272.683	2.21
273.062	2.24
273.441	1.64
273.82	1.43
274.199	2.2
274.578	2.36
274.957	1.87
275.336	2.07
275.715	1.81
276.093	2.42
276.472	1.84
276.851	2.05
277.229	1.63
277.608	1.88
277.986	1.92
278.365	2.58
278.743	1.91
279.122	1.7
279.5	0.94
279.878	1.47
280.257	2.47
280.635	2.3
281.013	1.68
281.391	1.89
281.769	2.28
282.147	1.86
282.525	1.69
282.903	2.09
283.281	1.6
283.659	1.49
284.037	1.54
284.415	1.86
284.792	1.98
285.17	1.09
285.548	1.98
285.925	1.98
286.303	1.7
286.68	1.72
287.058	1.74
287.435	2.06
287.813	1.94
288.19	2.05
288.567	1.97
288.945	1.89
289.322	1.69
289.699	2.11
290.076	1.53
290.453	1.42
290.83	2.15
291.207	1.94
291.584	1.68
291.961	2.05
292.338	2.29
292.715	2.16
293.092	1.88
293.469	1.83
293.845	2.2
294.222	2.46
294.599	2.3
294.975	1.73
295.352	1.66
295.728	2.17
296.105	2.32
296.481	1.47
296.858	2.01
297.234	1.75
297.61	1.63
297.986	1.44
298.363	2.24
298.739	2.02
299.115	1.77
299.491	2.07
299.867	1.73
300.243	1.55
300.619	2.17
300.995	1.86
301.371	1.64
301.746	2.01
302.122	1.81
302.498	1.44
302.874	1.79
303.249	1.68
303.625	1.75
304	1.62
304.376	2.15
304.751	2.34
305.127	2.2
305.502	1.71
305.878	1.91
306.253	1.94
306.628	2.48
307.003	1.71
307.378	1.78
307.754	1.75
308.129	2.47
308.504	1.62
308.879	1.82
309.254	1.65
309.629	1.71
310.003	1.79
310.378	1.12
310.753	1.47
311.128	2
311.502	1.28
311.877	2.05
312.252	1.59
312.626	1.69
313.001	1.75
313.375	1.9
313.75	1.76
314.124	1.81
314.498	2.58
314.873	2
315.247	1.91
315.621	1.22
315.995	1.87
316.369	1.69
316.743	1.35
317.117	1.77
317.491	2.05
317.865	2.21
318.239	1.98
318.613	1.75
318.987	2
319.361	1.7
319.734	0.93
320.108	2.06
320.482	1.86
320.855	1.72
321.229	2.49
321.602	1.9
321.976	1.4
322.349	2.16
322.723	1.73
323.096	2.1
323.469	2.06
323.843	2.31
324.216	1.8
324.589	1.93
324.962	1.86
325.335	2.35
325.708	1.87
326.081	1.76
326.454	2.13
326.827	1.84
327.2	1.73
327.573	2.23
327.945	1.9
328.318	2.4
328.691	2.28
329.063	2.1
329.436	2.17
329.809	1.76
330.181	2.24
330.553	1.51
330.926	1.71
331.298	1.93
331.671	1.91
332.043	2.32
332.415	1.72
332.787	2.42
333.159	2.02
333.532	1.51
333.904	1.48
334.276	1.85
334.648	2.04
335.02	2.05
335.391	1.97
335.763	2.26
336.135	2.17
336.507	1.97
336.879	1.97
337.25	1.42
337.622	2.37
337.993	2.08
338.365	1.94
338.736	2.04
339.108	1.79
339.479	1.98
339.851	1.75
340.222	1.74
340.593	1.27
340.964	2.01
341.336	1.71
341.707	1.86
342.078	1.73
342.449	2.22
342.82	1.86
343.191	2.16
343.562	2.21
343.933	1.65
344.303	2.27
344.674	2.34
345.045	2
345.416	1.84
345.786	2.02
346.157	1.96
346.527	1.98
346.898	1.92
347.268	2.15
347.639	2.21
348.009	2.28
348.38	2.32
348.75	2.24
349.12	2.26
349.49	2.07
349.861	1.8
350.231	2.12
350.601	2.31
350.971	2.35
351.341	1.91
351.711	2.2
352.081	1.44
352.45	2.03
352.82	2.23
353.19	1.96
353.56	2.12
353.929	2.29
354.299	2.28
354.669	2.08
355.038	2.05
355.408	1.79
355.777	1.99
356.147	1.94
356.516	2.17
356.885	2.04
357.254	1.81
357.624	2.01
357.993	2.15
358.362	2.01
358.731	1.94
359.1	2.05
359.469	2.02
359.838	2.39
360.207	2.11
360.576	2.37
360.945	2.34
361.314	2.31
361.682	2.06
362.051	2.04
362.42	1.89
362.788	1.89
363.157	2.07
363.525	2.09
363.894	2.19
364.262	2.1
364.631	1.99
364.999	2.03
365.367	2.27
365.735	2.15
366.104	2.01
366.472	2.05
366.84	2.17
367.208	2.08
367.576	2.03
367.944	2.65
368.312	2.14
368.68	2.26
369.048	2.22
369.416	2.01
369.783	1.79
370.151	1.92
370.519	2.25
370.886	2.11
371.254	2.23
371.621	2.33
371.989	2.19
372.356	2.25
372.724	2.42
373.091	2.11
373.458	1.84
373.826	2.37
374.193	2.35
374.56	2.13
374.927	1.88
375.294	2.09
375.661	2.41
376.028	2.04
376.395	2.22
376.762	1.96
377.129	2.12
377.496	2.43
377.863	2.01
378.229	2.3
378.596	2.06
378.963	1.89
379.329	2.07
379.696	2.13
380.062	2.28
380.429	2.11
380.795	2.45
381.161	2.41
381.528	2.29
381.894	2.39
382.26	2.08
382.626	2.14
382.993	2.33
383.359	2.11
383.725	2.46
384.091	2.24
384.457	2.38
384.823	2.24
385.188	2.14
385.554	2.54
385.92	1.92
386.286	2.09
386.651	2.02
387.017	2.08
387.383	2.24
387.748	2.12
388.114	2.42
388.479	2.29
388.845	2.22
389.21	2.33
389.575	2.06
389.94	2.38
390.306	1.97
390.671	2.16
391.036	2.45
391.401	2.19
391.766	2.28
392.131	1.78
392.496	2.12
392.861	2.14
393.226	2.22
393.591	2.22
393.956	2.37
394.32	2.38
394.685	2.45
395.05	2.39
395.414	2.41
395.779	2.32
396.143	2.33
396.508	2.23
396.872	2.39
397.236	2.39
397.601	2.48
397.965	2.38
398.329	2.3
398.694	2.05
399.058	2.11
399.422	2.38
399.786	2.39
400.15	2.21
400.514	2.3
400.878	2.38
401.242	2.5
401.605	2.23
401.969	2.45
402.333	2.36
402.697	2.33
403.06	2.32
403.424	2.14
403.787	2.36
404.151	2.2
404.514	2.29
404.878	2.29
405.241	2.43
405.604	2.19
405.968	2.39
406.331	2.13
406.694	2.4
407.057	2.26
407.42	2.34
407.783	2.25
408.146	2.51
408.509	2.3
408.872	2.43
409.235	2.34
409.598	2.22
409.961	2.35
410.323	2.26
410.686	2.37
411.049	2.6
411.411	2.49
411.774	2.21
412.136	2.3
412.499	2.39
412.861	2.28
413.223	2.38
413.586	2.28
413.948	2.19
414.31	2.47
414.672	2.47
415.035	2.45
415.397	2.5
415.759	2.52
416.121	2.32
416.483	2.28
416.845	2.26
417.206	2.44
417.568	2.33
417.93	2.42
418.292	2.3
418.653	2.34
419.015	2.26
419.377	2.36
419.738	2.45
420.1	2.35
420.461	2.33
420.822	2.32
421.184	2.14
421.545	2.27
421.906	2.29
422.267	2.39
422.629	2.32
422.99	2.22
423.351	2.32
423.712	2.29
424.073	2.32
424.434	2.36
424.795	2.49
425.155	2.41
425.516	2.32
425.877	2.35
426.238	2.24
426.598	2.36
426.959	2.4
427.32	2.39
427.68	2.29
428.041	2.5
428.401	2.22
428.761	2.21
429.122	2.52
429.482	2.53
429.842	2.35
430.202	2.36
430.563	2.41
430.923	2.39
431.283	2.42
431.643	2.43
432.003	2.65
432.363	2.47
432.722	2.32
433.082	2.51
433.442	2.36
433.802	2.41
434.161	2.42
434.521	2.45
434.881	2.28
435.24	2.39
435.6	2.44
435.959	2.44
436.319	2.27
436.678	2.3
437.037	2.39
437.396	2.28
437.756	2.29
438.115	2.18
438.474	2.24
438.833	2.48
439.192	2.33
439.551	2.14
439.91	2.31
440.269	2.49
440.628	2.36
440.987	2.55
441.345	2.36
441.704	2.34
442.063	2.51
442.421	2.32
442.78	2.34
443.138	2.41
443.497	2.31
443.855	2.45
444.214	2.31
444.572	2.45
444.93	2.58
445.288	2.63
445.647	2.2
446.005	2.37
446.363	2.36
446.721	2.25
447.079	2.38
447.437	2.4
447.795	2.37
448.153	2.4
448.51	2.36
448.868	2.4
449.226	2.45
449.584	2.44
449.941	2.38
450.299	2.43
450.656	2.46
451.014	2.41
451.371	2.44
451.729	2.34
452.086	2.53
452.443	2.56
452.801	2.48
453.158	2.42
453.515	2.46
453.872	2.48
454.229	2.36
454.586	2.34
454.943	2.56
455.3	2.36
455.657	2.45
456.014	2.37
456.371	2.38
456.727	2.45
457.084	2.42
457.441	2.39
457.797	2.46
458.154	2.47
458.51	2.46
458.867	2.55
459.223	2.44
459.58	2.52
459.936	2.54
460.292	2.34
460.648	2.36
461.005	2.53
461.361	2.38
461.717	2.44
462.073	2.5
462.429	2.48
462.785	2.44
463.141	2.43
463.496	2.44
463.852	2.48
464.208	2.47
464.564	2.56
464.919	2.38
465.275	2.66
465.631	2.81
465.986	2.58
466.342	2.62
466.697	2.49
467.052	2.59
467.408	2.44
467.763	2.35
468.118	2.56
468.473	2.49
468.829	2.53
469.184	2.69
469.539	2.54
469.894	2.38
470.249	2.49
470.603	2.49
470.958	2.67
471.313	2.43
471.668	2.48
472.023	2.72
472.377	2.55
472.732	2.62
473.086	2.59
473.441	2.49
473.795	2.55
474.15	2.51
474.504	2.54
474.859	2.5
475.213	2.53
475.567	2.55
475.921	2.65
476.275	2.6
476.63	2.46
476.984	2.48
477.338	2.49
477.692	2.43
478.045	2.42
478.399	2.47
478.753	2.55
479.107	2.45
479.461	2.56
479.814	2.5
480.168	2.52
480.521	2.41
480.875	2.58
481.228	2.53
481.582	2.52
481.935	2.41
482.289	2.59
482.642	2.53
482.995	2.64
483.348	2.41
483.701	2.54
484.055	2.49
484.408	2.43
484.761	2.36
485.114	2.39
485.466	2.28
485.819	2.3
486.172	2.36
486.525	2.42
486.878	2.45
487.23	2.51
487.583	2.52
487.936	2.51
488.288	2.42
488.641	2.51
488.993	2.39
489.345	2.39
489.698	2.41
490.05	2.4
490.402	2.47
490.754	2.54
491.107	2.52
491.459	2.54
491.811	2.49
492.163	2.51
492.515	2.46
492.866	2.38
493.218	2.31
493.57	2.36
493.922	2.48
494.274	2.48
494.625	2.48
494.977	2.5
495.328	2.6
495.68	2.5
496.031	2.54
496.383	2.66
496.734	2.56
497.086	2.62
497.437	2.57
497.788	2.58
498.139	2.58
498.49	2.47
498.842	2.62
499.193	2.6
499.544	2.56
499.894	2.56
500.245	2.6
500.596	2.57
500.947	2.5
501.298	2.62
501.648	2.68
501.999	2.67
502.35	2.47
502.7	2.69
503.051	2.62
503.401	2.65
503.752	2.56
504.102	2.62
504.452	2.63
504.803	2.57
505.153	2.61
505.503	2.57
505.853	2.71
506.203	2.58
506.553	2.65
506.903	2.59
507.253	2.66
507.603	2.67
507.953	2.68
508.303	2.74
508.652	2.54
509.002	2.54
509.352	2.68
509.701	2.58
510.051	2.55
510.4	2.6
510.75	2.58
511.099	2.6
511.449	2.61
511.798	2.58
512.147	2.56
512.496	2.61
512.846	2.58
513.195	2.59
513.544	2.62
513.893	2.68
514.242	2.63
514.591	2.61
514.939	2.56
515.288	2.51
515.637	2.52
515.986	2.75
516.334	2.68
516.683	2.69
517.032	2.57
517.38	2.57
517.729	2.68
518.077	2.62
518.426	2.7
518.774	2.6
519.122	2.54
519.47	2.47
519.819	2.57
520.167	2.5
520.515	2.59
520.863	2.64
521.211	2.62
521.559	2.58
521.907	2.71
522.255	2.74
522.602	2.62
522.95	2.63
523.298	2.6
523.645	2.66
523.993	2.68
524.341	2.69
524.688	2.65
525.036	2.61
525.383	2.68
525.73	2.54
526.078	2.63
526.425	2.47
526.772	2.53
527.119	2.56
527.466	2.5
527.814	2.57
528.161	2.54
528.508	2.53
528.854	2.57
529.201	2.59
529.548	2.53
529.895	2.38
530.242	2.39
530.588	2.42
530.935	2.48
531.282	2.54
531.628	2.53
531.975	2.53
532.321	2.57
532.667	2.53
533.014	2.55
533.36	2.5
533.706	2.58
534.052	2.58
534.399	2.5
534.745	2.51
535.091	2.47
535.437	2.43
535.783	2.53
536.129	2.51
536.474	2.64
536.82	2.55
537.166	2.66
537.512	2.64
537.857	2.65
538.203	2.53
538.549	2.52
538.894	2.56
539.239	2.64
539.585	2.54
539.93	2.66
540.276	2.63
540.621	2.68
540.966	2.62
541.311	2.56
541.656	2.51
542.001	2.61
542.346	2.63
542.691	2.43
543.036	2.43
543.381	2.51
543.726	2.51
544.071	2.56
544.415	2.56
544.76	2.53
545.105	2.63
545.449	2.59
545.794	2.64
546.138	2.65
546.483	2.58
546.827	2.61
547.171	2.67
547.516	2.47
547.86	2.56
548.204	2.6
548.548	2.48
548.892	2.64
549.236	2.68
549.58	2.75
549.924	2.7
550.268	2.75
550.612	2.66
550.956	2.74
551.3	2.82
551.643	2.64
551.987	2.59
552.33	2.65
552.674	2.64
553.017	2.7
553.361	2.62
553.704	2.65
554.048	2.66
554.391	2.65
554.734	2.55
555.077	2.65
555.42	2.64
555.764	2.7
556.107	2.74
556.45	2.62
556.793	2.68
557.135	2.78
557.478	2.49
557.821	2.72
558.164	2.72
558.507	2.57
558.849	2.63
559.192	2.65
559.534	2.76
559.877	2.76
560.219	2.74
560.562	2.84
560.904	2.64
561.246	2.59
561.589	2.66
561.931	2.61
562.273	2.72
562.615	2.57
562.957	2.6
563.299	2.66
563.641	2.57
563.983	2.59
564.325	2.43
564.667	2.73
565.008	2.66
565.35	2.88
565.692	2.57
566.033	2.76
566.375	2.68
566.716	2.64
567.058	2.56
567.399	2.66
567.741	2.78
568.082	2.71
568.423	2.73
568.764	2.71
569.105	2.61
569.447	2.57
569.788	2.8
570.129	2.57
570.47	2.64
570.811	2.79
571.151	2.72
571.492	2.84
571.833	2.62
572.174	2.59
572.514	2.78
572.855	2.63
573.195	2.61
573.536	2.56
573.876	2.72
574.217	2.61
574.557	2.46
574.898	2.59
575.238	2.7
575.578	2.6
575.918	2.57
576.258	2.67
576.598	2.65
576.938	2.45
577.278	2.69
577.618	2.79
577.958	2.69
578.298	2.84
578.638	2.76
578.977	2.75
579.317	2.59
579.657	2.78
579.996	2.74
580.336	2.79
580.675	2.61
581.014	2.73
581.354	2.93
581.693	2.57
582.032	2.77
582.372	2.68
582.711	2.84
583.05	2.73
583.389	2.78
583.728	2.62
584.067	2.66
584.406	2.79
584.745	2.67
585.083	2.81
585.422	2.64
585.761	2.85
586.1	2.78
586.438	2.79
586.777	2.85
587.115	2.8
587.454	2.75
587.792	2.79
588.13	2.72
588.469	2.76
588.807	2.8
589.145	2.95
589.483	2.69
589.821	2.53
590.159	2.57
590.497	2.67
590.835	2.66
591.173	2.82
591.511	2.81
591.849	2.51
592.187	2.55
592.524	2.69
592.862	2.95
593.2	3.15
593.537	2.44
593.875	2.85
594.212	2.87
594.55	2.72
594.887	2.8
595.224	2.66
595.561	2.91
595.899	2.61
596.236	2.54
596.573	2.48
596.91	2.74
597.247	2.5
597.584	2.62
597.921	2.83
598.258	2.57
598.594	2.65
598.931	2.89
599.268	2.6
599.604	2.83
599.941	2.8
600.277	2.58
600.614	3.08
600.95	2.74
601.287	2.88
601.623	2.8
601.959	2.39
602.296	2.73
602.632	2.87
602.968	2.79
603.304	2.83
603.64	2.64
603.976	2.79
604.312	2.69
604.648	2.34
604.984	2.68
605.319	2.59
605.655	2.63
605.991	2.56
606.326	2.66
606.662	2.64
606.998	2.79
607.333	2.75
607.668	2.74
608.004	2.66
608.339	2.87
608.674	2.73
609.01	2.39
609.345	2.62
609.68	3
610.015	2.77
610.35	2.76
610.685	2.72
611.02	2.93
611.355	2.58
611.689	2.75
612.024	2.83
612.359	2.58
612.694	2.66
613.028	2.48
613.363	2.68
613.697	2.74
614.032	2.87
614.366	2.79
614.7	2.88
615.035	2.75
615.369	3.02
615.703	2.99
616.037	2.8
616.371	2.91
616.705	2.71
617.039	2.75
617.373	2.95
617.707	2.85
618.041	2.4
618.375	3.27
618.709	2.58
619.042	2.56
619.376	2.78
619.71	2.92
620.043	3.04
620.377	2.62
620.71	2.62
621.043	2.71
621.377	2.8
621.71	2.83
622.043	2.62
622.376	2.65
622.709	2.95
623.043	2.56
623.376	2.73
623.709	2.59
624.041	2.76
624.374	2.66
624.707	2.56
625.04	2.7
625.373	2.8
625.705	2.73
626.038	2.98
626.37	2.73
626.703	2.68
627.035	2.75
627.368	2.81
627.7	2.69
628.032	2.72
628.365	3.21
628.697	3.05
629.029	2.83
629.361	2.59
629.693	2.46
630.025	2.55
630.357	2.38
630.689	2.88
631.021	2.6
631.353	2.58
631.684	2.91
632.016	2.86
632.348	2.74
632.679	2.85
633.011	2.89
633.342	2.55
633.674	2.74
634.005	2.72
634.336	2.63
634.668	2.87
634.999	2.61
635.33	2.65
635.661	2.68
635.992	2.87
636.323	3.05
636.654	3.16
636.985	3.2
637.316	2.93
637.647	2.65
637.977	2.49
638.308	2.83
638.639	2.71
638.969	2.95
639.3	2.43
639.63	2.91
639.961	2.62
640.291	2.64
640.622	2.87
640.952	2.69
641.282	3.15
641.612	2.94
641.943	2.85
642.273	2.82
642.603	2.41
642.933	2.66
643.263	2.41
643.592	3.04
643.922	2.56
644.252	2.74
644.582	2.88
644.911	2.78
645.241	3.17
645.571	2.79
645.9	3.02
646.23	2.76
646.559	2.59
646.888	3.02
647.218	2.66
647.547	3.08
647.876	2.77
648.205	2.93
648.534	2.46
648.863	3.02
649.192	2.78
649.521	2.87
649.85	2.8
650.179	3.08
650.508	3.07
650.837	3.06
651.165	2.99
651.494	3.14
651.822	2.76
652.151	2.82
652.479	2.79
652.808	2.98
653.136	2.65
653.465	2.86
653.793	2.89
654.121	3.21
654.449	2.85
654.777	2.73
655.105	3.06
655.433	2.34
655.761	2.59
656.089	2.87
656.417	3
656.745	2.86
657.073	3.26
657.4	3.15
657.728	3.14
658.056	2.81
658.383	2.95
658.711	3.26
659.038	2.75
659.365	2.76
659.693	2.33
660.02	3.04
660.347	3
660.674	2.47
661.001	3.02
661.329	2.66
661.656	2.91
661.982	2.96
662.309	3.03
662.636	2.86
662.963	2.89
663.29	3.12
663.616	3.34
663.943	3.14
664.27	3.27
664.596	2.79
664.923	3.41
665.249	3.14
665.576	2.87
665.902	2.94
666.228	2.56
666.554	2.91
666.881	2.92
667.207	2.84
667.533	3.12
667.859	2.5
668.185	3.22
668.511	3.02
668.837	3.27
669.162	2.94
669.488	2.93
669.814	2.41
670.139	3.18
670.465	3.08
670.791	2.67
671.116	2.71
671.442	2.82
671.767	3.07
672.092	2.36
672.418	3.05
672.743	2.66
673.068	2.82
673.393	2.34
673.718	2.58
674.043	3.22
674.368	2.37
674.693	2.55
675.018	3.19
675.343	2.99
675.667	3.25
675.992	2.97
676.317	2.73
676.641	3.76
676.966	2.22
677.29	2.2
677.615	3.09
677.939	3.31
678.264	2.55
678.588	3.23
678.912	3.29
679.236	3.19
679.56	2.99
679.885	3.09
680.209	2.76
680.532	2.28
680.856	3.56
681.18	2.81
681.504	3.42
681.828	2.89
682.152	3.39
682.475	2.51
682.799	2.64
683.122	2.75
683.446	2.82
683.769	3.36
684.093	2.88
684.416	3.08
684.739	3.28
685.062	2.98
685.386	2.8
685.709	3.38
686.032	3.4
686.355	2.47
686.678	3.28
687.001	3.76
687.324	2.71
687.646	2.24
687.969	2.81
688.292	3.06
688.614	2.49
688.937	3.17
689.26	3.25
689.582	2.91
689.904	3.11
690.227	3.41
690.549	2.95
690.871	3.03
691.194	2.68
691.516	3.26
691.838	3.08
692.16	3.14
692.482	2.81
692.804	3.12
693.126	2.99
693.448	3.15
693.769	3.45
694.091	3.25
694.413	3.05
694.735	2.56
695.056	2.75
695.378	2.18
695.699	2.94
696.021	3.01
696.342	3.54
696.663	3.43
696.984	2.48
697.306	3.29
697.627	2.81
697.948	3.08
698.269	3.06
698.59	3.24
698.911	2.97
699.232	3.56
699.553	3.38
699.873	2.79
700.194	2.54
700.515	3.07
700.835	3.12
701.156	3.37
701.477	3.71
701.797	3
702.117	2.81
702.438	2.99
702.758	3.24
703.078	2.7
703.398	2.51
703.719	3.73
704.039	3.29
704.359	2.98
704.679	1.59
704.999	3.47
705.319	2.6
705.638	3.12
705.958	2.76
706.278	3.61
706.597	3.13
706.917	1.89
707.237	3.7
707.556	3.01
707.876	3.65
708.195	2.1
708.514	3.23
708.834	2.7
709.153	3.38
709.472	2.81
709.791	2.99
710.11	3.37
710.429	2.41
710.748	3.41
711.067	3.22
711.386	3.7
711.705	2.69
712.023	2.57
712.342	3.08
712.661	2.98
712.979	3.62
713.298	3.68
713.616	2.74
713.935	3.61
714.253	2.93
714.572	2.97
714.89	3.82
715.208	3.83
715.526	2.99
715.844	3.49
716.162	2.38
716.48	2.5
716.798	2.55
717.116	2.68
717.434	3.04
717.752	3.37
718.069	3.1
718.387	3.65
718.705	3.07
719.022	3.46
719.34	2.81
719.657	3.52
719.975	2.81
720.292	2.91
720.609	2.46
720.927	4.11
721.244	3.73
721.561	3.73
721.878	3.92
722.195	3.69
722.512	3.58
722.829	3.58
723.146	3.38
723.463	2.57
723.779	3.6
724.096	1.77
724.413	2.45
724.729	2.19
725.046	3.48
725.362	3.84
725.679	2.89
725.995	3.17
726.311	3.93
726.628	3.18
726.944	3.91
727.26	3.95
727.576	2.64
727.892	3.21
728.208	3.53
728.524	3.36
728.84	3.45
729.156	3.25
729.472	2.33
729.787	3.16
730.103	3.93
730.419	3.49
730.734	2.65
731.05	3.28
731.365	2.31
731.681	2.29
731.996	2.79
732.311	2.97
732.626	3.72
732.942	3.89
733.257	3.38
733.572	5.49
733.887	3.29
734.202	3.61
734.517	3.53
734.832	3.71
735.146	2.34
735.461	2
735.776	3.7
736.091	3.42
736.405	4.9
736.72	2.8
737.034	2.3
737.349	4.17
737.663	1.82
737.977	4.33
738.292	1.31
738.606	3.04
738.92	3.23
739.234	3.71
739.548	2.77
739.862	3.25
740.176	3.56
740.49	3.44
740.804	3.41
741.117	2.13
741.431	3.82
741.745	2.91
742.058	4.49
742.372	3.5
742.685	3.82
742.999	2.66
743.312	2.86
743.626	3.6
743.939	1.93
744.252	1.27
744.565	4.35
744.878	2.27
745.191	4.7
745.505	3.44
745.817	2.84
746.13	3.26
746.443	3.26
746.756	3.9
747.069	4.59
747.381	2.15
747.694	4.62
748.007	3.22
748.319	3.75
748.632	4.62
748.944	4.43
749.256	4.25
749.569	4.75
749.881	4.48
750.193	4.92
750.505	1.96
750.817	2.5
751.129	1.99
751.441	4.7
751.753	5.07
752.065	3.35
752.377	3.9
752.689	2.06
753	5.64
753.312	2.05
753.624	2.46
753.935	2.91
754.247	2.25
754.558	2.19
754.869	2.2
755.181	3.87
755.492	2.48
755.803	3.74
756.114	4.41
756.425	4.13
756.736	0.9
757.047	3.88
757.358	4.01
757.669	4.9
757.98	3.74
758.291	2.2
758.601	4.59
758.912	1.87
759.223	4.08
759.533	2.83
759.844	3.32
760.154	3.32
760.464	3.02
760.775	4.55
761.085	2.45
761.395	1.46
761.705	3
762.016	2.81
762.326	5.46
762.636	5.04
762.945	3.93
763.255	3.86
763.565	3.25
763.875	4.63
764.185	4.07
764.494	2.17
764.804	2.73
765.113	3.32
765.423	3.9
765.732	3.19
766.042	3.37
766.351	3.29
766.66	3.43
766.97	2.56
767.279	3.88
767.588	4.72
767.897	4.24
768.206	4.94
768.515	3.09
768.824	3.03
769.133	4.49
769.441	3.59
769.75	2.67
770.059	2.13
770.367	4.26
770.676	3.24
770.984	4.06
771.293	2.25
771.601	2.61
771.91	3.13
772.218	6.61
772.526	5.4
772.834	1.28
773.142	0.98
773.45	3.14
773.758	0.59
774.066	2.7
774.374	0.82
774.682	3.32
774.99	0.55
775.298	4.77
775.605	1.64
775.913	4.08
776.22	2.9
776.528	5.29
776.835	5.89
777.143	1.97
777.45	1.39
777.757	3.39
778.065	5.64
778.372	4.6
778.679	3.28
778.986	1.86
779.293	3.3
779.6	3.27
779.907	3.29
780.214	2.98
780.52	5.35
780.827	4.42
781.134	3.26
781.44	1.77
781.747	4.42
782.053	4.25
782.36	3.36
782.666	6.67
782.973	5.62
783.279	0.24
783.585	2.73
783.891	1.28
784.197	2.27
784.503	1.84
784.809	3.03
785.115	4.65
785.421	6.39
785.727	-0.62
786.033	2.31
786.339	4.92
786.644	3.49
786.95	0.16
787.255	0.4
787.561	8.57
787.866	4.51
788.172	0.61
788.477	4.83
788.782	4.71
789.088	3.69
789.393	5.17
789.698	5.77
790.003	3.47
790.308	5.86
790.613	2.89
790.918	-0.63
791.223	4.85
791.527	1.77
791.832	5.06
792.137	5.45
792.441	3.63
792.746	2.31
793.05	3.48
793.355	3.64
793.659	3.71
793.963	5.4
794.268	4.04
794.572	4.3
794.876	5.12
795.18	5.95
795.484	5.25
795.788	2.6
796.092	4.36
796.396	2.27
796.7	1.92
797.004	-0.03
797.307	3.16
797.611	2.03
797.915	7.49
798.218	5.18
798.522	-0.01
798.825	2.35
799.128	6.28
799.432	7.81
799.735	2.49
800.038	6.64
800.341	2.81
800.644	-0.48
800.947	3.03
801.25	2.83
801.553	2.71
801.856	4.14
802.159	8.17
802.462	5.88
802.764	6.49
803.067	5.52
803.37	-2.01
803.672	4.33
803.975	9.84
804.277	-0.19
804.579	3.69
804.882	8.33
805.184	2.56
805.486	-2.22
805.788	5.83
806.09	4.15
806.392	-0.29
806.694	0.76
806.996	5.65
807.298	6.95
807.6	3.6
807.902	1.29
808.203	2.48
808.505	-1.11
808.807	2.56
809.108	1.11
809.409	4.06
809.711	2.61
810.012	3.51
810.313	6.31
810.615	-0.14
810.916	5.51
811.217	2.77
811.518	-3.26
811.819	1.21
812.12	3.71
812.421	1.2
812.722	0.7
813.023	1.22
813.323	-0.89
813.624	-2.07
813.925	3.35
814.225	8.17
814.526	3.04
814.826	9.63
815.126	-0.13
815.427	1.52
815.727	-0.93
816.027	5.71
816.327	4.28
816.627	3.1
816.927	3.13
817.227	-3.06
817.527	-1.56
817.827	-6.54
818.127	4.63
818.427	1.44
818.727	-4.97
819.026	1.83
819.326	2.71
819.625	0.34
819.925	5.66
820.224	9.96
820.524	-2.8
820.823	9.46
821.122	5.31
821.421	1.92
821.72	3.41
822.019	0.72
822.318	0.02
822.617	0.89
822.916	2.02
823.215	4.63
823.514	1.47
823.813	3.44
824.111	4.93
824.41	3.44
824.709	4.23
825.007	4.08
825.306	4.45
825.604	5.19
825.902	4.53
826.201	5.02
826.499	5
826.797	5.15
827.095	4.3
827.393	6.05
827.691	5.7
827.989	4.56
828.287	5.59
828.585	4.69
828.882	3.69
829.18	3.33
829.478	4.64
829.775	2.56
830.073	4.82
830.37	4.61
830.668	4.89
830.965	5.79
831.263	6.63
831.56	5.83
831.857	2.89
832.154	6.69
832.451	5.42
832.748	3.16
833.045	3.2
833.342	5.82
833.639	1.13
833.936	5.31
834.232	6.1
834.529	-1.91
834.826	4.6
835.122	3.71
835.419	-1.96
835.715	2.12
836.012	3.3
836.308	4.78
836.604	-1.04
836.901	3.83
837.197	2.72
837.493	4.58
837.789	3.37
838.085	5.75
838.381	5.21
838.677	7.92
838.972	2.44
839.268	6
839.564	4.44
839.86	6.41
840.155	1.18
840.451	1.51
840.746	-3.64
841.042	2.71
841.337	0.59
841.632	5.5
841.928	5.25
842.223	0.59
842.518	1.26
842.813	-5.21
843.108	7.41
843.403	0.7
843.698	-6.94
843.993	-5.43
844.287	5.67
844.582	16.37
844.877	4.97
845.171	1.51
845.466	9.28
845.761	-3.57
846.055	15.09
846.349	2.96
846.644	7.31
846.938	-11.87
847.232	-0.96
847.526	7.44
847.82	-2.65
848.114	7.4
848.408	20.43
848.702	-1.93
848.996	3.58
849.29	-7.06
849.584	10.48
849.877	1.48
850.171	-2.68
850.465	-2.94
850.758	-12.14
851.052	-7.19
851.345	12.04
851.638	18.44
851.932	-2.91
852.225	5.86
852.518	15.93
852.811	7.46
853.104	4.28
853.397	12.42
853.69	9.15
853.983	-8.63
854.276	-1.07
854.569	9.82
854.861	8.82
855.154	-4.48
855.447	13.57
855.739	16.37
856.032	11.31
856.324	9.39
856.616	11.85
856.909	-9.02
857.201	-12.77
857.493	1.97
857.785	-9.33
858.077	0.08
858.369	13.25
858.661	-3.43
858.953	6.57
859.245	-8.4
859.537	-7.6
859.829	-1.65
860.12	-8.49
860.412	-7.71
860.703	13.34
860.995	6.28
861.286	-27.5
861.578	-4.58
861.869	-5.93
862.16	-36.34
862.452	-14.79
862.743	-12.17
863.034	6.76
863.325	18.11
863.616	-1.47
863.907	15.22
864.198	-10.67
864.488	6.29
864.779	-3.06
865.07	-1.99
865.36	-8.16
865.651	4.59
865.941	14.4
866.232	-5.11
866.522	-10.7
866.813	3.64
867.103	-25.2
867.393	3.57
867.683	14.76
867.973	-13.91
868.263	13.56
868.553	-0.78
868.843	8.89
869.133	-15.97
869.423	-6.31
869.713	14.64
870.002	-2.47
870.292	8.98
870.582	13.52
870.871	-13.47
871.161	-6.01
871.45	4.88
871.739	-16.15
872.029	6.57
872.318	10.62
872.607	-13.56
872.896	-2.11
873.185	16.31
873.474	-24.87
873.763	-5.75
874.052	-7.04
874.341	21.98
874.63	18.06
874.918	1.14
875.207	-14.12
875.496	20.04
875.784	13.61
876.073	-24.01
876.361	-44.83
876.649	-19.81
876.938	-19.87
877.226	11.02
877.514	-4.5
877.802	-10.32
878.09	6.09
878.378	16.85
878.666	-17.71
878.954	-5.43
879.242	-25.75
879.53	-7.5
879.817	7.98
880.105	-29.64
880.392	8.89
880.68	1.49
880.967	-25.71
881.255	-9.19
881.542	10.03
881.83	8.8
882.117	-10.04
882.404	-9.74
882.691	3.14
882.978	-21.6
883.265	-3.05
883.552	-6.49
883.839	1.11
884.126	6.97
884.413	9.57
884.699	-0.13
884.986	6.4
885.273	4.15
885.559	4.15
885.846	4.15
