Data from 001-16_forehead_Reflection__5__79.txt Node

Date: Fri Nov 11 16:43:36 CST 2022
User: ToomeyLab
Spectrometer: FLMS14357
Trigger mode: 0
Integration Time (sec): 1.000000E-2
Scans to average: 100
Electric dark correction enabled: true
Nonlinearity correction enabled: false
Boxcar width: 0
XAxis mode: Wavelengths
Number of Pixels in Spectrum: 2048
>>>>>Begin Spectral Data<<<<<
189.047	69.15
189.435	69.15
189.823	69.15
190.211	-917.23
190.599	73.95
190.987	1173.73
191.375	-57.65
191.763	260.28
192.151	7.39
192.538	-423.4
192.926	332.24
193.314	128.31
193.702	-91.11
194.089	-76.53
194.477	137.52
194.864	1670
195.252	144.88
195.639	300.48
196.027	42.9
196.414	99.63
196.801	2659.8
197.189	67.93
197.576	-79.12
197.963	23.04
198.351	16.93
198.738	20.7
199.125	32.21
199.512	41.68
199.899	24.11
200.286	59.57
200.673	59.91
201.06	-25.34
201.447	28.82
201.833	9.08
202.22	34.38
202.607	29.42
202.994	-3.35
203.38	26.15
203.767	5.07
204.154	38.64
204.54	30.19
204.927	35.28
205.313	41.54
205.699	35.73
206.086	27.05
206.472	32.79
206.858	24.71
207.245	61.18
207.631	52.02
208.017	11.92
208.403	17.27
208.789	-46.38
209.175	25.7
209.561	34.07
209.947	11.43
210.333	39.53
210.719	29.73
211.105	17.22
211.491	-17.08
211.876	41.39
212.262	45.45
212.648	38.77
213.034	9.28
213.419	13.74
213.805	35.18
214.19	18.06
214.576	24.34
214.961	22.08
215.346	5.04
215.732	-14.63
216.117	30.73
216.502	34.09
216.888	-2.54
217.273	9.15
217.658	14.53
218.043	-1.85
218.428	-5.95
218.813	35.46
219.198	-7.98
219.583	30.05
219.968	4.7
220.353	3.17
220.738	2.72
221.122	-15.86
221.507	11.33
221.892	14.32
222.276	9.14
222.661	14.44
223.046	21.2
223.43	14.51
223.815	3.07
224.199	23.94
224.583	0.39
224.968	15.64
225.352	6.33
225.736	13.98
226.121	9.44
226.505	7.18
226.889	4.14
227.273	6.97
227.657	0.64
228.041	1.69
228.425	6.08
228.809	11.3
229.193	2.64
229.577	5.89
229.961	2.4
230.344	5.1
230.728	4.3
231.112	4.32
231.495	3.74
231.879	4.51
232.263	1.89
232.646	5.02
233.03	3.29
233.413	4.08
233.797	4.57
234.18	6.04
234.563	3.76
234.946	0.91
235.33	3.2
235.713	4.47
236.096	1.88
236.479	5.98
236.862	5.85
237.245	4.95
237.628	4.14
238.011	4.22
238.394	4.47
238.777	4.02
239.16	4.54
239.543	3.74
239.925	6.38
240.308	2.55
240.691	3.61
241.073	4.08
241.456	3.02
241.838	4.75
242.221	3.3
242.603	3.24
242.986	3.63
243.368	3.4
243.75	3.4
244.133	3.69
244.515	3.84
244.897	3.65
245.279	3.49
245.661	3.4
246.043	4.05
246.425	4.35
246.807	3.95
247.189	3.55
247.571	3.26
247.953	3.62
248.335	4.16
248.717	3.92
249.098	3.74
249.48	3.76
249.862	3.48
250.243	4
250.625	4.01
251.006	3.96
251.388	4.29
251.769	4.75
252.151	4.21
252.532	4.93
252.913	3.61
253.295	3.61
253.676	4.26
254.057	3.76
254.438	4.24
254.819	4.96
255.2	4.52
255.581	3.98
255.962	3.48
256.343	4.83
256.724	3.07
257.105	4.96
257.486	4.31
257.867	4.54
258.247	4.51
258.628	4.25
259.009	4.75
259.389	4.36
259.77	4.87
260.15	4.49
260.531	3.84
260.911	3.84
261.292	3.94
261.672	3.95
262.052	3.87
262.432	4.14
262.813	3.89
263.193	3.86
263.573	4.64
263.953	4.02
264.333	4.66
264.713	3.51
265.093	4.39
265.473	5.06
265.853	3.57
266.233	4.04
266.612	4.18
266.992	4.33
267.372	4.2
267.752	4.28
268.131	4.19
268.511	4.27
268.89	4.33
269.27	3.65
269.649	4.01
270.029	3.11
270.408	3.58
270.787	3.71
271.167	3.74
271.546	4.07
271.925	4.14
272.304	4.33
272.683	3.79
273.062	4.23
273.441	3.5
273.82	3.51
274.199	4.23
274.578	4.1
274.957	3.41
275.336	4.29
275.715	4.16
276.093	4.44
276.472	3.81
276.851	3.96
277.229	3.92
277.608	4.06
277.986	4.13
278.365	4.55
278.743	3.87
279.122	3.53
279.5	3.81
279.878	3.53
280.257	4.18
280.635	4.17
281.013	4.27
281.391	4.17
281.769	4.49
282.147	4.06
282.525	4.02
282.903	4.56
283.281	3.77
283.659	3.44
284.037	4.1
284.415	4.2
284.792	4.2
285.17	3.89
285.548	4.01
285.925	4.07
286.303	3.46
286.68	4
287.058	3.91
287.435	3.98
287.813	3.73
288.19	3.85
288.567	4.11
288.945	3.3
289.322	4.06
289.699	4.23
290.076	4.05
290.453	4.23
290.83	4.64
291.207	4.28
291.584	4.19
291.961	4.15
292.338	4.18
292.715	4.52
293.092	3.88
293.469	4.49
293.845	4.58
294.222	5.16
294.599	5.15
294.975	4.99
295.352	4.33
295.728	4.52
296.105	4.74
296.481	4.47
296.858	4.44
297.234	4.47
297.61	4.53
297.986	4.39
298.363	5
298.739	4.68
299.115	4.72
299.491	4.83
299.867	4.58
300.243	4.58
300.619	5.04
300.995	5.04
301.371	4.73
301.746	5.22
302.122	5.01
302.498	4.62
302.874	5.21
303.249	5.16
303.625	4.63
304	5.02
304.376	5.32
304.751	6.03
305.127	5.01
305.502	5.54
305.878	6.15
306.253	5.73
306.628	5.76
307.003	5.53
307.378	6.21
307.754	5.8
308.129	5.64
308.504	5.68
308.879	5.63
309.254	5.59
309.629	5.74
310.003	5.83
310.378	5.47
310.753	5.84
311.128	6.29
311.502	5.92
311.877	6.19
312.252	5.79
312.626	6.04
313.001	6.5
313.375	6.25
313.75	6.34
314.124	6.44
314.498	6.86
314.873	6.59
315.247	6.46
315.621	6.23
315.995	6.46
316.369	7.13
316.743	6.93
317.117	6.93
317.491	7.02
317.865	6.59
318.239	6.93
318.613	6.91
318.987	6.92
319.361	7.36
319.734	6.85
320.108	7.19
320.482	7.36
320.855	7.07
321.229	7.74
321.602	7.59
321.976	7.01
322.349	7.83
322.723	7.7
323.096	7.65
323.469	7.53
323.843	8.04
324.216	7.29
324.589	7.4
324.962	7.33
325.335	7.93
325.708	7.76
326.081	7.52
326.454	8.14
326.827	8.06
327.2	7.65
327.573	8.26
327.945	8.1
328.318	8.61
328.691	8.76
329.063	8.33
329.436	7.94
329.809	8.01
330.181	8.49
330.553	8.21
330.926	8.31
331.298	8.45
331.671	8.5
332.043	9.21
332.415	8.63
332.787	8.69
333.159	9.06
333.532	8.29
333.904	8.48
334.276	8.96
334.648	8.56
335.02	9.09
335.391	8.67
335.763	8.82
336.135	8.67
336.507	9.09
336.879	8.7
337.25	8.37
337.622	9.05
337.993	9.61
338.365	9.17
338.736	9.19
339.108	9.04
339.479	9.13
339.851	8.77
340.222	8.95
340.593	8.94
340.964	9.58
341.336	8.92
341.707	9.07
342.078	9.14
342.449	9.37
342.82	9.41
343.191	9.75
343.562	9.62
343.933	9.33
344.303	10.13
344.674	9.68
345.045	9.81
345.416	9.86
345.786	9.56
346.157	9.59
346.527	9.59
346.898	9.79
347.268	9.85
347.639	10.27
348.009	10.11
348.38	10.25
348.75	10.62
349.12	10.26
349.49	10.02
349.861	10.24
350.231	9.94
350.601	10.63
350.971	10.55
351.341	10.18
351.711	10.36
352.081	9.83
352.45	10.59
352.82	10.49
353.19	10.28
353.56	10.66
353.929	10.81
354.299	10.44
354.669	10.74
355.038	10.48
355.408	10.18
355.777	10.77
356.147	10.7
356.516	10.79
356.885	10.32
357.254	10.77
357.624	11.15
357.993	11
358.362	10.91
358.731	10.65
359.1	10.92
359.469	11.26
359.838	11.25
360.207	11.1
360.576	11.29
360.945	11.43
361.314	11.28
361.682	11.22
362.051	11.18
362.42	11.18
362.788	11.22
363.157	11.2
363.525	11.59
363.894	11.15
364.262	11.28
364.631	11.4
364.999	11.47
365.367	11.72
365.735	11.82
366.104	11.35
366.472	11.72
366.84	11.98
367.208	11.48
367.576	11.98
367.944	11.96
368.312	11.84
368.68	11.66
369.048	11.85
369.416	11.76
369.783	11.93
370.151	11.94
370.519	12.52
370.886	11.96
371.254	12.16
371.621	12.08
371.989	12.02
372.356	12.4
372.724	12.41
373.091	12.1
373.458	12.42
373.826	12.64
374.193	12.44
374.56	12.35
374.927	12.57
375.294	12.67
375.661	12.74
376.028	12.63
376.395	12.57
376.762	12.83
377.129	12.82
377.496	12.61
377.863	12.72
378.229	12.81
378.596	13.06
378.963	12.72
379.329	12.87
379.696	12.86
380.062	12.86
380.429	12.74
380.795	13.03
381.161	13.17
381.528	13.24
381.894	13.26
382.26	13.23
382.626	12.79
382.993	13.08
383.359	13.16
383.725	13.38
384.091	13.36
384.457	13.3
384.823	13.25
385.188	13.77
385.554	13.55
385.92	13.33
386.286	13.22
386.651	13.4
387.017	13.49
387.383	14.05
387.748	13.72
388.114	13.65
388.479	13.6
388.845	13.74
389.21	13.76
389.575	13.71
389.94	14.21
390.306	13.58
390.671	13.94
391.036	14.17
391.401	13.96
391.766	13.96
392.131	13.83
392.496	14.12
392.861	14.05
393.226	14.09
393.591	14.12
393.956	14.16
394.32	14.25
394.685	14.25
395.05	14.47
395.414	14.17
395.779	14.34
396.143	14.38
396.508	14.47
396.872	14.55
397.236	14.41
397.601	14.53
397.965	14.65
398.329	14.65
398.694	14.58
399.058	14.57
399.422	14.8
399.786	14.92
400.15	14.77
400.514	14.54
400.878	14.88
401.242	14.97
401.605	15.16
401.969	15.1
402.333	14.86
402.697	15.03
403.06	14.94
403.424	14.77
403.787	15.26
404.151	14.86
404.514	15.13
404.878	15.17
405.241	15.21
405.604	15.23
405.968	15.43
406.331	15.18
406.694	15.32
407.057	15.18
407.42	15.31
407.783	15.44
408.146	15.51
408.509	15.59
408.872	15.83
409.235	15.73
409.598	15.43
409.961	15.64
410.323	15.66
410.686	15.7
411.049	15.62
411.411	15.76
411.774	15.44
412.136	15.73
412.499	15.98
412.861	15.89
413.223	15.98
413.586	16.03
413.948	15.9
414.31	16.11
414.672	16.19
415.035	16.26
415.397	16
415.759	16.32
416.121	16.41
416.483	16.24
416.845	16.23
417.206	16.25
417.568	16.25
417.93	16.38
418.292	16.31
418.653	16.16
419.015	16.18
419.377	16.46
419.738	16.4
420.1	16.23
420.461	16.25
420.822	16.23
421.184	16.23
421.545	16.37
421.906	16.27
422.267	16.41
422.629	16.28
422.99	16.27
423.351	16.41
423.712	16.37
424.073	16.46
424.434	16.61
424.795	16.81
425.155	16.67
425.516	16.72
425.877	16.7
426.238	16.69
426.598	16.69
426.959	16.68
427.32	16.77
427.68	16.81
428.041	17.05
428.401	16.99
428.761	17.03
429.122	17.24
429.482	17.26
429.842	17.49
430.202	17.42
430.563	17.45
430.923	17.42
431.283	17.43
431.643	17.39
432.003	17.64
432.363	17.47
432.722	17.76
433.082	17.47
433.442	17.59
433.802	17.76
434.161	17.56
434.521	17.8
434.881	17.53
435.24	17.63
435.6	17.54
435.959	17.69
436.319	17.78
436.678	17.78
437.037	17.97
437.396	17.73
437.756	18
438.115	18.01
438.474	18.12
438.833	18.1
439.192	18.28
439.551	18.06
439.91	18.38
440.269	18.46
440.628	18.24
440.987	18.37
441.345	18.31
441.704	18.28
442.063	18.36
442.421	18.15
442.78	18.22
443.138	18.24
443.497	18.35
443.855	18.5
444.214	18.57
444.572	18.75
444.93	18.77
445.288	18.92
445.647	18.62
446.005	18.63
446.363	18.65
446.721	18.73
447.079	18.75
447.437	18.69
447.795	18.58
448.153	18.63
448.51	18.67
448.868	18.71
449.226	18.69
449.584	18.8
449.941	18.93
450.299	19.09
450.656	19.07
451.014	19.26
451.371	19.18
451.729	19.43
452.086	19.53
452.443	19.52
452.801	19.49
453.158	19.53
453.515	19.59
453.872	19.53
454.229	19.49
454.586	19.61
454.943	19.79
455.3	19.64
455.657	19.81
456.014	19.61
456.371	19.84
456.727	19.93
457.084	19.79
457.441	20.01
457.797	19.92
458.154	20.09
458.51	20.01
458.867	20.13
459.223	20.11
459.58	20.09
459.936	20.17
460.292	20.12
460.648	20.18
461.005	20.12
461.361	19.96
461.717	19.89
462.073	19.94
462.429	20.05
462.785	20.09
463.141	20.32
463.496	20.51
463.852	20.54
464.208	20.5
464.564	20.58
464.919	20.73
465.275	20.89
465.631	21.01
465.986	20.65
466.342	20.93
466.697	20.91
467.052	21.2
467.408	20.88
467.763	21.1
468.118	21.13
468.473	21.2
468.829	21.06
469.184	21.09
469.539	21.18
469.894	21.05
470.249	21.13
470.603	21.31
470.958	21.35
471.313	21.23
471.668	21.44
472.023	21.67
472.377	21.59
472.732	21.63
473.086	21.66
473.441	21.68
473.795	21.64
474.15	21.62
474.504	21.71
474.859	22.16
475.213	21.78
475.567	21.92
475.921	22.01
476.275	22.1
476.63	22.06
476.984	22.08
477.338	22.14
477.692	22.17
478.045	21.97
478.399	22.09
478.753	22.12
479.107	22.19
479.461	22.19
479.814	22.18
480.168	22.34
480.521	22.38
480.875	22.34
481.228	22.35
481.582	22.29
481.935	22.28
482.289	22.51
482.642	22.37
482.995	22.33
483.348	22.32
483.701	22.3
484.055	22.22
484.408	22.32
484.761	21.99
485.114	21.78
485.466	21.68
485.819	21.72
486.172	21.7
486.525	21.9
486.878	21.98
487.23	22.1
487.583	22.27
487.936	22.46
488.288	22.28
488.641	22.42
488.993	22.2
489.345	22.2
489.698	22.23
490.05	22.28
490.402	22.33
490.754	22.56
491.107	22.62
491.459	22.92
491.811	22.96
492.163	23.06
492.515	23.08
492.866	22.78
493.218	22.61
493.57	22.68
493.922	22.76
494.274	22.89
494.625	22.93
494.977	23.33
495.328	23.62
495.68	23.65
496.031	23.92
496.383	24
496.734	23.98
497.086	23.93
497.437	23.98
497.788	24.2
498.139	23.96
498.49	23.96
498.842	23.94
499.193	23.93
499.544	24.13
499.894	24.19
500.245	24.27
500.596	24.28
500.947	24.25
501.298	24.56
501.648	24.57
501.999	24.5
502.35	24.56
502.7	24.59
503.051	24.86
503.401	24.87
503.752	24.67
504.102	24.76
504.452	24.93
504.803	24.98
505.153	24.99
505.503	25.13
505.853	25.03
506.203	24.93
506.553	25.05
506.903	25.07
507.253	25.16
507.603	25.25
507.953	25.27
508.303	25.5
508.652	25.27
509.002	25.33
509.352	25.47
509.701	25.37
510.051	25.36
510.4	25.32
510.75	25.35
511.099	25.37
511.449	25.51
511.798	25.29
512.147	25.46
512.496	25.6
512.846	25.59
513.195	25.8
513.544	25.62
513.893	25.72
514.242	25.82
514.591	25.76
514.939	25.89
515.288	25.94
515.637	25.99
515.986	26.24
516.334	26.13
516.683	26.2
517.032	26.37
517.38	26.44
517.729	26.42
518.077	26.35
518.426	26.45
518.774	26.36
519.122	26.3
519.47	26.31
519.819	26.17
520.167	26.23
520.515	26.28
520.863	26.28
521.211	26.41
521.559	26.49
521.907	26.48
522.255	26.79
522.602	26.75
522.95	26.95
523.298	26.82
523.645	27.02
523.993	27.17
524.341	27.36
524.688	27.12
525.036	27.09
525.383	27.18
525.73	27.25
526.078	27.2
526.425	27.21
526.772	27.03
527.119	26.98
527.466	26.88
527.814	26.9
528.161	26.89
528.508	27.02
528.854	27.1
529.201	27.08
529.548	27.03
529.895	26.8
530.242	26.74
530.588	26.71
530.935	26.84
531.282	26.99
531.628	26.99
531.975	27.07
532.321	27.38
532.667	27.37
533.014	27.62
533.36	27.75
533.706	27.81
534.052	27.68
534.399	27.69
534.745	27.51
535.091	27.54
535.437	27.52
535.783	27.53
536.129	27.8
536.474	27.98
536.82	28.01
537.166	28.19
537.512	28.4
537.857	28.34
538.203	28.23
538.549	28.28
538.894	28.36
539.239	28.47
539.585	28.46
539.93	28.72
540.276	28.82
540.621	28.99
540.966	28.98
541.311	29
541.656	29.08
542.001	29.04
542.346	28.76
542.691	28.53
543.036	28.34
543.381	28.29
543.726	28.45
544.071	28.51
544.415	28.79
544.76	28.75
545.105	28.94
545.449	29.01
545.794	29.25
546.138	29.32
546.483	29.37
546.827	29.44
547.171	29.66
547.516	29.47
547.86	29.53
548.204	29.61
548.548	29.62
548.892	29.63
549.236	29.72
549.58	29.94
549.924	30.07
550.268	30.12
550.612	30.31
550.956	30.25
551.3	30.61
551.643	30.55
551.987	30.42
552.33	30.52
552.674	30.68
553.017	30.75
553.361	30.74
553.704	30.78
554.048	30.53
554.391	30.72
554.734	30.64
555.077	30.91
555.42	30.87
555.764	30.85
556.107	31.1
556.45	31.08
556.793	31.19
557.135	31.18
557.478	31.36
557.821	31.43
558.164	31.25
558.507	31.29
558.849	31.57
559.192	31.52
559.534	31.53
559.877	31.94
560.219	31.86
560.562	31.65
560.904	31.66
561.246	31.86
561.589	32
561.931	31.89
562.273	32.12
562.615	31.99
562.957	32.21
563.299	32.04
563.641	32.13
563.983	32.24
564.325	32.15
564.667	32.34
565.008	32.03
565.35	32.36
565.692	32.37
566.033	32.24
566.375	32.33
566.716	32.46
567.058	32.55
567.399	32.43
567.741	32.45
568.082	32.32
568.423	32.23
568.764	32.53
569.105	32.73
569.447	32.42
569.788	32.53
570.129	32.73
570.47	32.77
570.811	32.95
571.151	32.79
571.492	32.98
571.833	33.07
572.174	33.1
572.514	33.13
572.855	33
573.195	32.82
573.536	32.99
573.876	33.11
574.217	32.98
574.557	33.08
574.898	33.17
575.238	33.32
575.578	33.47
575.918	33.22
576.258	33.47
576.598	33.28
576.938	33.45
577.278	33.5
577.618	33.63
577.958	33.38
578.298	33.97
578.638	33.64
578.977	33.83
579.317	33.99
579.657	34.13
579.996	34.28
580.336	34.47
580.675	34.28
581.014	33.88
581.354	34.22
581.693	34.3
582.032	34.83
582.372	34.59
582.711	34.74
583.05	34.75
583.389	34.82
583.728	34.88
584.067	34.61
584.406	34.53
584.745	34.61
585.083	35.11
585.422	34.91
585.761	35.35
586.1	34.94
586.438	34.99
586.777	35.25
587.115	35.11
587.454	35.53
587.792	35.18
588.13	35.52
588.469	35.35
588.807	35.35
589.145	35.44
589.483	35.29
589.821	35.29
590.159	35.51
590.497	35.51
590.835	35.67
591.173	35.56
591.511	35.44
591.849	35.34
592.187	35.81
592.524	35.47
592.862	35.9
593.2	36.05
593.537	35.72
593.875	36.1
594.212	35.86
594.55	36.28
594.887	36.38
595.224	36
595.561	35.89
595.899	36.12
596.236	36.25
596.573	35.99
596.91	36.25
597.247	36.05
597.584	35.83
597.921	36.37
598.258	36.38
598.594	36.03
598.931	35.99
599.268	36.2
599.604	36.29
599.941	36.15
600.277	36.32
600.614	36.57
600.95	36.69
601.287	36.73
601.623	36.84
601.959	36.8
602.296	37.16
602.632	37.28
602.968	37.01
603.304	37.09
603.64	36.97
603.976	37.11
604.312	37.16
604.648	36.97
604.984	37.01
605.319	37.05
605.655	36.93
605.991	36.86
606.326	36.98
606.662	36.72
606.998	37.02
607.333	37.23
607.668	36.87
608.004	37.37
608.339	37.48
608.674	37.56
609.01	37.63
609.345	37.72
609.68	38.04
610.015	37.62
610.35	37.8
610.685	37.71
611.02	37.89
611.355	37.69
611.689	37.58
612.024	37.65
612.359	37.85
612.694	38.12
613.028	38.02
613.363	38.12
613.697	38.23
614.032	38.21
614.366	38.28
614.7	37.75
615.035	38.58
615.369	38.57
615.703	38.67
616.037	38.54
616.371	38.63
616.705	39.02
617.039	38.35
617.373	39
617.707	38.6
618.041	38.64
618.375	38.85
618.709	38.84
619.042	38.92
619.376	38.57
619.71	39.16
620.043	39.33
620.377	39.43
620.71	38.84
621.043	39.44
621.377	39.03
621.71	39.18
622.043	39.38
622.376	39.39
622.709	39.53
623.043	38.71
623.376	39.39
623.709	39.43
624.041	39.37
624.374	39.49
624.707	39.46
625.04	39.25
625.373	40
625.705	39.57
626.038	39.48
626.37	39.53
626.703	39.81
627.035	39.61
627.368	40.07
627.7	39.97
628.032	40.01
628.365	40.02
628.697	40.29
629.029	39.83
629.361	39.8
629.693	39.91
630.025	39.62
630.357	40.15
630.689	40.36
631.021	40.08
631.353	40.29
631.684	40.28
632.016	39.91
632.348	40.3
632.679	40.11
633.011	40.35
633.342	40.51
633.674	40.32
634.005	40.85
634.336	40.51
634.668	40.39
634.999	40.61
635.33	40.27
635.661	40.63
635.992	40.36
636.323	40.62
636.654	40.97
636.985	40.74
637.316	40.83
637.647	40.78
637.977	40.76
638.308	40.8
638.639	41.05
638.969	40.92
639.3	40.99
639.63	41.25
639.961	41.24
640.291	40.88
640.622	40.93
640.952	41.22
641.282	41.54
641.612	41.71
641.943	41.86
642.273	41.85
642.603	41.22
642.933	41.43
643.263	41.01
643.592	41.63
643.922	41.48
644.252	41.35
644.582	41.97
644.911	41.79
645.241	42.68
645.571	42.25
645.9	41.75
646.23	41.72
646.559	41.56
646.888	41.78
647.218	41.69
647.547	42.56
647.876	41.47
648.205	41.87
648.534	42.31
648.863	41.87
649.192	42.17
649.521	41.97
649.85	42.34
650.179	42.13
650.508	42.98
650.837	42.38
651.165	42.62
651.494	42.56
651.822	42.11
652.151	42.66
652.479	42.39
652.808	42.61
653.136	42.41
653.465	42.32
653.793	43.22
654.121	42.09
654.449	42.93
654.777	42.78
655.105	42.46
655.433	42.62
655.761	42.94
656.089	43.18
656.417	42.79
656.745	43.04
657.073	43.01
657.4	42.97
657.728	42.89
658.056	43.28
658.383	43.57
658.711	43.48
659.038	43.55
659.365	42.74
659.693	42.91
660.02	43.52
660.347	42.84
660.674	42.88
661.001	42.78
661.329	42.72
661.656	43.24
661.982	43.48
662.309	43.4
662.636	43.37
662.963	43.44
663.29	43.46
663.616	44.19
663.943	43.94
664.27	44.06
664.596	43.96
664.923	43.64
665.249	43.2
665.576	43.8
665.902	43.92
666.228	43.75
666.554	44.42
666.881	44.05
667.207	44.05
667.533	44.58
667.859	44.02
668.185	44.74
668.511	43.93
668.837	44.18
669.162	44.04
669.488	43.93
669.814	44.23
670.139	44.61
670.465	43.89
670.791	44.18
671.116	44.21
671.442	44.1
671.767	44.91
672.092	43.87
672.418	44.18
672.743	44.91
673.068	44.3
673.393	44.74
673.718	44.75
674.043	45.16
674.368	44.12
674.693	44.74
675.018	44.78
675.343	44.98
675.667	44.63
675.992	45.37
676.317	44.83
676.641	45.23
676.966	44.79
677.29	44.49
677.615	44.95
677.939	45.29
678.264	44.71
678.588	45.37
678.912	44.73
679.236	45.18
679.56	45.49
679.885	44.85
680.209	45.19
680.532	44.84
680.856	45.28
681.18	44.88
681.504	45.57
681.828	45.03
682.152	44.83
682.475	45.24
682.799	44.87
683.122	45.32
683.446	44.96
683.769	45.63
684.093	45.17
684.416	45.91
684.739	46
685.062	45.24
685.386	45.59
685.709	45.23
686.032	45.12
686.355	45.38
686.678	46.03
687.001	45.77
687.324	45.47
687.646	45.44
687.969	45.66
688.292	46.17
688.614	44.99
688.937	45.95
689.26	45.81
689.582	46.73
689.904	45.9
690.227	46.84
690.549	45.64
690.871	46.56
691.194	45.91
691.516	46.23
691.838	45.78
692.16	46.34
692.482	46.39
692.804	46.03
693.126	45.24
693.448	46.62
693.769	45.81
694.091	46.21
694.413	46.13
694.735	46.29
695.056	46.12
695.378	46.59
695.699	46.78
696.021	46.66
696.342	47.06
696.663	47.4
696.984	46.17
697.306	46.53
697.627	46.13
697.948	46.59
698.269	47.06
698.59	47.59
698.911	46.45
699.232	46.83
699.553	47.1
699.873	46.85
700.194	46.99
700.515	46.71
700.835	46.94
701.156	46.92
701.477	47.27
701.797	47.27
702.117	46.9
702.438	47.01
702.758	46.91
703.078	47.69
703.398	46.6
703.719	47.14
704.039	47.25
704.359	47.64
704.679	46.8
704.999	46.2
705.319	47.03
705.638	47.34
705.958	47.27
706.278	47.11
706.597	48.15
706.917	46.81
707.237	47.55
707.556	47.42
707.876	48.01
708.195	48.65
708.514	48.18
708.834	48.12
709.153	48.23
709.472	48.52
709.791	47.98
710.11	47.61
710.429	47.22
710.748	47.7
711.067	47.97
711.386	47.97
711.705	47.48
712.023	47.12
712.342	48.57
712.661	47.81
712.979	47.56
713.298	48.36
713.616	48
713.935	48.59
714.253	48.83
714.572	48.91
714.89	47.87
715.208	48.49
715.526	48.04
715.844	46.92
716.162	48.27
716.48	47.52
716.798	48.81
717.116	48.63
717.434	49.03
717.752	47.5
718.069	47.88
718.387	47.73
718.705	47.6
719.022	48.11
719.34	47.26
719.657	48.46
719.975	48.11
720.292	47.47
720.609	48.15
720.927	49.18
721.244	49.65
721.561	48.73
721.878	48.13
722.195	48.85
722.512	48.45
722.829	48
723.146	49.05
723.463	50.22
723.779	50.77
724.096	48.27
724.413	48.46
724.729	48.05
725.046	48.79
725.362	50.08
725.679	49.78
725.995	49.32
726.311	48.98
726.628	48.69
726.944	50.83
727.26	48.92
727.576	49.97
727.892	47.85
728.208	50.01
728.524	48.54
728.84	48.95
729.156	48.31
729.472	49.5
729.787	49.32
730.103	49.66
730.419	51.11
730.734	49.6
731.05	48.74
731.365	48.2
731.681	49.07
731.996	49.51
732.311	48.71
732.626	50.43
732.942	50.58
733.257	47.97
733.572	50.99
733.887	49.24
734.202	49.2
734.517	49.61
734.832	49.23
735.146	49.34
735.461	49.03
735.776	48.74
736.091	49.87
736.405	50.86
736.72	50.16
737.034	51.48
737.349	49.63
737.663	49.22
737.977	50.84
738.292	49.45
738.606	51.08
738.92	49.59
739.234	49.18
739.548	50.92
739.862	48.8
740.176	48.68
740.49	49.84
740.804	48.86
741.117	50.83
741.431	51.15
741.745	49.36
742.058	51.43
742.372	49.91
742.685	49.9
742.999	52.27
743.312	51.61
743.626	50.42
743.939	51.64
744.252	49
744.565	51.14
744.878	53.08
745.191	50.35
745.505	48.69
745.817	49.89
746.13	51.46
746.443	49.24
746.756	48.89
747.069	50.62
747.381	52.82
747.694	50.27
748.007	50.55
748.319	49.59
748.632	51.17
748.944	50.56
749.256	49.52
749.569	50.49
749.881	51.47
750.193	51.58
750.505	50.87
750.817	49.81
751.129	50.75
751.441	50.96
751.753	49.08
752.065	52.97
752.377	49.39
752.689	51.08
753	51.57
753.312	51.59
753.624	50.57
753.935	50.88
754.247	49.61
754.558	50.74
754.869	49.99
755.181	50.71
755.492	50
755.803	51.85
756.114	51.58
756.425	53.47
756.736	50.32
757.047	51.31
757.358	52.25
757.669	51.92
757.98	51.38
758.291	50.03
758.601	52.25
758.912	49.43
759.223	50.48
759.533	50.29
759.844	51.78
760.154	51.28
760.464	50.52
760.775	49.82
761.085	49.48
761.395	51.39
761.705	52.03
762.016	52.04
762.326	52.16
762.636	50.54
762.945	51.46
763.255	51.81
763.565	50.43
763.875	51.84
764.185	52.17
764.494	50.97
764.804	52.72
765.113	53.09
765.423	52.16
765.732	52.45
766.042	51.2
766.351	51.71
766.66	52.55
766.97	51
767.279	51.49
767.588	52.8
767.897	51.67
768.206	51.91
768.515	52.33
768.824	50.62
769.133	52.57
769.441	51.83
769.75	50.37
770.059	49.43
770.367	51.17
770.676	51.91
770.984	53.46
771.293	51
771.601	51.31
771.91	51.74
772.218	54.15
772.526	51.4
772.834	51.53
773.142	51.88
773.45	53.69
773.758	52.52
774.066	50.41
774.374	50.96
774.682	51.76
774.99	52.5
775.298	52
775.605	52.55
775.913	52.98
776.22	52.16
776.528	51.99
776.835	53.18
777.143	50.44
777.45	54.25
777.757	52.09
778.065	51.75
778.372	52.9
778.679	52.66
778.986	51.11
779.293	50.65
779.6	51.54
779.907	53.66
780.214	51.21
780.52	54.39
780.827	50.36
781.134	52.57
781.44	55.17
781.747	55.05
782.053	52.47
782.36	52.79
782.666	51.37
782.973	50.63
783.279	53.65
783.585	51.38
783.891	52.29
784.197	53.29
784.503	52.85
784.809	53.12
785.115	51.3
785.421	54.42
785.727	51.79
786.033	50.95
786.339	49.81
786.644	51.96
786.95	53.88
787.255	52.42
787.561	54.03
787.866	51.23
788.172	55
788.477	51
788.782	51.84
789.088	51.21
789.393	55.99
789.698	53.32
790.003	55.29
790.308	54.82
790.613	51.29
790.918	50.75
791.223	52.87
791.527	51.2
791.832	53.39
792.137	53.56
792.441	57.64
792.746	51.3
793.05	51.02
793.355	50.89
793.659	57.09
793.963	52.22
794.268	51.58
794.572	51.43
794.876	53.05
795.18	53.41
795.484	50.95
795.788	52.16
796.092	51.33
796.396	50
796.7	55.72
797.004	55.42
797.307	53.56
797.611	53.06
797.915	58.31
798.218	54.99
798.522	52.87
798.825	54.41
799.128	53.03
799.432	54.19
799.735	52.63
800.038	55.71
800.341	54.02
800.644	53.4
800.947	51.28
801.25	53.23
801.553	57.47
801.856	53.95
802.159	56.03
802.462	52.53
802.764	52.5
803.067	54.17
803.37	51.3
803.672	53.42
803.975	58.01
804.277	52.35
804.579	51.82
804.882	56.07
805.184	52.06
805.486	52.63
805.788	51.07
806.09	52.43
806.392	58.48
806.694	54.81
806.996	54.32
807.298	55.45
807.6	52.05
807.902	55.44
808.203	51.55
808.505	51.64
808.807	49.21
809.108	54
809.409	51.2
809.711	52.9
810.012	53.85
810.313	55.22
810.615	53.2
810.916	55.01
811.217	51.08
811.518	54.43
811.819	55.29
812.12	55.19
812.421	54.22
812.722	52.83
813.023	54.04
813.323	50.68
813.624	54.43
813.925	52.24
814.225	54.68
814.526	53.32
814.826	55.81
815.126	55.03
815.427	58.28
815.727	53.87
816.027	56.72
816.327	60.01
816.627	55.19
816.927	59.66
817.227	49.93
817.527	51.72
817.827	53.05
818.127	53.68
818.427	52.34
818.727	54.79
819.026	49.57
819.326	51.81
819.625	51.5
819.925	56.48
820.224	58.97
820.524	50.69
820.823	56.69
821.122	55
821.421	59.11
821.72	55.29
822.019	54.93
822.318	52.68
822.617	52.3
822.916	54.75
823.215	54.33
823.514	54.48
823.813	55.4
824.111	54.61
824.41	53.82
824.709	54.96
825.007	55.2
825.306	54.77
825.604	55.26
825.902	56.42
826.201	55.33
826.499	56.96
826.797	55.21
827.095	56.63
827.393	57.53
827.691	55.5
827.989	56.98
828.287	54.43
828.585	55.87
828.882	55.67
829.18	54.81
829.478	55.81
829.775	56.27
830.073	55.92
830.37	56.05
830.668	54.83
830.965	54.84
831.263	55.05
831.56	57.98
831.857	53
832.154	55.86
832.451	55.01
832.748	54.51
833.045	55.01
833.342	58.5
833.639	54.36
833.936	51.66
834.232	56.18
834.529	57.31
834.826	53.27
835.122	57.47
835.419	57.83
835.715	56.68
836.012	56.06
836.308	56.63
836.604	55.73
836.901	57.55
837.197	56.85
837.493	57.4
837.789	56.49
838.085	53.75
838.381	53.37
838.677	56.3
838.972	51.92
839.268	56.67
839.564	55.22
839.86	57.87
840.155	49.46
840.451	60.08
840.746	56.81
841.042	64.37
841.337	50.08
841.632	52.36
841.928	56.23
842.223	47.52
842.518	52.23
842.813	49.12
843.108	54.86
843.403	58.99
843.698	58.11
843.993	54.81
844.287	56.71
844.582	57.38
844.877	58.55
845.171	56.26
845.466	52.94
845.761	52.67
846.055	56.02
846.349	63.76
846.644	63.04
846.938	53.07
847.232	41.98
847.526	64.06
847.82	66.65
848.114	57.17
848.408	66.77
848.702	39.07
848.996	55.39
849.29	48.86
849.584	67.38
849.877	48.36
850.171	69.43
850.465	51.02
850.758	37.16
851.052	46.58
851.345	55.1
851.638	60.48
851.932	49.18
852.225	60.06
852.518	70.01
852.811	40.7
853.104	67.44
853.397	53.66
853.69	63.66
853.983	54.4
854.276	45.85
854.569	60.69
854.861	58.87
855.154	43.94
855.447	38.44
855.739	52.16
856.032	38.47
856.324	45.1
856.616	53.93
856.909	39.13
857.201	31.36
857.493	61.62
857.785	47.98
858.077	43.83
858.369	56.02
858.661	47.41
858.953	59.67
859.245	59.14
859.537	63.6
859.829	51.43
860.12	43.95
860.412	40.18
860.703	53.56
860.995	62.92
861.286	39.98
861.578	41.85
861.869	33.29
862.16	17.81
862.452	61.28
862.743	33.74
863.034	64.33
863.325	72.84
863.616	48.66
863.907	53.87
864.198	52.97
864.488	44.98
864.779	38.57
865.07	46.62
865.36	41.69
865.651	40.04
865.941	64.16
866.232	58.61
866.522	53.68
866.813	35.92
867.103	46.45
867.393	111.54
867.683	58.79
867.973	68.95
868.263	69.61
868.553	40.97
868.843	46.78
869.133	58.86
869.423	71.36
869.713	74.8
870.002	29.5
870.292	43.66
870.582	61.4
870.871	46.27
871.161	80.96
871.45	78.23
871.739	30.27
872.029	38.2
872.318	44.52
872.607	63.11
872.896	46.39
873.185	44.02
873.474	31.55
873.763	70.26
874.052	50.6
874.341	83.66
874.63	57.87
874.918	49.36
875.207	40.65
875.496	53.2
875.784	73.47
876.073	50.26
876.361	39.68
876.649	48.59
876.938	47.75
877.226	43.31
877.514	51.11
877.802	40.16
878.09	60.67
878.378	43.12
878.666	29.9
878.954	47.74
879.242	34.86
879.53	35.78
879.817	87.56
880.105	54.69
880.392	50.14
880.68	52.13
880.967	28.12
881.255	81.69
881.542	51.6
881.83	52.52
882.117	35.39
882.404	39.57
882.691	58.52
882.978	59.73
883.265	55.87
883.552	59.16
883.839	65.3
884.126	62.85
884.413	51.77
884.699	53.47
884.986	61.76
885.273	61.51
885.559	61.51
885.846	61.51
