Data from 0415_chest_Reflection__0__15.txt Node

Date: Fri Dec 15 16:34:30 CST 2023
User: ToomeyLab
Spectrometer: FLMS14357
Trigger mode: 0
Integration Time (sec): 1.000000E-2
Scans to average: 100
Electric dark correction enabled: true
Nonlinearity correction enabled: false
Boxcar width: 0
XAxis mode: Wavelengths
Number of Pixels in Spectrum: 2048
>>>>>Begin Spectral Data<<<<<
189.047	-368.18
189.435	-368.18
189.823	-368.18
190.211	213.81
190.599	106.97
190.987	99.34
191.375	-72.14
191.763	45.64
192.151	43.63
192.538	127.95
192.926	141.02
193.314	4518.24
193.702	31.81
194.089	-1.58
194.477	-116.87
194.864	-137.15
195.252	75.7
195.639	177.01
196.027	-785.44
196.414	206.2
196.801	-131.91
197.189	32.53
197.576	-87.75
197.963	-84.57
198.351	-14.78
198.738	47.68
199.125	43.81
199.512	-16.06
199.899	27.12
200.286	66.87
200.673	34.2
201.06	21.76
201.447	55.11
201.833	26.6
202.22	30.86
202.607	71.49
202.994	15.82
203.38	59.98
203.767	25.25
204.154	15.47
204.54	22.83
204.927	-2.99
205.313	-27.52
205.699	39.41
206.086	41.31
206.472	42.32
206.858	79.61
207.245	-12.09
207.631	54.54
208.017	18.18
208.403	24
208.789	20.63
209.175	69.4
209.561	-0.63
209.947	21.54
210.333	62.09
210.719	41
211.105	13.73
211.491	-30.5
211.876	54.63
212.262	62.73
212.648	42.76
213.034	54.65
213.419	44.59
213.805	42.05
214.19	13.33
214.576	17.84
214.961	11.14
215.346	11.63
215.732	36.63
216.117	25.7
216.502	37.07
216.888	10.82
217.273	70.32
217.658	30.19
218.043	54.87
218.428	12.56
218.813	-18.11
219.198	11.18
219.583	1.45
219.968	34.89
220.353	17.45
220.738	24.66
221.122	29.9
221.507	10.64
221.892	4.44
222.276	-5.59
222.661	17.68
223.046	19.01
223.43	18.02
223.815	18.38
224.199	-2.52
224.583	2.39
224.968	16.19
225.352	12.29
225.736	0.25
226.121	-8.51
226.505	12.26
226.889	21.32
227.273	3.09
227.657	14.01
228.041	4.28
228.425	6.99
228.809	12.18
229.193	8.44
229.577	5.13
229.961	7.03
230.344	6.24
230.728	5.51
231.112	5.05
231.495	5.52
231.879	5.78
232.263	7.75
232.646	4.62
233.03	5.65
233.413	3.04
233.797	6.74
234.18	7.09
234.563	8.06
234.946	7.44
235.33	8.39
235.713	6.19
236.096	5.18
236.479	7.81
236.862	6.55
237.245	5.8
237.628	4.89
238.011	5.16
238.394	7.16
238.777	8.52
239.16	4.66
239.543	7.03
239.925	6.51
240.308	7.61
240.691	6.84
241.073	5.14
241.456	3.99
241.838	6.48
242.221	3.99
242.603	5.47
242.986	5.31
243.368	5.39
243.75	5.35
244.133	4.66
244.515	5.81
244.897	5.43
245.279	6.29
245.661	5.4
246.043	4.16
246.425	3.98
246.807	7.61
247.189	6.2
247.571	4.64
247.953	5.47
248.335	5.19
248.717	4.98
249.098	4.83
249.48	4.89
249.862	4.77
250.243	5.29
250.625	4.55
251.006	4.9
251.388	3.95
251.769	4.45
252.151	6.04
252.532	5.12
252.913	4.77
253.295	4.69
253.676	4.57
254.057	5.19
254.438	5.47
254.819	4.27
255.2	4.93
255.581	5.83
255.962	3.62
256.343	5.43
256.724	5.37
257.105	4.8
257.486	4.59
257.867	5.89
258.247	5.13
258.628	4.95
259.009	4.84
259.389	4.54
259.77	4.74
260.15	4.31
260.531	4.14
260.911	4.91
261.292	4.5
261.672	4.84
262.052	4.48
262.432	4.93
262.813	4.51
263.193	5.29
263.573	4.1
263.953	4.45
264.333	5.13
264.713	4.78
265.093	4.7
265.473	4.96
265.853	4.54
266.233	4.99
266.612	3.23
266.992	3.67
267.372	5.62
267.752	3.98
268.131	4.31
268.511	4.59
268.89	5.18
269.27	4.44
269.649	4.01
270.029	4.14
270.408	5.56
270.787	4.5
271.167	5.3
271.546	5.07
271.925	3.54
272.304	4.69
272.683	4.74
273.062	4.36
273.441	5.09
273.82	3.74
274.199	4.92
274.578	4.4
274.957	4.4
275.336	4.66
275.715	4.28
276.093	4
276.472	4.81
276.851	4.34
277.229	4.33
277.608	4.51
277.986	4.17
278.365	4.72
278.743	4.3
279.122	3.67
279.5	4.9
279.878	5.44
280.257	4.55
280.635	3.4
281.013	4.68
281.391	4.76
281.769	4.68
282.147	4.89
282.525	5
282.903	3.72
283.281	4.63
283.659	5.04
284.037	4.55
284.415	4.53
284.792	4.79
285.17	3.97
285.548	4.23
285.925	4.85
286.303	4.39
286.68	3.8
287.058	4.34
287.435	4.42
287.813	4.2
288.19	4.03
288.567	3.92
288.945	4.57
289.322	4.58
289.699	4.61
290.076	4.49
290.453	4.41
290.83	3.8
291.207	4.35
291.584	4.64
291.961	4.33
292.338	4.87
292.715	4.58
293.092	4.42
293.469	4.6
293.845	5.27
294.222	3.94
294.599	4.94
294.975	4.42
295.352	4.8
295.728	4.23
296.105	4.69
296.481	4.73
296.858	4.16
297.234	3.77
297.61	4.24
297.986	4.57
298.363	4.68
298.739	4.43
299.115	4.43
299.491	4.42
299.867	4.47
300.243	4.55
300.619	4.09
300.995	4.42
301.371	5.17
301.746	4.32
302.122	4.79
302.498	4.85
302.874	4.87
303.249	4.81
303.625	4.43
304	5.09
304.376	4.38
304.751	3.74
305.127	4.81
305.502	4.49
305.878	4.47
306.253	4.43
306.628	5.31
307.003	4.66
307.378	4.9
307.754	4.34
308.129	4.48
308.504	5.32
308.879	4.06
309.254	5.92
309.629	5.19
310.003	4.99
310.378	4.97
310.753	4.9
311.128	4.98
311.502	4.7
311.877	4.9
312.252	4.66
312.626	4.45
313.001	4.4
313.375	5.41
313.75	3.79
314.124	4.77
314.498	4.52
314.873	4.97
315.247	4.75
315.621	4.54
315.995	3.87
316.369	5.17
316.743	4.48
317.117	5
317.491	4.21
317.865	4.99
318.239	4.36
318.613	4.64
318.987	4.6
319.361	4.17
319.734	3.95
320.108	5.18
320.482	4.23
320.855	5.2
321.229	4.69
321.602	3.84
321.976	4.39
322.349	4.57
322.723	4.75
323.096	5.69
323.469	4.41
323.843	4.7
324.216	4.49
324.589	4.55
324.962	4.42
325.335	4.35
325.708	4.74
326.081	4.43
326.454	4.52
326.827	4.34
327.2	4.35
327.573	4.76
327.945	4.78
328.318	4.25
328.691	4.46
329.063	4.53
329.436	4.23
329.809	4.95
330.181	3.77
330.553	4.46
330.926	4.89
331.298	4.74
331.671	4.93
332.043	5.58
332.415	4.8
332.787	4.33
333.159	5.57
333.532	5.11
333.904	4.24
334.276	4.31
334.648	5.21
335.02	4.52
335.391	3.88
335.763	4.34
336.135	4.91
336.507	5.32
336.879	4.29
337.25	4.29
337.622	4.78
337.993	4.29
338.365	4.5
338.736	4.52
339.108	5.21
339.479	4.34
339.851	4.87
340.222	4.91
340.593	4.87
340.964	4.28
341.336	5.26
341.707	4.22
342.078	5.03
342.449	5.06
342.82	4.51
343.191	4.99
343.562	4.76
343.933	5.27
344.303	4.83
344.674	4.73
345.045	4.5
345.416	5.05
345.786	4.68
346.157	4.66
346.527	4.21
346.898	4.67
347.268	4.75
347.639	4.45
348.009	5.06
348.38	4.38
348.75	4.6
349.12	4.62
349.49	5.2
349.861	4.63
350.231	4.64
350.601	5.14
350.971	4.69
351.341	4.7
351.711	4.74
352.081	4.81
352.45	4.2
352.82	4.49
353.19	4.45
353.56	4.63
353.929	4.91
354.299	4.21
354.669	4.54
355.038	4.94
355.408	4.67
355.777	4.63
356.147	4.14
356.516	4.68
356.885	4.69
357.254	5.15
357.624	4.85
357.993	4.74
358.362	4.51
358.731	4.64
359.1	4.79
359.469	4.88
359.838	4.87
360.207	4.57
360.576	4.72
360.945	4.68
361.314	4.86
361.682	4.41
362.051	4.86
362.42	4.81
362.788	4.81
363.157	4.65
363.525	4.66
363.894	4.75
364.262	4.71
364.631	4.89
364.999	5.23
365.367	4.28
365.735	5.65
366.104	4.9
366.472	4.81
366.84	4.53
367.208	4.81
367.576	4.82
367.944	5.24
368.312	4.36
368.68	4.68
369.048	4.91
369.416	4.65
369.783	4.48
370.151	4.97
370.519	5.34
370.886	4.93
371.254	4.88
371.621	5.2
371.989	5.31
372.356	4.61
372.724	5.01
373.091	4.73
373.458	4.53
373.826	4.63
374.193	4.67
374.56	5.35
374.927	5.24
375.294	5.24
375.661	4.67
376.028	4.86
376.395	4.81
376.762	4.91
377.129	5.01
377.496	5.24
377.863	4.72
378.229	4.75
378.596	5.07
378.963	4.9
379.329	4.41
379.696	4.74
380.062	4.95
380.429	4.71
380.795	4.57
381.161	4.93
381.528	4.96
381.894	5.22
382.26	5.02
382.626	5.11
382.993	4.66
383.359	5.18
383.725	4.82
384.091	4.87
384.457	5.11
384.823	4.8
385.188	5.31
385.554	4.8
385.92	4.96
386.286	5.24
386.651	4.89
387.017	5.13
387.383	4.78
387.748	4.81
388.114	5.05
388.479	4.73
388.845	5.17
389.21	5.17
389.575	4.94
389.94	4.91
390.306	5.05
390.671	5
391.036	4.73
391.401	4.69
391.766	5.19
392.131	4.95
392.496	5.05
392.861	5.12
393.226	4.79
393.591	4.89
393.956	5.09
394.32	4.9
394.685	4.61
395.05	4.95
395.414	4.93
395.779	4.68
396.143	4.95
396.508	5.1
396.872	5.4
397.236	4.93
397.601	4.86
397.965	5.35
398.329	4.99
398.694	5.08
399.058	4.8
399.422	4.7
399.786	5.19
400.15	5.08
400.514	5.02
400.878	5.07
401.242	5.39
401.605	5.07
401.969	5.13
402.333	5.07
402.697	5.23
403.06	4.93
403.424	5.36
403.787	5.12
404.151	5.25
404.514	5.01
404.878	5.19
405.241	5.24
405.604	5.04
405.968	5.04
406.331	5.13
406.694	5.3
407.057	5.16
407.42	5.31
407.783	5
408.146	5.09
408.509	5.07
408.872	5.16
409.235	5.01
409.598	5.6
409.961	5.1
410.323	5.18
410.686	5.13
411.049	4.98
411.411	4.94
411.774	5.05
412.136	5.21
412.499	5
412.861	5.06
413.223	5
413.586	5
413.948	5.07
414.31	5.08
414.672	5.1
415.035	4.93
415.397	5.41
415.759	4.96
416.121	5.22
416.483	5.14
416.845	4.95
417.206	4.89
417.568	5.13
417.93	4.99
418.292	4.87
418.653	5.27
419.015	5.07
419.377	5.2
419.738	5.1
420.1	5.06
420.461	5.09
420.822	5.14
421.184	5.06
421.545	5.08
421.906	5.01
422.267	4.98
422.629	4.96
422.99	5.15
423.351	4.87
423.712	4.95
424.073	4.97
424.434	4.98
424.795	4.92
425.155	4.99
425.516	5
425.877	5.09
426.238	5.06
426.598	5.09
426.959	5.04
427.32	4.93
427.68	5.05
428.041	5.03
428.401	5.18
428.761	4.97
429.122	5.27
429.482	5.04
429.842	5.34
430.202	5.14
430.563	5.28
430.923	4.91
431.283	5.32
431.643	5.01
432.003	5.05
432.363	5.21
432.722	5.34
433.082	5.18
433.442	5.16
433.802	5.01
434.161	5.25
434.521	5.33
434.881	5.34
435.24	5.17
435.6	5.09
435.959	5.2
436.319	5.14
436.678	5.21
437.037	5.24
437.396	5.21
437.756	5.34
438.115	5.06
438.474	5.43
438.833	5.15
439.192	5.19
439.551	5.51
439.91	5.21
440.269	5.14
440.628	5.22
440.987	5.24
441.345	5.16
441.704	5.31
442.063	5.1
442.421	5.14
442.78	5.08
443.138	5.1
443.497	5.31
443.855	4.95
444.214	5.2
444.572	5.23
444.93	5.16
445.288	5.32
445.647	5.3
446.005	5.15
446.363	5.34
446.721	5.3
447.079	5.07
447.437	5.32
447.795	5.23
448.153	5.16
448.51	5.18
448.868	5.25
449.226	5.22
449.584	5.27
449.941	5.25
450.299	5.22
450.656	5.17
451.014	5.17
451.371	5.11
451.729	5.21
452.086	5.46
452.443	5.37
452.801	5.31
453.158	5.21
453.515	5.22
453.872	5.55
454.229	5.21
454.586	5.32
454.943	5.33
455.3	5.46
455.657	5.4
456.014	5.44
456.371	5.34
456.727	5.27
457.084	5.43
457.441	5.26
457.797	5.37
458.154	5.65
458.51	5.43
458.867	5.57
459.223	5.5
459.58	5.43
459.936	5.45
460.292	5.14
460.648	5.32
461.005	5.28
461.361	5.36
461.717	5.28
462.073	5.23
462.429	5.26
462.785	5.32
463.141	5.32
463.496	5.35
463.852	5.55
464.208	5.57
464.564	5.45
464.919	5.51
465.275	5.4
465.631	5.63
465.986	5.48
466.342	5.49
466.697	5.24
467.052	5.59
467.408	5.56
467.763	5.57
468.118	5.53
468.473	5.39
468.829	5.6
469.184	5.41
469.539	5.61
469.894	5.32
470.249	5.55
470.603	5.69
470.958	5.71
471.313	5.5
471.668	5.83
472.023	5.57
472.377	5.49
472.732	5.58
473.086	5.52
473.441	5.35
473.795	5.68
474.15	5.64
474.504	5.57
474.859	5.51
475.213	5.34
475.567	5.5
475.921	5.45
476.275	5.42
476.63	5.67
476.984	5.65
477.338	5.76
477.692	5.41
478.045	5.48
478.399	5.75
478.753	5.62
479.107	5.49
479.461	5.42
479.814	5.54
480.168	5.49
480.521	5.5
480.875	5.64
481.228	5.52
481.582	5.5
481.935	5.53
482.289	5.7
482.642	5.6
482.995	5.49
483.348	5.46
483.701	5.54
484.055	5.52
484.408	5.56
484.761	5.44
485.114	5.41
485.466	5.25
485.819	5.23
486.172	5.18
486.525	5.21
486.878	5.25
487.23	5.34
487.583	5.41
487.936	5.5
488.288	5.43
488.641	5.58
488.993	5.4
489.345	5.34
489.698	5.39
490.05	5.31
490.402	5.37
490.754	5.34
491.107	5.44
491.459	5.48
491.811	5.62
492.163	5.62
492.515	5.58
492.866	5.63
493.218	5.48
493.57	5.37
493.922	5.43
494.274	5.44
494.625	5.46
494.977	5.56
495.328	5.61
495.68	5.53
496.031	5.73
496.383	5.7
496.734	5.84
497.086	5.76
497.437	5.66
497.788	5.83
498.139	5.69
498.49	5.83
498.842	5.63
499.193	5.69
499.544	5.65
499.894	5.67
500.245	5.73
500.596	5.66
500.947	5.77
501.298	5.72
501.648	5.92
501.999	5.88
502.35	5.83
502.7	5.85
503.051	5.77
503.401	5.96
503.752	5.94
504.102	5.85
504.452	5.99
504.803	5.8
505.153	5.9
505.503	5.91
505.853	5.88
506.203	5.82
506.553	5.91
506.903	5.77
507.253	5.77
507.603	5.89
507.953	5.9
508.303	6.09
508.652	5.91
509.002	5.9
509.352	5.88
509.701	5.88
510.051	5.9
510.4	5.89
510.75	5.87
511.099	5.93
511.449	5.91
511.798	5.83
512.147	5.93
512.496	5.77
512.846	5.92
513.195	5.9
513.544	5.94
513.893	5.95
514.242	5.79
514.591	6.16
514.939	5.99
515.288	5.94
515.637	6.14
515.986	5.99
516.334	6.04
516.683	6.11
517.032	5.98
517.38	6.17
517.729	6.07
518.077	5.98
518.426	6.3
518.774	6.21
519.122	6.11
519.47	6.11
519.819	5.91
520.167	6.14
520.515	6.14
520.863	6.11
521.211	6.1
521.559	6.19
521.907	6.07
522.255	6.09
522.602	6.09
522.95	6.12
523.298	6.12
523.645	6.24
523.993	6.24
524.341	6.31
524.688	6.33
525.036	6.18
525.383	6.24
525.73	6.44
526.078	6.24
526.425	6.32
526.772	6.38
527.119	6.19
527.466	6.26
527.814	6.36
528.161	6.22
528.508	6.23
528.854	6.23
529.201	6.14
529.548	6.18
529.895	6.16
530.242	6.12
530.588	6.08
530.935	6.05
531.282	6.13
531.628	6.11
531.975	6.16
532.321	6.23
532.667	6.31
533.014	6.42
533.36	6.25
533.706	6.38
534.052	6.47
534.399	6.31
534.745	6.39
535.091	6.37
535.437	6.34
535.783	6.28
536.129	6.34
536.474	6.3
536.82	6.4
537.166	6.49
537.512	6.6
537.857	6.58
538.203	6.54
538.549	6.52
538.894	6.52
539.239	6.66
539.585	6.67
539.93	6.47
540.276	6.68
540.621	6.73
540.966	6.71
541.311	6.7
541.656	6.63
542.001	6.78
542.346	6.83
542.691	6.57
543.036	6.58
543.381	6.53
543.726	6.54
544.071	6.65
544.415	6.68
544.76	6.55
545.105	6.68
545.449	6.85
545.794	6.89
546.138	6.91
546.483	7.02
546.827	6.83
547.171	6.85
547.516	7.01
547.86	6.89
548.204	7.03
548.548	6.98
548.892	6.91
549.236	6.99
549.58	6.88
549.924	7.08
550.268	7.22
550.612	7.23
550.956	7.21
551.3	7.16
551.643	7.36
551.987	7.29
552.33	7.21
552.674	7.36
553.017	7.27
553.361	7.25
553.704	7.63
554.048	7.37
554.391	7.44
554.734	7.29
555.077	7.36
555.42	7.28
555.764	7.2
556.107	7.22
556.45	7.26
556.793	7.48
557.135	7.43
557.478	7.51
557.821	7.53
558.164	7.53
558.507	7.42
558.849	7.51
559.192	7.62
559.534	7.56
559.877	7.67
560.219	7.39
560.562	7.85
560.904	7.66
561.246	7.72
561.589	7.98
561.931	7.47
562.273	7.76
562.615	7.78
562.957	7.79
563.299	7.56
563.641	7.9
563.983	7.86
564.325	7.89
564.667	7.72
565.008	7.82
565.35	7.8
565.692	7.79
566.033	7.72
566.375	8.22
566.716	8.29
567.058	7.86
567.399	7.8
567.741	7.76
568.082	7.93
568.423	7.98
568.764	7.85
569.105	8.18
569.447	8.15
569.788	8
570.129	8.22
570.47	8.02
570.811	8.42
571.151	8.27
571.492	8.4
571.833	8.44
572.174	8.2
572.514	8.2
572.855	8.29
573.195	8.31
573.536	8.32
573.876	8.18
574.217	8.35
574.557	8.53
574.898	8.58
575.238	8.52
575.578	8.42
575.918	8.62
576.258	8.65
576.598	8.69
576.938	8.68
577.278	8.53
577.618	8.69
577.958	8.59
578.298	8.46
578.638	8.65
578.977	8.77
579.317	8.58
579.657	8.74
579.996	9.22
580.336	8.91
580.675	8.74
581.014	8.95
581.354	8.98
581.693	9.06
582.032	8.9
582.372	9.1
582.711	9.09
583.05	9
583.389	8.91
583.728	9.05
584.067	9.1
584.406	9.45
584.745	9
585.083	9.2
585.422	9.23
585.761	9.49
586.1	9.29
586.438	9.2
586.777	9.44
587.115	9.72
587.454	9.3
587.792	9.23
588.13	9.7
588.469	9.66
588.807	9.47
589.145	9.46
589.483	9.64
589.821	9.69
590.159	9.34
590.497	9.79
590.835	10.02
591.173	9.63
591.511	9.87
591.849	9.53
592.187	9.88
592.524	9.77
592.862	9.59
593.2	9.74
593.537	9.87
593.875	9.57
594.212	9.83
594.55	9.97
594.887	10.24
595.224	9.87
595.561	10.04
595.899	9.91
596.236	10.04
596.573	10.31
596.91	9.94
597.247	9.92
597.584	10.51
597.921	9.94
598.258	9.83
598.594	10.3
598.931	10.18
599.268	10.29
599.604	10.19
599.941	10.31
600.277	10.19
600.614	10.3
600.95	10.25
601.287	10.64
601.623	10.46
601.959	10.27
602.296	10.66
602.632	10.27
602.968	10.58
603.304	10.65
603.64	10.41
603.976	10.77
604.312	10.68
604.648	10.84
604.984	10.7
605.319	10.8
605.655	10.76
605.991	11.06
606.326	10.87
606.662	10.63
606.998	10.56
607.333	10.77
607.668	10.81
608.004	10.98
608.339	11.13
608.674	11.06
609.01	10.91
609.345	10.87
609.68	11.33
610.015	10.89
610.35	11.23
610.685	11.03
611.02	11.35
611.355	11.46
611.689	11.18
612.024	11.35
612.359	10.94
612.694	11.13
613.028	11.31
613.363	11.58
613.697	11.66
614.032	11.48
614.366	11.17
614.7	11.85
615.035	11.65
615.369	11.77
615.703	11.7
616.037	11.65
616.371	11.46
616.705	11.63
617.039	11.82
617.373	11.78
617.707	11.86
618.041	11.96
618.375	12.35
618.709	11.89
619.042	11.63
619.376	12.22
619.71	12.13
620.043	12.19
620.377	12.06
620.71	12.09
621.043	12.02
621.377	12.17
621.71	11.93
622.043	12.11
622.376	12.13
622.709	12.41
623.043	12.38
623.376	12.69
623.709	12.31
624.041	12.62
624.374	12.52
624.707	12.61
625.04	12.84
625.373	12.25
625.705	12.39
626.038	12.65
626.37	12.35
626.703	12.65
627.035	13.01
627.368	13.17
627.7	12.79
628.032	12.67
628.365	12.69
628.697	13.01
629.029	12.61
629.361	12.76
629.693	12.94
630.025	12.66
630.357	13.06
630.689	13.32
631.021	12.8
631.353	13.37
631.684	12.72
632.016	12.9
632.348	13.09
632.679	13.32
633.011	13.3
633.342	13.87
633.674	12.87
634.005	13.62
634.336	13.2
634.668	14.01
634.999	13.37
635.33	13.78
635.661	14.01
635.992	13.55
636.323	13.65
636.654	13.6
636.985	13.58
637.316	13.6
637.647	13.49
637.977	13.83
638.308	13.9
638.639	13.63
638.969	13.67
639.3	13.54
639.63	13.37
639.961	13.78
640.291	14.1
640.622	14.46
640.952	13.68
641.282	14.43
641.612	13.86
641.943	14.29
642.273	14.24
642.603	14.95
642.933	14.22
643.263	14.14
643.592	14.44
643.922	14.17
644.252	14.56
644.582	14.34
644.911	13.7
645.241	14.59
645.571	14.69
645.9	14.2
646.23	14.64
646.559	14.76
646.888	14.79
647.218	14.69
647.547	14.51
647.876	14.57
648.205	14.38
648.534	13.58
648.863	14.53
649.192	15
649.521	14.86
649.85	14.68
650.179	15.14
650.508	15
650.837	14.78
651.165	14.36
651.494	15.16
651.822	14.98
652.151	14.7
652.479	14.72
652.808	15.04
653.136	15.39
653.465	14.41
653.793	14.47
654.121	15.06
654.449	15.28
654.777	15.24
655.105	15.51
655.433	14.97
655.761	15.25
656.089	15.66
656.417	15.46
656.745	15.08
657.073	15.33
657.4	16.09
657.728	15.61
658.056	15.46
658.383	15.49
658.711	15.54
659.038	15.94
659.365	16.35
659.693	15.88
660.02	14.99
660.347	16.06
660.674	16.05
661.001	16.25
661.329	15.44
661.656	15.81
661.982	16.02
662.309	15.9
662.636	15.51
662.963	16.59
663.29	16.25
663.616	16.4
663.943	16.34
664.27	15.91
664.596	16.8
664.923	16.48
665.249	16.49
665.576	16.19
665.902	16.28
666.228	16.99
666.554	16.54
666.881	16.32
667.207	17.09
667.533	16.73
667.859	17.03
668.185	16.99
668.511	15.72
668.837	16.13
669.162	17.4
669.488	16.49
669.814	17.15
670.139	17.1
670.465	17
670.791	17.27
671.116	17.38
671.442	16.77
671.767	16.87
672.092	17.09
672.418	17.36
672.743	17.17
673.068	16.54
673.393	17.66
673.718	17.61
674.043	17.82
674.368	17.2
674.693	18.58
675.018	16.65
675.343	17.4
675.667	17.45
675.992	17.87
676.317	17.73
676.641	17.7
676.966	17.32
677.29	18
677.615	18.24
677.939	18.34
678.264	18.66
678.588	17.8
678.912	18.26
679.236	18.55
679.56	17.19
679.885	18.86
680.209	18.68
680.532	17.81
680.856	18.42
681.18	17.78
681.504	17.68
681.828	17.8
682.152	17.87
682.475	18.19
682.799	18.85
683.122	18.37
683.446	17.8
683.769	18.13
684.093	17.97
684.416	18.28
684.739	18.22
685.062	18.6
685.386	19.26
685.709	17.99
686.032	18.39
686.355	19.26
686.678	18.47
687.001	18.4
687.324	19.23
687.646	18.44
687.969	18.21
688.292	18.58
688.614	18.22
688.937	19.06
689.26	18.15
689.582	18.71
689.904	18.98
690.227	18.98
690.549	19.47
690.871	19.8
691.194	19.39
691.516	19.66
691.838	19.56
692.16	19.22
692.482	18.88
692.804	18.86
693.126	19.59
693.448	19.61
693.769	20.71
694.091	19.02
694.413	19.75
694.735	18.99
695.056	19.62
695.378	19.85
695.699	18.93
696.021	18.52
696.342	18.69
696.663	19.11
696.984	19.54
697.306	19.12
697.627	19.71
697.948	20.11
698.269	20.43
698.59	19.69
698.911	19.5
699.232	20.54
699.553	20.32
699.873	20.2
700.194	20.11
700.515	20.63
700.835	19.45
701.156	20.19
701.477	19.55
701.797	20.23
702.117	19.93
702.438	20.49
702.758	19.6
703.078	20.48
703.398	20.14
703.719	19.8
704.039	20.05
704.359	20.53
704.679	20.95
704.999	19.42
705.319	19.55
705.638	20.53
705.958	20.33
706.278	20.8
706.597	21.08
706.917	20.77
707.237	21.57
707.556	20.58
707.876	20.74
708.195	22.57
708.514	20.9
708.834	21.18
709.153	21.14
709.472	21.25
709.791	21.17
710.11	20.87
710.429	21.25
710.748	20.87
711.067	22.06
711.386	21.64
711.705	21.63
712.023	22.65
712.342	20.46
712.661	20.69
712.979	20.58
713.298	22.75
713.616	22.08
713.935	21.35
714.253	21.48
714.572	21.22
714.89	21.75
715.208	22.82
715.526	22.03
715.844	22.07
716.162	21.93
716.48	21.91
716.798	21.85
717.116	21.39
717.434	22.5
717.752	21.5
718.069	22.84
718.387	21.46
718.705	22.76
719.022	21.35
719.34	21.25
719.657	21.31
719.975	22.85
720.292	22.17
720.609	22.93
720.927	21.48
721.244	22.72
721.561	23.57
721.878	23.32
722.195	22.36
722.512	23.4
722.829	23.21
723.146	22.15
723.463	23.42
723.779	22.18
724.096	23.46
724.413	23.23
724.729	22.31
725.046	21.35
725.362	23.36
725.679	21.65
725.995	23.01
726.311	23.2
726.628	22.53
726.944	24.05
727.26	24.33
727.576	24.11
727.892	23.08
728.208	22.89
728.524	22.73
728.84	22.31
729.156	24.33
729.472	22.61
729.787	23.37
730.103	23.21
730.419	23.38
730.734	23.25
731.05	23.97
731.365	23.83
731.681	24.03
731.996	23.72
732.311	23.42
732.626	24.57
732.942	23.38
733.257	24.13
733.572	23.76
733.887	24
734.202	24.18
734.517	24.32
734.832	23.62
735.146	23.88
735.461	23.25
735.776	23.44
736.091	24.84
736.405	25.78
736.72	23.75
737.034	24.33
737.349	25.52
737.663	25.65
737.977	25.09
738.292	25.56
738.606	25.11
738.92	25.18
739.234	25.17
739.548	24.97
739.862	24.71
740.176	22.42
740.49	23.63
740.804	27.13
741.117	24.61
741.431	24.54
741.745	24.98
742.058	25.31
742.372	23.43
742.685	26.23
742.999	25.46
743.312	24.92
743.626	23.33
743.939	25.29
744.252	25.47
744.565	24.67
744.878	27.14
745.191	24.11
745.505	24.12
745.817	27.26
746.13	25.99
746.443	26.22
746.756	25.48
747.069	25.35
747.381	25.99
747.694	22.35
748.007	25.76
748.319	23.99
748.632	25.77
748.944	26.19
749.256	26.92
749.569	23.99
749.881	26.3
750.193	26.84
750.505	25.13
750.817	25.24
751.129	26.51
751.441	24.21
751.753	28.46
752.065	29.05
752.377	26.57
752.689	27.81
753	24.48
753.312	24.99
753.624	26.63
753.935	27.21
754.247	27.59
754.558	27.22
754.869	26.89
755.181	26.11
755.492	27.17
755.803	26.07
756.114	26.96
756.425	25.93
756.736	25.52
757.047	27.29
757.358	28.32
757.669	26.69
757.98	25.85
758.291	27.05
758.601	27.25
758.912	26.17
759.223	28.55
759.533	24.2
759.844	26.49
760.154	25.67
760.464	28
760.775	27.04
761.085	26.35
761.395	28.39
761.705	26.88
762.016	28.33
762.326	29.93
762.636	26.24
762.945	27.86
763.255	29.4
763.565	26.25
763.875	28.47
764.185	28.31
764.494	28.28
764.804	28.16
765.113	28.19
765.423	28.6
765.732	26.8
766.042	27.69
766.351	27.36
766.66	29.18
766.97	28.77
767.279	28.43
767.588	29.03
767.897	29.86
768.206	28.04
768.515	28.01
768.824	26.29
769.133	27.68
769.441	28.49
769.75	28.13
770.059	28.76
770.367	28.41
770.676	29.7
770.984	31.54
771.293	28.75
771.601	32.3
771.91	25.61
772.218	32.06
772.526	28.03
772.834	31.7
773.142	29.59
773.45	29.07
773.758	27.81
774.066	27.8
774.374	28.41
774.682	29.94
774.99	31.56
775.298	28.07
775.605	29.19
775.913	28.21
776.22	28.08
776.528	29.85
776.835	28.53
777.143	29.16
777.45	29.1
777.757	29.77
778.065	27.45
778.372	30.18
778.679	27.99
778.986	27.68
779.293	29.65
779.6	30.49
779.907	29.31
780.214	31.99
780.52	30.45
780.827	31.49
781.134	34.32
781.44	26.65
781.747	31.89
782.053	27.22
782.36	27.4
782.666	32.34
782.973	30.94
783.279	28.82
783.585	31.53
783.891	27.68
784.197	34.36
784.503	29.44
784.809	34.08
785.115	29.19
785.421	31.85
785.727	30.1
786.033	28.02
786.339	26.68
786.644	34.58
786.95	32.62
787.255	30.46
787.561	31.89
787.866	32.91
788.172	31.83
788.477	29.93
788.782	32.9
789.088	34.11
789.393	32.9
789.698	28.43
790.003	30.18
790.308	27.04
790.613	30.03
790.918	31.31
791.223	31.38
791.527	28.83
791.832	32.48
792.137	26.83
792.441	31.18
792.746	32.58
793.05	29.43
793.355	31.92
793.659	31.96
793.963	28.48
794.268	31.19
794.572	35.79
794.876	29.95
795.18	34.88
795.484	35.9
795.788	31.53
796.092	33.68
796.396	30.91
796.7	31.45
797.004	34.16
797.307	29.45
797.611	34.82
797.915	29.35
798.218	32.32
798.522	29.02
798.825	32.05
799.128	34.26
799.432	31.79
799.735	30.28
800.038	31.77
800.341	31.61
800.644	27.96
800.947	32.8
801.25	35.93
801.553	26.32
801.856	35.97
802.159	32.96
802.462	31.01
802.764	28.74
803.067	33.01
803.37	30.26
803.672	30.9
803.975	32.33
804.277	31.66
804.579	28.03
804.882	35.04
805.184	29.17
805.486	26.67
805.788	34.44
806.09	35.81
806.392	25.72
806.694	34.18
806.996	37.04
807.298	35.28
807.6	35.51
807.902	35.5
808.203	29.37
808.505	35.38
808.807	34.6
809.108	34.62
809.409	39.72
809.711	31.14
810.012	32.81
810.313	30.27
810.615	29.17
810.916	37.92
811.217	38.26
811.518	32.58
811.819	35.42
812.12	35.23
812.421	29.78
812.722	35.62
813.023	38
813.323	31.99
813.624	35.94
813.925	40.58
814.225	33.3
814.526	41.77
814.826	38.95
815.126	37.84
815.427	34.15
815.727	37.97
816.027	31.93
816.327	33.54
816.627	34.05
816.927	36.65
817.227	35.63
817.527	34.63
817.827	37.6
818.127	41.69
818.427	36.47
818.727	35.95
819.026	37.3
819.326	42.15
819.625	38.11
819.925	29.57
820.224	34.01
820.524	33.14
820.823	38.78
821.122	35.19
821.421	33.85
821.72	32.96
822.019	34.4
822.318	35.63
822.617	32.27
822.916	32.51
823.215	35.85
823.514	40.06
823.813	37.24
824.111	36
824.41	36.13
824.709	34.73
825.007	35.33
825.306	35.75
825.604	34.95
825.902	34.26
826.201	35.09
826.499	33.72
826.797	36.09
827.095	34.03
827.393	34.53
827.691	34.86
827.989	33.98
828.287	36.51
828.585	34.92
828.882	35.27
829.18	36.36
829.478	37.48
829.775	36.4
830.073	34.06
830.37	36.6
830.668	36.6
830.965	36.2
831.263	39.72
831.56	35.18
831.857	35.27
832.154	34.09
832.451	37.02
832.748	35.69
833.045	37.05
833.342	39.15
833.639	35.08
833.936	33.15
834.232	36.59
834.529	35.22
834.826	36.11
835.122	39.34
835.419	41.23
835.715	37.88
836.012	46.25
836.308	32.66
836.604	35.83
836.901	36
837.197	35.04
837.493	34.55
837.789	38.45
838.085	37.99
838.381	37.75
838.677	38.11
838.972	35.7
839.268	35.88
839.564	38.55
839.86	36.54
840.155	33.43
840.451	28.26
840.746	35.83
841.042	38.99
841.337	39.28
841.632	41.94
841.928	41.13
842.223	40.19
842.518	33.89
842.813	44.05
843.108	42.78
843.403	40.62
843.698	31.18
843.993	41.87
844.287	27.57
844.582	39.12
844.877	40.95
845.171	42.08
845.466	35.82
845.761	41.08
846.055	38.23
846.349	25.94
846.644	28.21
846.938	23.92
847.232	20.52
847.526	37.4
847.82	51.74
848.114	22.02
848.408	45.53
848.702	35.52
848.996	24.2
849.29	43.02
849.584	54.22
849.877	31.78
850.171	36.88
850.465	41.18
850.758	35.02
851.052	47.68
851.345	51.31
851.638	33.33
851.932	21.66
852.225	54.63
852.518	37.38
852.811	19.97
853.104	33.86
853.397	62.6
853.69	28.84
853.983	29.02
854.276	39
854.569	56.04
854.861	47.86
855.154	46.85
855.447	41.78
855.739	63.14
856.032	29.39
856.324	51.58
856.616	73.69
856.909	44.15
857.201	53.21
857.493	24.48
857.785	20.37
858.077	63.56
858.369	58.59
858.661	29.66
858.953	45.87
859.245	14.88
859.537	60.22
859.829	61.68
860.12	46.18
860.412	38.63
860.703	59.71
860.995	45.78
861.286	33.96
861.578	36.6
861.869	45.97
862.16	45.83
862.452	71.95
862.743	64.7
863.034	52.2
863.325	33.05
863.616	40.95
863.907	47.62
864.198	55.32
864.488	57.47
864.779	42.85
865.07	37.51
865.36	15.94
865.651	64.38
865.941	26.94
866.232	49.15
866.522	29.9
866.813	36.1
867.103	57.94
867.393	33.88
867.683	62.61
867.973	49.48
868.263	42.69
868.553	67.57
868.843	32.13
869.133	18.81
869.423	47.91
869.713	40.89
870.002	41.71
870.292	24.45
870.582	75.35
870.871	39.46
871.161	37.62
871.45	53.56
871.739	25.88
872.029	47.17
872.318	59.59
872.607	67.49
872.896	44.07
873.185	29.05
873.474	24.99
873.763	76.36
874.052	32.32
874.341	40.1
874.63	67.59
874.918	35.77
875.207	57
875.496	58.41
875.784	-48.32
876.073	46.17
876.361	89.21
876.649	50.97
876.938	31.05
877.226	52.24
877.514	53.07
877.802	31.97
878.09	30.19
878.378	58.35
878.666	58.06
878.954	58.82
879.242	34.13
879.53	55.35
879.817	48.33
880.105	33.28
880.392	28.81
880.68	20.12
880.967	29.74
881.255	62.12
881.542	69.92
881.83	15.5
882.117	47.1
882.404	67.42
882.691	47.06
882.978	56.72
883.265	47.83
883.552	45.22
883.839	53.01
884.126	39.74
884.413	43.56
884.699	53.5
884.986	35.49
885.273	38.57
885.559	38.57
885.846	38.57
