Data from 0415_forehead_Reflection__0__25.txt Node

Date: Fri Dec 15 16:37:19 CST 2023
User: ToomeyLab
Spectrometer: FLMS14357
Trigger mode: 0
Integration Time (sec): 1.000000E-2
Scans to average: 100
Electric dark correction enabled: true
Nonlinearity correction enabled: false
Boxcar width: 0
XAxis mode: Wavelengths
Number of Pixels in Spectrum: 2048
>>>>>Begin Spectral Data<<<<<
189.047	-86.36
189.435	-86.36
189.823	-86.36
190.211	-75.05
190.599	-1225.76
190.987	188.56
191.375	83
191.763	-74.92
192.151	90.13
192.538	52.61
192.926	-201.81
193.314	886.47
193.702	139.47
194.089	373.75
194.477	-1.77
194.864	-99.89
195.252	84.58
195.639	103.21
196.027	-566.52
196.414	562.17
196.801	295.73
197.189	-20.48
197.576	-22.69
197.963	19.74
198.351	-14.75
198.738	19.67
199.125	19.82
199.512	16.97
199.899	-8.36
200.286	33.58
200.673	48.49
201.06	50.17
201.447	2.06
201.833	17.97
202.22	51.48
202.607	25.19
202.994	44.8
203.38	34.19
203.767	48.76
204.154	31.97
204.54	54.7
204.927	-1.47
205.313	35
205.699	50.63
206.086	57.57
206.472	27.68
206.858	65.61
207.245	-2.7
207.631	48.2
208.017	36.46
208.403	41.03
208.789	28.07
209.175	64.77
209.561	0.65
209.947	-2.63
210.333	116.96
210.719	80.82
211.105	38.75
211.491	15
211.876	54.92
212.262	63.44
212.648	30.63
213.034	30.32
213.419	13.73
213.805	-5.44
214.19	39.99
214.576	23.79
214.961	45.19
215.346	-15.95
215.732	32.98
216.117	25.61
216.502	41.82
216.888	32.55
217.273	64.85
217.658	17.2
218.043	23.93
218.428	-31.68
218.813	14.15
219.198	19.47
219.583	45.6
219.968	51.75
220.353	24.49
220.738	22.08
221.122	29.32
221.507	-0.96
221.892	-4.52
222.276	6.08
222.661	10.31
223.046	31.63
223.43	20.29
223.815	15.08
224.199	-2.41
224.583	19.64
224.968	6.36
225.352	20.21
225.736	1.32
226.121	4.84
226.505	13.06
226.889	13.21
227.273	4.05
227.657	13.15
228.041	1.34
228.425	7.69
228.809	9.76
229.193	9.45
229.577	6.74
229.961	4.12
230.344	5.03
230.728	4.35
231.112	4.25
231.495	4.49
231.879	5.22
232.263	8.5
232.646	6.43
233.03	6.68
233.413	3.63
233.797	7.41
234.18	6.97
234.563	8.48
234.946	5.66
235.33	6.76
235.713	6.73
236.096	5.68
236.479	6.44
236.862	3.66
237.245	7.21
237.628	4.69
238.011	8.17
238.394	7.56
238.777	6.6
239.16	4.32
239.543	6.86
239.925	6.76
240.308	4.67
240.691	7.11
241.073	6.33
241.456	4.96
241.838	4.64
242.221	4.55
242.603	6.33
242.986	5.45
243.368	4.97
243.75	4.84
244.133	4.73
244.515	4.84
244.897	4.89
245.279	5.01
245.661	5.06
246.043	5.32
246.425	4.43
246.807	6.03
247.189	6.22
247.571	5.26
247.953	5.12
248.335	4.68
248.717	4.43
249.098	4.63
249.48	4.93
249.862	4.73
250.243	4.77
250.625	5.03
251.006	5.29
251.388	4.47
251.769	4.73
252.151	5.99
252.532	5.17
252.913	5
253.295	4.87
253.676	4.99
254.057	5.33
254.438	4.68
254.819	4.4
255.2	4.98
255.581	4.69
255.962	4.94
256.343	7.37
256.724	5.79
257.105	5.71
257.486	5.02
257.867	5.98
258.247	5.56
258.628	4.74
259.009	5.06
259.389	5.29
259.77	4.97
260.15	4.26
260.531	3.98
260.911	5.12
261.292	4.81
261.672	4.75
262.052	4.72
262.432	5.17
262.813	5.14
263.193	4.84
263.573	4.94
263.953	5.39
264.333	5.13
264.713	4.97
265.093	4.53
265.473	5.4
265.853	3.93
266.233	5.69
266.612	3.52
266.992	3.82
267.372	5.09
267.752	5.63
268.131	4.75
268.511	5.36
268.89	5.51
269.27	4.41
269.649	5.57
270.029	4.73
270.408	6.05
270.787	5.24
271.167	5.54
271.546	4.6
271.925	4.77
272.304	4.95
272.683	5.09
273.062	4.73
273.441	5.11
273.82	5.1
274.199	4.86
274.578	4.95
274.957	4.75
275.336	4.71
275.715	4.75
276.093	4.82
276.472	5.74
276.851	5.2
277.229	4.83
277.608	4.05
277.986	4.96
278.365	5.15
278.743	4.85
279.122	4.81
279.5	4.93
279.878	6.11
280.257	5.03
280.635	4.09
281.013	4.96
281.391	5.49
281.769	4.67
282.147	5.37
282.525	5.43
282.903	4.91
283.281	5.52
283.659	4.95
284.037	5.41
284.415	4.88
284.792	5.06
285.17	4.31
285.548	4.37
285.925	5.55
286.303	5.21
286.68	4.74
287.058	5.18
287.435	4.89
287.813	4.88
288.19	4.94
288.567	5.03
288.945	5.44
289.322	4.83
289.699	5.4
290.076	4.95
290.453	4.96
290.83	4.8
291.207	5.05
291.584	5.58
291.961	5.77
292.338	5.27
292.715	5.63
293.092	5.7
293.469	4.82
293.845	6.27
294.222	5.21
294.599	5.36
294.975	5.53
295.352	5.97
295.728	6.23
296.105	5.43
296.481	5.67
296.858	5.74
297.234	5.83
297.61	6.05
297.986	5.75
298.363	5.65
298.739	5.8
299.115	5.54
299.491	5.81
299.867	6.03
300.243	6.46
300.619	5.98
300.995	6.33
301.371	6.91
301.746	6.02
302.122	6.94
302.498	6.18
302.874	6.93
303.249	7.23
303.625	7.01
304	7.05
304.376	7.3
304.751	6.68
305.127	8.1
305.502	6.42
305.878	6.77
306.253	7.21
306.628	7.96
307.003	7.51
307.378	7.44
307.754	7.32
308.129	6.41
308.504	7.63
308.879	7.54
309.254	8.58
309.629	7.73
310.003	7.61
310.378	8.48
310.753	8.11
311.128	7.62
311.502	8.3
311.877	8.59
312.252	7.98
312.626	7.79
313.001	8.24
313.375	8.84
313.75	8.23
314.124	8.6
314.498	8.62
314.873	8.61
315.247	8.98
315.621	9.01
315.995	8.2
316.369	9.21
316.743	9.12
317.117	9.51
317.491	9.42
317.865	9.25
318.239	9.08
318.613	10.17
318.987	10.4
319.361	8.6
319.734	10.21
320.108	9.72
320.482	10.16
320.855	10.32
321.229	9.55
321.602	9.46
321.976	10.04
322.349	10.18
322.723	10.41
323.096	10.46
323.469	9.15
323.843	9.86
324.216	10.59
324.589	9.84
324.962	10.91
325.335	10.21
325.708	10.78
326.081	10.63
326.454	11.19
326.827	10.43
327.2	10.85
327.573	11.27
327.945	10.59
328.318	10.78
328.691	10.65
329.063	10.9
329.436	10.82
329.809	11.67
330.181	11.36
330.553	11.67
330.926	11.89
331.298	11.29
331.671	10.96
332.043	12.2
332.415	11.85
332.787	11.66
333.159	12.66
333.532	11.68
333.904	12.12
334.276	12.05
334.648	11.77
335.02	11.89
335.391	12.18
335.763	12.13
336.135	11.94
336.507	11.72
336.879	12.18
337.25	12.18
337.622	12.04
337.993	12.13
338.365	13.24
338.736	12.92
339.108	12.45
339.479	12.55
339.851	13.07
340.222	12.48
340.593	13
340.964	12.67
341.336	13.78
341.707	12.76
342.078	13.5
342.449	13.57
342.82	12.76
343.191	13.36
343.562	13.29
343.933	13.49
344.303	13.51
344.674	13.26
345.045	12.85
345.416	14.17
345.786	13.2
346.157	13.99
346.527	13.3
346.898	13.44
347.268	13.95
347.639	13.64
348.009	13.72
348.38	13.81
348.75	13.6
349.12	13.81
349.49	14.63
349.861	14.67
350.231	14.04
350.601	14.25
350.971	14.67
351.341	14.61
351.711	14.27
352.081	14.82
352.45	14.58
352.82	15.13
353.19	14.74
353.56	14.9
353.929	15.08
354.299	14.91
354.669	14.41
355.038	15.32
355.408	15.06
355.777	15.26
356.147	15.26
356.516	15.7
356.885	15.47
357.254	15.44
357.624	16.06
357.993	15.55
358.362	15.03
358.731	15.41
359.1	15.67
359.469	15.54
359.838	15.65
360.207	15.39
360.576	15.62
360.945	15.97
361.314	16.2
361.682	16.05
362.051	16.03
362.42	15.97
362.788	16
363.157	16.13
363.525	16.24
363.894	16.12
364.262	16.07
364.631	16.17
364.999	16.57
365.367	16.51
365.735	17.3
366.104	16.97
366.472	16.7
366.84	16.67
367.208	16.71
367.576	17.25
367.944	17.21
368.312	17.25
368.68	16.82
369.048	17.59
369.416	17.18
369.783	17.18
370.151	17.27
370.519	17.9
370.886	17.83
371.254	17.33
371.621	17.74
371.989	17.86
372.356	17.42
372.724	17.99
373.091	17.76
373.458	17.6
373.826	18.08
374.193	17.74
374.56	18.25
374.927	18.39
375.294	18.6
375.661	18.3
376.028	17.96
376.395	17.93
376.762	18.59
377.129	18.28
377.496	18.41
377.863	18.46
378.229	18.92
378.596	18.59
378.963	18.53
379.329	18.51
379.696	18.99
380.062	18.93
380.429	18.89
380.795	19.17
381.161	19.24
381.528	19.25
381.894	18.97
382.26	19.38
382.626	19.65
382.993	19.17
383.359	19.56
383.725	18.91
384.091	19.54
384.457	19.71
384.823	19.55
385.188	19.82
385.554	20.02
385.92	19.84
386.286	19.8
386.651	19.87
387.017	20.2
387.383	20.01
387.748	20.36
388.114	20.26
388.479	20.35
388.845	20.2
389.21	20.22
389.575	20.2
389.94	20.57
390.306	20.63
390.671	20.7
391.036	20.43
391.401	20.82
391.766	20.66
392.131	20.95
392.496	20.79
392.861	20.73
393.226	20.88
393.591	21.3
393.956	20.99
394.32	21.35
394.685	20.89
395.05	21.03
395.414	21.27
395.779	21.32
396.143	21.79
396.508	21.23
396.872	21.55
397.236	21.62
397.601	21.43
397.965	21.76
398.329	22.08
398.694	21.98
399.058	21.99
399.422	21.7
399.786	22.45
400.15	22.07
400.514	22.2
400.878	22.38
401.242	22.6
401.605	22.14
401.969	22.33
402.333	22.21
402.697	22.23
403.06	22.49
403.424	22.36
403.787	22.64
404.151	22.76
404.514	22.52
404.878	22.77
405.241	22.63
405.604	22.77
405.968	23.03
406.331	22.96
406.694	22.86
407.057	22.97
407.42	23.49
407.783	23.07
408.146	23.26
408.509	23.27
408.872	22.99
409.235	23.36
409.598	23.4
409.961	23.37
410.323	23.64
410.686	23.64
411.049	23.86
411.411	23.3
411.774	23.67
412.136	24.01
412.499	23.68
412.861	23.6
413.223	23.85
413.586	24.17
413.948	24.16
414.31	24.32
414.672	23.56
415.035	24.09
415.397	24.45
415.759	24.21
416.121	24.39
416.483	24.2
416.845	24.45
417.206	24.1
417.568	24.43
417.93	24.42
418.292	24.54
418.653	24.57
419.015	24.52
419.377	24.57
419.738	24.55
420.1	24.56
420.461	24.63
420.822	24.73
421.184	24.46
421.545	24.59
421.906	24.63
422.267	24.77
422.629	24.63
422.99	24.75
423.351	24.66
423.712	24.74
424.073	24.68
424.434	24.98
424.795	25.07
425.155	25.14
425.516	24.9
425.877	25.12
426.238	25.11
426.598	25.2
426.959	25.29
427.32	25.37
427.68	25.34
428.041	25.61
428.401	25.64
428.761	25.75
429.122	25.75
429.482	25.89
429.842	25.98
430.202	25.99
430.563	25.92
430.923	26.06
431.283	26.51
431.643	26.13
432.003	26.24
432.363	26.7
432.722	26.41
433.082	26.63
433.442	26.8
433.802	26.66
434.161	26.62
434.521	26.82
434.881	26.66
435.24	26.75
435.6	26.81
435.959	26.71
436.319	26.96
436.678	27.08
437.037	27.03
437.396	27.15
437.756	27.32
438.115	27.14
438.474	27.21
438.833	27.17
439.192	27.25
439.551	27.41
439.91	27.34
440.269	27.5
440.628	27.46
440.987	27.38
441.345	27.47
441.704	27.51
442.063	27.48
442.421	27.44
442.78	27.34
443.138	27.51
443.497	27.82
443.855	27.57
444.214	27.93
444.572	28.27
444.93	27.91
445.288	28.17
445.647	28.36
446.005	28.15
446.363	28.32
446.721	28.28
447.079	28.17
447.437	28.24
447.795	28.18
448.153	28.17
448.51	28.17
448.868	28.35
449.226	28.4
449.584	28.53
449.941	28.43
450.299	28.56
450.656	28.73
451.014	28.84
451.371	28.72
451.729	28.94
452.086	29.08
452.443	29.13
452.801	29.13
453.158	29.16
453.515	28.86
453.872	29.27
454.229	29.31
454.586	29.37
454.943	29.34
455.3	29.55
455.657	29.51
456.014	29.44
456.371	29.59
456.727	29.66
457.084	30.06
457.441	29.85
457.797	29.88
458.154	30.16
458.51	30.19
458.867	30.29
459.223	30.37
459.58	30.42
459.936	30.34
460.292	30.21
460.648	30.28
461.005	30.1
461.361	30.09
461.717	29.84
462.073	29.96
462.429	30.16
462.785	30.19
463.141	30.55
463.496	30.55
463.852	30.64
464.208	30.74
464.564	30.86
464.919	31.08
465.275	30.93
465.631	31.17
465.986	31.09
466.342	31.09
466.697	31.09
467.052	31.45
467.408	31.23
467.763	31.53
468.118	31.38
468.473	31.37
468.829	31.52
469.184	31.56
469.539	31.66
469.894	31.67
470.249	31.97
470.603	32.03
470.958	31.98
471.313	32.1
471.668	31.93
472.023	31.89
472.377	31.88
472.732	31.9
473.086	31.94
473.441	31.76
473.795	32.43
474.15	32.28
474.504	32.35
474.859	32.33
475.213	32.35
475.567	32.13
475.921	32.22
476.275	32.4
476.63	32.59
476.984	32.82
477.338	33.04
477.692	32.74
478.045	32.76
478.399	32.59
478.753	32.68
479.107	32.64
479.461	32.64
479.814	32.87
480.168	32.87
480.521	33.07
480.875	32.94
481.228	32.89
481.582	32.99
481.935	33.18
482.289	33.12
482.642	33.11
482.995	33.24
483.348	33.06
483.701	33.05
484.055	33.02
484.408	32.99
484.761	32.7
485.114	32.49
485.466	32.27
485.819	32.3
486.172	32.36
486.525	32.45
486.878	32.41
487.23	32.76
487.583	32.92
487.936	33.12
488.288	33.27
488.641	33.13
488.993	32.98
489.345	32.95
489.698	32.9
490.05	33.02
490.402	33.06
490.754	33.3
491.107	33.47
491.459	33.54
491.811	33.91
492.163	33.99
492.515	34.06
492.866	33.82
493.218	33.64
493.57	33.61
493.922	33.64
494.274	33.71
494.625	33.99
494.977	34.2
495.328	34.67
495.68	34.81
496.031	34.9
496.383	35.02
496.734	35.03
497.086	34.92
497.437	35
497.788	35.13
498.139	35.22
498.49	35.22
498.842	35.13
499.193	35.09
499.544	35.36
499.894	35.24
500.245	35.26
500.596	35.55
500.947	35.58
501.298	35.63
501.648	35.81
501.999	35.71
502.35	35.96
502.7	35.85
503.051	36.03
503.401	36.16
503.752	36.3
504.102	36.22
504.452	36.38
504.803	36.19
505.153	36.46
505.503	36.37
505.853	36.31
506.203	36.41
506.553	36.32
506.903	36.55
507.253	36.5
507.603	36.53
507.953	37
508.303	36.9
508.652	36.71
509.002	36.92
509.352	36.97
509.701	36.74
510.051	36.66
510.4	36.81
510.75	36.93
511.099	36.83
511.449	36.68
511.798	37.01
512.147	37.05
512.496	36.97
512.846	37.15
513.195	37.11
513.544	36.94
513.893	37.11
514.242	37.15
514.591	37.49
514.939	37.31
515.288	37.35
515.637	37.46
515.986	37.53
516.334	37.62
516.683	37.85
517.032	37.9
517.38	38.1
517.729	38.07
518.077	38.04
518.426	38.12
518.774	37.98
519.122	38.12
519.47	38.02
519.819	37.77
520.167	37.74
520.515	37.67
520.863	37.87
521.211	37.91
521.559	38.1
521.907	38.24
522.255	38.19
522.602	38.25
522.95	38.39
523.298	38.41
523.645	38.64
523.993	38.87
524.341	38.78
524.688	38.84
525.036	38.74
525.383	38.8
525.73	38.92
526.078	38.78
526.425	38.86
526.772	38.98
527.119	38.73
527.466	38.6
527.814	38.47
528.161	38.6
528.508	38.68
528.854	38.52
529.201	38.66
529.548	38.54
529.895	38.43
530.242	38.17
530.588	38.17
530.935	38.36
531.282	38.23
531.628	38.44
531.975	38.72
532.321	38.87
532.667	39.07
533.014	39.16
533.36	39.04
533.706	39.45
534.052	39.48
534.399	39.35
534.745	39.19
535.091	39
535.437	39.32
535.783	39.23
536.129	39.46
536.474	39.54
536.82	39.94
537.166	39.8
537.512	39.79
537.857	40.13
538.203	39.92
538.549	39.8
538.894	40.05
539.239	40.15
539.585	40.35
539.93	40.3
540.276	40.71
540.621	40.7
540.966	40.71
541.311	40.79
541.656	40.41
542.001	40.65
542.346	40.39
542.691	40.31
543.036	40.14
543.381	40.14
543.726	40.07
544.071	40.31
544.415	40.57
544.76	40.41
545.105	40.55
545.449	40.89
545.794	40.88
546.138	41.1
546.483	41.3
546.827	41.21
547.171	41.2
547.516	41.78
547.86	41.51
548.204	41.59
548.548	41.22
548.892	41.45
549.236	41.48
549.58	41.55
549.924	41.75
550.268	41.96
550.612	42.16
550.956	42.19
551.3	42.3
551.643	42.61
551.987	42.4
552.33	42.71
552.674	42.83
553.017	42.58
553.361	42.49
553.704	42.84
554.048	42.82
554.391	42.77
554.734	42.88
555.077	42.55
555.42	42.54
555.764	42.77
556.107	42.49
556.45	42.96
556.793	43.21
557.135	42.94
557.478	43.58
557.821	43.2
558.164	43.29
558.507	43.78
558.849	43.33
559.192	43.82
559.534	43.6
559.877	43.8
560.219	44.01
560.562	44.09
560.904	44.05
561.246	44.23
561.589	43.98
561.931	43.9
562.273	43.75
562.615	43.94
562.957	43.85
563.299	43.79
563.641	44.16
563.983	43.99
564.325	44.28
564.667	44.01
565.008	44.23
565.35	44.4
565.692	44.3
566.033	44.46
566.375	44.78
566.716	44.56
567.058	44.64
567.399	44.5
567.741	44.34
568.082	44.32
568.423	44.4
568.764	44.67
569.105	44.72
569.447	44.49
569.788	44.66
570.129	44.63
570.47	44.77
570.811	44.87
571.151	45.41
571.492	45.23
571.833	44.86
572.174	44.86
572.514	45.29
572.855	45.21
573.195	45.21
573.536	44.97
573.876	45.06
574.217	45
574.557	45.12
574.898	45.15
575.238	45.2
575.578	45.3
575.918	45.12
576.258	45.56
576.598	45.35
576.938	45.52
577.278	45.23
577.618	45.35
577.958	45.2
578.298	45.51
578.638	45.29
578.977	45.72
579.317	45.97
579.657	46.02
579.996	45.99
580.336	46.41
580.675	46.23
581.014	46.23
581.354	46.5
581.693	46.56
582.032	46.22
582.372	46.68
582.711	47.07
583.05	46.36
583.389	46.62
583.728	46.67
584.067	46.65
584.406	46.88
584.745	46.86
585.083	46.6
585.422	47.01
585.761	47.12
586.1	47.18
586.438	46.66
586.777	47.03
587.115	46.86
587.454	46.78
587.792	47.04
588.13	47.2
588.469	47.4
588.807	47
589.145	47.35
589.483	47.55
589.821	47.34
590.159	47.43
590.497	47.58
590.835	47.69
591.173	47.37
591.511	47.62
591.849	47.42
592.187	47.22
592.524	47.8
592.862	47.6
593.2	47.75
593.537	47.77
593.875	47.54
594.212	47.69
594.55	47.69
594.887	48.38
595.224	48.08
595.561	48.13
595.899	47.81
596.236	48.33
596.573	48.22
596.91	48.09
597.247	48.2
597.584	48.14
597.921	48.03
598.258	47.97
598.594	48.25
598.931	47.95
599.268	47.94
599.604	47.97
599.941	48.04
600.277	47.85
600.614	48.43
600.95	48.34
601.287	48.43
601.623	48.43
601.959	48.38
602.296	49.18
602.632	48.95
602.968	48.76
603.304	48.81
603.64	48.8
603.976	48.99
604.312	48.68
604.648	49.01
604.984	48.92
605.319	48.59
605.655	48.8
605.991	48.94
606.326	48.75
606.662	48.39
606.998	48.74
607.333	48.74
607.668	49.2
608.004	49.13
608.339	48.9
608.674	49.52
609.01	49.24
609.345	49.25
609.68	49.49
610.015	49.09
610.35	49.3
610.685	49.66
611.02	49.97
611.355	49.69
611.689	49.38
612.024	49.57
612.359	49.41
612.694	49.39
613.028	49.48
613.363	49.68
613.697	49.66
614.032	50.05
614.366	49.8
614.7	50.32
615.035	50.3
615.369	50.23
615.703	50.58
616.037	50.17
616.371	50.39
616.705	50.79
617.039	50.47
617.373	50.35
617.707	50.85
618.041	50.3
618.375	50.66
618.709	50.48
619.042	50.99
619.376	50.74
619.71	51.04
620.043	50.8
620.377	50.96
620.71	50.56
621.043	51.1
621.377	50.71
621.71	51.04
622.043	50.86
622.376	50.66
622.709	51.31
623.043	50.51
623.376	50.78
623.709	51.14
624.041	51.19
624.374	51.44
624.707	51.22
625.04	51.63
625.373	50.94
625.705	51.43
626.038	51.6
626.37	51.51
626.703	51.44
627.035	51.28
627.368	51.47
627.7	51.49
628.032	51.59
628.365	51.74
628.697	51.6
629.029	51.61
629.361	51.47
629.693	51.71
630.025	51.92
630.357	51.73
630.689	51.89
631.021	51.56
631.353	52.32
631.684	51.23
632.016	51.94
632.348	52.01
632.679	51.61
633.011	52.25
633.342	51.94
633.674	52.13
634.005	52.33
634.336	52.29
634.668	52.15
634.999	53.1
635.33	52.52
635.661	52.63
635.992	52.01
636.323	52.79
636.654	52.11
636.985	52.62
637.316	52.89
637.647	52.23
637.977	53.03
638.308	52.77
638.639	52.53
638.969	53.04
639.3	52.56
639.63	52.92
639.961	52.99
640.291	53.18
640.622	52.54
640.952	53.11
641.282	53.23
641.612	53.59
641.943	53.43
642.273	53.06
642.603	53.08
642.933	53.73
643.263	52.9
643.592	53.41
643.922	53.2
644.252	53.33
644.582	53.45
644.911	53.4
645.241	53.62
645.571	53.62
645.9	53.39
646.23	53.69
646.559	53.72
646.888	53.51
647.218	53.4
647.547	53.98
647.876	53.92
648.205	53.82
648.534	54.01
648.863	53.83
649.192	53.72
649.521	53.83
649.85	53.79
650.179	54.08
650.508	53.38
650.837	53.86
651.165	53.94
651.494	53.92
651.822	54.04
652.151	53.85
652.479	54.34
652.808	53.77
653.136	54.06
653.465	53.89
653.793	54.47
654.121	54.36
654.449	54.52
654.777	54.5
655.105	55.18
655.433	54.85
655.761	54.2
656.089	54.87
656.417	54.58
656.745	54.21
657.073	54.09
657.4	54.91
657.728	54.35
658.056	54.2
658.383	55.21
658.711	54.57
659.038	54.9
659.365	54.98
659.693	54.82
660.02	54.5
660.347	54.38
660.674	54.66
661.001	54.83
661.329	54.01
661.656	54.69
661.982	54.7
662.309	54.98
662.636	54.84
662.963	54.95
663.29	55.17
663.616	55.39
663.943	54.54
664.27	55.21
664.596	55.92
664.923	55.02
665.249	55.59
665.576	55.4
665.902	55.3
666.228	55.16
666.554	55.18
666.881	55.66
667.207	55.1
667.533	55.29
667.859	56.07
668.185	55.71
668.511	54.71
668.837	54.34
669.162	55.63
669.488	55.68
669.814	55.49
670.139	55.65
670.465	55.79
670.791	55.73
671.116	55.89
671.442	55.87
671.767	55.69
672.092	56.36
672.418	56.01
672.743	55.5
673.068	55.42
673.393	56.31
673.718	55.49
674.043	56.22
674.368	56.69
674.693	56.83
675.018	56.44
675.343	56.28
675.667	56.94
675.992	56.32
676.317	56.69
676.641	57.62
676.966	57.45
677.29	56.25
677.615	56.31
677.939	55.46
678.264	56.7
678.588	56.31
678.912	57.11
679.236	56.68
679.56	56.12
679.885	56.4
680.209	56.95
680.532	55.48
680.856	56.28
681.18	56.55
681.504	56.38
681.828	56.74
682.152	56.72
682.475	56.13
682.799	56.2
683.122	56.89
683.446	56.78
683.769	56.91
684.093	56.95
684.416	57.4
684.739	56.91
685.062	57.01
685.386	56.72
685.709	57.31
686.032	57.44
686.355	57.17
686.678	57.01
687.001	56.91
687.324	57.21
687.646	56.64
687.969	56.9
688.292	57.47
688.614	57.45
688.937	57.91
689.26	58.06
689.582	57.4
689.904	57.12
690.227	57.53
690.549	57.54
690.871	58.48
691.194	57.62
691.516	57.76
691.838	57.67
692.16	57.57
692.482	58.01
692.804	57.97
693.126	58.08
693.448	57.38
693.769	57.56
694.091	57.65
694.413	58.18
694.735	56.87
695.056	58.47
695.378	56.79
695.699	56.77
696.021	57.19
696.342	57.23
696.663	58.18
696.984	58.76
697.306	57.25
697.627	57.97
697.948	57.94
698.269	58.13
698.59	57.11
698.911	58.75
699.232	58.93
699.553	59.32
699.873	58.33
700.194	57.71
700.515	58.96
700.835	58.24
701.156	58.47
701.477	58.52
701.797	58.51
702.117	58.68
702.438	57.82
702.758	58.55
703.078	57.58
703.398	57.81
703.719	58.26
704.039	57
704.359	59.49
704.679	58.36
704.999	59.03
705.319	58.1
705.638	58.57
705.958	58.96
706.278	57.24
706.597	59.33
706.917	58.05
707.237	59.55
707.556	58.7
707.876	58.9
708.195	59.82
708.514	58.65
708.834	59.16
709.153	58.47
709.472	59.02
709.791	58.69
710.11	58.93
710.429	58.48
710.748	58.46
711.067	59.18
711.386	59.02
711.705	59.87
712.023	59.82
712.342	59.23
712.661	58.82
712.979	59.52
713.298	59.05
713.616	60.2
713.935	58.54
714.253	58.48
714.572	58.92
714.89	59.34
715.208	59.64
715.526	59.82
715.844	59.58
716.162	59.69
716.48	59.87
716.798	60.16
717.116	59.49
717.434	58.84
717.752	58.11
718.069	60.11
718.387	60.24
718.705	59.04
719.022	59.18
719.34	59.4
719.657	60.75
719.975	60.9
720.292	59.93
720.609	60.51
720.927	59.67
721.244	60.5
721.561	60.72
721.878	59.2
722.195	60.34
722.512	58.61
722.829	61.64
723.146	59.8
723.463	59.42
723.779	60.25
724.096	61.26
724.413	58.98
724.729	59.64
725.046	60.58
725.362	61.32
725.679	59.37
725.995	59.09
726.311	60.35
726.628	60.13
726.944	60.14
727.26	60.39
727.576	59.97
727.892	59.68
728.208	58.98
728.524	60.11
728.84	60.6
729.156	60.27
729.472	60.95
729.787	59.64
730.103	57.99
730.419	59.66
730.734	61.17
731.05	61.12
731.365	59.99
731.681	60.44
731.996	60.9
732.311	60.36
732.626	60.81
732.942	59.68
733.257	59.97
733.572	60.68
733.887	60.69
734.202	62.32
734.517	61.68
734.832	61.78
735.146	61.35
735.461	60.4
735.776	62.58
736.091	60.77
736.405	61.06
736.72	58.91
737.034	61.82
737.349	61.64
737.663	60.83
737.977	62.17
738.292	62.92
738.606	60.55
738.92	62.45
739.234	61.95
739.548	61.72
739.862	60.93
740.176	61.33
740.49	59.87
740.804	62.64
741.117	59.66
741.431	61.23
741.745	62.39
742.058	61.84
742.372	61.12
742.685	61.96
742.999	62.02
743.312	61.92
743.626	61.31
743.939	61.82
744.252	63.62
744.565	61.61
744.878	64.35
745.191	61.87
745.505	62.6
745.817	61.47
746.13	63.25
746.443	61.85
746.756	62.49
747.069	61.01
747.381	64.57
747.694	59.79
748.007	62.01
748.319	60.03
748.632	61.36
748.944	64.23
749.256	62.08
749.569	63.49
749.881	64.65
750.193	61.74
750.505	59.93
750.817	62.23
751.129	61.82
751.441	61.29
751.753	63.12
752.065	60.42
752.377	62.47
752.689	61.39
753	63.03
753.312	65.02
753.624	62.93
753.935	62.17
754.247	63.51
754.558	62.8
754.869	62.66
755.181	64.59
755.492	61.25
755.803	62.4
756.114	65.1
756.425	61.21
756.736	61.41
757.047	63.63
757.358	61.86
757.669	63.55
757.98	63.97
758.291	63.48
758.601	65.94
758.912	61.08
759.223	60.64
759.533	62.1
759.844	62.52
760.154	61.85
760.464	65.47
760.775	63.18
761.085	60
761.395	62.55
761.705	63.06
762.016	63.46
762.326	62.84
762.636	63.1
762.945	62.6
763.255	60.97
763.565	62.88
763.875	62.84
764.185	64.49
764.494	63.62
764.804	65.23
765.113	65.23
765.423	63.9
765.732	62.67
766.042	63.04
766.351	64.8
766.66	62.53
766.97	63.91
767.279	63.12
767.588	62.75
767.897	63.79
768.206	63.02
768.515	63.01
768.824	61.91
769.133	62.03
769.441	63.59
769.75	64.22
770.059	61.69
770.367	63.5
770.676	65.48
770.984	64.92
771.293	63.26
771.601	65.07
771.91	61.83
772.218	67.34
772.526	64.17
772.834	65.66
773.142	63.1
773.45	64.83
773.758	60.26
774.066	60.98
774.374	63.43
774.682	64.33
774.99	65.22
775.298	62.83
775.605	63.58
775.913	64.38
776.22	66.78
776.528	63.97
776.835	67.69
777.143	65.46
777.45	69.98
777.757	70.25
778.065	64.38
778.372	68.72
778.679	61.33
778.986	62.1
779.293	65.68
779.6	61.05
779.907	63.34
780.214	63.34
780.52	65.47
780.827	66.51
781.134	65.8
781.44	64.33
781.747	62.02
782.053	61.33
782.36	66.59
782.666	65.02
782.973	62.3
783.279	64.9
783.585	63.41
783.891	66.77
784.197	63.73
784.503	62.44
784.809	63.16
785.115	66.83
785.421	62.12
785.727	66.37
786.033	65.69
786.339	62.89
786.644	61.78
786.95	61.57
787.255	63.92
787.561	62.99
787.866	63.96
788.172	62.79
788.477	64.41
788.782	69.09
789.088	62.52
789.393	66.56
789.698	62.28
790.003	62.59
790.308	63.15
790.613	65.23
790.918	63.08
791.223	66.92
791.527	65.16
791.832	63.9
792.137	64.27
792.441	63.57
792.746	66.73
793.05	62.43
793.355	60.38
793.659	66.96
793.963	64.99
794.268	60.7
794.572	67.98
794.876	66.16
795.18	65.82
795.484	67.75
795.788	67.72
796.092	65.63
796.396	64.34
796.7	66.04
797.004	69.67
797.307	62.95
797.611	66.35
797.915	63.6
798.218	64.15
798.522	67.06
798.825	66.61
799.128	68.88
799.432	68.55
799.735	64.35
800.038	66.93
800.341	65.33
800.644	67.01
800.947	63.62
801.25	68.3
801.553	64.7
801.856	64.82
802.159	56.77
802.462	63.99
802.764	64.75
803.067	66.64
803.37	63.47
803.672	65.21
803.975	58.3
804.277	65.21
804.579	63.35
804.882	65.52
805.184	67.18
805.486	65.99
805.788	69.72
806.09	70.34
806.392	60.99
806.694	64.8
806.996	68.79
807.298	63.67
807.6	65.62
807.902	69.61
808.203	63.78
808.505	72.79
808.807	64.99
809.108	65.77
809.409	67.97
809.711	67.51
810.012	63.12
810.313	63.87
810.615	64.37
810.916	63.69
811.217	66.2
811.518	65.41
811.819	64.26
812.12	68.77
812.421	60.98
812.722	66.19
813.023	71.46
813.323	68.23
813.624	59.84
813.925	72.59
814.225	61.91
814.526	68.33
814.826	66.65
815.126	74.34
815.427	68.31
815.727	67.66
816.027	68.87
816.327	64.02
816.627	63.43
816.927	70.35
817.227	64.82
817.527	66.04
817.827	65.75
818.127	66.61
818.427	66.44
818.727	59.89
819.026	69.08
819.326	69.37
819.625	57.83
819.925	65.86
820.224	69.68
820.524	63.11
820.823	65.89
821.122	62.65
821.421	69.8
821.72	66.93
822.019	63.2
822.318	64.72
822.617	63.28
822.916	62.9
823.215	68.81
823.514	69.28
823.813	64.35
824.111	65.96
824.41	66.95
824.709	65.37
825.007	66.41
825.306	67.71
825.604	67.17
825.902	67.51
826.201	66.34
826.499	67.12
826.797	68.07
827.095	68.66
827.393	67.19
827.691	68.31
827.989	66.35
828.287	66.07
828.585	64.61
828.882	66.52
829.18	67.07
829.478	66.93
829.775	69.06
830.073	66.83
830.37	64.58
830.668	67.27
830.965	66.68
831.263	68.45
831.56	66.91
831.857	70.01
832.154	68.73
832.451	65.64
832.748	63.95
833.045	71.12
833.342	69.19
833.639	61.4
833.936	64.09
834.232	65.48
834.529	67.61
834.826	59.72
835.122	67.03
835.419	68.87
835.715	66.54
836.012	68.29
836.308	67.68
836.604	65.42
836.901	65.2
837.197	67.53
837.493	63.53
837.789	66.03
838.085	68.16
838.381	65.1
838.677	69.19
838.972	68.52
839.268	67.91
839.564	70.18
839.86	66.47
840.155	69.24
840.451	62.92
840.746	78.7
841.042	65.77
841.337	65.24
841.632	59.12
841.928	65.01
842.223	68.21
842.518	67.61
842.813	62.9
843.108	73.53
843.403	69.71
843.698	61.46
843.993	77.44
844.287	69.54
844.582	57.94
844.877	72.34
845.171	67.66
845.466	59.66
845.761	78.39
846.055	62.08
846.349	55.15
846.644	59.9
846.938	71.42
847.232	47.97
847.526	63.49
847.82	70.55
848.114	63.6
848.408	55.34
848.702	69.5
848.996	67.56
849.29	61.54
849.584	104.28
849.877	88.04
850.171	57.8
850.465	57.72
850.758	70.56
851.052	80.41
851.345	67.93
851.638	80.31
851.932	37.1
852.225	72.01
852.518	59.57
852.811	64.58
853.104	39.41
853.397	68.16
853.69	55.44
853.983	64.61
854.276	72.91
854.569	71.15
854.861	72.2
855.154	66.44
855.447	71.2
855.739	62.47
856.032	59.93
856.324	59.39
856.616	80.01
856.909	56.34
857.201	65.55
857.493	54.02
857.785	86.16
858.077	88.22
858.369	57.03
858.661	57.56
858.953	72.46
859.245	49.51
859.537	103.27
859.829	64.25
860.12	90.89
860.412	53.25
860.703	48.21
860.995	73.88
861.286	48.96
861.578	71.1
861.869	54.01
862.16	66.15
862.452	65.33
862.743	68.45
863.034	73.47
863.325	59.57
863.616	97.27
863.907	78.37
864.198	66.01
864.488	49.31
864.779	73.33
865.07	64.27
865.36	63.43
865.651	59.05
865.941	59.57
866.232	61.12
866.522	54.44
866.813	72.94
867.103	58.57
867.393	103.94
867.683	62.39
867.973	52.56
868.263	48.69
868.553	99.96
868.843	54.75
869.133	35.34
869.423	124.17
869.713	71.07
870.002	65.35
870.292	84.99
870.582	79.49
870.871	38.66
871.161	60.21
871.45	59.79
871.739	51.86
872.029	55.98
872.318	64.56
872.607	72.55
872.896	48.91
873.185	54.33
873.474	71.5
873.763	66.85
874.052	87.41
874.341	72.46
874.63	55.15
874.918	60.85
875.207	57.14
875.496	71.55
875.784	52.48
876.073	29.59
876.361	-10.03
876.649	41.43
876.938	45.52
877.226	72.18
877.514	83.15
877.802	40.97
878.09	63.21
878.378	58.35
878.666	85.41
878.954	51.81
879.242	50.86
879.53	92.98
879.817	48.05
880.105	71.29
880.392	82.16
880.68	45.34
880.967	68.52
881.255	96.32
881.542	85.62
881.83	37.34
882.117	74.14
882.404	66
882.691	60.61
882.978	66.06
883.265	63.87
883.552	86.41
883.839	72.6
884.126	73.85
884.413	70.85
884.699	74.12
884.986	72.97
885.273	63.24
885.559	63.24
885.846	63.24
