Data from 0211_chest_Reflection__0__251.txt Node

Date: Fri Sep 22 22:48:27 CDT 2023
User: ToomeyLab
Spectrometer: FLMS14357
Trigger mode: 0
Integration Time (sec): 1.000000E-2
Scans to average: 100
Electric dark correction enabled: true
Nonlinearity correction enabled: false
Boxcar width: 0
XAxis mode: Wavelengths
Number of Pixels in Spectrum: 2048
>>>>>Begin Spectral Data<<<<<
189.047	248.56
189.435	248.56
189.823	248.56
190.211	87.21
190.599	-208.26
190.987	43.18
191.375	-219.17
191.763	125.62
192.151	158.22
192.538	65.55
192.926	302.68
193.314	28.93
193.702	-11993.1
194.089	-1056.16
194.477	821.61
194.864	298.62
195.252	173.59
195.639	50.31
196.027	22.29
196.414	149.87
196.801	-59.06
197.189	673.6
197.576	202.24
197.963	235.33
198.351	9.03
198.738	10.74
199.125	-11.03
199.512	46.16
199.899	18.25
200.286	12.82
200.673	38.36
201.06	20.1
201.447	29.56
201.833	12.44
202.22	48.99
202.607	40.67
202.994	30.34
203.38	35.94
203.767	18.62
204.154	44.03
204.54	27.67
204.927	8.94
205.313	-6.22
205.699	51
206.086	35.11
206.472	58.18
206.858	45.92
207.245	-30.23
207.631	19.81
208.017	22.35
208.403	47.41
208.789	23.54
209.175	51.3
209.561	47.9
209.947	36.02
210.333	16.91
210.719	10.27
211.105	23.16
211.491	7.88
211.876	38.87
212.262	-6.08
212.648	20.95
213.034	34.81
213.419	4.65
213.805	4.18
214.19	27.07
214.576	27.98
214.961	9.84
215.346	4.45
215.732	7.62
216.117	7.72
216.502	20.03
216.888	14.58
217.273	8.13
217.658	-20.5
218.043	17.33
218.428	30.3
218.813	-14.89
219.198	18.53
219.583	15.65
219.968	-9.73
220.353	32.12
220.738	31.84
221.122	16.27
221.507	7.34
221.892	0.68
222.276	-7.51
222.661	-13.77
223.046	7.27
223.43	25.2
223.815	11.74
224.199	-3.45
224.583	11.67
224.968	10.49
225.352	5.25
225.736	10.08
226.121	0.55
226.505	1.92
226.889	10.3
227.273	12.28
227.657	1.87
228.041	4.16
228.425	7.63
228.809	5.67
229.193	6.47
229.577	5.18
229.961	4.56
230.344	5.4
230.728	2.4
231.112	4.06
231.495	3.31
231.879	3.14
232.263	2.79
232.646	3.31
233.03	3.17
233.413	4.49
233.797	4.22
234.18	3.41
234.563	3.39
234.946	7.64
235.33	1.86
235.713	1.17
236.096	3.66
236.479	2.85
236.862	6.04
237.245	3.27
237.628	5.5
238.011	4.17
238.394	2.95
238.777	6.74
239.16	5.23
239.543	5.21
239.925	4.87
240.308	5.27
240.691	6
241.073	4.64
241.456	2.9
241.838	2.34
242.221	3.13
242.603	4.64
242.986	4.13
243.368	3.01
243.75	3.34
244.133	4.04
244.515	3.1
244.897	3.11
245.279	3.12
245.661	3.22
246.043	3.15
246.425	3.57
246.807	3.15
247.189	2.75
247.571	3.34
247.953	4.02
248.335	3.59
248.717	3.59
249.098	3.47
249.48	3.27
249.862	3.31
250.243	3.7
250.625	3.65
251.006	3.18
251.388	3.41
251.769	4.04
252.151	3.36
252.532	3.82
252.913	5.06
253.295	4.26
253.676	4.16
254.057	3.2
254.438	4
254.819	2.89
255.2	3.34
255.581	3.75
255.962	4.02
256.343	2.84
256.724	3.15
257.105	4.23
257.486	3.66
257.867	2.75
258.247	3.49
258.628	3.54
259.009	3.39
259.389	3.03
259.77	4.05
260.15	4.07
260.531	3.41
260.911	3.52
261.292	3.01
261.672	3.1
262.052	3.03
262.432	3.12
262.813	3.15
263.193	2.94
263.573	3.38
263.953	3.43
264.333	3.42
264.713	3.06
265.093	3.49
265.473	3.3
265.853	2.9
266.233	3.91
266.612	3.35
266.992	3.5
267.372	3.52
267.752	3.74
268.131	3.08
268.511	3.41
268.89	3.39
269.27	2.68
269.649	3.42
270.029	3.02
270.408	3.44
270.787	3.51
271.167	3.49
271.546	2.91
271.925	3.26
272.304	2.78
272.683	3.11
273.062	3.72
273.441	3.47
273.82	3.45
274.199	3.65
274.578	3.36
274.957	2.99
275.336	3.05
275.715	3.18
276.093	3.38
276.472	3.36
276.851	3.09
277.229	3.36
277.608	3.62
277.986	3.29
278.365	3.11
278.743	3.31
279.122	2.98
279.5	4.02
279.878	2.86
280.257	4.01
280.635	3.33
281.013	3.29
281.391	3.55
281.769	2.99
282.147	3.01
282.525	3.01
282.903	2.95
283.281	2.92
283.659	2.93
284.037	3.25
284.415	3.13
284.792	2.92
285.17	3.63
285.548	3.93
285.925	3.5
286.303	3.49
286.68	3.07
287.058	2.93
287.435	2.97
287.813	2.93
288.19	3.03
288.567	3.09
288.945	2.97
289.322	3.31
289.699	3.32
290.076	3.35
290.453	2.99
290.83	2.67
291.207	3.07
291.584	3.06
291.961	2.68
292.338	3.13
292.715	3.35
293.092	3.37
293.469	3.16
293.845	3.57
294.222	3.72
294.599	3.42
294.975	3.78
295.352	3
295.728	3.27
296.105	3.45
296.481	3.33
296.858	3.39
297.234	3.48
297.61	3.76
297.986	3.44
298.363	3.43
298.739	3.3
299.115	3.5
299.491	3.61
299.867	3.61
300.243	3.26
300.619	3.63
300.995	3.47
301.371	4.06
301.746	3.65
302.122	3.95
302.498	3.57
302.874	3.5
303.249	3.25
303.625	3.58
304	3.68
304.376	3.86
304.751	3.81
305.127	3.47
305.502	4.43
305.878	3.48
306.253	3.98
306.628	3.46
307.003	3.72
307.378	3.15
307.754	3.52
308.129	3.89
308.504	4.07
308.879	3.71
309.254	4.19
309.629	3.99
310.003	3.94
310.378	4.37
310.753	3.88
311.128	3.47
311.502	4.09
311.877	3.68
312.252	3.93
312.626	3.59
313.001	3.81
313.375	4.01
313.75	4.08
314.124	3.98
314.498	3.48
314.873	3.79
315.247	4.32
315.621	4.07
315.995	4.27
316.369	4.31
316.743	3.51
317.117	4.33
317.491	4.31
317.865	3.69
318.239	3.64
318.613	4.05
318.987	3.77
319.361	3.71
319.734	3.48
320.108	4.38
320.482	3.97
320.855	4.17
321.229	4.6
321.602	4.42
321.976	4.07
322.349	4
322.723	4.72
323.096	3.86
323.469	4.09
323.843	4.12
324.216	4.22
324.589	4.13
324.962	3.64
325.335	3.73
325.708	3.83
326.081	4.06
326.454	3.92
326.827	3.92
327.2	3.96
327.573	4.11
327.945	3.72
328.318	4.73
328.691	4.36
329.063	3.95
329.436	4.51
329.809	4.1
330.181	4.38
330.553	4.14
330.926	4.33
331.298	4.31
331.671	4.29
332.043	3.92
332.415	4.11
332.787	4.66
333.159	4
333.532	3.93
333.904	4.29
334.276	4.07
334.648	3.24
335.02	3.92
335.391	4.45
335.763	4.43
336.135	4.44
336.507	4.49
336.879	3.93
337.25	4.3
337.622	4.49
337.993	3.74
338.365	4.42
338.736	4.51
339.108	4.35
339.479	4.2
339.851	3.84
340.222	3.76
340.593	3.63
340.964	3.6
341.336	4.14
341.707	4.29
342.078	4.33
342.449	4
342.82	3.79
343.191	3.69
343.562	3.78
343.933	4.05
344.303	4.12
344.674	4.24
345.045	3.95
345.416	4.39
345.786	3.94
346.157	4.04
346.527	4.14
346.898	4.06
347.268	4.07
347.639	3.99
348.009	4.09
348.38	4.2
348.75	4.36
349.12	3.79
349.49	4.65
349.861	3.78
350.231	4.18
350.601	4.21
350.971	4.42
351.341	4.13
351.711	4.23
352.081	3.79
352.45	3.79
352.82	4.53
353.19	4.22
353.56	4.07
353.929	4.23
354.299	4.55
354.669	4.23
355.038	4.01
355.408	4.46
355.777	4.22
356.147	4.25
356.516	4.37
356.885	3.53
357.254	4.49
357.624	3.95
357.993	4.27
358.362	4.13
358.731	4.06
359.1	3.95
359.469	4.25
359.838	3.91
360.207	3.9
360.576	4.26
360.945	3.96
361.314	4.29
361.682	4.47
362.051	4.29
362.42	4.45
362.788	4.03
363.157	4.31
363.525	4.16
363.894	3.99
364.262	4.26
364.631	4
364.999	3.95
365.367	4.32
365.735	4.18
366.104	4.25
366.472	4.39
366.84	4.18
367.208	4.1
367.576	4.49
367.944	4.05
368.312	4.14
368.68	4.38
369.048	4.65
369.416	4.27
369.783	4
370.151	3.98
370.519	4.35
370.886	4.36
371.254	4.77
371.621	4.35
371.989	4.43
372.356	4.2
372.724	4.76
373.091	4.21
373.458	4.34
373.826	4.47
374.193	4.41
374.56	4.36
374.927	4.2
375.294	4.04
375.661	4.11
376.028	4.36
376.395	4.58
376.762	4.08
377.129	4.46
377.496	4.68
377.863	4.39
378.229	4.44
378.596	4.38
378.963	4.7
379.329	4.21
379.696	4.38
380.062	4.23
380.429	4.34
380.795	4.23
381.161	4.29
381.528	4.34
381.894	3.89
382.26	4.29
382.626	4.37
382.993	4.37
383.359	4.04
383.725	4.44
384.091	4.4
384.457	4.16
384.823	4.48
385.188	4.36
385.554	4.39
385.92	4.68
386.286	4.54
386.651	4.53
387.017	4.56
387.383	4.44
387.748	4.4
388.114	4.54
388.479	4.54
388.845	4.21
389.21	4.13
389.575	4.58
389.94	4.16
390.306	4.39
390.671	4.59
391.036	4.24
391.401	4.34
391.766	4.33
392.131	4.37
392.496	4.54
392.861	4.74
393.226	4.57
393.591	4.54
393.956	4.38
394.32	4.49
394.685	4.43
395.05	4.63
395.414	4.54
395.779	4.42
396.143	4.5
396.508	4.33
396.872	4.41
397.236	4.39
397.601	4.33
397.965	4.6
398.329	4.41
398.694	4.39
399.058	4.48
399.422	4.7
399.786	4.66
400.15	4.57
400.514	4.53
400.878	4.58
401.242	4.64
401.605	4.54
401.969	4.31
402.333	4.64
402.697	4.47
403.06	4.45
403.424	4.35
403.787	4.71
404.151	4.68
404.514	4.72
404.878	4.78
405.241	4.78
405.604	4.73
405.968	4.64
406.331	4.37
406.694	4.65
407.057	4.51
407.42	4.51
407.783	4.7
408.146	4.62
408.509	4.47
408.872	4.49
409.235	4.45
409.598	4.52
409.961	4.81
410.323	4.53
410.686	4.8
411.049	4.81
411.411	4.7
411.774	4.65
412.136	4.63
412.499	4.55
412.861	4.56
413.223	4.75
413.586	4.72
413.948	4.77
414.31	4.66
414.672	4.72
415.035	4.67
415.397	4.64
415.759	4.85
416.121	4.68
416.483	4.61
416.845	4.66
417.206	4.57
417.568	4.44
417.93	4.54
418.292	4.5
418.653	4.61
419.015	4.65
419.377	4.44
419.738	4.64
420.1	4.49
420.461	4.6
420.822	4.46
421.184	4.5
421.545	4.41
421.906	4.6
422.267	4.45
422.629	4.48
422.99	4.49
423.351	4.4
423.712	4.34
424.073	4.44
424.434	4.45
424.795	4.46
425.155	4.56
425.516	4.47
425.877	4.58
426.238	4.47
426.598	4.52
426.959	4.51
427.32	4.53
427.68	4.45
428.041	4.54
428.401	4.66
428.761	4.53
429.122	4.62
429.482	4.62
429.842	4.56
430.202	4.69
430.563	4.73
430.923	4.75
431.283	4.76
431.643	4.79
432.003	4.8
432.363	4.85
432.722	4.76
433.082	4.72
433.442	4.83
433.802	4.83
434.161	4.58
434.521	4.61
434.881	4.8
435.24	4.62
435.6	4.59
435.959	4.66
436.319	4.59
436.678	4.9
437.037	4.83
437.396	4.62
437.756	4.66
438.115	4.83
438.474	4.66
438.833	4.81
439.192	4.79
439.551	4.78
439.91	4.74
440.269	4.8
440.628	4.57
440.987	4.84
441.345	4.87
441.704	4.85
442.063	4.66
442.421	4.68
442.78	4.71
443.138	4.75
443.497	4.69
443.855	4.68
444.214	4.58
444.572	4.82
444.93	4.67
445.288	4.92
445.647	5
446.005	4.8
446.363	4.68
446.721	4.84
447.079	4.63
447.437	4.8
447.795	4.76
448.153	4.67
448.51	4.72
448.868	4.66
449.226	4.74
449.584	4.71
449.941	4.63
450.299	4.83
450.656	4.67
451.014	4.84
451.371	4.79
451.729	4.85
452.086	4.89
452.443	4.88
452.801	4.86
453.158	4.88
453.515	4.95
453.872	4.9
454.229	5
454.586	5.08
454.943	4.9
455.3	4.88
455.657	4.94
456.014	4.77
456.371	4.94
456.727	5.07
457.084	5.04
457.441	4.92
457.797	4.92
458.154	4.96
458.51	4.72
458.867	4.95
459.223	4.98
459.58	5.01
459.936	5.03
460.292	5.04
460.648	5.01
461.005	4.93
461.361	5
461.717	4.68
462.073	4.84
462.429	4.7
462.785	4.83
463.141	4.92
463.496	4.93
463.852	4.92
464.208	4.98
464.564	5.09
464.919	4.95
465.275	5.17
465.631	5.08
465.986	5.05
466.342	5.21
466.697	5.24
467.052	4.94
467.408	5.21
467.763	5.15
468.118	5.19
468.473	5.08
468.829	5.11
469.184	5.03
469.539	5.15
469.894	5.19
470.249	5.11
470.603	5.02
470.958	5.12
471.313	5.27
471.668	5.27
472.023	4.99
472.377	5.14
472.732	5.11
473.086	5.14
473.441	5
473.795	5.36
474.15	5.05
474.504	5.08
474.859	5.26
475.213	5
475.567	5.1
475.921	5.03
476.275	5.2
476.63	4.94
476.984	5.14
477.338	5.23
477.692	5.32
478.045	5.34
478.399	5.25
478.753	5.2
479.107	5.12
479.461	5.19
479.814	5.17
480.168	5.26
480.521	5.22
480.875	5.26
481.228	5.22
481.582	5.15
481.935	5.24
482.289	5.05
482.642	5.19
482.995	5.24
483.348	5.11
483.701	5.13
484.055	5.12
484.408	5.13
484.761	5.21
485.114	5.05
485.466	4.98
485.819	4.81
486.172	4.84
486.525	4.81
486.878	4.86
487.23	4.94
487.583	5
487.936	5.07
488.288	5.1
488.641	5.1
488.993	5
489.345	5.03
489.698	4.95
490.05	5.06
490.402	4.98
490.754	4.98
491.107	5.01
491.459	5.09
491.811	5.13
492.163	5.18
492.515	5.21
492.866	5.21
493.218	5.22
493.57	5.17
493.922	5.06
494.274	5.05
494.625	5.07
494.977	5.23
495.328	5.28
495.68	5.24
496.031	5.23
496.383	5.35
496.734	5.5
497.086	5.33
497.437	5.43
497.788	5.44
498.139	5.39
498.49	5.47
498.842	5.29
499.193	5.33
499.544	5.43
499.894	5.35
500.245	5.39
500.596	5.38
500.947	5.55
501.298	5.53
501.648	5.49
501.999	5.51
502.35	5.57
502.7	5.61
503.051	5.55
503.401	5.54
503.752	5.72
504.102	5.61
504.452	5.53
504.803	5.51
505.153	5.64
505.503	5.56
505.853	5.61
506.203	5.58
506.553	5.76
506.903	5.56
507.253	5.69
507.603	5.68
507.953	5.73
508.303	5.73
508.652	5.61
509.002	5.66
509.352	5.61
509.701	5.81
510.051	5.61
510.4	5.74
510.75	5.64
511.099	5.61
511.449	5.7
511.798	5.68
512.147	5.68
512.496	5.65
512.846	5.69
513.195	5.72
513.544	5.72
513.893	5.8
514.242	5.73
514.591	5.71
514.939	5.82
515.288	5.66
515.637	5.79
515.986	5.76
516.334	5.93
516.683	5.8
517.032	5.93
517.38	5.99
517.729	5.72
518.077	5.84
518.426	5.89
518.774	5.83
519.122	5.93
519.47	5.93
519.819	5.93
520.167	5.93
520.515	5.84
520.863	5.72
521.211	5.82
521.559	5.86
521.907	5.92
522.255	5.92
522.602	5.98
522.95	5.92
523.298	6.04
523.645	6.06
523.993	5.99
524.341	6.03
524.688	6.04
525.036	6.05
525.383	6.09
525.73	6.15
526.078	6.15
526.425	6.06
526.772	6.22
527.119	6.06
527.466	6.04
527.814	5.96
528.161	5.92
528.508	6
528.854	6.09
529.201	6.11
529.548	6.06
529.895	6.04
530.242	6.03
530.588	5.89
530.935	5.84
531.282	5.9
531.628	5.94
531.975	5.97
532.321	6
532.667	6.11
533.014	6.09
533.36	6.31
533.706	6.22
534.052	6.28
534.399	6.28
534.745	6.22
535.091	6.13
535.437	6.11
535.783	6.07
536.129	6.18
536.474	6.34
536.82	6.26
537.166	6.42
537.512	6.49
537.857	6.44
538.203	6.48
538.549	6.46
538.894	6.31
539.239	6.47
539.585	6.4
539.93	6.52
540.276	6.59
540.621	6.53
540.966	6.65
541.311	6.75
541.656	6.53
542.001	6.64
542.346	6.61
542.691	6.68
543.036	6.56
543.381	6.44
543.726	6.46
544.071	6.53
544.415	6.52
544.76	6.51
545.105	6.44
545.449	6.59
545.794	6.67
546.138	6.72
546.483	6.8
546.827	6.73
547.171	6.86
547.516	6.96
547.86	6.9
548.204	6.87
548.548	6.92
548.892	6.98
549.236	6.92
549.58	6.97
549.924	7.05
550.268	7.13
550.612	7.09
550.956	7.06
551.3	7.31
551.643	7.27
551.987	7.31
552.33	7.35
552.674	7.2
553.017	7.14
553.361	7.34
553.704	7.38
554.048	7.34
554.391	7.39
554.734	7.41
555.077	7.3
555.42	7.37
555.764	7.38
556.107	7.36
556.45	7.51
556.793	7.44
557.135	7.56
557.478	7.5
557.821	7.52
558.164	7.7
558.507	7.78
558.849	7.54
559.192	7.63
559.534	7.71
559.877	7.65
560.219	7.68
560.562	7.79
560.904	7.91
561.246	7.99
561.589	7.83
561.931	7.74
562.273	7.63
562.615	7.73
562.957	7.97
563.299	7.85
563.641	7.81
563.983	8.04
564.325	8.02
564.667	8
565.008	7.95
565.35	7.94
565.692	7.94
566.033	8.12
566.375	8.17
566.716	8.09
567.058	8.16
567.399	8.27
567.741	8.36
568.082	8.21
568.423	8.26
568.764	8.46
569.105	8.09
569.447	8.24
569.788	8.14
570.129	8.31
570.47	8.51
570.811	8.26
571.151	8.37
571.492	8.23
571.833	8.32
572.174	8.39
572.514	8.48
572.855	8.57
573.195	8.41
573.536	8.62
573.876	8.55
574.217	8.53
574.557	8.4
574.898	8.65
575.238	8.63
575.578	8.86
575.918	8.75
576.258	8.72
576.598	8.63
576.938	8.93
577.278	8.97
577.618	8.67
577.958	8.95
578.298	8.96
578.638	8.89
578.977	8.75
579.317	8.95
579.657	9
579.996	9.07
580.336	9.12
580.675	9.21
581.014	9.21
581.354	9.18
581.693	9.17
582.032	9.12
582.372	9.37
582.711	9.51
583.05	9.27
583.389	9.42
583.728	9.39
584.067	9.52
584.406	9.55
584.745	9.39
585.083	9.8
585.422	9.58
585.761	9.65
586.1	9.75
586.438	9.5
586.777	9.85
587.115	9.63
587.454	9.73
587.792	9.94
588.13	9.79
588.469	9.71
588.807	10.05
589.145	9.92
589.483	9.92
589.821	9.64
590.159	9.99
590.497	10.05
590.835	10.07
591.173	10.02
591.511	10.02
591.849	10.19
592.187	10.05
592.524	10.29
592.862	10.11
593.2	10.08
593.537	10.18
593.875	10.33
594.212	10.34
594.55	10.73
594.887	10.42
595.224	10.38
595.561	10.74
595.899	10.66
596.236	10.86
596.573	10.6
596.91	10.64
597.247	10.45
597.584	10.77
597.921	10.85
598.258	10.65
598.594	10.74
598.931	10.52
599.268	10.66
599.604	10.64
599.941	10.84
600.277	10.66
600.614	10.94
600.95	10.91
601.287	10.85
601.623	11.14
601.959	11.04
602.296	11.21
602.632	10.83
602.968	11.17
603.304	11.19
603.64	11.42
603.976	11.18
604.312	11.21
604.648	11.32
604.984	11.35
605.319	11.22
605.655	11.14
605.991	11.32
606.326	11.43
606.662	11.3
606.998	11.29
607.333	11.4
607.668	11.26
608.004	11.71
608.339	11.48
608.674	11.67
609.01	11.76
609.345	11.64
609.68	11.88
610.015	11.95
610.35	11.88
610.685	12.17
611.02	11.7
611.355	12.16
611.689	11.78
612.024	11.82
612.359	11.81
612.694	12
613.028	11.95
613.363	12.09
613.697	11.96
614.032	12.28
614.366	12.06
614.7	12.02
615.035	12.36
615.369	12.09
615.703	12.25
616.037	12.39
616.371	12.59
616.705	12.62
617.039	12.54
617.373	12.61
617.707	12.5
618.041	12.57
618.375	12.85
618.709	12.26
619.042	12.8
619.376	12.8
619.71	12.81
620.043	12.61
620.377	12.63
620.71	12.88
621.043	12.87
621.377	12.95
621.71	12.72
622.043	13.13
622.376	13.31
622.709	13.01
623.043	13.04
623.376	13.43
623.709	13.34
624.041	13.2
624.374	13.42
624.707	13.73
625.04	13.43
625.373	12.93
625.705	13.55
626.038	13.31
626.37	13.72
626.703	13.51
627.035	13.64
627.368	13.61
627.7	13.74
628.032	14.02
628.365	13.81
628.697	13.66
629.029	13.66
629.361	13.71
629.693	13.75
630.025	13.8
630.357	13.6
630.689	13.85
631.021	13.9
631.353	13.85
631.684	13.83
632.016	14.35
632.348	14.28
632.679	13.74
633.011	14.21
633.342	14.36
633.674	14.32
634.005	14.11
634.336	14.34
634.668	14.51
634.999	14.14
635.33	14.42
635.661	14.45
635.992	14.31
636.323	14.63
636.654	14.29
636.985	14.22
637.316	14.61
637.647	14.49
637.977	14.36
638.308	15.01
638.639	14.46
638.969	15.03
639.3	15.12
639.63	15.01
639.961	14.69
640.291	14.46
640.622	15.36
640.952	15.04
641.282	15.06
641.612	14.91
641.943	15.65
642.273	14.83
642.603	15.33
642.933	14.87
643.263	14.7
643.592	15.48
643.922	15.3
644.252	15.08
644.582	16.03
644.911	15.68
645.241	15.33
645.571	15.55
645.9	15.8
646.23	15.95
646.559	16.1
646.888	15.71
647.218	15.94
647.547	15.61
647.876	15.68
648.205	15.7
648.534	16.32
648.863	15.82
649.192	15.65
649.521	15.95
649.85	16.53
650.179	15.71
650.508	15.72
650.837	16.41
651.165	16.23
651.494	16.09
651.822	16
652.151	16.25
652.479	16.7
652.808	16.11
653.136	16.8
653.465	16.54
653.793	16.14
654.121	16.87
654.449	16.17
654.777	16.66
655.105	16.95
655.433	16.92
655.761	16.73
656.089	16.5
656.417	16.97
656.745	17.05
657.073	16.82
657.4	17.35
657.728	16.81
658.056	16.78
658.383	17.09
658.711	16.88
659.038	16.66
659.365	17.19
659.693	17.15
660.02	17.41
660.347	17.22
660.674	17.22
661.001	17.21
661.329	17.19
661.656	17.26
661.982	16.88
662.309	17.39
662.636	17.09
662.963	17.18
663.29	17.53
663.616	17.3
663.943	17.53
664.27	17.49
664.596	17.59
664.923	17.88
665.249	18.07
665.576	17.7
665.902	17.68
666.228	17.98
666.554	17.76
666.881	17.78
667.207	17.66
667.533	17.54
667.859	18.08
668.185	18.2
668.511	18.18
668.837	17.39
669.162	18.08
669.488	18.01
669.814	17.57
670.139	18.55
670.465	19.09
670.791	18.62
671.116	17.86
671.442	19
671.767	18.12
672.092	18.29
672.418	18.79
672.743	18.63
673.068	18.74
673.393	17.93
673.718	18.77
674.043	19.09
674.368	18.77
674.693	18.4
675.018	18.34
675.343	18.7
675.667	18.79
675.992	17.97
676.317	19.04
676.641	18.92
676.966	19.05
677.29	19
677.615	19.63
677.939	19.61
678.264	19.02
678.588	19.97
678.912	18.58
679.236	19.44
679.56	19.28
679.885	19.51
680.209	19.8
680.532	19.08
680.856	18.93
681.18	19.43
681.504	19.71
681.828	19.19
682.152	19.38
682.475	19.58
682.799	19.91
683.122	19.53
683.446	19.46
683.769	20.07
684.093	20.54
684.416	20.34
684.739	20.07
685.062	20.19
685.386	19.8
685.709	20.29
686.032	20.03
686.355	20.24
686.678	19.72
687.001	20.19
687.324	20.64
687.646	20.33
687.969	21.26
688.292	20.16
688.614	20.85
688.937	19.51
689.26	20.43
689.582	20.54
689.904	20.13
690.227	20.8
690.549	20.67
690.871	20.73
691.194	20.58
691.516	20.49
691.838	20.87
692.16	20.46
692.482	21.16
692.804	20.4
693.126	20.8
693.448	21.52
693.769	20.28
694.091	21.09
694.413	21.6
694.735	20.72
695.056	21.36
695.378	21.32
695.699	20.67
696.021	20.42
696.342	21.78
696.663	20.7
696.984	21.05
697.306	21.09
697.627	20.96
697.948	21.18
698.269	21.01
698.59	21.51
698.911	21.39
699.232	21.16
699.553	20.98
699.873	21.14
700.194	21.08
700.515	20.9
700.835	21.78
701.156	22.03
701.477	21.97
701.797	21.78
702.117	21.99
702.438	21.21
702.758	21.11
703.078	22.35
703.398	21.25
703.719	21.71
704.039	22.61
704.359	21.69
704.679	21.17
704.999	22.47
705.319	22.32
705.638	21.67
705.958	22.95
706.278	23.18
706.597	22.64
706.917	23.31
707.237	22.44
707.556	22.22
707.876	21.98
708.195	22.92
708.514	22.61
708.834	23.19
709.153	22.62
709.472	23.08
709.791	22.17
710.11	23.17
710.429	22.6
710.748	23.69
711.067	23.16
711.386	22.45
711.705	23.3
712.023	23.15
712.342	23.46
712.661	23.55
712.979	23.17
713.298	24.51
713.616	22.89
713.935	23.94
714.253	23.66
714.572	23.79
714.89	23.87
715.208	23.81
715.526	22.92
715.844	24.12
716.162	23.74
716.48	23.75
716.798	23.44
717.116	23.41
717.434	23.74
717.752	23.9
718.069	23.2
718.387	22.92
718.705	22.85
719.022	24.71
719.34	24.01
719.657	22.81
719.975	24.46
720.292	24.5
720.609	24.15
720.927	24.62
721.244	23.41
721.561	24.66
721.878	24.18
722.195	24.94
722.512	25.02
722.829	24.92
723.146	24.84
723.463	23.11
723.779	24.46
724.096	24.19
724.413	24.57
724.729	25.78
725.046	24.17
725.362	23.61
725.679	24.99
725.995	26.39
726.311	24.12
726.628	24.43
726.944	24.01
727.26	24.65
727.576	24.77
727.892	25.07
728.208	26.01
728.524	26.33
728.84	24.55
729.156	25.14
729.472	26.5
729.787	25.67
730.103	25.05
730.419	25.33
730.734	26.45
731.05	25.59
731.365	24.78
731.681	25.37
731.996	25.9
732.311	25.78
732.626	25.2
732.942	24.56
733.257	25.53
733.572	25.19
733.887	26.16
734.202	26.41
734.517	25.9
734.832	25.92
735.146	27.02
735.461	26.42
735.776	26.54
736.091	26.46
736.405	25.09
736.72	27.52
737.034	26.34
737.349	25.22
737.663	26.62
737.977	27.15
738.292	25.87
738.606	25.57
738.92	25.35
739.234	27.06
739.548	26.95
739.862	25.79
740.176	26.95
740.49	25.32
740.804	27.57
741.117	27.57
741.431	26.14
741.745	26.87
742.058	27.5
742.372	26.53
742.685	26.52
742.999	26.58
743.312	27.82
743.626	26.24
743.939	28.48
744.252	26.44
744.565	26.02
744.878	28.16
745.191	28.19
745.505	27.7
745.817	29.06
746.13	29.15
746.443	28.52
746.756	27.56
747.069	26.41
747.381	24.94
747.694	29.09
748.007	28.33
748.319	27.57
748.632	27.58
748.944	29.73
749.256	28.71
749.569	26.29
749.881	27.02
750.193	28.2
750.505	28.67
750.817	27.73
751.129	27.81
751.441	27.23
751.753	29.18
752.065	29.76
752.377	27.21
752.689	29.35
753	25.75
753.312	28.28
753.624	28.98
753.935	31.07
754.247	27.32
754.558	30.43
754.869	29.38
755.181	28.54
755.492	29.59
755.803	29.85
756.114	26.84
756.425	30.05
756.736	28.83
757.047	28.56
757.358	28.44
757.669	27.06
757.98	26.73
758.291	28.94
758.601	30.15
758.912	27.85
759.223	30.97
759.533	29.15
759.844	32.15
760.154	28.15
760.464	28.12
760.775	29.16
761.085	28.24
761.395	29.67
761.705	28.54
762.016	28.09
762.326	28.17
762.636	31.29
762.945	28.71
763.255	30.67
763.565	27.95
763.875	30.26
764.185	30.48
764.494	30.31
764.804	29.28
765.113	28.49
765.423	29.93
765.732	29.53
766.042	30.19
766.351	29.83
766.66	30.01
766.97	29.54
767.279	29.88
767.588	29.65
767.897	30.03
768.206	30.95
768.515	30.17
768.824	30.45
769.133	30.97
769.441	30.99
769.75	31.78
770.059	34.34
770.367	29.24
770.676	30.64
770.984	28.09
771.293	31.63
771.601	31.92
771.91	33.15
772.218	29.9
772.526	33
772.834	30.91
773.142	29.64
773.45	31.51
773.758	31.15
774.066	33.74
774.374	30.49
774.682	32.98
774.99	29.42
775.298	31.31
775.605	30.57
775.913	33.36
776.22	28.19
776.528	32.09
776.835	32.19
777.143	28.58
777.45	33.4
777.757	30.82
778.065	33.45
778.372	30.37
778.679	32.89
778.986	32.47
779.293	29.64
779.6	34.65
779.907	33.86
780.214	35.97
780.52	29.85
780.827	34.66
781.134	32.58
781.44	32.22
781.747	29.91
782.053	29.52
782.36	33.59
782.666	33.62
782.973	34.21
783.279	36.86
783.585	33.02
783.891	30.64
784.197	30.93
784.503	32.46
784.809	33.09
785.115	33.92
785.421	33.48
785.727	32.38
786.033	33.64
786.339	30.54
786.644	33.55
786.95	29.46
787.255	31.25
787.561	36.44
787.866	33.69
788.172	31.75
788.477	33.82
788.782	31.6
789.088	34.43
789.393	31.28
789.698	34.29
790.003	34.03
790.308	28.73
790.613	31.03
790.918	35.02
791.223	30.15
791.527	28.79
791.832	33.87
792.137	33.09
792.441	36.02
792.746	33.58
793.05	31.04
793.355	34.96
793.659	34.46
793.963	32.71
794.268	37
794.572	31.63
794.876	28.72
795.18	34.83
795.484	31.02
795.788	30.46
796.092	36.53
796.396	34.92
796.7	37.64
797.004	32.8
797.307	27.45
797.611	29.75
797.915	33.73
798.218	36.34
798.522	33.54
798.825	35.7
799.128	35.73
799.432	34.04
799.735	31.16
800.038	34.76
800.341	34.4
800.644	36.97
800.947	32
801.25	35.64
801.553	39.64
801.856	35.32
802.159	34.5
802.462	30.81
802.764	34.08
803.067	35.7
803.37	40.37
803.672	30.73
803.975	31.1
804.277	37.06
804.579	35.54
804.882	33.8
805.184	37.51
805.486	35.4
805.788	38.37
806.09	38.34
806.392	37.46
806.694	34.43
806.996	32.35
807.298	33.99
807.6	36.01
807.902	32.28
808.203	37.74
808.505	35.43
808.807	35.08
809.108	37
809.409	39.24
809.711	36.2
810.012	37.01
810.313	37.55
810.615	36.01
810.916	32.74
811.217	33.21
811.518	33.8
811.819	44.75
812.12	33.86
812.421	32.11
812.722	35.64
813.023	35.24
813.323	33.81
813.624	39.43
813.925	35.86
814.225	33.48
814.526	37.35
814.826	38.63
815.126	34.54
815.427	36.86
815.727	36.66
816.027	33.84
816.327	39.94
816.627	36.73
816.927	42.38
817.227	34.54
817.527	34.75
817.827	37.48
818.127	28.61
818.427	38.19
818.727	42.55
819.026	36.92
819.326	35.15
819.625	37.52
819.925	40.94
820.224	39.17
820.524	36.15
820.823	33.27
821.122	22.91
821.421	34.68
821.72	38.93
822.019	40.41
822.318	35.61
822.617	34.96
822.916	37.31
823.215	34.45
823.514	37.36
823.813	39.23
824.111	37.54
824.41	38.56
824.709	37.89
825.007	37.8
825.306	37.01
825.604	35.85
825.902	37.06
826.201	36.76
826.499	37.35
826.797	36.67
827.095	37.57
827.393	38.06
827.691	37.3
827.989	37.01
828.287	37.37
828.585	37.26
828.882	37.28
829.18	38.34
829.478	36.09
829.775	35.94
830.073	36.83
830.37	36.5
830.668	36.2
830.965	39.61
831.263	38.36
831.56	37.1
831.857	38.45
832.154	37.97
832.451	38.94
832.748	37.1
833.045	41.08
833.342	36.52
833.639	37.16
833.936	39.53
834.232	37.96
834.529	37
834.826	35.88
835.122	35.63
835.419	35.85
835.715	39.46
836.012	39.87
836.308	40.46
836.604	38.02
836.901	38.2
837.197	37.26
837.493	39.37
837.789	38.41
838.085	41.15
838.381	41.76
838.677	36.75
838.972	41.33
839.268	39.06
839.564	41.4
839.86	41.28
840.155	42.54
840.451	42.34
840.746	40.59
841.042	30.94
841.337	42.22
841.632	40.76
841.928	38.62
842.223	51.62
842.518	43.25
842.813	44.37
843.108	47.21
843.403	41.64
843.698	42.22
843.993	43.23
844.287	42.65
844.582	42.01
844.877	30.86
845.171	42.77
845.466	39.45
845.761	32.78
846.055	37.27
846.349	38.61
846.644	45.66
846.938	44.16
847.232	40.67
847.526	36.93
847.82	37.33
848.114	36.29
848.408	46.27
848.702	38.73
848.996	29.94
849.29	35.75
849.584	52.45
849.877	48.44
850.171	39.52
850.465	56.05
850.758	55.75
851.052	29.97
851.345	48.52
851.638	36.3
851.932	41.19
852.225	41.8
852.518	54.03
852.811	27.99
853.104	53.5
853.397	39.33
853.69	43.19
853.983	60.06
854.276	51.56
854.569	69.17
854.861	30.36
855.154	42.47
855.447	44.48
855.739	24.1
856.032	41.94
856.324	59.31
856.616	41.09
856.909	32.07
857.201	49.7
857.493	57.89
857.785	47.17
858.077	41.93
858.369	33.06
858.661	50.39
858.953	60.38
859.245	61.56
859.537	30.56
859.829	36.11
860.12	39.27
860.412	35.16
860.703	50.43
860.995	22.65
861.286	36.71
861.578	40.17
861.869	42.52
862.16	19.54
862.452	20.66
862.743	53.17
863.034	55.26
863.325	62.59
863.616	36.05
863.907	43.5
864.198	54.53
864.488	48.42
864.779	39.49
865.07	42.99
865.36	41.14
865.651	45.79
865.941	28.11
866.232	51.74
866.522	54.27
866.813	38.18
867.103	43.17
867.393	32.52
867.683	56.72
867.973	22.84
868.263	38.68
868.553	18.95
868.843	38.84
869.133	34.9
869.423	28.73
869.713	34.28
870.002	49.08
870.292	33.81
870.582	23.79
870.871	38.2
871.161	40.12
871.45	48.98
871.739	47.43
872.029	23.88
872.318	35.19
872.607	48.45
872.896	36.57
873.185	49.76
873.474	44
873.763	31.44
874.052	41.3
874.341	52.69
874.63	50.26
874.918	37.53
875.207	53.11
875.496	53.69
875.784	39.18
876.073	46.36
876.361	43.53
876.649	32.41
876.938	48.62
877.226	55.65
877.514	63.14
877.802	17.5
878.09	52.84
878.378	45.92
878.666	34.11
878.954	38.46
879.242	48.47
879.53	53.14
879.817	73.97
880.105	13.4
880.392	54.71
880.68	34.92
880.967	51.27
881.255	53.42
881.542	48.15
881.83	64.37
882.117	22.5
882.404	56.07
882.691	31.67
882.978	30.29
883.265	23.43
883.552	55.7
883.839	40.09
884.126	53.75
884.413	47.72
884.699	55.89
884.986	51.96
885.273	39.89
885.559	39.89
885.846	39.89
