Data from 0211_crown_Reflection__3__260.txt Node

Date: Fri Sep 22 22:50:45 CDT 2023
User: ToomeyLab
Spectrometer: FLMS14357
Trigger mode: 0
Integration Time (sec): 1.000000E-2
Scans to average: 100
Electric dark correction enabled: true
Nonlinearity correction enabled: false
Boxcar width: 0
XAxis mode: Wavelengths
Number of Pixels in Spectrum: 2048
>>>>>Begin Spectral Data<<<<<
189.047	-415.63
189.435	-415.63
189.823	-415.63
190.211	82.66
190.599	0.2
190.987	27.8
191.375	-196.65
191.763	406.81
192.151	115.3
192.538	147.39
192.926	305.68
193.314	73.06
193.702	893.1
194.089	-1644.99
194.477	61.84
194.864	214.08
195.252	43.52
195.639	51.1
196.027	258.01
196.414	-43.1
196.801	20.26
197.189	924
197.576	241.7
197.963	-57.2
198.351	5.37
198.738	10.42
199.125	0.46
199.512	-5.49
199.899	41.07
200.286	18.51
200.673	-24.02
201.06	14.58
201.447	69.28
201.833	-16.31
202.22	3.93
202.607	59.23
202.994	54.43
203.38	36
203.767	17.59
204.154	49
204.54	60.26
204.927	20.92
205.313	19.71
205.699	33.63
206.086	27.1
206.472	52.66
206.858	21.03
207.245	-4.13
207.631	49.25
208.017	20.95
208.403	16.79
208.789	56.09
209.175	48.53
209.561	50.02
209.947	38.47
210.333	19.49
210.719	30.94
211.105	36.88
211.491	16.29
211.876	37.69
212.262	27.52
212.648	31.89
213.034	30.51
213.419	14.34
213.805	16.56
214.19	1.89
214.576	27.05
214.961	17.48
215.346	19.22
215.732	48.47
216.117	12.67
216.502	36.55
216.888	24.08
217.273	6.68
217.658	2.94
218.043	33.96
218.428	37.37
218.813	-21.66
219.198	5.89
219.583	-0.88
219.968	-10.68
220.353	30.75
220.738	11.44
221.122	4.97
221.507	26.68
221.892	-3.5
222.276	5.39
222.661	-27.95
223.046	21.18
223.43	23.93
223.815	12.74
224.199	7.37
224.583	9.67
224.968	10.51
225.352	3.29
225.736	17.64
226.121	21.84
226.505	17.19
226.889	14.81
227.273	7.08
227.657	12.98
228.041	12.56
228.425	16.45
228.809	8.43
229.193	11.93
229.577	12.69
229.961	12.62
230.344	12.92
230.728	10.93
231.112	11.55
231.495	10.75
231.879	11.19
232.263	10.97
232.646	10.52
233.03	10.79
233.413	11.67
233.797	11.15
234.18	8.78
234.563	10.18
234.946	10.36
235.33	8.89
235.713	11.17
236.096	10.71
236.479	10.26
236.862	11.47
237.245	10.19
237.628	10.45
238.011	11.94
238.394	10.09
238.777	11.21
239.16	10.47
239.543	10.97
239.925	10.93
240.308	11.62
240.691	10.08
241.073	10.9
241.456	9.43
241.838	9.16
242.221	10.4
242.603	10.49
242.986	9.49
243.368	9.92
243.75	9.98
244.133	10.88
244.515	9.87
244.897	9.68
245.279	10.04
245.661	9.56
246.043	10.25
246.425	9.62
246.807	9.4
247.189	9.42
247.571	10.67
247.953	10.04
248.335	9.99
248.717	10.05
249.098	9.5
249.48	8.91
249.862	9.33
250.243	9.25
250.625	9.66
251.006	9.13
251.388	9.42
251.769	9.5
252.151	9.47
252.532	9.75
252.913	9.56
253.295	10.06
253.676	9.37
254.057	9.74
254.438	9.68
254.819	8.8
255.2	9.46
255.581	8.79
255.962	9.07
256.343	9.64
256.724	7.53
257.105	9.21
257.486	8.79
257.867	9.38
258.247	10.07
258.628	9.77
259.009	8.92
259.389	9.11
259.77	9.19
260.15	9.44
260.531	8.01
260.911	8.48
261.292	8.96
261.672	8.35
262.052	8.68
262.432	8.63
262.813	8.59
263.193	8.6
263.573	8.88
263.953	8.54
264.333	8.96
264.713	9.12
265.093	8.85
265.473	8.32
265.853	8.6
266.233	8.47
266.612	9.02
266.992	8.71
267.372	9.26
267.752	9.35
268.131	8.26
268.511	7.98
268.89	8.32
269.27	7.91
269.649	7.97
270.029	8.07
270.408	8.32
270.787	7.59
271.167	7.93
271.546	7.76
271.925	8.15
272.304	7.57
272.683	8.17
273.062	8.51
273.441	8.45
273.82	8.62
274.199	8.37
274.578	7.75
274.957	7.7
275.336	7.75
275.715	7.95
276.093	8.18
276.472	7.61
276.851	7.76
277.229	7.48
277.608	7.97
277.986	8.04
278.365	8.1
278.743	7.79
279.122	8.38
279.5	8.09
279.878	7.28
280.257	8.34
280.635	7.3
281.013	7.92
281.391	7.53
281.769	8.21
282.147	8.01
282.525	7.63
282.903	7.87
283.281	7.4
283.659	7.67
284.037	7.56
284.415	7.91
284.792	7.76
285.17	7.69
285.548	8.09
285.925	7.99
286.303	7.47
286.68	7.71
287.058	7.36
287.435	7.13
287.813	7.25
288.19	6.94
288.567	7.61
288.945	7.22
289.322	7.05
289.699	7.08
290.076	7.97
290.453	6.91
290.83	7.13
291.207	6.88
291.584	6.62
291.961	7.14
292.338	7.07
292.715	7.1
293.092	6.91
293.469	7.17
293.845	7.61
294.222	6.86
294.599	7.6
294.975	7.56
295.352	7.56
295.728	7.1
296.105	7.3
296.481	7.5
296.858	6.85
297.234	6.65
297.61	6.92
297.986	6.9
298.363	7.15
298.739	6.98
299.115	7.01
299.491	7.18
299.867	6.89
300.243	6.71
300.619	6.64
300.995	6.68
301.371	6.79
301.746	6.97
302.122	6.59
302.498	6.64
302.874	6.45
303.249	6.64
303.625	6.27
304	7.13
304.376	7.18
304.751	6.98
305.127	7.01
305.502	7.01
305.878	6.41
306.253	6.71
306.628	6.7
307.003	6.87
307.378	6.79
307.754	6.41
308.129	6.59
308.504	6.44
308.879	6.87
309.254	6.49
309.629	6.7
310.003	6.92
310.378	6.54
310.753	6.7
311.128	6.22
311.502	6.76
311.877	6.31
312.252	6.53
312.626	6.53
313.001	6.81
313.375	6.53
313.75	6.52
314.124	6.82
314.498	5.91
314.873	6.52
315.247	6.62
315.621	6.53
315.995	6.29
316.369	6.38
316.743	6.17
317.117	6.61
317.491	6.48
317.865	6.02
318.239	6.57
318.613	6.39
318.987	6.49
319.361	6.39
319.734	6.18
320.108	6.54
320.482	6.54
320.855	6.15
321.229	7.11
321.602	6.03
321.976	6.3
322.349	6.36
322.723	6.18
323.096	6.56
323.469	6.17
323.843	5.91
324.216	6.54
324.589	6.05
324.962	5.92
325.335	6.35
325.708	6.07
326.081	6.53
326.454	5.7
326.827	6.32
327.2	6.38
327.573	6.85
327.945	5.9
328.318	6
328.691	6.39
329.063	5.91
329.436	6.22
329.809	6.69
330.181	6.58
330.553	5.84
330.926	6.66
331.298	6.31
331.671	6.31
332.043	5.66
332.415	6.04
332.787	6.64
333.159	5.94
333.532	6.4
333.904	6.17
334.276	6.11
334.648	5.98
335.02	5.98
335.391	6.06
335.763	6.5
336.135	6.16
336.507	6.38
336.879	5.7
337.25	6.43
337.622	6.15
337.993	6.55
338.365	6.83
338.736	6.47
339.108	6.41
339.479	5.95
339.851	5.92
340.222	6.03
340.593	6.09
340.964	6.06
341.336	5.74
341.707	6.11
342.078	6.34
342.449	6.09
342.82	6.19
343.191	5.88
343.562	5.79
343.933	6.44
344.303	6.54
344.674	6.32
345.045	6.23
345.416	6.65
345.786	5.72
346.157	6.08
346.527	6.02
346.898	6
347.268	6.37
347.639	6.2
348.009	6.37
348.38	6.57
348.75	6.24
349.12	6.47
349.49	6.39
349.861	6.07
350.231	6.12
350.601	6.12
350.971	6.2
351.341	6.34
351.711	6.25
352.081	6.47
352.45	6.45
352.82	6.58
353.19	6.34
353.56	6.15
353.929	6.5
354.299	6.45
354.669	6.29
355.038	6.32
355.408	6.37
355.777	6.6
356.147	6.51
356.516	6.77
356.885	6.31
357.254	6.43
357.624	5.94
357.993	6.32
358.362	6.61
358.731	6.26
359.1	6.07
359.469	6.43
359.838	6.22
360.207	6.28
360.576	6.29
360.945	6.28
361.314	6.47
361.682	6.73
362.051	6.49
362.42	6.45
362.788	6.3
363.157	6.64
363.525	6.17
363.894	6.31
364.262	6.36
364.631	6.31
364.999	6.26
365.367	6.66
365.735	6.34
366.104	6.35
366.472	6.81
366.84	6.4
367.208	6.83
367.576	6.69
367.944	6.51
368.312	6.88
368.68	6.72
369.048	6.82
369.416	6.56
369.783	6.62
370.151	6.58
370.519	6.88
370.886	6.69
371.254	6.86
371.621	6.61
371.989	6.69
372.356	6.41
372.724	6.58
373.091	6.65
373.458	6.64
373.826	6.69
374.193	6.74
374.56	6.79
374.927	6.78
375.294	6.48
375.661	6.24
376.028	6.97
376.395	7.03
376.762	6.69
377.129	6.93
377.496	7.16
377.863	7.02
378.229	6.8
378.596	6.78
378.963	7.16
379.329	6.67
379.696	7.02
380.062	6.63
380.429	6.69
380.795	6.85
381.161	6.72
381.528	6.73
381.894	6.45
382.26	6.83
382.626	6.73
382.993	7.04
383.359	6.61
383.725	6.96
384.091	6.79
384.457	6.76
384.823	6.76
385.188	7.03
385.554	6.9
385.92	7.23
386.286	6.98
386.651	7.04
387.017	7.15
387.383	7.01
387.748	7.03
388.114	7.09
388.479	7.1
388.845	6.55
389.21	6.6
389.575	7.06
389.94	6.88
390.306	7.21
390.671	7.24
391.036	6.57
391.401	6.85
391.766	6.86
392.131	6.96
392.496	7.08
392.861	6.95
393.226	7.22
393.591	6.95
393.956	7.1
394.32	6.92
394.685	6.87
395.05	7.18
395.414	7.1
395.779	7.17
396.143	7.14
396.508	7.14
396.872	7.05
397.236	7.01
397.601	6.93
397.965	7.33
398.329	7
398.694	7.3
399.058	6.99
399.422	6.96
399.786	7.29
400.15	7.35
400.514	7.13
400.878	7.12
401.242	7.29
401.605	7.08
401.969	6.79
402.333	7.28
402.697	7.15
403.06	7.05
403.424	7.29
403.787	7.29
404.151	7.14
404.514	7.25
404.878	7.28
405.241	7.45
405.604	7.3
405.968	7.23
406.331	7.17
406.694	7.27
407.057	7.26
407.42	7.18
407.783	7.06
408.146	7.24
408.509	7.12
408.872	7.11
409.235	7.21
409.598	7.25
409.961	7.53
410.323	7.38
410.686	7.33
411.049	7.61
411.411	7.56
411.774	7.52
412.136	7.08
412.499	7.31
412.861	7.36
413.223	7.29
413.586	7.38
413.948	7.33
414.31	7.21
414.672	7.41
415.035	7.45
415.397	7.62
415.759	7.61
416.121	7.32
416.483	7.26
416.845	7.21
417.206	7.31
417.568	7.28
417.93	7.45
418.292	7.43
418.653	7.22
419.015	7.39
419.377	7.25
419.738	7.46
420.1	7.22
420.461	7.47
420.822	7.15
421.184	7.34
421.545	7.23
421.906	7.38
422.267	7.23
422.629	7.39
422.99	7.26
423.351	7.2
423.712	7.18
424.073	7.16
424.434	7.3
424.795	7.26
425.155	7.32
425.516	7.31
425.877	7.33
426.238	7.2
426.598	7.26
426.959	7.31
427.32	7.42
427.68	7.29
428.041	7.21
428.401	7.41
428.761	7.48
429.122	7.48
429.482	7.41
429.842	7.44
430.202	7.27
430.563	7.45
430.923	7.59
431.283	7.5
431.643	7.53
432.003	7.55
432.363	7.58
432.722	7.54
433.082	7.65
433.442	7.53
433.802	7.61
434.161	7.56
434.521	7.51
434.881	7.58
435.24	7.57
435.6	7.36
435.959	7.37
436.319	7.37
436.678	7.64
437.037	7.61
437.396	7.44
437.756	7.56
438.115	7.56
438.474	7.54
438.833	7.6
439.192	7.44
439.551	7.49
439.91	7.62
440.269	7.66
440.628	7.38
440.987	7.51
441.345	7.56
441.704	7.56
442.063	7.49
442.421	7.54
442.78	7.55
443.138	7.42
443.497	7.42
443.855	7.44
444.214	7.37
444.572	7.59
444.93	7.54
445.288	7.54
445.647	7.59
446.005	7.53
446.363	7.5
446.721	7.65
447.079	7.52
447.437	7.49
447.795	7.55
448.153	7.42
448.51	7.38
448.868	7.35
449.226	7.41
449.584	7.45
449.941	7.36
450.299	7.52
450.656	7.48
451.014	7.62
451.371	7.57
451.729	7.64
452.086	7.59
452.443	7.56
452.801	7.77
453.158	7.53
453.515	7.75
453.872	7.66
454.229	7.64
454.586	7.73
454.943	7.59
455.3	7.69
455.657	7.4
456.014	7.63
456.371	7.56
456.727	7.75
457.084	7.69
457.441	7.45
457.797	7.62
458.154	7.61
458.51	7.62
458.867	7.53
459.223	7.8
459.58	7.49
459.936	7.56
460.292	7.76
460.648	7.76
461.005	7.59
461.361	7.69
461.717	7.48
462.073	7.51
462.429	7.41
462.785	7.43
463.141	7.46
463.496	7.74
463.852	7.72
464.208	7.59
464.564	7.78
464.919	7.52
465.275	7.86
465.631	7.73
465.986	7.63
466.342	7.84
466.697	7.85
467.052	7.63
467.408	7.84
467.763	7.71
468.118	7.78
468.473	7.59
468.829	7.59
469.184	7.72
469.539	7.67
469.894	7.47
470.249	7.66
470.603	7.54
470.958	7.64
471.313	7.84
471.668	7.69
472.023	7.71
472.377	7.78
472.732	7.54
473.086	7.93
473.441	7.58
473.795	7.99
474.15	7.55
474.504	7.67
474.859	7.93
475.213	7.42
475.567	7.7
475.921	7.76
476.275	7.64
476.63	7.58
476.984	7.68
477.338	7.84
477.692	7.81
478.045	7.84
478.399	7.82
478.753	7.51
479.107	7.71
479.461	7.68
479.814	7.72
480.168	7.74
480.521	7.74
480.875	7.78
481.228	7.65
481.582	7.61
481.935	7.64
482.289	7.54
482.642	7.56
482.995	7.63
483.348	7.57
483.701	7.59
484.055	7.52
484.408	7.56
484.761	7.6
485.114	7.45
485.466	7.39
485.819	7.25
486.172	7.24
486.525	7.19
486.878	7.2
487.23	7.19
487.583	7.3
487.936	7.39
488.288	7.45
488.641	7.46
488.993	7.41
489.345	7.41
489.698	7.34
490.05	7.33
490.402	7.29
490.754	7.29
491.107	7.28
491.459	7.37
491.811	7.36
492.163	7.44
492.515	7.5
492.866	7.47
493.218	7.46
493.57	7.47
493.922	7.36
494.274	7.33
494.625	7.35
494.977	7.39
495.328	7.51
495.68	7.56
496.031	7.52
496.383	7.58
496.734	7.65
497.086	7.72
497.437	7.76
497.788	7.57
498.139	7.55
498.49	7.68
498.842	7.56
499.193	7.5
499.544	7.63
499.894	7.59
500.245	7.55
500.596	7.42
500.947	7.58
501.298	7.54
501.648	7.64
501.999	7.64
502.35	7.61
502.7	7.68
503.051	7.63
503.401	7.65
503.752	7.54
504.102	7.58
504.452	7.59
504.803	7.59
505.153	7.66
505.503	7.65
505.853	7.75
506.203	7.66
506.553	7.67
506.903	7.66
507.253	7.53
507.603	7.63
507.953	7.67
508.303	7.68
508.652	7.57
509.002	7.72
509.352	7.58
509.701	7.64
510.051	7.57
510.4	7.61
510.75	7.59
511.099	7.44
511.449	7.56
511.798	7.62
512.147	7.51
512.496	7.52
512.846	7.62
513.195	7.66
513.544	7.55
513.893	7.58
514.242	7.52
514.591	7.43
514.939	7.6
515.288	7.48
515.637	7.54
515.986	7.41
516.334	7.62
516.683	7.57
517.032	7.7
517.38	7.6
517.729	7.52
518.077	7.57
518.426	7.52
518.774	7.54
519.122	7.61
519.47	7.51
519.819	7.6
520.167	7.52
520.515	7.45
520.863	7.3
521.211	7.41
521.559	7.4
521.907	7.48
522.255	7.49
522.602	7.51
522.95	7.44
523.298	7.64
523.645	7.5
523.993	7.42
524.341	7.6
524.688	7.48
525.036	7.52
525.383	7.54
525.73	7.69
526.078	7.52
526.425	7.5
526.772	7.62
527.119	7.47
527.466	7.38
527.814	7.39
528.161	7.33
528.508	7.42
528.854	7.4
529.201	7.45
529.548	7.41
529.895	7.34
530.242	7.32
530.588	7.2
530.935	7.15
531.282	7.13
531.628	7.15
531.975	7.18
532.321	7.19
532.667	7.24
533.014	7.33
533.36	7.4
533.706	7.42
534.052	7.53
534.399	7.54
534.745	7.4
535.091	7.27
535.437	7.22
535.783	7.19
536.129	7.25
536.474	7.3
536.82	7.24
537.166	7.39
537.512	7.41
537.857	7.35
538.203	7.45
538.549	7.37
538.894	7.44
539.239	7.29
539.585	7.26
539.93	7.39
540.276	7.4
540.621	7.35
540.966	7.43
541.311	7.35
541.656	7.43
542.001	7.47
542.346	7.4
542.691	7.42
543.036	7.36
543.381	7.24
543.726	7.25
544.071	7.2
544.415	7.18
544.76	7.11
545.105	7.09
545.449	7.18
545.794	7.25
546.138	7.27
546.483	7.26
546.827	7.26
547.171	7.33
547.516	7.38
547.86	7.45
548.204	7.44
548.548	7.35
548.892	7.29
549.236	7.41
549.58	7.31
549.924	7.4
550.268	7.38
550.612	7.27
550.956	7.31
551.3	7.4
551.643	7.5
551.987	7.51
552.33	7.53
552.674	7.4
553.017	7.36
553.361	7.28
553.704	7.4
554.048	7.43
554.391	7.33
554.734	7.54
555.077	7.4
555.42	7.33
555.764	7.35
556.107	7.39
556.45	7.56
556.793	7.37
557.135	7.38
557.478	7.37
557.821	7.29
558.164	7.3
558.507	7.6
558.849	7.36
559.192	7.56
559.534	7.5
559.877	7.46
560.219	7.52
560.562	7.54
560.904	7.44
561.246	7.52
561.589	7.54
561.931	7.32
562.273	7.29
562.615	7.48
562.957	7.28
563.299	7.39
563.641	7.4
563.983	7.47
564.325	7.31
564.667	7.35
565.008	7.24
565.35	7.47
565.692	7.34
566.033	7.38
566.375	7.44
566.716	7.33
567.058	7.43
567.399	7.19
567.741	7.43
568.082	7.27
568.423	7.35
568.764	7.31
569.105	7.25
569.447	7.19
569.788	7.13
570.129	7.26
570.47	7.55
570.811	7.27
571.151	7.34
571.492	7.34
571.833	7.25
572.174	7.46
572.514	7.36
572.855	7.34
573.195	7.26
573.536	7.24
573.876	7.26
574.217	7.18
574.557	7.18
574.898	7.31
575.238	7.14
575.578	7.38
575.918	7.26
576.258	7.16
576.598	7.03
576.938	7.33
577.278	7.35
577.618	7.12
577.958	7.18
578.298	7.26
578.638	7.15
578.977	7.25
579.317	7.15
579.657	7.19
579.996	7.33
580.336	7.26
580.675	7.44
581.014	6.9
581.354	7.01
581.693	7.05
582.032	7.23
582.372	7.27
582.711	7.15
583.05	7.19
583.389	7.27
583.728	7.33
584.067	7.2
584.406	7.28
584.745	7.03
585.083	7.48
585.422	7.42
585.761	7.2
586.1	7.28
586.438	7.19
586.777	7.42
587.115	7.3
587.454	7.35
587.792	7.32
588.13	7.17
588.469	7.04
588.807	7.29
589.145	7.42
589.483	7.22
589.821	7.36
590.159	7.07
590.497	7.5
590.835	7.46
591.173	7.4
591.511	7.1
591.849	7.47
592.187	7.17
592.524	7.31
592.862	7.17
593.2	7.19
593.537	7.01
593.875	7.1
594.212	7.14
594.55	7.24
594.887	7.06
595.224	7.12
595.561	7.3
595.899	7.42
596.236	7.42
596.573	7.35
596.91	7.39
597.247	6.96
597.584	7.32
597.921	7.33
598.258	7.25
598.594	7.29
598.931	7.1
599.268	7.14
599.604	7.25
599.941	7.03
600.277	6.91
600.614	7.01
600.95	7.25
601.287	7.27
601.623	7.04
601.959	7.24
602.296	7.08
602.632	7
602.968	7.05
603.304	7.24
603.64	7.04
603.976	7.15
604.312	7.1
604.648	7.12
604.984	7.31
605.319	7
605.655	6.98
605.991	7.08
606.326	7.01
606.662	7.08
606.998	6.84
607.333	6.94
607.668	7.03
608.004	7
608.339	6.95
608.674	6.93
609.01	6.86
609.345	6.9
609.68	7.19
610.015	7.13
610.35	7.08
610.685	7.26
611.02	7.21
611.355	7.31
611.689	6.82
612.024	7.06
612.359	6.95
612.694	7.07
613.028	6.87
613.363	6.73
613.697	6.9
614.032	7.05
614.366	6.89
614.7	6.71
615.035	7.05
615.369	6.92
615.703	6.86
616.037	6.85
616.371	7.24
616.705	7.18
617.039	6.97
617.373	7.09
617.707	6.77
618.041	7.25
618.375	6.94
618.709	7.02
619.042	7.13
619.376	6.99
619.71	7.06
620.043	6.73
620.377	6.66
620.71	6.9
621.043	7.24
621.377	6.92
621.71	6.97
622.043	6.77
622.376	7.18
622.709	7.12
623.043	7.17
623.376	7.17
623.709	6.91
624.041	6.77
624.374	6.91
624.707	7.17
625.04	6.97
625.373	6.78
625.705	7.14
626.038	6.88
626.37	7.11
626.703	7.04
627.035	7.02
627.368	6.77
627.7	6.88
628.032	7.26
628.365	7.15
628.697	6.73
629.029	6.99
629.361	6.79
629.693	6.94
630.025	6.83
630.357	6.76
630.689	6.84
631.021	7.01
631.353	6.88
631.684	6.88
632.016	7.12
632.348	6.68
632.679	6.72
633.011	6.95
633.342	7.1
633.674	7.09
634.005	6.69
634.336	6.88
634.668	6.79
634.999	6.98
635.33	7.16
635.661	6.98
635.992	7.06
636.323	6.7
636.654	6.92
636.985	6.62
637.316	6.75
637.647	6.89
637.977	6.39
638.308	7.41
638.639	6.8
638.969	7.06
639.3	6.88
639.63	6.84
639.961	6.9
640.291	6.68
640.622	7.2
640.952	6.58
641.282	6.99
641.612	6.61
641.943	6.99
642.273	6.95
642.603	6.59
642.933	6.72
643.263	6.45
643.592	6.89
643.922	7.01
644.252	6.68
644.582	7.19
644.911	6.74
645.241	7.27
645.571	6.91
645.9	6.73
646.23	6.69
646.559	7.24
646.888	7.34
647.218	6.72
647.547	6.56
647.876	7.02
648.205	6.32
648.534	7.42
648.863	7.28
649.192	6.45
649.521	7.15
649.85	7.16
650.179	7.01
650.508	6.66
650.837	7.32
651.165	6.89
651.494	6.62
651.822	7.24
652.151	6.58
652.479	6.81
652.808	6.71
653.136	6.99
653.465	6.48
653.793	6.53
654.121	7.25
654.449	6.12
654.777	6.97
655.105	6.96
655.433	6.94
655.761	7.54
656.089	6.92
656.417	6.46
656.745	6.88
657.073	6.24
657.4	7.08
657.728	6.97
658.056	6.72
658.383	7.34
658.711	6.33
659.038	6.86
659.365	6.84
659.693	6.69
660.02	7.16
660.347	6.73
660.674	6.69
661.001	6.82
661.329	6.92
661.656	7.23
661.982	6.5
662.309	6.94
662.636	6.86
662.963	6.6
663.29	6.87
663.616	6.61
663.943	7.12
664.27	6.84
664.596	7.09
664.923	7.1
665.249	6.91
665.576	6.56
665.902	6.54
666.228	6.56
666.554	6.96
666.881	6.84
667.207	6.68
667.533	6.94
667.859	6.62
668.185	6.72
668.511	7.35
668.837	6.67
669.162	7.24
669.488	6.89
669.814	6.78
670.139	6.83
670.465	7.71
670.791	7.11
671.116	6.75
671.442	7.18
671.767	6.09
672.092	7.17
672.418	7.42
672.743	7.14
673.068	7.47
673.393	6.53
673.718	7.15
674.043	7.15
674.368	6.92
674.693	6.66
675.018	6.92
675.343	6.43
675.667	7.01
675.992	6.57
676.317	7.06
676.641	7.21
676.966	6.91
677.29	6.67
677.615	7.11
677.939	7.54
678.264	6.82
678.588	7.31
678.912	6.68
679.236	7.38
679.56	7.17
679.885	6.3
680.209	7.11
680.532	7.24
680.856	6.68
681.18	7.61
681.504	6.73
681.828	6.94
682.152	7.12
682.475	7.65
682.799	7.04
683.122	6.73
683.446	6.66
683.769	7.34
684.093	7.04
684.416	6.99
684.739	7.09
685.062	8.09
685.386	7.13
685.709	7.04
686.032	6.67
686.355	6.75
686.678	7.04
687.001	7.01
687.324	7.26
687.646	6.7
687.969	7.31
688.292	6.8
688.614	7.48
688.937	7.54
689.26	6.67
689.582	7.38
689.904	6.69
690.227	7.82
690.549	7.28
690.871	7.17
691.194	7.27
691.516	6.77
691.838	7.26
692.16	6.8
692.482	7.18
692.804	6.75
693.126	6.42
693.448	7.57
693.769	6.17
694.091	7.53
694.413	7.26
694.735	6.89
695.056	7.22
695.378	7.64
695.699	6.73
696.021	6.59
696.342	7.25
696.663	6.81
696.984	6.69
697.306	7.21
697.627	5.99
697.948	7.17
698.269	6.82
698.59	7.54
698.911	7.06
699.232	6.79
699.553	6.7
699.873	7.92
700.194	6.78
700.515	6.07
700.835	7.2
701.156	7
701.477	7.35
701.797	6.82
702.117	7.36
702.438	6.8
702.758	6.52
703.078	7.17
703.398	7
703.719	6.6
704.039	7.93
704.359	6.77
704.679	5.58
704.999	7.27
705.319	7.48
705.638	7.28
705.958	6.91
706.278	7.64
706.597	6.66
706.917	7.78
707.237	6.25
707.556	7.15
707.876	6.41
708.195	7.84
708.514	7.44
708.834	6.26
709.153	7.18
709.472	7.06
709.791	7.61
710.11	8.31
710.429	7.27
710.748	7.37
711.067	6.96
711.386	8.19
711.705	7.56
712.023	7.57
712.342	7.61
712.661	7.86
712.979	7.15
713.298	8.55
713.616	7.06
713.935	7.64
714.253	8.33
714.572	7.93
714.89	7.62
715.208	7.47
715.526	6.45
715.844	7.67
716.162	7.31
716.48	7.58
716.798	7.24
717.116	6.95
717.434	7.17
717.752	6.76
718.069	6.59
718.387	7.32
718.705	7.34
719.022	7.89
719.34	7.62
719.657	7.21
719.975	8
720.292	7.27
720.609	7.82
720.927	7.54
721.244	7.82
721.561	8.03
721.878	7.12
722.195	7.66
722.512	7.57
722.829	8.32
723.146	8.35
723.463	7.74
723.779	7.3
724.096	6.75
724.413	8.93
724.729	8.77
725.046	9.16
725.362	7.34
725.679	7.19
725.995	7.7
726.311	7.3
726.628	6.02
726.944	6.39
727.26	7.15
727.576	7.3
727.892	5.22
728.208	7.98
728.524	8.1
728.84	7.02
729.156	6.39
729.472	7.76
729.787	7.42
730.103	5.93
730.419	8.29
730.734	7.97
731.05	6.85
731.365	8.08
731.681	7.64
731.996	8.32
732.311	6.58
732.626	8.25
732.942	6.88
733.257	7.67
733.572	7.89
733.887	6.69
734.202	8.27
734.517	8.08
734.832	8.27
735.146	8.53
735.461	8.08
735.776	6.63
736.091	7.03
736.405	7.11
736.72	8.35
737.034	6.74
737.349	7.14
737.663	6.91
737.977	7.07
738.292	7.2
738.606	7.49
738.92	7.9
739.234	8.38
739.548	7.95
739.862	7.42
740.176	7.57
740.49	6.12
740.804	9.39
741.117	8.12
741.431	6.48
741.745	7.02
742.058	8.06
742.372	6.66
742.685	5.89
742.999	6.6
743.312	9.84
743.626	7.78
743.939	6.91
744.252	9.02
744.565	5.86
744.878	9.11
745.191	8.45
745.505	7.91
745.817	7.3
746.13	8.72
746.443	10.56
746.756	7.63
747.069	8.42
747.381	6.69
747.694	6.37
748.007	7.79
748.319	10.19
748.632	9.83
748.944	9.24
749.256	8.41
749.569	7.54
749.881	9.15
750.193	9.71
750.505	9.64
750.817	9.42
751.129	7.92
751.441	9.11
751.753	9.72
752.065	10.83
752.377	9.03
752.689	8
753	7.66
753.312	7.45
753.624	9.23
753.935	9.61
754.247	6.95
754.558	9.78
754.869	8.71
755.181	7.2
755.492	8.88
755.803	10.4
756.114	8.26
756.425	9.42
756.736	7.57
757.047	7.44
757.358	7.22
757.669	7.26
757.98	8.07
758.291	7.96
758.601	7.72
758.912	6.39
759.223	10.68
759.533	8.29
759.844	9.8
760.154	7.53
760.464	7.52
760.775	7.51
761.085	10.32
761.395	9.05
761.705	7.52
762.016	6.51
762.326	8.12
762.636	8.19
762.945	7.91
763.255	7.2
763.565	6.85
763.875	6.02
764.185	9.1
764.494	9.23
764.804	7.51
765.113	7.88
765.423	7.5
765.732	7.31
766.042	8.17
766.351	8.08
766.66	8.72
766.97	8.38
767.279	9.33
767.588	6.95
767.897	8.59
768.206	8.81
768.515	9.14
768.824	7.3
769.133	8.07
769.441	8.71
769.75	9.95
770.059	11.47
770.367	6.52
770.676	9.39
770.984	7.37
771.293	10.02
771.601	10.07
771.91	12.22
772.218	9.19
772.526	9.66
772.834	7.56
773.142	7.82
773.45	9.91
773.758	7.4
774.066	7.9
774.374	8.02
774.682	8.62
774.99	10.68
775.298	10.26
775.605	9.06
775.913	12.05
776.22	8.17
776.528	8.52
776.835	7.77
777.143	7.95
777.45	8.55
777.757	8.99
778.065	10.04
778.372	8.59
778.679	9.78
778.986	7.3
779.293	8.06
779.6	8.71
779.907	8.35
780.214	11.8
780.52	6.7
780.827	6.78
781.134	12.38
781.44	9.93
781.747	9.31
782.053	10.73
782.36	11.17
782.666	7.69
782.973	12.38
783.279	7.81
783.585	10.68
783.891	11.76
784.197	7.48
784.503	7.46
784.809	7.27
785.115	8.83
785.421	12.4
785.727	10.95
786.033	12.4
786.339	9.62
786.644	10.82
786.95	11.15
787.255	11.85
787.561	10.11
787.866	6.28
788.172	10.37
788.477	9.25
788.782	6.41
789.088	6.24
789.393	10.21
789.698	12.74
790.003	13.46
790.308	6.33
790.613	7.96
790.918	11.39
791.223	5.81
791.527	10.01
791.832	8.46
792.137	8.9
792.441	10.19
792.746	8.59
793.05	10.96
793.355	14.61
793.659	9.64
793.963	10.6
794.268	8.98
794.572	8.26
794.876	9.3
795.18	7.58
795.484	6.14
795.788	7.53
796.092	12.14
796.396	12.33
796.7	10.95
797.004	10.76
797.307	7.52
797.611	6.12
797.915	7.69
798.218	9.21
798.522	7.81
798.825	10.5
799.128	11.33
799.432	9.26
799.735	10.1
800.038	11.57
800.341	7.42
800.644	8.49
800.947	10.86
801.25	8.93
801.553	10.4
801.856	14.48
802.159	7.04
802.462	7.11
802.764	7.14
803.067	8.3
803.37	15.02
803.672	10.9
803.975	10.8
804.277	15.16
804.579	12.5
804.882	9.55
805.184	11.06
805.486	11.75
805.788	14.08
806.09	12.54
806.392	8.32
806.694	9.76
806.996	12.46
807.298	9.66
807.6	16.32
807.902	13.21
808.203	9.04
808.505	13.93
808.807	11.57
809.108	11.47
809.409	15.53
809.711	9.02
810.012	15.71
810.313	15.29
810.615	15.35
810.916	11
811.217	10.53
811.518	9.87
811.819	13.25
812.12	10.21
812.421	16.64
812.722	10.44
813.023	10.72
813.323	11.84
813.624	10.91
813.925	15.45
814.225	16.04
814.526	12.42
814.826	9.69
815.126	8.71
815.427	12.03
815.727	15.13
816.027	8.72
816.327	12.02
816.627	10.67
816.927	11.07
817.227	11.98
817.527	9.82
817.827	10.64
818.127	8.29
818.427	19.16
818.727	4.2
819.026	13.92
819.326	9
819.625	9.88
819.925	20.81
820.224	9.97
820.524	3.99
820.823	9.6
821.122	5.34
821.421	15.88
821.72	12.02
822.019	10.28
822.318	7.41
822.617	11.94
822.916	15.1
823.215	9.2
823.514	13.92
823.813	16.04
824.111	14.26
824.41	10.89
824.709	8.65
825.007	9.93
825.306	9.12
825.604	9.09
825.902	9.24
826.201	9.43
826.499	9.5
826.797	10.68
827.095	10.33
827.393	10.29
827.691	9.61
827.989	8.34
828.287	8.54
828.585	10.61
828.882	9.14
829.18	11.74
829.478	9.38
829.775	9.23
830.073	7.23
830.37	9.67
830.668	10.58
830.965	11.31
831.263	8.49
831.56	10.31
831.857	9.16
832.154	11.06
832.451	10.87
832.748	8.45
833.045	9.96
833.342	7.91
833.639	9.04
833.936	10.36
834.232	6.27
834.529	13.28
834.826	4.9
835.122	11.59
835.419	13.12
835.715	9.87
836.012	12.34
836.308	16.97
836.604	14.61
836.901	8.9
837.197	11.2
837.493	12.99
837.789	7.9
838.085	8.82
838.381	5.11
838.677	10.94
838.972	11.53
839.268	10.6
839.564	16.36
839.86	8.63
840.155	9.21
840.451	10.35
840.746	16.45
841.042	10.03
841.337	18.94
841.632	16.11
841.928	11.94
842.223	10.37
842.518	16.66
842.813	16.06
843.108	17.38
843.403	11.44
843.698	16.05
843.993	9.41
844.287	11.53
844.582	14.21
844.877	7.64
845.171	22.17
845.466	13.71
845.761	1.4
846.055	12.93
846.349	10.76
846.644	15.72
846.938	18.35
847.232	2.98
847.526	9.08
847.82	8.09
848.114	14.16
848.408	11.42
848.702	17.28
848.996	0.93
849.29	17.39
849.584	20.28
849.877	23.96
850.171	5.78
850.465	14.96
850.758	11.86
851.052	8.34
851.345	29.19
851.638	21.43
851.932	27.48
852.225	36.38
852.518	20.71
852.811	15.83
853.104	19.98
853.397	14.8
853.69	12.41
853.983	27.32
854.276	13.74
854.569	20.94
854.861	2.43
855.154	9.93
855.447	19.98
855.739	2.53
856.032	24.17
856.324	16.6
856.616	29.12
856.909	18.97
857.201	7.12
857.493	27.33
857.785	16.35
858.077	21.1
858.369	17.75
858.661	30.71
858.953	10.31
859.245	38.01
859.537	15.67
859.829	-2.53
860.12	15.74
860.412	22.8
860.703	10.76
860.995	11.04
861.286	5.78
861.578	21.64
861.869	-10.17
862.16	8.28
862.452	-16.12
862.743	31.24
863.034	30.83
863.325	14.6
863.616	21.28
863.907	14.16
864.198	12.98
864.488	-3.41
864.779	8.98
865.07	22.92
865.36	20.71
865.651	33.65
865.941	-7.62
866.232	6.69
866.522	26.88
866.813	31.53
867.103	35.89
867.393	14.33
867.683	37.47
867.973	10.11
868.263	13.89
868.553	10.51
868.843	3.52
869.133	22.09
869.423	32.54
869.713	24.89
870.002	25.26
870.292	11.62
870.582	13.63
870.871	12.58
871.161	-11.11
871.45	1.13
871.739	29.2
872.029	2.42
872.318	36.69
872.607	-1.44
872.896	13.82
873.185	9.22
873.474	15.95
873.763	10.75
874.052	3.29
874.341	21.4
874.63	16.65
874.918	9.62
875.207	36.92
875.496	8.36
875.784	7.01
876.073	-7.39
876.361	14.11
876.649	33.76
876.938	44.44
877.226	35.38
877.514	20.96
877.802	10.72
878.09	33.14
878.378	23.31
878.666	1.05
878.954	20.48
879.242	18.7
879.53	15.66
879.817	20.05
880.105	-14.28
880.392	11.26
880.68	22.55
880.967	32.93
881.255	15.35
881.542	23.17
881.83	25.46
882.117	14.3
882.404	21.73
882.691	9.64
882.978	16.66
883.265	7.27
883.552	20
883.839	-0.55
884.126	19.56
884.413	-5.21
884.699	21.4
884.986	26.54
885.273	9.16
885.559	9.16
885.846	9.16
