Data from 1610-3_forehead_Reflection__3__139.txt Node

Date: Fri Nov 11 17:10:36 CST 2022
User: ToomeyLab
Spectrometer: FLMS14357
Trigger mode: 0
Integration Time (sec): 1.000000E-2
Scans to average: 100
Electric dark correction enabled: true
Nonlinearity correction enabled: false
Boxcar width: 0
XAxis mode: Wavelengths
Number of Pixels in Spectrum: 2048
>>>>>Begin Spectral Data<<<<<
189.047	128.27
189.435	128.27
189.823	128.27
190.211	-61.85
190.599	42.42
190.987	-695.1
191.375	655.65
191.763	107.5
192.151	-100.31
192.538	51.66
192.926	-51.55
193.314	-151.12
193.702	77.81
194.089	-131.26
194.477	-372.48
194.864	212.38
195.252	80.16
195.639	10.91
196.027	-2.01
196.414	193.1
196.801	-74.26
197.189	330.04
197.576	-498.85
197.963	45.58
198.351	-2.42
198.738	-28.31
199.125	31.34
199.512	23.72
199.899	49.11
200.286	10.76
200.673	19.75
201.06	-5.16
201.447	26.71
201.833	46.93
202.22	32.67
202.607	37.48
202.994	20.54
203.38	17.64
203.767	63.03
204.154	-32.99
204.54	35.72
204.927	-16.32
205.313	49.71
205.699	22.31
206.086	45.4
206.472	8.98
206.858	35.18
207.245	23.3
207.631	25.07
208.017	-27.09
208.403	22.56
208.789	-39.77
209.175	7.16
209.561	14.91
209.947	2.11
210.333	23.43
210.719	31.69
211.105	22.18
211.491	-94.91
211.876	18.03
212.262	-14.64
212.648	30.96
213.034	22.18
213.419	34.08
213.805	27.08
214.19	4.51
214.576	17.78
214.961	-1.74
215.346	-70.61
215.732	-24.08
216.117	21
216.502	17.77
216.888	5.13
217.273	11.45
217.658	28.74
218.043	19.71
218.428	-19.55
218.813	20.77
219.198	-17.32
219.583	31.44
219.968	36.21
220.353	-28.41
220.738	1.66
221.122	-12.89
221.507	22.23
221.892	23.92
222.276	2.37
222.661	-2.44
223.046	-1.05
223.43	10.05
223.815	8.92
224.199	19.32
224.583	-7.67
224.968	13.29
225.352	4.99
225.736	6.55
226.121	6
226.505	11.34
226.889	7.14
227.273	6.86
227.657	-2.31
228.041	2.59
228.425	2.68
228.809	6.35
229.193	-1.98
229.577	4.11
229.961	2.03
230.344	3.14
230.728	2.56
231.112	2.48
231.495	2.55
231.879	1.6
232.263	1.74
232.646	1.28
233.03	2.74
233.413	0.97
233.797	1.95
234.18	3.23
234.563	1.98
234.946	3.23
235.33	3.2
235.713	2.9
236.096	0.66
236.479	2.95
236.862	4.62
237.245	3.42
237.628	2.29
238.011	2.05
238.394	2.95
238.777	1.69
239.16	3.37
239.543	3.35
239.925	3.55
240.308	1.57
240.691	2.43
241.073	1.47
241.456	0.88
241.838	2.4
242.221	2.64
242.603	2.37
242.986	2.8
243.368	2.74
243.75	2.5
244.133	2.26
244.515	2.43
244.897	2.06
245.279	2.55
245.661	2.68
246.043	2.28
246.425	2.56
246.807	2.09
247.189	2.25
247.571	1.63
247.953	2.65
248.335	2.66
248.717	2.32
249.098	2.28
249.48	2.43
249.862	1.98
250.243	2.51
250.625	2.41
251.006	2.86
251.388	1.96
251.769	2.76
252.151	1.96
252.532	3.75
252.913	2
253.295	2.08
253.676	2.66
254.057	2.5
254.438	2.87
254.819	1.89
255.2	2.72
255.581	3.04
255.962	2.96
256.343	3.07
256.724	2.43
257.105	2.27
257.486	3.31
257.867	2.73
258.247	3.25
258.628	1.7
259.009	2.27
259.389	2.74
259.77	3.21
260.15	2.59
260.531	1.99
260.911	2.38
261.292	2.31
261.672	2.28
262.052	2.4
262.432	2.91
262.813	2.54
263.193	2.05
263.573	2.16
263.953	3.3
264.333	3.24
264.713	1.85
265.093	2.81
265.473	3.36
265.853	2.01
266.233	2.76
266.612	1.8
266.992	2.91
267.372	2.64
267.752	2.85
268.131	2.19
268.511	3.05
268.89	2.7
269.27	2.39
269.649	2.02
270.029	1.57
270.408	1.88
270.787	2.94
271.167	2.24
271.546	2.65
271.925	2.93
272.304	2.25
272.683	2.52
273.062	2.41
273.441	2
273.82	1.97
274.199	2.49
274.578	2.81
274.957	2.03
275.336	2.16
275.715	2.27
276.093	3.24
276.472	2.32
276.851	2.73
277.229	2.51
277.608	2.2
277.986	2.55
278.365	3.16
278.743	2.58
279.122	2.5
279.5	2.38
279.878	2.31
280.257	3.63
280.635	2.55
281.013	2.55
281.391	2.68
281.769	2.73
282.147	2.1
282.525	2.78
282.903	2.39
283.281	2.73
283.659	2.37
284.037	2.3
284.415	2.22
284.792	2.34
285.17	2.03
285.548	2.27
285.925	2.12
286.303	2.55
286.68	2.12
287.058	2.19
287.435	2.4
287.813	2.71
288.19	2.68
288.567	2.58
288.945	2.03
289.322	2.04
289.699	2.92
290.076	2.26
290.453	2.41
290.83	2.75
291.207	2.77
291.584	2.33
291.961	2.24
292.338	2.71
292.715	2.53
293.092	2.6
293.469	3.08
293.845	2.84
294.222	3.38
294.599	3.3
294.975	2.23
295.352	2.3
295.728	2.42
296.105	2.86
296.481	2.99
296.858	3.06
297.234	3.12
297.61	2.6
297.986	2.43
298.363	2.65
298.739	2.78
299.115	2.74
299.491	3.17
299.867	2.77
300.243	2.74
300.619	3.27
300.995	2.83
301.371	2.8
301.746	3.18
302.122	3.01
302.498	2.67
302.874	2.89
303.249	3.1
303.625	2.9
304	3.12
304.376	3.08
304.751	3.61
305.127	3.34
305.502	3.46
305.878	4.03
306.253	3.38
306.628	3.54
307.003	3.36
307.378	3.53
307.754	3.72
308.129	3.37
308.504	3.23
308.879	3.23
309.254	2.66
309.629	3.25
310.003	3.71
310.378	2.94
310.753	3.42
311.128	3.44
311.502	3.31
311.877	3.52
312.252	3.15
312.626	3.4
313.001	3.7
313.375	3.55
313.75	3.73
314.124	3.54
314.498	4.34
314.873	3.87
315.247	4.1
315.621	3.46
315.995	3.73
316.369	4.18
316.743	3.91
317.117	4.1
317.491	4.27
317.865	4.16
318.239	4.61
318.613	4.31
318.987	4.79
319.361	4.43
319.734	4.18
320.108	4.5
320.482	3.98
320.855	4.41
321.229	4.53
321.602	4.18
321.976	4.15
322.349	4.51
322.723	4.58
323.096	4.84
323.469	4.5
323.843	5.07
324.216	4.58
324.589	4.85
324.962	4.06
325.335	5.01
325.708	4.53
326.081	4.48
326.454	4.88
326.827	4.86
327.2	4.42
327.573	5.1
327.945	4.96
328.318	5.16
328.691	5.39
329.063	5.05
329.436	4.98
329.809	4.76
330.181	5.38
330.553	5.27
330.926	4.98
331.298	4.95
331.671	5.7
332.043	5.27
332.415	5.16
332.787	5.44
333.159	5.1
333.532	4.74
333.904	5.08
334.276	5.81
334.648	5.09
335.02	5.93
335.391	5.46
335.763	5.32
336.135	5.59
336.507	5.87
336.879	5.2
337.25	4.97
337.622	5.59
337.993	5.9
338.365	5.56
338.736	5.62
339.108	5.12
339.479	5.5
339.851	5.18
340.222	5.23
340.593	5.3
340.964	5.48
341.336	5.52
341.707	5.74
342.078	5.42
342.449	5.69
342.82	5.54
343.191	6.02
343.562	6.34
343.933	5.55
344.303	6.34
344.674	5.96
345.045	5.81
345.416	6.23
345.786	6.08
346.157	6.11
346.527	6.21
346.898	6.31
347.268	6.24
347.639	6.45
348.009	6.07
348.38	6.31
348.75	6.58
349.12	5.98
349.49	6.37
349.861	6.09
350.231	6.24
350.601	6.5
350.971	6.4
351.341	6.27
351.711	6.25
352.081	6.11
352.45	6.52
352.82	6.44
353.19	6.24
353.56	6.84
353.929	6.86
354.299	6.82
354.669	6.63
355.038	6.75
355.408	6.34
355.777	6.67
356.147	6.88
356.516	6.92
356.885	6.58
357.254	6.75
357.624	6.83
357.993	6.95
358.362	7.05
358.731	6.66
359.1	6.59
359.469	6.94
359.838	7.14
360.207	7.05
360.576	7.37
360.945	6.92
361.314	6.94
361.682	7.03
362.051	7.12
362.42	6.84
362.788	6.99
363.157	7.2
363.525	7.28
363.894	7.12
364.262	7.05
364.631	7.08
364.999	7.15
365.367	7.58
365.735	7.32
366.104	7.16
366.472	7.75
366.84	7.48
367.208	7.43
367.576	7.6
367.944	7.76
368.312	7.37
368.68	7.6
369.048	7.43
369.416	7.53
369.783	7.85
370.151	7.56
370.519	8.12
370.886	7.77
371.254	7.6
371.621	7.9
371.989	7.72
372.356	7.64
372.724	8.05
373.091	7.98
373.458	7.78
373.826	8.25
374.193	7.91
374.56	7.88
374.927	8.2
375.294	7.81
375.661	8.3
376.028	8.3
376.395	8.22
376.762	8.01
377.129	8.22
377.496	8.26
377.863	8.07
378.229	8.55
378.596	8.13
378.963	8.02
379.329	8.19
379.696	8.36
380.062	8.36
380.429	8.06
380.795	8.42
381.161	8.7
381.528	8.44
381.894	8.45
382.26	8.47
382.626	8.54
382.993	8.35
383.359	8.48
383.725	8.9
384.091	8.74
384.457	8.88
384.823	8.79
385.188	8.72
385.554	8.77
385.92	8.45
386.286	8.77
386.651	8.81
387.017	8.54
387.383	8.86
387.748	8.81
388.114	8.89
388.479	8.9
388.845	8.83
389.21	8.86
389.575	8.8
389.94	9.11
390.306	9.28
390.671	9.14
391.036	9.08
391.401	9.1
391.766	9.39
392.131	9.09
392.496	9.16
392.861	9.35
393.226	8.96
393.591	9.26
393.956	9.34
394.32	9.56
394.685	9.51
395.05	9.51
395.414	9.45
395.779	9.31
396.143	9.5
396.508	9.38
396.872	9.54
397.236	9.57
397.601	9.46
397.965	9.58
398.329	9.6
398.694	9.47
399.058	9.82
399.422	9.76
399.786	9.82
400.15	9.53
400.514	9.65
400.878	9.86
401.242	9.94
401.605	10
401.969	9.83
402.333	10.09
402.697	9.91
403.06	9.94
403.424	9.8
403.787	9.93
404.151	10.09
404.514	10.16
404.878	10.23
405.241	9.92
405.604	9.99
405.968	10.32
406.331	10.01
406.694	10.16
407.057	10.15
407.42	10.21
407.783	10.06
408.146	10.31
408.509	10.07
408.872	10.47
409.235	10.24
409.598	10.35
409.961	10.08
410.323	10.63
410.686	10.37
411.049	10.38
411.411	10.48
411.774	10.44
412.136	10.49
412.499	10.66
412.861	10.36
413.223	10.6
413.586	10.38
413.948	10.72
414.31	10.78
414.672	10.56
415.035	10.86
415.397	10.85
415.759	10.95
416.121	10.92
416.483	10.67
416.845	10.85
417.206	10.78
417.568	10.88
417.93	10.87
418.292	10.69
418.653	10.76
419.015	10.68
419.377	10.85
419.738	10.83
420.1	10.93
420.461	10.82
420.822	10.79
421.184	10.73
421.545	10.73
421.906	10.87
422.267	10.86
422.629	10.86
422.99	10.77
423.351	10.81
423.712	10.92
424.073	11.09
424.434	10.97
424.795	11.16
425.155	11.07
425.516	11.1
425.877	11.13
426.238	11.16
426.598	11.19
426.959	11.21
427.32	11.34
427.68	11.41
428.041	11.49
428.401	11.38
428.761	11.48
429.122	11.6
429.482	11.89
429.842	11.9
430.202	11.67
430.563	11.65
430.923	11.76
431.283	11.8
431.643	12.11
432.003	12.11
432.363	11.92
432.722	11.9
433.082	11.85
433.442	11.97
433.802	12.11
434.161	12.1
434.521	11.98
434.881	11.92
435.24	12.02
435.6	12.02
435.959	12.26
436.319	12.03
436.678	12.08
437.037	12.19
437.396	12.2
437.756	12.21
438.115	12.28
438.474	12.28
438.833	12.35
439.192	12.37
439.551	12.34
439.91	12.44
440.269	12.46
440.628	12.52
440.987	12.6
441.345	12.41
441.704	12.34
442.063	12.51
442.421	12.44
442.78	12.42
443.138	12.46
443.497	12.62
443.855	12.57
444.214	12.78
444.572	12.82
444.93	12.88
445.288	12.98
445.647	12.69
446.005	12.92
446.363	12.85
446.721	12.65
447.079	12.67
447.437	12.74
447.795	12.7
448.153	12.72
448.51	12.87
448.868	12.79
449.226	12.98
449.584	12.99
449.941	13.17
450.299	13.3
450.656	13.27
451.014	13.43
451.371	13.3
451.729	13.28
452.086	13.42
452.443	13.57
452.801	13.57
453.158	13.61
453.515	13.56
453.872	13.48
454.229	13.51
454.586	13.65
454.943	13.74
455.3	13.58
455.657	13.7
456.014	13.53
456.371	13.69
456.727	13.73
457.084	13.67
457.441	13.86
457.797	13.88
458.154	13.97
458.51	13.82
458.867	13.93
459.223	13.85
459.58	13.92
459.936	14.03
460.292	14
460.648	13.89
461.005	13.92
461.361	13.8
461.717	13.67
462.073	13.97
462.429	13.96
462.785	14.16
463.141	14.18
463.496	14.41
463.852	14.38
464.208	14.32
464.564	14.43
464.919	14.52
465.275	14.45
465.631	14.66
465.986	14.58
466.342	14.57
466.697	14.71
467.052	14.54
467.408	14.61
467.763	14.63
468.118	14.69
468.473	14.71
468.829	14.81
469.184	14.9
469.539	14.88
469.894	14.77
470.249	14.79
470.603	14.71
470.958	14.96
471.313	15.18
471.668	15.11
472.023	15.18
472.377	15.24
472.732	15.4
473.086	15.13
473.441	15.19
473.795	15.22
474.15	15.23
474.504	15.45
474.859	15.31
475.213	15.21
475.567	15.56
475.921	15.59
476.275	15.67
476.63	15.49
476.984	15.39
477.338	15.5
477.692	15.37
478.045	15.5
478.399	15.48
478.753	15.55
479.107	15.61
479.461	15.61
479.814	15.57
480.168	15.61
480.521	15.79
480.875	15.76
481.228	15.79
481.582	15.75
481.935	15.81
482.289	15.8
482.642	15.78
482.995	15.62
483.348	15.57
483.701	15.74
484.055	15.67
484.408	15.55
484.761	15.18
485.114	14.97
485.466	14.75
485.819	14.96
486.172	15.2
486.525	15.4
486.878	15.56
487.23	15.66
487.583	15.76
487.936	15.76
488.288	15.67
488.641	15.52
488.993	15.36
489.345	15.37
489.698	15.53
490.05	15.6
490.402	15.74
490.754	15.91
491.107	16.07
491.459	16.26
491.811	16.27
492.163	16.21
492.515	16.11
492.866	15.95
493.218	15.72
493.57	15.72
493.922	16.04
494.274	16.25
494.625	16.42
494.977	16.54
495.328	16.83
495.68	16.76
496.031	17.01
496.383	17.06
496.734	17.02
497.086	17.02
497.437	17.16
497.788	16.99
498.139	16.82
498.49	16.84
498.842	16.99
499.193	17.04
499.544	17
499.894	17.29
500.245	17.2
500.596	17.24
500.947	17.22
501.298	17.44
501.648	17.51
501.999	17.43
502.35	17.43
502.7	17.49
503.051	17.57
503.401	17.5
503.752	17.63
504.102	17.58
504.452	17.74
504.803	17.76
505.153	17.74
505.503	17.7
505.853	17.82
506.203	17.71
506.553	17.82
506.903	17.85
507.253	17.88
507.603	18.1
507.953	18.03
508.303	18.07
508.652	18.08
509.002	18.15
509.352	18.07
509.701	18.07
510.051	17.94
510.4	17.95
510.75	17.9
511.099	17.88
511.449	18.09
511.798	18.02
512.147	18.23
512.496	18.19
512.846	18.15
513.195	18.12
513.544	18.18
513.893	18.28
514.242	18.43
514.591	18.33
514.939	18.51
515.288	18.61
515.637	18.39
515.986	18.63
516.334	18.72
516.683	18.67
517.032	18.76
517.38	18.73
517.729	18.75
518.077	18.65
518.426	18.89
518.774	18.86
519.122	18.62
519.47	18.47
519.819	18.49
520.167	18.47
520.515	18.48
520.863	18.5
521.211	18.69
521.559	18.83
521.907	18.89
522.255	19.04
522.602	19.02
522.95	19.13
523.298	19.08
523.645	19.19
523.993	19.42
524.341	19.35
524.688	19.4
525.036	19.37
525.383	19.26
525.73	19.36
526.078	19.33
526.425	19.31
526.772	19.14
527.119	19
527.466	19.02
527.814	18.96
528.161	19.21
528.508	19.29
528.854	19.26
529.201	19.11
529.548	18.97
529.895	18.69
530.242	18.56
530.588	18.57
530.935	18.86
531.282	19.11
531.628	19.18
531.975	19.35
532.321	19.43
532.667	19.54
533.014	19.71
533.36	19.66
533.706	19.65
534.052	19.63
534.399	19.5
534.745	19.35
535.091	19.26
535.437	19.39
535.783	19.59
536.129	19.76
536.474	19.9
536.82	19.97
537.166	20.1
537.512	20.16
537.857	20.12
538.203	19.91
538.549	19.88
538.894	20.15
539.239	20.3
539.585	20.3
539.93	20.56
540.276	20.65
540.621	20.48
540.966	20.64
541.311	20.75
541.656	20.51
542.001	20.61
542.346	20.34
542.691	20.01
543.036	19.82
543.381	19.88
543.726	20.08
544.071	20.4
544.415	20.47
544.76	20.49
545.105	20.63
545.449	20.7
545.794	20.77
546.138	20.88
546.483	21.1
546.827	21.09
547.171	21.13
547.516	21.01
547.86	21.06
548.204	21.01
548.548	20.99
548.892	21.09
549.236	21.25
549.58	21.39
549.924	21.51
550.268	21.57
550.612	21.83
550.956	21.84
551.3	21.73
551.643	21.92
551.987	21.83
552.33	21.82
552.674	21.96
553.017	21.96
553.361	21.9
553.704	21.99
554.048	21.85
554.391	21.95
554.734	22.04
555.077	22.06
555.42	22.14
555.764	22.25
556.107	22.34
556.45	22.36
556.793	22.48
557.135	22.32
557.478	22.36
557.821	22.72
558.164	22.45
558.507	22.52
558.849	22.78
559.192	22.75
559.534	22.48
559.877	22.93
560.219	22.82
560.562	22.78
560.904	22.67
561.246	22.67
561.589	22.89
561.931	22.95
562.273	22.95
562.615	22.94
562.957	23
563.299	22.92
563.641	22.89
563.983	23.01
564.325	23.14
564.667	23.26
565.008	23.11
565.35	23.09
565.692	23.3
566.033	23.22
566.375	23.19
566.716	23.26
567.058	23.17
567.399	23.08
567.741	23.14
568.082	23.16
568.423	23.24
568.764	23.27
569.105	23.41
569.447	23.31
569.788	23.48
570.129	23.69
570.47	23.57
570.811	23.56
571.151	23.7
571.492	23.53
571.833	23.81
572.174	23.8
572.514	23.58
572.855	23.7
573.195	23.78
573.536	23.76
573.876	23.53
574.217	23.6
574.557	23.77
574.898	23.89
575.238	23.95
575.578	24.03
575.918	24
576.258	24.11
576.598	24.2
576.938	24.18
577.278	24.12
577.618	24.2
577.958	24.35
578.298	24.38
578.638	24.34
578.977	24.26
579.317	24.38
579.657	24.33
579.996	24.59
580.336	24.7
580.675	24.53
581.014	24.7
581.354	24.6
581.693	24.68
582.032	24.8
582.372	24.92
582.711	24.92
583.05	25.04
583.389	25.1
583.728	24.91
584.067	24.91
584.406	24.92
584.745	25.15
585.083	25.45
585.422	24.82
585.761	25.26
586.1	25.08
586.438	25.11
586.777	25.09
587.115	25.34
587.454	25.49
587.792	25.6
588.13	25.36
588.469	25.29
588.807	25.57
589.145	25.43
589.483	25.67
589.821	25.43
590.159	25.41
590.497	25.78
590.835	25.47
591.173	25.64
591.511	25.63
591.849	25.4
592.187	25.72
592.524	25.6
592.862	25.94
593.2	26.16
593.537	25.64
593.875	25.77
594.212	26.02
594.55	26.02
594.887	25.87
595.224	25.88
595.561	26.1
595.899	26.06
596.236	25.77
596.573	25.86
596.91	25.91
597.247	26.09
597.584	26.22
597.921	26
598.258	26.17
598.594	25.92
598.931	25.97
599.268	25.99
599.604	26.3
599.941	26.11
600.277	26.14
600.614	26.7
600.95	26.64
601.287	26.65
601.623	26.62
601.959	26.52
602.296	26.48
602.632	26.69
602.968	26.55
603.304	26.88
603.64	26.61
603.976	26.77
604.312	26.78
604.648	26.45
604.984	26.57
605.319	26.64
605.655	26.61
605.991	26.6
606.326	26.57
606.662	26.53
606.998	26.74
607.333	26.85
607.668	26.96
608.004	27.02
608.339	27.21
608.674	27.22
609.01	27.04
609.345	27.07
609.68	27.51
610.015	27.18
610.35	27.34
610.685	27.17
611.02	27.12
611.355	26.99
611.689	27.45
612.024	27.22
612.359	27.19
612.694	27.47
613.028	27.65
613.363	27.44
613.697	27.82
614.032	27.81
614.366	27.29
614.7	27.47
615.035	28.03
615.369	27.86
615.703	27.91
616.037	28.04
616.371	27.95
616.705	28.31
617.039	27.98
617.373	28.31
617.707	28.45
618.041	28.33
618.375	28.6
618.709	28.21
619.042	28.36
619.376	28.25
619.71	28.45
620.043	28.2
620.377	28.41
620.71	28.62
621.043	28.79
621.377	27.88
621.71	28.61
622.043	28.37
622.376	28.34
622.709	28.37
623.043	28.49
623.376	28.73
623.709	28.55
624.041	28.41
624.374	28.68
624.707	28.54
625.04	28.46
625.373	28.86
625.705	28.72
626.038	28.4
626.37	28.78
626.703	28.79
627.035	28.63
627.368	28.59
627.7	28.55
628.032	28.99
628.365	28.82
628.697	29
629.029	28.59
629.361	29.05
629.693	28.96
630.025	28.83
630.357	28.99
630.689	29.18
631.021	28.92
631.353	28.82
631.684	29.24
632.016	29.45
632.348	29.22
632.679	29.5
633.011	29.22
633.342	29.36
633.674	29.28
634.005	29.93
634.336	29.36
634.668	29.43
634.999	29.69
635.33	29.49
635.661	29.77
635.992	29.3
636.323	29.78
636.654	29.79
636.985	29.26
637.316	29.59
637.647	29.7
637.977	29.57
638.308	29.67
638.639	29.63
638.969	29.77
639.3	29.78
639.63	29.71
639.961	29.76
640.291	30.28
640.622	30.05
640.952	29.88
641.282	30.06
641.612	30.79
641.943	30.49
642.273	30.61
642.603	30.28
642.933	29.79
643.263	30.28
643.592	30.69
643.922	30.71
644.252	30.5
644.582	30.32
644.911	30.54
645.241	30.86
645.571	30.59
645.9	30.63
646.23	30.4
646.559	30.28
646.888	30.74
647.218	30.46
647.547	30.93
647.876	30.7
648.205	30.68
648.534	30.6
648.863	30.9
649.192	30.69
649.521	30.54
649.85	30.79
650.179	30.81
650.508	30.87
650.837	31.31
651.165	30.97
651.494	31.05
651.822	31.16
652.151	30.92
652.479	31.58
652.808	31.17
653.136	31.14
653.465	31.31
653.793	30.99
654.121	30.9
654.449	31.22
654.777	31.19
655.105	31.34
655.433	31.24
655.761	30.87
656.089	31.03
656.417	31.66
656.745	31.73
657.073	31.86
657.4	31.6
657.728	31.34
658.056	31.56
658.383	31.5
658.711	31.53
659.038	31.88
659.365	31.17
659.693	30.68
660.02	31.63
660.347	31.66
660.674	31.44
661.001	31.42
661.329	31.66
661.656	31.9
661.982	31.48
662.309	31.81
662.636	32.04
662.963	31.7
663.29	31.87
663.616	31.89
663.943	32.34
664.27	32.01
664.596	32.28
664.923	32.15
665.249	32.37
665.576	32.01
665.902	31.96
666.228	31.64
666.554	31.68
666.881	32.28
667.207	31.7
667.533	31.98
667.859	31.94
668.185	32.18
668.511	32.49
668.837	31.82
669.162	32.09
669.488	31.81
669.814	31.65
670.139	32.29
670.465	32.24
670.791	31.87
671.116	31.89
671.442	32.67
671.767	32.15
672.092	31.98
672.418	32.31
672.743	32.7
673.068	32.52
673.393	32.44
673.718	32.48
674.043	32.54
674.368	32.56
674.693	32.72
675.018	32.83
675.343	32.8
675.667	32.78
675.992	32.97
676.317	32.96
676.641	32.75
676.966	32.43
677.29	32.65
677.615	32.69
677.939	33.4
678.264	32.75
678.588	33.12
678.912	33.09
679.236	33.26
679.56	32.79
679.885	33.16
680.209	32.95
680.532	33.14
680.856	33.1
681.18	33.42
681.504	33.1
681.828	33.18
682.152	33.21
682.475	33.15
682.799	33.03
683.122	33.37
683.446	33.62
683.769	33.31
684.093	33.12
684.416	33.59
684.739	33.35
685.062	33.66
685.386	33.35
685.709	33.6
686.032	33.85
686.355	33.22
686.678	33.77
687.001	33.9
687.324	33.32
687.646	33.67
687.969	33.35
688.292	33.55
688.614	33.57
688.937	33.34
689.26	33.41
689.582	34.28
689.904	34.19
690.227	33.89
690.549	33.97
690.871	33.69
691.194	34.32
691.516	34.09
691.838	33.06
692.16	34.35
692.482	33.63
692.804	34.42
693.126	34.09
693.448	34.31
693.769	34.18
694.091	33.99
694.413	34.35
694.735	33.87
695.056	34.69
695.378	34.33
695.699	34.43
696.021	35.09
696.342	34.18
696.663	34.66
696.984	33.64
697.306	34.11
697.627	34.23
697.948	34.75
698.269	34.54
698.59	34.26
698.911	34.91
699.232	34.89
699.553	33.9
699.873	34.38
700.194	33.7
700.515	34.08
700.835	34.12
701.156	34.37
701.477	34.97
701.797	34.63
702.117	34.73
702.438	34.65
702.758	34.86
703.078	35.52
703.398	35.2
703.719	34.88
704.039	34.56
704.359	34.72
704.679	33.81
704.999	34.82
705.319	35
705.638	36
705.958	33.68
706.278	35.54
706.597	35.46
706.917	34.74
707.237	35.63
707.556	34.85
707.876	35.25
708.195	35.55
708.514	33.72
708.834	35.29
709.153	35.72
709.472	34.85
709.791	35.3
710.11	34.8
710.429	34.44
710.748	35.39
711.067	35.8
711.386	34.89
711.705	35.6
712.023	35.02
712.342	35.64
712.661	35.12
712.979	35.91
713.298	34.88
713.616	35.57
713.935	35.51
714.253	35.33
714.572	35.23
714.89	35.81
715.208	35.01
715.526	35.59
715.844	34.59
716.162	35.99
716.48	34.85
716.798	35.99
717.116	35.84
717.434	34.83
717.752	36.04
718.069	36.6
718.387	36.23
718.705	34.73
719.022	35.93
719.34	35.15
719.657	35.12
719.975	35.6
720.292	35.76
720.609	35.67
720.927	35.97
721.244	36.98
721.561	36.17
721.878	36.45
722.195	35.66
722.512	36.77
722.829	35.77
723.146	35.89
723.463	36.14
723.779	36.32
724.096	35.25
724.413	36.1
724.729	35.69
725.046	35.99
725.362	36.1
725.679	34.54
725.995	35.84
726.311	37.01
726.628	35.48
726.944	35.87
727.26	37.21
727.576	36.76
727.892	35.82
728.208	36.51
728.524	35.68
728.84	35.35
729.156	36.71
729.472	35.2
729.787	36.89
730.103	36.54
730.419	37.08
730.734	36.02
731.05	36.29
731.365	36.09
731.681	35.59
731.996	35.36
732.311	37.04
732.626	36.37
732.942	36.75
733.257	36.9
733.572	37.29
733.887	37.28
734.202	36.88
734.517	36.88
734.832	36.18
735.146	37.12
735.461	34.86
735.776	36.43
736.091	37.63
736.405	37.74
736.72	37.86
737.034	36.75
737.349	37.37
737.663	36.82
737.977	37.77
738.292	36.18
738.606	38.07
738.92	36.81
739.234	37.4
739.548	36.86
739.862	36.41
740.176	36.65
740.49	36.14
740.804	36.69
741.117	38.01
741.431	37.52
741.745	37.48
742.058	36.54
742.372	35.78
742.685	36.4
742.999	36.98
743.312	36.88
743.626	38.02
743.939	37.16
744.252	34.83
744.565	37.78
744.878	37.87
745.191	37.74
745.505	37.93
745.817	36.7
746.13	37.98
746.443	38.37
746.756	35.82
747.069	37.5
747.381	38.82
747.694	37.76
748.007	36.66
748.319	37.41
748.632	38.36
748.944	38.1
749.256	38.2
749.569	36.73
749.881	38.86
750.193	38.39
750.505	36.55
750.817	37.19
751.129	37.4
751.441	38.15
751.753	37.45
752.065	39.09
752.377	37.69
752.689	36.07
753	38.13
753.312	38.31
753.624	37.97
753.935	38.89
754.247	36.97
754.558	37.43
754.869	36.24
755.181	38.18
755.492	36.92
755.803	36.43
756.114	38.21
756.425	39.29
756.736	38.11
757.047	37.66
757.358	37.52
757.669	39.73
757.98	37.87
758.291	37.35
758.601	38.68
758.912	37.94
759.223	39.03
759.533	37.88
759.844	38.7
760.154	38.73
760.464	38.6
760.775	36.22
761.085	38.44
761.395	37.8
761.705	39.54
762.016	38.28
762.326	37.71
762.636	38.04
762.945	38.1
763.255	37.66
763.565	36.74
763.875	39.49
764.185	38.82
764.494	37.79
764.804	37.65
765.113	37.92
765.423	38.8
765.732	38.13
766.042	38.63
766.351	38.08
766.66	38.82
766.97	36.86
767.279	37.64
767.588	38.64
767.897	38.91
768.206	38.76
768.515	38.31
768.824	37.09
769.133	39.41
769.441	38.46
769.75	35.92
770.059	39.15
770.367	39.18
770.676	37.14
770.984	39.96
771.293	37.99
771.601	37.53
771.91	36.9
772.218	39.73
772.526	39.51
772.834	38.35
773.142	39.2
773.45	36.62
773.758	38.39
774.066	38.89
774.374	39.35
774.682	39.27
774.99	38.88
775.298	40.56
775.605	36.95
775.913	40.73
776.22	39.17
776.528	39.43
776.835	39.91
777.143	36.91
777.45	36.88
777.757	38.3
778.065	37.54
778.372	37.95
778.679	39.21
778.986	36.27
779.293	39.29
779.6	38.71
779.907	39.22
780.214	40.17
780.52	38.4
780.827	40.06
781.134	37.61
781.44	40.1
781.747	41.62
782.053	41.72
782.36	39.77
782.666	41.74
782.973	36.26
783.279	33.68
783.585	39.77
783.891	39.55
784.197	37.92
784.503	38.27
784.809	38.74
785.115	39.02
785.421	40.1
785.727	38.22
786.033	37.6
786.339	40.26
786.644	37.93
786.95	38.99
787.255	39.93
787.561	41.26
787.866	39.68
788.172	41.25
788.477	39.04
788.782	35.97
789.088	40.64
789.393	43.56
789.698	37.83
790.003	39.94
790.308	41.41
790.613	38.43
790.918	39.31
791.223	40.85
791.527	38.96
791.832	39.4
792.137	39.9
792.441	40.91
792.746	42.12
793.05	41.46
793.355	39.35
793.659	40.49
793.963	41.81
794.268	39.01
794.572	40.4
794.876	40.03
795.18	39.98
795.484	42.19
795.788	39.4
796.092	41.6
796.396	39.43
796.7	42.26
797.004	41.89
797.307	41.11
797.611	41.82
797.915	41.59
798.218	42.59
798.522	43.06
798.825	37.18
799.128	41.86
799.432	44.09
799.735	39.64
800.038	41.61
800.341	42.3
800.644	42.81
800.947	41.62
801.25	39.88
801.553	38.44
801.856	39.25
802.159	41.72
802.462	38.47
802.764	41.92
803.067	42.48
803.37	40.19
803.672	36.79
803.975	41.84
804.277	32.53
804.579	42.01
804.882	37.74
805.184	39.16
805.486	40.62
805.788	41.3
806.09	41.39
806.392	39.53
806.694	37.24
806.996	45.19
807.298	43.1
807.6	39.66
807.902	40.75
808.203	36.92
808.505	37.85
808.807	42.37
809.108	36.62
809.409	40.02
809.711	38.07
810.012	38.96
810.313	38.31
810.615	37.98
810.916	41.73
811.217	42.78
811.518	38.27
811.819	36.41
812.12	43.09
812.421	37.15
812.722	43.6
813.023	36.01
813.323	33.84
813.624	41.21
813.925	39.55
814.225	44.62
814.526	45.39
814.826	42.96
815.126	35.8
815.427	41.11
815.727	36.99
816.027	42.25
816.327	36.11
816.627	33.53
816.927	37.34
817.227	39.71
817.527	37.81
817.827	36.29
818.127	42.38
818.427	32.68
818.727	37.01
819.026	35.97
819.326	39.43
819.625	42.73
819.925	40.09
820.224	42.06
820.524	35.17
820.823	44.84
821.122	39.43
821.421	41.22
821.72	40.98
822.019	38.24
822.318	39.84
822.617	35.37
822.916	41.83
823.215	37.92
823.514	40.54
823.813	41.15
824.111	40.05
824.41	39.56
824.709	41.21
825.007	41.54
825.306	41.78
825.604	41.72
825.902	41.26
826.201	41.37
826.499	41.49
826.797	41.31
827.095	41.86
827.393	42.03
827.691	41.41
827.989	40.11
828.287	42.65
828.585	39.69
828.882	38.28
829.18	39.43
829.478	42.48
829.775	40.81
830.073	38.58
830.37	41.18
830.668	41.95
830.965	41.16
831.263	42.57
831.56	42.91
831.857	41.17
832.154	42.1
832.451	42.7
832.748	38.6
833.045	37.64
833.342	41.25
833.639	41.58
833.936	42.98
834.232	39.33
834.529	40.95
834.826	41.52
835.122	42.53
835.419	44.75
835.715	39.43
836.012	38.77
836.308	39.87
836.604	40.75
836.901	44.57
837.197	43.76
837.493	41.82
837.789	37.47
838.085	43.48
838.381	41.03
838.677	45.82
838.972	40.98
839.268	42.71
839.564	39.42
839.86	41.11
840.155	38.69
840.451	37.36
840.746	39.69
841.042	44.76
841.337	39.77
841.632	40.44
841.928	44.77
842.223	48.15
842.518	43.2
842.813	36.95
843.108	40.77
843.403	43.8
843.698	32.79
843.993	37
844.287	38.47
844.582	46.31
844.877	38.35
845.171	46.55
845.466	39.63
845.761	35.89
846.055	46.19
846.349	39.91
846.644	45.19
846.938	31.15
847.232	44.98
847.526	39.55
847.82	25.39
848.114	42.99
848.408	39.74
848.702	22.94
848.996	45.96
849.29	45.94
849.584	39.79
849.877	54.4
850.171	31.26
850.465	38.91
850.758	34.12
851.052	35.13
851.345	46.01
851.638	42.44
851.932	56.78
852.225	32.03
852.518	52.14
852.811	33.91
853.104	43.47
853.397	36.96
853.69	45.53
853.983	34.06
854.276	38.11
854.569	47.86
854.861	52.69
855.154	44.41
855.447	41.59
855.739	37.5
856.032	50.01
856.324	38.39
856.616	41.42
856.909	34.56
857.201	47.11
857.493	53.14
857.785	18.07
858.077	45.02
858.369	41.34
858.661	37.43
858.953	59.77
859.245	25.09
859.537	28.01
859.829	30.96
860.12	31.19
860.412	30.45
860.703	40.91
860.995	38.27
861.286	6.95
861.578	33.6
861.869	16.22
862.16	17.91
862.452	27.15
862.743	15.4
863.034	43.53
863.325	49.56
863.616	25.54
863.907	31.74
864.198	44.87
864.488	21.3
864.779	42.08
865.07	48.85
865.36	31.46
865.651	51.68
865.941	61.2
866.232	39.49
866.522	32.88
866.813	14.39
867.103	44.88
867.393	28.76
867.683	34.49
867.973	27.8
868.263	38.97
868.553	20.21
868.843	27.99
869.133	50.72
869.423	41.93
869.713	19.56
870.002	36.91
870.292	21.32
870.582	34.79
870.871	30.12
871.161	55.56
871.45	24.59
871.739	38.57
872.029	29.68
872.318	41.38
872.607	24.87
872.896	32.61
873.185	32.5
873.474	27.97
873.763	38.94
874.052	39.27
874.341	42.25
874.63	55.47
874.918	39.08
875.207	21.83
875.496	52.76
875.784	57.08
876.073	36.66
876.361	8.18
876.649	32.93
876.938	23.59
877.226	38.25
877.514	56.76
877.802	32.04
878.09	47.02
878.378	51.7
878.666	43.12
878.954	22.62
879.242	20.17
879.53	41.58
879.817	49.24
880.105	56.35
880.392	8.13
880.68	29.86
880.967	35.6
881.255	48.34
881.542	38
881.83	40.23
882.117	43.72
882.404	48.07
882.691	41.59
882.978	44.14
883.265	37.58
883.552	32.69
883.839	32.03
884.126	33.15
884.413	39.85
884.699	33.14
884.986	52.66
885.273	38.86
885.559	38.86
885.846	38.86
