Data from 1610-3_chest_Reflection__3__129.txt Node

Date: Fri Nov 11 17:07:40 CST 2022
User: ToomeyLab
Spectrometer: FLMS14357
Trigger mode: 0
Integration Time (sec): 1.000000E-2
Scans to average: 100
Electric dark correction enabled: true
Nonlinearity correction enabled: false
Boxcar width: 0
XAxis mode: Wavelengths
Number of Pixels in Spectrum: 2048
>>>>>Begin Spectral Data<<<<<
189.047	-88.39
189.435	-88.39
189.823	-88.39
190.211	-75.48
190.599	102.92
190.987	-778.79
191.375	-13.58
191.763	74.89
192.151	-246.99
192.538	-78.81
192.926	-48.74
193.314	97.45
193.702	5.52
194.089	-374.95
194.477	-232.11
194.864	34.5
195.252	99.09
195.639	65.83
196.027	59.98
196.414	115.26
196.801	52.09
197.189	125.22
197.576	-165.2
197.963	49.92
198.351	53.68
198.738	-43.35
199.125	11.62
199.512	22.19
199.899	11.44
200.286	30.67
200.673	23.7
201.06	-29.29
201.447	46.09
201.833	23.39
202.22	7.68
202.607	10.94
202.994	13.58
203.38	-11.16
203.767	13.33
204.154	-9.25
204.54	32.49
204.927	-9.52
205.313	21.48
205.699	21.23
206.086	6.47
206.472	31.86
206.858	24.64
207.245	1.76
207.631	44.45
208.017	-11.3
208.403	3.16
208.789	-33.28
209.175	11.95
209.561	15.94
209.947	14.54
210.333	-24.51
210.719	2.16
211.105	14.23
211.491	-124.27
211.876	15.97
212.262	-25.04
212.648	-12.09
213.034	14.93
213.419	21.88
213.805	17.38
214.19	-5.19
214.576	26.1
214.961	-10.53
215.346	-42.97
215.732	-43.17
216.117	28.47
216.502	28.3
216.888	16.83
217.273	-9.36
217.658	-26.09
218.043	-10.93
218.428	-39.45
218.813	14.26
219.198	-26.02
219.583	-17.56
219.968	10.11
220.353	-7.99
220.738	10.05
221.122	-2.89
221.507	18.99
221.892	8.18
222.276	16.11
222.661	5.22
223.046	17.24
223.43	4.33
223.815	6.34
224.199	11.74
224.583	12.94
224.968	12
225.352	2.69
225.736	11
226.121	3.92
226.505	4.12
226.889	6.99
227.273	9.17
227.657	-3.07
228.041	4.66
228.425	9.95
228.809	12.72
229.193	4.71
229.577	7.13
229.961	5.02
230.344	5.23
230.728	5.61
231.112	5.88
231.495	6.21
231.879	3.67
232.263	3.18
232.646	4.59
233.03	4.98
233.413	4.66
233.797	4.71
234.18	6.23
234.563	6.18
234.946	3.46
235.33	6.27
235.713	4.18
236.096	3.79
236.479	5.26
236.862	4.38
237.245	3.43
237.628	4.34
238.011	4.11
238.394	6.8
238.777	6.52
239.16	3.63
239.543	4.43
239.925	6.39
240.308	2.87
240.691	4.12
241.073	4.91
241.456	3.43
241.838	6.15
242.221	4.73
242.603	3.73
242.986	4.96
243.368	4.3
243.75	5.09
244.133	5.25
244.515	5.05
244.897	4.93
245.279	4.63
245.661	4.92
246.043	3.78
246.425	5.29
246.807	4.48
247.189	4
247.571	3.87
247.953	4.76
248.335	5.05
248.717	4.68
249.098	4.65
249.48	4.67
249.862	4.34
250.243	4.53
250.625	5.03
251.006	5.72
251.388	4.05
251.769	4.53
252.151	5.1
252.532	4.67
252.913	4.11
253.295	4.86
253.676	4.46
254.057	4.62
254.438	4.58
254.819	4.32
255.2	4.79
255.581	5.1
255.962	4.53
256.343	4.83
256.724	4.12
257.105	4.23
257.486	4.69
257.867	4.6
258.247	5.19
258.628	3.56
259.009	4.63
259.389	4.93
259.77	4.78
260.15	4.93
260.531	4.02
260.911	4.32
261.292	4.35
261.672	4.15
262.052	4.13
262.432	4.72
262.813	4.27
263.193	3.85
263.573	4.75
263.953	4.41
264.333	5.14
264.713	3.51
265.093	5.23
265.473	5.69
265.853	3.82
266.233	4.06
266.612	3.59
266.992	4.74
267.372	4.57
267.752	4.52
268.131	4.66
268.511	4.43
268.89	4.67
269.27	4.31
269.649	3.8
270.029	3.77
270.408	3.72
270.787	5.16
271.167	4.35
271.546	4.64
271.925	5.09
272.304	4.25
272.683	4.25
273.062	4.42
273.441	4.21
273.82	3.96
274.199	4.3
274.578	4.57
274.957	3.87
275.336	4.39
275.715	4.18
276.093	4.48
276.472	4.42
276.851	4.63
277.229	4.02
277.608	4.25
277.986	4.24
278.365	4.9
278.743	3.59
279.122	3.81
279.5	3.76
279.878	3.84
280.257	4.73
280.635	4.43
281.013	4.33
281.391	4.27
281.769	5.48
282.147	3.79
282.525	4.06
282.903	4.07
283.281	4.12
283.659	3.97
284.037	4.13
284.415	3.61
284.792	4.08
285.17	4.12
285.548	4.39
285.925	4.38
286.303	4.26
286.68	4.08
287.058	4.18
287.435	4.44
287.813	4.03
288.19	4.02
288.567	4.02
288.945	3.81
289.322	4.05
289.699	4.42
290.076	3.97
290.453	3.64
290.83	4.33
291.207	4.06
291.584	4.24
291.961	4.43
292.338	4.43
292.715	3.98
293.092	3.54
293.469	4.22
293.845	4.43
294.222	4.67
294.599	4.41
294.975	4.01
295.352	4.04
295.728	4.16
296.105	4.13
296.481	3.75
296.858	4.31
297.234	3.77
297.61	4.04
297.986	3.29
298.363	4.01
298.739	4.55
299.115	4.02
299.491	4.09
299.867	3.83
300.243	3.72
300.619	4.18
300.995	3.79
301.371	3.81
301.746	4.25
302.122	4
302.498	3.78
302.874	4.1
303.249	4.22
303.625	4.07
304	3.69
304.376	4.35
304.751	4.32
305.127	4.29
305.502	4.23
305.878	4.32
306.253	4.25
306.628	4.5
307.003	3.85
307.378	4.07
307.754	4.03
308.129	4.02
308.504	3.82
308.879	3.87
309.254	3.66
309.629	4.13
310.003	3.9
310.378	3.39
310.753	3.99
311.128	4.33
311.502	3.47
311.877	4.54
312.252	3.71
312.626	3.69
313.001	3.96
313.375	4.29
313.75	4.08
314.124	3.97
314.498	4.51
314.873	3.73
315.247	3.99
315.621	3.16
315.995	4.06
316.369	4.28
316.743	3.99
317.117	3.77
317.491	3.79
317.865	3.53
318.239	4.17
318.613	4.12
318.987	4.37
319.361	3.82
319.734	3.57
320.108	4.14
320.482	3.17
320.855	3.69
321.229	4.13
321.602	3.96
321.976	3.59
322.349	4
322.723	4.1
323.096	4.51
323.469	4.05
323.843	3.89
324.216	4
324.589	3.89
324.962	3.91
325.335	3.97
325.708	3.6
326.081	3.7
326.454	3.68
326.827	3.77
327.2	3.88
327.573	4.04
327.945	3.94
328.318	4.38
328.691	3.98
329.063	4
329.436	3.92
329.809	3.56
330.181	3.94
330.553	4.02
330.926	3.63
331.298	3.64
331.671	4.22
332.043	4.13
332.415	3.94
332.787	3.72
333.159	4.22
333.532	3.6
333.904	3.81
334.276	3.71
334.648	3.47
335.02	4.12
335.391	3.71
335.763	3.94
336.135	3.68
336.507	4.09
336.879	3.72
337.25	3.52
337.622	4.27
337.993	4.24
338.365	3.59
338.736	3.72
339.108	3.52
339.479	3.79
339.851	3.26
340.222	3.32
340.593	3.51
340.964	3.66
341.336	3.41
341.707	3.83
342.078	3.54
342.449	3.93
342.82	3.21
343.191	4.49
343.562	3.87
343.933	3.27
344.303	4.02
344.674	3.95
345.045	3.62
345.416	3.7
345.786	3.47
346.157	3.63
346.527	4.3
346.898	3.43
347.268	3.48
347.639	4.15
348.009	4.05
348.38	3.6
348.75	3.95
349.12	3.86
349.49	4.04
349.861	3.19
350.231	3.77
350.601	4.07
350.971	4.09
351.341	3.87
351.711	3.84
352.081	3.58
352.45	3.75
352.82	3.92
353.19	3.73
353.56	4.11
353.929	3.94
354.299	3.79
354.669	3.75
355.038	3.95
355.408	3.49
355.777	3.9
356.147	3.98
356.516	4.23
356.885	3.86
357.254	3.97
357.624	4.02
357.993	3.98
358.362	3.98
358.731	3.66
359.1	3.88
359.469	3.97
359.838	4.11
360.207	3.9
360.576	3.72
360.945	4.01
361.314	3.91
361.682	3.91
362.051	3.92
362.42	3.7
362.788	3.76
363.157	3.99
363.525	3.9
363.894	4.06
364.262	3.74
364.631	3.78
364.999	3.93
365.367	4.2
365.735	4.09
366.104	3.57
366.472	3.87
366.84	3.99
367.208	3.76
367.576	4.04
367.944	4.18
368.312	4.01
368.68	3.89
369.048	3.66
369.416	3.5
369.783	3.78
370.151	3.83
370.519	4.04
370.886	3.95
371.254	3.9
371.621	4.09
371.989	3.75
372.356	3.83
372.724	4.12
373.091	3.86
373.458	3.74
373.826	4.11
374.193	4.15
374.56	3.71
374.927	3.71
375.294	3.72
375.661	4.53
376.028	3.92
376.395	3.81
376.762	3.64
377.129	4.16
377.496	3.95
377.863	4.09
378.229	3.97
378.596	3.95
378.963	3.63
379.329	3.78
379.696	3.7
380.062	3.93
380.429	3.91
380.795	3.75
381.161	3.94
381.528	4.11
381.894	4.1
382.26	3.65
382.626	3.96
382.993	4.05
383.359	4
383.725	4.24
384.091	3.86
384.457	3.97
384.823	3.78
385.188	3.82
385.554	4.18
385.92	3.99
386.286	3.93
386.651	3.79
387.017	3.91
387.383	3.91
387.748	3.87
388.114	3.74
388.479	3.85
388.845	3.96
389.21	4.1
389.575	3.73
389.94	4.01
390.306	3.78
390.671	3.77
391.036	4.13
391.401	3.83
391.766	3.86
392.131	3.51
392.496	3.92
392.861	3.79
393.226	3.77
393.591	3.73
393.956	3.92
394.32	3.96
394.685	4.11
395.05	4.04
395.414	4.19
395.779	3.86
396.143	4.11
396.508	4.06
396.872	4.08
397.236	3.8
397.601	4.05
397.965	3.98
398.329	4.08
398.694	3.73
399.058	3.82
399.422	3.87
399.786	4.05
400.15	3.89
400.514	3.95
400.878	3.96
401.242	4.11
401.605	4.01
401.969	4.21
402.333	3.91
402.697	4.03
403.06	4.09
403.424	3.89
403.787	3.88
404.151	3.93
404.514	3.85
404.878	4.15
405.241	3.8
405.604	3.92
405.968	4.09
406.331	3.84
406.694	4.01
407.057	3.75
407.42	3.92
407.783	4
408.146	4.13
408.509	4.01
408.872	4.09
409.235	4
409.598	3.8
409.961	4
410.323	3.97
410.686	4.14
411.049	4.01
411.411	4
411.774	3.91
412.136	3.92
412.499	4.18
412.861	3.88
413.223	3.81
413.586	3.89
413.948	3.97
414.31	3.94
414.672	3.96
415.035	4.21
415.397	3.98
415.759	3.94
416.121	4.12
416.483	3.86
416.845	4.01
417.206	4.02
417.568	3.96
417.93	4.06
418.292	3.91
418.653	3.9
419.015	3.87
419.377	4.08
419.738	4.19
420.1	3.95
420.461	3.93
420.822	3.82
421.184	3.79
421.545	3.89
421.906	3.93
422.267	4
422.629	3.91
422.99	3.89
423.351	3.85
423.712	3.88
424.073	3.87
424.434	3.87
424.795	3.94
425.155	4.04
425.516	3.95
425.877	3.94
426.238	3.88
426.598	3.93
426.959	3.88
427.32	3.95
427.68	3.92
428.041	4.13
428.401	3.76
428.761	3.95
429.122	3.93
429.482	4.04
429.842	4.18
430.202	4.09
430.563	3.96
430.923	4.15
431.283	4.05
431.643	4.04
432.003	4.03
432.363	4.03
432.722	4.08
433.082	4.01
433.442	4.13
433.802	4.05
434.161	4.16
434.521	4.07
434.881	3.89
435.24	4
435.6	3.96
435.959	4.06
436.319	3.83
436.678	3.97
437.037	3.99
437.396	3.78
437.756	3.89
438.115	3.9
438.474	3.97
438.833	3.9
439.192	4.15
439.551	4.04
439.91	4.18
440.269	3.99
440.628	3.9
440.987	4.17
441.345	3.94
441.704	3.98
442.063	4.14
442.421	3.91
442.78	4.01
443.138	3.88
443.497	3.96
443.855	3.88
444.214	3.94
444.572	4.04
444.93	4.1
445.288	4.04
445.647	3.8
446.005	4.03
446.363	3.95
446.721	3.8
447.079	4.01
447.437	4.02
447.795	3.9
448.153	3.98
448.51	4.01
448.868	3.98
449.226	4.04
449.584	3.99
449.941	3.86
450.299	3.97
450.656	4.01
451.014	3.92
451.371	3.91
451.729	3.88
452.086	3.97
452.443	4.12
452.801	4.09
453.158	4.02
453.515	3.92
453.872	4.01
454.229	4.02
454.586	4.01
454.943	3.95
455.3	3.91
455.657	4.06
456.014	3.98
456.371	3.98
456.727	4.11
457.084	4.04
457.441	3.96
457.797	4.02
458.154	4.01
458.51	3.95
458.867	4.09
459.223	4.14
459.58	4.11
459.936	4
460.292	4.02
460.648	4.07
461.005	4.11
461.361	4.04
461.717	4.02
462.073	4.04
462.429	4.06
462.785	3.92
463.141	4.08
463.496	4.02
463.852	4.05
464.208	4.07
464.564	4.22
464.919	4.03
465.275	4.04
465.631	4.15
465.986	3.98
466.342	4.22
466.697	4.14
467.052	4.18
467.408	4.03
467.763	4.06
468.118	4.02
468.473	4.07
468.829	4.13
469.184	4.05
469.539	4.06
469.894	4.03
470.249	3.93
470.603	4.01
470.958	4.19
471.313	4.2
471.668	4.07
472.023	4.25
472.377	4.28
472.732	4.17
473.086	4.15
473.441	4.21
473.795	4.18
474.15	4.04
474.504	4.19
474.859	4.31
475.213	4.13
475.567	4.24
475.921	4.27
476.275	4.26
476.63	4.19
476.984	4.26
477.338	4.09
477.692	4.14
478.045	4.14
478.399	4.04
478.753	4.11
479.107	4.04
479.461	4.21
479.814	4.2
480.168	4.14
480.521	4.18
480.875	4.18
481.228	4.11
481.582	4.14
481.935	4.31
482.289	4.32
482.642	4.22
482.995	4.12
483.348	4.04
483.701	4.19
484.055	4.1
484.408	4.08
484.761	3.94
485.114	3.98
485.466	3.9
485.819	3.89
486.172	3.89
486.525	3.9
486.878	3.94
487.23	4.01
487.583	4.02
487.936	4.05
488.288	4.01
488.641	4.02
488.993	4
489.345	3.92
489.698	3.95
490.05	3.92
490.402	3.98
490.754	4.07
491.107	4.02
491.459	4.11
491.811	4.06
492.163	4.13
492.515	4.07
492.866	4.01
493.218	3.95
493.57	3.97
493.922	4.08
494.274	4.08
494.625	3.99
494.977	4.03
495.328	4.15
495.68	4.09
496.031	4.15
496.383	4.33
496.734	4.22
497.086	4.2
497.437	4.17
497.788	4.21
498.139	4.13
498.49	4.22
498.842	4.16
499.193	4.15
499.544	4.24
499.894	4.26
500.245	4.15
500.596	4.26
500.947	4.16
501.298	4.32
501.648	4.31
501.999	4.31
502.35	4.2
502.7	4.4
503.051	4.23
503.401	4.25
503.752	4.17
504.102	4.19
504.452	4.34
504.803	4.3
505.153	4.35
505.503	4.35
505.853	4.38
506.203	4.33
506.553	4.4
506.903	4.16
507.253	4.28
507.603	4.26
507.953	4.37
508.303	4.29
508.652	4.33
509.002	4.33
509.352	4.46
509.701	4.34
510.051	4.28
510.4	4.29
510.75	4.3
511.099	4.25
511.449	4.33
511.798	4.33
512.147	4.35
512.496	4.38
512.846	4.24
513.195	4.21
513.544	4.27
513.893	4.33
514.242	4.34
514.591	4.28
514.939	4.35
515.288	4.42
515.637	4.32
515.986	4.44
516.334	4.37
516.683	4.39
517.032	4.35
517.38	4.4
517.729	4.37
518.077	4.35
518.426	4.44
518.774	4.35
519.122	4.34
519.47	4.3
519.819	4.37
520.167	4.3
520.515	4.4
520.863	4.33
521.211	4.32
521.559	4.29
521.907	4.42
522.255	4.45
522.602	4.41
522.95	4.44
523.298	4.38
523.645	4.41
523.993	4.46
524.341	4.43
524.688	4.49
525.036	4.44
525.383	4.5
525.73	4.49
526.078	4.43
526.425	4.37
526.772	4.45
527.119	4.51
527.466	4.35
527.814	4.27
528.161	4.35
528.508	4.37
528.854	4.4
529.201	4.46
529.548	4.33
529.895	4.29
530.242	4.29
530.588	4.23
530.935	4.23
531.282	4.34
531.628	4.27
531.975	4.32
532.321	4.34
532.667	4.46
533.014	4.39
533.36	4.44
533.706	4.45
534.052	4.39
534.399	4.38
534.745	4.41
535.091	4.37
535.437	4.4
535.783	4.36
536.129	4.41
536.474	4.55
536.82	4.45
537.166	4.52
537.512	4.55
537.857	4.58
538.203	4.5
538.549	4.51
538.894	4.52
539.239	4.54
539.585	4.48
539.93	4.64
540.276	4.53
540.621	4.59
540.966	4.58
541.311	4.63
541.656	4.53
542.001	4.71
542.346	4.66
542.691	4.53
543.036	4.49
543.381	4.45
543.726	4.48
544.071	4.5
544.415	4.56
544.76	4.54
545.105	4.65
545.449	4.62
545.794	4.6
546.138	4.7
546.483	4.69
546.827	4.65
547.171	4.64
547.516	4.53
547.86	4.66
548.204	4.72
548.548	4.7
548.892	4.75
549.236	4.77
549.58	4.83
549.924	4.78
550.268	4.95
550.612	4.84
550.956	4.88
551.3	4.95
551.643	4.9
551.987	4.8
552.33	4.87
552.674	4.83
553.017	4.95
553.361	4.89
553.704	5.04
554.048	4.86
554.391	4.93
554.734	4.85
555.077	4.94
555.42	4.85
555.764	4.91
556.107	4.91
556.45	4.84
556.793	4.98
557.135	5.05
557.478	4.96
557.821	5.03
558.164	5.11
558.507	5.02
558.849	5.05
559.192	5.04
559.534	5.02
559.877	5.24
560.219	5.07
560.562	5.1
560.904	4.94
561.246	5
561.589	5.28
561.931	5.06
562.273	5.13
562.615	5.11
562.957	5.12
563.299	5.14
563.641	5
563.983	4.96
564.325	5.18
564.667	5.2
565.008	5.04
565.35	5.27
565.692	5.13
566.033	5.25
566.375	5.4
566.716	5.25
567.058	5.16
567.399	5.19
567.741	5.27
568.082	5.16
568.423	5.43
568.764	5.32
569.105	5.37
569.447	5.31
569.788	5.38
570.129	5.45
570.47	5.34
570.811	5.4
571.151	5.22
571.492	5.47
571.833	5.64
572.174	5.52
572.514	5.51
572.855	5.3
573.195	5.39
573.536	5.44
573.876	5.53
574.217	5.36
574.557	5.36
574.898	5.43
575.238	5.42
575.578	5.41
575.918	5.41
576.258	5.59
576.598	5.6
576.938	5.57
577.278	5.53
577.618	5.63
577.958	5.59
578.298	5.72
578.638	5.78
578.977	5.65
579.317	5.69
579.657	5.76
579.996	5.54
580.336	5.76
580.675	5.52
581.014	5.76
581.354	5.75
581.693	5.71
582.032	5.98
582.372	6.12
582.711	5.7
583.05	5.7
583.389	6.04
583.728	5.75
584.067	5.71
584.406	5.95
584.745	5.96
585.083	5.99
585.422	5.92
585.761	6.09
586.1	6
586.438	5.91
586.777	6.05
587.115	6.08
587.454	6.16
587.792	6.01
588.13	6.25
588.469	6.1
588.807	5.99
589.145	6.01
589.483	5.97
589.821	6
590.159	6.02
590.497	6.3
590.835	5.98
591.173	6.14
591.511	6.21
591.849	6.21
592.187	6.11
592.524	6.3
592.862	6.62
593.2	6.35
593.537	5.95
593.875	6.36
594.212	6.28
594.55	6.65
594.887	6.4
595.224	6.42
595.561	6.36
595.899	6.28
596.236	6.28
596.573	6.2
596.91	6.47
597.247	6.25
597.584	6.31
597.921	6.29
598.258	6.52
598.594	6.3
598.931	6.42
599.268	6.31
599.604	6.66
599.941	6.44
600.277	6.17
600.614	6.46
600.95	6.56
601.287	6.7
601.623	6.48
601.959	6.5
602.296	6.74
602.632	6.58
602.968	6.58
603.304	6.78
603.64	6.66
603.976	6.79
604.312	6.71
604.648	6.63
604.984	6.89
605.319	6.94
605.655	6.71
605.991	6.65
606.326	6.77
606.662	6.62
606.998	6.86
607.333	6.96
607.668	6.89
608.004	6.76
608.339	6.97
608.674	7.05
609.01	6.62
609.345	6.89
609.68	7.1
610.015	7.24
610.35	7.13
610.685	7.26
611.02	7.16
611.355	7.05
611.689	7.06
612.024	7.1
612.359	6.96
612.694	6.95
613.028	7
613.363	7.32
613.697	7.3
614.032	7.31
614.366	7.02
614.7	7.23
615.035	7.37
615.369	7.57
615.703	7.57
616.037	7.6
616.371	7.49
616.705	7.58
617.039	7.27
617.373	7.51
617.707	7.51
618.041	7.53
618.375	7.52
618.709	7.6
619.042	7.32
619.376	7.46
619.71	7.44
620.043	7.8
620.377	7.5
620.71	7.32
621.043	7.73
621.377	7.72
621.71	7.89
622.043	7.66
622.376	7.77
622.709	7.56
623.043	7.64
623.376	7.71
623.709	7.96
624.041	7.75
624.374	7.72
624.707	8.05
625.04	7.95
625.373	7.86
625.705	7.7
626.038	7.96
626.37	7.74
626.703	8.04
627.035	8.09
627.368	7.85
627.7	7.89
628.032	8.07
628.365	8.44
628.697	8.65
629.029	8.3
629.361	8.22
629.693	8.04
630.025	8.07
630.357	8.14
630.689	8.26
631.021	8.24
631.353	8.18
631.684	8.14
632.016	8.26
632.348	8.35
632.679	8.35
633.011	8.12
633.342	8.09
633.674	8.27
634.005	8.43
634.336	8.57
634.668	8.42
634.999	8.32
635.33	8.79
635.661	8.63
635.992	8.41
636.323	8.72
636.654	8.73
636.985	8.51
637.316	8.46
637.647	8.77
637.977	8.55
638.308	8.54
638.639	8.74
638.969	8.6
639.3	8.57
639.63	8.98
639.961	9.01
640.291	8.68
640.622	8.61
640.952	8.75
641.282	8.7
641.612	9.19
641.943	9.15
642.273	9.21
642.603	8.71
642.933	8.95
643.263	8.67
643.592	9.22
643.922	9.05
644.252	8.95
644.582	9.04
644.911	8.95
645.241	9.54
645.571	9.77
645.9	9.11
646.23	9.21
646.559	9.08
646.888	9.47
647.218	9.08
647.547	9.25
647.876	8.79
648.205	8.92
648.534	9.45
648.863	9.29
649.192	9.46
649.521	9.33
649.85	9.56
650.179	9.13
650.508	9.41
650.837	9.95
651.165	9.69
651.494	9.7
651.822	9.42
652.151	9.44
652.479	10.02
652.808	9.62
653.136	9.61
653.465	9.96
653.793	10.02
654.121	9.97
654.449	9.72
654.777	9.39
655.105	9.74
655.433	9.53
655.761	9.43
656.089	9.56
656.417	9.92
656.745	9.75
657.073	9.92
657.4	10.11
657.728	10.23
658.056	9.58
658.383	10.4
658.711	10
659.038	10.08
659.365	9.88
659.693	10.05
660.02	10.13
660.347	9.97
660.674	10.08
661.001	9.92
661.329	10.01
661.656	10.28
661.982	10.2
662.309	10.55
662.636	10.19
662.963	9.99
663.29	10.67
663.616	10.47
663.943	10.57
664.27	10.86
664.596	10.75
664.923	10.48
665.249	10.39
665.576	10.25
665.902	10.67
666.228	10.74
666.554	10.59
666.881	10.34
667.207	10.24
667.533	10.99
667.859	10.57
668.185	10.88
668.511	11.24
668.837	10.5
669.162	10.9
669.488	10.91
669.814	10.54
670.139	11.31
670.465	11.08
670.791	11
671.116	10.69
671.442	11.05
671.767	11.16
672.092	11.19
672.418	10.9
672.743	11.03
673.068	10.78
673.393	11.01
673.718	10.96
674.043	11.44
674.368	11.05
674.693	11.03
675.018	11.1
675.343	11.09
675.667	11.03
675.992	11.36
676.317	11.17
676.641	11.84
676.966	11.09
677.29	10.78
677.615	11.18
677.939	11.67
678.264	11.47
678.588	12.16
678.912	11.85
679.236	12.15
679.56	12.09
679.885	12.03
680.209	11.55
680.532	11.1
680.856	12.01
681.18	11.39
681.504	11.8
681.828	11.37
682.152	12.22
682.475	11.92
682.799	11.97
683.122	11.91
683.446	11.42
683.769	11.7
684.093	11.91
684.416	11.77
684.739	12.25
685.062	11.72
685.386	12.52
685.709	12.33
686.032	12.09
686.355	11.61
686.678	12.66
687.001	12.33
687.324	11.54
687.646	12.49
687.969	11.84
688.292	12.96
688.614	12.07
688.937	12.68
689.26	12.97
689.582	12.15
689.904	12.46
690.227	13.03
690.549	12.98
690.871	12.84
691.194	12.22
691.516	13.1
691.838	12.61
692.16	12.57
692.482	12.71
692.804	13.52
693.126	13.12
693.448	13.19
693.769	12.87
694.091	13.1
694.413	13.34
694.735	12.32
695.056	13.21
695.378	12.57
695.699	12.56
696.021	13.61
696.342	12.77
696.663	13.61
696.984	13.03
697.306	13.05
697.627	13.22
697.948	13.1
698.269	13.85
698.59	13.53
698.911	13.77
699.232	13.18
699.553	13.18
699.873	13.55
700.194	13.06
700.515	13.15
700.835	12.97
701.156	13.57
701.477	13.52
701.797	13.25
702.117	13.31
702.438	12.98
702.758	14.03
703.078	13.64
703.398	12.96
703.719	13.72
704.039	13.66
704.359	13.37
704.679	13.11
704.999	13.33
705.319	13.67
705.638	14
705.958	13.22
706.278	14.18
706.597	13.95
706.917	13.48
707.237	14.03
707.556	13.18
707.876	14.74
708.195	14.45
708.514	14
708.834	14.31
709.153	13.76
709.472	14.31
709.791	13.69
710.11	14.63
710.429	13.27
710.748	13.66
711.067	14.05
711.386	14.23
711.705	13.82
712.023	14.55
712.342	15.26
712.661	14.77
712.979	15.81
713.298	14.59
713.616	14.51
713.935	14.9
714.253	14.25
714.572	14.64
714.89	14.38
715.208	15.16
715.526	14.85
715.844	15.34
716.162	14.56
716.48	14.26
716.798	14.36
717.116	14.66
717.434	14.78
717.752	14.65
718.069	15.49
718.387	15.69
718.705	14.82
719.022	15.43
719.34	14.71
719.657	14.45
719.975	14.05
720.292	14.9
720.609	14.71
720.927	15.9
721.244	16
721.561	15.68
721.878	15.65
722.195	15.45
722.512	15.12
722.829	15.64
723.146	15.56
723.463	15.66
723.779	16.29
724.096	15.64
724.413	15.36
724.729	15.36
725.046	14.85
725.362	14.67
725.679	14.24
725.995	15.11
726.311	15.14
726.628	15.39
726.944	15.19
727.26	16.59
727.576	15.28
727.892	14.49
728.208	16.71
728.524	15.2
728.84	16.35
729.156	15.86
729.472	16.59
729.787	15.82
730.103	16.17
730.419	16.92
730.734	16.07
731.05	15.73
731.365	15.5
731.681	15.23
731.996	15.73
732.311	15.55
732.626	16.54
732.942	15.74
733.257	16.01
733.572	17.12
733.887	16.15
734.202	16.87
734.517	16.92
734.832	16.15
735.146	16.31
735.461	15.87
735.776	15.8
736.091	17.36
736.405	17.5
736.72	15.73
737.034	17.1
737.349	17.71
737.663	16.65
737.977	18.24
738.292	15.57
738.606	17.26
738.92	16.62
739.234	16.85
739.548	17.78
739.862	17.46
740.176	17.14
740.49	16.79
740.804	16.35
741.117	17.44
741.431	16
741.745	15.75
742.058	18.43
742.372	16.97
742.685	17.57
742.999	16.68
743.312	16.35
743.626	17.17
743.939	17.32
744.252	14.23
744.565	17.17
744.878	19.14
745.191	18.31
745.505	16.72
745.817	17.29
746.13	16.9
746.443	17.43
746.756	17.56
747.069	18.35
747.381	17.61
747.694	18.1
748.007	17.81
748.319	18.78
748.632	17.57
748.944	17.27
749.256	17.41
749.569	18.46
749.881	18.37
750.193	18.5
750.505	17.02
750.817	17.85
751.129	17.11
751.441	18.13
751.753	18.02
752.065	19.32
752.377	18.12
752.689	18.82
753	18.28
753.312	17.9
753.624	18.75
753.935	18.58
754.247	15.63
754.558	17.78
754.869	16.91
755.181	16.89
755.492	16.7
755.803	18.41
756.114	19.15
756.425	18.5
756.736	17.56
757.047	18.6
757.358	20.16
757.669	18.91
757.98	17.86
758.291	18.85
758.601	16.71
758.912	18.83
759.223	19
759.533	18.15
759.844	20.13
760.154	19.6
760.464	17.87
760.775	19.11
761.085	17.5
761.395	18.97
761.705	19.01
762.016	19.15
762.326	19.73
762.636	19.34
762.945	18.34
763.255	21.02
763.565	19.53
763.875	20.24
764.185	20.47
764.494	19.14
764.804	19.84
765.113	19.82
765.423	19.89
765.732	19.55
766.042	19.6
766.351	20.69
766.66	20.5
766.97	20
767.279	19.26
767.588	21.06
767.897	20.12
768.206	20.12
768.515	20.07
768.824	19.24
769.133	20.25
769.441	19.96
769.75	18.19
770.059	18.94
770.367	20.41
770.676	19.03
770.984	20.02
771.293	19.26
771.601	18.15
771.91	21.28
772.218	21.66
772.526	20.62
772.834	18.84
773.142	18.55
773.45	18.53
773.758	21.47
774.066	19.49
774.374	18.17
774.682	20.93
774.99	19.18
775.298	20.09
775.605	21.21
775.913	18.8
776.22	23
776.528	19.74
776.835	21.56
777.143	21.42
777.45	19.52
777.757	20.53
778.065	20.09
778.372	21.08
778.679	19.47
778.986	19.21
779.293	19.69
779.6	17.7
779.907	20.39
780.214	18.52
780.52	24.09
780.827	20.87
781.134	19.15
781.44	18.82
781.747	21.78
782.053	23.56
782.36	18.98
782.666	21.38
782.973	20.45
783.279	19.62
783.585	21.99
783.891	21.44
784.197	20.64
784.503	21.05
784.809	21.54
785.115	19.23
785.421	21.4
785.727	16.51
786.033	20.57
786.339	23.82
786.644	23.19
786.95	22.54
787.255	19.76
787.561	21.98
787.866	22.98
788.172	22.77
788.477	19.24
788.782	23.07
789.088	24.48
789.393	22.5
789.698	25.28
790.003	21.49
790.308	22.27
790.613	23.37
790.918	19.54
791.223	25.02
791.527	17.83
791.832	23.27
792.137	27.28
792.441	21.25
792.746	21.15
793.05	22.37
793.355	24.28
793.659	25.6
793.963	19.84
794.268	22.69
794.572	24.13
794.876	20.2
795.18	23.71
795.484	23.78
795.788	23
796.092	22.92
796.396	25.09
796.7	25.38
797.004	20.89
797.307	25.47
797.611	24.2
797.915	22.15
798.218	22.95
798.522	23.58
798.825	20.01
799.128	25.45
799.432	22.83
799.735	23.26
800.038	21.74
800.341	25.1
800.644	21.02
800.947	22.25
801.25	24.44
801.553	21.99
801.856	25.45
802.159	24.19
802.462	23.85
802.764	23.42
803.067	23.68
803.37	20.51
803.672	25.19
803.975	27.85
804.277	14.96
804.579	21.92
804.882	24.06
805.184	20.58
805.486	20.16
805.788	22.05
806.09	18.98
806.392	21.52
806.694	20.59
806.996	20.65
807.298	27.52
807.6	23.16
807.902	23.49
808.203	21.39
808.505	18.75
808.807	22.08
809.108	19.87
809.409	28.69
809.711	26.51
810.012	20.39
810.313	25.99
810.615	20.23
810.916	24.14
811.217	21.93
811.518	19.87
811.819	24.68
812.12	24.53
812.421	22.71
812.722	21.2
813.023	20.35
813.323	24.69
813.624	22.22
813.925	26.43
814.225	27.07
814.526	29.22
814.826	27.6
815.126	21.37
815.427	25.96
815.727	26.24
816.027	19.96
816.327	22.87
816.627	20.94
816.927	25.2
817.227	26.31
817.527	20.92
817.827	20.16
818.127	25.55
818.427	24.53
818.727	20.06
819.026	20.41
819.326	24.84
819.625	20.76
819.925	21.82
820.224	26.65
820.524	22.43
820.823	31.82
821.122	23
821.421	21.21
821.72	26.93
822.019	25.27
822.318	24.41
822.617	21.44
822.916	26.43
823.215	25.21
823.514	26.45
823.813	26.71
824.111	25.45
824.41	26.42
824.709	25.39
825.007	26.71
825.306	26.5
825.604	26.79
825.902	25.54
826.201	27.12
826.499	26.24
826.797	26.6
827.095	26.43
827.393	25.02
827.691	26.73
827.989	25.53
828.287	24.89
828.585	25.45
828.882	25.1
829.18	24.48
829.478	26.12
829.775	27.09
830.073	27.21
830.37	27.1
830.668	27.38
830.965	24.12
831.263	27.79
831.56	25.38
831.857	25.88
832.154	29.5
832.451	28.71
832.748	26.71
833.045	26.25
833.342	26.43
833.639	24.66
833.936	28.85
834.232	28.27
834.529	23.42
834.826	25.37
835.122	28.8
835.419	24
835.715	24.88
836.012	23.76
836.308	28.72
836.604	25.53
836.901	26.18
837.197	26.43
837.493	27.29
837.789	24.43
838.085	28.28
838.381	29.6
838.677	30.24
838.972	26.45
839.268	24.75
839.564	23.59
839.86	19.61
840.155	19.97
840.451	21.9
840.746	26.87
841.042	23.99
841.337	23.43
841.632	28.52
841.928	30.55
842.223	17.42
842.518	30.06
842.813	19.81
843.108	28.51
843.403	25.32
843.698	21.9
843.993	31.43
844.287	28.44
844.582	28.56
844.877	24.04
845.171	23.86
845.466	32.08
845.761	18.89
846.055	23.37
846.349	30.25
846.644	34.45
846.938	14.88
847.232	33.01
847.526	29.77
847.82	31.73
848.114	35.26
848.408	36.8
848.702	28.44
848.996	30.13
849.29	23.7
849.584	33.16
849.877	33.26
850.171	32.69
850.465	27.35
850.758	7.44
851.052	27.77
851.345	37.11
851.638	25.04
851.932	34.5
852.225	23.31
852.518	34.96
852.811	26.6
853.104	27.75
853.397	28.2
853.69	34.44
853.983	4.72
854.276	23.4
854.569	31.67
854.861	37.01
855.154	32.28
855.447	30.04
855.739	22.18
856.032	24.64
856.324	11.28
856.616	31.09
856.909	21.27
857.201	23.76
857.493	11.8
857.785	12.57
858.077	36.23
858.369	22.41
858.661	22.05
858.953	26.7
859.245	26.39
859.537	30.52
859.829	8.22
860.12	17.26
860.412	-1.08
860.703	26.57
860.995	31.41
861.286	0.7
861.578	8.3
861.869	11.87
862.16	-9.13
862.452	7.02
862.743	32.51
863.034	26.33
863.325	39.78
863.616	-0.4
863.907	38.43
864.198	11.11
864.488	23.97
864.779	13.2
865.07	35.46
865.36	20.62
865.651	39.37
865.941	40.02
866.232	3.22
866.522	5.8
866.813	25.55
867.103	36.02
867.393	24.63
867.683	18.5
867.973	22.16
868.263	22.2
868.553	31.5
868.843	13.6
869.133	41.23
869.423	30.27
869.713	14.48
870.002	9
870.292	22.59
870.582	30.33
870.871	24.65
871.161	41.02
871.45	14.94
871.739	26.03
872.029	3.37
872.318	46.19
872.607	11.97
872.896	12.24
873.185	28.87
873.474	5.37
873.763	26.29
874.052	46.35
874.341	30.4
874.63	29.02
874.918	26.27
875.207	14.69
875.496	35.55
875.784	19.11
876.073	13.69
876.361	-0.88
876.649	-5.01
876.938	53.58
877.226	42.93
877.514	21.97
877.802	20.38
878.09	32.18
878.378	37.56
878.666	25.87
878.954	11.61
879.242	22.72
879.53	29.46
879.817	47.22
880.105	46.7
880.392	9.55
880.68	20.05
880.967	24.53
881.255	19.9
881.542	5.79
881.83	-2.85
882.117	18.14
882.404	56.53
882.691	33.31
882.978	17.74
883.265	24.34
883.552	21.37
883.839	23.77
884.126	29.32
884.413	21.28
884.699	22.85
884.986	35.69
885.273	27.27
885.559	27.27
885.846	27.27
