Data from 1610-3_forehead_Reflection__2__138.txt Node

Date: Fri Nov 11 17:10:22 CST 2022
User: ToomeyLab
Spectrometer: FLMS14357
Trigger mode: 0
Integration Time (sec): 1.000000E-2
Scans to average: 100
Electric dark correction enabled: true
Nonlinearity correction enabled: false
Boxcar width: 0
XAxis mode: Wavelengths
Number of Pixels in Spectrum: 2048
>>>>>Begin Spectral Data<<<<<
189.047	118.99
189.435	118.99
189.823	118.99
190.211	62.18
190.599	13.3
190.987	-1130.07
191.375	251.39
191.763	-98.28
192.151	-244.75
192.538	260.08
192.926	-237.36
193.314	-257.75
193.702	37.72
194.089	-321.33
194.477	293.58
194.864	155.13
195.252	94.19
195.639	17.51
196.027	-2.57
196.414	143.22
196.801	-16.41
197.189	478.59
197.576	-259.14
197.963	96.7
198.351	2.8
198.738	-44.23
199.125	19.4
199.512	-0.85
199.899	29.04
200.286	20.53
200.673	12.43
201.06	-27.68
201.447	11.55
201.833	0.11
202.22	16.22
202.607	15.04
202.994	-2.21
203.38	12.14
203.767	-11.25
204.154	-54.73
204.54	17.49
204.927	-35.19
205.313	-19.42
205.699	6.5
206.086	14.46
206.472	-16.75
206.858	-4.92
207.245	13.84
207.631	14.54
208.017	-7.76
208.403	-0.11
208.789	-61.06
209.175	8.98
209.561	23.73
209.947	-12.48
210.333	26.89
210.719	11.2
211.105	9.51
211.491	-130.21
211.876	3.15
212.262	-9.91
212.648	-4.25
213.034	7.7
213.419	0.75
213.805	11.88
214.19	3.39
214.576	-1.94
214.961	-21.34
215.346	-60.59
215.732	-26.46
216.117	26
216.502	10.96
216.888	-17.52
217.273	-28.35
217.658	-8.55
218.043	0.92
218.428	-37.1
218.813	14.89
219.198	-33.46
219.583	2.76
219.968	5
220.353	-27.63
220.738	-11.04
221.122	-14.84
221.507	15.18
221.892	2.72
222.276	-2.39
222.661	4.69
223.046	5.67
223.43	1.86
223.815	-3.93
224.199	4.21
224.583	-5.68
224.968	9.2
225.352	-2.65
225.736	5.15
226.121	-0.68
226.505	3.74
226.889	4.15
227.273	2.39
227.657	-7.58
228.041	-0.26
228.425	2.6
228.809	-0.89
229.193	-1.55
229.577	2.89
229.961	2.65
230.344	2.61
230.728	1.26
231.112	1.83
231.495	1.27
231.879	1.16
232.263	-1.13
232.646	0.52
233.03	-0.19
233.413	-0.9
233.797	0.52
234.18	1.74
234.563	3.24
234.946	2.34
235.33	1.9
235.713	0.52
236.096	-1.74
236.479	2.49
236.862	1.38
237.245	2.32
237.628	0.68
238.011	0.87
238.394	1.29
238.777	1.66
239.16	2.52
239.543	2.1
239.925	3.21
240.308	-0.33
240.691	-0.18
241.073	2.22
241.456	-0.16
241.838	1.71
242.221	0.75
242.603	1.31
242.986	0.95
243.368	1.17
243.75	2.04
244.133	1.33
244.515	1.95
244.897	1.54
245.279	1.02
245.661	1.84
246.043	1.55
246.425	2.38
246.807	1.48
247.189	1.19
247.571	0.15
247.953	1.5
248.335	2.07
248.717	1.91
249.098	1.77
249.48	1.74
249.862	1.88
250.243	1.4
250.625	1.71
251.006	2.38
251.388	2.92
251.769	2.08
252.151	1.86
252.532	1.48
252.913	1.27
253.295	1.34
253.676	1.78
254.057	1.43
254.438	1.72
254.819	1.62
255.2	1.39
255.581	2.08
255.962	2.1
256.343	1.93
256.724	1.09
257.105	0.97
257.486	1.91
257.867	1.17
258.247	1.3
258.628	1.44
259.009	1.44
259.389	1.36
259.77	2.46
260.15	2.41
260.531	1.85
260.911	1.6
261.292	1.86
261.672	1.89
262.052	1.84
262.432	2.06
262.813	1.6
263.193	1.54
263.573	2.11
263.953	1.4
264.333	1.28
264.713	1.44
265.093	2.37
265.473	3.15
265.853	1.62
266.233	1.26
266.612	1.44
266.992	1.39
267.372	1.56
267.752	2.07
268.131	1.81
268.511	1.97
268.89	1.94
269.27	1.38
269.649	1.87
270.029	1.72
270.408	1.22
270.787	2.27
271.167	1.96
271.546	1.76
271.925	2.09
272.304	2.18
272.683	1.88
273.062	1.57
273.441	2
273.82	1.77
274.199	1.61
274.578	1.57
274.957	1.01
275.336	1.61
275.715	1.72
276.093	1.87
276.472	1.53
276.851	1.71
277.229	1.05
277.608	1.75
277.986	1.89
278.365	2.2
278.743	1.33
279.122	1.65
279.5	1.29
279.878	1.74
280.257	2.2
280.635	1.83
281.013	1.62
281.391	1.75
281.769	2.4
282.147	1.92
282.525	1.47
282.903	1.9
283.281	1.67
283.659	1.48
284.037	1.43
284.415	1.56
284.792	2.15
285.17	1.73
285.548	2.14
285.925	2.01
286.303	1.65
286.68	1.65
287.058	1.9
287.435	1.91
287.813	1.62
288.19	2.11
288.567	1.96
288.945	1.42
289.322	1.84
289.699	1.93
290.076	1.46
290.453	1.34
290.83	2.05
291.207	1.47
291.584	1.73
291.961	2.12
292.338	2.17
292.715	1.74
293.092	2.08
293.469	2.36
293.845	2.34
294.222	2.86
294.599	1.97
294.975	1.98
295.352	1.77
295.728	2.09
296.105	1.6
296.481	1.94
296.858	2.05
297.234	1.74
297.61	1.96
297.986	1.59
298.363	2.06
298.739	2.11
299.115	1.72
299.491	2.43
299.867	1.89
300.243	1.76
300.619	2.02
300.995	2.18
301.371	1.84
301.746	2.13
302.122	1.92
302.498	1.35
302.874	2.08
303.249	1.99
303.625	2.06
304	2.03
304.376	2.53
304.751	3.09
305.127	2.78
305.502	2.52
305.878	3.05
306.253	2.79
306.628	2.76
307.003	2.75
307.378	2.8
307.754	2.32
308.129	2.76
308.504	2.18
308.879	2.67
309.254	2.13
309.629	2.55
310.003	2.25
310.378	2.17
310.753	2.22
311.128	2.59
311.502	2.63
311.877	2.88
312.252	2.61
312.626	2.48
313.001	2.99
313.375	3.08
313.75	3.07
314.124	2.91
314.498	2.92
314.873	3.05
315.247	2.74
315.621	2.95
315.995	2.91
316.369	3.64
316.743	2.99
317.117	3.38
317.491	3
317.865	3.19
318.239	3.52
318.613	3.03
318.987	3.58
319.361	3.21
319.734	2.95
320.108	3.56
320.482	3.12
320.855	3.38
321.229	3.82
321.602	3.67
321.976	3.37
322.349	3.52
322.723	3.46
323.096	3.86
323.469	3.45
323.843	4.35
324.216	3.51
324.589	3.82
324.962	3.31
325.335	4.13
325.708	3.48
326.081	3.57
326.454	4.2
326.827	3.92
327.2	3.73
327.573	4.36
327.945	3.9
328.318	4.63
328.691	4.26
329.063	4.33
329.436	4.38
329.809	3.94
330.181	4.38
330.553	4.42
330.926	3.75
331.298	4.33
331.671	4.49
332.043	4.87
332.415	4.24
332.787	4.17
333.159	4.62
333.532	4.14
333.904	4.32
334.276	4.46
334.648	3.88
335.02	4.68
335.391	4.54
335.763	4.49
336.135	4.53
336.507	4.75
336.879	4.71
337.25	4.13
337.622	5.03
337.993	4.35
338.365	5.04
338.736	4.75
339.108	4.54
339.479	4.83
339.851	4.39
340.222	4.24
340.593	4.68
340.964	4.65
341.336	5.07
341.707	4.88
342.078	4.71
342.449	5.5
342.82	5.14
343.191	5.36
343.562	5.72
343.933	4.83
344.303	5.82
344.674	5.34
345.045	5.43
345.416	5.22
345.786	5.38
346.157	5.12
346.527	5.52
346.898	5.63
347.268	5.51
347.639	5.5
348.009	5.67
348.38	5.63
348.75	5.74
349.12	5.51
349.49	5.57
349.861	5.21
350.231	5.45
350.601	6.19
350.971	5.96
351.341	5.66
351.711	5.6
352.081	5.29
352.45	6.05
352.82	6.18
353.19	5.82
353.56	6.27
353.929	6.22
354.299	6.29
354.669	6.24
355.038	6.04
355.408	5.54
355.777	6.59
356.147	6.38
356.516	6.69
356.885	6.44
357.254	6.12
357.624	6.46
357.993	6.26
358.362	6.26
358.731	6.04
359.1	5.96
359.469	6.4
359.838	6.94
360.207	6.45
360.576	6.58
360.945	6.94
361.314	6.85
361.682	6.75
362.051	6.46
362.42	6.57
362.788	6.79
363.157	6.7
363.525	6.87
363.894	6.74
364.262	6.64
364.631	6.74
364.999	6.92
365.367	7.02
365.735	7.19
366.104	6.97
366.472	7.18
366.84	7.13
367.208	7.09
367.576	6.97
367.944	7.26
368.312	7.23
368.68	7.34
369.048	7.14
369.416	7.21
369.783	7.02
370.151	7.15
370.519	7.68
370.886	7.13
371.254	7.44
371.621	7.39
371.989	7.27
372.356	7.16
372.724	7.7
373.091	7.64
373.458	7.57
373.826	7.77
374.193	7.76
374.56	7.71
374.927	7.69
375.294	7.84
375.661	8.28
376.028	8.02
376.395	8.01
376.762	7.56
377.129	8.14
377.496	7.77
377.863	7.99
378.229	7.98
378.596	8.14
378.963	8.07
379.329	8.05
379.696	8.31
380.062	8.27
380.429	8.09
380.795	8.45
381.161	8.22
381.528	8.63
381.894	8.54
382.26	8.48
382.626	8.36
382.993	8.77
383.359	8.86
383.725	8.85
384.091	8.65
384.457	8.59
384.823	8.46
385.188	8.76
385.554	8.56
385.92	8.7
386.286	8.72
386.651	8.61
387.017	8.8
387.383	8.77
387.748	8.86
388.114	8.96
388.479	8.84
388.845	9.05
389.21	9.13
389.575	8.89
389.94	9.02
390.306	9.11
390.671	9.27
391.036	9.65
391.401	9.21
391.766	9.4
392.131	8.93
392.496	9.34
392.861	9.27
393.226	9.25
393.591	9.49
393.956	9.56
394.32	9.6
394.685	9.58
395.05	9.57
395.414	9.73
395.779	9.41
396.143	9.65
396.508	9.64
396.872	9.82
397.236	9.79
397.601	9.71
397.965	9.74
398.329	9.63
398.694	9.61
399.058	9.92
399.422	9.94
399.786	9.96
400.15	9.81
400.514	10
400.878	10.06
401.242	10.26
401.605	10.13
401.969	10.24
402.333	10.25
402.697	10.03
403.06	10.14
403.424	9.86
403.787	10.4
404.151	10.18
404.514	10.13
404.878	10.26
405.241	10.35
405.604	10.25
405.968	10.47
406.331	10.28
406.694	10.56
407.057	10.41
407.42	10.6
407.783	10.36
408.146	10.64
408.509	10.64
408.872	10.76
409.235	10.63
409.598	10.72
409.961	10.56
410.323	10.83
410.686	10.87
411.049	10.96
411.411	10.93
411.774	10.88
412.136	10.89
412.499	11
412.861	10.82
413.223	10.77
413.586	10.85
413.948	11.03
414.31	11.18
414.672	11.05
415.035	10.97
415.397	11.29
415.759	11.38
416.121	11.26
416.483	11.15
416.845	11.2
417.206	11.5
417.568	11.39
417.93	11.47
418.292	11.26
418.653	11.36
419.015	11.23
419.377	11.43
419.738	11.52
420.1	11.22
420.461	11.32
420.822	11.27
421.184	11.31
421.545	11.41
421.906	11.42
422.267	11.41
422.629	11.51
422.99	11.36
423.351	11.46
423.712	11.66
424.073	11.8
424.434	11.63
424.795	11.85
425.155	11.74
425.516	11.84
425.877	11.73
426.238	11.78
426.598	11.9
426.959	11.87
427.32	12
427.68	12.02
428.041	12.18
428.401	12.14
428.761	12.32
429.122	12.49
429.482	12.54
429.842	12.5
430.202	12.49
430.563	12.56
430.923	12.53
431.283	12.74
431.643	12.7
432.003	12.85
432.363	12.66
432.722	12.76
433.082	12.69
433.442	12.76
433.802	12.8
434.161	12.94
434.521	12.92
434.881	12.78
435.24	13.03
435.6	12.84
435.959	12.98
436.319	13.1
436.678	13.08
437.037	13.08
437.396	13.03
437.756	13.16
438.115	13.18
438.474	13.32
438.833	13.34
439.192	13.35
439.551	13.31
439.91	13.47
440.269	13.42
440.628	13.38
440.987	13.69
441.345	13.4
441.704	13.43
442.063	13.62
442.421	13.45
442.78	13.56
443.138	13.57
443.497	13.58
443.855	13.76
444.214	13.77
444.572	13.93
444.93	13.89
445.288	13.94
445.647	13.68
446.005	13.94
446.363	14.04
446.721	13.89
447.079	13.96
447.437	14.01
447.795	13.81
448.153	13.95
448.51	13.97
448.868	13.99
449.226	14.04
449.584	14.1
449.941	14.15
450.299	14.29
450.656	14.5
451.014	14.44
451.371	14.3
451.729	14.49
452.086	14.48
452.443	14.82
452.801	14.56
453.158	14.76
453.515	14.61
453.872	14.74
454.229	14.72
454.586	14.79
454.943	14.83
455.3	14.99
455.657	15.02
456.014	14.87
456.371	14.93
456.727	15.08
457.084	15.13
457.441	15.31
457.797	15.14
458.154	15.19
458.51	15.18
458.867	15.33
459.223	15.21
459.58	15.53
459.936	15.42
460.292	15.27
460.648	15.29
461.005	15.2
461.361	15.25
461.717	15.1
462.073	15.33
462.429	15.36
462.785	15.4
463.141	15.68
463.496	15.76
463.852	15.79
464.208	15.85
464.564	15.94
464.919	15.92
465.275	15.8
465.631	16.16
465.986	15.99
466.342	16.09
466.697	16.26
467.052	15.99
467.408	16.08
467.763	16.23
468.118	16.3
468.473	16.15
468.829	16.28
469.184	16.31
469.539	16.4
469.894	16.18
470.249	16.14
470.603	16.52
470.958	16.47
471.313	16.46
471.668	16.53
472.023	16.76
472.377	16.68
472.732	16.77
473.086	16.84
473.441	16.66
473.795	16.65
474.15	16.63
474.504	17.01
474.859	16.79
475.213	16.84
475.567	16.95
475.921	17.12
476.275	16.98
476.63	17.01
476.984	17.14
477.338	17.01
477.692	16.96
478.045	17.11
478.399	17.1
478.753	17.17
479.107	17.28
479.461	17.18
479.814	17.18
480.168	17.38
480.521	17.38
480.875	17.49
481.228	17.28
481.582	17.43
481.935	17.43
482.289	17.54
482.642	17.37
482.995	17.35
483.348	17.35
483.701	17.28
484.055	17.3
484.408	17.25
484.761	16.96
485.114	16.7
485.466	16.56
485.819	16.61
486.172	16.7
486.525	16.89
486.878	17.06
487.23	17.16
487.583	17.33
487.936	17.39
488.288	17.34
488.641	17.2
488.993	17.11
489.345	17.12
489.698	17.09
490.05	17.19
490.402	17.43
490.754	17.51
491.107	17.72
491.459	17.82
491.811	17.8
492.163	17.97
492.515	17.9
492.866	17.77
493.218	17.46
493.57	17.48
493.922	17.75
494.274	17.83
494.625	17.95
494.977	18.15
495.328	18.35
495.68	18.49
496.031	18.66
496.383	18.74
496.734	18.76
497.086	18.79
497.437	18.76
497.788	18.73
498.139	18.59
498.49	18.56
498.842	18.58
499.193	18.63
499.544	18.86
499.894	18.91
500.245	18.85
500.596	18.93
500.947	19.02
501.298	19.19
501.648	19.22
501.999	19.34
502.35	19.26
502.7	19.42
503.051	19.34
503.401	19.45
503.752	19.48
504.102	19.53
504.452	19.53
504.803	19.53
505.153	19.5
505.503	19.63
505.853	19.59
506.203	19.52
506.553	19.67
506.903	19.56
507.253	19.74
507.603	19.85
507.953	19.89
508.303	19.83
508.652	19.76
509.002	19.67
509.352	19.85
509.701	19.78
510.051	19.76
510.4	19.57
510.75	19.83
511.099	19.71
511.449	19.79
511.798	19.69
512.147	19.94
512.496	19.92
512.846	19.86
513.195	20.03
513.544	20.06
513.893	20.08
514.242	20.07
514.591	20.06
514.939	20.08
515.288	20.35
515.637	20.17
515.986	20.3
516.334	20.38
516.683	20.42
517.032	20.44
517.38	20.51
517.729	20.54
518.077	20.53
518.426	20.65
518.774	20.5
519.122	20.48
519.47	20.23
519.819	20.29
520.167	20.14
520.515	20.29
520.863	20.24
521.211	20.31
521.559	20.45
521.907	20.57
522.255	20.66
522.602	20.7
522.95	20.85
523.298	20.86
523.645	20.94
523.993	20.98
524.341	21.09
524.688	21.25
525.036	21.17
525.383	21.04
525.73	21.06
526.078	20.99
526.425	20.97
526.772	20.8
527.119	20.81
527.466	20.73
527.814	20.68
528.161	20.76
528.508	20.91
528.854	20.87
529.201	20.76
529.548	20.67
529.895	20.41
530.242	20.27
530.588	20.35
530.935	20.49
531.282	20.62
531.628	20.63
531.975	20.79
532.321	20.98
532.667	21.13
533.014	21.25
533.36	21.2
533.706	21.37
534.052	21.2
534.399	21.13
534.745	21.04
535.091	20.87
535.437	21.02
535.783	21.09
536.129	21.27
536.474	21.41
536.82	21.51
537.166	21.68
537.512	21.74
537.857	21.76
538.203	21.48
538.549	21.45
538.894	21.65
539.239	21.79
539.585	21.78
539.93	22.04
540.276	22.18
540.621	22.15
540.966	22.27
541.311	22.27
541.656	22.18
542.001	22.12
542.346	21.98
542.691	21.67
543.036	21.54
543.381	21.41
543.726	21.57
544.071	21.69
544.415	21.88
544.76	21.93
545.105	22.15
545.449	22.13
545.794	22.28
546.138	22.23
546.483	22.47
546.827	22.59
547.171	22.5
547.516	22.41
547.86	22.64
548.204	22.48
548.548	22.34
548.892	22.6
549.236	22.6
549.58	22.78
549.924	22.88
550.268	23.07
550.612	23.04
550.956	23.14
551.3	23.45
551.643	23.31
551.987	23.52
552.33	23.34
552.674	23.24
553.017	23.42
553.361	23.41
553.704	23.74
554.048	23.39
554.391	23.39
554.734	23.46
555.077	23.56
555.42	23.49
555.764	23.7
556.107	23.79
556.45	23.73
556.793	23.71
557.135	23.81
557.478	23.95
557.821	24.02
558.164	23.84
558.507	23.9
558.849	23.87
559.192	24.22
559.534	24.09
559.877	24.34
560.219	24.13
560.562	24.28
560.904	24.17
561.246	24.27
561.589	24.25
561.931	24.39
562.273	24.21
562.615	24.33
562.957	24.49
563.299	24.51
563.641	24.27
563.983	24.28
564.325	24.13
564.667	24.53
565.008	24.48
565.35	24.6
565.692	24.52
566.033	24.57
566.375	24.61
566.716	24.64
567.058	24.49
567.399	24.63
567.741	24.47
568.082	24.42
568.423	24.54
568.764	24.41
569.105	24.51
569.447	24.62
569.788	24.78
570.129	24.82
570.47	24.86
570.811	24.88
571.151	24.76
571.492	24.78
571.833	25.01
572.174	24.88
572.514	24.96
572.855	24.76
573.195	25.16
573.536	25.09
573.876	24.78
574.217	24.96
574.557	24.78
574.898	24.64
575.238	25.06
575.578	25.02
575.918	25.15
576.258	25.08
576.598	25.21
576.938	24.98
577.278	25.23
577.618	25.27
577.958	25.34
578.298	25.32
578.638	25.47
578.977	25.38
579.317	25.46
579.657	25.51
579.996	25.48
580.336	25.78
580.675	25.62
581.014	25.69
581.354	25.71
581.693	25.7
582.032	26.01
582.372	25.93
582.711	26.07
583.05	25.75
583.389	26.13
583.728	25.83
584.067	25.82
584.406	25.97
584.745	26.16
585.083	26.18
585.422	25.85
585.761	26.2
586.1	26
586.438	26.28
586.777	26.02
587.115	26.12
587.454	26.37
587.792	26.42
588.13	26.53
588.469	26.36
588.807	26.45
589.145	26.56
589.483	26.23
589.821	26.58
590.159	26.44
590.497	26.64
590.835	26.57
591.173	26.54
591.511	26.47
591.849	26.48
592.187	26.49
592.524	26.69
592.862	26.91
593.2	26.77
593.537	26.41
593.875	26.7
594.212	26.8
594.55	26.97
594.887	26.95
595.224	26.62
595.561	27
595.899	26.99
596.236	26.89
596.573	26.82
596.91	26.8
597.247	26.67
597.584	26.87
597.921	26.85
598.258	27.04
598.594	26.74
598.931	26.64
599.268	26.8
599.604	26.96
599.941	26.91
600.277	26.61
600.614	27.04
600.95	27.44
601.287	27.48
601.623	27.32
601.959	27.49
602.296	27.35
602.632	26.94
602.968	27.35
603.304	27.36
603.64	27.5
603.976	27.57
604.312	27.45
604.648	27.25
604.984	27.3
605.319	27.3
605.655	27.43
605.991	27.09
606.326	27.35
606.662	27.38
606.998	27.63
607.333	27.4
607.668	27.51
608.004	27.51
608.339	27.97
608.674	27.76
609.01	27.68
609.345	27.84
609.68	27.97
610.015	27.82
610.35	27.98
610.685	27.65
611.02	27.96
611.355	27.8
611.689	27.95
612.024	28.06
612.359	27.74
612.694	28.05
613.028	28.18
613.363	27.96
613.697	28.14
614.032	28.36
614.366	28.06
614.7	28.15
615.035	28.41
615.369	28.37
615.703	28.64
616.037	28.27
616.371	28.39
616.705	28.64
617.039	28.41
617.373	28.54
617.707	28.47
618.041	28.33
618.375	28.91
618.709	28.58
619.042	28.51
619.376	28.56
619.71	28.8
620.043	28.48
620.377	28.75
620.71	28.91
621.043	29.15
621.377	28.37
621.71	28.7
622.043	28.59
622.376	28.76
622.709	28.89
623.043	29.09
623.376	29.15
623.709	29.11
624.041	29.06
624.374	28.97
624.707	29.31
625.04	28.9
625.373	28.6
625.705	28.99
626.038	29.09
626.37	28.69
626.703	29.24
627.035	29.28
627.368	28.94
627.7	29.04
628.032	28.89
628.365	29.4
628.697	29.45
629.029	29.13
629.361	29.16
629.693	29.16
630.025	29.04
630.357	29.46
630.689	29.35
631.021	29.71
631.353	29.25
631.684	29.58
632.016	29.28
632.348	29.63
632.679	29.91
633.011	29.38
633.342	29.44
633.674	29.72
634.005	29.98
634.336	29.65
634.668	29.75
634.999	29.3
635.33	29.61
635.661	29.93
635.992	29.85
636.323	29.95
636.654	29.92
636.985	29.97
637.316	29.61
637.647	29.87
637.977	29.73
638.308	29.84
638.639	30.13
638.969	30.07
639.3	29.9
639.63	30.4
639.961	29.96
640.291	30.34
640.622	30.13
640.952	30.15
641.282	29.87
641.612	30.43
641.943	30.41
642.273	30.45
642.603	30.43
642.933	29.95
643.263	29.98
643.592	30.61
643.922	30.18
644.252	30.48
644.582	30.34
644.911	30.32
645.241	30.85
645.571	30.21
645.9	30.67
646.23	30.68
646.559	30.04
646.888	31.05
647.218	30.74
647.547	30.34
647.876	30.86
648.205	30.8
648.534	30.79
648.863	31.09
649.192	30.87
649.521	30.93
649.85	30.37
650.179	30.52
650.508	31.17
650.837	31.13
651.165	30.97
651.494	31.14
651.822	31.31
652.151	31.06
652.479	30.99
652.808	31.03
653.136	30.92
653.465	30.45
653.793	31.03
654.121	30.84
654.449	31.45
654.777	31.22
655.105	30.97
655.433	31.29
655.761	30.94
656.089	31.26
656.417	31.58
656.745	31.03
657.073	31.68
657.4	31.36
657.728	31.31
658.056	31.21
658.383	31.88
658.711	31.37
659.038	31.32
659.365	31.47
659.693	31.17
660.02	31.68
660.347	31.63
660.674	31.33
661.001	31.38
661.329	31.42
661.656	31.72
661.982	31.63
662.309	31.34
662.636	31.77
662.963	31.15
663.29	31.69
663.616	31.34
663.943	31.65
664.27	32.03
664.596	32.08
664.923	31.26
665.249	31.86
665.576	31.68
665.902	31.64
666.228	32.15
666.554	31.83
666.881	31.81
667.207	31.51
667.533	31.71
667.859	31.73
668.185	32.04
668.511	31.97
668.837	31.71
669.162	32
669.488	31.54
669.814	31.39
670.139	31.72
670.465	32.1
670.791	32.09
671.116	31.93
671.442	31.78
671.767	32.42
672.092	31.93
672.418	31.62
672.743	32.13
673.068	32.18
673.393	32.36
673.718	32.29
674.043	32.6
674.368	32.08
674.693	32.26
675.018	31.99
675.343	32.32
675.667	32.23
675.992	32.12
676.317	32.6
676.641	32.75
676.966	32.6
677.29	32.15
677.615	32.7
677.939	32.53
678.264	32.25
678.588	32.86
678.912	32.59
679.236	32.77
679.56	32.58
679.885	32.4
680.209	32.7
680.532	32.03
680.856	32.39
681.18	32.97
681.504	32.37
681.828	32.18
682.152	33.05
682.475	32.66
682.799	32.61
683.122	32.77
683.446	32.48
683.769	33.12
684.093	32.97
684.416	33.09
684.739	32.87
685.062	32.72
685.386	32.64
685.709	32.49
686.032	32.45
686.355	33.57
686.678	33.26
687.001	33.65
687.324	32.9
687.646	32.88
687.969	32.86
688.292	33.16
688.614	32.78
688.937	32.48
689.26	32.53
689.582	33.69
689.904	32.79
690.227	33.53
690.549	33.62
690.871	33.33
691.194	32.99
691.516	33.9
691.838	33.5
692.16	33.42
692.482	33.93
692.804	33.31
693.126	34.07
693.448	33.89
693.769	33.27
694.091	33.93
694.413	33.55
694.735	33.73
695.056	33.35
695.378	33.78
695.699	34.01
696.021	34.7
696.342	33.33
696.663	33.53
696.984	33.27
697.306	33.38
697.627	33.84
697.948	33.95
698.269	33.98
698.59	33.53
698.911	33.23
699.232	33.44
699.553	33.02
699.873	34.24
700.194	33.3
700.515	33.6
700.835	33.75
701.156	33.99
701.477	34.17
701.797	33.74
702.117	33.81
702.438	34.14
702.758	33.97
703.078	34.03
703.398	33.9
703.719	33.68
704.039	33.53
704.359	32.85
704.679	33.45
704.999	33.86
705.319	33.54
705.638	34.04
705.958	33.71
706.278	34.51
706.597	33.57
706.917	33.74
707.237	34.2
707.556	34.05
707.876	35.16
708.195	33.91
708.514	34.27
708.834	34.03
709.153	35
709.472	34.07
709.791	34.63
710.11	34.23
710.429	33.88
710.748	34.76
711.067	34.2
711.386	34.43
711.705	34.37
712.023	34.24
712.342	34.81
712.661	34.77
712.979	34.41
713.298	34.59
713.616	34.41
713.935	35.18
714.253	33.84
714.572	33.91
714.89	34.65
715.208	34.07
715.526	33.92
715.844	35.62
716.162	34.76
716.48	34.77
716.798	33.98
717.116	34.1
717.434	34.64
717.752	35.42
718.069	34.89
718.387	34.81
718.705	33
719.022	35.76
719.34	35.22
719.657	34.02
719.975	34.35
720.292	34.48
720.609	34.96
720.927	35.74
721.244	34.62
721.561	35.5
721.878	35.49
722.195	33.14
722.512	35.21
722.829	35.28
723.146	34.13
723.463	34.88
723.779	35.01
724.096	34.1
724.413	34.31
724.729	33.19
725.046	35.02
725.362	34.74
725.679	34.69
725.995	34.08
726.311	33.62
726.628	34.98
726.944	35.14
727.26	36.26
727.576	34.85
727.892	34.61
728.208	35.64
728.524	34.61
728.84	34.56
729.156	34.97
729.472	34.67
729.787	34.85
730.103	34.11
730.419	35.72
730.734	34.33
731.05	34.17
731.365	33.77
731.681	33.69
731.996	34.04
732.311	36.04
732.626	33.94
732.942	35.09
733.257	35.1
733.572	36.26
733.887	35.57
734.202	34.33
734.517	34.6
734.832	36.13
735.146	35.39
735.461	35.37
735.776	35.31
736.091	36.2
736.405	36.7
736.72	34.86
737.034	34.88
737.349	36.36
737.663	35.23
737.977	35.31
738.292	35.34
738.606	35.25
738.92	35.04
739.234	35.69
739.548	35.37
739.862	34.99
740.176	35.95
740.49	34.52
740.804	33.36
741.117	36.34
741.431	35.5
741.745	36.29
742.058	36.2
742.372	35.43
742.685	35.29
742.999	36
743.312	35.89
743.626	35.17
743.939	35.73
744.252	34.88
744.565	35.55
744.878	35.97
745.191	35.5
745.505	35.54
745.817	38.01
746.13	34.63
746.443	35.26
746.756	35.84
747.069	34.41
747.381	37.29
747.694	35.14
748.007	35.9
748.319	36.62
748.632	36.73
748.944	36.84
749.256	34.68
749.569	36.51
749.881	37.4
750.193	36.69
750.505	35.98
750.817	34.22
751.129	36.86
751.441	36.71
751.753	37.14
752.065	36.67
752.377	35.06
752.689	36.39
753	37.08
753.312	34.85
753.624	35.09
753.935	36.28
754.247	36.49
754.558	36.89
754.869	35.29
755.181	37.03
755.492	34.05
755.803	34.89
756.114	35.59
756.425	36.28
756.736	35.43
757.047	36.27
757.358	35.15
757.669	38.35
757.98	37.5
758.291	35.41
758.601	35.57
758.912	34.59
759.223	35.05
759.533	35.49
759.844	36.81
760.154	37.57
760.464	36.79
760.775	34.22
761.085	35.53
761.395	36.21
761.705	37.55
762.016	36.63
762.326	37.94
762.636	37.29
762.945	37.4
763.255	35.34
763.565	36.05
763.875	39.85
764.185	38.33
764.494	37.05
764.804	36.76
765.113	35.42
765.423	37.95
765.732	37.64
766.042	37.52
766.351	37.33
766.66	37.03
766.97	37.12
767.279	36.68
767.588	37.65
767.897	35.48
768.206	36.47
768.515	37.02
768.824	35.42
769.133	36.61
769.441	36.1
769.75	34.89
770.059	36.11
770.367	37.11
770.676	34.83
770.984	37.02
771.293	37.94
771.601	36.45
771.91	37.18
772.218	37.96
772.526	33.88
772.834	36.48
773.142	35.35
773.45	34.74
773.758	38.67
774.066	33.45
774.374	35.17
774.682	37.58
774.99	36.35
775.298	38.57
775.605	36.86
775.913	36.16
776.22	35.96
776.528	38.6
776.835	37.21
777.143	36.71
777.45	36.36
777.757	35.41
778.065	36.9
778.372	36.78
778.679	35.96
778.986	34.22
779.293	35.46
779.6	35.53
779.907	38.15
780.214	34.94
780.52	35.66
780.827	36.76
781.134	37.76
781.44	35.17
781.747	34.72
782.053	38.09
782.36	38.45
782.666	35.74
782.973	33.94
783.279	34.5
783.585	37.4
783.891	36.18
784.197	35.86
784.503	35.55
784.809	36.86
785.115	37.62
785.421	36.12
785.727	34.31
786.033	33.69
786.339	36.41
786.644	33.21
786.95	35.35
787.255	36.56
787.561	36.29
787.866	37.57
788.172	33.61
788.477	36.58
788.782	38.91
789.088	36.31
789.393	37.32
789.698	35.9
790.003	36.35
790.308	36.11
790.613	36.68
790.918	35.11
791.223	37.36
791.527	37.66
791.832	37.09
792.137	38.53
792.441	34.85
792.746	36.11
793.05	34.56
793.355	36.35
793.659	34.47
793.963	40.66
794.268	37.52
794.572	33.86
794.876	34.27
795.18	38.76
795.484	36.55
795.788	38.77
796.092	37.11
796.396	34.57
796.7	35.99
797.004	37.92
797.307	36.97
797.611	39.61
797.915	37.82
798.218	40.62
798.522	36.56
798.825	33.19
799.128	40.21
799.432	38.1
799.735	36.32
800.038	38.49
800.341	36.83
800.644	37.5
800.947	35.8
801.25	35.64
801.553	39.05
801.856	36.66
802.159	36.54
802.462	40.23
802.764	41.16
803.067	39.85
803.37	34.03
803.672	39.21
803.975	40.58
804.277	33.02
804.579	36.76
804.882	36.97
805.184	32.03
805.486	38.08
805.788	35.02
806.09	35.6
806.392	32.32
806.694	34.06
806.996	40.85
807.298	33.12
807.6	37.26
807.902	31.45
808.203	35.42
808.505	34.94
808.807	35.94
809.108	33.96
809.409	37.2
809.711	33.3
810.012	34.69
810.313	40.05
810.615	39.24
810.916	35.5
811.217	35.12
811.518	30.23
811.819	41.81
812.12	38.87
812.421	34.63
812.722	35.48
813.023	33.06
813.323	37.37
813.624	36.31
813.925	33.69
814.225	37.01
814.526	32.97
814.826	38.15
815.126	35.42
815.427	35.5
815.727	35.35
816.027	35.35
816.327	34.51
816.627	31.75
816.927	36.48
817.227	35.72
817.527	35.4
817.827	29.76
818.127	36.28
818.427	32.69
818.727	31.66
819.026	29.47
819.326	33.59
819.625	35.57
819.925	41
820.224	32.83
820.524	34.78
820.823	39.09
821.122	38.08
821.421	35.12
821.72	35.72
822.019	34.46
822.318	38.56
822.617	33.01
822.916	35
823.215	37.43
823.514	37.14
823.813	38.73
824.111	39.37
824.41	39.88
824.709	37.85
825.007	39.42
825.306	38.89
825.604	38.9
825.902	39.87
826.201	39.68
826.499	39.15
826.797	39.97
827.095	39.76
827.393	38.52
827.691	40.59
827.989	37.82
828.287	39.06
828.585	41.47
828.882	37.41
829.18	37.37
829.478	39.22
829.775	40.57
830.073	37.7
830.37	40.11
830.668	39.92
830.965	40.35
831.263	39.9
831.56	36.99
831.857	36.79
832.154	38.39
832.451	42.14
832.748	37.28
833.045	36.24
833.342	40.41
833.639	40.79
833.936	37.24
834.232	44.66
834.529	34.08
834.826	34.25
835.122	36.49
835.419	38.9
835.715	37.82
836.012	35.91
836.308	38.71
836.604	37.52
836.901	41.15
837.197	38.22
837.493	38.03
837.789	41.19
838.085	38.62
838.381	37
838.677	38.1
838.972	36.07
839.268	37.52
839.564	32.22
839.86	37.27
840.155	30.37
840.451	35.96
840.746	36
841.042	36.63
841.337	30.76
841.632	34.49
841.928	39.29
842.223	28.51
842.518	33
842.813	30.77
843.108	36.96
843.403	36.61
843.698	32.93
843.993	25.23
844.287	32.57
844.582	40.64
844.877	28.89
845.171	43.36
845.466	40.25
845.761	23.49
846.055	35.1
846.349	36.09
846.644	33.91
846.938	26.43
847.232	22.44
847.526	28.44
847.82	32.84
848.114	31.2
848.408	36.25
848.702	20.18
848.996	36.38
849.29	25.16
849.584	36.3
849.877	35.76
850.171	32.39
850.465	28.07
850.758	21.08
851.052	34.51
851.345	30.81
851.638	43.59
851.932	37.24
852.225	41.92
852.518	34.37
852.811	4.71
853.104	23.3
853.397	21.87
853.69	17.07
853.983	13.08
854.276	19.31
854.569	30.06
854.861	42.3
855.154	0.3
855.447	28.06
855.739	39.48
856.032	30.89
856.324	18.84
856.616	28.65
856.909	28.31
857.201	33.68
857.493	35.7
857.785	30.99
858.077	36.5
858.369	22.4
858.661	31.8
858.953	47.64
859.245	35.42
859.537	11.33
859.829	9.29
860.12	28.64
860.412	18.23
860.703	33.3
860.995	31.99
861.286	19.73
861.578	28.81
861.869	32.64
862.16	12.11
862.452	17.89
862.743	17.87
863.034	25.5
863.325	53.42
863.616	29.3
863.907	28.04
864.198	51.06
864.488	33.14
864.779	14.78
865.07	22.28
865.36	27.47
865.651	38.42
865.941	28.98
866.232	19.05
866.522	-21.98
866.813	2.8
867.103	13.51
867.393	40.98
867.683	16.02
867.973	21.44
868.263	21.27
868.553	32.62
868.843	32.47
869.133	13.34
869.423	36.19
869.713	13.08
870.002	11.58
870.292	36.33
870.582	37.36
870.871	20.91
871.161	64.59
871.45	11.72
871.739	30.49
872.029	18.21
872.318	28.08
872.607	18.27
872.896	1.62
873.185	39.93
873.474	6.35
873.763	19.86
874.052	12.89
874.341	19.62
874.63	29.75
874.918	36.38
875.207	4.98
875.496	38.87
875.784	29.81
876.073	15.78
876.361	2.05
876.649	8.64
876.938	30.04
877.226	28.37
877.514	27.72
877.802	9.41
878.09	16.74
878.378	41.15
878.666	-4.08
878.954	24.75
879.242	1.67
879.53	34.01
879.817	46.51
880.105	19.75
880.392	30.93
880.68	14.7
880.967	-0
881.255	9.63
881.542	21.87
881.83	36.28
882.117	2.24
882.404	29.71
882.691	45.28
882.978	28.63
883.265	5.14
883.552	10.62
883.839	25.21
884.126	31.38
884.413	38.12
884.699	29.1
884.986	41.48
885.273	30.89
885.559	30.89
885.846	30.89
