Data from 1610-3_crown_Reflection__4__135.txt Node

Date: Fri Nov 11 17:09:22 CST 2022
User: ToomeyLab
Spectrometer: FLMS14357
Trigger mode: 0
Integration Time (sec): 1.000000E-2
Scans to average: 100
Electric dark correction enabled: true
Nonlinearity correction enabled: false
Boxcar width: 0
XAxis mode: Wavelengths
Number of Pixels in Spectrum: 2048
>>>>>Begin Spectral Data<<<<<
189.047	86.65
189.435	86.65
189.823	86.65
190.211	-253.97
190.599	53.4
190.987	-824.24
191.375	379.71
191.763	80.94
192.151	-35.16
192.538	-126.19
192.926	-40.22
193.314	55.44
193.702	20.5
194.089	-718.84
194.477	-234.86
194.864	198.04
195.252	20.67
195.639	96.3
196.027	12.84
196.414	47.02
196.801	-27.72
197.189	168.91
197.576	-267.5
197.963	-28.48
198.351	-82.32
198.738	-41.81
199.125	15.32
199.512	-11.56
199.899	14.27
200.286	-11.77
200.673	5.51
201.06	-27.22
201.447	7.46
201.833	8.59
202.22	10.81
202.607	4.84
202.994	0.29
203.38	35.9
203.767	10.01
204.154	-11.6
204.54	32.76
204.927	11.9
205.313	2.41
205.699	-2.92
206.086	-5.47
206.472	-31.94
206.858	12.09
207.245	3.39
207.631	11.85
208.017	-12.37
208.403	-16.44
208.789	-23.07
209.175	-12.43
209.561	12.6
209.947	-18.13
210.333	32.32
210.719	7.91
211.105	15.7
211.491	-89.38
211.876	9.21
212.262	-17.32
212.648	-14.64
213.034	-30.82
213.419	-21.75
213.805	12.29
214.19	-83.61
214.576	-2.87
214.961	9.82
215.346	-60.06
215.732	-26.73
216.117	-4.42
216.502	-13.21
216.888	2.19
217.273	14.23
217.658	-4.78
218.043	-15.99
218.428	-45.33
218.813	-1.14
219.198	-20.32
219.583	-33.56
219.968	-3.71
220.353	-37.36
220.738	-19.47
221.122	0.66
221.507	17
221.892	18.3
222.276	18.89
222.661	-1.24
223.046	5.13
223.43	-2.03
223.815	3.14
224.199	3.82
224.583	0
224.968	11.7
225.352	-3.67
225.736	1.37
226.121	5.6
226.505	4.17
226.889	0.5
227.273	0.37
227.657	-9.86
228.041	-0.38
228.425	0.45
228.809	4.86
229.193	-3.11
229.577	3.48
229.961	1.63
230.344	2.61
230.728	2.64
231.112	2.97
231.495	3.51
231.879	1.47
232.263	-0.24
232.646	1
233.03	2.56
233.413	2.94
233.797	3.15
234.18	2.25
234.563	1.36
234.946	0.22
235.33	2.46
235.713	1.68
236.096	0.54
236.479	2.91
236.862	4.72
237.245	1.89
237.628	1.56
238.011	2.31
238.394	4.37
238.777	1.68
239.16	1.46
239.543	1.78
239.925	2.71
240.308	-0.41
240.691	1.19
241.073	1.89
241.456	2.29
241.838	1.7
242.221	2.02
242.603	2.43
242.986	2.01
243.368	2.3
243.75	2.31
244.133	2.4
244.515	2.53
244.897	1.98
245.279	1.66
245.661	1.75
246.043	3.25
246.425	2.23
246.807	1.77
247.189	2.22
247.571	1.57
247.953	2.57
248.335	2.67
248.717	2.44
249.098	2.53
249.48	2.52
249.862	2.3
250.243	1.68
250.625	2.04
251.006	2.96
251.388	2.56
251.769	3.02
252.151	1.71
252.532	2.15
252.913	2.5
253.295	1.61
253.676	1.8
254.057	2.36
254.438	2.93
254.819	1.96
255.2	2.64
255.581	2.87
255.962	2.76
256.343	2.04
256.724	2.47
257.105	1.78
257.486	1.78
257.867	1.2
258.247	1.67
258.628	1.69
259.009	2.12
259.389	2.55
259.77	3.03
260.15	2.61
260.531	1.99
260.911	2.23
261.292	2.44
261.672	2.23
262.052	2.34
262.432	2.81
262.813	2.51
263.193	2.09
263.573	2.65
263.953	2.23
264.333	2.33
264.713	2.25
265.093	2.3
265.473	3.28
265.853	1.59
266.233	2.51
266.612	2.16
266.992	2.04
267.372	2.34
267.752	2.95
268.131	2.02
268.511	2.3
268.89	2.71
269.27	2.07
269.649	2.04
270.029	1.67
270.408	2.57
270.787	2.89
271.167	1.88
271.546	2.88
271.925	2.45
272.304	2.84
272.683	2.39
273.062	2.33
273.441	2.24
273.82	2.09
274.199	2.36
274.578	2.35
274.957	1.76
275.336	2.48
275.715	2.15
276.093	2.96
276.472	2.42
276.851	2.28
277.229	2.66
277.608	2.3
277.986	2.26
278.365	2.73
278.743	1.56
279.122	1.79
279.5	2.01
279.878	1.88
280.257	2.37
280.635	1.92
281.013	1.82
281.391	1.88
281.769	2.93
282.147	1.6
282.525	1.83
282.903	2.25
283.281	2.16
283.659	1.89
284.037	2.03
284.415	2.3
284.792	2.44
285.17	1.91
285.548	2.2
285.925	2.47
286.303	1.99
286.68	2.05
287.058	2.05
287.435	2.69
287.813	2.03
288.19	2.59
288.567	2.34
288.945	1.66
289.322	1.96
289.699	2.16
290.076	2.13
290.453	2.04
290.83	2.01
291.207	2.18
291.584	1.56
291.961	2.06
292.338	2.44
292.715	2.02
293.092	1.79
293.469	2.44
293.845	2.41
294.222	2.65
294.599	2.53
294.975	1.81
295.352	2
295.728	2.16
296.105	2.01
296.481	1.87
296.858	2.14
297.234	2.32
297.61	2.1
297.986	1.53
298.363	2
298.739	2.24
299.115	2.11
299.491	1.98
299.867	1.67
300.243	1.92
300.619	2.23
300.995	1.81
301.371	1.7
301.746	2.33
302.122	1.81
302.498	1.89
302.874	2.11
303.249	1.78
303.625	2.26
304	1.98
304.376	2.31
304.751	2.92
305.127	2.32
305.502	2.29
305.878	2.43
306.253	2.06
306.628	2.26
307.003	2
307.378	2.43
307.754	2.17
308.129	2.64
308.504	1.85
308.879	1.69
309.254	1.47
309.629	2.02
310.003	2.15
310.378	1.41
310.753	2.09
311.128	2.06
311.502	1.69
311.877	1.95
312.252	1.65
312.626	1.79
313.001	2.2
313.375	2.14
313.75	2.5
314.124	1.95
314.498	2.15
314.873	2.24
315.247	1.96
315.621	2.03
315.995	1.74
316.369	2
316.743	2.11
317.117	2.09
317.491	1.82
317.865	1.53
318.239	1.76
318.613	1.53
318.987	1.82
319.361	1.78
319.734	1.72
320.108	2.11
320.482	1.7
320.855	1.91
321.229	2.52
321.602	1.7
321.976	1.6
322.349	1.55
322.723	1.94
323.096	1.92
323.469	2.23
323.843	2.28
324.216	1.43
324.589	1.67
324.962	2.07
325.335	2.21
325.708	2.2
326.081	1.51
326.454	1.79
326.827	2.12
327.2	1.75
327.573	2.17
327.945	1.99
328.318	2.02
328.691	2.3
329.063	2
329.436	2.05
329.809	1.57
330.181	2.05
330.553	1.95
330.926	1.77
331.298	1.61
331.671	1.81
332.043	2.26
332.415	1.67
332.787	2.33
333.159	2.36
333.532	1.53
333.904	1.87
334.276	2.3
334.648	1.51
335.02	2.4
335.391	2.41
335.763	1.93
336.135	1.64
336.507	2.44
336.879	2.07
337.25	1.16
337.622	1.84
337.993	2.19
338.365	2.1
338.736	2.07
339.108	2.04
339.479	1.62
339.851	1.72
340.222	1.8
340.593	1.66
340.964	2.24
341.336	1.65
341.707	1.47
342.078	1.66
342.449	2.41
342.82	1.64
343.191	2.27
343.562	2.12
343.933	1.69
344.303	2.53
344.674	2.05
345.045	1.88
345.416	1.91
345.786	2.12
346.157	2.02
346.527	1.86
346.898	1.87
347.268	2.09
347.639	2.32
348.009	2.11
348.38	1.95
348.75	2.33
349.12	1.56
349.49	2.11
349.861	1.56
350.231	2
350.601	2.35
350.971	2.09
351.341	1.84
351.711	1.79
352.081	1.45
352.45	2.04
352.82	2.2
353.19	2.19
353.56	2.17
353.929	2.36
354.299	2.3
354.669	2.11
355.038	1.78
355.408	1.85
355.777	2.08
356.147	1.98
356.516	2.12
356.885	1.99
357.254	1.83
357.624	2.04
357.993	2.1
358.362	1.97
358.731	2.01
359.1	1.93
359.469	2.1
359.838	2.21
360.207	2.14
360.576	2.17
360.945	2.34
361.314	2.24
361.682	2.05
362.051	1.96
362.42	1.97
362.788	2.01
363.157	2.04
363.525	2.2
363.894	2.05
364.262	1.93
364.631	2.13
364.999	1.91
365.367	2.35
365.735	2.03
366.104	1.78
366.472	2.17
366.84	1.82
367.208	2.09
367.576	2.12
367.944	2.42
368.312	2.1
368.68	2.25
369.048	2.07
369.416	2.06
369.783	1.86
370.151	2.04
370.519	2.51
370.886	2.1
371.254	1.83
371.621	2.24
371.989	1.83
372.356	1.84
372.724	2.2
373.091	1.99
373.458	1.96
373.826	2.39
374.193	2.05
374.56	2.26
374.927	1.83
375.294	2.21
375.661	2.66
376.028	2.47
376.395	2.22
376.762	2.15
377.129	2.33
377.496	2.11
377.863	2.04
378.229	2.05
378.596	2.09
378.963	1.99
379.329	2.05
379.696	2.07
380.062	2.06
380.429	1.89
380.795	2.04
381.161	2.52
381.528	2.34
381.894	2.27
382.26	2.18
382.626	2.06
382.993	2.27
383.359	2.14
383.725	2.21
384.091	1.94
384.457	2.29
384.823	2.16
385.188	2.06
385.554	2.33
385.92	2.01
386.286	1.94
386.651	1.92
387.017	2.35
387.383	2.14
387.748	1.88
388.114	2.1
388.479	2.19
388.845	2.11
389.21	2.15
389.575	2.14
389.94	2.39
390.306	2.11
390.671	2.03
391.036	2.08
391.401	2.02
391.766	2.12
392.131	1.71
392.496	2.32
392.861	2.1
393.226	2.14
393.591	2.17
393.956	2.24
394.32	2.45
394.685	2.48
395.05	2.22
395.414	2.32
395.779	2.06
396.143	2.18
396.508	2.24
396.872	2.34
397.236	2.26
397.601	2.27
397.965	2.23
398.329	2.17
398.694	1.95
399.058	1.99
399.422	2.25
399.786	2.39
400.15	2
400.514	2.01
400.878	2.15
401.242	2.18
401.605	2.22
401.969	2.39
402.333	2.35
402.697	2.06
403.06	2.34
403.424	1.99
403.787	2.15
404.151	2.32
404.514	2.22
404.878	2.28
405.241	2.07
405.604	2.13
405.968	2.23
406.331	2.18
406.694	2.37
407.057	2.11
407.42	2.2
407.783	2.12
408.146	2.23
408.509	2.44
408.872	2.46
409.235	2.25
409.598	2.22
409.961	2.25
410.323	2.16
410.686	2.31
411.049	2.27
411.411	2.1
411.774	2.08
412.136	2.11
412.499	2.15
412.861	2.25
413.223	2.14
413.586	2.16
413.948	2.12
414.31	2.36
414.672	2.17
415.035	2.25
415.397	2.37
415.759	2.23
416.121	2.35
416.483	2.17
416.845	2.32
417.206	2.35
417.568	2.15
417.93	2.2
418.292	2.03
418.653	2.12
419.015	2.19
419.377	2.34
419.738	2.43
420.1	2.24
420.461	2.12
420.822	2.13
421.184	2.22
421.545	2.19
421.906	2.21
422.267	2.22
422.629	2.27
422.99	2.29
423.351	2.26
423.712	2.22
424.073	2.27
424.434	2.16
424.795	2.39
425.155	2.27
425.516	2.17
425.877	2.26
426.238	2.22
426.598	2.27
426.959	2.17
427.32	2.27
427.68	2.23
428.041	2.35
428.401	2.13
428.761	2.26
429.122	2.41
429.482	2.27
429.842	2.31
430.202	2.29
430.563	2.31
430.923	2.22
431.283	2.18
431.643	2.36
432.003	2.42
432.363	2.37
432.722	2.46
433.082	2.3
433.442	2.4
433.802	2.45
434.161	2.28
434.521	2.34
434.881	2.12
435.24	2.47
435.6	2.21
435.959	2.42
436.319	2.35
436.678	2.2
437.037	2.33
437.396	2.23
437.756	2.23
438.115	2.21
438.474	2.13
438.833	2.31
439.192	2.36
439.551	2.2
439.91	2.27
440.269	2.28
440.628	2.35
440.987	2.41
441.345	2.39
441.704	2.32
442.063	2.42
442.421	2.25
442.78	2.34
443.138	2.25
443.497	2.21
443.855	2.25
444.214	2.31
444.572	2.36
444.93	2.32
445.288	2.41
445.647	2.17
446.005	2.25
446.363	2.19
446.721	2.27
447.079	2.24
447.437	2.29
447.795	2.28
448.153	2.29
448.51	2.32
448.868	2.34
449.226	2.27
449.584	2.33
449.941	2.3
450.299	2.36
450.656	2.46
451.014	2.4
451.371	2.3
451.729	2.33
452.086	2.32
452.443	2.49
452.801	2.35
453.158	2.23
453.515	2.32
453.872	2.3
454.229	2.4
454.586	2.32
454.943	2.37
455.3	2.3
455.657	2.36
456.014	2.26
456.371	2.22
456.727	2.43
457.084	2.37
457.441	2.33
457.797	2.24
458.154	2.22
458.51	2.35
458.867	2.38
459.223	2.22
459.58	2.52
459.936	2.42
460.292	2.42
460.648	2.34
461.005	2.47
461.361	2.28
461.717	2.21
462.073	2.38
462.429	2.34
462.785	2.41
463.141	2.39
463.496	2.4
463.852	2.28
464.208	2.45
464.564	2.38
464.919	2.2
465.275	2.31
465.631	2.34
465.986	2.4
466.342	2.5
466.697	2.44
467.052	2.35
467.408	2.47
467.763	2.44
468.118	2.27
468.473	2.37
468.829	2.43
469.184	2.5
469.539	2.49
469.894	2.44
470.249	2.34
470.603	2.27
470.958	2.54
471.313	2.56
471.668	2.4
472.023	2.43
472.377	2.53
472.732	2.46
473.086	2.3
473.441	2.32
473.795	2.45
474.15	2.4
474.504	2.5
474.859	2.53
475.213	2.38
475.567	2.55
475.921	2.49
476.275	2.57
476.63	2.44
476.984	2.46
477.338	2.42
477.692	2.37
478.045	2.35
478.399	2.23
478.753	2.48
479.107	2.41
479.461	2.52
479.814	2.54
480.168	2.5
480.521	2.56
480.875	2.47
481.228	2.48
481.582	2.46
481.935	2.38
482.289	2.39
482.642	2.46
482.995	2.44
483.348	2.36
483.701	2.43
484.055	2.34
484.408	2.36
484.761	2.25
485.114	2.22
485.466	2.15
485.819	2.19
486.172	2.27
486.525	2.31
486.878	2.38
487.23	2.44
487.583	2.45
487.936	2.44
488.288	2.34
488.641	2.39
488.993	2.28
489.345	2.25
489.698	2.33
490.05	2.31
490.402	2.38
490.754	2.46
491.107	2.4
491.459	2.49
491.811	2.43
492.163	2.39
492.515	2.38
492.866	2.31
493.218	2.21
493.57	2.27
493.922	2.34
494.274	2.44
494.625	2.41
494.977	2.45
495.328	2.4
495.68	2.36
496.031	2.45
496.383	2.52
496.734	2.34
497.086	2.42
497.437	2.53
497.788	2.5
498.139	2.37
498.49	2.42
498.842	2.45
499.193	2.4
499.544	2.5
499.894	2.61
500.245	2.43
500.596	2.52
500.947	2.45
501.298	2.49
501.648	2.55
501.999	2.47
502.35	2.47
502.7	2.56
503.051	2.41
503.401	2.4
503.752	2.5
504.102	2.52
504.452	2.48
504.803	2.43
505.153	2.44
505.503	2.41
505.853	2.46
506.203	2.64
506.553	2.6
506.903	2.54
507.253	2.59
507.603	2.54
507.953	2.53
508.303	2.49
508.652	2.43
509.002	2.53
509.352	2.58
509.701	2.51
510.051	2.47
510.4	2.45
510.75	2.43
511.099	2.44
511.449	2.44
511.798	2.48
512.147	2.54
512.496	2.53
512.846	2.51
513.195	2.45
513.544	2.52
513.893	2.52
514.242	2.54
514.591	2.48
514.939	2.54
515.288	2.5
515.637	2.4
515.986	2.61
516.334	2.47
516.683	2.6
517.032	2.52
517.38	2.45
517.729	2.6
518.077	2.42
518.426	2.55
518.774	2.44
519.122	2.46
519.47	2.35
519.819	2.39
520.167	2.38
520.515	2.36
520.863	2.53
521.211	2.55
521.559	2.53
521.907	2.55
522.255	2.58
522.602	2.52
522.95	2.59
523.298	2.55
523.645	2.5
523.993	2.54
524.341	2.54
524.688	2.55
525.036	2.6
525.383	2.41
525.73	2.53
526.078	2.54
526.425	2.44
526.772	2.42
527.119	2.48
527.466	2.42
527.814	2.43
528.161	2.44
528.508	2.46
528.854	2.41
529.201	2.49
529.548	2.43
529.895	2.28
530.242	2.28
530.588	2.31
530.935	2.36
531.282	2.51
531.628	2.47
531.975	2.53
532.321	2.46
532.667	2.49
533.014	2.57
533.36	2.39
533.706	2.47
534.052	2.51
534.399	2.42
534.745	2.37
535.091	2.32
535.437	2.4
535.783	2.42
536.129	2.47
536.474	2.53
536.82	2.46
537.166	2.52
537.512	2.55
537.857	2.55
538.203	2.39
538.549	2.41
538.894	2.45
539.239	2.57
539.585	2.49
539.93	2.54
540.276	2.53
540.621	2.57
540.966	2.56
541.311	2.54
541.656	2.31
542.001	2.49
542.346	2.47
542.691	2.38
543.036	2.41
543.381	2.31
543.726	2.43
544.071	2.51
544.415	2.5
544.76	2.49
545.105	2.52
545.449	2.52
545.794	2.5
546.138	2.54
546.483	2.54
546.827	2.52
547.171	2.48
547.516	2.4
547.86	2.47
548.204	2.35
548.548	2.38
548.892	2.53
549.236	2.55
549.58	2.52
549.924	2.61
550.268	2.64
550.612	2.61
550.956	2.67
551.3	2.66
551.643	2.63
551.987	2.42
552.33	2.54
552.674	2.44
553.017	2.53
553.361	2.54
553.704	2.38
554.048	2.48
554.391	2.53
554.734	2.48
555.077	2.56
555.42	2.46
555.764	2.59
556.107	2.49
556.45	2.52
556.793	2.57
557.135	2.58
557.478	2.5
557.821	2.58
558.164	2.59
558.507	2.67
558.849	2.51
559.192	2.58
559.534	2.52
559.877	2.8
560.219	2.71
560.562	2.53
560.904	2.51
561.246	2.4
561.589	2.63
561.931	2.76
562.273	2.65
562.615	2.58
562.957	2.67
563.299	2.76
563.641	2.52
563.983	2.56
564.325	2.54
564.667	2.63
565.008	2.5
565.35	2.76
565.692	2.46
566.033	2.6
566.375	2.61
566.716	2.61
567.058	2.44
567.399	2.56
567.741	2.64
568.082	2.47
568.423	2.58
568.764	2.51
569.105	2.56
569.447	2.63
569.788	2.52
570.129	2.56
570.47	2.44
570.811	2.49
571.151	2.7
571.492	2.66
571.833	2.52
572.174	2.53
572.514	2.71
572.855	2.48
573.195	2.59
573.536	2.64
573.876	2.54
574.217	2.48
574.557	2.48
574.898	2.46
575.238	2.61
575.578	2.57
575.918	2.43
576.258	2.65
576.598	2.6
576.938	2.56
577.278	2.73
577.618	2.66
577.958	2.63
578.298	2.76
578.638	2.66
578.977	2.55
579.317	2.48
579.657	2.61
579.996	2.77
580.336	2.68
580.675	2.39
581.014	2.65
581.354	2.53
581.693	2.52
582.032	2.71
582.372	2.76
582.711	2.63
583.05	2.65
583.389	2.8
583.728	2.57
584.067	2.54
584.406	2.55
584.745	2.54
585.083	2.63
585.422	2.47
585.761	2.75
586.1	2.63
586.438	2.45
586.777	2.58
587.115	2.6
587.454	2.96
587.792	2.69
588.13	2.96
588.469	2.6
588.807	2.77
589.145	2.77
589.483	2.47
589.821	2.37
590.159	2.64
590.497	2.68
590.835	2.48
591.173	2.69
591.511	2.66
591.849	2.58
592.187	2.62
592.524	2.65
592.862	2.83
593.2	2.67
593.537	2.28
593.875	2.61
594.212	2.64
594.55	2.72
594.887	2.68
595.224	2.61
595.561	2.73
595.899	2.48
596.236	2.64
596.573	2.35
596.91	2.6
597.247	2.62
597.584	2.63
597.921	2.53
598.258	2.59
598.594	2.53
598.931	2.66
599.268	2.48
599.604	2.68
599.941	2.59
600.277	2.56
600.614	2.69
600.95	2.44
601.287	2.71
601.623	2.66
601.959	2.53
602.296	2.52
602.632	2.43
602.968	2.62
603.304	2.67
603.64	2.59
603.976	2.66
604.312	2.73
604.648	2.35
604.984	2.52
605.319	2.52
605.655	2.45
605.991	2.54
606.326	2.6
606.662	2.56
606.998	2.51
607.333	2.73
607.668	2.67
608.004	2.74
608.339	2.74
608.674	2.61
609.01	2.18
609.345	2.73
609.68	2.77
610.015	2.86
610.35	2.64
610.685	2.62
611.02	2.73
611.355	2.34
611.689	2.56
612.024	2.55
612.359	2.36
612.694	2.6
613.028	2.61
613.363	2.84
613.697	2.85
614.032	2.67
614.366	2.36
614.7	2.62
615.035	2.71
615.369	2.73
615.703	2.65
616.037	2.53
616.371	2.39
616.705	2.65
617.039	2.69
617.373	2.73
617.707	2.78
618.041	2.45
618.375	2.87
618.709	2.64
619.042	2.48
619.376	2.46
619.71	2.59
620.043	2.71
620.377	2.52
620.71	2.57
621.043	2.68
621.377	2.55
621.71	2.87
622.043	2.42
622.376	2.8
622.709	2.43
623.043	2.62
623.376	2.65
623.709	2.66
624.041	2.83
624.374	2.78
624.707	2.99
625.04	2.5
625.373	2.68
625.705	2.66
626.038	2.43
626.37	2.5
626.703	2.71
627.035	2.35
627.368	2.6
627.7	2.53
628.032	2.58
628.365	3.02
628.697	2.77
629.029	2.58
629.361	2.64
629.693	2.47
630.025	2.49
630.357	2.56
630.689	2.72
631.021	2.68
631.353	2.38
631.684	3.01
632.016	2.91
632.348	2.71
632.679	2.74
633.011	2.63
633.342	2.37
633.674	2.39
634.005	2.49
634.336	2.37
634.668	2.4
634.999	2.42
635.33	2.76
635.661	2.67
635.992	2.93
636.323	2.81
636.654	2.74
636.985	2.59
637.316	2.91
637.647	2.42
637.977	2.68
638.308	2.51
638.639	2.73
638.969	2.82
639.3	2.43
639.63	2.74
639.961	2.65
640.291	2.74
640.622	2.7
640.952	2.74
641.282	2.7
641.612	2.82
641.943	2.82
642.273	2.86
642.603	2.6
642.933	2.29
643.263	2.52
643.592	2.83
643.922	2.6
644.252	2.91
644.582	2.44
644.911	2.9
645.241	2.9
645.571	2.5
645.9	2.38
646.23	2.61
646.559	2.4
646.888	2.68
647.218	2.45
647.547	2.93
647.876	2.33
648.205	2.81
648.534	2.53
648.863	2.9
649.192	2.87
649.521	2.87
649.85	2.62
650.179	2.5
650.508	2.7
650.837	2.76
651.165	3.02
651.494	2.83
651.822	2.61
652.151	2.66
652.479	2.95
652.808	2.47
653.136	2.71
653.465	2.8
653.793	2.45
654.121	2.46
654.449	2.37
654.777	2.59
655.105	2.69
655.433	2.45
655.761	2.19
656.089	2.81
656.417	2.9
656.745	2.26
657.073	3.05
657.4	2.58
657.728	2.96
658.056	2.26
658.383	2.57
658.711	3.07
659.038	2.82
659.365	2.5
659.693	2.47
660.02	2.77
660.347	2.59
660.674	2.4
661.001	2.92
661.329	2.43
661.656	2.73
661.982	2.68
662.309	3.02
662.636	2.62
662.963	2.56
663.29	2.81
663.616	3.12
663.943	2.96
664.27	3.32
664.596	3.19
664.923	2.99
665.249	2.77
665.576	2.68
665.902	2.66
666.228	2.73
666.554	2.71
666.881	3
667.207	2.14
667.533	2.4
667.859	2.34
668.185	2.93
668.511	2.66
668.837	2.63
669.162	2.93
669.488	2.77
669.814	2.82
670.139	3.33
670.465	2.98
670.791	2.13
671.116	2.88
671.442	2.66
671.767	2.93
672.092	2.44
672.418	2.73
672.743	2.37
673.068	2.41
673.393	2.9
673.718	3.16
674.043	2.91
674.368	2.02
674.693	2.69
675.018	3.16
675.343	2.68
675.667	2.27
675.992	2.9
676.317	2.65
676.641	3.16
676.966	2.31
677.29	2.37
677.615	3.26
677.939	3.24
678.264	2.6
678.588	2.93
678.912	2.81
679.236	2.51
679.56	2.64
679.885	3.46
680.209	2.38
680.532	2.41
680.856	3.08
681.18	2.95
681.504	2.56
681.828	2.63
682.152	2.89
682.475	2.63
682.799	2.28
683.122	2.84
683.446	2.91
683.769	2.93
684.093	2.27
684.416	2.91
684.739	2.71
685.062	2.99
685.386	3.07
685.709	2.85
686.032	2.43
686.355	2.52
686.678	3.16
687.001	3
687.324	2.88
687.646	2.81
687.969	2.99
688.292	3.15
688.614	2.92
688.937	2.12
689.26	2.95
689.582	3.12
689.904	2.46
690.227	2.99
690.549	3.05
690.871	3.45
691.194	3.1
691.516	3.08
691.838	3.34
692.16	2.9
692.482	2.5
692.804	3.13
693.126	2.36
693.448	3.18
693.769	2.81
694.091	2.71
694.413	2.56
694.735	2.76
695.056	2.98
695.378	2.35
695.699	2.71
696.021	3.15
696.342	3.46
696.663	3.42
696.984	2.56
697.306	2.47
697.627	2.69
697.948	3.11
698.269	3.39
698.59	3.26
698.911	2.3
699.232	2.73
699.553	1.96
699.873	2.8
700.194	2.21
700.515	2.66
700.835	2.65
701.156	2.32
701.477	3.12
701.797	2.54
702.117	2.81
702.438	2.73
702.758	3.35
703.078	3
703.398	2.2
703.719	2.43
704.039	2.32
704.359	2.63
704.679	1.78
704.999	2.96
705.319	2.59
705.638	2.78
705.958	1.48
706.278	2.53
706.597	2.16
706.917	1.46
707.237	2.41
707.556	2.8
707.876	2.81
708.195	2.32
708.514	2.38
708.834	2.77
709.153	2.81
709.472	2.48
709.791	2.08
710.11	2.81
710.429	1.67
710.748	3.24
711.067	2.21
711.386	3.01
711.705	2.52
712.023	2.99
712.342	3.11
712.661	2.46
712.979	2.4
713.298	3.55
713.616	1.81
713.935	2.88
714.253	3.22
714.572	2.56
714.89	2.93
715.208	2.6
715.526	2.45
715.844	1.95
716.162	2.8
716.48	1.91
716.798	2.79
717.116	2.66
717.434	3.12
717.752	4
718.069	3.25
718.387	3.28
718.705	2.77
719.022	2.36
719.34	3.3
719.657	2.65
719.975	2.43
720.292	2.42
720.609	2.34
720.927	3.66
721.244	3.27
721.561	3.62
721.878	2.8
722.195	3.5
722.512	3.2
722.829	3
723.146	2.34
723.463	4.18
723.779	4.28
724.096	2.52
724.413	2.94
724.729	1.98
725.046	2.9
725.362	2.87
725.679	2.2
725.995	2.72
726.311	4.03
726.628	3.4
726.944	2.8
727.26	2.78
727.576	1.92
727.892	0.5
728.208	3.05
728.524	2.36
728.84	3.32
729.156	2.98
729.472	2.94
729.787	3.1
730.103	1.89
730.419	2.21
730.734	2.01
731.05	2.48
731.365	2.21
731.681	1.86
731.996	2.46
732.311	2.67
732.626	2.16
732.942	3.14
733.257	2.41
733.572	4.92
733.887	2.86
734.202	2.93
734.517	3.33
734.832	3.77
735.146	2.23
735.461	2.8
735.776	3.45
736.091	3.22
736.405	3.53
736.72	2.58
737.034	2.39
737.349	3.19
737.663	2.74
737.977	4.28
738.292	2.34
738.606	3.67
738.92	3.78
739.234	3.05
739.548	2.97
739.862	1.89
740.176	2.15
740.49	2.33
740.804	2.62
741.117	2.65
741.431	3.5
741.745	2.7
742.058	4.03
742.372	2.42
742.685	2.62
742.999	3.1
743.312	3.5
743.626	4.31
743.939	2.85
744.252	1.14
744.565	4.41
744.878	1.42
745.191	2.91
745.505	2.64
745.817	2.63
746.13	3.55
746.443	2.65
746.756	2.29
747.069	2.47
747.381	3.97
747.694	1.65
748.007	3.81
748.319	3.61
748.632	3.26
748.944	4.17
749.256	2.43
749.569	3.24
749.881	3.22
750.193	4.01
750.505	2.21
750.817	2.81
751.129	2.6
751.441	3.63
751.753	3.46
752.065	3.84
752.377	3.1
752.689	1.93
753	5.12
753.312	3.83
753.624	3.45
753.935	2.46
754.247	1.99
754.558	2.27
754.869	1.92
755.181	2.18
755.492	3.86
755.803	2.62
756.114	3.41
756.425	3.75
756.736	1.22
757.047	2.12
757.358	2.55
757.669	4.1
757.98	4.39
758.291	2.03
758.601	3.86
758.912	2.91
759.223	2.73
759.533	2.89
759.844	4.03
760.154	4.07
760.464	2.18
760.775	4.08
761.085	2.07
761.395	3.29
761.705	3.47
762.016	3.46
762.326	2.8
762.636	4.07
762.945	2.97
763.255	4.49
763.565	3.13
763.875	3.72
764.185	2.89
764.494	2.45
764.804	2.85
765.113	3.51
765.423	2.79
765.732	3.6
766.042	3.71
766.351	2.37
766.66	3.7
766.97	1.66
767.279	3.62
767.588	4.22
767.897	3.51
768.206	3.87
768.515	2.85
768.824	2.14
769.133	2.92
769.441	2.53
769.75	2.96
770.059	2.42
770.367	2.13
770.676	2.6
770.984	5.05
771.293	2.74
771.601	1.73
771.91	5.12
772.218	3.72
772.526	4.04
772.834	2.24
773.142	0.03
773.45	3.29
773.758	5.33
774.066	1.61
774.374	2.11
774.682	3
774.99	0.28
775.298	4.57
775.605	1.47
775.913	3
776.22	6.37
776.528	4.81
776.835	4.28
777.143	0.59
777.45	2.29
777.757	2.59
778.065	3.52
778.372	4.2
778.679	2.05
778.986	0.71
779.293	3.89
779.6	3.2
779.907	3.24
780.214	3.93
780.52	4.91
780.827	2.82
781.134	2.89
781.44	1.96
781.747	4.3
782.053	1.99
782.36	2.64
782.666	4.91
782.973	1.05
783.279	-1.59
783.585	3.33
783.891	1.16
784.197	1.31
784.503	1.66
784.809	3.12
785.115	3.24
785.421	0.16
785.727	-0.66
786.033	-0.45
786.339	1.94
786.644	1.46
786.95	0.06
787.255	4.18
787.561	5.75
787.866	0.73
788.172	2.9
788.477	1.63
788.782	1.82
789.088	-0.36
789.393	1.5
789.698	6.29
790.003	3.53
790.308	2.44
790.613	1.02
790.918	2.88
791.223	3
791.527	0.24
791.832	0.25
792.137	5.78
792.441	2.6
792.746	3.66
793.05	2.41
793.355	4.9
793.659	0.78
793.963	6.13
794.268	3.97
794.572	-0.82
794.876	1.38
795.18	0.63
795.484	3.2
795.788	5.64
796.092	3.54
796.396	1.39
796.7	2.88
797.004	1.88
797.307	0.19
797.611	3.08
797.915	1.68
798.218	5.06
798.522	1.24
798.825	-0.64
799.128	2.49
799.432	8.07
799.735	6.35
800.038	4.05
800.341	0.61
800.644	3.66
800.947	1.65
801.25	2.3
801.553	2.57
801.856	7.14
802.159	6.96
802.462	4.4
802.764	2.2
803.067	5.15
803.37	-3.73
803.672	1.86
803.975	7.36
804.277	-3.34
804.579	2.69
804.882	9.57
805.184	1.2
805.486	2.75
805.788	5.51
806.09	1.07
806.392	-2.82
806.694	-0.59
806.996	5.79
807.298	5.3
807.6	0.32
807.902	0.5
808.203	0.14
808.505	2.34
808.807	-1.01
809.108	-0.75
809.409	6.17
809.711	6.92
810.012	1.5
810.313	8.43
810.615	3.34
810.916	2.15
811.217	0.26
811.518	-7.19
811.819	4.76
812.12	2.18
812.421	4.93
812.722	-2.82
813.023	-2.72
813.323	-1.11
813.624	-0.17
813.925	3.1
814.225	6.39
814.526	4.2
814.826	11.6
815.126	4.61
815.427	5.38
815.727	2.07
816.027	-2.68
816.327	0.81
816.627	1.44
816.927	2.29
817.227	-2.97
817.527	-4.84
817.827	-0.67
818.127	2.79
818.427	2.16
818.727	-3.04
819.026	1.86
819.326	2.5
819.625	6.79
819.925	3.71
820.224	4.06
820.524	-0.71
820.823	8.48
821.122	3.61
821.421	2.82
821.72	2.87
822.019	-1.29
822.318	3.91
822.617	-2.56
822.916	4.3
823.215	2.59
823.514	2.29
823.813	6.58
824.111	2.75
824.41	1.83
824.709	3.49
825.007	4.31
825.306	4.04
825.604	4.18
825.902	4.9
826.201	4.09
826.499	4.82
826.797	5.14
827.095	3.95
827.393	6.09
827.691	6.1
827.989	3.82
828.287	4.9
828.585	6.92
828.882	3.14
829.18	5.22
829.478	4.87
829.775	5.23
830.073	4.32
830.37	5.05
830.668	3.23
830.965	2.57
831.263	5.71
831.56	4.33
831.857	3.13
832.154	7.51
832.451	5.52
832.748	1.88
833.045	1.22
833.342	4.23
833.639	5.34
833.936	7.69
834.232	7.99
834.529	-1.32
834.826	4.99
835.122	3.11
835.419	7.29
835.715	5
836.012	3.99
836.308	4.12
836.604	2.16
836.901	3.8
837.197	1.52
837.493	2.25
837.789	2.61
838.085	3.72
838.381	6
838.677	6.56
838.972	-0.26
839.268	2.03
839.564	1.21
839.86	0.65
840.155	-1.5
840.451	-4.22
840.746	-0.95
841.042	10.73
841.337	-1.08
841.632	-1.12
841.928	-0.3
842.223	-11.97
842.518	-3.31
842.813	-1.94
843.108	6.38
843.403	6.45
843.698	-9.3
843.993	3.01
844.287	8.56
844.582	8.56
844.877	3.02
845.171	6.47
845.466	7.46
845.761	-9.6
846.055	1.88
846.349	8.67
846.644	8.63
846.938	-21.52
847.232	5.42
847.526	-9.34
847.82	1.21
848.114	14.32
848.408	2.88
848.702	1.12
848.996	5.42
849.29	8.09
849.584	-5.18
849.877	11.08
850.171	-10.76
850.465	-2.33
850.758	-21.34
851.052	5.24
851.345	11.61
851.638	6.56
851.932	3.32
852.225	11.95
852.518	24.24
852.811	-20.98
853.104	12.17
853.397	0.23
853.69	0.93
853.983	-21.05
854.276	-8.51
854.569	13.57
854.861	9.73
855.154	-10.66
855.447	13.85
855.739	-3.68
856.032	3.82
856.324	-5.01
856.616	-6.54
856.909	-20.93
857.201	-3.05
857.493	-5.99
857.785	8.67
858.077	-20.12
858.369	-2.29
858.661	-10.96
858.953	-2.31
859.245	-20.67
859.537	14.54
859.829	-17.02
860.12	-10.04
860.412	-10.95
860.703	-2.03
860.995	-0.48
861.286	-37.79
861.578	-2.76
861.869	-18.69
862.16	-34.53
862.452	-11.35
862.743	-11.87
863.034	6.77
863.325	9.65
863.616	-12.93
863.907	8.39
864.198	-7.04
864.488	-33.99
864.779	-8.99
865.07	8.46
865.36	-8.41
865.651	-6.22
865.941	-4.94
866.232	-9.94
866.522	-18.3
866.813	-9.47
867.103	-5.89
867.393	-2.01
867.683	-14.52
867.973	22.51
868.263	10.36
868.553	-9.58
868.843	-5.45
869.133	-8.19
869.423	-2.23
869.713	-4.23
870.002	15.11
870.292	-12.16
870.582	-13.04
870.871	-55.92
871.161	-2.5
871.45	-23.95
871.739	-19.94
872.029	-26.91
872.318	20.4
872.607	-19.66
872.896	-28.98
873.185	2.37
873.474	-5.43
873.763	0.66
874.052	5.55
874.341	3.2
874.63	-12.91
874.918	2.23
875.207	-40.6
875.496	8.49
875.784	4.37
876.073	-16.5
876.361	-34.74
876.649	-24.23
876.938	-20.92
877.226	15.33
877.514	-9.32
877.802	-5.44
878.09	13.78
878.378	17.79
878.666	-27.02
878.954	-10.43
879.242	0.38
879.53	1.45
879.817	24.42
880.105	6.73
880.392	6.01
880.68	-41.85
880.967	-36.86
881.255	28.27
881.542	4.67
881.83	-10.66
882.117	-10.87
882.404	20.09
882.691	1.43
882.978	13.69
883.265	-1.85
883.552	-0.52
883.839	-3.17
884.126	-7.98
884.413	-1.27
884.699	1.97
884.986	4.93
885.273	0.29
885.559	0.29
885.846	0.29
