Data from 1610-3_crown_Reflection__0__131.txt Node

Date: Fri Nov 11 17:08:40 CST 2022
User: ToomeyLab
Spectrometer: FLMS14357
Trigger mode: 0
Integration Time (sec): 1.000000E-2
Scans to average: 100
Electric dark correction enabled: true
Nonlinearity correction enabled: false
Boxcar width: 0
XAxis mode: Wavelengths
Number of Pixels in Spectrum: 2048
>>>>>Begin Spectral Data<<<<<
189.047	125.08
189.435	125.08
189.823	125.08
190.211	-153.53
190.599	68.72
190.987	-1072.96
191.375	216.53
191.763	-42.37
192.151	-226.68
192.538	245.94
192.926	101.18
193.314	106.32
193.702	87.02
194.089	-123.6
194.477	-3474.31
194.864	154.87
195.252	94.83
195.639	38.1
196.027	24.22
196.414	-14.96
196.801	62.62
197.189	132.51
197.576	-579.62
197.963	108.81
198.351	1.47
198.738	-59.46
199.125	-11.4
199.512	-19.91
199.899	-4.31
200.286	9.95
200.673	13.23
201.06	-23.46
201.447	23.59
201.833	22.38
202.22	13.09
202.607	32.89
202.994	23.69
203.38	14.95
203.767	27.39
204.154	-52.67
204.54	14.91
204.927	18.32
205.313	16.54
205.699	-2.04
206.086	-0.14
206.472	18.45
206.858	-19.21
207.245	29.62
207.631	7.8
208.017	15.97
208.403	20.69
208.789	-37.62
209.175	27.65
209.561	28.94
209.947	-5.72
210.333	11.95
210.719	-17.52
211.105	-9.59
211.491	-109.5
211.876	9.54
212.262	14.85
212.648	-12.89
213.034	-37.34
213.419	-4.66
213.805	16.49
214.19	-38.25
214.576	14.46
214.961	-16.45
215.346	-75.64
215.732	-54.76
216.117	8.57
216.502	24.11
216.888	-30.19
217.273	-8.19
217.658	-9.9
218.043	-15.97
218.428	-30.52
218.813	26.45
219.198	-27.1
219.583	-3.07
219.968	46.36
220.353	-27.75
220.738	-24.96
221.122	-30.16
221.507	25.06
221.892	-5.69
222.276	4.68
222.661	-2.97
223.046	3.93
223.43	5.32
223.815	-0.15
224.199	9.34
224.583	5.29
224.968	11.94
225.352	-4.06
225.736	-6.65
226.121	-1.89
226.505	3.85
226.889	2.03
227.273	0.55
227.657	-10.51
228.041	-0.88
228.425	1.09
228.809	6.1
229.193	0.01
229.577	2.8
229.961	2.78
230.344	2.74
230.728	2.16
231.112	2.69
231.495	3.03
231.879	3.33
232.263	0.6
232.646	1.88
233.03	1.53
233.413	1.13
233.797	-1.38
234.18	-0.36
234.563	0.73
234.946	-0.58
235.33	1.2
235.713	2.63
236.096	1.1
236.479	3.52
236.862	4.19
237.245	1.23
237.628	1.5
238.011	2.91
238.394	2.58
238.777	0.3
239.16	1.27
239.543	2.56
239.925	3.37
240.308	0.77
240.691	0.63
241.073	1.28
241.456	-0.44
241.838	1.07
242.221	2
242.603	2
242.986	2.23
243.368	2.05
243.75	2.5
244.133	1.96
244.515	2.53
244.897	2.04
245.279	1.83
245.661	1.36
246.043	2.19
246.425	2.41
246.807	2.16
247.189	1.41
247.571	1.17
247.953	2.16
248.335	2.66
248.717	2.4
249.098	2.17
249.48	2.37
249.862	1.93
250.243	2.17
250.625	2.57
251.006	2.42
251.388	1.64
251.769	2.29
252.151	1.4
252.532	2.73
252.913	1
253.295	2.27
253.676	2.45
254.057	1.85
254.438	2.3
254.819	2.03
255.2	2.15
255.581	1.68
255.962	1.32
256.343	3.09
256.724	3.51
257.105	2.21
257.486	2.36
257.867	1.42
258.247	2.51
258.628	0.88
259.009	2.06
259.389	2.55
259.77	2.12
260.15	2.08
260.531	1.84
260.911	1.81
261.292	2.09
261.672	2.03
262.052	2.09
262.432	2.51
262.813	2.24
263.193	2
263.573	2.19
263.953	2.14
264.333	1.99
264.713	1.97
265.093	2.15
265.473	2.44
265.853	0.89
266.233	1.04
266.612	1.77
266.992	1.28
267.372	2.22
267.752	2.36
268.131	2.42
268.511	2.36
268.89	2.41
269.27	1.66
269.649	1.57
270.029	1.64
270.408	1.88
270.787	2.89
271.167	1.64
271.546	1.83
271.925	2.19
272.304	2.27
272.683	1.92
273.062	2.08
273.441	1.78
273.82	1.51
274.199	2.04
274.578	2.15
274.957	1.83
275.336	2.12
275.715	2.1
276.093	2.52
276.472	2
276.851	1.88
277.229	1.62
277.608	2.35
277.986	1.89
278.365	2.66
278.743	2.38
279.122	1.52
279.5	1.42
279.878	1.21
280.257	2.89
280.635	1.57
281.013	1.99
281.391	1.32
281.769	2.28
282.147	2.19
282.525	1.76
282.903	2.1
283.281	1.88
283.659	1.9
284.037	1.9
284.415	1.63
284.792	2.06
285.17	2.06
285.548	2.13
285.925	1.86
286.303	1.72
286.68	1.98
287.058	2.12
287.435	2.26
287.813	2.15
288.19	2.2
288.567	2.15
288.945	1.83
289.322	1.94
289.699	1.77
290.076	1.68
290.453	1.52
290.83	2.29
291.207	2.05
291.584	1.88
291.961	1.84
292.338	2.29
292.715	1.76
293.092	1.58
293.469	2.47
293.845	2.48
294.222	2.49
294.599	2.46
294.975	1.4
295.352	1.83
295.728	2.11
296.105	1.45
296.481	1.72
296.858	2.04
297.234	2.12
297.61	2.17
297.986	1.26
298.363	2.04
298.739	1.87
299.115	1.76
299.491	1.99
299.867	2.01
300.243	1.84
300.619	2.04
300.995	1.75
301.371	1.45
301.746	1.83
302.122	1.61
302.498	1.96
302.874	1.72
303.249	1.83
303.625	1.73
304	1.93
304.376	1.77
304.751	2.3
305.127	2.07
305.502	1.8
305.878	2.11
306.253	2.2
306.628	2.42
307.003	2.34
307.378	2.4
307.754	2.03
308.129	1.89
308.504	2.1
308.879	1.92
309.254	1.46
309.629	2.21
310.003	1.62
310.378	1.39
310.753	1.38
311.128	2.01
311.502	1.67
311.877	2.02
312.252	1.79
312.626	1.56
313.001	2.2
313.375	2.15
313.75	2.24
314.124	2.14
314.498	2.34
314.873	1.83
315.247	1.91
315.621	1.77
315.995	1.6
316.369	2.36
316.743	1.37
317.117	2.01
317.491	2.12
317.865	1.88
318.239	2
318.613	1.8
318.987	2.05
319.361	1.71
319.734	1.44
320.108	2.03
320.482	1.41
320.855	1.75
321.229	2.3
321.602	1.51
321.976	1.48
322.349	1.93
322.723	2
323.096	1.74
323.469	1.69
323.843	2.1
324.216	1.64
324.589	2.18
324.962	1.43
325.335	2.26
325.708	2.42
326.081	1.6
326.454	2.21
326.827	2.02
327.2	1.53
327.573	1.82
327.945	1.83
328.318	2.08
328.691	2.56
329.063	2.46
329.436	1.54
329.809	1.35
330.181	2.5
330.553	1.93
330.926	1.66
331.298	1.61
331.671	2
332.043	1.99
332.415	1.71
332.787	1.91
333.159	2.17
333.532	1.65
333.904	1.56
334.276	1.93
334.648	1.74
335.02	2.18
335.391	1.85
335.763	1.47
336.135	1.98
336.507	1.9
336.879	1.73
337.25	0.97
337.622	1.82
337.993	2.29
338.365	1.82
338.736	1.59
339.108	1.84
339.479	1.9
339.851	1.67
340.222	1.61
340.593	1.59
340.964	1.88
341.336	1.69
341.707	1.74
342.078	1.56
342.449	1.86
342.82	1.99
343.191	1.99
343.562	2
343.933	1.55
344.303	2.51
344.674	1.85
345.045	1.52
345.416	2.34
345.786	1.67
346.157	1.77
346.527	2.02
346.898	1.7
347.268	2
347.639	2.09
348.009	1.92
348.38	2.02
348.75	2.26
349.12	1.88
349.49	1.74
349.861	2.02
350.231	1.75
350.601	2.34
350.971	2.33
351.341	1.73
351.711	1.86
352.081	1.17
352.45	1.59
352.82	1.67
353.19	1.72
353.56	2.37
353.929	2.18
354.299	2.26
354.669	1.77
355.038	1.97
355.408	1.63
355.777	2.24
356.147	2.24
356.516	2.34
356.885	1.72
357.254	1.85
357.624	2.02
357.993	2.12
358.362	1.81
358.731	1.95
359.1	1.87
359.469	1.74
359.838	2.38
360.207	1.86
360.576	1.86
360.945	2.03
361.314	2.22
361.682	2.21
362.051	1.96
362.42	1.92
362.788	1.98
363.157	1.93
363.525	2.12
363.894	2.09
364.262	2.05
364.631	1.8
364.999	1.91
365.367	2.21
365.735	2.13
366.104	1.92
366.472	2.21
366.84	2.22
367.208	1.82
367.576	1.98
367.944	2.01
368.312	2.09
368.68	2.28
369.048	1.98
369.416	2.03
369.783	1.65
370.151	1.76
370.519	2.37
370.886	1.98
371.254	1.8
371.621	2.12
371.989	2.07
372.356	1.93
372.724	2.23
373.091	1.96
373.458	1.57
373.826	2.24
374.193	2.02
374.56	2.04
374.927	1.95
375.294	1.92
375.661	2.2
376.028	2.1
376.395	2.36
376.762	1.95
377.129	2.3
377.496	1.85
377.863	1.99
378.229	2.19
378.596	1.79
378.963	1.98
379.329	2.05
379.696	2.29
380.062	2.08
380.429	2.04
380.795	1.8
381.161	2.12
381.528	1.96
381.894	2.05
382.26	1.86
382.626	1.98
382.993	2.24
383.359	2.04
383.725	2.25
384.091	1.78
384.457	2.24
384.823	2.03
385.188	2.2
385.554	1.98
385.92	2.29
386.286	2.18
386.651	2.09
387.017	1.95
387.383	1.96
387.748	1.91
388.114	2.14
388.479	2.22
388.845	1.93
389.21	2.08
389.575	1.96
389.94	2.05
390.306	2.14
390.671	1.97
391.036	2.12
391.401	1.87
391.766	2.09
392.131	1.82
392.496	2.28
392.861	2.14
393.226	2.27
393.591	1.96
393.956	2.23
394.32	2.27
394.685	2.21
395.05	2.28
395.414	2.33
395.779	1.93
396.143	2.07
396.508	1.96
396.872	2.29
397.236	2.35
397.601	2.14
397.965	2.2
398.329	2.08
398.694	2.06
399.058	2.18
399.422	2.16
399.786	2.25
400.15	2.18
400.514	2.17
400.878	2.19
401.242	2.29
401.605	2.12
401.969	2.17
402.333	1.94
402.697	2.08
403.06	2.05
403.424	2.12
403.787	2.26
404.151	2.25
404.514	2.06
404.878	2.17
405.241	2.19
405.604	2.05
405.968	2.44
406.331	2.04
406.694	2.26
407.057	2.29
407.42	2.17
407.783	2.07
408.146	2.41
408.509	2.18
408.872	2.28
409.235	2.19
409.598	2.18
409.961	2.12
410.323	2.02
410.686	2.17
411.049	2.47
411.411	1.99
411.774	2.09
412.136	2.27
412.499	2.33
412.861	2.05
413.223	1.9
413.586	1.98
413.948	2.27
414.31	2.19
414.672	2.34
415.035	2.24
415.397	2.3
415.759	2.3
416.121	2.4
416.483	2.18
416.845	2.32
417.206	2.31
417.568	2.28
417.93	2.17
418.292	2.1
418.653	2.17
419.015	2.17
419.377	2.32
419.738	2.28
420.1	2.19
420.461	2.18
420.822	2.2
421.184	2.14
421.545	2.2
421.906	2.19
422.267	2.22
422.629	2.23
422.99	2.14
423.351	2.16
423.712	2.24
424.073	2.21
424.434	2.22
424.795	2.31
425.155	2.31
425.516	2.09
425.877	2.24
426.238	2.16
426.598	2.15
426.959	2.15
427.32	2.27
427.68	2.25
428.041	2.26
428.401	2.17
428.761	2.23
429.122	2.34
429.482	2.18
429.842	2.32
430.202	2.32
430.563	2.2
430.923	2.21
431.283	2.36
431.643	2.31
432.003	2.43
432.363	2.23
432.722	2.2
433.082	2.23
433.442	2.28
433.802	2.47
434.161	2.23
434.521	2.19
434.881	2.2
435.24	2.31
435.6	2.21
435.959	2.26
436.319	2.12
436.678	2.14
437.037	2.29
437.396	2.15
437.756	2.16
438.115	2.13
438.474	2.13
438.833	2.29
439.192	2.39
439.551	2.31
439.91	2.36
440.269	2.31
440.628	2.26
440.987	2.41
441.345	2.31
441.704	2.22
442.063	2.35
442.421	2.23
442.78	2.19
443.138	2.23
443.497	2.23
443.855	2.26
444.214	2.27
444.572	2.35
444.93	2.19
445.288	2.39
445.647	2.05
446.005	2.28
446.363	2.31
446.721	2.2
447.079	2.22
447.437	2.22
447.795	2.2
448.153	2.28
448.51	2.29
448.868	2.34
449.226	2.31
449.584	2.35
449.941	2.34
450.299	2.38
450.656	2.36
451.014	2.27
451.371	2.22
451.729	2.38
452.086	2.33
452.443	2.45
452.801	2.34
453.158	2.33
453.515	2.33
453.872	2.38
454.229	2.31
454.586	2.23
454.943	2.32
455.3	2.25
455.657	2.4
456.014	2.36
456.371	2.33
456.727	2.32
457.084	2.26
457.441	2.27
457.797	2.17
458.154	2.32
458.51	2.25
458.867	2.41
459.223	2.31
459.58	2.29
459.936	2.49
460.292	2.34
460.648	2.31
461.005	2.44
461.361	2.34
461.717	2.22
462.073	2.4
462.429	2.38
462.785	2.25
463.141	2.34
463.496	2.34
463.852	2.39
464.208	2.44
464.564	2.38
464.919	2.38
465.275	2.28
465.631	2.38
465.986	2.32
466.342	2.48
466.697	2.45
467.052	2.36
467.408	2.43
467.763	2.41
468.118	2.49
468.473	2.31
468.829	2.46
469.184	2.39
469.539	2.56
469.894	2.31
470.249	2.33
470.603	2.34
470.958	2.46
471.313	2.49
471.668	2.46
472.023	2.63
472.377	2.57
472.732	2.45
473.086	2.35
473.441	2.48
473.795	2.44
474.15	2.36
474.504	2.48
474.859	2.46
475.213	2.42
475.567	2.57
475.921	2.58
476.275	2.48
476.63	2.44
476.984	2.45
477.338	2.61
477.692	2.53
478.045	2.29
478.399	2.29
478.753	2.4
479.107	2.34
479.461	2.49
479.814	2.42
480.168	2.53
480.521	2.36
480.875	2.48
481.228	2.43
481.582	2.33
481.935	2.46
482.289	2.59
482.642	2.43
482.995	2.46
483.348	2.31
483.701	2.41
484.055	2.39
484.408	2.45
484.761	2.24
485.114	2.27
485.466	2.21
485.819	2.25
486.172	2.3
486.525	2.32
486.878	2.38
487.23	2.37
487.583	2.4
487.936	2.4
488.288	2.32
488.641	2.43
488.993	2.33
489.345	2.3
489.698	2.32
490.05	2.26
490.402	2.36
490.754	2.49
491.107	2.38
491.459	2.49
491.811	2.38
492.163	2.51
492.515	2.4
492.866	2.36
493.218	2.28
493.57	2.29
493.922	2.38
494.274	2.47
494.625	2.44
494.977	2.42
495.328	2.47
495.68	2.5
496.031	2.48
496.383	2.57
496.734	2.46
497.086	2.41
497.437	2.35
497.788	2.62
498.139	2.47
498.49	2.4
498.842	2.54
499.193	2.49
499.544	2.5
499.894	2.64
500.245	2.56
500.596	2.54
500.947	2.52
501.298	2.6
501.648	2.65
501.999	2.59
502.35	2.45
502.7	2.6
503.051	2.51
503.401	2.44
503.752	2.51
504.102	2.37
504.452	2.63
504.803	2.55
505.153	2.58
505.503	2.59
505.853	2.52
506.203	2.68
506.553	2.73
506.903	2.53
507.253	2.62
507.603	2.63
507.953	2.6
508.303	2.56
508.652	2.54
509.002	2.54
509.352	2.54
509.701	2.55
510.051	2.55
510.4	2.48
510.75	2.56
511.099	2.49
511.449	2.54
511.798	2.52
512.147	2.52
512.496	2.46
512.846	2.54
513.195	2.5
513.544	2.63
513.893	2.6
514.242	2.64
514.591	2.5
514.939	2.61
515.288	2.53
515.637	2.56
515.986	2.61
516.334	2.55
516.683	2.61
517.032	2.59
517.38	2.56
517.729	2.68
518.077	2.4
518.426	2.65
518.774	2.42
519.122	2.56
519.47	2.43
519.819	2.48
520.167	2.48
520.515	2.59
520.863	2.55
521.211	2.67
521.559	2.58
521.907	2.61
522.255	2.61
522.602	2.62
522.95	2.62
523.298	2.61
523.645	2.63
523.993	2.66
524.341	2.62
524.688	2.61
525.036	2.64
525.383	2.53
525.73	2.56
526.078	2.58
526.425	2.52
526.772	2.54
527.119	2.56
527.466	2.52
527.814	2.52
528.161	2.54
528.508	2.54
528.854	2.54
529.201	2.57
529.548	2.55
529.895	2.45
530.242	2.41
530.588	2.41
530.935	2.45
531.282	2.59
531.628	2.53
531.975	2.56
532.321	2.54
532.667	2.56
533.014	2.56
533.36	2.5
533.706	2.58
534.052	2.54
534.399	2.49
534.745	2.55
535.091	2.46
535.437	2.52
535.783	2.56
536.129	2.53
536.474	2.65
536.82	2.59
537.166	2.62
537.512	2.7
537.857	2.63
538.203	2.5
538.549	2.59
538.894	2.59
539.239	2.63
539.585	2.57
539.93	2.72
540.276	2.52
540.621	2.58
540.966	2.69
541.311	2.62
541.656	2.53
542.001	2.71
542.346	2.71
542.691	2.51
543.036	2.53
543.381	2.52
543.726	2.55
544.071	2.58
544.415	2.62
544.76	2.64
545.105	2.68
545.449	2.62
545.794	2.62
546.138	2.64
546.483	2.83
546.827	2.62
547.171	2.66
547.516	2.57
547.86	2.62
548.204	2.53
548.548	2.68
548.892	2.58
549.236	2.79
549.58	2.71
549.924	2.71
550.268	2.78
550.612	2.73
550.956	2.72
551.3	2.7
551.643	2.71
551.987	2.58
552.33	2.69
552.674	2.69
553.017	2.69
553.361	2.77
553.704	2.75
554.048	2.65
554.391	2.7
554.734	2.62
555.077	2.74
555.42	2.74
555.764	2.75
556.107	2.75
556.45	2.66
556.793	2.84
557.135	2.83
557.478	2.64
557.821	2.83
558.164	2.89
558.507	2.71
558.849	2.73
559.192	2.75
559.534	2.81
559.877	2.99
560.219	2.88
560.562	2.82
560.904	2.82
561.246	2.69
561.589	2.87
561.931	2.75
562.273	2.93
562.615	2.83
562.957	2.73
563.299	3.01
563.641	2.76
563.983	2.75
564.325	2.86
564.667	2.78
565.008	2.51
565.35	2.9
565.692	2.59
566.033	2.77
566.375	2.78
566.716	2.84
567.058	2.62
567.399	2.73
567.741	2.82
568.082	2.8
568.423	2.91
568.764	2.74
569.105	2.88
569.447	2.8
569.788	2.73
570.129	2.69
570.47	2.76
570.811	2.94
571.151	2.81
571.492	2.85
571.833	2.84
572.174	2.87
572.514	2.82
572.855	2.68
573.195	2.9
573.536	2.7
573.876	2.82
574.217	2.79
574.557	2.75
574.898	2.73
575.238	2.84
575.578	2.78
575.918	2.74
576.258	2.81
576.598	2.85
576.938	2.77
577.278	2.91
577.618	2.9
577.958	2.75
578.298	2.94
578.638	2.84
578.977	2.89
579.317	2.77
579.657	2.81
579.996	2.67
580.336	3.04
580.675	2.81
581.014	2.89
581.354	2.74
581.693	2.78
582.032	2.71
582.372	2.97
582.711	3.08
583.05	2.79
583.389	3
583.728	2.9
584.067	2.87
584.406	2.81
584.745	2.95
585.083	2.94
585.422	2.9
585.761	3.04
586.1	2.92
586.438	2.86
586.777	2.95
587.115	2.81
587.454	2.88
587.792	3.03
588.13	3.11
588.469	2.87
588.807	3.17
589.145	3.08
589.483	2.97
589.821	2.61
590.159	2.84
590.497	3.03
590.835	2.79
591.173	3.05
591.511	2.95
591.849	3.06
592.187	2.93
592.524	2.88
592.862	3.08
593.2	3.13
593.537	2.46
593.875	2.87
594.212	3.14
594.55	3.08
594.887	2.92
595.224	2.95
595.561	2.99
595.899	2.94
596.236	2.99
596.573	2.76
596.91	2.9
597.247	2.72
597.584	2.92
597.921	2.71
598.258	2.98
598.594	2.99
598.931	2.92
599.268	2.84
599.604	2.96
599.941	2.9
600.277	2.63
600.614	3.05
600.95	2.91
601.287	3.01
601.623	2.78
601.959	2.83
602.296	2.78
602.632	3.03
602.968	3.12
603.304	3.08
603.64	2.67
603.976	3
604.312	2.76
604.648	2.55
604.984	3.1
605.319	2.91
605.655	2.78
605.991	2.77
606.326	3.02
606.662	2.81
606.998	2.95
607.333	3.08
607.668	2.97
608.004	3.08
608.339	3.06
608.674	2.94
609.01	2.66
609.345	2.75
609.68	3.09
610.015	3.05
610.35	3.07
610.685	3.02
611.02	3.15
611.355	2.76
611.689	3.11
612.024	2.93
612.359	2.81
612.694	2.96
613.028	2.93
613.363	3.1
613.697	3.1
614.032	3.02
614.366	2.83
614.7	2.89
615.035	3.12
615.369	3.22
615.703	3.23
616.037	3.14
616.371	2.96
616.705	2.94
617.039	3.02
617.373	3.12
617.707	3.11
618.041	2.87
618.375	3.16
618.709	3
619.042	3.14
619.376	2.88
619.71	2.97
620.043	3.03
620.377	3.02
620.71	2.86
621.043	3.16
621.377	2.87
621.71	3.11
622.043	2.98
622.376	2.97
622.709	2.98
623.043	2.92
623.376	3.08
623.709	2.92
624.041	3.32
624.374	3.32
624.707	2.98
625.04	3.07
625.373	3.24
625.705	2.95
626.038	3.28
626.37	3.04
626.703	3.19
627.035	3.09
627.368	2.96
627.7	2.95
628.032	3.01
628.365	3.38
628.697	3.42
629.029	3.41
629.361	2.92
629.693	2.97
630.025	3.01
630.357	2.77
630.689	3.11
631.021	3.03
631.353	3.25
631.684	2.98
632.016	3.14
632.348	2.91
632.679	3.24
633.011	3.05
633.342	2.74
633.674	3.02
634.005	3.06
634.336	2.97
634.668	2.88
634.999	2.95
635.33	3.13
635.661	3.44
635.992	3.06
636.323	3.06
636.654	3.31
636.985	3.22
637.316	3.33
637.647	3.1
637.977	3.38
638.308	2.89
638.639	3.32
638.969	3.26
639.3	2.86
639.63	2.97
639.961	3.17
640.291	3.08
640.622	3.41
640.952	3.2
641.282	3.15
641.612	3.2
641.943	3.27
642.273	3.58
642.603	3.17
642.933	2.95
643.263	3.1
643.592	3.33
643.922	2.93
644.252	3.3
644.582	3.12
644.911	3.28
645.241	3.32
645.571	3.28
645.9	3.29
646.23	3.25
646.559	3.44
646.888	3.34
647.218	2.79
647.547	3.51
647.876	3.24
648.205	3.07
648.534	3.03
648.863	3.2
649.192	3.25
649.521	3.49
649.85	3.37
650.179	3.31
650.508	2.98
650.837	3.28
651.165	3.5
651.494	3.5
651.822	3.06
652.151	3.16
652.479	3.45
652.808	3.23
653.136	3.05
653.465	3.4
653.793	3.45
654.121	3.32
654.449	3.46
654.777	3.28
655.105	3.37
655.433	2.87
655.761	3.35
656.089	3.23
656.417	3.19
656.745	3.24
657.073	3.2
657.4	2.86
657.728	3.6
658.056	3.22
658.383	3.71
658.711	3.19
659.038	3.3
659.365	3.17
659.693	3.54
660.02	3.47
660.347	3.35
660.674	2.81
661.001	3.26
661.329	2.92
661.656	2.91
661.982	3.3
662.309	3.25
662.636	3.62
662.963	3.56
663.29	3.34
663.616	3.61
663.943	3.78
664.27	3.73
664.596	3.6
664.923	3.35
665.249	3.78
665.576	3.28
665.902	3.04
666.228	3.44
666.554	3.01
666.881	3.05
667.207	3.41
667.533	3.72
667.859	3.16
668.185	3.22
668.511	3.43
668.837	3.73
669.162	3.02
669.488	3.09
669.814	3.01
670.139	3.34
670.465	3.48
670.791	3
671.116	3.54
671.442	3.48
671.767	3.15
672.092	3.18
672.418	3.14
672.743	3.42
673.068	3.22
673.393	2.99
673.718	2.97
674.043	3.72
674.368	3.21
674.693	3.52
675.018	3.28
675.343	3.18
675.667	3.04
675.992	3.63
676.317	3.19
676.641	3.43
676.966	3.07
677.29	2.54
677.615	4.37
677.939	3.7
678.264	3.04
678.588	3.76
678.912	3.9
679.236	3.82
679.56	3.28
679.885	3.55
680.209	3.28
680.532	3.23
680.856	4.02
681.18	3.81
681.504	3.34
681.828	3.23
682.152	3.75
682.475	3.28
682.799	3.35
683.122	3.56
683.446	3.29
683.769	3.84
684.093	2.92
684.416	3.24
684.739	3.96
685.062	3.17
685.386	3.67
685.709	3.85
686.032	3.56
686.355	3.39
686.678	3.22
687.001	4.28
687.324	3.72
687.646	3.79
687.969	3.2
688.292	3.33
688.614	3.19
688.937	3.42
689.26	3.08
689.582	3.69
689.904	3.29
690.227	3.67
690.549	3.67
690.871	3.9
691.194	3.77
691.516	4.02
691.838	3.72
692.16	3.43
692.482	3.85
692.804	3.26
693.126	3.71
693.448	3.41
693.769	4.29
694.091	4
694.413	2.76
694.735	3.06
695.056	3.52
695.378	2.73
695.699	3.47
696.021	4.03
696.342	4.11
696.663	4.51
696.984	3.74
697.306	4.26
697.627	3.48
697.948	3.64
698.269	3.69
698.59	3.32
698.911	4.21
699.232	3.41
699.553	3.11
699.873	4.47
700.194	3.47
700.515	3.03
700.835	3.32
701.156	3.57
701.477	3.86
701.797	3.46
702.117	3.26
702.438	3.57
702.758	4
703.078	3.63
703.398	3.48
703.719	3.5
704.039	4.27
704.359	3.34
704.679	2.57
704.999	3.29
705.319	3.24
705.638	3.71
705.958	3.58
706.278	4.36
706.597	3.03
706.917	3.02
707.237	3.27
707.556	4.16
707.876	4.01
708.195	3.8
708.514	3.63
708.834	3.19
709.153	3.95
709.472	2.85
709.791	3.65
710.11	3.44
710.429	3.09
710.748	3.14
711.067	4
711.386	3.62
711.705	2.73
712.023	3.72
712.342	4.16
712.661	3.77
712.979	4.46
713.298	4.37
713.616	3.85
713.935	3.47
714.253	3.61
714.572	3.81
714.89	3.62
715.208	3.32
715.526	3.58
715.844	3.38
716.162	3.83
716.48	2.5
716.798	3.79
717.116	4.05
717.434	4.66
717.752	3.83
718.069	3.53
718.387	3.85
718.705	3.36
719.022	4.75
719.34	3.98
719.657	3.62
719.975	3.69
720.292	3.53
720.609	3.13
720.927	4.2
721.244	4.55
721.561	4.49
721.878	4
722.195	4.42
722.512	4.05
722.829	4.61
723.146	3.36
723.463	4.14
723.779	3.71
724.096	3.5
724.413	2.69
724.729	2.99
725.046	5.16
725.362	4.63
725.679	2.47
725.995	4.02
726.311	3.65
726.628	3.56
726.944	3.65
727.26	3.45
727.576	3.78
727.892	1.9
728.208	3.58
728.524	2.96
728.84	3.84
729.156	3.79
729.472	4
729.787	5.02
730.103	3.52
730.419	4.7
730.734	3.33
731.05	2.9
731.365	3.26
731.681	3.54
731.996	2.85
732.311	3.85
732.626	3.7
732.942	4.1
733.257	3.62
733.572	5.89
733.887	4.33
734.202	5.25
734.517	3.4
734.832	5.09
735.146	4
735.461	2.2
735.776	3.2
736.091	4.35
736.405	4.66
736.72	3.21
737.034	2.67
737.349	4.02
737.663	3.92
737.977	4.28
738.292	2.55
738.606	4.59
738.92	3.92
739.234	3.78
739.548	4.22
739.862	3.28
740.176	3.1
740.49	3.68
740.804	4.31
741.117	3.99
741.431	4.36
741.745	3.04
742.058	5.11
742.372	3.52
742.685	4.32
742.999	3.27
743.312	4.67
743.626	4.1
743.939	4.7
744.252	1.78
744.565	5.03
744.878	3.37
745.191	3.95
745.505	3.59
745.817	2.72
746.13	3.89
746.443	5.16
746.756	3.84
747.069	5.6
747.381	5.67
747.694	4.55
748.007	4.45
748.319	4.69
748.632	3.07
748.944	4.31
749.256	3.4
749.569	4.47
749.881	4.06
750.193	3.93
750.505	3.02
750.817	3.39
751.129	3.96
751.441	4.69
751.753	3.59
752.065	4.77
752.377	4.52
752.689	3.98
753	4.3
753.312	3.96
753.624	4.23
753.935	4.72
754.247	2.95
754.558	2.88
754.869	2.33
755.181	3.48
755.492	3.96
755.803	3.85
756.114	4.92
756.425	5.16
756.736	2.53
757.047	2.64
757.358	4.84
757.669	5.83
757.98	3.12
758.291	2.59
758.601	5.69
758.912	3.92
759.223	4.69
759.533	4.74
759.844	3.77
760.154	4.83
760.464	4.14
760.775	4.17
761.085	3.48
761.395	4.06
761.705	5.32
762.016	3.72
762.326	5.31
762.636	5.1
762.945	4.69
763.255	5.19
763.565	4.23
763.875	6.32
764.185	4.77
764.494	4.18
764.804	3.56
765.113	4.19
765.423	5.28
765.732	4.75
766.042	3.67
766.351	4.61
766.66	5.12
766.97	4.64
767.279	4.01
767.588	5.46
767.897	4.68
768.206	4.91
768.515	4.96
768.824	4.57
769.133	2.47
769.441	5.02
769.75	2.14
770.059	4.42
770.367	4.8
770.676	3.28
770.984	5.53
771.293	4.28
771.601	2.78
771.91	4.78
772.218	5.22
772.526	4.1
772.834	3.69
773.142	2.25
773.45	3.84
773.758	2.89
774.066	2.68
774.374	1.35
774.682	5.44
774.99	1.37
775.298	4.15
775.605	1.36
775.913	3.95
776.22	5.48
776.528	7.16
776.835	7.07
777.143	2.63
777.45	1.11
777.757	3.53
778.065	5.57
778.372	2.69
778.679	4.12
778.986	2.37
779.293	3.14
779.6	2.31
779.907	4.07
780.214	2.07
780.52	7.61
780.827	6.51
781.134	2.69
781.44	3.72
781.747	6.38
782.053	6.28
782.36	3.39
782.666	5.89
782.973	-0.05
783.279	-0.47
783.585	4.95
783.891	3.28
784.197	2.59
784.503	2.38
784.809	4.41
785.115	7.51
785.421	4.44
785.727	1.67
786.033	2.37
786.339	3.87
786.644	4.5
786.95	5.56
787.255	4
787.561	3.31
787.866	3.33
788.172	3.74
788.477	5.06
788.782	2.87
789.088	6.7
789.393	3.57
789.698	7.32
790.003	4.23
790.308	4.93
790.613	3.61
790.918	3.46
791.223	2.34
791.527	4.34
791.832	4.25
792.137	6.57
792.441	4.51
792.746	4.88
793.05	3.23
793.355	4.09
793.659	5.22
793.963	1.39
794.268	6.48
794.572	2.92
794.876	0.9
795.18	5.9
795.484	2.03
795.788	3.33
796.092	6.39
796.396	4.98
796.7	7.5
797.004	-0.08
797.307	1.77
797.611	3.53
797.915	5.1
798.218	7.85
798.522	4.76
798.825	-0.15
799.128	5.74
799.432	5.28
799.735	7.35
800.038	5.07
800.341	3.58
800.644	1.61
800.947	3.89
801.25	4.16
801.553	3.61
801.856	6.24
802.159	9.82
802.462	3.1
802.764	10.5
803.067	2.17
803.37	0.06
803.672	3.83
803.975	7.85
804.277	2.02
804.579	3.05
804.882	4.78
805.184	-1.2
805.486	5.38
805.788	3.16
806.09	6.47
806.392	1.11
806.694	0.76
806.996	9.82
807.298	3.2
807.6	3.8
807.902	1.13
808.203	0.51
808.505	2.66
808.807	2.26
809.108	1.21
809.409	7.82
809.711	6.83
810.012	4.21
810.313	10.2
810.615	2.96
810.916	10.53
811.217	0.68
811.518	0.61
811.819	6.78
812.12	6.26
812.421	5.11
812.722	1.87
813.023	2
813.323	0.46
813.624	3.69
813.925	7.37
814.225	7.64
814.526	1.88
814.826	6.51
815.126	5.96
815.427	7
815.727	2.97
816.027	-0.54
816.327	5.15
816.627	6
816.927	3.45
817.227	3.03
817.527	0.49
817.827	-5.15
818.127	3.57
818.427	1.92
818.727	-0.28
819.026	2.76
819.326	4.37
819.625	4.55
819.925	8.81
820.224	6.96
820.524	-2.66
820.823	9.46
821.122	2.57
821.421	3.93
821.72	7.53
822.019	7.54
822.318	6.59
822.617	0.23
822.916	7.37
823.215	3.19
823.514	5.45
823.813	8.18
824.111	5.05
824.41	3.94
824.709	5.59
825.007	5.3
825.306	6.37
825.604	5.88
825.902	5.04
826.201	5.99
826.499	6.89
826.797	6.45
827.095	6.39
827.393	6.39
827.691	6.81
827.989	6.46
828.287	6.32
828.585	6.46
828.882	4.25
829.18	4.51
829.478	7.69
829.775	5.83
830.073	5.35
830.37	7.06
830.668	5.78
830.965	4.77
831.263	5.95
831.56	6.49
831.857	2.52
832.154	5.87
832.451	5.84
832.748	4.26
833.045	5.99
833.342	8.17
833.639	5.4
833.936	8.07
834.232	8.35
834.529	0.86
834.826	4.25
835.122	7.22
835.419	0.81
835.715	3.32
836.012	6.25
836.308	7.91
836.604	4.41
836.901	7.32
837.197	4.27
837.493	5.36
837.789	5.5
838.085	5.91
838.381	6.47
838.677	3.8
838.972	5.8
839.268	4.52
839.564	3.02
839.86	3.67
840.155	-2.19
840.451	-3.94
840.746	-0.63
841.042	6.91
841.337	3.62
841.632	-1.26
841.928	4.62
842.223	-1.48
842.518	1.28
842.813	-8.74
843.108	6.53
843.403	5.08
843.698	2.09
843.993	-0.02
844.287	10.07
844.582	8.17
844.877	1.89
845.171	10.32
845.466	11.94
845.761	-5.28
846.055	-2.07
846.349	11.03
846.644	7.67
846.938	-24.07
847.232	0.24
847.526	7.23
847.82	5.95
848.114	12.76
848.408	0.43
848.702	-6.62
848.996	0.31
849.29	-0.93
849.584	-4.98
849.877	2.47
850.171	-11.96
850.465	-0.62
850.758	-22.79
851.052	-0.91
851.345	14.78
851.638	10.46
851.932	17.26
852.225	3.88
852.518	21.26
852.811	-13.33
853.104	-4.54
853.397	-4.83
853.69	9.05
853.983	-26.46
854.276	1.04
854.569	10.61
854.861	22.13
855.154	8.63
855.447	18.36
855.739	-2.17
856.032	11.11
856.324	0.02
856.616	6.78
856.909	-14.91
857.201	-8.18
857.493	6.33
857.785	-2.37
858.077	-0.26
858.369	12.48
858.661	4.36
858.953	7.75
859.245	-15.26
859.537	7.63
859.829	4.09
860.12	-4.94
860.412	-0.59
860.703	24.07
860.995	-0.16
861.286	-31.16
861.578	-11.97
861.869	-10.51
862.16	-60.25
862.452	-5.25
862.743	0.35
863.034	17.88
863.325	8.87
863.616	7.91
863.907	8.04
864.198	-5.92
864.488	-40.87
864.779	-9.83
865.07	9.12
865.36	-20.5
865.651	-6.7
865.941	21.11
866.232	-4.09
866.522	-18.85
866.813	-9.02
867.103	-0.81
867.393	-8
867.683	-12.35
867.973	17.39
868.263	2.85
868.553	-7.01
868.843	-18.47
869.133	-22.71
869.423	-6.52
869.713	14.3
870.002	-7.96
870.292	-20.1
870.582	5.82
870.871	3.59
871.161	15.95
871.45	-17.94
871.739	6.02
872.029	-3.69
872.318	14.62
872.607	-2.27
872.896	-18.35
873.185	-7.39
873.474	-13.59
873.763	-5.37
874.052	-12.01
874.341	5.67
874.63	14.86
874.918	-14.46
875.207	-24.15
875.496	10.47
875.784	12.03
876.073	-5.69
876.361	-18.73
876.649	-39.27
876.938	-8.48
877.226	5.3
877.514	1.98
877.802	-3.07
878.09	13.87
878.378	6.58
878.666	-4.54
878.954	2.59
879.242	-1.87
879.53	-12.49
879.817	3.57
880.105	-11.19
880.392	9.05
880.68	3.34
880.967	-20.05
881.255	-6.33
881.542	-4.99
881.83	17.69
882.117	-0.75
882.404	3.91
882.691	15.26
882.978	0.43
883.265	5.76
883.552	0.7
883.839	14.94
884.126	-0.49
884.413	8.48
884.699	5.81
884.986	12.66
885.273	8.63
885.559	8.63
885.846	8.63
