Data from 1610-3_forehead_Reflection__1__137.txt Node

Date: Fri Nov 11 17:10:10 CST 2022
User: ToomeyLab
Spectrometer: FLMS14357
Trigger mode: 0
Integration Time (sec): 1.000000E-2
Scans to average: 100
Electric dark correction enabled: true
Nonlinearity correction enabled: false
Boxcar width: 0
XAxis mode: Wavelengths
Number of Pixels in Spectrum: 2048
>>>>>Begin Spectral Data<<<<<
189.047	61.16
189.435	61.16
189.823	61.16
190.211	-153.69
190.599	97.32
190.987	-729.14
191.375	797.38
191.763	-44.08
192.151	-195.16
192.538	-29.38
192.926	13.8
193.314	15.08
193.702	31.03
194.089	-747
194.477	-1856.88
194.864	167.1
195.252	166.36
195.639	-10.63
196.027	-33.75
196.414	168.89
196.801	-43.95
197.189	27.82
197.576	-346.92
197.963	-12.18
198.351	19.94
198.738	2.5
199.125	9.48
199.512	10.87
199.899	33.99
200.286	46.56
200.673	39.31
201.06	-5.99
201.447	13.67
201.833	15.41
202.22	6.71
202.607	32.82
202.994	27.75
203.38	5.59
203.767	16.15
204.154	7.5
204.54	49.04
204.927	10.47
205.313	38.27
205.699	10.23
206.086	18.26
206.472	28.95
206.858	64.27
207.245	17.54
207.631	35.41
208.017	26.58
208.403	32.82
208.789	-21.93
209.175	24.81
209.561	17.04
209.947	14.18
210.333	14.1
210.719	20.64
211.105	39.13
211.491	-87
211.876	3.63
212.262	-38.08
212.648	-8.99
213.034	21.66
213.419	0.91
213.805	19.29
214.19	-17.78
214.576	42.83
214.961	45.4
215.346	-34.91
215.732	9.79
216.117	22.74
216.502	23.73
216.888	11.25
217.273	-18.6
217.658	2.62
218.043	24.45
218.428	-7.5
218.813	33.09
219.198	-17.46
219.583	13.27
219.968	32.41
220.353	12.57
220.738	-5.71
221.122	-9.58
221.507	23.89
221.892	2.62
222.276	5.77
222.661	12.81
223.046	14.91
223.43	7.15
223.815	11.52
224.199	20.07
224.583	-3.25
224.968	21.21
225.352	0.28
225.736	4.65
226.121	9.26
226.505	11.04
226.889	8.11
227.273	5.82
227.657	-4.21
228.041	5.26
228.425	10.08
228.809	10.28
229.193	0.62
229.577	6.43
229.961	4.02
230.344	3.69
230.728	4.13
231.112	4.18
231.495	3.79
231.879	2.97
232.263	2.06
232.646	2.74
233.03	1.83
233.413	1.44
233.797	2.52
234.18	4.99
234.563	4.03
234.946	2.94
235.33	4.08
235.713	3.57
236.096	2.02
236.479	4.17
236.862	3.68
237.245	3.76
237.628	4.9
238.011	4.43
238.394	4.84
238.777	3.28
239.16	3.68
239.543	3.88
239.925	6.52
240.308	3.79
240.691	2.6
241.073	3.18
241.456	2.63
241.838	3.91
242.221	3.44
242.603	3.23
242.986	3.16
243.368	3.09
243.75	3.15
244.133	3.15
244.515	3.26
244.897	2.92
245.279	3.38
245.661	3.12
246.043	3.61
246.425	3.41
246.807	3.4
247.189	3.07
247.571	2.86
247.953	3.66
248.335	3.51
248.717	3.17
249.098	3.23
249.48	3.36
249.862	2.84
250.243	3.36
250.625	2.94
251.006	3.65
251.388	3.14
251.769	4.11
252.151	3.74
252.532	4.36
252.913	2.85
253.295	3.53
253.676	3.57
254.057	3.26
254.438	3.79
254.819	3.46
255.2	3.73
255.581	3.86
255.962	2.87
256.343	3.9
256.724	2.88
257.105	2.99
257.486	3.94
257.867	2.9
258.247	3.56
258.628	3.24
259.009	3.9
259.389	3.25
259.77	4.09
260.15	3.52
260.531	3.01
260.911	3.04
261.292	3.15
261.672	2.97
262.052	3.25
262.432	3.51
262.813	3.48
263.193	3.1
263.573	4.27
263.953	3.23
264.333	3.55
264.713	3.18
265.093	3.93
265.473	3.62
265.853	3.24
266.233	3.09
266.612	3.19
266.992	3.09
267.372	3.41
267.752	3.21
268.131	3.56
268.511	3.86
268.89	3.37
269.27	3.12
269.649	2.66
270.029	2.64
270.408	2.81
270.787	3.93
271.167	3.41
271.546	3.62
271.925	3.49
272.304	3.6
272.683	3.02
273.062	3.54
273.441	2.93
273.82	2.73
274.199	3.51
274.578	3.58
274.957	2.7
275.336	3.23
275.715	2.86
276.093	3.68
276.472	3.2
276.851	3.06
277.229	3.21
277.608	3.5
277.986	3.22
278.365	4.04
278.743	3.36
279.122	2.87
279.5	3.21
279.878	2.85
280.257	3.54
280.635	2.65
281.013	2.79
281.391	2.76
281.769	3.95
282.147	3.28
282.525	3.05
282.903	3.54
283.281	3.13
283.659	2.74
284.037	3.06
284.415	2.88
284.792	3.12
285.17	3.14
285.548	3.19
285.925	3.04
286.303	2.97
286.68	3.1
287.058	2.95
287.435	3.35
287.813	3.23
288.19	3.52
288.567	3.09
288.945	2.29
289.322	2.87
289.699	3.26
290.076	2.91
290.453	3.24
290.83	3.61
291.207	3.01
291.584	3.17
291.961	3.34
292.338	3.54
292.715	3.06
293.092	3.19
293.469	3.74
293.845	3.63
294.222	3.67
294.599	3.8
294.975	3.4
295.352	3.3
295.728	3.28
296.105	3.38
296.481	3.6
296.858	3.32
297.234	3.63
297.61	3.81
297.986	3.02
298.363	3.49
298.739	3.76
299.115	3.48
299.491	3.78
299.867	3.41
300.243	3.66
300.619	3.79
300.995	3.8
301.371	3.62
301.746	3.96
302.122	4.03
302.498	3.45
302.874	4.2
303.249	3.78
303.625	4.01
304	3.91
304.376	4.37
304.751	5.09
305.127	4.73
305.502	4.77
305.878	4.76
306.253	4.57
306.628	4.31
307.003	4.52
307.378	4.8
307.754	4.97
308.129	4.94
308.504	4.98
308.879	4.5
309.254	4.31
309.629	4.38
310.003	4.54
310.378	4.01
310.753	4.59
311.128	4.84
311.502	4.89
311.877	5.15
312.252	4.86
312.626	4.86
313.001	5.1
313.375	5.13
313.75	5.37
314.124	5.41
314.498	5.71
314.873	5.58
315.247	5.77
315.621	5.3
315.995	5.38
316.369	5.74
316.743	5.77
317.117	5.41
317.491	6.02
317.865	5.65
318.239	5.97
318.613	5.74
318.987	5.96
319.361	6.05
319.734	5.52
320.108	5.87
320.482	5.85
320.855	5.71
321.229	6.8
321.602	5.91
321.976	5.83
322.349	6.26
322.723	6.46
323.096	7.03
323.469	6.64
323.843	6.66
324.216	6.38
324.589	6.3
324.962	5.9
325.335	6.85
325.708	6.56
326.081	6.32
326.454	6.32
326.827	7.11
327.2	6.5
327.573	6.86
327.945	7.04
328.318	7
328.691	7.22
329.063	7.33
329.436	7.22
329.809	6.56
330.181	7.62
330.553	7.66
330.926	7.17
331.298	7.39
331.671	7.3
332.043	7.67
332.415	7.31
332.787	7.31
333.159	7.34
333.532	7.41
333.904	7.31
334.276	7.39
334.648	7.48
335.02	7.72
335.391	7.86
335.763	7.39
336.135	7.94
336.507	8.06
336.879	7.73
337.25	7.6
337.622	7.91
337.993	8
338.365	8.13
338.736	8.05
339.108	7.73
339.479	8.57
339.851	7.99
340.222	8
340.593	7.91
340.964	8.31
341.336	8.41
341.707	8.33
342.078	8.23
342.449	8.59
342.82	8.39
343.191	8.98
343.562	8.81
343.933	8.45
344.303	8.83
344.674	8.76
345.045	8.42
345.416	8.49
345.786	8.79
346.157	8.34
346.527	8.74
346.898	8.62
347.268	8.72
347.639	9.02
348.009	8.84
348.38	8.9
348.75	9.26
349.12	9.09
349.49	9.22
349.861	8.93
350.231	9.13
350.601	9.38
350.971	9.71
351.341	9.47
351.711	9.09
352.081	9.04
352.45	9.58
352.82	9.24
353.19	9.04
353.56	9.52
353.929	9.79
354.299	9.75
354.669	9.59
355.038	9.35
355.408	9.34
355.777	9.75
356.147	9.84
356.516	9.91
356.885	9.38
357.254	9.56
357.624	10.27
357.993	9.89
358.362	9.81
358.731	9.75
359.1	9.65
359.469	9.99
359.838	10.21
360.207	10.4
360.576	10.2
360.945	9.99
361.314	10.13
361.682	10.08
362.051	10.24
362.42	9.97
362.788	10.23
363.157	10.51
363.525	10.68
363.894	10.41
364.262	10.13
364.631	10.41
364.999	10.65
365.367	10.69
365.735	10.59
366.104	10.5
366.472	10.57
366.84	10.63
367.208	10.47
367.576	10.88
367.944	11.02
368.312	10.65
368.68	10.84
369.048	10.82
369.416	11
369.783	10.88
370.151	11.16
370.519	11.54
370.886	11.05
371.254	11.04
371.621	11.16
371.989	11.12
372.356	11.23
372.724	11.39
373.091	11.08
373.458	11.06
373.826	11.66
374.193	11.67
374.56	11.47
374.927	11.42
375.294	11.44
375.661	11.97
376.028	11.85
376.395	11.9
376.762	11.92
377.129	11.82
377.496	11.77
377.863	11.89
378.229	11.67
378.596	11.64
378.963	11.94
379.329	11.76
379.696	12.02
380.062	11.97
380.429	11.88
380.795	12.05
381.161	12.16
381.528	12.2
381.894	12.5
382.26	12.02
382.626	12.39
382.993	12.27
383.359	12.27
383.725	12.76
384.091	12.25
384.457	12.44
384.823	12.6
385.188	12.76
385.554	12.32
385.92	12.67
386.286	12.38
386.651	12.58
387.017	12.78
387.383	12.55
387.748	12.68
388.114	12.73
388.479	12.65
388.845	12.66
389.21	12.7
389.575	12.89
389.94	12.98
390.306	13.09
390.671	13
391.036	13.14
391.401	12.97
391.766	13.34
392.131	12.7
392.496	13.3
392.861	13.23
393.226	13.27
393.591	12.83
393.956	13.28
394.32	13.32
394.685	13.12
395.05	13.48
395.414	13.37
395.779	13.24
396.143	13.45
396.508	13.34
396.872	13.75
397.236	13.43
397.601	13.53
397.965	13.64
398.329	13.71
398.694	13.61
399.058	13.78
399.422	13.94
399.786	14.02
400.15	13.47
400.514	13.77
400.878	13.81
401.242	13.91
401.605	13.85
401.969	14.18
402.333	14.09
402.697	14.14
403.06	14.02
403.424	13.65
403.787	14.14
404.151	13.99
404.514	14.31
404.878	14.23
405.241	14.25
405.604	13.97
405.968	14.09
406.331	14.08
406.694	14.35
407.057	14.29
407.42	14.25
407.783	14.14
408.146	14.5
408.509	14.38
408.872	14.57
409.235	14.64
409.598	14.57
409.961	14.69
410.323	14.57
410.686	14.67
411.049	14.61
411.411	14.51
411.774	14.68
412.136	14.64
412.499	14.71
412.861	14.55
413.223	14.55
413.586	14.52
413.948	14.61
414.31	14.81
414.672	15
415.035	14.74
415.397	14.91
415.759	14.98
416.121	15.22
416.483	15.17
416.845	14.91
417.206	15.07
417.568	15.02
417.93	15.17
418.292	14.94
418.653	15.19
419.015	14.93
419.377	15.17
419.738	15.12
420.1	15.09
420.461	15.01
420.822	15.02
421.184	14.99
421.545	15.16
421.906	15.03
422.267	15.25
422.629	15.19
422.99	15.16
423.351	15.18
423.712	15.19
424.073	15.3
424.434	15.25
424.795	15.57
425.155	15.48
425.516	15.4
425.877	15.53
426.238	15.41
426.598	15.55
426.959	15.56
427.32	15.69
427.68	15.66
428.041	15.99
428.401	15.78
428.761	15.94
429.122	16.11
429.482	16.15
429.842	16.37
430.202	16.37
430.563	16.14
430.923	16.16
431.283	16.39
431.643	16.55
432.003	16.44
432.363	16.39
432.722	16.37
433.082	16.42
433.442	16.48
433.802	16.52
434.161	16.72
434.521	16.65
434.881	16.44
435.24	16.69
435.6	16.49
435.959	16.51
436.319	16.61
436.678	16.87
437.037	16.81
437.396	16.77
437.756	16.77
438.115	16.82
438.474	16.73
438.833	16.77
439.192	17.08
439.551	16.99
439.91	16.98
440.269	16.98
440.628	17.16
440.987	17.13
441.345	17.09
441.704	17.14
442.063	17.14
442.421	17
442.78	16.96
443.138	17.14
443.497	17.09
443.855	17.27
444.214	17.3
444.572	17.49
444.93	17.45
445.288	17.66
445.647	17.5
446.005	17.65
446.363	17.51
446.721	17.41
447.079	17.38
447.437	17.56
447.795	17.32
448.153	17.4
448.51	17.51
448.868	17.46
449.226	17.46
449.584	17.62
449.941	17.64
450.299	17.75
450.656	17.92
451.014	17.97
451.371	17.97
451.729	18.01
452.086	18.08
452.443	18.32
452.801	18.26
453.158	18.27
453.515	18.42
453.872	18.07
454.229	18.32
454.586	18.34
454.943	18.34
455.3	18.26
455.657	18.52
456.014	18.31
456.371	18.49
456.727	18.55
457.084	18.59
457.441	18.65
457.797	18.58
458.154	18.61
458.51	18.65
458.867	18.98
459.223	18.75
459.58	18.87
459.936	18.96
460.292	18.63
460.648	18.67
461.005	18.8
461.361	18.64
461.717	18.46
462.073	18.58
462.429	18.8
462.785	18.83
463.141	18.99
463.496	19
463.852	19.15
464.208	19.18
464.564	19.36
464.919	19.34
465.275	19.43
465.631	19.28
465.986	19.37
466.342	19.48
466.697	19.49
467.052	19.47
467.408	19.47
467.763	19.57
468.118	19.78
468.473	19.47
468.829	19.69
469.184	19.68
469.539	19.59
469.894	19.56
470.249	19.66
470.603	19.67
470.958	20.07
471.313	19.98
471.668	19.95
472.023	20.08
472.377	20.16
472.732	20.12
473.086	20.03
473.441	20
473.795	20.27
474.15	20.21
474.504	20.29
474.859	20.08
475.213	20.09
475.567	20.33
475.921	20.38
476.275	20.42
476.63	20.42
476.984	20.57
477.338	20.49
477.692	20.46
478.045	20.45
478.399	20.38
478.753	20.38
479.107	20.43
479.461	20.5
479.814	20.52
480.168	20.69
480.521	20.55
480.875	20.57
481.228	20.64
481.582	20.6
481.935	20.7
482.289	20.67
482.642	20.65
482.995	20.53
483.348	20.37
483.701	20.58
484.055	20.48
484.408	20.25
484.761	20.04
485.114	19.8
485.466	19.67
485.819	19.72
486.172	19.91
486.525	20.06
486.878	20.18
487.23	20.43
487.583	20.54
487.936	20.57
488.288	20.43
488.641	20.26
488.993	20.12
489.345	20.07
489.698	20.27
490.05	20.25
490.402	20.45
490.754	20.73
491.107	20.8
491.459	20.91
491.811	21.04
492.163	21.07
492.515	21.03
492.866	20.78
493.218	20.45
493.57	20.52
493.922	20.71
494.274	20.95
494.625	21.06
494.977	21.37
495.328	21.46
495.68	21.63
496.031	21.79
496.383	21.81
496.734	21.89
497.086	21.71
497.437	21.85
497.788	21.9
498.139	21.65
498.49	21.69
498.842	21.75
499.193	21.79
499.544	21.87
499.894	21.93
500.245	21.89
500.596	22.01
500.947	22.16
501.298	22.3
501.648	22.38
501.999	22.34
502.35	22.21
502.7	22.46
503.051	22.31
503.401	22.54
503.752	22.58
504.102	22.49
504.452	22.65
504.803	22.55
505.153	22.55
505.503	22.62
505.853	22.49
506.203	22.72
506.553	22.8
506.903	22.72
507.253	22.68
507.603	22.94
507.953	22.96
508.303	22.86
508.652	22.68
509.002	22.78
509.352	22.87
509.701	22.91
510.051	22.65
510.4	22.69
510.75	22.78
511.099	22.76
511.449	22.67
511.798	22.84
512.147	22.91
512.496	22.97
512.846	22.97
513.195	22.91
513.544	23
513.893	22.93
514.242	23.02
514.591	23.11
514.939	23.28
515.288	23.3
515.637	23.17
515.986	23.31
516.334	23.35
516.683	23.56
517.032	23.42
517.38	23.57
517.729	23.43
518.077	23.39
518.426	23.6
518.774	23.42
519.122	23.46
519.47	23.23
519.819	23.22
520.167	23.15
520.515	23.1
520.863	23.28
521.211	23.36
521.559	23.33
521.907	23.53
522.255	23.69
522.602	23.66
522.95	23.89
523.298	23.81
523.645	23.81
523.993	24.03
524.341	23.96
524.688	24.05
525.036	23.93
525.383	23.94
525.73	24.03
526.078	23.97
526.425	23.91
526.772	23.8
527.119	23.69
527.466	23.43
527.814	23.62
528.161	23.64
528.508	23.78
528.854	23.83
529.201	23.67
529.548	23.47
529.895	23.22
530.242	23.04
530.588	23.11
530.935	23.29
531.282	23.5
531.628	23.51
531.975	23.7
532.321	23.82
532.667	24.08
533.014	24.2
533.36	24.11
533.706	24.06
534.052	24.09
534.399	24.09
534.745	23.7
535.091	23.68
535.437	23.78
535.783	23.96
536.129	24.1
536.474	24.27
536.82	24.4
537.166	24.54
537.512	24.48
537.857	24.55
538.203	24.33
538.549	24.3
538.894	24.34
539.239	24.55
539.585	24.77
539.93	24.96
540.276	25.14
540.621	24.99
540.966	24.97
541.311	25.06
541.656	25
542.001	24.91
542.346	24.64
542.691	24.36
543.036	24.13
543.381	24.27
543.726	24.4
544.071	24.52
544.415	24.61
544.76	24.69
545.105	24.98
545.449	24.91
545.794	25.09
546.138	25.17
546.483	25.25
546.827	25.29
547.171	25.25
547.516	25.27
547.86	25.25
548.204	25.31
548.548	25.37
548.892	25.45
549.236	25.47
549.58	25.56
549.924	25.63
550.268	25.84
550.612	25.94
550.956	25.96
551.3	26.37
551.643	26.29
551.987	26.16
552.33	26.17
552.674	26.18
553.017	26.2
553.361	26.22
553.704	26.33
554.048	26.08
554.391	26.13
554.734	26.15
555.077	26.17
555.42	26.17
555.764	26.26
556.107	26.5
556.45	26.43
556.793	26.72
557.135	26.54
557.478	26.44
557.821	26.71
558.164	26.71
558.507	26.81
558.849	26.67
559.192	26.79
559.534	26.97
559.877	27.11
560.219	26.84
560.562	26.97
560.904	26.74
561.246	26.82
561.589	27.08
561.931	26.98
562.273	27.02
562.615	27.07
562.957	27.13
563.299	27.16
563.641	27.14
563.983	26.93
564.325	27.08
564.667	27.09
565.008	27.53
565.35	27.3
565.692	27.1
566.033	27.29
566.375	27.45
566.716	27.27
567.058	27.14
567.399	27.16
567.741	27.25
568.082	27
568.423	27.12
568.764	27.16
569.105	27.18
569.447	27.37
569.788	27.42
570.129	27.58
570.47	27.29
570.811	27.52
571.151	27.41
571.492	27.44
571.833	27.76
572.174	27.61
572.514	27.66
572.855	27.38
573.195	27.41
573.536	27.45
573.876	27.49
574.217	27.41
574.557	27.49
574.898	27.55
575.238	27.7
575.578	27.71
575.918	27.72
576.258	27.85
576.598	27.92
576.938	27.77
577.278	27.92
577.618	27.89
577.958	27.91
578.298	27.82
578.638	28.07
578.977	27.79
579.317	27.99
579.657	27.99
579.996	28.28
580.336	28.37
580.675	28.27
581.014	28.24
581.354	28.57
581.693	28.19
582.032	28.36
582.372	28.61
582.711	28.68
583.05	28.61
583.389	28.86
583.728	28.47
584.067	28.73
584.406	28.83
584.745	28.65
585.083	29.08
585.422	28.68
585.761	28.96
586.1	28.88
586.438	28.71
586.777	29
587.115	28.87
587.454	28.84
587.792	29.08
588.13	29.01
588.469	28.85
588.807	28.93
589.145	29.16
589.483	28.93
589.821	28.98
590.159	28.89
590.497	29.3
590.835	29.06
591.173	28.88
591.511	29.16
591.849	29.33
592.187	29.32
592.524	29.47
592.862	29.51
593.2	29.35
593.537	29.05
593.875	29.38
594.212	29.31
594.55	29.41
594.887	29.36
595.224	29.25
595.561	29.63
595.899	29.37
596.236	29.23
596.573	29.43
596.91	29.52
597.247	29.18
597.584	29.2
597.921	29.29
598.258	29.43
598.594	29.26
598.931	29.2
599.268	29.15
599.604	29.52
599.941	29.55
600.277	29.44
600.614	29.59
600.95	29.8
601.287	29.87
601.623	29.86
601.959	30.11
602.296	29.79
602.632	29.79
602.968	29.7
603.304	30.15
603.64	29.89
603.976	30.04
604.312	29.73
604.648	29.65
604.984	29.73
605.319	29.82
605.655	29.58
605.991	29.62
606.326	29.67
606.662	29.52
606.998	29.59
607.333	29.84
607.668	29.86
608.004	30.14
608.339	30.25
608.674	30.24
609.01	30.15
609.345	30.09
609.68	30.22
610.015	30.29
610.35	30.37
610.685	30.17
611.02	30.21
611.355	29.94
611.689	29.9
612.024	30.36
612.359	29.96
612.694	30.44
613.028	30.62
613.363	30.7
613.697	30.48
614.032	30.4
614.366	30.51
614.7	30.71
615.035	31.04
615.369	30.73
615.703	30.81
616.037	30.85
616.371	30.94
616.705	31
617.039	30.64
617.373	31.11
617.707	31.02
618.041	30.93
618.375	31.36
618.709	30.53
619.042	31.16
619.376	30.71
619.71	30.74
620.043	30.95
620.377	31.09
620.71	30.91
621.043	31.34
621.377	31.15
621.71	31.52
622.043	31.22
622.376	30.98
622.709	30.99
623.043	31.16
623.376	31.13
623.709	31.16
624.041	31.03
624.374	31.3
624.707	31.15
625.04	31.41
625.373	30.95
625.705	31.24
626.038	31.55
626.37	31.02
626.703	31.11
627.035	31.58
627.368	31.05
627.7	31.15
628.032	31.17
628.365	31.58
628.697	31.63
629.029	31.23
629.361	31.49
629.693	31.27
630.025	31.47
630.357	31.56
630.689	31.81
631.021	31.42
631.353	31.59
631.684	31.76
632.016	31.56
632.348	31.64
632.679	32.19
633.011	31.91
633.342	31.63
633.674	31.92
634.005	32.37
634.336	31.55
634.668	31.47
634.999	31.89
635.33	31.67
635.661	31.99
635.992	32.11
636.323	31.75
636.654	32.01
636.985	31.86
637.316	31.99
637.647	32.19
637.977	31.82
638.308	31.83
638.639	32.04
638.969	32.31
639.3	32.18
639.63	32.2
639.961	32.27
640.291	32.31
640.622	32.41
640.952	32.38
641.282	32.02
641.612	32.05
641.943	32.37
642.273	32.86
642.603	32.48
642.933	32.15
643.263	32.51
643.592	32.76
643.922	32.58
644.252	32.83
644.582	32.57
644.911	32.66
645.241	33.14
645.571	32.41
645.9	32.55
646.23	32.88
646.559	32.99
646.888	32.49
647.218	32.94
647.547	32.77
647.876	32.56
648.205	33.07
648.534	33.28
648.863	32.78
649.192	32.84
649.521	32.91
649.85	32.81
650.179	33.12
650.508	33.29
650.837	33.05
651.165	33.16
651.494	32.79
651.822	33.03
652.151	33.2
652.479	32.94
652.808	32.97
653.136	32.83
653.465	33.15
653.793	32.97
654.121	32.99
654.449	32.84
654.777	32.79
655.105	33.26
655.433	33.08
655.761	33.07
656.089	33.24
656.417	33.52
656.745	33.53
657.073	33.81
657.4	33.74
657.728	33.59
658.056	33.07
658.383	33.43
658.711	33.36
659.038	33.41
659.365	33.12
659.693	33.6
660.02	33.01
660.347	33.58
660.674	32.85
661.001	33.03
661.329	33.18
661.656	33.29
661.982	33.38
662.309	33.32
662.636	33.75
662.963	32.75
663.29	33.44
663.616	33.82
663.943	33.51
664.27	33.9
664.596	34.08
664.923	34.37
665.249	33.82
665.576	33.58
665.902	33.4
666.228	33.68
666.554	33.69
666.881	33.8
667.207	33.43
667.533	33.78
667.859	33.68
668.185	33.4
668.511	33.74
668.837	34.53
669.162	34.31
669.488	33.71
669.814	34.1
670.139	33.96
670.465	33.96
670.791	34.01
671.116	33.5
671.442	33.46
671.767	34.05
672.092	33.97
672.418	33.57
672.743	34.29
673.068	34.32
673.393	33.95
673.718	34.31
674.043	33.89
674.368	33.88
674.693	34.31
675.018	33.93
675.343	34.14
675.667	34.18
675.992	34.56
676.317	33.77
676.641	34.07
676.966	33.94
677.29	34.14
677.615	34.73
677.939	34.58
678.264	34.14
678.588	35.11
678.912	34.12
679.236	34.35
679.56	34.84
679.885	34.48
680.209	34.21
680.532	33.67
680.856	34.55
681.18	34.42
681.504	34.32
681.828	34.04
682.152	34.75
682.475	33.56
682.799	34.11
683.122	34.7
683.446	34.38
683.769	34.49
684.093	34.11
684.416	35.06
684.739	34.78
685.062	34.66
685.386	34.91
685.709	34.7
686.032	35.05
686.355	34.84
686.678	35.01
687.001	34.85
687.324	34.62
687.646	34.99
687.969	34.05
688.292	35.09
688.614	34.61
688.937	34.6
689.26	34.67
689.582	35.54
689.904	34.76
690.227	35.11
690.549	35.15
690.871	34.42
691.194	35.94
691.516	35.16
691.838	35.17
692.16	35.74
692.482	34.71
692.804	36.07
693.126	35.6
693.448	35.34
693.769	35.2
694.091	35.16
694.413	35
694.735	34.9
695.056	34.51
695.378	35.01
695.699	34.5
696.021	36.31
696.342	35.54
696.663	35.82
696.984	34.27
697.306	35.33
697.627	34.9
697.948	34.88
698.269	35.06
698.59	35.67
698.911	35.49
699.232	35.18
699.553	34.95
699.873	35.51
700.194	34.85
700.515	34.74
700.835	34.98
701.156	35.23
701.477	35.54
701.797	35.4
702.117	34.97
702.438	35.33
702.758	35.22
703.078	35.3
703.398	34.82
703.719	35.41
704.039	35.08
704.359	35.99
704.679	35.02
704.999	35.33
705.319	35.35
705.638	35.64
705.958	35.47
706.278	36.13
706.597	35.63
706.917	35.37
707.237	35.59
707.556	36.01
707.876	35.12
708.195	35.45
708.514	35.14
708.834	35.58
709.153	36.61
709.472	36.4
709.791	35.81
710.11	35.92
710.429	34.51
710.748	35.63
711.067	35.62
711.386	36.06
711.705	35.46
712.023	35.89
712.342	36.63
712.661	35.4
712.979	36.23
713.298	36.01
713.616	36.62
713.935	35.69
714.253	36.1
714.572	36.19
714.89	36.1
715.208	35.57
715.526	36.17
715.844	36.69
716.162	35.28
716.48	34.83
716.798	36.22
717.116	35.97
717.434	35.72
717.752	36.18
718.069	36.91
718.387	36.38
718.705	34.92
719.022	36.12
719.34	36.4
719.657	36.64
719.975	35.48
720.292	36.55
720.609	36.12
720.927	36.4
721.244	36.22
721.561	36.6
721.878	36.15
722.195	35.73
722.512	35.84
722.829	36.78
723.146	37.22
723.463	35.94
723.779	36.19
724.096	35.22
724.413	35.8
724.729	36.87
725.046	36.62
725.362	37.02
725.679	37.33
725.995	36.75
726.311	36.44
726.628	35.62
726.944	36.21
727.26	37.5
727.576	36.22
727.892	36.12
728.208	36.92
728.524	37.15
728.84	37.53
729.156	36.48
729.472	36.12
729.787	36.03
730.103	35.41
730.419	37.22
730.734	37.02
731.05	36.38
731.365	36.22
731.681	36.35
731.996	36.07
732.311	37.12
732.626	36.28
732.942	36.02
733.257	36.72
733.572	37.7
733.887	37.26
734.202	37.2
734.517	36.58
734.832	36.46
735.146	36.47
735.461	37.07
735.776	37.02
736.091	37.7
736.405	37.58
736.72	35.65
737.034	36.01
737.349	37.44
737.663	36.77
737.977	36.24
738.292	36.64
738.606	37.25
738.92	37.56
739.234	37.75
739.548	36.48
739.862	35.38
740.176	36.32
740.49	38.34
740.804	37.08
741.117	37.94
741.431	37.61
741.745	36.81
742.058	38.43
742.372	35.74
742.685	38.61
742.999	36.82
743.312	37.08
743.626	38.59
743.939	37.07
744.252	37.08
744.565	37.87
744.878	36.74
745.191	38.15
745.505	37.1
745.817	37.17
746.13	36.16
746.443	37.01
746.756	37.46
747.069	38.18
747.381	36.87
747.694	36.69
748.007	37.49
748.319	39.06
748.632	36.2
748.944	37.12
749.256	37.13
749.569	38.13
749.881	38.68
750.193	37.51
750.505	38.2
750.817	37.45
751.129	38.44
751.441	37.18
751.753	36.57
752.065	37.84
752.377	37.42
752.689	37.89
753	37.87
753.312	37.54
753.624	36.37
753.935	37.08
754.247	35.27
754.558	37.22
754.869	37.5
755.181	37.02
755.492	37.01
755.803	37.07
756.114	37.72
756.425	38.65
756.736	36.92
757.047	37.21
757.358	39.06
757.669	39.15
757.98	37.64
758.291	36.16
758.601	39.52
758.912	38.16
759.223	38.12
759.533	37.52
759.844	38.38
760.154	37.89
760.464	35.51
760.775	38.17
761.085	38.24
761.395	37.36
761.705	39.33
762.016	37.31
762.326	36.73
762.636	38.67
762.945	37.52
763.255	39.91
763.565	37.06
763.875	38.57
764.185	37.78
764.494	36.98
764.804	37.16
765.113	38.87
765.423	37.35
765.732	37.1
766.042	38.38
766.351	38.09
766.66	38.57
766.97	37.74
767.279	38.58
767.588	40
767.897	38.33
768.206	39.27
768.515	37.97
768.824	37.21
769.133	38.38
769.441	37.96
769.75	36.44
770.059	38.58
770.367	38.73
770.676	39.09
770.984	39.18
771.293	37.6
771.601	39.09
771.91	37.32
772.218	39.39
772.526	39.38
772.834	35.94
773.142	36.05
773.45	38.97
773.758	40.33
774.066	35.35
774.374	35.27
774.682	39.46
774.99	36.66
775.298	38.82
775.605	39.48
775.913	36.15
776.22	37.48
776.528	39.52
776.835	38.35
777.143	39.24
777.45	38.12
777.757	40.27
778.065	39.87
778.372	38.38
778.679	37.95
778.986	37.32
779.293	36.21
779.6	35.88
779.907	39.25
780.214	39.6
780.52	42.19
780.827	38.99
781.134	38.83
781.44	37.19
781.747	39.49
782.053	38.7
782.36	39.68
782.666	39.42
782.973	36.95
783.279	34.42
783.585	39.78
783.891	39.23
784.197	37.64
784.503	37.8
784.809	40.65
785.115	39.97
785.421	40.17
785.727	36.52
786.033	39.77
786.339	37.34
786.644	39.26
786.95	36.1
787.255	38.14
787.561	37.01
787.866	38.82
788.172	38.13
788.477	36.84
788.782	37.81
789.088	40.24
789.393	40.92
789.698	39.21
790.003	39.69
790.308	39.92
790.613	41.86
790.918	36.45
791.223	41.73
791.527	37.09
791.832	40.05
792.137	38.21
792.441	40.77
792.746	42.71
793.05	37.57
793.355	39.06
793.659	41.97
793.963	39.44
794.268	39.93
794.572	41.56
794.876	37.82
795.18	39.55
795.484	39.31
795.788	38.27
796.092	36.84
796.396	39.19
796.7	41.73
797.004	40.89
797.307	41.54
797.611	40.92
797.915	42.24
798.218	40.27
798.522	37.09
798.825	38.43
799.128	43.89
799.432	42.65
799.735	40.91
800.038	43.14
800.341	42.44
800.644	37.32
800.947	40.72
801.25	35.65
801.553	38.38
801.856	38.7
802.159	43.4
802.462	36.59
802.764	40.08
803.067	37.71
803.37	38.06
803.672	41.95
803.975	39.97
804.277	36.63
804.579	41.03
804.882	41.93
805.184	36.42
805.486	35.54
805.788	40.73
806.09	36.76
806.392	38.6
806.694	38.16
806.996	38.16
807.298	39.64
807.6	41.22
807.902	36.07
808.203	33.58
808.505	37.26
808.807	38.57
809.108	36.61
809.409	38.61
809.711	41.71
810.012	42.91
810.313	42.62
810.615	39.94
810.916	40.39
811.217	33.91
811.518	36.2
811.819	41.68
812.12	42.12
812.421	41.27
812.722	38.09
813.023	29.85
813.323	32.48
813.624	37.54
813.925	37.46
814.225	40.74
814.526	40.18
814.826	43.51
815.126	36.47
815.427	40.83
815.727	39.74
816.027	36.78
816.327	39.57
816.627	39.91
816.927	37.8
817.227	39.84
817.527	39.31
817.827	37.89
818.127	41.93
818.427	35.34
818.727	33.39
819.026	35.09
819.326	43.86
819.625	42.94
819.925	39.29
820.224	35.7
820.524	39.16
820.823	43.98
821.122	40.54
821.421	39.85
821.72	43.52
822.019	37.79
822.318	42.01
822.617	36.29
822.916	44.18
823.215	37.61
823.514	37.09
823.813	40.6
824.111	39.16
824.41	38.91
824.709	39.53
825.007	40.15
825.306	39.51
825.604	40.51
825.902	40.53
826.201	42.72
826.499	40.06
826.797	40.59
827.095	41.88
827.393	41.87
827.691	41.72
827.989	39.35
828.287	42.01
828.585	40.89
828.882	38.98
829.18	41.09
829.478	43.37
829.775	39.4
830.073	40.85
830.37	41.24
830.668	41.19
830.965	41.21
831.263	41.98
831.56	41.63
831.857	38.57
832.154	42.43
832.451	44.22
832.748	40.47
833.045	39.34
833.342	37.29
833.639	41.82
833.936	34.22
834.232	43.59
834.529	41.24
834.826	39.09
835.122	44.72
835.419	42.19
835.715	40.6
836.012	42.24
836.308	41.97
836.604	38.99
836.901	40.78
837.197	40.84
837.493	39.55
837.789	40.2
838.085	43.73
838.381	39.59
838.677	42.76
838.972	35.55
839.268	42.33
839.564	38.09
839.86	42.47
840.155	42.41
840.451	39.36
840.746	29.15
841.042	34.37
841.337	38.68
841.632	36.05
841.928	38.73
842.223	43.47
842.518	44.78
842.813	33.7
843.108	37.44
843.403	44.92
843.698	36.7
843.993	31.67
844.287	38.85
844.582	48.54
844.877	44.9
845.171	46.04
845.466	37.91
845.761	37.72
846.055	45.11
846.349	42.11
846.644	43.46
846.938	27.69
847.232	39.91
847.526	41.06
847.82	39.31
848.114	46.72
848.408	47.41
848.702	26.12
848.996	32.98
849.29	34.12
849.584	36.6
849.877	47.6
850.171	45.25
850.465	28.63
850.758	31.81
851.052	31.79
851.345	32.85
851.638	51.72
851.932	33.41
852.225	54.56
852.518	54.91
852.811	29.76
853.104	64.15
853.397	33.29
853.69	28.57
853.983	25.31
854.276	51.23
854.569	41.84
854.861	47.85
855.154	38.26
855.447	34.29
855.739	40.64
856.032	37.13
856.324	39.96
856.616	43.13
856.909	35.88
857.201	39.87
857.493	33.94
857.785	36.22
858.077	27.7
858.369	49.64
858.661	40.67
858.953	54.53
859.245	41.17
859.537	53.01
859.829	38.32
860.12	45.34
860.412	40.79
860.703	21.99
860.995	46.41
861.286	16.28
861.578	42.11
861.869	10.57
862.16	22.65
862.452	22.33
862.743	41.37
863.034	46.34
863.325	50.79
863.616	32.66
863.907	32.31
864.198	47.4
864.488	25.43
864.779	19.75
865.07	39.8
865.36	24.5
865.651	44.94
865.941	38.24
866.232	37.3
866.522	17.46
866.813	25.65
867.103	35.59
867.393	54.52
867.683	43.72
867.973	29.94
868.263	50.69
868.553	40.09
868.843	42.95
869.133	38.43
869.423	50.62
869.713	31.49
870.002	34.57
870.292	20.66
870.582	39.35
870.871	32.7
871.161	31.05
871.45	4.17
871.739	34.34
872.029	48.33
872.318	27
872.607	36.57
872.896	31.84
873.185	22.56
873.474	8.64
873.763	51.48
874.052	25.67
874.341	55.77
874.63	38.1
874.918	44.13
875.207	39.35
875.496	41.12
875.784	45.4
876.073	19.5
876.361	11.92
876.649	32.42
876.938	41.6
877.226	55.07
877.514	38.78
877.802	41.81
878.09	41.71
878.378	53.74
878.666	23.86
878.954	36.78
879.242	52.06
879.53	38.81
879.817	55.79
880.105	11.45
880.392	50.14
880.68	44.8
880.967	36.62
881.255	35.7
881.542	46.84
881.83	13.09
882.117	27.66
882.404	16.23
882.691	40.95
882.978	45.03
883.265	52.99
883.552	29.98
883.839	45.39
884.126	51.68
884.413	41.01
884.699	34.11
884.986	47.83
885.273	39.44
885.559	39.44
885.846	39.44
