Data from 20-10_crown_Reflection__1__157.txt Node

Date: Fri Nov 11 21:17:33 CST 2022
User: ToomeyLab
Spectrometer: FLMS14357
Trigger mode: 0
Integration Time (sec): 1.000000E-2
Scans to average: 100
Electric dark correction enabled: true
Nonlinearity correction enabled: false
Boxcar width: 0
XAxis mode: Wavelengths
Number of Pixels in Spectrum: 2048
>>>>>Begin Spectral Data<<<<<
189.047	5.78
189.435	5.78
189.823	5.78
190.211	-4.98
190.599	70.43
190.987	27.57
191.375	-41.86
191.763	19.91
192.151	1621.21
192.538	-32.39
192.926	85.96
193.314	138.87
193.702	223.97
194.089	113.75
194.477	88.6
194.864	76.37
195.252	107.19
195.639	783.79
196.027	-18.58
196.414	2.6
196.801	57.83
197.189	72
197.576	2447.69
197.963	-594.08
198.351	-55.51
198.738	3.34
199.125	-1.02
199.512	20.33
199.899	-132.23
200.286	10.5
200.673	-5.25
201.06	-11.3
201.447	19.36
201.833	-5.05
202.22	-66.08
202.607	-22.64
202.994	33.06
203.38	17.95
203.767	13.11
204.154	17.06
204.54	21.44
204.927	-32.76
205.313	-44.29
205.699	-58.37
206.086	40.28
206.472	7.05
206.858	17.97
207.245	14.4
207.631	-16.38
208.017	27.78
208.403	10.51
208.789	16.78
209.175	-5.34
209.561	47.1
209.947	7.25
210.333	3.7
210.719	-13.74
211.105	3.54
211.491	-2.05
211.876	-2.54
212.262	13.48
212.648	-19.81
213.034	-8.73
213.419	-92.06
213.805	-26.12
214.19	-30.96
214.576	-0.28
214.961	-94.88
215.346	-24.96
215.732	-85.22
216.117	25.58
216.502	13.78
216.888	-23.89
217.273	-15.87
217.658	-25.87
218.043	1.27
218.428	-15.47
218.813	8.45
219.198	20.79
219.583	3.71
219.968	2.45
220.353	-22
220.738	-15.57
221.122	-6.61
221.507	-21.25
221.892	-18.76
222.276	8.6
222.661	6.9
223.046	-29.95
223.43	-4
223.815	5.5
224.199	2.25
224.583	-3.02
224.968	-12.3
225.352	-14.24
225.736	4.07
226.121	-5.18
226.505	0.55
226.889	-15.67
227.273	3.48
227.657	-7.16
228.041	-7.06
228.425	0.25
228.809	-0.93
229.193	3.9
229.577	2.22
229.961	2.6
230.344	1.89
230.728	0.98
231.112	0.26
231.495	1.88
231.879	0.28
232.263	0.88
232.646	-0.47
233.03	0.49
233.413	0.94
233.797	1.35
234.18	-0.18
234.563	-0.66
234.946	-0.9
235.33	1.11
235.713	0.59
236.096	1.09
236.479	0.46
236.862	3.85
237.245	0.22
237.628	2.08
238.011	3.1
238.394	1.46
238.777	3.09
239.16	1.55
239.543	-0.69
239.925	2.61
240.308	0.89
240.691	0.34
241.073	-0.18
241.456	0.57
241.838	2.54
242.221	1.93
242.603	2.11
242.986	1.21
243.368	1.13
243.75	1.99
244.133	1.8
244.515	1.56
244.897	1.67
245.279	1.59
245.661	1.4
246.043	1.95
246.425	2.48
246.807	0.75
247.189	0.61
247.571	1.5
247.953	1.4
248.335	1.61
248.717	1.79
249.098	1.91
249.48	1.5
249.862	1.76
250.243	1.3
250.625	1.26
251.006	2.77
251.388	2.26
251.769	1.91
252.151	1.44
252.532	1.59
252.913	1.97
253.295	1.6
253.676	1.05
254.057	1.62
254.438	1.31
254.819	0.73
255.2	2.31
255.581	1.29
255.962	1.33
256.343	1.12
256.724	1.13
257.105	1.06
257.486	0.94
257.867	1
258.247	1.18
258.628	1.31
259.009	1.43
259.389	1.33
259.77	2.25
260.15	1.55
260.531	1.58
260.911	1.17
261.292	1.96
261.672	1.44
262.052	1.61
262.432	1.89
262.813	1.67
263.193	1.21
263.573	1.35
263.953	1.75
264.333	1.23
264.713	1.1
265.093	1.96
265.473	0.67
265.853	0.92
266.233	1.28
266.612	1.03
266.992	1.09
267.372	1.75
267.752	1.42
268.131	1.36
268.511	1.52
268.89	1.48
269.27	1.17
269.649	1.48
270.029	1.99
270.408	1.51
270.787	1.27
271.167	1.09
271.546	1.76
271.925	1.36
272.304	1.72
272.683	1.38
273.062	1.41
273.441	1.4
273.82	1.35
274.199	1.64
274.578	1.24
274.957	1.58
275.336	1.53
275.715	1.61
276.093	1.09
276.472	1.11
276.851	0.98
277.229	1.48
277.608	1.44
277.986	1.64
278.365	1.49
278.743	1.43
279.122	1.53
279.5	1.5
279.878	0.92
280.257	1.6
280.635	1.44
281.013	1.3
281.391	1.44
281.769	1.01
282.147	1.2
282.525	1.17
282.903	1.06
283.281	1.59
283.659	1.2
284.037	1.26
284.415	1.02
284.792	1.35
285.17	1.75
285.548	1.42
285.925	0.81
286.303	1.35
286.68	1.7
287.058	1.41
287.435	1.59
287.813	1.62
288.19	0.93
288.567	1.37
288.945	1.39
289.322	1.68
289.699	0.96
290.076	1.98
290.453	1.05
290.83	1.14
291.207	1.67
291.584	1.44
291.961	1.55
292.338	1.16
292.715	1.6
293.092	1.62
293.469	1.17
293.845	1.17
294.222	1.05
294.599	1.65
294.975	2.06
295.352	1.58
295.728	1.43
296.105	1.34
296.481	1.04
296.858	1.41
297.234	1.29
297.61	1.17
297.986	1.51
298.363	1.59
298.739	1.63
299.115	1.46
299.491	1.59
299.867	1.3
300.243	1.46
300.619	1.72
300.995	1.98
301.371	2.1
301.746	1.84
302.122	1.57
302.498	1.77
302.874	1.34
303.249	1.44
303.625	1.67
304	0.77
304.376	1.59
304.751	0.78
305.127	1.27
305.502	1.82
305.878	2.25
306.253	1.3
306.628	1.49
307.003	1.61
307.378	1.62
307.754	1.79
308.129	1.86
308.504	1.81
308.879	2.08
309.254	1.77
309.629	1.49
310.003	1.5
310.378	1.76
310.753	1.54
311.128	2.1
311.502	1.94
311.877	1.64
312.252	2.06
312.626	1.56
313.001	1.51
313.375	1.56
313.75	1.61
314.124	1.4
314.498	1.68
314.873	1.59
315.247	1.63
315.621	2.14
315.995	2.16
316.369	2.07
316.743	1.75
317.117	1.84
317.491	1.88
317.865	1.33
318.239	1.75
318.613	2
318.987	2.04
319.361	1.44
319.734	1.88
320.108	1.6
320.482	1.66
320.855	1.59
321.229	1.22
321.602	1.71
321.976	1.74
322.349	2.05
322.723	1.72
323.096	2.13
323.469	1.89
323.843	2.17
324.216	1.73
324.589	2.11
324.962	2.16
325.335	2.44
325.708	2.03
326.081	2.21
326.454	1.8
326.827	1.49
327.2	2.51
327.573	2.55
327.945	1.97
328.318	1.6
328.691	1.8
329.063	2.04
329.436	1.63
329.809	1.82
330.181	1.58
330.553	1.24
330.926	2.01
331.298	2.02
331.671	1.82
332.043	1.47
332.415	2.25
332.787	2.8
333.159	2.26
333.532	2.52
333.904	2.57
334.276	1.8
334.648	1.56
335.02	1.73
335.391	2.19
335.763	1.98
336.135	1.75
336.507	1.38
336.879	1.84
337.25	1.93
337.622	2.4
337.993	2.32
338.365	2.43
338.736	2.06
339.108	1.83
339.479	1.84
339.851	2.16
340.222	1.85
340.593	2.28
340.964	2.6
341.336	2.18
341.707	1.8
342.078	1.55
342.449	2.24
342.82	2.49
343.191	2.32
343.562	2.29
343.933	2.06
344.303	1.83
344.674	2
345.045	1.99
345.416	2.51
345.786	1.78
346.157	1.98
346.527	2.01
346.898	1.57
347.268	2.1
347.639	2.22
348.009	1.88
348.38	2.02
348.75	2.17
349.12	2.41
349.49	1.86
349.861	2.21
350.231	2.01
350.601	2.1
350.971	2.14
351.341	2.15
351.711	2.03
352.081	2.19
352.45	2.11
352.82	1.79
353.19	2.39
353.56	2
353.929	1.97
354.299	2.28
354.669	2.13
355.038	1.91
355.408	2.05
355.777	2.27
356.147	1.98
356.516	2
356.885	2.32
357.254	1.94
357.624	1.56
357.993	2.06
358.362	2.2
358.731	2.07
359.1	2.1
359.469	1.86
359.838	1.8
360.207	2.39
360.576	2.1
360.945	2.44
361.314	2.04
361.682	1.97
362.051	2.19
362.42	2.26
362.788	2.22
363.157	2.05
363.525	2.08
363.894	2.04
364.262	2.2
364.631	2.14
364.999	2.2
365.367	2.45
365.735	2.13
366.104	2.26
366.472	2.1
366.84	1.9
367.208	1.97
367.576	2.49
367.944	2.3
368.312	2.12
368.68	2.05
369.048	2.22
369.416	2.45
369.783	2.48
370.151	2.18
370.519	2.27
370.886	2.15
371.254	2.2
371.621	2.01
371.989	2.27
372.356	2.42
372.724	2.42
373.091	2.45
373.458	2.01
373.826	1.94
374.193	2.02
374.56	2.25
374.927	2.33
375.294	2.49
375.661	2.52
376.028	1.99
376.395	2.1
376.762	2.61
377.129	1.94
377.496	2.37
377.863	2.23
378.229	2.47
378.596	2.01
378.963	2.4
379.329	2.12
379.696	2.2
380.062	2.23
380.429	2.27
380.795	2.56
381.161	2.39
381.528	2.07
381.894	2.39
382.26	2.36
382.626	2.21
382.993	2.27
383.359	2.56
383.725	2.17
384.091	2.09
384.457	2.27
384.823	2.21
385.188	2.19
385.554	2.28
385.92	2.1
386.286	2.25
386.651	2.36
387.017	2.14
387.383	2.62
387.748	2.47
388.114	2.29
388.479	1.88
388.845	2.04
389.21	2.26
389.575	2.32
389.94	2.26
390.306	2.18
390.671	2.39
391.036	2.33
391.401	2.43
391.766	2.45
392.131	2.26
392.496	2.32
392.861	2.23
393.226	2.19
393.591	2.16
393.956	2.37
394.32	2.36
394.685	2.45
395.05	2.68
395.414	2.26
395.779	2.43
396.143	2.13
396.508	2.53
396.872	2.41
397.236	2.37
397.601	2.3
397.965	2.46
398.329	2.11
398.694	2.47
399.058	2.42
399.422	2.3
399.786	2.16
400.15	2.49
400.514	2.38
400.878	2.39
401.242	2.36
401.605	2.51
401.969	2.39
402.333	2.24
402.697	2.37
403.06	2.52
403.424	2.06
403.787	2.41
404.151	2.28
404.514	2.44
404.878	2.42
405.241	2.19
405.604	2.33
405.968	2.58
406.331	2.28
406.694	2.14
407.057	2.29
407.42	2.49
407.783	2.34
408.146	2.51
408.509	2.41
408.872	2.51
409.235	2.48
409.598	2.49
409.961	2.56
410.323	2.37
410.686	2.23
411.049	2.19
411.411	2.18
411.774	2.34
412.136	2.21
412.499	2.33
412.861	2.36
413.223	2.22
413.586	2.42
413.948	2.6
414.31	2.53
414.672	2.39
415.035	2.51
415.397	2.34
415.759	2.35
416.121	2.31
416.483	2.47
416.845	2.49
417.206	2.19
417.568	2.4
417.93	2.34
418.292	2.3
418.653	2.48
419.015	2.42
419.377	2.46
419.738	2.56
420.1	2.4
420.461	2.46
420.822	2.38
421.184	2.39
421.545	2.29
421.906	2.34
422.267	2.31
422.629	2.32
422.99	2.37
423.351	2.42
423.712	2.34
424.073	2.47
424.434	2.42
424.795	2.51
425.155	2.47
425.516	2.42
425.877	2.5
426.238	2.37
426.598	2.39
426.959	2.41
427.32	2.52
427.68	2.52
428.041	2.57
428.401	2.36
428.761	2.52
429.122	2.45
429.482	2.5
429.842	2.48
430.202	2.59
430.563	2.56
430.923	2.71
431.283	2.34
431.643	2.33
432.003	2.65
432.363	2.43
432.722	2.67
433.082	2.5
433.442	2.54
433.802	2.53
434.161	2.44
434.521	2.53
434.881	2.69
435.24	2.54
435.6	2.53
435.959	2.54
436.319	2.51
436.678	2.46
437.037	2.47
437.396	2.64
437.756	2.56
438.115	2.35
438.474	2.41
438.833	2.47
439.192	2.58
439.551	2.49
439.91	2.64
440.269	2.5
440.628	2.64
440.987	2.52
441.345	2.55
441.704	2.45
442.063	2.55
442.421	2.5
442.78	2.47
443.138	2.59
443.497	2.47
443.855	2.55
444.214	2.53
444.572	2.71
444.93	2.62
445.288	2.56
445.647	2.76
446.005	2.7
446.363	2.75
446.721	2.51
447.079	2.7
447.437	2.59
447.795	2.55
448.153	2.52
448.51	2.58
448.868	2.54
449.226	2.6
449.584	2.54
449.941	2.56
450.299	2.45
450.656	2.68
451.014	2.57
451.371	2.63
451.729	2.5
452.086	2.67
452.443	2.57
452.801	2.73
453.158	2.56
453.515	2.64
453.872	2.52
454.229	2.62
454.586	2.59
454.943	2.79
455.3	2.67
455.657	2.69
456.014	2.69
456.371	2.75
456.727	2.73
457.084	2.41
457.441	2.81
457.797	2.71
458.154	2.49
458.51	2.68
458.867	2.58
459.223	2.75
459.58	2.8
459.936	2.53
460.292	2.68
460.648	2.65
461.005	2.63
461.361	2.66
461.717	2.7
462.073	2.68
462.429	2.68
462.785	2.53
463.141	2.54
463.496	2.6
463.852	2.73
464.208	2.75
464.564	2.58
464.919	2.66
465.275	2.51
465.631	2.79
465.986	2.77
466.342	2.73
466.697	2.61
467.052	2.78
467.408	2.65
467.763	2.47
468.118	2.77
468.473	2.79
468.829	2.74
469.184	2.66
469.539	2.73
469.894	2.87
470.249	2.77
470.603	2.72
470.958	2.65
471.313	2.93
471.668	2.84
472.023	2.68
472.377	2.77
472.732	2.59
473.086	2.61
473.441	2.69
473.795	2.76
474.15	2.86
474.504	2.82
474.859	2.77
475.213	2.76
475.567	2.86
475.921	2.95
476.275	2.64
476.63	2.71
476.984	2.75
477.338	2.92
477.692	2.66
478.045	2.57
478.399	2.87
478.753	2.64
479.107	2.8
479.461	2.78
479.814	2.67
480.168	2.8
480.521	2.87
480.875	2.83
481.228	2.73
481.582	2.83
481.935	2.68
482.289	2.69
482.642	2.77
482.995	2.71
483.348	2.71
483.701	2.83
484.055	2.69
484.408	2.75
484.761	2.7
485.114	2.6
485.466	2.55
485.819	2.59
486.172	2.59
486.525	2.65
486.878	2.7
487.23	2.64
487.583	2.7
487.936	2.72
488.288	2.73
488.641	2.64
488.993	2.71
489.345	2.65
489.698	2.67
490.05	2.71
490.402	2.72
490.754	2.75
491.107	2.72
491.459	2.68
491.811	2.76
492.163	2.81
492.515	2.79
492.866	2.74
493.218	2.72
493.57	2.71
493.922	2.71
494.274	2.76
494.625	2.78
494.977	2.83
495.328	2.8
495.68	2.8
496.031	2.77
496.383	2.79
496.734	2.84
497.086	2.9
497.437	2.93
497.788	2.76
498.139	2.89
498.49	2.8
498.842	2.78
499.193	2.91
499.544	2.89
499.894	2.84
500.245	2.93
500.596	2.83
500.947	2.9
501.298	2.85
501.648	2.93
501.999	2.81
502.35	3.06
502.7	2.91
503.051	2.84
503.401	2.9
503.752	2.9
504.102	2.83
504.452	3
504.803	2.83
505.153	2.9
505.503	2.96
505.853	2.83
506.203	2.96
506.553	2.83
506.903	2.92
507.253	2.95
507.603	2.84
507.953	2.93
508.303	2.83
508.652	2.85
509.002	2.89
509.352	2.91
509.701	2.97
510.051	2.86
510.4	2.95
510.75	2.89
511.099	2.8
511.449	2.94
511.798	2.87
512.147	2.87
512.496	2.77
512.846	3.1
513.195	2.86
513.544	2.87
513.893	2.79
514.242	2.94
514.591	2.97
514.939	2.87
515.288	2.94
515.637	2.96
515.986	2.94
516.334	2.98
516.683	2.97
517.032	2.97
517.38	2.94
517.729	2.94
518.077	2.88
518.426	2.99
518.774	2.97
519.122	3.08
519.47	3.01
519.819	2.95
520.167	2.92
520.515	2.93
520.863	2.92
521.211	2.94
521.559	2.86
521.907	3.04
522.255	2.9
522.602	3.08
522.95	2.98
523.298	3.02
523.645	2.92
523.993	3.04
524.341	3.02
524.688	3.1
525.036	3.1
525.383	2.97
525.73	2.98
526.078	2.94
526.425	2.95
526.772	3.01
527.119	2.91
527.466	3.02
527.814	2.98
528.161	3.01
528.508	2.91
528.854	2.92
529.201	2.94
529.548	2.89
529.895	2.89
530.242	2.82
530.588	2.85
530.935	2.84
531.282	2.85
531.628	2.89
531.975	2.93
532.321	2.97
532.667	2.97
533.014	3.01
533.36	2.91
533.706	3.04
534.052	2.91
534.399	2.86
534.745	2.95
535.091	2.92
535.437	2.93
535.783	2.9
536.129	2.97
536.474	3.03
536.82	3
537.166	2.91
537.512	2.99
537.857	2.91
538.203	2.98
538.549	3.01
538.894	3
539.239	2.99
539.585	3.06
539.93	3.16
540.276	3.16
540.621	3.05
540.966	3.06
541.311	3.05
541.656	3.16
542.001	3.05
542.346	3.08
542.691	2.99
543.036	2.91
543.381	2.92
543.726	2.94
544.071	2.95
544.415	3
544.76	3.05
545.105	3.03
545.449	2.95
545.794	3.07
546.138	3.1
546.483	3.07
546.827	3.07
547.171	3.1
547.516	2.99
547.86	3.09
548.204	3.11
548.548	3.12
548.892	3.05
549.236	3.11
549.58	3.23
549.924	3.2
550.268	3.13
550.612	3.11
550.956	3.34
551.3	3.11
551.643	3.15
551.987	3.16
552.33	3.14
552.674	3.12
553.017	3.26
553.361	3.08
553.704	3.11
554.048	3.06
554.391	3.11
554.734	3.21
555.077	3.29
555.42	3.13
555.764	3.21
556.107	3.15
556.45	3.24
556.793	3.11
557.135	3.14
557.478	3.38
557.821	3.4
558.164	3.32
558.507	3.21
558.849	3.09
559.192	3.16
559.534	3.38
559.877	3.32
560.219	3.09
560.562	3.17
560.904	3.26
561.246	3.06
561.589	3.3
561.931	3.08
562.273	3.22
562.615	3.07
562.957	3.17
563.299	3.1
563.641	3.1
563.983	3.14
564.325	3.16
564.667	3.17
565.008	3.31
565.35	3.16
565.692	3.07
566.033	3.25
566.375	3.27
566.716	3.29
567.058	3.26
567.399	3.27
567.741	3.14
568.082	3.16
568.423	3.19
568.764	3.29
569.105	3.15
569.447	3.31
569.788	3.26
570.129	3.27
570.47	3.12
570.811	3.29
571.151	3.37
571.492	3.5
571.833	3.43
572.174	3.37
572.514	3.28
572.855	3.31
573.195	3.11
573.536	3.25
573.876	3.27
574.217	3.38
574.557	3.24
574.898	3.2
575.238	3.17
575.578	3.43
575.918	3.23
576.258	3.3
576.598	3.17
576.938	3.31
577.278	3.18
577.618	3.29
577.958	3.19
578.298	3.31
578.638	3.3
578.977	3.27
579.317	3.33
579.657	3.27
579.996	3.19
580.336	3.3
580.675	3.32
581.014	3.24
581.354	3.2
581.693	3.35
582.032	3.18
582.372	3.54
582.711	3.24
583.05	3.33
583.389	3.55
583.728	3.21
584.067	3.47
584.406	3.38
584.745	3.52
585.083	3.34
585.422	3.25
585.761	3.5
586.1	3.45
586.438	3.37
586.777	3.32
587.115	3.28
587.454	3.19
587.792	3.2
588.13	3.27
588.469	3.43
588.807	3.29
589.145	3.35
589.483	3.54
589.821	3.39
590.159	3.37
590.497	3.56
590.835	3.33
591.173	3.48
591.511	3.51
591.849	3.24
592.187	3.3
592.524	3.2
592.862	3.17
593.2	3.37
593.537	3.52
593.875	3.56
594.212	3.47
594.55	3.49
594.887	3.31
595.224	3.18
595.561	3.31
595.899	3.25
596.236	3.35
596.573	3.42
596.91	3.54
597.247	3.45
597.584	3.32
597.921	3.5
598.258	3.43
598.594	3.46
598.931	3.39
599.268	3.53
599.604	3.42
599.941	3.45
600.277	3.44
600.614	3.52
600.95	3.06
601.287	3.4
601.623	3.77
601.959	3.42
602.296	3.42
602.632	3.31
602.968	3.51
603.304	3.54
603.64	3.73
603.976	3.69
604.312	3.37
604.648	3.32
604.984	3.41
605.319	3.5
605.655	3.57
605.991	3.46
606.326	3.83
606.662	3.55
606.998	3.29
607.333	3.63
607.668	3.53
608.004	3.36
608.339	3.42
608.674	3.47
609.01	3.65
609.345	3.41
609.68	3.43
610.015	3.65
610.35	3.41
610.685	3.62
611.02	3.34
611.355	3.43
611.689	3.35
612.024	3.38
612.359	3.27
612.694	3.48
613.028	3.76
613.363	3.54
613.697	3.5
614.032	3.68
614.366	3.43
614.7	3.09
615.035	3.36
615.369	3.73
615.703	3.69
616.037	3.76
616.371	3.44
616.705	3.49
617.039	3.53
617.373	3.51
617.707	3.61
618.041	3.48
618.375	3.25
618.709	3.8
619.042	3.71
619.376	3.55
619.71	3.68
620.043	3.38
620.377	3.22
620.71	3.54
621.043	3.42
621.377	3.62
621.71	3.58
622.043	3.28
622.376	3.75
622.709	3.24
623.043	3.45
623.376	3.43
623.709	3.67
624.041	3.91
624.374	3.53
624.707	3.57
625.04	3.75
625.373	3.49
625.705	3.46
626.038	3.5
626.37	3.86
626.703	3.36
627.035	3.41
627.368	2.97
627.7	3.4
628.032	3.4
628.365	3.64
628.697	3.51
629.029	3.66
629.361	3.56
629.693	3.54
630.025	3.75
630.357	3.4
630.689	3.43
631.021	3.7
631.353	3.89
631.684	3.46
632.016	3.51
632.348	3.48
632.679	3.81
633.011	3.75
633.342	3.56
633.674	3.53
634.005	3.5
634.336	3.76
634.668	3.78
634.999	3.65
635.33	3.53
635.661	3.98
635.992	3.74
636.323	3.43
636.654	3.85
636.985	3.61
637.316	3.83
637.647	3.94
637.977	3.54
638.308	3.6
638.639	3.48
638.969	3.31
639.3	3.81
639.63	4.05
639.961	3.23
640.291	4.02
640.622	4.04
640.952	3.81
641.282	3.49
641.612	3.51
641.943	3.68
642.273	3.63
642.603	4.1
642.933	3.84
643.263	3.34
643.592	3.82
643.922	3.84
644.252	3.75
644.582	3.32
644.911	3.76
645.241	3.53
645.571	3.66
645.9	3.59
646.23	3.93
646.559	3.84
646.888	3.74
647.218	3.58
647.547	3.55
647.876	3.56
648.205	3.55
648.534	3.58
648.863	3.48
649.192	3.32
649.521	3.7
649.85	3.98
650.179	3.45
650.508	3.47
650.837	3.92
651.165	3.52
651.494	3.83
651.822	3.43
652.151	3.55
652.479	3.32
652.808	3.67
653.136	3.63
653.465	3.97
653.793	3.91
654.121	3.41
654.449	3.05
654.777	4.28
655.105	3.7
655.433	3.59
655.761	3.56
656.089	4
656.417	3.41
656.745	4.03
657.073	3.33
657.4	3.42
657.728	3.77
658.056	4.24
658.383	3.72
658.711	3.58
659.038	3.93
659.365	3.29
659.693	3.56
660.02	4.37
660.347	3.98
660.674	3.64
661.001	4.04
661.329	3.61
661.656	3.87
661.982	4.12
662.309	3.94
662.636	4.13
662.963	3.55
663.29	3.67
663.616	3.62
663.943	3.98
664.27	3.62
664.596	3.55
664.923	4.09
665.249	4.15
665.576	4.01
665.902	4.29
666.228	4.26
666.554	3.79
666.881	3.58
667.207	3.49
667.533	4.02
667.859	4.71
668.185	3.89
668.511	3.69
668.837	4.36
669.162	3.87
669.488	4.06
669.814	3.63
670.139	3.67
670.465	3.77
670.791	3.81
671.116	4.08
671.442	3.17
671.767	3.92
672.092	3.89
672.418	3.97
672.743	3.3
673.068	3.75
673.393	3.96
673.718	3.55
674.043	3.56
674.368	4.1
674.693	3.34
675.018	3.77
675.343	3.84
675.667	4.66
675.992	4.71
676.317	4.16
676.641	2.93
676.966	4.38
677.29	4.4
677.615	4.14
677.939	4.26
678.264	3.87
678.588	3.67
678.912	3.53
679.236	3.88
679.56	3.83
679.885	3.77
680.209	3.82
680.532	4.5
680.856	4.77
681.18	4.17
681.504	3.62
681.828	4.48
682.152	4.44
682.475	3.77
682.799	3.54
683.122	4.06
683.446	3.92
683.769	3.98
684.093	3.74
684.416	3.81
684.739	4.6
685.062	4.11
685.386	3.7
685.709	4.03
686.032	3.61
686.355	4.34
686.678	4.27
687.001	3.61
687.324	3.57
687.646	3.84
687.969	3.93
688.292	4.86
688.614	3.97
688.937	3.6
689.26	2.74
689.582	4.45
689.904	3.9
690.227	4.49
690.549	4.14
690.871	3.59
691.194	3.97
691.516	3.12
691.838	4.45
692.16	3.82
692.482	3.56
692.804	4.44
693.126	3.75
693.448	3.71
693.769	4.42
694.091	4.75
694.413	4.54
694.735	4.05
695.056	3.29
695.378	4.29
695.699	4.26
696.021	3.79
696.342	3.06
696.663	4.39
696.984	4.07
697.306	3.92
697.627	4.24
697.948	5.06
698.269	4.41
698.59	3.82
698.911	4.03
699.232	4.85
699.553	4.75
699.873	3.8
700.194	4.15
700.515	4.2
700.835	4.11
701.156	4.21
701.477	4.56
701.797	4.15
702.117	4.46
702.438	4.35
702.758	3.61
703.078	5.06
703.398	4.86
703.719	3.94
704.039	4.12
704.359	4.25
704.679	4.03
704.999	4.6
705.319	3.75
705.638	5.18
705.958	3.93
706.278	4.11
706.597	4.29
706.917	3.46
707.237	4.01
707.556	3.54
707.876	4.75
708.195	3.8
708.514	4.45
708.834	4.6
709.153	4.3
709.472	3.78
709.791	4.05
710.11	4.1
710.429	5.48
710.748	3.77
711.067	4.35
711.386	4.25
711.705	4.68
712.023	5.42
712.342	3.27
712.661	4.05
712.979	3.96
713.298	4.88
713.616	3.5
713.935	3.07
714.253	4.31
714.572	3.99
714.89	3.93
715.208	3.3
715.526	3.92
715.844	3.78
716.162	4.9
716.48	4.08
716.798	4.75
717.116	5.38
717.434	4.85
717.752	4.08
718.069	5.1
718.387	4.89
718.705	4.38
719.022	5.25
719.34	4.33
719.657	4.01
719.975	4.63
720.292	5.11
720.609	3.43
720.927	3.84
721.244	4.53
721.561	4.75
721.878	3.9
722.195	4.51
722.512	4.97
722.829	4.17
723.146	2.99
723.463	4.36
723.779	4.98
724.096	4.56
724.413	5.02
724.729	3.89
725.046	5.21
725.362	4.7
725.679	4.96
725.995	5.34
726.311	4.42
726.628	3
726.944	3.85
727.26	3.6
727.576	3.85
727.892	4.18
728.208	5.11
728.524	4.05
728.84	4.88
729.156	4.25
729.472	3.32
729.787	3.45
730.103	3.89
730.419	5.42
730.734	3.7
731.05	5.16
731.365	5.18
731.681	4.96
731.996	5.09
732.311	4.2
732.626	4.19
732.942	4.64
733.257	3.76
733.572	4.74
733.887	3.75
734.202	3.41
734.517	5.09
734.832	4.88
735.146	4.07
735.461	3.47
735.776	5.6
736.091	4.31
736.405	4.58
736.72	5.2
737.034	2.94
737.349	3.97
737.663	4.34
737.977	5.79
738.292	3.46
738.606	2.05
738.92	5.24
739.234	4.27
739.548	4.17
739.862	5.19
740.176	5.99
740.49	4.1
740.804	3.99
741.117	5.59
741.431	3.23
741.745	3.7
742.058	4.83
742.372	2.74
742.685	3.98
742.999	5.5
743.312	4.7
743.626	4
743.939	6.16
744.252	4.04
744.565	4.13
744.878	5.22
745.191	6.2
745.505	4.39
745.817	4.61
746.13	6.59
746.443	5.07
746.756	5.28
747.069	5.16
747.381	6.11
747.694	4.21
748.007	3.66
748.319	2.42
748.632	3.05
748.944	3.96
749.256	6.94
749.569	4.98
749.881	4.99
750.193	5.57
750.505	5.43
750.817	5.29
751.129	5.52
751.441	4.63
751.753	4.82
752.065	5.29
752.377	4.14
752.689	5.5
753	4.88
753.312	3.27
753.624	5.58
753.935	4.53
754.247	3.22
754.558	5.24
754.869	5.38
755.181	3.43
755.492	4.15
755.803	3.83
756.114	6.43
756.425	4.71
756.736	3.07
757.047	3.68
757.358	2.9
757.669	3.5
757.98	4.19
758.291	3.89
758.601	3.26
758.912	5.57
759.223	7.32
759.533	5.41
759.844	3.98
760.154	6.44
760.464	4.8
760.775	4.11
761.085	4.12
761.395	3.63
761.705	4.87
762.016	5.02
762.326	5.06
762.636	3.5
762.945	5.05
763.255	5.06
763.565	3.56
763.875	5.44
764.185	5.66
764.494	4.24
764.804	4.64
765.113	4.65
765.423	4.4
765.732	4.68
766.042	4.86
766.351	4.37
766.66	4.27
766.97	4.08
767.279	5.18
767.588	4.63
767.897	3.43
768.206	4.53
768.515	5.62
768.824	3.5
769.133	4.03
769.441	3.34
769.75	7.85
770.059	1.07
770.367	1.91
770.676	5.17
770.984	4.81
771.293	4.42
771.601	5.74
771.91	6.16
772.218	2.38
772.526	3.63
772.834	4.81
773.142	3.68
773.45	3.77
773.758	3.82
774.066	5.17
774.374	3.56
774.682	2.71
774.99	4.85
775.298	6.7
775.605	7.52
775.913	6.8
776.22	6.17
776.528	8
776.835	5.49
777.143	5.59
777.45	3.76
777.757	3.83
778.065	5.27
778.372	3.25
778.679	5.01
778.986	3.54
779.293	6.6
779.6	6.41
779.907	5.57
780.214	4.93
780.52	4.4
780.827	4.85
781.134	3.45
781.44	3.13
781.747	8.03
782.053	6.71
782.36	3.97
782.666	3.85
782.973	1.02
783.279	5.34
783.585	1.91
783.891	7.2
784.197	3.12
784.503	6.42
784.809	4.79
785.115	3.78
785.421	3.83
785.727	7.72
786.033	7.78
786.339	4.38
786.644	3.3
786.95	3.07
787.255	3.85
787.561	1.23
787.866	0.02
788.172	3.29
788.477	4.89
788.782	7.2
789.088	6.09
789.393	0.75
789.698	6.04
790.003	4.96
790.308	2.03
790.613	5.07
790.918	4.22
791.223	1.57
791.527	1.72
791.832	2.89
792.137	7.38
792.441	1.74
792.746	2.08
793.05	1.76
793.355	6.11
793.659	5.07
793.963	1.93
794.268	-0.39
794.572	2.11
794.876	1.61
795.18	0.34
795.484	2.71
795.788	3.27
796.092	3.93
796.396	5.41
796.7	1.13
797.004	7.8
797.307	5.07
797.611	5.81
797.915	4.61
798.218	3.57
798.522	5.36
798.825	7.79
799.128	4.44
799.432	3.46
799.735	5.77
800.038	7.28
800.341	0.69
800.644	7.28
800.947	3.66
801.25	2
801.553	5.55
801.856	4.59
802.159	1.54
802.462	0.87
802.764	4.96
803.067	5.72
803.37	5.1
803.672	2.32
803.975	0.81
804.277	4.51
804.579	5.45
804.882	3.5
805.184	-0.16
805.486	9.01
805.788	9.07
806.09	-1.35
806.392	4.32
806.694	5.28
806.996	7.09
807.298	-0.83
807.6	2.09
807.902	5.39
808.203	4.45
808.505	4.68
808.807	5.55
809.108	3.7
809.409	8.55
809.711	10.93
810.012	9.32
810.313	8.23
810.615	3.91
810.916	4.47
811.217	7.91
811.518	4.03
811.819	9.03
812.12	-1.36
812.421	12.95
812.722	3.82
813.023	0.73
813.323	1.44
813.624	4.94
813.925	3.57
814.225	0.81
814.526	3.34
814.826	1.96
815.126	-0.3
815.427	8.69
815.727	8.94
816.027	5.58
816.327	5.29
816.627	16.96
816.927	6.6
817.227	7.82
817.527	-1
817.827	8.54
818.127	5.88
818.427	8.24
818.727	8.18
819.026	6.71
819.326	-0.45
819.625	7.13
819.925	3.93
820.224	-4.04
820.524	0.68
820.823	5.26
821.122	6.67
821.421	4.92
821.72	9.6
822.019	4.25
822.318	4.31
822.617	2.72
822.916	5.03
823.215	4.58
823.514	7.22
823.813	7.03
824.111	4.45
824.41	6.21
824.709	6.03
825.007	5.79
825.306	6.5
825.604	7.07
825.902	6.28
826.201	6.46
826.499	5.32
826.797	7.04
827.095	5.43
827.393	7.98
827.691	4.61
827.989	5.75
828.287	6.16
828.585	7.45
828.882	4.82
829.18	7.34
829.478	8.47
829.775	6.59
830.073	5.05
830.37	7.1
830.668	4.44
830.965	4.46
831.263	6.64
831.56	7.5
831.857	9.27
832.154	2.82
832.451	5.43
832.748	2.89
833.045	4.86
833.342	5.16
833.639	2.88
833.936	0.53
834.232	1.49
834.529	-1.29
834.826	6.17
835.122	1.09
835.419	4.92
835.715	4.98
836.012	7.85
836.308	2.97
836.604	6.68
836.901	5.6
837.197	6.21
837.493	2.03
837.789	5.24
838.085	3.8
838.381	4.17
838.677	3.49
838.972	2.54
839.268	4.4
839.564	5.03
839.86	-4.18
840.155	0.69
840.451	-1.58
840.746	-3.91
841.042	0.79
841.337	12.37
841.632	-0.3
841.928	-1.96
842.223	-8.79
842.518	-5.73
842.813	-4.21
843.108	2.65
843.403	2.36
843.698	3.67
843.993	0.38
844.287	12.21
844.582	2.4
844.877	5.48
845.171	-2.76
845.466	6.63
845.761	8.32
846.055	-4.57
846.349	-18.84
846.644	-13.38
846.938	7.92
847.232	5.34
847.526	2.91
847.82	-7.59
848.114	-6.86
848.408	-15.35
848.702	-0.22
848.996	5.1
849.29	2.76
849.584	-1.93
849.877	-16.86
850.171	-16.91
850.465	3.6
850.758	-8.22
851.052	0.93
851.345	4.13
851.638	-0.32
851.932	2.28
852.225	8.37
852.518	-9.34
852.811	-15.22
853.104	21.75
853.397	4
853.69	14.16
853.983	-10.11
854.276	-13.51
854.569	-1.48
854.861	15.53
855.154	8.02
855.447	25.57
855.739	1.89
856.032	7.54
856.324	2.62
856.616	8.02
856.909	-27.85
857.201	16.46
857.493	23.75
857.785	-8.26
858.077	8.5
858.369	-0.08
858.661	20.94
858.953	-5.85
859.245	-1.62
859.537	-17.59
859.829	-26.3
860.12	-9.68
860.412	-14.07
860.703	18.76
860.995	-10.25
861.286	-16.4
861.578	-36.57
861.869	-9.46
862.16	-28.39
862.452	3.76
862.743	-8.72
863.034	-23.47
863.325	12.57
863.616	11.59
863.907	-10.91
864.198	-22.99
864.488	4.23
864.779	18.91
865.07	-14.21
865.36	-22.98
865.651	-17.46
865.941	3.71
866.232	22.79
866.522	17.69
866.813	4.04
867.103	-5.92
867.393	6.61
867.683	-16.87
867.973	0.99
868.263	-6.19
868.553	5.16
868.843	13.89
869.133	-1.92
869.423	15.33
869.713	0.53
870.002	-35.96
870.292	-47.51
870.582	5.47
870.871	16.14
871.161	-1.45
871.45	4.27
871.739	-5.11
872.029	-7.76
872.318	-37.32
872.607	-16.37
872.896	-4.38
873.185	16.01
873.474	6.17
873.763	-8.35
874.052	-4.97
874.341	1.84
874.63	-8.66
874.918	38.77
875.207	7.61
875.496	2.85
875.784	-2.34
876.073	-10.57
876.361	5.47
876.649	-26.15
876.938	-12.73
877.226	-1.53
877.514	2.11
877.802	-21.47
878.09	18.39
878.378	-9.72
878.666	-24.46
878.954	-8.6
879.242	-14.69
879.53	-34.61
879.817	-21.78
880.105	19.29
880.392	3.2
880.68	-15.54
880.967	7.71
881.255	1.25
881.542	-33.54
881.83	-6.34
882.117	-12.57
882.404	13.19
882.691	20.72
882.978	4.16
883.265	4.03
883.552	14.41
883.839	-1.31
884.126	-7.61
884.413	-2.71
884.699	-0.26
884.986	-0.87
885.273	13.05
885.559	13.05
885.846	13.05
