Data from 20-10_forehead_Reflection__1__162.txt Node

Date: Fri Nov 11 21:18:45 CST 2022
User: ToomeyLab
Spectrometer: FLMS14357
Trigger mode: 0
Integration Time (sec): 1.000000E-2
Scans to average: 100
Electric dark correction enabled: true
Nonlinearity correction enabled: false
Boxcar width: 0
XAxis mode: Wavelengths
Number of Pixels in Spectrum: 2048
>>>>>Begin Spectral Data<<<<<
189.047	15.65
189.435	15.65
189.823	15.65
190.211	132.06
190.599	-92.81
190.987	133.76
191.375	24.23
191.763	75.07
192.151	8672.73
192.538	13.09
192.926	73.91
193.314	42.47
193.702	195.22
194.089	17.52
194.477	80.01
194.864	11.79
195.252	77.13
195.639	542.14
196.027	-30.26
196.414	79.84
196.801	-13.18
197.189	209.61
197.576	3615.38
197.963	132.99
198.351	-270.88
198.738	-33.69
199.125	-0.12
199.512	15.3
199.899	-300.81
200.286	-0.89
200.673	5.77
201.06	34.09
201.447	-0.67
201.833	-21.91
202.22	-62.83
202.607	10.62
202.994	-27.54
203.38	14.75
203.767	11.85
204.154	13.33
204.54	-34.3
204.927	34.74
205.313	-1.15
205.699	-56.31
206.086	41.94
206.472	-7.32
206.858	49.51
207.245	19.59
207.631	17.71
208.017	-2.87
208.403	-21.14
208.789	-20.4
209.175	5.69
209.561	32.87
209.947	-70.13
210.333	-30.23
210.719	24.15
211.105	34.8
211.491	-28.5
211.876	9.26
212.262	12.22
212.648	-13.05
213.034	-28.34
213.419	-20.83
213.805	-50.7
214.19	-9.88
214.576	-2.14
214.961	-73.79
215.346	-31.01
215.732	-36.17
216.117	28.47
216.502	14.87
216.888	-19.42
217.273	3.05
217.658	-24.82
218.043	26.73
218.428	-10.71
218.813	-6.9
219.198	9.63
219.583	19.22
219.968	-22.22
220.353	-17.39
220.738	-25.64
221.122	-9.98
221.507	-23.77
221.892	-28.04
222.276	-6.54
222.661	15
223.046	-16.02
223.43	-5.73
223.815	-4.37
224.199	-2.84
224.583	-17.7
224.968	-5.9
225.352	1.33
225.736	-7.59
226.121	-4.01
226.505	1.67
226.889	-8.53
227.273	0.04
227.657	-0.61
228.041	-4.56
228.425	1.63
228.809	1.21
229.193	3.95
229.577	1.55
229.961	2.33
230.344	1.89
230.728	1.07
231.112	0.82
231.495	1.28
231.879	1.22
232.263	0.4
232.646	0.39
233.03	1.21
233.413	2.26
233.797	1.42
234.18	-3.32
234.563	2.09
234.946	0.07
235.33	1.15
235.713	1.39
236.096	-0.64
236.479	-0.48
236.862	2.85
237.245	0.44
237.628	1.6
238.011	1.21
238.394	2.59
238.777	1.58
239.16	1.45
239.543	0.36
239.925	1.37
240.308	0.55
240.691	1.85
241.073	0.99
241.456	0.7
241.838	2.08
242.221	1.43
242.603	2.26
242.986	0.95
243.368	1.57
243.75	1.6
244.133	1.64
244.515	1.59
244.897	2.1
245.279	0.94
245.661	2.17
246.043	1.25
246.425	2.64
246.807	1.31
247.189	1.41
247.571	1.57
247.953	1.42
248.335	1.71
248.717	2.14
249.098	2.15
249.48	1.62
249.862	2.13
250.243	1.76
250.625	1.63
251.006	2.02
251.388	1.27
251.769	2.22
252.151	1.59
252.532	2.83
252.913	2.3
253.295	1.94
253.676	1.41
254.057	1.46
254.438	1.67
254.819	0.88
255.2	2.7
255.581	1.02
255.962	0.53
256.343	1.48
256.724	1.37
257.105	1.65
257.486	0.21
257.867	1.73
258.247	1.22
258.628	1.05
259.009	0.93
259.389	0.74
259.77	2.48
260.15	1.84
260.531	1.93
260.911	1.87
261.292	1.99
261.672	1.77
262.052	1.72
262.432	1.99
262.813	1.99
263.193	1.4
263.573	1.72
263.953	2.09
264.333	1
264.713	1.79
265.093	1.56
265.473	0.99
265.853	1.77
266.233	1.67
266.612	1.5
266.992	1.51
267.372	2.73
267.752	1.18
268.131	1.26
268.511	1.57
268.89	1.63
269.27	1.33
269.649	1.46
270.029	2.11
270.408	1.92
270.787	2.28
271.167	1.16
271.546	1.2
271.925	1.33
272.304	1.71
272.683	1.65
273.062	1.09
273.441	1.89
273.82	1.86
274.199	1.29
274.578	1.68
274.957	1.68
275.336	1.71
275.715	1.76
276.093	0.79
276.472	1.36
276.851	1.72
277.229	1.56
277.608	1.65
277.986	1.91
278.365	1.19
278.743	1.58
279.122	1.35
279.5	1.2
279.878	2
280.257	1.56
280.635	1.91
281.013	1.62
281.391	1.58
281.769	1.68
282.147	1.27
282.525	0.93
282.903	1.31
283.281	1.41
283.659	1.68
284.037	1.96
284.415	1.24
284.792	1.67
285.17	1.81
285.548	1.56
285.925	1.24
286.303	1.32
286.68	2.02
287.058	1.92
287.435	1.6
287.813	1.57
288.19	1.14
288.567	1.34
288.945	1.39
289.322	1.89
289.699	1.21
290.076	2.24
290.453	1.74
290.83	1.12
291.207	1.56
291.584	1.74
291.961	1.73
292.338	1.7
292.715	1.66
293.092	1.81
293.469	1.72
293.845	2
294.222	1.63
294.599	2.11
294.975	1.78
295.352	2.02
295.728	1.47
296.105	1.79
296.481	1.35
296.858	1.25
297.234	2.09
297.61	1.63
297.986	1.93
298.363	1.53
298.739	1.83
299.115	1.92
299.491	1.97
299.867	1.83
300.243	1.55
300.619	1.84
300.995	1.74
301.371	2.4
301.746	2.24
302.122	2.01
302.498	2.12
302.874	1.71
303.249	1.96
303.625	1.88
304	1.46
304.376	2.04
304.751	2.2
305.127	1.69
305.502	2.39
305.878	2.75
306.253	2.36
306.628	1.86
307.003	1.72
307.378	2.25
307.754	2.74
308.129	1.88
308.504	2.36
308.879	2.31
309.254	2.62
309.629	2.34
310.003	1.67
310.378	2.39
310.753	2.81
311.128	2.54
311.502	2.6
311.877	2.31
312.252	2.53
312.626	2.23
313.001	2.61
313.375	2.67
313.75	2.64
314.124	2.36
314.498	2.3
314.873	2.55
315.247	2.83
315.621	2.93
315.995	3.1
316.369	2.93
316.743	3
317.117	2.86
317.491	2.82
317.865	2.34
318.239	2.95
318.613	3.25
318.987	3.02
319.361	2.7
319.734	3.15
320.108	2.59
320.482	2.83
320.855	2.79
321.229	2.65
321.602	2.94
321.976	2.97
322.349	3.6
322.723	3.42
323.096	3.52
323.469	2.77
323.843	3.41
324.216	3
324.589	3.09
324.962	3.59
325.335	3.05
325.708	3.26
326.081	3.44
326.454	3.12
326.827	2.88
327.2	3.72
327.573	4
327.945	3.32
328.318	3.05
328.691	3.4
329.063	3.76
329.436	3.29
329.809	3.37
330.181	3.01
330.553	3.2
330.926	3.42
331.298	3.32
331.671	3.37
332.043	3.38
332.415	3.2
332.787	3.83
333.159	3.93
333.532	3.68
333.904	4.02
334.276	3.75
334.648	3.51
335.02	3.59
335.391	3.63
335.763	3.68
336.135	3.58
336.507	3.56
336.879	3.7
337.25	3.63
337.622	3.96
337.993	4.11
338.365	4.09
338.736	3.38
339.108	4.09
339.479	3.44
339.851	3.65
340.222	3.66
340.593	4.2
340.964	3.65
341.336	3.87
341.707	3.96
342.078	2.9
342.449	3.77
342.82	3.95
343.191	4.11
343.562	3.86
343.933	3.99
344.303	3.86
344.674	4.36
345.045	3.71
345.416	4.39
345.786	3.49
346.157	3.55
346.527	4.32
346.898	3.7
347.268	3.54
347.639	3.99
348.009	3.94
348.38	4.23
348.75	4.12
349.12	4.69
349.49	4.39
349.861	4.06
350.231	4.32
350.601	4.02
350.971	4.34
351.341	4.45
351.711	4.61
352.081	4.49
352.45	4.32
352.82	4.01
353.19	4.68
353.56	4.29
353.929	4.38
354.299	4.22
354.669	4.45
355.038	4.1
355.408	4.27
355.777	4.63
356.147	4.27
356.516	4.48
356.885	4.47
357.254	4.22
357.624	3.74
357.993	4.44
358.362	4.54
358.731	4.05
359.1	4.37
359.469	4.11
359.838	4.21
360.207	4.37
360.576	4.62
360.945	4.68
361.314	4.18
361.682	4.67
362.051	4.26
362.42	4.65
362.788	4.75
363.157	4.51
363.525	4.34
363.894	4.44
364.262	4.65
364.631	4.61
364.999	4.38
365.367	4.6
365.735	4.44
366.104	4.63
366.472	4.57
366.84	4.27
367.208	4.31
367.576	4.68
367.944	4.76
368.312	4.67
368.68	4.66
369.048	4.59
369.416	4.72
369.783	5.08
370.151	4.81
370.519	4.87
370.886	5.03
371.254	4.57
371.621	4.63
371.989	4.97
372.356	4.99
372.724	5.22
373.091	4.95
373.458	5.06
373.826	4.75
374.193	4.77
374.56	4.7
374.927	4.89
375.294	5.26
375.661	5.27
376.028	4.48
376.395	5.26
376.762	5.07
377.129	4.97
377.496	5.04
377.863	5.37
378.229	4.95
378.596	4.79
378.963	4.95
379.329	5.15
379.696	5.09
380.062	5.07
380.429	4.97
380.795	5.44
381.161	5.29
381.528	5.07
381.894	5.15
382.26	5.39
382.626	5.49
382.993	5.24
383.359	5.32
383.725	5.02
384.091	5.39
384.457	5.19
384.823	5.14
385.188	5.42
385.554	5.25
385.92	5.13
386.286	5.08
386.651	5.42
387.017	5.2
387.383	5.5
387.748	4.92
388.114	5.52
388.479	5.28
388.845	5.46
389.21	5.09
389.575	5.67
389.94	5.45
390.306	5.33
390.671	5.32
391.036	5.34
391.401	5.67
391.766	5.72
392.131	5.44
392.496	5.59
392.861	5.47
393.226	5.59
393.591	5.51
393.956	5.5
394.32	5.57
394.685	5.52
395.05	5.69
395.414	5.63
395.779	5.67
396.143	5.67
396.508	5.88
396.872	5.68
397.236	5.66
397.601	5.71
397.965	5.58
398.329	5.73
398.694	5.79
399.058	5.88
399.422	5.93
399.786	5.99
400.15	5.8
400.514	5.93
400.878	5.75
401.242	5.65
401.605	5.92
401.969	5.95
402.333	5.72
402.697	5.9
403.06	6.11
403.424	5.81
403.787	6.02
404.151	5.91
404.514	5.89
404.878	6.07
405.241	5.88
405.604	5.89
405.968	5.79
406.331	5.62
406.694	5.9
407.057	6.07
407.42	6.04
407.783	6
408.146	6.07
408.509	6.15
408.872	5.87
409.235	6.21
409.598	6.1
409.961	6.31
410.323	6.18
410.686	6.2
411.049	5.96
411.411	5.97
411.774	6.22
412.136	6.08
412.499	6.04
412.861	6.4
413.223	6.01
413.586	6.3
413.948	6.26
414.31	6.39
414.672	6.32
415.035	6.23
415.397	6.08
415.759	6.21
416.121	6.22
416.483	6.2
416.845	6.21
417.206	6.14
417.568	6.19
417.93	6.15
418.292	6.07
418.653	6.29
419.015	6.26
419.377	6.3
419.738	6.3
420.1	6.19
420.461	6.31
420.822	6.26
421.184	6.25
421.545	6.2
421.906	6.22
422.267	6.18
422.629	6.25
422.99	6.27
423.351	6.28
423.712	6.28
424.073	6.44
424.434	6.53
424.795	6.36
425.155	6.35
425.516	6.52
425.877	6.34
426.238	6.34
426.598	6.38
426.959	6.48
427.32	6.6
427.68	6.54
428.041	6.57
428.401	6.48
428.761	6.63
429.122	6.49
429.482	6.72
429.842	6.66
430.202	6.72
430.563	6.9
430.923	6.71
431.283	6.67
431.643	6.61
432.003	7.03
432.363	6.68
432.722	6.77
433.082	7.01
433.442	6.86
433.802	6.94
434.161	6.83
434.521	6.79
434.881	6.9
435.24	6.9
435.6	6.92
435.959	6.85
436.319	6.72
436.678	6.86
437.037	6.88
437.396	7.11
437.756	6.97
438.115	6.77
438.474	6.95
438.833	7.17
439.192	6.96
439.551	6.97
439.91	7.23
440.269	6.98
440.628	7.18
440.987	7.15
441.345	6.93
441.704	7.04
442.063	7.05
442.421	7.02
442.78	6.95
443.138	7.13
443.497	7.03
443.855	7.2
444.214	7.03
444.572	7.25
444.93	7.21
445.288	7.24
445.647	7.36
446.005	7.39
446.363	7.39
446.721	7.32
447.079	7.23
447.437	7.15
447.795	7.24
448.153	7.16
448.51	7.24
448.868	7.3
449.226	7.25
449.584	7.24
449.941	7.3
450.299	7.31
450.656	7.46
451.014	7.53
451.371	7.46
451.729	7.35
452.086	7.55
452.443	7.46
452.801	7.63
453.158	7.49
453.515	7.44
453.872	7.53
454.229	7.58
454.586	7.5
454.943	7.76
455.3	7.62
455.657	7.7
456.014	7.74
456.371	7.62
456.727	7.82
457.084	7.56
457.441	7.8
457.797	7.63
458.154	7.7
458.51	7.67
458.867	7.77
459.223	7.92
459.58	7.86
459.936	7.78
460.292	7.83
460.648	7.72
461.005	7.7
461.361	7.7
461.717	7.68
462.073	7.72
462.429	7.66
462.785	7.7
463.141	7.77
463.496	7.93
463.852	8.14
464.208	7.86
464.564	8.03
464.919	7.94
465.275	7.87
465.631	8.03
465.986	8.14
466.342	8.09
466.697	7.98
467.052	8.12
467.408	8.12
467.763	8.06
468.118	8.22
468.473	8.15
468.829	8.09
469.184	8.06
469.539	8.28
469.894	8.17
470.249	8.28
470.603	8.03
470.958	8.11
471.313	8.2
471.668	8.44
472.023	8.26
472.377	8.39
472.732	8.24
473.086	8.21
473.441	8.2
473.795	8.27
474.15	8.41
474.504	8.52
474.859	8.4
475.213	8.44
475.567	8.55
475.921	8.47
476.275	8.56
476.63	8.63
476.984	8.37
477.338	8.45
477.692	8.41
478.045	8.4
478.399	8.7
478.753	8.42
479.107	8.53
479.461	8.56
479.814	8.59
480.168	8.6
480.521	8.63
480.875	8.78
481.228	8.57
481.582	8.59
481.935	8.63
482.289	8.52
482.642	8.53
482.995	8.55
483.348	8.59
483.701	8.49
484.055	8.49
484.408	8.49
484.761	8.4
485.114	8.23
485.466	8.1
485.819	8.15
486.172	8.22
486.525	8.31
486.878	8.48
487.23	8.45
487.583	8.51
487.936	8.65
488.288	8.62
488.641	8.47
488.993	8.43
489.345	8.39
489.698	8.47
490.05	8.46
490.402	8.52
490.754	8.69
491.107	8.7
491.459	8.76
491.811	8.88
492.163	8.85
492.515	8.76
492.866	8.69
493.218	8.62
493.57	8.61
493.922	8.71
494.274	8.86
494.625	8.91
494.977	9.06
495.328	9.13
495.68	9.18
496.031	9.24
496.383	9.31
496.734	9.18
497.086	9.11
497.437	9.32
497.788	9.21
498.139	9.25
498.49	9.19
498.842	9.12
499.193	9.16
499.544	9.36
499.894	9.33
500.245	9.24
500.596	9.42
500.947	9.36
501.298	9.35
501.648	9.48
501.999	9.38
502.35	9.59
502.7	9.55
503.051	9.57
503.401	9.63
503.752	9.6
504.102	9.63
504.452	9.7
504.803	9.63
505.153	9.77
505.503	9.64
505.853	9.75
506.203	9.73
506.553	9.63
506.903	9.61
507.253	9.79
507.603	9.81
507.953	9.69
508.303	9.69
508.652	9.87
509.002	9.85
509.352	9.84
509.701	9.81
510.051	9.85
510.4	9.94
510.75	9.77
511.099	9.69
511.449	9.78
511.798	9.93
512.147	9.86
512.496	9.89
512.846	10.06
513.195	9.91
513.544	9.96
513.893	9.87
514.242	10
514.591	9.99
514.939	10.02
515.288	10.12
515.637	10.25
515.986	10.19
516.334	10.27
516.683	10.27
517.032	10.19
517.38	10.24
517.729	10.32
518.077	10.29
518.426	10.31
518.774	10.33
519.122	10.32
519.47	10.24
519.819	10.11
520.167	10.2
520.515	10.15
520.863	10.2
521.211	10.23
521.559	10.19
521.907	10.35
522.255	10.31
522.602	10.48
522.95	10.56
523.298	10.56
523.645	10.38
523.993	10.68
524.341	10.61
524.688	10.74
525.036	10.71
525.383	10.59
525.73	10.5
526.078	10.62
526.425	10.55
526.772	10.54
527.119	10.46
527.466	10.55
527.814	10.54
528.161	10.51
528.508	10.6
528.854	10.59
529.201	10.51
529.548	10.43
529.895	10.26
530.242	10.28
530.588	10.29
530.935	10.33
531.282	10.43
531.628	10.54
531.975	10.58
532.321	10.65
532.667	10.88
533.014	10.81
533.36	10.86
533.706	10.89
534.052	10.86
534.399	10.82
534.745	10.71
535.091	10.72
535.437	10.74
535.783	10.85
536.129	10.89
536.474	11.08
536.82	11.02
537.166	11.16
537.512	11.16
537.857	11.11
538.203	11.05
538.549	11.17
538.894	11.13
539.239	11.17
539.585	11.24
539.93	11.29
540.276	11.58
540.621	11.37
540.966	11.56
541.311	11.45
541.656	11.47
542.001	11.38
542.346	11.23
542.691	11.09
543.036	11.02
543.381	11.05
543.726	11.16
544.071	11.23
544.415	11.31
544.76	11.44
545.105	11.4
545.449	11.4
545.794	11.66
546.138	11.63
546.483	11.71
546.827	11.86
547.171	11.87
547.516	11.66
547.86	11.69
548.204	11.7
548.548	11.83
548.892	11.8
549.236	11.77
549.58	11.99
549.924	12.04
550.268	12.06
550.612	12.18
550.956	12.23
551.3	12.01
551.643	12.1
551.987	12.1
552.33	12.33
552.674	12.25
553.017	12.49
553.361	12.32
553.704	12.29
554.048	12.4
554.391	12.38
554.734	12.25
555.077	12.49
555.42	12.32
555.764	12.55
556.107	12.52
556.45	12.71
556.793	12.6
557.135	12.52
557.478	12.58
557.821	12.66
558.164	12.48
558.507	12.65
558.849	12.72
559.192	12.59
559.534	12.79
559.877	12.91
560.219	12.85
560.562	12.7
560.904	12.81
561.246	12.91
561.589	12.83
561.931	12.68
562.273	12.97
562.615	12.83
562.957	12.85
563.299	12.95
563.641	12.75
563.983	12.8
564.325	13.08
564.667	13.11
565.008	13.19
565.35	13.06
565.692	12.94
566.033	13.07
566.375	13.33
566.716	13
567.058	13.15
567.399	13.28
567.741	13.08
568.082	13.12
568.423	13.24
568.764	13.2
569.105	13.17
569.447	13.36
569.788	13.43
570.129	13.13
570.47	13.21
570.811	13.35
571.151	13.46
571.492	13.55
571.833	13.36
572.174	13.55
572.514	13.52
572.855	13.44
573.195	13.46
573.536	13.61
573.876	13.46
574.217	13.58
574.557	13.52
574.898	13.69
575.238	13.57
575.578	13.61
575.918	13.72
576.258	13.87
576.598	13.79
576.938	13.8
577.278	13.6
577.618	13.83
577.958	13.84
578.298	13.87
578.638	13.89
578.977	13.89
579.317	14.06
579.657	14.05
579.996	13.86
580.336	13.89
580.675	14.21
581.014	14.33
581.354	14.09
581.693	13.95
582.032	14.26
582.372	14.25
582.711	14.36
583.05	14.19
583.389	14.49
583.728	14.28
584.067	14.4
584.406	14.51
584.745	14.59
585.083	14.43
585.422	14.6
585.761	14.67
586.1	14.46
586.438	14.56
586.777	14.69
587.115	14.6
587.454	14.3
587.792	14.67
588.13	14.58
588.469	14.54
588.807	14.71
589.145	14.65
589.483	14.78
589.821	14.84
590.159	14.82
590.497	15.07
590.835	14.88
591.173	14.97
591.511	14.78
591.849	14.78
592.187	14.86
592.524	14.85
592.862	15.12
593.2	14.96
593.537	15.07
593.875	15.12
594.212	14.95
594.55	15.05
594.887	15.09
595.224	15.13
595.561	15.02
595.899	14.79
596.236	15.16
596.573	15.15
596.91	15.41
597.247	15.03
597.584	15.03
597.921	15.36
598.258	15.1
598.594	15.14
598.931	15.06
599.268	15.36
599.604	15.27
599.941	15.35
600.277	15.44
600.614	15.53
600.95	15.46
601.287	15.3
601.623	15.81
601.959	15.89
602.296	15.65
602.632	15.36
602.968	15.61
603.304	15.58
603.64	16
603.976	15.82
604.312	15.69
604.648	15.71
604.984	15.57
605.319	15.79
605.655	15.72
605.991	15.52
606.326	15.83
606.662	15.66
606.998	15.62
607.333	15.75
607.668	15.78
608.004	15.76
608.339	15.76
608.674	15.97
609.01	16
609.345	15.93
609.68	15.75
610.015	16.02
610.35	15.97
610.685	16.07
611.02	15.85
611.355	15.98
611.689	15.89
612.024	16.15
612.359	15.97
612.694	16.15
613.028	16.19
613.363	16.37
613.697	16.47
614.032	16.55
614.366	16.38
614.7	16.24
615.035	16.12
615.369	16.29
615.703	16.31
616.037	16.3
616.371	16.45
616.705	16.7
617.039	16.64
617.373	16.58
617.707	16.75
618.041	16.69
618.375	16.56
618.709	16.51
619.042	16.74
619.376	16.68
619.71	16.8
620.043	16.74
620.377	16.8
620.71	16.93
621.043	16.77
621.377	16.89
621.71	16.61
622.043	16.86
622.376	16.97
622.709	16.85
623.043	16.98
623.376	17
623.709	17.08
624.041	17.32
624.374	16.83
624.707	17.18
625.04	16.68
625.373	17.28
625.705	17.34
626.038	17.52
626.37	17.13
626.703	17.22
627.035	17.06
627.368	16.97
627.7	17.33
628.032	17.29
628.365	17.47
628.697	17.24
629.029	17.2
629.361	17.21
629.693	17.07
630.025	17.22
630.357	17.34
630.689	17.14
631.021	17.5
631.353	17.64
631.684	17.78
632.016	17.56
632.348	17.56
632.679	17.54
633.011	17.83
633.342	17.64
633.674	17.11
634.005	17.65
634.336	17.75
634.668	17.71
634.999	17.55
635.33	17.5
635.661	17.73
635.992	17.7
636.323	17.7
636.654	18.14
636.985	17.83
637.316	17.9
637.647	18.1
637.977	18.22
638.308	17.97
638.639	17.64
638.969	18.04
639.3	18.23
639.63	18.53
639.961	17.97
640.291	18.35
640.622	18.53
640.952	18.39
641.282	18.35
641.612	17.96
641.943	18.63
642.273	17.85
642.603	18.26
642.933	18.22
643.263	18.45
643.592	18.54
643.922	18.43
644.252	18.84
644.582	18.48
644.911	18.04
645.241	18.38
645.571	18.33
645.9	18.79
646.23	18.83
646.559	18.56
646.888	18.8
647.218	18.61
647.547	18.52
647.876	18.63
648.205	18.65
648.534	18.38
648.863	18.27
649.192	18.66
649.521	18.78
649.85	19
650.179	18.86
650.508	18.84
650.837	18.73
651.165	18.8
651.494	18.75
651.822	18.43
652.151	18.18
652.479	18.49
652.808	18.77
653.136	18.85
653.465	18.86
653.793	18.93
654.121	18.99
654.449	18.75
654.777	19.82
655.105	18.89
655.433	19.04
655.761	19
656.089	19.12
656.417	18.42
656.745	19.44
657.073	18.7
657.4	18.98
657.728	19.25
658.056	19.33
658.383	19.37
658.711	18.98
659.038	19.42
659.365	19.02
659.693	19.33
660.02	20.13
660.347	19.48
660.674	19.38
661.001	19.67
661.329	19.25
661.656	19.31
661.982	19.68
662.309	19.43
662.636	19.59
662.963	19.61
663.29	19.11
663.616	18.94
663.943	19.62
664.27	19.66
664.596	19.77
664.923	19.12
665.249	19.61
665.576	19.93
665.902	19.91
666.228	19.97
666.554	20.09
666.881	19.66
667.207	19.84
667.533	20.29
667.859	19.76
668.185	20.33
668.511	20.17
668.837	19.72
669.162	20.03
669.488	20.23
669.814	19.94
670.139	20.19
670.465	19.7
670.791	19.94
671.116	19.99
671.442	20.44
671.767	20.5
672.092	20.06
672.418	19.94
672.743	19.97
673.068	20.46
673.393	20.75
673.718	20.55
674.043	20.44
674.368	19.51
674.693	19.48
675.018	20.81
675.343	20.25
675.667	20.32
675.992	20.77
676.317	20.28
676.641	19.66
676.966	20.54
677.29	20.29
677.615	20.92
677.939	19.93
678.264	20.94
678.588	20.52
678.912	20.24
679.236	20.43
679.56	20.95
679.885	20.65
680.209	20.43
680.532	20.74
680.856	21.27
681.18	20.86
681.504	20.63
681.828	20.91
682.152	21.02
682.475	20.63
682.799	20.44
683.122	20.85
683.446	21.12
683.769	21.72
684.093	21.01
684.416	20.6
684.739	20.83
685.062	20.6
685.386	21.36
685.709	20.93
686.032	20.34
686.355	20.93
686.678	21.34
687.001	21.04
687.324	21.13
687.646	20.39
687.969	21.21
688.292	21.92
688.614	20.45
688.937	20.5
689.26	20.48
689.582	21.31
689.904	20.74
690.227	21.17
690.549	21.46
690.871	20.66
691.194	21.49
691.516	20.68
691.838	21.14
692.16	20.95
692.482	21.85
692.804	21.33
693.126	21.17
693.448	20.78
693.769	21.13
694.091	21.56
694.413	22.09
694.735	21.42
695.056	21.06
695.378	21.96
695.699	21.6
696.021	21.42
696.342	21.7
696.663	21.29
696.984	21.66
697.306	21.7
697.627	22.01
697.948	22.34
698.269	22.1
698.59	21.48
698.911	21.84
699.232	21.39
699.553	22.46
699.873	22.47
700.194	21.84
700.515	21.57
700.835	21.73
701.156	22.06
701.477	22.19
701.797	21.95
702.117	22.5
702.438	21.88
702.758	22.14
703.078	22.08
703.398	21.95
703.719	22.56
704.039	22.44
704.359	21.87
704.679	21.92
704.999	22.27
705.319	21.98
705.638	22.73
705.958	22.61
706.278	22.35
706.597	22.29
706.917	22.2
707.237	22.18
707.556	22.1
707.876	22.43
708.195	22.2
708.514	23.78
708.834	23.17
709.153	22.1
709.472	21.84
709.791	21.92
710.11	22.89
710.429	24.03
710.748	22.82
711.067	22.66
711.386	23.2
711.705	22.99
712.023	23.07
712.342	21.99
712.661	22.91
712.979	22.49
713.298	23.73
713.616	22.88
713.935	22.02
714.253	22.72
714.572	22.22
714.89	23.29
715.208	22.4
715.526	23.1
715.844	22.94
716.162	22.74
716.48	22.19
716.798	22.68
717.116	22.89
717.434	23.22
717.752	22.66
718.069	23.78
718.387	23.09
718.705	23.48
719.022	22.87
719.34	22.39
719.657	23.48
719.975	23.06
720.292	22.64
720.609	22.25
720.927	22.13
721.244	23.08
721.561	23.25
721.878	22.37
722.195	23.11
722.512	23.97
722.829	22.87
723.146	23.24
723.463	23.04
723.779	22.95
724.096	24.39
724.413	23.73
724.729	22.78
725.046	24.14
725.362	23.91
725.679	23.78
725.995	22.92
726.311	21.55
726.628	22.85
726.944	22.56
727.26	22.99
727.576	24.08
727.892	22.37
728.208	24.48
728.524	23.59
728.84	23.47
729.156	23.39
729.472	23.91
729.787	23.44
730.103	23.51
730.419	24.59
730.734	23.03
731.05	24.97
731.365	23.93
731.681	23.4
731.996	24.4
732.311	23.7
732.626	22.75
732.942	23.29
733.257	22.36
733.572	23.81
733.887	23.41
734.202	24.19
734.517	24.38
734.832	23.45
735.146	23.35
735.461	22.84
735.776	24.35
736.091	23.96
736.405	24.12
736.72	24.01
737.034	21.85
737.349	23.98
737.663	24.04
737.977	24.23
738.292	23.9
738.606	22.88
738.92	23.24
739.234	22.53
739.548	23.64
739.862	23.93
740.176	25.74
740.49	23.46
740.804	25.1
741.117	24.18
741.431	23.12
741.745	23.4
742.058	23.64
742.372	22.32
742.685	25.02
742.999	23.84
743.312	23.71
743.626	23.78
743.939	24.61
744.252	24.1
744.565	24.36
744.878	25.42
745.191	25.32
745.505	23.63
745.817	24.03
746.13	25.85
746.443	23.2
746.756	25.8
747.069	24.6
747.381	26.74
747.694	24.51
748.007	25.13
748.319	21.94
748.632	22.7
748.944	23.96
749.256	25.12
749.569	23.71
749.881	23.46
750.193	25.48
750.505	24.75
750.817	25.97
751.129	26.08
751.441	23.74
751.753	24
752.065	24.88
752.377	23.54
752.689	24.83
753	24.24
753.312	24.5
753.624	24.49
753.935	24.01
754.247	24.66
754.558	23.27
754.869	25.9
755.181	23.34
755.492	24.16
755.803	23.11
756.114	26.43
756.425	24.52
756.736	26.35
757.047	23.93
757.358	24.68
757.669	25.55
757.98	25.48
758.291	24.92
758.601	25.14
758.912	24.27
759.223	25.72
759.533	25.79
759.844	24.02
760.154	24.84
760.464	26.13
760.775	24.17
761.085	25.53
761.395	24.69
761.705	26.65
762.016	26.47
762.326	26.12
762.636	25.21
762.945	24.69
763.255	25.78
763.565	25.75
763.875	25.76
764.185	27.6
764.494	24.52
764.804	25.63
765.113	25.67
765.423	26.68
765.732	26.41
766.042	25.89
766.351	27.04
766.66	25.08
766.97	26.08
767.279	24.71
767.588	25.08
767.897	24.2
768.206	25.49
768.515	24.04
768.824	24.68
769.133	25.16
769.441	22.88
769.75	28.04
770.059	24.54
770.367	23.93
770.676	26.31
770.984	25.78
771.293	24.53
771.601	28.13
771.91	27.82
772.218	23.05
772.526	22.09
772.834	25.08
773.142	27.71
773.45	24.97
773.758	27.75
774.066	23.6
774.374	27.43
774.682	26.07
774.99	25.81
775.298	28.77
775.605	24.97
775.913	27.77
776.22	28.16
776.528	27.1
776.835	23.74
777.143	26.82
777.45	25.52
777.757	23.27
778.065	25.64
778.372	23.28
778.679	25.69
778.986	27.11
779.293	31.4
779.6	24.43
779.907	24.45
780.214	24.45
780.52	25.75
780.827	25.68
781.134	26.12
781.44	22.68
781.747	24.72
782.053	26.4
782.36	28.9
782.666	25.05
782.973	22.51
783.279	26.2
783.585	27.01
783.891	27.83
784.197	25.44
784.503	22.44
784.809	25.83
785.115	26.64
785.421	23.06
785.727	25.37
786.033	25.65
786.339	25.22
786.644	26.27
786.95	23.8
787.255	23.43
787.561	24.11
787.866	23.98
788.172	22.95
788.477	26.4
788.782	30.34
789.088	25.58
789.393	25.47
789.698	23.45
790.003	28.96
790.308	25.06
790.613	26.41
790.918	27.05
791.223	26.69
791.527	23.8
791.832	22.87
792.137	25.94
792.441	25.43
792.746	22.82
793.05	23.97
793.355	26.65
793.659	23.56
793.963	21.76
794.268	27.22
794.572	26.35
794.876	22.61
795.18	24.06
795.484	28.62
795.788	19.74
796.092	24.82
796.396	27
796.7	24.88
797.004	24.61
797.307	24.75
797.611	27.12
797.915	29.49
798.218	23.64
798.522	29.01
798.825	24.99
799.128	27.17
799.432	24.33
799.735	22.31
800.038	27.17
800.341	23.27
800.644	26.18
800.947	26.04
801.25	24.25
801.553	26.79
801.856	25.69
802.159	25.92
802.462	23.05
802.764	29.78
803.067	26.95
803.37	26.14
803.672	25.61
803.975	25.2
804.277	25.13
804.579	31.07
804.882	22.52
805.184	25.43
805.486	29.8
805.788	27.54
806.09	21.67
806.392	29.09
806.694	22.58
806.996	30.49
807.298	25.95
807.6	22.76
807.902	26.61
808.203	25.54
808.505	21.83
808.807	28.23
809.108	26.17
809.409	26.53
809.711	22.19
810.012	27.31
810.313	29.07
810.615	27.55
810.916	26.81
811.217	31.79
811.518	23.82
811.819	27.53
812.12	20.66
812.421	34.19
812.722	24.87
813.023	25.25
813.323	23.72
813.624	25.43
813.925	27.14
814.225	29.18
814.526	24.68
814.826	22.35
815.126	23.28
815.427	26.79
815.727	26.4
816.027	26.04
816.327	26.89
816.627	27.72
816.927	26.6
817.227	29.12
817.527	21.17
817.827	27.51
818.127	23.62
818.427	27.36
818.727	27.93
819.026	25.23
819.326	25.58
819.625	26.64
819.925	27.3
820.224	20.52
820.524	25.52
820.823	28.36
821.122	23.31
821.421	25.01
821.72	30.77
822.019	28.09
822.318	30.46
822.617	27.81
822.916	29.55
823.215	27.18
823.514	27.37
823.813	31.54
824.111	25.74
824.41	28.2
824.709	27.84
825.007	28.52
825.306	28.98
825.604	28.11
825.902	28.09
826.201	28.71
826.499	28.5
826.797	28.37
827.095	29.27
827.393	27.82
827.691	28.7
827.989	29.04
828.287	27.7
828.585	28.5
828.882	27.06
829.18	27.11
829.478	27.12
829.775	28.89
830.073	29.88
830.37	30.19
830.668	29.98
830.965	29.2
831.263	26.16
831.56	26.73
831.857	30.03
832.154	25.64
832.451	23.53
832.748	26.6
833.045	24.87
833.342	26.49
833.639	27.93
833.936	23.56
834.232	25.01
834.529	19.57
834.826	26.02
835.122	18.73
835.419	29.01
835.715	24.68
836.012	30.12
836.308	26.24
836.604	29.44
836.901	30.12
837.197	26.67
837.493	28.37
837.789	27.73
838.085	25.37
838.381	27.97
838.677	31.7
838.972	24.56
839.268	25.64
839.564	26.95
839.86	27.79
840.155	30.5
840.451	20.21
840.746	19.73
841.042	18.62
841.337	28.19
841.632	27.29
841.928	24.27
842.223	23.86
842.518	13.68
842.813	24.46
843.108	30.63
843.403	29.64
843.698	23.16
843.993	26.94
844.287	25.65
844.582	19.24
844.877	17.97
845.171	21.69
845.466	24.39
845.761	21.23
846.055	20.1
846.349	1.13
846.644	31.66
846.938	36.26
847.232	18.15
847.526	25.38
847.82	18.34
848.114	18.85
848.408	15.43
848.702	36.16
848.996	15.23
849.29	24.73
849.584	15.31
849.877	23.93
850.171	24.16
850.465	27.37
850.758	19.7
851.052	21.1
851.345	12.36
851.638	33.44
851.932	13.42
852.225	28.23
852.518	25.86
852.811	28.22
853.104	34.34
853.397	14.53
853.69	40.03
853.983	14.87
854.276	-1.18
854.569	7.83
854.861	34.71
855.154	30.3
855.447	27.77
855.739	-2.35
856.032	25.92
856.324	17.31
856.616	5.93
856.909	10
857.201	8.06
857.493	36.46
857.785	-2.16
858.077	26.16
858.369	38.25
858.661	16.64
858.953	35.68
859.245	21.99
859.537	40.4
859.829	20.19
860.12	13.25
860.412	27.52
860.703	20.56
860.995	15.95
861.286	14.62
861.578	-7.31
861.869	16.79
862.16	-2.3
862.452	27.65
862.743	22.98
863.034	8.29
863.325	21.83
863.616	28.21
863.907	30.86
864.198	-7.35
864.488	29.29
864.779	20.64
865.07	-3.71
865.36	30.96
865.651	21.27
865.941	25.57
866.232	27.76
866.522	22.46
866.813	21.58
867.103	2.11
867.393	21.73
867.683	10.19
867.973	-3.28
868.263	8.67
868.553	36.22
868.843	39.84
869.133	23.26
869.423	38.88
869.713	31.46
870.002	1.66
870.292	5.85
870.582	14.22
870.871	24.23
871.161	36.07
871.45	17.25
871.739	-7.68
872.029	10.7
872.318	30.17
872.607	12.16
872.896	23.91
873.185	17.22
873.474	25.7
873.763	-8.54
874.052	-3.86
874.341	18.98
874.63	15.16
874.918	26.58
875.207	14.31
875.496	33.41
875.784	28.93
876.073	-19.64
876.361	28.11
876.649	17.88
876.938	15.76
877.226	-9.38
877.514	13.77
877.802	23.66
878.09	41.91
878.378	6.23
878.666	4.83
878.954	-32.11
879.242	8.61
879.53	-21.86
879.817	29.59
880.105	4.69
880.392	27.68
880.68	2.61
880.967	17.13
881.255	28.33
881.542	-5.99
881.83	-1.57
882.117	-4.08
882.404	37.27
882.691	43.17
882.978	18
883.265	22.22
883.552	44.12
883.839	23.66
884.126	10.23
884.413	28.65
884.699	26.92
884.986	28.21
885.273	29.57
885.559	29.57
885.846	29.57
