Data from 0036_chest_Reflection__3__03.txt Node

Date: Fri Nov 04 14:36:31 CDT 2022
User: ToomeyLab
Spectrometer: FLMS14357
Trigger mode: 0
Integration Time (sec): 1.000000E-2
Scans to average: 100
Electric dark correction enabled: true
Nonlinearity correction enabled: false
Boxcar width: 0
XAxis mode: Wavelengths
Number of Pixels in Spectrum: 2048
>>>>>Begin Spectral Data<<<<<
189.047	112.72
189.435	112.72
189.823	112.72
190.211	73.29
190.599	148.09
190.987	109.08
191.375	-19.08
191.763	73.67
192.151	95.94
192.538	302.03
192.926	62.06
193.314	14.43
193.702	-1033.33
194.089	207.31
194.477	84.96
194.864	-48.63
195.252	107.35
195.639	329.57
196.027	-32.77
196.414	-4.19
196.801	75.49
197.189	10.46
197.576	69.54
197.963	-16.17
198.351	-20.52
198.738	2.78
199.125	4.42
199.512	-28.77
199.899	-4.7
200.286	6.51
200.673	-13.22
201.06	34.3
201.447	24.1
201.833	-4.45
202.22	-4.48
202.607	-28.98
202.994	16.92
203.38	40.88
203.767	-11.87
204.154	20.25
204.54	35.51
204.927	16.89
205.313	19.04
205.699	11.81
206.086	19.64
206.472	21.74
206.858	10.88
207.245	21.77
207.631	8.69
208.017	1.76
208.403	25.69
208.789	-2.09
209.175	17.17
209.561	-5.99
209.947	19.67
210.333	43.97
210.719	4.64
211.105	-0.87
211.491	21.6
211.876	16.89
212.262	22.5
212.648	-3.49
213.034	-3.2
213.419	-0.14
213.805	4.22
214.19	20.66
214.576	-29.02
214.961	8.41
215.346	-14.61
215.732	-11.89
216.117	-1.82
216.502	17.33
216.888	-15.13
217.273	-5.05
217.658	1.54
218.043	21.13
218.428	11
218.813	2.79
219.198	-14.31
219.583	-1.15
219.968	-14.33
220.353	2.32
220.738	21.43
221.122	0.39
221.507	0.49
221.892	-6.23
222.276	-14.34
222.661	16.41
223.046	-1.83
223.43	-3.95
223.815	9.38
224.199	2.07
224.583	1.93
224.968	3.72
225.352	10.79
225.736	6.07
226.121	8.97
226.505	4.24
226.889	5.68
227.273	1.29
227.657	0.43
228.041	6.86
228.425	5.87
228.809	4.16
229.193	6.29
229.577	4.44
229.961	5.58
230.344	4.39
230.728	5.04
231.112	5.26
231.495	4.33
231.879	5.41
232.263	4.84
232.646	4.97
233.03	5.39
233.413	5.12
233.797	6.37
234.18	4.29
234.563	4.93
234.946	2.4
235.33	4.64
235.713	5.01
236.096	4.46
236.479	4.79
236.862	5.27
237.245	4.26
237.628	5.41
238.011	4.68
238.394	4.95
238.777	5.05
239.16	5.07
239.543	6.6
239.925	4.36
240.308	5.08
240.691	3.2
241.073	4.1
241.456	5.02
241.838	4.3
242.221	5.15
242.603	5.25
242.986	5.27
243.368	4.73
243.75	4.81
244.133	4.22
244.515	4.77
244.897	4.55
245.279	4.57
245.661	4.83
246.043	4.13
246.425	5.04
246.807	5.16
247.189	4.71
247.571	4.87
247.953	4.38
248.335	4.25
248.717	4.28
249.098	4.32
249.48	4.52
249.862	4.53
250.243	5
250.625	4.95
251.006	4.07
251.388	4.75
251.769	4.31
252.151	4.46
252.532	4.14
252.913	3.76
253.295	4.51
253.676	4.19
254.057	4.72
254.438	4.54
254.819	4.42
255.2	4.6
255.581	5.2
255.962	4.99
256.343	3.39
256.724	3.3
257.105	5.38
257.486	4.7
257.867	4.04
258.247	3.88
258.628	4.43
259.009	4.54
259.389	3.99
259.77	4.22
260.15	5.03
260.531	4.36
260.911	4.08
261.292	4.14
261.672	4.07
262.052	4.15
262.432	4.2
262.813	4.46
263.193	4.32
263.573	4.21
263.953	4.25
264.333	3.7
264.713	4.68
265.093	4.24
265.473	4.34
265.853	4.48
266.233	3.87
266.612	4.45
266.992	4.74
267.372	4.3
267.752	4.5
268.131	4.14
268.511	3.92
268.89	4.44
269.27	3.89
269.649	4.11
270.029	4.09
270.408	4.08
270.787	4.05
271.167	4.18
271.546	4.19
271.925	4.14
272.304	3.94
272.683	4
273.062	4.3
273.441	3.67
273.82	3.73
274.199	4.34
274.578	4.25
274.957	4.05
275.336	3.81
275.715	4.01
276.093	3.86
276.472	3.81
276.851	4.18
277.229	3.83
277.608	3.67
277.986	4.37
278.365	4.07
278.743	4.32
279.122	3.72
279.5	4.22
279.878	3.5
280.257	3.76
280.635	4.35
281.013	3.68
281.391	4.26
281.769	4.1
282.147	3.68
282.525	4.01
282.903	3.56
283.281	3.94
283.659	4.64
284.037	4.19
284.415	3.77
284.792	3.55
285.17	3.53
285.548	3.48
285.925	4.08
286.303	3.72
286.68	4.05
287.058	3.68
287.435	3.73
287.813	3.8
288.19	4.03
288.567	4.06
288.945	4.04
289.322	4.17
289.699	4.26
290.076	4.19
290.453	4.34
290.83	4
291.207	3.35
291.584	4.13
291.961	4.08
292.338	4.13
292.715	3.74
293.092	3.51
293.469	4.11
293.845	4.17
294.222	3.63
294.599	4.17
294.975	3.91
295.352	3.71
295.728	4.18
296.105	3.94
296.481	4.25
296.858	3.76
297.234	4.18
297.61	4.05
297.986	3.97
298.363	4.16
298.739	3.82
299.115	4.19
299.491	3.76
299.867	3.93
300.243	3.81
300.619	4.12
300.995	3.73
301.371	4.21
301.746	3.75
302.122	4.34
302.498	4
302.874	4.16
303.249	3.87
303.625	3.9
304	3.64
304.376	3.68
304.751	3.91
305.127	4.37
305.502	3.65
305.878	3.56
306.253	3.39
306.628	4.73
307.003	4.1
307.378	3.89
307.754	4.11
308.129	3.95
308.504	3.78
308.879	3.72
309.254	4.42
309.629	4.18
310.003	4.61
310.378	4.11
310.753	4.58
311.128	3.68
311.502	4.54
311.877	3.76
312.252	4.05
312.626	3.96
313.001	3.98
313.375	3.99
313.75	3.92
314.124	4.45
314.498	3.52
314.873	3.74
315.247	4.07
315.621	3.77
315.995	3.85
316.369	3.91
316.743	3.68
317.117	3.89
317.491	3.81
317.865	4.1
318.239	3.63
318.613	4.04
318.987	4.06
319.361	4.03
319.734	3.56
320.108	3.98
320.482	4.39
320.855	4.57
321.229	4.38
321.602	4.19
321.976	4.29
322.349	3.95
322.723	4.24
323.096	3.96
323.469	4.53
323.843	3.87
324.216	3.77
324.589	3.96
324.962	4.23
325.335	3.6
325.708	4.09
326.081	4.37
326.454	4.43
326.827	3.85
327.2	3.9
327.573	4.29
327.945	3.85
328.318	3.88
328.691	3.96
329.063	3.84
329.436	3.96
329.809	4.11
330.181	4.52
330.553	4.31
330.926	4.13
331.298	4.19
331.671	4.04
332.043	3.82
332.415	3.7
332.787	3.92
333.159	4.22
333.532	4.27
333.904	3.84
334.276	3.72
334.648	4.26
335.02	4.49
335.391	4.32
335.763	4.12
336.135	4.4
336.507	3.87
336.879	2.95
337.25	4.13
337.622	4.18
337.993	4.08
338.365	3.97
338.736	4.27
339.108	4.22
339.479	3.83
339.851	3.87
340.222	4.52
340.593	4.14
340.964	4
341.336	3.92
341.707	4.03
342.078	4.17
342.449	4.3
342.82	4.09
343.191	4.04
343.562	4.25
343.933	4.3
344.303	3.76
344.674	3.64
345.045	4.04
345.416	4.69
345.786	3.86
346.157	4.26
346.527	4.18
346.898	4.15
347.268	4.51
347.639	4.19
348.009	4.55
348.38	3.94
348.75	4.35
349.12	4.01
349.49	3.94
349.861	4.13
350.231	4.11
350.601	4.4
350.971	4.14
351.341	3.74
351.711	4.35
352.081	4.05
352.45	4.01
352.82	4.12
353.19	4.18
353.56	4.03
353.929	4.05
354.299	4.06
354.669	3.91
355.038	4.2
355.408	4.03
355.777	4.22
356.147	4.24
356.516	4.17
356.885	4.27
357.254	4.12
357.624	4.15
357.993	3.76
358.362	4.17
358.731	3.84
359.1	3.87
359.469	4.03
359.838	4.15
360.207	4.06
360.576	4.19
360.945	4.2
361.314	4.22
361.682	3.98
362.051	3.97
362.42	4.34
362.788	4.16
363.157	4.19
363.525	3.94
363.894	4
364.262	4.14
364.631	3.91
364.999	4.22
365.367	3.7
365.735	4.32
366.104	4.4
366.472	3.92
366.84	4.18
367.208	4
367.576	4.16
367.944	3.97
368.312	4.33
368.68	4.03
369.048	3.99
369.416	4.36
369.783	4.17
370.151	4.07
370.519	4.18
370.886	4
371.254	3.86
371.621	4.28
371.989	4.11
372.356	4.09
372.724	4.16
373.091	4.08
373.458	4.54
373.826	4.4
374.193	4.38
374.56	4.34
374.927	4.24
375.294	4.08
375.661	3.98
376.028	4.15
376.395	4.03
376.762	4.24
377.129	4.07
377.496	4.13
377.863	4.31
378.229	4.09
378.596	4.13
378.963	4.06
379.329	4.16
379.696	4.31
380.062	4.26
380.429	4.33
380.795	4.63
381.161	4.1
381.528	4.44
381.894	4.31
382.26	4
382.626	4.22
382.993	4.26
383.359	4.57
383.725	4.22
384.091	4.3
384.457	4.49
384.823	4.16
385.188	4.05
385.554	4.24
385.92	3.87
386.286	4.24
386.651	4.25
387.017	4
387.383	4.48
387.748	4.22
388.114	4.13
388.479	4.13
388.845	4.17
389.21	4.16
389.575	4.01
389.94	4.32
390.306	4.2
390.671	4.15
391.036	4.17
391.401	4.35
391.766	3.97
392.131	3.96
392.496	4.1
392.861	4.16
393.226	4.24
393.591	4.4
393.956	4.04
394.32	4.01
394.685	4.18
395.05	4.03
395.414	4.1
395.779	4.04
396.143	4.35
396.508	4.01
396.872	4.14
397.236	4.41
397.601	4.26
397.965	4.45
398.329	4.23
398.694	4.26
399.058	4.39
399.422	4.25
399.786	4.39
400.15	4.33
400.514	4.4
400.878	4.32
401.242	4.2
401.605	4.13
401.969	4.2
402.333	4.27
402.697	4.34
403.06	4.25
403.424	4.08
403.787	4.29
404.151	4.26
404.514	4.32
404.878	4.39
405.241	4.36
405.604	4.23
405.968	4.23
406.331	4.28
406.694	4.18
407.057	4.19
407.42	4.16
407.783	4.21
408.146	4.19
408.509	4.45
408.872	4.27
409.235	4.33
409.598	4.36
409.961	4.67
410.323	4.13
410.686	4.24
411.049	4.28
411.411	4.34
411.774	4.22
412.136	4.2
412.499	4.31
412.861	4.51
413.223	4.17
413.586	4.29
413.948	4.4
414.31	4.27
414.672	4.32
415.035	4.4
415.397	4.35
415.759	4.45
416.121	4.18
416.483	4.09
416.845	4.15
417.206	4.36
417.568	4.33
417.93	4.37
418.292	4.43
418.653	4.22
419.015	4.31
419.377	4.22
419.738	4.24
420.1	4.05
420.461	4.2
420.822	4.19
421.184	4.26
421.545	4.37
421.906	4.23
422.267	4.18
422.629	4.21
422.99	4.29
423.351	4.27
423.712	4.24
424.073	4.19
424.434	4.23
424.795	4.21
425.155	4.19
425.516	4.27
425.877	4.31
426.238	4.2
426.598	4.25
426.959	4.24
427.32	4.19
427.68	4.37
428.041	4.34
428.401	4.32
428.761	4.46
429.122	4.26
429.482	4.32
429.842	4.52
430.202	4.43
430.563	4.36
430.923	4.41
431.283	4.47
431.643	4.35
432.003	4.57
432.363	4.38
432.722	4.32
433.082	4.17
433.442	4.24
433.802	4.24
434.161	4.36
434.521	4.19
434.881	4.43
435.24	4.35
435.6	4.31
435.959	4.3
436.319	4.35
436.678	4.37
437.037	4.26
437.396	4.41
437.756	4.55
438.115	4.51
438.474	4.35
438.833	4.35
439.192	4.42
439.551	4.41
439.91	4.47
440.269	4.6
440.628	4.42
440.987	4.37
441.345	4.3
441.704	4.5
442.063	4.41
442.421	4.38
442.78	4.33
443.138	4.28
443.497	4.36
443.855	4.41
444.214	4.44
444.572	4.45
444.93	4.47
445.288	4.5
445.647	4.31
446.005	4.44
446.363	4.48
446.721	4.27
447.079	4.32
447.437	4.44
447.795	4.27
448.153	4.42
448.51	4.26
448.868	4.3
449.226	4.31
449.584	4.39
449.941	4.37
450.299	4.44
450.656	4.53
451.014	4.47
451.371	4.64
451.729	4.57
452.086	4.6
452.443	4.53
452.801	4.47
453.158	4.49
453.515	4.55
453.872	4.54
454.229	4.45
454.586	4.41
454.943	4.43
455.3	4.61
455.657	4.49
456.014	4.43
456.371	4.43
456.727	4.46
457.084	4.47
457.441	4.5
457.797	4.45
458.154	4.56
458.51	4.64
458.867	4.49
459.223	4.54
459.58	4.6
459.936	4.45
460.292	4.46
460.648	4.64
461.005	4.49
461.361	4.54
461.717	4.48
462.073	4.44
462.429	4.43
462.785	4.47
463.141	4.4
463.496	4.49
463.852	4.68
464.208	4.55
464.564	4.54
464.919	4.41
465.275	4.4
465.631	4.57
465.986	4.53
466.342	4.48
466.697	4.51
467.052	4.58
467.408	4.62
467.763	4.61
468.118	4.64
468.473	4.68
468.829	4.64
469.184	4.39
469.539	4.62
469.894	4.54
470.249	4.77
470.603	4.8
470.958	4.45
471.313	4.63
471.668	4.62
472.023	4.7
472.377	4.57
472.732	4.72
473.086	4.73
473.441	4.54
473.795	4.66
474.15	4.59
474.504	4.62
474.859	4.41
475.213	4.48
475.567	4.65
475.921	4.58
476.275	4.76
476.63	4.66
476.984	4.85
477.338	4.64
477.692	4.63
478.045	4.76
478.399	4.68
478.753	4.59
479.107	4.57
479.461	4.74
479.814	4.7
480.168	4.82
480.521	4.66
480.875	4.72
481.228	4.67
481.582	4.69
481.935	4.64
482.289	4.63
482.642	4.71
482.995	4.69
483.348	4.69
483.701	4.62
484.055	4.57
484.408	4.63
484.761	4.55
485.114	4.45
485.466	4.39
485.819	4.38
486.172	4.37
486.525	4.4
486.878	4.47
487.23	4.56
487.583	4.64
487.936	4.57
488.288	4.58
488.641	4.6
488.993	4.52
489.345	4.53
489.698	4.47
490.05	4.48
490.402	4.57
490.754	4.6
491.107	4.6
491.459	4.54
491.811	4.69
492.163	4.82
492.515	4.7
492.866	4.67
493.218	4.56
493.57	4.51
493.922	4.58
494.274	4.64
494.625	4.66
494.977	4.72
495.328	4.75
495.68	4.73
496.031	4.83
496.383	4.77
496.734	4.81
497.086	4.77
497.437	4.97
497.788	4.8
498.139	4.74
498.49	4.83
498.842	4.73
499.193	4.82
499.544	4.73
499.894	4.77
500.245	4.84
500.596	4.83
500.947	4.79
501.298	4.87
501.648	4.94
501.999	4.97
502.35	4.93
502.7	4.92
503.051	4.98
503.401	4.93
503.752	4.93
504.102	4.8
504.452	4.8
504.803	4.8
505.153	4.92
505.503	4.96
505.853	4.85
506.203	4.97
506.553	5.02
506.903	4.85
507.253	4.9
507.603	4.94
507.953	5.01
508.303	5
508.652	4.97
509.002	4.86
509.352	5.07
509.701	4.9
510.051	4.95
510.4	4.91
510.75	5.08
511.099	4.91
511.449	4.79
511.798	4.94
512.147	5.07
512.496	5.06
512.846	5.04
513.195	4.98
513.544	5.06
513.893	5.1
514.242	5.15
514.591	4.96
514.939	5.02
515.288	4.97
515.637	5.11
515.986	4.99
516.334	5.16
516.683	5.1
517.032	5.07
517.38	5.18
517.729	5
518.077	5.22
518.426	5.13
518.774	5.07
519.122	5.03
519.47	5.11
519.819	5.1
520.167	5.05
520.515	5.1
520.863	5.11
521.211	5.08
521.559	5.08
521.907	5.16
522.255	5.07
522.602	5.26
522.95	5.09
523.298	5.25
523.645	5.23
523.993	5.28
524.341	5.29
524.688	5.33
525.036	5.24
525.383	5.42
525.73	5.2
526.078	5.42
526.425	5.3
526.772	5.13
527.119	5.31
527.466	5.22
527.814	5.23
528.161	5.25
528.508	5.26
528.854	5.31
529.201	5.37
529.548	5.22
529.895	5.14
530.242	5.09
530.588	5.1
530.935	5.18
531.282	5.14
531.628	5.24
531.975	5.19
532.321	5.31
532.667	5.31
533.014	5.41
533.36	5.43
533.706	5.41
534.052	5.47
534.399	5.38
534.745	5.27
535.091	5.33
535.437	5.28
535.783	5.38
536.129	5.4
536.474	5.44
536.82	5.52
537.166	5.57
537.512	5.6
537.857	5.65
538.203	5.51
538.549	5.52
538.894	5.53
539.239	5.48
539.585	5.55
539.93	5.54
540.276	5.63
540.621	5.58
540.966	5.64
541.311	5.58
541.656	5.66
542.001	5.62
542.346	5.72
542.691	5.57
543.036	5.6
543.381	5.48
543.726	5.54
544.071	5.56
544.415	5.69
544.76	5.68
545.105	5.69
545.449	5.75
545.794	5.75
546.138	5.89
546.483	5.98
546.827	5.83
547.171	5.81
547.516	5.9
547.86	5.89
548.204	5.95
548.548	5.83
548.892	5.86
549.236	5.87
549.58	5.86
549.924	5.99
550.268	6.02
550.612	5.95
550.956	6.03
551.3	6.06
551.643	6.15
551.987	6.09
552.33	6.1
552.674	6.14
553.017	6.21
553.361	6.19
553.704	6.16
554.048	6.17
554.391	6.16
554.734	6.08
555.077	6.1
555.42	6.18
555.764	6.34
556.107	6.15
556.45	6.42
556.793	6.34
557.135	6.3
557.478	6.24
557.821	6.53
558.164	6.31
558.507	6.38
558.849	6.43
559.192	6.48
559.534	6.48
559.877	6.46
560.219	6.41
560.562	6.49
560.904	6.59
561.246	6.55
561.589	6.5
561.931	6.53
562.273	6.72
562.615	6.75
562.957	6.56
563.299	6.47
563.641	6.83
563.983	6.63
564.325	6.67
564.667	6.78
565.008	6.67
565.35	6.85
565.692	6.77
566.033	6.7
566.375	6.74
566.716	6.92
567.058	6.79
567.399	6.89
567.741	6.71
568.082	6.86
568.423	6.96
568.764	6.88
569.105	6.76
569.447	6.97
569.788	6.91
570.129	6.98
570.47	7.02
570.811	6.89
571.151	7.03
571.492	7.23
571.833	7.28
572.174	7.13
572.514	7.3
572.855	7.18
573.195	7.06
573.536	7.09
573.876	7.19
574.217	7.18
574.557	7.23
574.898	7.11
575.238	7.31
575.578	7.35
575.918	7.22
576.258	7.48
576.598	7.45
576.938	7.33
577.278	7.35
577.618	7.51
577.958	7.34
578.298	7.51
578.638	7.75
578.977	7.37
579.317	7.54
579.657	7.8
579.996	7.56
580.336	7.69
580.675	7.78
581.014	7.64
581.354	7.67
581.693	7.63
582.032	7.7
582.372	7.81
582.711	7.75
583.05	7.81
583.389	7.84
583.728	7.83
584.067	7.81
584.406	7.74
584.745	7.81
585.083	7.64
585.422	8.08
585.761	7.88
586.1	8
586.438	7.88
586.777	8.21
587.115	8.12
587.454	8.12
587.792	8.09
588.13	8.4
588.469	8.24
588.807	8.2
589.145	8.15
589.483	8.29
589.821	8.34
590.159	8.4
590.497	8.33
590.835	8.44
591.173	8.47
591.511	8.36
591.849	8.35
592.187	8.47
592.524	8.66
592.862	8.21
593.2	8.33
593.537	8.46
593.875	8.55
594.212	8.37
594.55	8.72
594.887	8.64
595.224	8.65
595.561	8.72
595.899	8.34
596.236	8.54
596.573	8.73
596.91	8.76
597.247	8.93
597.584	8.81
597.921	8.72
598.258	9.12
598.594	8.77
598.931	8.9
599.268	8.97
599.604	8.97
599.941	8.9
600.277	8.81
600.614	8.96
600.95	8.95
601.287	9.08
601.623	9.22
601.959	8.95
602.296	9.02
602.632	9.33
602.968	9.24
603.304	9.4
603.64	9.45
603.976	9.35
604.312	9.48
604.648	9.6
604.984	9.47
605.319	9.27
605.655	9.35
605.991	9.41
606.326	9.43
606.662	9.6
606.998	9.54
607.333	9.56
607.668	9.52
608.004	9.67
608.339	9.46
608.674	9.66
609.01	10.04
609.345	9.84
609.68	9.84
610.015	10.02
610.35	9.88
610.685	9.66
611.02	9.8
611.355	10.05
611.689	9.66
612.024	9.87
612.359	10.3
612.694	9.86
613.028	10.19
613.363	10.16
613.697	10.15
614.032	10.05
614.366	10
614.7	10.23
615.035	10.3
615.369	10.57
615.703	10.36
616.037	10.35
616.371	10.22
616.705	10.09
617.039	10.56
617.373	10.53
617.707	10.6
618.041	10.69
618.375	10.77
618.709	10.87
619.042	10.57
619.376	10.64
619.71	10.65
620.043	11
620.377	11.02
620.71	11.02
621.043	10.94
621.377	10.69
621.71	10.59
622.043	10.82
622.376	11.04
622.709	11.13
623.043	10.74
623.376	10.9
623.709	11.17
624.041	11.38
624.374	11.13
624.707	10.96
625.04	11.55
625.373	10.9
625.705	11.31
626.038	11.65
626.37	11.73
626.703	11.25
627.035	11.46
627.368	11.51
627.7	11.37
628.032	11.44
628.365	11.78
628.697	11.72
629.029	11.37
629.361	11.63
629.693	11.55
630.025	11.6
630.357	11.78
630.689	11.7
631.021	11.79
631.353	11.48
631.684	11.78
632.016	11.49
632.348	11.93
632.679	11.89
633.011	12.06
633.342	12.31
633.674	12.23
634.005	12.18
634.336	11.91
634.668	12.08
634.999	12.24
635.33	12.47
635.661	12.22
635.992	12.1
636.323	12.28
636.654	12.79
636.985	12.45
637.316	12.39
637.647	12.32
637.977	12.5
638.308	12.51
638.639	13.09
638.969	12.73
639.3	12.58
639.63	12.71
639.961	12.61
640.291	12.6
640.622	13.16
640.952	12.81
641.282	12.84
641.612	13.13
641.943	13.17
642.273	12.74
642.603	12.74
642.933	12.75
643.263	13.14
643.592	13.17
643.922	13.47
644.252	13.13
644.582	13.15
644.911	13.09
645.241	13.33
645.571	13.48
645.9	13.32
646.23	13.31
646.559	13.08
646.888	13.36
647.218	13.38
647.547	13.67
647.876	13.45
648.205	13.53
648.534	13.55
648.863	13.78
649.192	13.52
649.521	13.93
649.85	13.74
650.179	14.06
650.508	13.49
650.837	13.59
651.165	13.72
651.494	14.01
651.822	13.59
652.151	13.86
652.479	14.09
652.808	13.42
653.136	13.9
653.465	13.99
653.793	14.28
654.121	14.35
654.449	13.93
654.777	13.98
655.105	14.54
655.433	14.37
655.761	14.13
656.089	14.22
656.417	14.23
656.745	14.62
657.073	14.18
657.4	14.55
657.728	14.85
658.056	15.05
658.383	14.36
658.711	14.34
659.038	14.09
659.365	14.34
659.693	15.28
660.02	14.89
660.347	15.01
660.674	14.99
661.001	14.74
661.329	14.68
661.656	15.32
661.982	15.19
662.309	15.22
662.636	14.94
662.963	14.71
663.29	14.92
663.616	14.89
663.943	14.98
664.27	15.24
664.596	14.94
664.923	15.61
665.249	15.65
665.576	15.36
665.902	15.68
666.228	15.43
666.554	16.71
666.881	15.88
667.207	15.38
667.533	15.34
667.859	15.72
668.185	15.94
668.511	15.18
668.837	15.91
669.162	15.78
669.488	15.54
669.814	16.27
670.139	16.36
670.465	16.03
670.791	15.66
671.116	15.77
671.442	16.18
671.767	16.27
672.092	16.39
672.418	16.65
672.743	16.36
673.068	16.58
673.393	15.82
673.718	15.31
674.043	16.26
674.368	16.05
674.693	16.47
675.018	16.81
675.343	15.98
675.667	16.23
675.992	16.71
676.317	17.27
676.641	16.96
676.966	16.53
677.29	16.61
677.615	16.77
677.939	16.74
678.264	16.55
678.588	16.67
678.912	16.17
679.236	16.59
679.56	16.72
679.885	16.23
680.209	17.39
680.532	16.84
680.856	17.59
681.18	17.27
681.504	17.04
681.828	17.33
682.152	17.42
682.475	17.59
682.799	17.37
683.122	17.45
683.446	17.17
683.769	17.93
684.093	17.06
684.416	17.78
684.739	17.49
685.062	17.3
685.386	17.43
685.709	17.77
686.032	17.67
686.355	17.91
686.678	17.54
687.001	17.54
687.324	17.54
687.646	17.83
687.969	17.87
688.292	16.88
688.614	17.91
688.937	18.08
689.26	18.17
689.582	18.36
689.904	17.03
690.227	17.78
690.549	17.69
690.871	18.62
691.194	18.3
691.516	18.61
691.838	18.67
692.16	18.66
692.482	17.08
692.804	18.15
693.126	17.96
693.448	18.52
693.769	18.38
694.091	17.83
694.413	19.17
694.735	18.48
695.056	17.73
695.378	19.3
695.699	19.03
696.021	18.92
696.342	19.28
696.663	18.41
696.984	18.05
697.306	18.97
697.627	19.51
697.948	18.31
698.269	19.52
698.59	19.74
698.911	19.55
699.232	19.25
699.553	18.73
699.873	18.35
700.194	19.44
700.515	19.17
700.835	19.33
701.156	19.67
701.477	19.74
701.797	19.54
702.117	18.83
702.438	19.47
702.758	19.53
703.078	19.84
703.398	20.42
703.719	19.5
704.039	20.26
704.359	18.86
704.679	19.84
704.999	20.03
705.319	19.76
705.638	19.87
705.958	20.29
706.278	20.32
706.597	20.09
706.917	20.8
707.237	19.75
707.556	20.23
707.876	20.84
708.195	19.37
708.514	20.29
708.834	20.89
709.153	20.87
709.472	21.12
709.791	19.86
710.11	20.43
710.429	20.16
710.748	20.5
711.067	20.92
711.386	20.35
711.705	20.86
712.023	20.27
712.342	19.92
712.661	20.76
712.979	21.3
713.298	21.06
713.616	20.33
713.935	20.78
714.253	19.69
714.572	20.89
714.89	21.39
715.208	21.45
715.526	20.01
715.844	21.64
716.162	21.12
716.48	21.51
716.798	20.81
717.116	21.3
717.434	22.49
717.752	20.37
718.069	21.23
718.387	21.74
718.705	20.81
719.022	22.1
719.34	21.12
719.657	21.34
719.975	20.65
720.292	21.18
720.609	21.48
720.927	21.63
721.244	21.77
721.561	21.82
721.878	21.51
722.195	22.23
722.512	22.49
722.829	22.27
723.146	21.69
723.463	21.94
723.779	22.89
724.096	22.36
724.413	22.09
724.729	22.25
725.046	22.26
725.362	22.19
725.679	22.96
725.995	23.09
726.311	22.39
726.628	23.75
726.944	23.84
727.26	22.01
727.576	21.63
727.892	22.42
728.208	21.31
728.524	23.85
728.84	23.99
729.156	21.24
729.472	22.48
729.787	22.47
730.103	23.47
730.419	22.43
730.734	22.21
731.05	22.48
731.365	23.61
731.681	23.48
731.996	23.04
732.311	22.77
732.626	22.95
732.942	23.38
733.257	23.52
733.572	22.92
733.887	23.41
734.202	23.05
734.517	22.75
734.832	23.91
735.146	24.02
735.461	24.07
735.776	24.47
736.091	24.4
736.405	25.97
736.72	22.6
737.034	25.01
737.349	24.24
737.663	24.63
737.977	24.02
738.292	23.41
738.606	24.65
738.92	23.53
739.234	23.75
739.548	24.53
739.862	23.7
740.176	24.35
740.49	24.31
740.804	24.22
741.117	24.34
741.431	23.41
741.745	22.83
742.058	23.95
742.372	24.47
742.685	24
742.999	25.93
743.312	24.49
743.626	25.41
743.939	25.36
744.252	24.69
744.565	24.61
744.878	24.66
745.191	24.08
745.505	23.83
745.817	23.94
746.13	25.94
746.443	25.53
746.756	24.78
747.069	24.46
747.381	25.77
747.694	24.82
748.007	26.05
748.319	26.81
748.632	26.25
748.944	24.99
749.256	26.74
749.569	25.71
749.881	25.18
750.193	26.13
750.505	24.06
750.817	24.21
751.129	25.61
751.441	25.63
751.753	25.05
752.065	24.23
752.377	26.01
752.689	24.76
753	23.31
753.312	25.65
753.624	26.49
753.935	26.97
754.247	26.89
754.558	25.34
754.869	25.46
755.181	25.88
755.492	25.11
755.803	24.97
756.114	25.85
756.425	26.47
756.736	25.74
757.047	27.24
757.358	26.93
757.669	27.82
757.98	26.51
758.291	26.41
758.601	25.8
758.912	26.86
759.223	25.5
759.533	26.62
759.844	25.34
760.154	27.29
760.464	27.5
760.775	25.15
761.085	25.6
761.395	25.16
761.705	26.62
762.016	25.97
762.326	26.86
762.636	26.99
762.945	27.4
763.255	27.44
763.565	26.13
763.875	27.49
764.185	27.4
764.494	29.75
764.804	26.97
765.113	26.72
765.423	26.82
765.732	27.04
766.042	26.63
766.351	27.27
766.66	26.1
766.97	26.53
767.279	26.48
767.588	28.15
767.897	26.19
768.206	26.54
768.515	28.04
768.824	27.87
769.133	27.26
769.441	28.58
769.75	26.46
770.059	27.85
770.367	28.15
770.676	29.48
770.984	27.71
771.293	26.92
771.601	25.95
771.91	28.59
772.218	28.62
772.526	27.94
772.834	26.87
773.142	28.87
773.45	28.6
773.758	28.44
774.066	28.94
774.374	27.74
774.682	26.57
774.99	25.15
775.298	27.49
775.605	28.15
775.913	29.71
776.22	28.92
776.528	28.77
776.835	28.88
777.143	30.08
777.45	29.58
777.757	27.68
778.065	28.14
778.372	28.45
778.679	27.69
778.986	28.14
779.293	30.26
779.6	29.3
779.907	27.13
780.214	27.98
780.52	28.55
780.827	28.15
781.134	28.77
781.44	25.7
781.747	28.89
782.053	30.4
782.36	27.94
782.666	32.17
782.973	30.3
783.279	30.26
783.585	27.35
783.891	29.23
784.197	28.07
784.503	28.23
784.809	27.63
785.115	34.58
785.421	29.23
785.727	31.65
786.033	31.66
786.339	28.5
786.644	26.37
786.95	27.25
787.255	28.49
787.561	35.06
787.866	29.61
788.172	32.11
788.477	27.79
788.782	30.76
789.088	26.33
789.393	32.24
789.698	31.36
790.003	33.68
790.308	32.62
790.613	28.35
790.918	29.84
791.223	34.01
791.527	30.95
791.832	28.81
792.137	29.54
792.441	29.91
792.746	31.29
793.05	29.97
793.355	33.08
793.659	31.63
793.963	31.11
794.268	30.86
794.572	32.6
794.876	29.31
795.18	30.22
795.484	28.72
795.788	27.83
796.092	30
796.396	24.94
796.7	29.59
797.004	29.37
797.307	30.54
797.611	29.75
797.915	30.63
798.218	30.51
798.522	27.9
798.825	28.31
799.128	30.48
799.432	29.62
799.735	31.37
800.038	30.12
800.341	33.32
800.644	33.49
800.947	34.8
801.25	31.26
801.553	28.68
801.856	31.77
802.159	33.33
802.462	27.56
802.764	33.39
803.067	29.44
803.37	33.52
803.672	30.26
803.975	31.41
804.277	31.21
804.579	31.29
804.882	29.38
805.184	33.17
805.486	29.21
805.788	27.08
806.09	27.58
806.392	31.73
806.694	30.9
806.996	31.29
807.298	34.83
807.6	32.46
807.902	29.77
808.203	30.56
808.505	32.48
808.807	29.26
809.108	36.91
809.409	35.18
809.711	32.29
810.012	36.24
810.313	35.82
810.615	28.04
810.916	35.41
811.217	30.87
811.518	35.2
811.819	30.17
812.12	30.81
812.421	35.31
812.722	34.64
813.023	31.42
813.323	29.87
813.624	32.74
813.925	29.78
814.225	32.98
814.526	38.44
814.826	35.06
815.126	32.4
815.427	26.8
815.727	33.2
816.027	37.59
816.327	26.35
816.627	30.64
816.927	33.09
817.227	42.19
817.527	31.23
817.827	36.85
818.127	30.77
818.427	37.69
818.727	35.84
819.026	32.76
819.326	34.46
819.625	39.79
819.925	31.33
820.224	43.82
820.524	34.5
820.823	29.39
821.122	35.3
821.421	38.91
821.72	29.05
822.019	28.77
822.318	33.6
822.617	35.36
822.916	34.04
823.215	31.88
823.514	33.92
823.813	32
824.111	35.64
824.41	32.21
824.709	34.73
825.007	34.37
825.306	34.25
825.604	35.15
825.902	33.45
826.201	34.48
826.499	34.75
826.797	33.95
827.095	33.61
827.393	33.62
827.691	34.49
827.989	33.93
828.287	35.04
828.585	37.08
828.882	35.39
829.18	35.9
829.478	36.7
829.775	34.21
830.073	35.36
830.37	33.86
830.668	36.73
830.965	35.78
831.263	34.65
831.56	37.09
831.857	38.36
832.154	36.36
832.451	35.92
832.748	33.38
833.045	30.66
833.342	38.14
833.639	34.82
833.936	33.71
834.232	35.63
834.529	36.21
834.826	39.47
835.122	30.43
835.419	33.86
835.715	29.35
836.012	35.14
836.308	36.77
836.604	34.35
836.901	37.08
837.197	36.52
837.493	35.72
837.789	34.31
838.085	36.46
838.381	34.31
838.677	34.36
838.972	34.88
839.268	35.57
839.564	41.63
839.86	36.65
840.155	35.96
840.451	37.54
840.746	38.43
841.042	33.54
841.337	32.49
841.632	32.13
841.928	35.46
842.223	37.71
842.518	35.04
842.813	35.68
843.108	32.08
843.403	36.1
843.698	34.21
843.993	39.97
844.287	38
844.582	42.45
844.877	36.15
845.171	39.36
845.466	32.67
845.761	43.11
846.055	23.72
846.349	44.44
846.644	34.28
846.938	36.69
847.232	42.44
847.526	47.26
847.82	37.34
848.114	28.26
848.408	27.27
848.702	28.36
848.996	24.09
849.29	31.52
849.584	13.19
849.877	33.82
850.171	42.67
850.465	32.49
850.758	38.21
851.052	36.42
851.345	10.79
851.638	29.74
851.932	43.93
852.225	35.99
852.518	41.11
852.811	28.92
853.104	30.49
853.397	49.42
853.69	37.04
853.983	44.05
854.276	35.5
854.569	40.3
854.861	37.61
855.154	61.38
855.447	28.27
855.739	41.54
856.032	45.12
856.324	43.64
856.616	35.79
856.909	13.81
857.201	43.16
857.493	58
857.785	45.21
858.077	22.91
858.369	13.59
858.661	19.9
858.953	40.89
859.245	24.64
859.537	31.98
859.829	38.88
860.12	45.16
860.412	17.33
860.703	36.18
860.995	24.14
861.286	44.51
861.578	38.51
861.869	28.32
862.16	20.92
862.452	19.42
862.743	38.91
863.034	28.38
863.325	45.2
863.616	55.19
863.907	27.68
864.198	21.87
864.488	40.57
864.779	28.27
865.07	22.61
865.36	40.81
865.651	30.45
865.941	45.77
866.232	52.52
866.522	39.01
866.813	59.69
867.103	33.43
867.393	46.06
867.683	47.45
867.973	22.17
868.263	34.71
868.553	36.92
868.843	31.3
869.133	48.03
869.423	59.36
869.713	11.76
870.002	30.11
870.292	33.59
870.582	38.34
870.871	42.42
871.161	59.25
871.45	57.52
871.739	22.97
872.029	61.36
872.318	65.93
872.607	27.96
872.896	55.51
873.185	56.36
873.474	45.24
873.763	29.92
874.052	44.07
874.341	58.74
874.63	40.23
874.918	31.13
875.207	45.84
875.496	23.31
875.784	45.79
876.073	22.56
876.361	50.93
876.649	35.72
876.938	43.68
877.226	40.13
877.514	51.88
877.802	53.04
878.09	25.3
878.378	47.08
878.666	31.69
878.954	33.86
879.242	30.94
879.53	27.06
879.817	18.98
880.105	19.75
880.392	17.63
880.68	33.86
880.967	23.37
881.255	34.69
881.542	37.04
881.83	40.83
882.117	53.87
882.404	38.58
882.691	8.24
882.978	50.15
883.265	34.44
883.552	35.8
883.839	32.55
884.126	30.26
884.413	30.36
884.699	38.04
884.986	39.57
885.273	35.82
885.559	35.82
885.846	35.82
