Data from 0036_forehead_Reflection__3__13.txt Node

Date: Fri Nov 04 14:43:56 CDT 2022
User: ToomeyLab
Spectrometer: FLMS14357
Trigger mode: 0
Integration Time (sec): 1.000000E-2
Scans to average: 100
Electric dark correction enabled: true
Nonlinearity correction enabled: false
Boxcar width: 0
XAxis mode: Wavelengths
Number of Pixels in Spectrum: 2048
>>>>>Begin Spectral Data<<<<<
189.047	140.06
189.435	140.06
189.823	140.06
190.211	70.44
190.599	240.92
190.987	-124.45
191.375	-120.1
191.763	825.21
192.151	107.82
192.538	-1150.89
192.926	422.95
193.314	36.1
193.702	1755.06
194.089	274.08
194.477	136.38
194.864	125.37
195.252	69.55
195.639	248.42
196.027	13.63
196.414	-205.2
196.801	85.11
197.189	-49.6
197.576	-89.94
197.963	-19.97
198.351	12.38
198.738	-0.46
199.125	-12.84
199.512	14.24
199.899	3.22
200.286	40.47
200.673	15.08
201.06	36.3
201.447	13.97
201.833	29.61
202.22	22.58
202.607	7.27
202.994	10.61
203.38	28.42
203.767	5.33
204.154	20.89
204.54	38.85
204.927	50.06
205.313	18.47
205.699	16.36
206.086	33.51
206.472	57.42
206.858	46.6
207.245	33.93
207.631	15.32
208.017	28.89
208.403	20.4
208.789	25.24
209.175	18.36
209.561	15.27
209.947	28.35
210.333	46.5
210.719	20.07
211.105	10.38
211.491	24.71
211.876	40.03
212.262	17.09
212.648	23.33
213.034	6.89
213.419	12.6
213.805	17.12
214.19	7.56
214.576	11.21
214.961	24.69
215.346	6.7
215.732	-0.93
216.117	11.54
216.502	32.76
216.888	16.72
217.273	27.23
217.658	20.43
218.043	-2.77
218.428	24.4
218.813	3.66
219.198	-12.91
219.583	16.03
219.968	-24.59
220.353	6.17
220.738	20.55
221.122	16.77
221.507	8.33
221.892	-1.05
222.276	-10.4
222.661	19.79
223.046	-1.11
223.43	-1.12
223.815	5.46
224.199	9.84
224.583	1.66
224.968	3.66
225.352	1.06
225.736	-0.47
226.121	8.19
226.505	7.13
226.889	5.53
227.273	-1.97
227.657	2.53
228.041	5.67
228.425	6.35
228.809	3.76
229.193	1.95
229.577	2.33
229.961	3.38
230.344	0.94
230.728	2.38
231.112	3.53
231.495	3.09
231.879	3.7
232.263	2.94
232.646	3.41
233.03	3.42
233.413	3.85
233.797	4.38
234.18	4.13
234.563	5.71
234.946	2.62
235.33	3.97
235.713	3.92
236.096	2.91
236.479	3.33
236.862	3.04
237.245	4.56
237.628	2.63
238.011	4.5
238.394	3.12
238.777	2.29
239.16	3.77
239.543	4.23
239.925	2.72
240.308	2.93
240.691	2.63
241.073	3.24
241.456	3.87
241.838	2.65
242.221	2.62
242.603	3.04
242.986	4.48
243.368	2.99
243.75	3.3
244.133	3.08
244.515	3.33
244.897	3.05
245.279	3.7
245.661	2.9
246.043	3.79
246.425	3
246.807	3.63
247.189	3.97
247.571	3.15
247.953	3.17
248.335	3.13
248.717	3.2
249.098	3.32
249.48	3.19
249.862	3.3
250.243	3.64
250.625	3.24
251.006	3.31
251.388	3.53
251.769	3.89
252.151	3.4
252.532	4.16
252.913	3.23
253.295	3.99
253.676	3.29
254.057	3.34
254.438	3.86
254.819	3.58
255.2	3.5
255.581	4.18
255.962	3.04
256.343	2.69
256.724	2.41
257.105	4.97
257.486	3.94
257.867	3.46
258.247	4
258.628	3.23
259.009	3.39
259.389	3.03
259.77	3.52
260.15	3.88
260.531	3.75
260.911	3.16
261.292	2.94
261.672	3.16
262.052	3.09
262.432	3.18
262.813	3.58
263.193	3.34
263.573	3.57
263.953	3.89
264.333	3.11
264.713	3.22
265.093	3.1
265.473	3.38
265.853	3.78
266.233	3.45
266.612	3.53
266.992	4.11
267.372	3.43
267.752	3.68
268.131	2.83
268.511	2.85
268.89	3.33
269.27	3.23
269.649	3.37
270.029	3.51
270.408	3.83
270.787	3.46
271.167	3.3
271.546	3.25
271.925	3.45
272.304	3.17
272.683	3.27
273.062	3.2
273.441	3.01
273.82	3.3
274.199	3.26
274.578	3.09
274.957	3.17
275.336	3.05
275.715	3.48
276.093	3.22
276.472	3.39
276.851	2.91
277.229	3.08
277.608	3.16
277.986	3.3
278.365	3.29
278.743	3.31
279.122	2.74
279.5	2.49
279.878	3.45
280.257	3.33
280.635	3.11
281.013	2.68
281.391	3.51
281.769	2.7
282.147	3.23
282.525	3.82
282.903	3.47
283.281	3.14
283.659	3.75
284.037	3.32
284.415	3.07
284.792	3.65
285.17	3
285.548	3.42
285.925	3.2
286.303	3.28
286.68	3.27
287.058	3.11
287.435	3.12
287.813	3.24
288.19	3.51
288.567	3.63
288.945	3.43
289.322	3.49
289.699	3.5
290.076	3.77
290.453	4.2
290.83	3.48
291.207	3.29
291.584	3.35
291.961	3.54
292.338	3.59
292.715	3.71
293.092	3.2
293.469	3.78
293.845	4.02
294.222	3.73
294.599	4
294.975	3.44
295.352	3.61
295.728	4.04
296.105	4.19
296.481	3.85
296.858	4.08
297.234	4.6
297.61	4.38
297.986	3.99
298.363	4.17
298.739	3.93
299.115	4.13
299.491	4.4
299.867	4.34
300.243	4.32
300.619	4.21
300.995	4.4
301.371	4.48
301.746	4.07
302.122	4.33
302.498	4.41
302.874	4.43
303.249	4.23
303.625	4.61
304	5.02
304.376	4.86
304.751	5.02
305.127	4.94
305.502	4.69
305.878	4.71
306.253	4.73
306.628	5.31
307.003	5.02
307.378	5.1
307.754	5.01
308.129	5.1
308.504	4.82
308.879	5.08
309.254	5.88
309.629	5.84
310.003	6.06
310.378	5.81
310.753	5.68
311.128	4.9
311.502	5.76
311.877	5.56
312.252	5.28
312.626	5.25
313.001	5.7
313.375	5.54
313.75	5.83
314.124	5.83
314.498	5.72
314.873	6.24
315.247	6.21
315.621	5.88
315.995	5.78
316.369	6.22
316.743	6.22
317.117	6.11
317.491	5.99
317.865	6.59
318.239	6.1
318.613	6.82
318.987	6.27
319.361	6.29
319.734	5.94
320.108	7.26
320.482	6.47
320.855	6.81
321.229	7.21
321.602	6.74
321.976	7.14
322.349	7.08
322.723	6.49
323.096	6.54
323.469	7.34
323.843	7.1
324.216	6.94
324.589	7.05
324.962	7.66
325.335	6.92
325.708	7.21
326.081	7.16
326.454	7.64
326.827	7.42
327.2	7.15
327.573	7.72
327.945	7.57
328.318	7.5
328.691	7.44
329.063	7.72
329.436	7.36
329.809	7.49
330.181	7.77
330.553	7.58
330.926	8.09
331.298	7.94
331.671	8.56
332.043	7.94
332.415	7.75
332.787	7.81
333.159	8.36
333.532	7.7
333.904	7.91
334.276	7.92
334.648	8.37
335.02	8.63
335.391	8.64
335.763	8.41
336.135	8.51
336.507	8.47
336.879	8.17
337.25	8.73
337.622	8.88
337.993	8.33
338.365	8.6
338.736	9.03
339.108	8.91
339.479	8.46
339.851	8.67
340.222	8.75
340.593	8.97
340.964	8.85
341.336	8.85
341.707	8.85
342.078	8.69
342.449	9.3
342.82	8.44
343.191	8.94
343.562	9.6
343.933	9.22
344.303	8.97
344.674	8.69
345.045	8.93
345.416	9.81
345.786	9.37
346.157	9.34
346.527	9.26
346.898	9.39
347.268	9.45
347.639	9.85
348.009	9.7
348.38	9.04
348.75	9.45
349.12	9.36
349.49	9.32
349.861	9.77
350.231	9.65
350.601	9.47
350.971	9.77
351.341	9.96
351.711	9.84
352.081	9.91
352.45	10.13
352.82	9.98
353.19	9.84
353.56	10.02
353.929	9.81
354.299	9.85
354.669	9.85
355.038	10.26
355.408	10.2
355.777	10.01
356.147	10.29
356.516	10.34
356.885	10.63
357.254	10.36
357.624	10.52
357.993	10.39
358.362	10.42
358.731	10.62
359.1	10.2
359.469	10.6
359.838	10.51
360.207	10.43
360.576	10.62
360.945	10.28
361.314	10.7
361.682	10.87
362.051	10.32
362.42	10.73
362.788	10.74
363.157	10.63
363.525	10.68
363.894	10.67
364.262	10.89
364.631	11.01
364.999	11.03
365.367	10.98
365.735	11.07
366.104	11.13
366.472	10.92
366.84	11.04
367.208	11.13
367.576	11.42
367.944	11.25
368.312	11.12
368.68	11.41
369.048	11.32
369.416	11.3
369.783	11.57
370.151	11.65
370.519	11.85
370.886	11.54
371.254	11.29
371.621	11.53
371.989	11.51
372.356	11.61
372.724	11.79
373.091	11.5
373.458	11.86
373.826	11.51
374.193	11.88
374.56	12.04
374.927	12.05
375.294	11.99
375.661	11.82
376.028	11.88
376.395	11.91
376.762	12.22
377.129	12.07
377.496	11.79
377.863	12.54
378.229	12.35
378.596	11.98
378.963	12.18
379.329	12.13
379.696	12.27
380.062	12.14
380.429	12.42
380.795	12.71
381.161	12.63
381.528	12.71
381.894	12.78
382.26	12.35
382.626	12.53
382.993	12.65
383.359	12.94
383.725	12.87
384.091	12.87
384.457	13
384.823	12.75
385.188	12.58
385.554	12.85
385.92	12.73
386.286	12.99
386.651	13.29
387.017	12.92
387.383	13.16
387.748	12.88
388.114	13.21
388.479	13.08
388.845	13
389.21	13.23
389.575	13.09
389.94	13.47
390.306	13.64
390.671	13.26
391.036	13.4
391.401	13.53
391.766	13.41
392.131	13.37
392.496	13.4
392.861	13.5
393.226	13.49
393.591	13.63
393.956	13.45
394.32	13.74
394.685	13.78
395.05	13.63
395.414	13.85
395.779	13.63
396.143	13.93
396.508	13.56
396.872	13.75
397.236	13.74
397.601	13.97
397.965	14.32
398.329	14.08
398.694	14.16
399.058	14.27
399.422	14.19
399.786	14.46
400.15	14.34
400.514	14.34
400.878	14.11
401.242	14.35
401.605	14.14
401.969	14.1
402.333	14.58
402.697	14.36
403.06	14.51
403.424	14.36
403.787	14.67
404.151	14.38
404.514	14.61
404.878	14.7
405.241	14.69
405.604	14.55
405.968	14.49
406.331	14.61
406.694	14.52
407.057	14.67
407.42	14.83
407.783	14.85
408.146	14.94
408.509	14.94
408.872	15.11
409.235	15.22
409.598	15.15
409.961	15.27
410.323	15.22
410.686	15.13
411.049	15.2
411.411	15.12
411.774	15.3
412.136	15.04
412.499	15.2
412.861	15.25
413.223	15.33
413.586	15.59
413.948	15.65
414.31	15.53
414.672	15.71
415.035	15.55
415.397	15.76
415.759	15.78
416.121	15.53
416.483	15.56
416.845	15.67
417.206	15.65
417.568	15.57
417.93	15.65
418.292	15.68
418.653	15.66
419.015	15.94
419.377	15.48
419.738	15.44
420.1	15.46
420.461	15.47
420.822	15.6
421.184	15.71
421.545	15.73
421.906	15.69
422.267	15.51
422.629	15.52
422.99	15.52
423.351	15.56
423.712	15.7
424.073	15.89
424.434	15.92
424.795	15.89
425.155	15.97
425.516	15.91
425.877	15.85
426.238	15.71
426.598	15.95
426.959	16.05
427.32	16.12
427.68	16.35
428.041	16.49
428.401	16.66
428.761	16.81
429.122	16.66
429.482	16.8
429.842	16.95
430.202	17
430.563	17.21
430.923	17.02
431.283	17
431.643	16.96
432.003	17.07
432.363	16.96
432.722	16.95
433.082	17.14
433.442	16.94
433.802	16.93
434.161	17.01
434.521	16.76
434.881	16.85
435.24	16.75
435.6	16.84
435.959	16.94
436.319	17.2
436.678	17.08
437.037	17.32
437.396	17.54
437.756	17.64
438.115	17.6
438.474	17.48
438.833	17.34
439.192	17.54
439.551	17.42
439.91	17.37
440.269	17.68
440.628	17.32
440.987	17.41
441.345	17.24
441.704	17.33
442.063	17.32
442.421	17.38
442.78	17.35
443.138	17.45
443.497	17.59
443.855	17.87
444.214	17.97
444.572	17.99
444.93	17.98
445.288	18.01
445.647	17.88
446.005	18
446.363	17.85
446.721	17.71
447.079	17.68
447.437	17.54
447.795	17.44
448.153	17.42
448.51	17.42
448.868	17.63
449.226	17.69
449.584	17.93
449.941	18.11
450.299	18.23
450.656	18.33
451.014	18.28
451.371	18.52
451.729	18.57
452.086	18.75
452.443	18.66
452.801	18.78
453.158	18.86
453.515	18.78
453.872	18.5
454.229	18.52
454.586	18.63
454.943	18.77
455.3	18.9
455.657	18.68
456.014	18.84
456.371	18.74
456.727	18.86
457.084	18.78
457.441	18.99
457.797	19.09
458.154	19.06
458.51	19.16
458.867	19.22
459.223	19.36
459.58	19.19
459.936	19.19
460.292	19.19
460.648	19.04
461.005	18.86
461.361	18.75
461.717	18.67
462.073	18.76
462.429	18.96
462.785	19.23
463.141	19.28
463.496	19.58
463.852	19.61
464.208	19.58
464.564	19.64
464.919	19.7
465.275	19.8
465.631	19.89
465.986	19.75
466.342	19.96
466.697	19.78
467.052	19.93
467.408	20.02
467.763	19.9
468.118	20
468.473	20
468.829	19.94
469.184	19.77
469.539	19.91
469.894	20.12
470.249	20.15
470.603	20.13
470.958	20.07
471.313	20.14
471.668	20.37
472.023	20.2
472.377	20.39
472.732	20.33
473.086	20.33
473.441	20.37
473.795	20.46
474.15	20.39
474.504	20.42
474.859	20.35
475.213	20.38
475.567	20.49
475.921	20.58
476.275	20.73
476.63	20.69
476.984	20.81
477.338	20.98
477.692	20.92
478.045	20.64
478.399	20.67
478.753	20.76
479.107	20.72
479.461	20.83
479.814	20.9
480.168	20.79
480.521	20.74
480.875	20.9
481.228	20.93
481.582	21.25
481.935	21.03
482.289	20.97
482.642	20.95
482.995	20.86
483.348	20.9
483.701	20.85
484.055	20.94
484.408	20.86
484.761	20.45
485.114	20.22
485.466	19.88
485.819	19.8
486.172	20.08
486.525	20.32
486.878	20.66
487.23	20.92
487.583	21.04
487.936	21.06
488.288	21
488.641	20.76
488.993	20.6
489.345	20.52
489.698	20.63
490.05	20.7
490.402	20.8
490.754	21.12
491.107	21.38
491.459	21.59
491.811	21.85
492.163	21.78
492.515	21.68
492.866	21.51
493.218	20.92
493.57	20.87
493.922	21.09
494.274	21.34
494.625	21.57
494.977	21.88
495.328	22.11
495.68	22.31
496.031	22.5
496.383	22.43
496.734	22.57
497.086	22.56
497.437	22.66
497.788	22.44
498.139	22.49
498.49	22.22
498.842	22.27
499.193	22.31
499.544	22.45
499.894	22.44
500.245	22.46
500.596	22.58
500.947	22.64
501.298	22.77
501.648	22.98
501.999	22.89
502.35	22.98
502.7	22.99
503.051	23.07
503.401	23.14
503.752	23.18
504.102	23.1
504.452	23.18
504.803	23.14
505.153	23.21
505.503	23.16
505.853	23.13
506.203	23.18
506.553	23.14
506.903	23.27
507.253	23.28
507.603	23.43
507.953	23.41
508.303	23.6
508.652	23.51
509.002	23.44
509.352	23.42
509.701	23.3
510.051	23.3
510.4	23.01
510.75	23.34
511.099	23.24
511.449	23.29
511.798	23.36
512.147	23.64
512.496	23.76
512.846	23.87
513.195	23.69
513.544	23.78
513.893	23.78
514.242	23.86
514.591	23.89
514.939	23.99
515.288	23.95
515.637	24.12
515.986	24.22
516.334	24.43
516.683	24.36
517.032	24.44
517.38	24.47
517.729	24.31
518.077	24.57
518.426	24.73
518.774	24.36
519.122	24.23
519.47	24.29
519.819	24.11
520.167	24.06
520.515	23.92
520.863	24.1
521.211	24.3
521.559	24.33
521.907	24.51
522.255	24.53
522.602	24.63
522.95	24.84
523.298	24.95
523.645	25.04
523.993	25.01
524.341	25.03
524.688	25.15
525.036	25.24
525.383	25.39
525.73	25.14
526.078	25.22
526.425	25.27
526.772	24.93
527.119	24.8
527.466	24.69
527.814	24.59
528.161	24.88
528.508	25.06
528.854	25.19
529.201	25.17
529.548	25.07
529.895	24.59
530.242	24.02
530.588	24.18
530.935	24.43
531.282	24.69
531.628	24.85
531.975	24.98
532.321	25.18
532.667	25.32
533.014	25.63
533.36	25.43
533.706	25.55
534.052	25.57
534.399	25.31
534.745	25.07
535.091	24.92
535.437	24.97
535.783	25.28
536.129	25.56
536.474	25.76
536.82	25.92
537.166	26.19
537.512	26.33
537.857	26.1
538.203	25.98
538.549	25.6
538.894	25.8
539.239	25.92
539.585	26.23
539.93	26.35
540.276	26.59
540.621	26.79
540.966	26.76
541.311	26.92
541.656	26.75
542.001	26.72
542.346	26.56
542.691	25.95
543.036	25.6
543.381	25.54
543.726	25.77
544.071	25.99
544.415	26.34
544.76	26.44
545.105	26.46
545.449	26.64
545.794	26.92
546.138	26.96
546.483	27.02
546.827	27.2
547.171	26.92
547.516	27.02
547.86	27.04
548.204	26.96
548.548	26.69
548.892	26.91
549.236	27.29
549.58	27.29
549.924	27.55
550.268	27.67
550.612	27.76
550.956	27.94
551.3	27.92
551.643	28.01
551.987	28.31
552.33	28.06
552.674	28.07
553.017	28.13
553.361	28.15
553.704	28.11
554.048	28.14
554.391	27.73
554.734	27.74
555.077	27.91
555.42	28.22
555.764	28.34
556.107	28.21
556.45	28.41
556.793	28.4
557.135	28.56
557.478	28.68
557.821	28.52
558.164	28.32
558.507	28.63
558.849	28.54
559.192	28.72
559.534	28.9
559.877	28.82
560.219	28.78
560.562	28.89
560.904	28.92
561.246	29.09
561.589	29.1
561.931	29.1
562.273	28.96
562.615	29.15
562.957	29.17
563.299	28.82
563.641	29.18
563.983	29.03
564.325	29.19
564.667	29.25
565.008	29.32
565.35	29.59
565.692	29.31
566.033	29.45
566.375	29.17
566.716	29.5
567.058	29.26
567.399	29.23
567.741	29.2
568.082	29.18
568.423	29.26
568.764	29.32
569.105	29.57
569.447	29.66
569.788	29.78
570.129	29.69
570.47	29.84
570.811	29.8
571.151	29.8
571.492	30.08
571.833	30.02
572.174	29.82
572.514	30.06
572.855	29.76
573.195	29.94
573.536	29.87
573.876	29.87
574.217	29.9
574.557	30.21
574.898	30.04
575.238	30.43
575.578	30.48
575.918	30.3
576.258	30.34
576.598	30.31
576.938	30.18
577.278	30.23
577.618	30.29
577.958	30.52
578.298	30.55
578.638	30.77
578.977	30.69
579.317	30.92
579.657	31.2
579.996	30.88
580.336	31.07
580.675	31.02
581.014	30.94
581.354	31.06
581.693	31.11
582.032	31.3
582.372	31.23
582.711	31.23
583.05	31.25
583.389	31.24
583.728	31.06
584.067	31.24
584.406	31.33
584.745	31.27
585.083	31.5
585.422	31.4
585.761	31.5
586.1	31.55
586.438	31.68
586.777	31.65
587.115	31.4
587.454	31.74
587.792	31.52
588.13	32.05
588.469	31.65
588.807	31.93
589.145	31.68
589.483	31.93
589.821	32.1
590.159	31.93
590.497	31.86
590.835	31.79
591.173	32.06
591.511	31.72
591.849	31.99
592.187	31.85
592.524	31.96
592.862	31.71
593.2	31.91
593.537	32.17
593.875	32.25
594.212	32.23
594.55	32.26
594.887	32.4
595.224	32.33
595.561	32.44
595.899	32.07
596.236	32.22
596.573	32.64
596.91	32.62
597.247	32.44
597.584	32.49
597.921	32.23
598.258	32.55
598.594	32.15
598.931	32.04
599.268	32.35
599.604	32.7
599.941	32.63
600.277	32.72
600.614	32.79
600.95	33.07
601.287	33.05
601.623	33.2
601.959	33.14
602.296	33.36
602.632	33.22
602.968	33.26
603.304	33.48
603.64	33.41
603.976	33.48
604.312	33.55
604.648	33.27
604.984	32.96
605.319	32.93
605.655	33.05
605.991	33.29
606.326	32.73
606.662	32.79
606.998	32.97
607.333	33.5
607.668	33.55
608.004	33.63
608.339	33.8
608.674	33.71
609.01	34.05
609.345	34.09
609.68	34.06
610.015	34.02
610.35	34.08
610.685	33.73
611.02	33.67
611.355	33.44
611.689	33.4
612.024	33.51
612.359	33.83
612.694	33.44
613.028	34.01
613.363	34.15
613.697	34.34
614.032	34.42
614.366	34.68
614.7	34.18
615.035	34.45
615.369	34.49
615.703	34.45
616.037	34.65
616.371	34.89
616.705	34.58
617.039	34.68
617.373	34.49
617.707	35.06
618.041	34.69
618.375	34.83
618.709	35.09
619.042	34.64
619.376	34.81
619.71	34.57
620.043	34.92
620.377	35.4
620.71	34.67
621.043	34.56
621.377	34.75
621.71	34.93
622.043	35.07
622.376	35.19
622.709	35.17
623.043	35.37
623.376	35.04
623.709	35.57
624.041	35.45
624.374	35.14
624.707	35.19
625.04	35.75
625.373	35.22
625.705	35.52
626.038	35.68
626.37	35.58
626.703	35.46
627.035	35.65
627.368	35.33
627.7	35.46
628.032	35.44
628.365	35.3
628.697	35.27
629.029	35.49
629.361	35.4
629.693	35.35
630.025	35.55
630.357	35.49
630.689	35.85
631.021	36.08
631.353	35.86
631.684	36.2
632.016	35.81
632.348	36.16
632.679	36.18
633.011	35.8
633.342	36.68
633.674	36.4
634.005	36.35
634.336	36.44
634.668	36.55
634.999	36.26
635.33	36.57
635.661	35.74
635.992	36.25
636.323	36.45
636.654	36.61
636.985	36.84
637.316	36.16
637.647	36.18
637.977	36.58
638.308	36.58
638.639	36.79
638.969	36.77
639.3	36.69
639.63	36.64
639.961	36.38
640.291	36.74
640.622	37.04
640.952	37.39
641.282	36.73
641.612	37
641.943	37
642.273	36.67
642.603	36.42
642.933	36.98
643.263	36.96
643.592	37.58
643.922	37.31
644.252	36.9
644.582	37.19
644.911	37.24
645.241	37.3
645.571	37.19
645.9	37.41
646.23	37.09
646.559	37.6
646.888	37.22
647.218	37.36
647.547	37.63
647.876	37.53
648.205	36.78
648.534	37.06
648.863	37.49
649.192	37.29
649.521	37.55
649.85	37.62
650.179	37.69
650.508	37.67
650.837	37.32
651.165	37.55
651.494	36.93
651.822	37.88
652.151	38.09
652.479	37.73
652.808	37.43
653.136	37.43
653.465	37.91
653.793	38
654.121	37.83
654.449	37.39
654.777	37.83
655.105	38.11
655.433	38.01
655.761	37.85
656.089	38.14
656.417	38.02
656.745	38.3
657.073	38.26
657.4	38.05
657.728	38.31
658.056	38.5
658.383	38.37
658.711	38.43
659.038	37.93
659.365	38.1
659.693	39.5
660.02	38.56
660.347	38.23
660.674	38.33
661.001	37.75
661.329	38.1
661.656	38.4
661.982	38.25
662.309	38.28
662.636	38.93
662.963	38.87
663.29	38.43
663.616	38.74
663.943	38.74
664.27	38.87
664.596	39.16
664.923	38.74
665.249	38.93
665.576	38.8
665.902	38.52
666.228	38.84
666.554	39.17
666.881	39.22
667.207	39.06
667.533	38.77
667.859	39.11
668.185	38.9
668.511	38.96
668.837	39.08
669.162	40.37
669.488	39.91
669.814	39.34
670.139	39.73
670.465	38.96
670.791	38.71
671.116	39.17
671.442	38.75
671.767	39.26
672.092	39.56
672.418	39.42
672.743	39.88
673.068	39.35
673.393	39.22
673.718	38.67
674.043	39.99
674.368	39.02
674.693	39.5
675.018	39.77
675.343	39.05
675.667	38.7
675.992	40.21
676.317	39.6
676.641	39.71
676.966	38.83
677.29	39.19
677.615	39.9
677.939	40.06
678.264	39.48
678.588	39.99
678.912	39.48
679.236	39.88
679.56	40.25
679.885	39.73
680.209	39.8
680.532	39.87
680.856	40.31
681.18	39.92
681.504	39.82
681.828	39.56
682.152	39.34
682.475	39.83
682.799	40.31
683.122	40.19
683.446	40.36
683.769	41.04
684.093	40.01
684.416	39.8
684.739	40.39
685.062	40.03
685.386	39.64
685.709	40.92
686.032	39.57
686.355	40.22
686.678	40.61
687.001	40.3
687.324	40.38
687.646	40.85
687.969	40.73
688.292	40.34
688.614	40.64
688.937	40.62
689.26	39.55
689.582	40.43
689.904	40.14
690.227	40.41
690.549	40.04
690.871	40.41
691.194	40.52
691.516	41.11
691.838	41.06
692.16	40.86
692.482	40.43
692.804	40.84
693.126	40.9
693.448	40.01
693.769	40.51
694.091	40.01
694.413	41.25
694.735	40.52
695.056	40.84
695.378	41.48
695.699	41.57
696.021	40.66
696.342	40.97
696.663	41.22
696.984	41.77
697.306	41.16
697.627	41.51
697.948	40.52
698.269	42.12
698.59	41.81
698.911	41.53
699.232	41.24
699.553	41.06
699.873	40.65
700.194	41.26
700.515	40.77
700.835	41.5
701.156	41.05
701.477	41.19
701.797	41.85
702.117	42.09
702.438	41.93
702.758	41.58
703.078	42.26
703.398	42.45
703.719	41.87
704.039	42.2
704.359	41.38
704.679	42.27
704.999	42.14
705.319	41.86
705.638	40.77
705.958	41.86
706.278	42.21
706.597	42.82
706.917	42.39
707.237	42.42
707.556	41.63
707.876	42.74
708.195	42.15
708.514	41.98
708.834	42.7
709.153	42.33
709.472	41.87
709.791	42.14
710.11	41.66
710.429	42.01
710.748	41.69
711.067	40.86
711.386	41.42
711.705	42.5
712.023	41.68
712.342	42.64
712.661	42.18
712.979	42.61
713.298	42.51
713.616	42.14
713.935	42.23
714.253	42.4
714.572	41.7
714.89	42.32
715.208	42.21
715.526	42.25
715.844	42.61
716.162	41.9
716.48	42.39
716.798	41.59
717.116	42.96
717.434	42.27
717.752	41.91
718.069	42.75
718.387	42.65
718.705	42.85
719.022	43.13
719.34	42.27
719.657	42.91
719.975	42.95
720.292	43.13
720.609	43.44
720.927	42.69
721.244	43.43
721.561	43.58
721.878	42.7
722.195	43.24
722.512	43.83
722.829	42.68
723.146	42.76
723.463	42.84
723.779	42.43
724.096	43.08
724.413	41.57
724.729	42.76
725.046	43.07
725.362	42.46
725.679	43.69
725.995	43.81
726.311	42.31
726.628	43.67
726.944	43.45
727.26	43.06
727.576	42.65
727.892	43.13
728.208	43.35
728.524	43.87
728.84	43.74
729.156	42.6
729.472	43.18
729.787	43.35
730.103	42.45
730.419	42.7
730.734	43.75
731.05	43.18
731.365	42.79
731.681	44.11
731.996	43.78
732.311	43.31
732.626	43.15
732.942	42.99
733.257	43.6
733.572	42.36
733.887	42.8
734.202	44.17
734.517	42.79
734.832	43.4
735.146	43.07
735.461	43.93
735.776	44.37
736.091	43.86
736.405	43.28
736.72	44.27
737.034	44.35
737.349	45.05
737.663	43.6
737.977	44.18
738.292	44.22
738.606	43.89
738.92	44.25
739.234	42.52
739.548	43.51
739.862	44.56
740.176	45.23
740.49	42.97
740.804	43.76
741.117	43.15
741.431	43.46
741.745	43.82
742.058	42.42
742.372	42.92
742.685	43.13
742.999	44.98
743.312	45.11
743.626	44.67
743.939	43.51
744.252	43.8
744.565	44.04
744.878	45.2
745.191	45.47
745.505	44.91
745.817	43.91
746.13	43.78
746.443	44.79
746.756	43.99
747.069	44.94
747.381	45.01
747.694	44.07
748.007	46.08
748.319	45.15
748.632	46.09
748.944	44.19
749.256	46.15
749.569	46.25
749.881	45.88
750.193	45.64
750.505	43.86
750.817	44.77
751.129	46.12
751.441	43.75
751.753	43.63
752.065	46
752.377	46.16
752.689	45.32
753	42.46
753.312	42.85
753.624	44.12
753.935	45.13
754.247	47.37
754.558	46.14
754.869	44.49
755.181	45.23
755.492	45.32
755.803	45.9
756.114	44.57
756.425	45.13
756.736	47.06
757.047	45.54
757.358	45.63
757.669	44.46
757.98	44.7
758.291	43.58
758.601	45.1
758.912	43.95
759.223	44.92
759.533	43.59
759.844	45.58
760.154	46.15
760.464	45.53
760.775	44.46
761.085	43.68
761.395	45.09
761.705	44.8
762.016	43.95
762.326	44.89
762.636	45.59
762.945	44.67
763.255	45.05
763.565	45.12
763.875	45.01
764.185	46.96
764.494	45.91
764.804	45.3
765.113	44.94
765.423	43.84
765.732	45.06
766.042	44.54
766.351	45.18
766.66	44.87
766.97	45.48
767.279	43.99
767.588	45.81
767.897	46.05
768.206	44.18
768.515	44.36
768.824	45.18
769.133	45.26
769.441	46.69
769.75	46.47
770.059	45.09
770.367	45.92
770.676	47.5
770.984	46
771.293	44.76
771.601	46.29
771.91	44.47
772.218	43.51
772.526	46.11
772.834	44.09
773.142	45.5
773.45	47.05
773.758	48.37
774.066	46.63
774.374	44.51
774.682	43.34
774.99	46.66
775.298	47.41
775.605	45.11
775.913	47.82
776.22	45.35
776.528	44.49
776.835	48.81
777.143	45.88
777.45	48.32
777.757	47.38
778.065	46.62
778.372	46.56
778.679	44.04
778.986	49.4
779.293	50.22
779.6	45.06
779.907	45.77
780.214	45.31
780.52	44.32
780.827	47.96
781.134	47.87
781.44	47.4
781.747	44.65
782.053	47.11
782.36	44.94
782.666	47.35
782.973	48.61
783.279	45.98
783.585	46.48
783.891	47.51
784.197	47.51
784.503	42.97
784.809	45.28
785.115	49.44
785.421	46.59
785.727	47.11
786.033	46.65
786.339	47.17
786.644	50.26
786.95	46.32
787.255	49.04
787.561	50.49
787.866	50.21
788.172	50.2
788.477	44.56
788.782	49.56
789.088	47.96
789.393	47.98
789.698	44.22
790.003	49.48
790.308	48.51
790.613	45.94
790.918	46.33
791.223	46.32
791.527	47.58
791.832	46.2
792.137	45.47
792.441	47.9
792.746	47.36
793.05	43.52
793.355	49.37
793.659	47.57
793.963	45.55
794.268	50.28
794.572	45.38
794.876	45.28
795.18	46.64
795.484	47.08
795.788	46.15
796.092	46.17
796.396	49.33
796.7	47.47
797.004	47.82
797.307	46.42
797.611	48.19
797.915	48.08
798.218	46.69
798.522	44.36
798.825	46.08
799.128	48.96
799.432	45.56
799.735	46.8
800.038	48.6
800.341	50.23
800.644	48.08
800.947	48.35
801.25	47.89
801.553	44.46
801.856	44.14
802.159	45.36
802.462	41.15
802.764	44.38
803.067	41.15
803.37	46.6
803.672	47.79
803.975	44.33
804.277	43.22
804.579	45.07
804.882	41.83
805.184	49.22
805.486	48.66
805.788	45.22
806.09	45.65
806.392	52.52
806.694	46.6
806.996	45.4
807.298	50.12
807.6	48.1
807.902	50.4
808.203	47.96
808.505	48.66
808.807	46.58
809.108	46.07
809.409	48.45
809.711	50.19
810.012	50.19
810.313	48.68
810.615	42.74
810.916	48.77
811.217	46.27
811.518	45.43
811.819	48.04
812.12	45.87
812.421	46.93
812.722	45.57
813.023	46.14
813.323	45.72
813.624	48.46
813.925	50.25
814.225	47.12
814.526	49.13
814.826	50.29
815.126	49.96
815.427	45.43
815.727	47.26
816.027	49.49
816.327	43.88
816.627	46.55
816.927	41.18
817.227	55
817.527	47.38
817.827	49.36
818.127	41.13
818.427	52.8
818.727	53.24
819.026	50.22
819.326	47.02
819.625	50.56
819.925	49.16
820.224	50.95
820.524	46.13
820.823	44.22
821.122	52.37
821.421	51.38
821.72	48.24
822.019	43.57
822.318	54.22
822.617	45.42
822.916	44.65
823.215	47.01
823.514	47.6
823.813	49.35
824.111	48.23
824.41	46.83
824.709	45.52
825.007	46.12
825.306	46.54
825.604	47.58
825.902	46.8
826.201	47.99
826.499	48.21
826.797	48.85
827.095	47.78
827.393	47.67
827.691	48.82
827.989	49.05
828.287	49.04
828.585	50.04
828.882	50.78
829.18	47.75
829.478	48.71
829.775	49.33
830.073	47.71
830.37	46.47
830.668	48.41
830.965	48.88
831.263	50.24
831.56	50.81
831.857	51.98
832.154	50.59
832.451	51.43
832.748	49.27
833.045	50.32
833.342	50.9
833.639	49.78
833.936	46.5
834.232	46.65
834.529	44.53
834.826	46.96
835.122	50.18
835.419	46.32
835.715	43.6
836.012	44.08
836.308	47.33
836.604	47.84
836.901	46.95
837.197	47.34
837.493	50.76
837.789	48.38
838.085	50.63
838.381	50.3
838.677	45.56
838.972	48.72
839.268	47.22
839.564	52.99
839.86	53.16
840.155	47.39
840.451	47.75
840.746	46.28
841.042	45
841.337	51.15
841.632	56.71
841.928	45.83
842.223	44.42
842.518	55.17
842.813	50.17
843.108	46.78
843.403	54.82
843.698	52.58
843.993	41.25
844.287	49.78
844.582	55.22
844.877	53.24
845.171	48.86
845.466	44.41
845.761	43.61
846.055	52.24
846.349	49.03
846.644	41.72
846.938	32.77
847.232	59.63
847.526	53.11
847.82	49.98
848.114	44.09
848.408	52.04
848.702	44.25
848.996	51.3
849.29	50.61
849.584	43.94
849.877	45.2
850.171	47.6
850.465	23.42
850.758	41.95
851.052	47.32
851.345	64.88
851.638	50.15
851.932	59.68
852.225	54.21
852.518	49.57
852.811	46.47
853.104	51.28
853.397	58.64
853.69	36.61
853.983	42.69
854.276	46.41
854.569	62.57
854.861	56.38
855.154	59.7
855.447	38.38
855.739	59.35
856.032	62.94
856.324	50.84
856.616	38.61
856.909	36.95
857.201	50
857.493	72.96
857.785	44.89
858.077	30.61
858.369	41.65
858.661	30.36
858.953	42.74
859.245	37.07
859.537	36.09
859.829	51.98
860.12	52.76
860.412	59.16
860.703	42.27
860.995	47.32
861.286	42.07
861.578	43.65
861.869	49.2
862.16	45.35
862.452	13.17
862.743	56.52
863.034	39.28
863.325	50.61
863.616	46
863.907	33.17
864.198	42.38
864.488	66.66
864.779	59.7
865.07	54.89
865.36	47.36
865.651	43.24
865.941	45.57
866.232	59.95
866.522	72.16
866.813	44.74
867.103	37.86
867.393	50.87
867.683	38.91
867.973	39.29
868.263	49.34
868.553	43.12
868.843	60.36
869.133	41.42
869.423	54.8
869.713	41.12
870.002	42.05
870.292	57.51
870.582	43.24
870.871	64.94
871.161	39.17
871.45	51.33
871.739	22.45
872.029	62.89
872.318	81.44
872.607	39.06
872.896	41.47
873.185	57.17
873.474	31.68
873.763	73.55
874.052	70.5
874.341	66.73
874.63	60.66
874.918	47.8
875.207	50.68
875.496	49.17
875.784	48.43
876.073	48.21
876.361	50.62
876.649	53.68
876.938	48.04
877.226	65.17
877.514	62.45
877.802	44.87
878.09	46.76
878.378	42.77
878.666	51.62
878.954	58.99
879.242	35.66
879.53	26.4
879.817	23.94
880.105	27.91
880.392	54.86
880.68	74.62
880.967	49.12
881.255	36.19
881.542	51.73
881.83	61.74
882.117	44.76
882.404	32.45
882.691	38.83
882.978	40.71
883.265	53.16
883.552	47.99
883.839	50.19
884.126	46.05
884.413	53.21
884.699	50.99
884.986	47.52
885.273	44.5
885.559	44.5
885.846	44.5
