Data from 0385_forehead_Reflection__3__244.txt Node

Date: Tue Dec 12 20:25:21 CST 2023
User: ToomeyLab
Spectrometer: FLMS14357
Trigger mode: 0
Integration Time (sec): 1.000000E-2
Scans to average: 100
Electric dark correction enabled: true
Nonlinearity correction enabled: false
Boxcar width: 0
XAxis mode: Wavelengths
Number of Pixels in Spectrum: 2048
>>>>>Begin Spectral Data<<<<<
189.047	105.08
189.435	105.08
189.823	105.08
190.211	184.93
190.599	-35.02
190.987	152.66
191.375	-992.16
191.763	-79.5
192.151	48.33
192.538	-464.15
192.926	408.15
193.314	-64.17
193.702	99.8
194.089	-130.36
194.477	103.62
194.864	240.41
195.252	308.44
195.639	93.8
196.027	105.7
196.414	190.94
196.801	2815.57
197.189	132.3
197.576	333.42
197.963	140.09
198.351	51.23
198.738	50.21
199.125	-10.59
199.512	-37.74
199.899	-27.27
200.286	5.37
200.673	24.1
201.06	-33.88
201.447	-101.25
201.833	55.43
202.22	-9.54
202.607	-7297.14
202.994	23.54
203.38	47.87
203.767	-4.54
204.154	66.84
204.54	36.63
204.927	2.22
205.313	43.79
205.699	-37.12
206.086	-77.6
206.472	30.96
206.858	-3.41
207.245	19.49
207.631	29.06
208.017	-4.05
208.403	66.77
208.789	43.13
209.175	2.52
209.561	53.15
209.947	-19.01
210.333	50.59
210.719	34.85
211.105	17.85
211.491	52.61
211.876	26.75
212.262	1.93
212.648	-69.32
213.034	-6.62
213.419	31.92
213.805	-9.41
214.19	61.66
214.576	32.46
214.961	25.39
215.346	17.49
215.732	28.23
216.117	1.83
216.502	-24.2
216.888	32.39
217.273	19.05
217.658	-22.58
218.043	43.33
218.428	0.74
218.813	14.1
219.198	-32.99
219.583	1.12
219.968	28.16
220.353	11.17
220.738	5.37
221.122	6.36
221.507	-33.81
221.892	18.06
222.276	11.48
222.661	19.82
223.046	5.06
223.43	4.14
223.815	18.55
224.199	19.53
224.583	10.34
224.968	17.16
225.352	15.15
225.736	16.89
226.121	5.58
226.505	15.45
226.889	2.72
227.273	9.18
227.657	13.65
228.041	13.99
228.425	6.65
228.809	4.3
229.193	3.85
229.577	9.95
229.961	6.9
230.344	7.15
230.728	8.44
231.112	7.65
231.495	7.81
231.879	6.96
232.263	4.99
232.646	7.12
233.03	6.54
233.413	4.26
233.797	5.91
234.18	4.62
234.563	5.71
234.946	8.49
235.33	10.24
235.713	8.06
236.096	5.78
236.479	6.89
236.862	9.48
237.245	8.31
237.628	8.43
238.011	7.78
238.394	5.24
238.777	6.6
239.16	8.19
239.543	7.52
239.925	5.74
240.308	7.17
240.691	7
241.073	7.49
241.456	6.65
241.838	5.3
242.221	7.47
242.603	7.52
242.986	7.26
243.368	7.57
243.75	6.83
244.133	7.27
244.515	7.71
244.897	7.54
245.279	7.5
245.661	7.09
246.043	5.84
246.425	7.61
246.807	7.47
247.189	7.99
247.571	8.09
247.953	6.74
248.335	6.94
248.717	7.1
249.098	7.29
249.48	6.97
249.862	6.97
250.243	7.11
250.625	7.83
251.006	7.5
251.388	7.87
251.769	7.26
252.151	6.83
252.532	6.95
252.913	8.66
253.295	7.57
253.676	7.55
254.057	6.94
254.438	7.25
254.819	7.37
255.2	6.76
255.581	7.98
255.962	6.86
256.343	7.26
256.724	7.89
257.105	8.25
257.486	6.36
257.867	7.18
258.247	6.52
258.628	7.5
259.009	7.62
259.389	7.7
259.77	7.33
260.15	7.55
260.531	8.32
260.911	8.04
261.292	7.11
261.672	7.06
262.052	6.95
262.432	6.95
262.813	7.37
263.193	8.02
263.573	7.35
263.953	9.05
264.333	7.47
264.713	7.48
265.093	6.67
265.473	7.4
265.853	6.13
266.233	6.27
266.612	6.37
266.992	7.13
267.372	7.02
267.752	7.77
268.131	6.82
268.511	6.92
268.89	6.76
269.27	6.61
269.649	7.28
270.029	7.03
270.408	7.41
270.787	7.11
271.167	7.45
271.546	6.78
271.925	7.81
272.304	7.55
272.683	6.64
273.062	6.83
273.441	6.91
273.82	6.89
274.199	6.61
274.578	7.03
274.957	6.87
275.336	6.65
275.715	6.65
276.093	6.49
276.472	7.18
276.851	6.82
277.229	6.36
277.608	6.34
277.986	6.63
278.365	7.28
278.743	7.09
279.122	6.87
279.5	5.9
279.878	5.94
280.257	6.76
280.635	6.73
281.013	6.26
281.391	6.83
281.769	6.96
282.147	7.28
282.525	6.3
282.903	6.7
283.281	7
283.659	6.69
284.037	6.75
284.415	6.45
284.792	7.26
285.17	6.54
285.548	7.04
285.925	6.77
286.303	7.33
286.68	6.83
287.058	6.68
287.435	6.66
287.813	6.27
288.19	6.92
288.567	7.09
288.945	6.82
289.322	7.23
289.699	7.43
290.076	6.85
290.453	7
290.83	7.42
291.207	7.75
291.584	7.35
291.961	7.21
292.338	7.76
292.715	7
293.092	7.43
293.469	7.35
293.845	7.55
294.222	8.1
294.599	7.49
294.975	7.59
295.352	7.96
295.728	7.44
296.105	7.52
296.481	7.55
296.858	7.83
297.234	8.13
297.61	7.55
297.986	8.31
298.363	8.06
298.739	8.03
299.115	7.88
299.491	8
299.867	7.8
300.243	7.73
300.619	7.57
300.995	8.43
301.371	8.57
301.746	8.44
302.122	9.11
302.498	9.14
302.874	8.65
303.249	9.35
303.625	8.62
304	9.12
304.376	8.44
304.751	9.64
305.127	8.96
305.502	9.26
305.878	8.7
306.253	9.39
306.628	9.67
307.003	9.57
307.378	9.43
307.754	9.45
308.129	9.46
308.504	10.57
308.879	9.25
309.254	9.93
309.629	9.97
310.003	10.54
310.378	10.69
310.753	10.91
311.128	10.67
311.502	10.3
311.877	10.22
312.252	9.68
312.626	10.43
313.001	10.41
313.375	10.46
313.75	10.78
314.124	10.93
314.498	11.34
314.873	10.96
315.247	11.15
315.621	11.3
315.995	11.27
316.369	11.72
316.743	11.03
317.117	11.22
317.491	11.29
317.865	11.52
318.239	12.23
318.613	11.85
318.987	12.64
319.361	11.45
319.734	11.82
320.108	12
320.482	11.85
320.855	11.52
321.229	12.41
321.602	12.78
321.976	12.51
322.349	12.67
322.723	12.74
323.096	12.42
323.469	12.66
323.843	13.55
324.216	12.6
324.589	12.63
324.962	13.58
325.335	13.58
325.708	13.17
326.081	13.28
326.454	13.6
326.827	13.3
327.2	13.76
327.573	12.79
327.945	13.11
328.318	13.62
328.691	13.39
329.063	13.91
329.436	13.77
329.809	14.09
330.181	13.7
330.553	13.98
330.926	13.92
331.298	13.74
331.671	13.93
332.043	13.94
332.415	14.3
332.787	14.31
333.159	14.6
333.532	14.4
333.904	14.74
334.276	15.68
334.648	14.46
335.02	14.42
335.391	14.37
335.763	15
336.135	14.74
336.507	14.98
336.879	14.7
337.25	14.7
337.622	15.17
337.993	14.34
338.365	14.76
338.736	15.69
339.108	15.13
339.479	15.55
339.851	14.77
340.222	14.99
340.593	15.45
340.964	15.42
341.336	15.86
341.707	14.94
342.078	15.47
342.449	15.27
342.82	15.68
343.191	15.71
343.562	15.77
343.933	16.14
344.303	15.69
344.674	16.19
345.045	15.85
345.416	16.51
345.786	15.9
346.157	16.44
346.527	16.47
346.898	15.96
347.268	16.44
347.639	16.09
348.009	16.45
348.38	16.04
348.75	16.69
349.12	16.83
349.49	16.2
349.861	16.8
350.231	17.01
350.601	17.28
350.971	16.63
351.341	17.2
351.711	17.24
352.081	16.88
352.45	17.1
352.82	17.03
353.19	17.19
353.56	17.23
353.929	17.12
354.299	17.06
354.669	17.05
355.038	16.9
355.408	17.1
355.777	17.95
356.147	17.46
356.516	17.59
356.885	17.24
357.254	17.67
357.624	17.67
357.993	17.67
358.362	17.7
358.731	17.72
359.1	17.27
359.469	17.84
359.838	17.93
360.207	17.79
360.576	18.21
360.945	17.5
361.314	18.3
361.682	18.36
362.051	18.21
362.42	18.21
362.788	18.17
363.157	18.35
363.525	18.43
363.894	18.17
364.262	18.34
364.631	18.45
364.999	18.74
365.367	18.73
365.735	18.57
366.104	19.07
366.472	18.7
366.84	19.07
367.208	18.6
367.576	18.94
367.944	19.43
368.312	18.98
368.68	18.78
369.048	19.08
369.416	19.11
369.783	19.08
370.151	19.49
370.519	19.13
370.886	19.2
371.254	19.37
371.621	19.48
371.989	19.72
372.356	19.71
372.724	19.4
373.091	19.2
373.458	20.03
373.826	19.78
374.193	19.64
374.56	20.09
374.927	19.91
375.294	19.86
375.661	20.3
376.028	20.4
376.395	20.38
376.762	20.13
377.129	20.16
377.496	20.3
377.863	20.38
378.229	20.4
378.596	20.64
378.963	20.42
379.329	20.24
379.696	20.54
380.062	20.86
380.429	20.65
380.795	21.14
381.161	20.89
381.528	21.19
381.894	20.89
382.26	20.95
382.626	21.08
382.993	21.48
383.359	21.02
383.725	20.96
384.091	20.96
384.457	21.11
384.823	21.33
385.188	21.49
385.554	21.5
385.92	21.27
386.286	21.69
386.651	21.39
387.017	21.81
387.383	21.47
387.748	21.54
388.114	21.77
388.479	21.71
388.845	21.81
389.21	21.91
389.575	22.05
389.94	21.8
390.306	22.15
390.671	22.31
391.036	22.04
391.401	22.22
391.766	22.2
392.131	22.46
392.496	22.38
392.861	22.19
393.226	22.26
393.591	22.33
393.956	22.46
394.32	22.69
394.685	22.69
395.05	22.6
395.414	22.77
395.779	22.38
396.143	22.63
396.508	22.47
396.872	22.89
397.236	22.62
397.601	22.83
397.965	22.96
398.329	23.03
398.694	22.96
399.058	23.4
399.422	22.9
399.786	23.03
400.15	22.92
400.514	23.43
400.878	23.68
401.242	23.6
401.605	23.65
401.969	23.63
402.333	23.56
402.697	23.5
403.06	23.55
403.424	23.91
403.787	23.42
404.151	23.92
404.514	23.69
404.878	23.98
405.241	23.93
405.604	23.84
405.968	23.62
406.331	23.91
406.694	24.22
407.057	23.94
407.42	23.77
407.783	24.03
408.146	24.17
408.509	24.25
408.872	24.35
409.235	24.5
409.598	24.63
409.961	24.39
410.323	24.74
410.686	24.83
411.049	24.65
411.411	24.69
411.774	24.76
412.136	24.8
412.499	24.92
412.861	24.82
413.223	25.06
413.586	24.74
413.948	24.92
414.31	25.36
414.672	25.11
415.035	25.21
415.397	25.14
415.759	25.14
416.121	24.96
416.483	25.49
416.845	25.25
417.206	25.57
417.568	25.51
417.93	25.61
418.292	25.56
418.653	25.81
419.015	25.56
419.377	25.32
419.738	25.63
420.1	25.53
420.461	25.66
420.822	25.63
421.184	25.46
421.545	25.78
421.906	25.54
422.267	25.79
422.629	25.69
422.99	25.75
423.351	25.75
423.712	25.87
424.073	25.87
424.434	25.98
424.795	26.1
425.155	25.89
425.516	25.88
425.877	26.1
426.238	26.18
426.598	26.15
426.959	26.35
427.32	26.48
427.68	26.49
428.041	26.7
428.401	26.99
428.761	27
429.122	27.12
429.482	27.26
429.842	27.31
430.202	27.62
430.563	27.65
430.923	27.39
431.283	27.53
431.643	27.72
432.003	27.43
432.363	27.57
432.722	27.64
433.082	27.75
433.442	27.92
433.802	27.92
434.161	27.91
434.521	27.88
434.881	27.75
435.24	28.03
435.6	28.2
435.959	28.13
436.319	28.38
436.678	28.28
437.037	28.26
437.396	28.26
437.756	28.46
438.115	28.69
438.474	28.71
438.833	28.95
439.192	28.99
439.551	28.66
439.91	28.87
440.269	28.75
440.628	28.76
440.987	28.82
441.345	28.67
441.704	28.97
442.063	29.04
442.421	28.99
442.78	29.04
443.138	28.95
443.497	29.13
443.855	29.06
444.214	29.34
444.572	29.49
444.93	29.59
445.288	29.22
445.647	29.75
446.005	29.67
446.363	29.63
446.721	29.59
447.079	29.73
447.437	29.56
447.795	29.76
448.153	29.58
448.51	29.75
448.868	29.67
449.226	29.83
449.584	30.01
449.941	30
450.299	29.99
450.656	30.08
451.014	30.21
451.371	30.45
451.729	30.4
452.086	30.65
452.443	30.7
452.801	30.78
453.158	30.87
453.515	31.02
453.872	30.79
454.229	31.15
454.586	31.01
454.943	31
455.3	30.96
455.657	31.19
456.014	31.33
456.371	31.38
456.727	31.28
457.084	31.38
457.441	31.53
457.797	31.5
458.154	31.65
458.51	31.76
458.867	31.54
459.223	31.81
459.58	31.8
459.936	31.55
460.292	31.66
460.648	31.94
461.005	31.66
461.361	31.54
461.717	31.65
462.073	31.66
462.429	31.94
462.785	31.95
463.141	31.77
463.496	32.07
463.852	32.51
464.208	32.33
464.564	32.39
464.919	32.62
465.275	32.69
465.631	32.89
465.986	32.89
466.342	32.7
466.697	32.75
467.052	33.02
467.408	33.05
467.763	33.08
468.118	33.05
468.473	33.22
468.829	33.27
469.184	33.11
469.539	33.38
469.894	33.13
470.249	33.31
470.603	33.48
470.958	33.41
471.313	33.83
471.668	33.62
472.023	33.49
472.377	33.81
472.732	33.93
473.086	33.94
473.441	33.98
473.795	34.23
474.15	34.02
474.504	33.92
474.859	34.37
475.213	34.4
475.567	33.98
475.921	34.34
476.275	34.02
476.63	34.6
476.984	34.57
477.338	34.61
477.692	34.34
478.045	34.67
478.399	34.61
478.753	34.3
479.107	34.39
479.461	34.77
479.814	34.57
480.168	34.47
480.521	34.55
480.875	34.87
481.228	34.8
481.582	34.64
481.935	34.92
482.289	34.92
482.642	35.01
482.995	35.06
483.348	35.05
483.701	35.05
484.055	34.95
484.408	34.83
484.761	34.61
485.114	34.37
485.466	34.03
485.819	34.15
486.172	34.23
486.525	34.23
486.878	34.4
487.23	34.51
487.583	34.88
487.936	34.82
488.288	34.98
488.641	34.94
488.993	34.85
489.345	34.73
489.698	34.77
490.05	34.75
490.402	34.94
490.754	35.1
491.107	35.42
491.459	35.58
491.811	35.74
492.163	35.76
492.515	35.96
492.866	35.71
493.218	35.44
493.57	35.43
493.922	35.48
494.274	35.63
494.625	35.96
494.977	36.12
495.328	36.3
495.68	36.63
496.031	37.06
496.383	36.83
496.734	37
497.086	37.07
497.437	37.13
497.788	37.09
498.139	37.14
498.49	37.26
498.842	36.83
499.193	37.07
499.544	37.19
499.894	37.27
500.245	37.36
500.596	37.55
500.947	37.54
501.298	37.58
501.648	37.72
501.999	37.55
502.35	37.68
502.7	37.82
503.051	37.95
503.401	37.9
503.752	38.22
504.102	38.18
504.452	38.24
504.803	38.35
505.153	38.15
505.503	38.37
505.853	38.4
506.203	37.96
506.553	38.43
506.903	38.6
507.253	38.59
507.603	38.46
507.953	38.57
508.303	38.69
508.652	38.83
509.002	38.76
509.352	38.7
509.701	38.77
510.051	38.84
510.4	38.8
510.75	38.63
511.099	38.83
511.449	38.88
511.798	38.86
512.147	38.89
512.496	39.05
512.846	39.14
513.195	39.34
513.544	39.29
513.893	39.15
514.242	39.15
514.591	39.29
514.939	39.2
515.288	39.44
515.637	39.49
515.986	39.83
516.334	39.73
516.683	39.92
517.032	40.09
517.38	39.83
517.729	40.2
518.077	39.84
518.426	40.08
518.774	40.02
519.122	39.86
519.47	39.96
519.819	39.9
520.167	39.78
520.515	39.67
520.863	39.84
521.211	39.94
521.559	40.04
521.907	40.1
522.255	40.23
522.602	40.36
522.95	40.71
523.298	40.66
523.645	40.85
523.993	40.92
524.341	41.07
524.688	41.04
525.036	41.22
525.383	40.99
525.73	41.12
526.078	40.88
526.425	41.04
526.772	41.08
527.119	40.95
527.466	40.7
527.814	40.68
528.161	40.76
528.508	40.74
528.854	40.9
529.201	40.85
529.548	41.01
529.895	40.67
530.242	40.35
530.588	40.5
530.935	40.59
531.282	40.46
531.628	40.73
531.975	40.84
532.321	41.17
532.667	41.17
533.014	41.42
533.36	41.55
533.706	41.64
534.052	41.75
534.399	41.61
534.745	41.57
535.091	41.26
535.437	41.26
535.783	41.5
536.129	41.72
536.474	41.83
536.82	41.83
537.166	42.03
537.512	42.27
537.857	42.43
538.203	42.23
538.549	42.31
538.894	42.3
539.239	42.43
539.585	42.61
539.93	42.67
540.276	42.86
540.621	43.04
540.966	43.28
541.311	43.34
541.656	43.23
542.001	42.81
542.346	42.91
542.691	42.81
543.036	42.52
543.381	42.36
543.726	42.6
544.071	42.7
544.415	42.8
544.76	42.84
545.105	43.15
545.449	43.16
545.794	43.68
546.138	43.67
546.483	43.72
546.827	43.6
547.171	43.88
547.516	43.95
547.86	43.97
548.204	43.99
548.548	44.02
548.892	43.86
549.236	43.93
549.58	44.21
549.924	44.42
550.268	44.4
550.612	44.44
550.956	44.93
551.3	44.88
551.643	45.18
551.987	45.32
552.33	45.12
552.674	45.19
553.017	45.24
553.361	45.48
553.704	45.08
554.048	45.27
554.391	45.36
554.734	45.17
555.077	45.32
555.42	45.59
555.764	45.56
556.107	45.72
556.45	45.62
556.793	45.95
557.135	46.04
557.478	45.92
557.821	45.84
558.164	46.23
558.507	46.09
558.849	46.29
559.192	46.32
559.534	46.17
559.877	46.25
560.219	46.23
560.562	46.52
560.904	46.72
561.246	46.74
561.589	46.43
561.931	46.85
562.273	47.18
562.615	46.53
562.957	46.72
563.299	46.74
563.641	46.8
563.983	46.98
564.325	47.42
564.667	47.24
565.008	47.03
565.35	47.05
565.692	47.29
566.033	47.14
566.375	47.03
566.716	47.25
567.058	47.19
567.399	47.44
567.741	47.39
568.082	47.46
568.423	47.38
568.764	47.59
569.105	47.41
569.447	47.57
569.788	47.69
570.129	47.71
570.47	48.07
570.811	48.1
571.151	47.72
571.492	47.84
571.833	48.09
572.174	47.92
572.514	47.62
572.855	48.09
573.195	47.95
573.536	48.09
573.876	48.15
574.217	48.04
574.557	48.23
574.898	48.18
575.238	48.21
575.578	48.35
575.918	48.55
576.258	48.76
576.598	48.6
576.938	48.63
577.278	48.83
577.618	48.88
577.958	48.51
578.298	48.71
578.638	48.98
578.977	49.16
579.317	48.93
579.657	49.32
579.996	49.79
580.336	49.33
580.675	49.49
581.014	49.59
581.354	49.6
581.693	49.78
582.032	49.36
582.372	49.92
582.711	49.87
583.05	49.87
583.389	50.29
583.728	50.09
584.067	50.17
584.406	50.15
584.745	50.3
585.083	50.21
585.422	50.36
585.761	50.19
586.1	50.18
586.438	50.43
586.777	50.47
587.115	50.49
587.454	50.4
587.792	50.22
588.13	50.79
588.469	50.63
588.807	50.69
589.145	50.75
589.483	51.14
589.821	50.95
590.159	50.89
590.497	50.87
590.835	51.16
591.173	50.94
591.511	51.12
591.849	50.92
592.187	50.67
592.524	51.14
592.862	51.05
593.2	51.37
593.537	51.09
593.875	51.53
594.212	51.48
594.55	51.6
594.887	51.83
595.224	51.45
595.561	51.78
595.899	52.03
596.236	52.08
596.573	51.82
596.91	51.68
597.247	51.63
597.584	52.04
597.921	51.69
598.258	52.13
598.594	51.84
598.931	51.86
599.268	51.7
599.604	51.4
599.941	51.97
600.277	51.95
600.614	51.95
600.95	52.26
601.287	52.5
601.623	52.48
601.959	52.29
602.296	52.78
602.632	52.32
602.968	52.59
603.304	52.3
603.64	53.1
603.976	52.74
604.312	52.71
604.648	53.3
604.984	53.06
605.319	52.79
605.655	52.63
605.991	52.57
606.326	52.17
606.662	52.44
606.998	52.89
607.333	52.8
607.668	52.66
608.004	52.99
608.339	53.15
608.674	53.48
609.01	53.81
609.345	53.9
609.68	53.61
610.015	53.68
610.35	53.76
610.685	53.2
611.02	53.43
611.355	53.43
611.689	53.3
612.024	53.5
612.359	53.89
612.694	54.05
613.028	53.58
613.363	53.8
613.697	53.9
614.032	54.12
614.366	54.12
614.7	54.34
615.035	54.69
615.369	54.32
615.703	54.11
616.037	54.32
616.371	54.02
616.705	54.66
617.039	54.58
617.373	54.68
617.707	54.38
618.041	55.15
618.375	54.57
618.709	54.93
619.042	54.74
619.376	54.94
619.71	54.92
620.043	55.24
620.377	55.01
620.71	54.5
621.043	54.95
621.377	54.77
621.71	55.71
622.043	54.99
622.376	55.29
622.709	54.73
623.043	56.04
623.376	55.78
623.709	55.96
624.041	55.51
624.374	54.84
624.707	55.16
625.04	55.39
625.373	55.89
625.705	55.85
626.038	56.08
626.37	55.89
626.703	56.07
627.035	55.68
627.368	55.58
627.7	55.83
628.032	55.76
628.365	55.86
628.697	55.6
629.029	56.15
629.361	55.77
629.693	55.84
630.025	55.69
630.357	56.32
630.689	55.81
631.021	56.33
631.353	56.41
631.684	56.54
632.016	56.32
632.348	56.46
632.679	57.07
633.011	56.56
633.342	56.33
633.674	57.39
634.005	56.62
634.336	56.57
634.668	56.56
634.999	56.52
635.33	56.8
635.661	56.88
635.992	56.79
636.323	56.68
636.654	57
636.985	57.14
637.316	56.97
637.647	57.1
637.977	56.77
638.308	57.63
638.639	57.77
638.969	57.31
639.3	57.42
639.63	57.72
639.961	57.11
640.291	57.47
640.622	57.55
640.952	57.62
641.282	57.4
641.612	57.69
641.943	57.81
642.273	57.98
642.603	57.52
642.933	57.9
643.263	58.01
643.592	57.83
643.922	58.74
644.252	58.1
644.582	57.94
644.911	58.19
645.241	57.91
645.571	58.08
645.9	57.78
646.23	57.79
646.559	58.42
646.888	58.29
647.218	58.72
647.547	58.32
647.876	58.62
648.205	57.45
648.534	59.19
648.863	57.84
649.192	59.18
649.521	58.43
649.85	58.34
650.179	58.71
650.508	58.45
650.837	58.87
651.165	58.2
651.494	57.71
651.822	58.67
652.151	59.13
652.479	58.85
652.808	59.19
653.136	58.92
653.465	58.6
653.793	58.43
654.121	59.19
654.449	58.91
654.777	59.14
655.105	59.08
655.433	59.21
655.761	58.81
656.089	59.74
656.417	59.06
656.745	59.52
657.073	59.6
657.4	59.33
657.728	59.22
658.056	58.92
658.383	59.46
658.711	59.55
659.038	59.82
659.365	59.64
659.693	59.81
660.02	59.1
660.347	59.31
660.674	59.51
661.001	59.91
661.329	59.56
661.656	59.4
661.982	59.94
662.309	60.26
662.636	59.57
662.963	59.74
663.29	59.76
663.616	59.88
663.943	59.95
664.27	60.46
664.596	60.01
664.923	60.31
665.249	59.2
665.576	60.54
665.902	60.14
666.228	60.78
666.554	60.09
666.881	61.48
667.207	60.17
667.533	60.11
667.859	60.59
668.185	59.9
668.511	60.77
668.837	61.26
669.162	60.96
669.488	60.41
669.814	60.66
670.139	61.35
670.465	60.41
670.791	61.13
671.116	61.05
671.442	61.49
671.767	60.91
672.092	61.12
672.418	61.18
672.743	60.99
673.068	61.82
673.393	60.67
673.718	60.92
674.043	61.29
674.368	61.42
674.693	60.45
675.018	61.5
675.343	61.22
675.667	61.4
675.992	61.24
676.317	61.86
676.641	60.99
676.966	62.31
677.29	61.69
677.615	61.22
677.939	60.57
678.264	61.84
678.588	61.03
678.912	62.08
679.236	60.64
679.56	62.17
679.885	61.91
680.209	62.07
680.532	61.95
680.856	61.81
681.18	61.97
681.504	62.33
681.828	61.93
682.152	62
682.475	61.7
682.799	61.53
683.122	62.18
683.446	62.5
683.769	62.59
684.093	62.04
684.416	62.57
684.739	62.49
685.062	62.3
685.386	62.46
685.709	63.36
686.032	62.42
686.355	62.61
686.678	63.01
687.001	62.2
687.324	62.22
687.646	63.33
687.969	63.08
688.292	63.01
688.614	63.34
688.937	63.4
689.26	62.26
689.582	63.58
689.904	63.26
690.227	62.73
690.549	63.56
690.871	63.16
691.194	62.99
691.516	63.07
691.838	63.25
692.16	63.08
692.482	62.54
692.804	63.98
693.126	63.75
693.448	63.66
693.769	63.19
694.091	63.75
694.413	64
694.735	62.88
695.056	63.66
695.378	63.21
695.699	64.23
696.021	63.71
696.342	63.03
696.663	63.21
696.984	63.32
697.306	63.83
697.627	62.6
697.948	63.19
698.269	63.96
698.59	64.22
698.911	63.42
699.232	63.4
699.553	63.77
699.873	64.41
700.194	62.85
700.515	63.74
700.835	63.84
701.156	63.03
701.477	64.33
701.797	63.41
702.117	63.59
702.438	64.61
702.758	64.31
703.078	64.49
703.398	63.7
703.719	63.88
704.039	64.82
704.359	65.07
704.679	64.75
704.999	64.32
705.319	64.18
705.638	64.12
705.958	63.79
706.278	64.99
706.597	66.21
706.917	64.84
707.237	65.18
707.556	65.87
707.876	65.83
708.195	65.41
708.514	65.29
708.834	64.97
709.153	65.34
709.472	66.1
709.791	64.3
710.11	64.32
710.429	64.76
710.748	64.64
711.067	66.09
711.386	64.69
711.705	64.91
712.023	64.74
712.342	65.4
712.661	66.02
712.979	64.66
713.298	65.19
713.616	65.12
713.935	65.07
714.253	65.02
714.572	64.67
714.89	65.51
715.208	65.44
715.526	65.75
715.844	65.25
716.162	65.52
716.48	65.81
716.798	65.77
717.116	65.35
717.434	65.57
717.752	65.37
718.069	65.22
718.387	64.68
718.705	66.04
719.022	65.61
719.34	64.6
719.657	65.8
719.975	66.35
720.292	66.02
720.609	66.97
720.927	66.25
721.244	66.21
721.561	65.93
721.878	64.85
722.195	65.98
722.512	68.08
722.829	67.85
723.146	66.39
723.463	65.22
723.779	64.88
724.096	67.07
724.413	64.88
724.729	65.07
725.046	64.84
725.362	65.38
725.679	66.43
725.995	65.31
726.311	64.83
726.628	67.14
726.944	65.56
727.26	65.98
727.576	64.48
727.892	66.3
728.208	66.73
728.524	66.33
728.84	68.39
729.156	67.2
729.472	67.55
729.787	66.44
730.103	65.93
730.419	67.36
730.734	67.38
731.05	67
731.365	66.8
731.681	65.47
731.996	66.53
732.311	68.22
732.626	67.09
732.942	66.92
733.257	66.96
733.572	66.38
733.887	67.82
734.202	66.25
734.517	66.88
734.832	67.21
735.146	66.72
735.461	67.02
735.776	66.29
736.091	67.12
736.405	67.26
736.72	67.26
737.034	65.78
737.349	66.5
737.663	67.19
737.977	66.5
738.292	66.84
738.606	66.14
738.92	64.77
739.234	65.6
739.548	67.13
739.862	67.77
740.176	64.6
740.49	68.24
740.804	67.85
741.117	67.8
741.431	67.09
741.745	67.77
742.058	66.91
742.372	67.84
742.685	66.26
742.999	67.83
743.312	68.34
743.626	66.5
743.939	68.36
744.252	67.17
744.565	67.84
744.878	66.73
745.191	66.41
745.505	68.19
745.817	67.94
746.13	66.87
746.443	67.87
746.756	68.91
747.069	67.23
747.381	66.71
747.694	68.3
748.007	64.8
748.319	68.07
748.632	68.26
748.944	66.7
749.256	68.94
749.569	69.06
749.881	68.93
750.193	68.74
750.505	69.64
750.817	67.27
751.129	68.62
751.441	67.72
751.753	69.16
752.065	65.91
752.377	67.42
752.689	67.53
753	67.5
753.312	68.98
753.624	68.36
753.935	67.39
754.247	67.92
754.558	69.62
754.869	66.68
755.181	67.25
755.492	69.87
755.803	70.19
756.114	70.42
756.425	69.56
756.736	67.42
757.047	68.97
757.358	71.16
757.669	69.14
757.98	66.77
758.291	67.36
758.601	70.73
758.912	68.05
759.223	68.44
759.533	68.35
759.844	69.14
760.154	70.92
760.464	68.81
760.775	69.65
761.085	69.22
761.395	66.95
761.705	70.07
762.016	68.42
762.326	67.29
762.636	70.96
762.945	69.95
763.255	69.93
763.565	68.62
763.875	69.72
764.185	68.81
764.494	69.64
764.804	68.4
765.113	69.92
765.423	71.11
765.732	68.38
766.042	69.34
766.351	68.18
766.66	70.16
766.97	69.92
767.279	70.3
767.588	70.92
767.897	69.25
768.206	68.05
768.515	70.57
768.824	69.24
769.133	68.48
769.441	70.49
769.75	70.53
770.059	68.41
770.367	69.22
770.676	69.41
770.984	67.51
771.293	70.07
771.601	67.12
771.91	73.09
772.218	70.54
772.526	69.07
772.834	72.25
773.142	70.67
773.45	67.89
773.758	73.47
774.066	69.55
774.374	69.06
774.682	69.66
774.99	70.83
775.298	73.63
775.605	74.8
775.913	71.41
776.22	71.07
776.528	69.24
776.835	70.87
777.143	73.42
777.45	69.74
777.757	66.64
778.065	67.52
778.372	67.54
778.679	69.45
778.986	69.73
779.293	68.41
779.6	71.78
779.907	69.64
780.214	72.54
780.52	73.67
780.827	71.29
781.134	71.27
781.44	70.88
781.747	70.5
782.053	70.1
782.36	74.64
782.666	69.4
782.973	72.58
783.279	70.85
783.585	71.44
783.891	68.63
784.197	73.51
784.503	71.09
784.809	70.04
785.115	72.3
785.421	70.47
785.727	71.16
786.033	67.75
786.339	68.66
786.644	69.52
786.95	70.19
787.255	68.11
787.561	68.45
787.866	68.79
788.172	67.9
788.477	67.98
788.782	68.72
789.088	71.25
789.393	73.44
789.698	67.46
790.003	71.73
790.308	72.38
790.613	70.34
790.918	68.76
791.223	72.08
791.527	71.8
791.832	71.46
792.137	67.04
792.441	73.48
792.746	71.06
793.05	73.75
793.355	71.05
793.659	74.88
793.963	73.28
794.268	66.45
794.572	69.15
794.876	67.87
795.18	75.03
795.484	67.18
795.788	69.6
796.092	66.3
796.396	73.9
796.7	72.58
797.004	72.08
797.307	65.19
797.611	72.41
797.915	71.96
798.218	71.75
798.522	71.24
798.825	70.61
799.128	69.61
799.432	74.25
799.735	77.48
800.038	74.65
800.341	71.62
800.644	71.54
800.947	73.51
801.25	68.4
801.553	70.24
801.856	65.03
802.159	67.78
802.462	70.78
802.764	66.33
803.067	67.16
803.37	66.09
803.672	68.03
803.975	65.11
804.277	69.03
804.579	72.81
804.882	73.15
805.184	70.69
805.486	68.06
805.788	68.81
806.09	68.35
806.392	65.85
806.694	71.18
806.996	64.44
807.298	72.14
807.6	73.14
807.902	66.05
808.203	71.48
808.505	70.79
808.807	65.56
809.108	66.47
809.409	69.06
809.711	78.03
810.012	68.78
810.313	65.92
810.615	77.21
810.916	69.29
811.217	74.07
811.518	72.02
811.819	67.97
812.12	87.03
812.421	70.91
812.722	66.7
813.023	75.31
813.323	74.73
813.624	74.81
813.925	71.66
814.225	60.71
814.526	74.82
814.826	76.25
815.126	71.82
815.427	68.3
815.727	66.72
816.027	72.31
816.327	73.13
816.627	71.09
816.927	71.61
817.227	75.47
817.527	71.69
817.827	74.34
818.127	63.83
818.427	70.99
818.727	71.2
819.026	64.68
819.326	68.68
819.625	73.86
819.925	68.15
820.224	73.94
820.524	78.64
820.823	71.52
821.122	73.63
821.421	73.58
821.72	65.46
822.019	68.36
822.318	73.83
822.617	69.86
822.916	72
823.215	67.25
823.514	71.29
823.813	68.44
824.111	72.35
824.41	72.55
824.709	74.65
825.007	73.61
825.306	74.62
825.604	71.69
825.902	73.6
826.201	73.57
826.499	72.19
826.797	72.7
827.095	73.92
827.393	71.8
827.691	72.83
827.989	73.03
828.287	73.1
828.585	70.97
828.882	75.49
829.18	72.19
829.478	70.58
829.775	74.35
830.073	71.41
830.37	72.75
830.668	72.48
830.965	72.17
831.263	72.13
831.56	71.42
831.857	73.55
832.154	74.85
832.451	73.14
832.748	76.36
833.045	69.08
833.342	76.89
833.639	77.01
833.936	72.29
834.232	76.48
834.529	70.97
834.826	73.98
835.122	69.37
835.419	78.94
835.715	70.5
836.012	71.78
836.308	68.79
836.604	75.3
836.901	76.32
837.197	72.73
837.493	71.11
837.789	73.4
838.085	77.14
838.381	71.26
838.677	76.26
838.972	69.45
839.268	72.41
839.564	76.08
839.86	68.14
840.155	71.65
840.451	74.56
840.746	71.73
841.042	65.48
841.337	69.94
841.632	76.79
841.928	68.44
842.223	72.69
842.518	75.57
842.813	77.86
843.108	70.88
843.403	80.55
843.698	72.38
843.993	66.87
844.287	57.67
844.582	74.04
844.877	78.37
845.171	62.71
845.466	74.26
845.761	67.13
846.055	72
846.349	72.46
846.644	59.88
846.938	68.98
847.232	57.67
847.526	72.44
847.82	75.47
848.114	71.78
848.408	80.21
848.702	77.39
848.996	101.52
849.29	79.67
849.584	81.4
849.877	69.46
850.171	61.11
850.465	71.19
850.758	62.69
851.052	63.43
851.345	54.55
851.638	61.62
851.932	85.17
852.225	73.27
852.518	86.01
852.811	77.4
853.104	57.34
853.397	55.23
853.69	70.97
853.983	74.95
854.276	59.56
854.569	59.64
854.861	81.16
855.154	55.05
855.447	64.66
855.739	70.93
856.032	57.11
856.324	66.16
856.616	75.92
856.909	91.53
857.201	80.94
857.493	73.37
857.785	66.32
858.077	68.69
858.369	97.48
858.661	76.62
858.953	99.21
859.245	92.13
859.537	78.85
859.829	55.21
860.12	27.78
860.412	43.7
860.703	70.42
860.995	104.54
861.286	87.75
861.578	68.46
861.869	69.16
862.16	92.4
862.452	70.32
862.743	43.62
863.034	77.02
863.325	53.99
863.616	61.68
863.907	70.16
864.198	64.36
864.488	66.38
864.779	57.27
865.07	57.69
865.36	61.28
865.651	34.39
865.941	100.76
866.232	44.86
866.522	70.96
866.813	47.01
867.103	92.84
867.393	45.61
867.683	54.72
867.973	127.7
868.263	74.34
868.553	95.26
868.843	55.1
869.133	112.22
869.423	86.67
869.713	70.64
870.002	172.8
870.292	36.45
870.582	46.78
870.871	84.76
871.161	70.86
871.45	86.75
871.739	66.26
872.029	39.42
872.318	41.18
872.607	66
872.896	61.33
873.185	187.89
873.474	34.14
873.763	58.42
874.052	86.23
874.341	83.42
874.63	65.57
874.918	65.29
875.207	79.76
875.496	108.67
875.784	55.51
876.073	78.02
876.361	63.8
876.649	90.4
876.938	58.24
877.226	67.12
877.514	82.67
877.802	56.56
878.09	137.82
878.378	42.77
878.666	78.56
878.954	75.57
879.242	63.19
879.53	18.44
879.817	70.06
880.105	85.04
880.392	59.6
880.68	76.55
880.967	86.97
881.255	76.56
881.542	85.99
881.83	76.89
882.117	82.92
882.404	72.16
882.691	74.21
882.978	60.05
883.265	63.97
883.552	77.93
883.839	68.07
884.126	74.74
884.413	71.92
884.699	76.44
884.986	75.32
885.273	75.65
885.559	75.65
885.846	75.65
