Data from 0381_chest_Reflection__4__108.txt Node

Date: Mon Dec 11 18:56:44 CST 2023
User: ToomeyLab
Spectrometer: FLMS14357
Trigger mode: 0
Integration Time (sec): 1.000000E-2
Scans to average: 100
Electric dark correction enabled: true
Nonlinearity correction enabled: false
Boxcar width: 0
XAxis mode: Wavelengths
Number of Pixels in Spectrum: 2048
>>>>>Begin Spectral Data<<<<<
189.047	-25.84
189.435	-25.84
189.823	-25.84
190.211	-15.23
190.599	-88.35
190.987	181.9
191.375	7.36
191.763	40.31
192.151	105.21
192.538	98.91
192.926	204.9
193.314	57.21
193.702	333.7
194.089	133.46
194.477	278.52
194.864	-159.36
195.252	16.42
195.639	-1924.16
196.027	410.78
196.414	196.35
196.801	-72.35
197.189	-501.35
197.576	70.51
197.963	89.31
198.351	33.33
198.738	30.22
199.125	-40.57
199.512	40.78
199.899	-32.25
200.286	17.22
200.673	19.47
201.06	32.22
201.447	16.32
201.833	58.51
202.22	40.56
202.607	-2.67
202.994	15.24
203.38	-82.33
203.767	49.56
204.154	7.96
204.54	-23.01
204.927	76.76
205.313	81.05
205.699	-234.02
206.086	-18.24
206.472	46.69
206.858	42.32
207.245	37.27
207.631	19.67
208.017	19.35
208.403	8.99
208.789	-45.79
209.175	15.78
209.561	-9.32
209.947	18.19
210.333	20.4
210.719	24.2
211.105	18.88
211.491	32.5
211.876	8.02
212.262	-12.41
212.648	-8.69
213.034	14.01
213.419	7.06
213.805	-19.07
214.19	29.49
214.576	-10.45
214.961	23.15
215.346	-20.19
215.732	27.52
216.117	14.45
216.502	36.01
216.888	42.67
217.273	12.67
217.658	-3.94
218.043	-34.8
218.428	14.99
218.813	7.17
219.198	-3.82
219.583	16.2
219.968	4.47
220.353	-19.5
220.738	27.05
221.122	4.41
221.507	22.65
221.892	-10.19
222.276	2.11
222.661	-29.26
223.046	6.02
223.43	18.51
223.815	7.56
224.199	7.26
224.583	6.52
224.968	6.61
225.352	3.31
225.736	8.6
226.121	6.66
226.505	-0.33
226.889	5.08
227.273	5.37
227.657	12.54
228.041	3.92
228.425	1.06
228.809	-3.08
229.193	0.9
229.577	5.27
229.961	1.91
230.344	2.43
230.728	1.78
231.112	3.03
231.495	3.48
231.879	2.41
232.263	2.76
232.646	2.57
233.03	3.38
233.413	4.47
233.797	3.25
234.18	2.04
234.563	3.31
234.946	2.35
235.33	3.28
235.713	2.93
236.096	3.43
236.479	4.16
236.862	2.56
237.245	3.32
237.628	4.42
238.011	2.01
238.394	3.14
238.777	1.62
239.16	4.23
239.543	3.34
239.925	3.25
240.308	3.97
240.691	3.11
241.073	3.53
241.456	4.62
241.838	4.48
242.221	2.88
242.603	2.13
242.986	2.28
243.368	2.74
243.75	3.48
244.133	3.7
244.515	2.96
244.897	3.11
245.279	3.46
245.661	3.25
246.043	3.9
246.425	3.2
246.807	3.28
247.189	3.49
247.571	3.49
247.953	2.78
248.335	3.27
248.717	3.5
249.098	3.19
249.48	3.07
249.862	3.61
250.243	3.78
250.625	3.45
251.006	3.07
251.388	3.23
251.769	4.19
252.151	4.78
252.532	3.51
252.913	2.38
253.295	3.53
253.676	2.88
254.057	3.18
254.438	3.62
254.819	2.79
255.2	2.55
255.581	2.53
255.962	2.76
256.343	4.63
256.724	3.61
257.105	4.21
257.486	3.01
257.867	4
258.247	2.7
258.628	3.07
259.009	3.1
259.389	3.05
259.77	3.03
260.15	2.98
260.531	3.21
260.911	2.32
261.292	2.93
261.672	3.12
262.052	2.98
262.432	3.09
262.813	2.8
263.193	3.18
263.573	2.85
263.953	2.86
264.333	2.55
264.713	3.59
265.093	2.95
265.473	3.12
265.853	3.34
266.233	2.62
266.612	3.33
266.992	3.47
267.372	4.05
267.752	3.74
268.131	2.89
268.511	2.9
268.89	3.41
269.27	3.18
269.649	3.33
270.029	3.39
270.408	3.16
270.787	3.15
271.167	2.08
271.546	2.91
271.925	3.03
272.304	3.78
272.683	2.96
273.062	2.92
273.441	2.76
273.82	3.08
274.199	2.87
274.578	3.15
274.957	3.12
275.336	2.7
275.715	3.2
276.093	3.73
276.472	2.61
276.851	3.27
277.229	3.02
277.608	3.09
277.986	2.97
278.365	2.78
278.743	2.93
279.122	3.03
279.5	3
279.878	2.47
280.257	2.79
280.635	2.9
281.013	2.76
281.391	2.99
281.769	2.93
282.147	2.81
282.525	2.64
282.903	3.08
283.281	2.59
283.659	2.26
284.037	2.96
284.415	3.06
284.792	3.35
285.17	3.41
285.548	2.9
285.925	2.54
286.303	2.82
286.68	2.84
287.058	2.81
287.435	2.97
287.813	3.31
288.19	2.66
288.567	2.72
288.945	3.25
289.322	2.44
289.699	2.9
290.076	2.91
290.453	3.37
290.83	3.36
291.207	3.08
291.584	3.1
291.961	2.84
292.338	3.35
292.715	3.26
293.092	3.26
293.469	3.08
293.845	3.57
294.222	3.14
294.599	2.68
294.975	3.4
295.352	3.46
295.728	2.79
296.105	3.09
296.481	3.34
296.858	2.73
297.234	3.44
297.61	3.24
297.986	3.84
298.363	3.46
298.739	3.17
299.115	3.13
299.491	3.5
299.867	3.45
300.243	3.67
300.619	2.96
300.995	3.18
301.371	3.51
301.746	2.94
302.122	3.07
302.498	3.42
302.874	3.67
303.249	3.17
303.625	3.76
304	3.6
304.376	3.33
304.751	3.35
305.127	3.67
305.502	3.65
305.878	3.45
306.253	3.95
306.628	3.96
307.003	4.02
307.378	3.56
307.754	4.23
308.129	3.64
308.504	3.44
308.879	3.09
309.254	4.66
309.629	4.46
310.003	3.79
310.378	3.45
310.753	4.3
311.128	4.13
311.502	3.35
311.877	3.86
312.252	4.07
312.626	3.72
313.001	4.07
313.375	3.42
313.75	4.01
314.124	3.81
314.498	3.64
314.873	3.69
315.247	4.25
315.621	4.47
315.995	4.24
316.369	4.27
316.743	4.08
317.117	3.44
317.491	4.47
317.865	3.56
318.239	4.44
318.613	4.41
318.987	3.95
319.361	4.34
319.734	4.09
320.108	3.93
320.482	4.35
320.855	4.27
321.229	4.05
321.602	3.46
321.976	4.42
322.349	4.71
322.723	3.99
323.096	4.48
323.469	4.87
323.843	4.02
324.216	4.45
324.589	4.44
324.962	4.28
325.335	4.44
325.708	4.46
326.081	4.34
326.454	4.5
326.827	4.21
327.2	3.58
327.573	3.99
327.945	4.52
328.318	4.16
328.691	4.17
329.063	4.05
329.436	3.93
329.809	4.45
330.181	4.76
330.553	4.12
330.926	4.11
331.298	4.51
331.671	4.24
332.043	5.22
332.415	4.01
332.787	4.73
333.159	4.26
333.532	4.02
333.904	4.49
334.276	4.56
334.648	4.74
335.02	4.26
335.391	3.9
335.763	4.78
336.135	4.81
336.507	4.45
336.879	4.98
337.25	4.16
337.622	4.43
337.993	4.04
338.365	4.02
338.736	4.27
339.108	4.75
339.479	4.2
339.851	3.96
340.222	4.17
340.593	3.95
340.964	4.57
341.336	4.52
341.707	4.33
342.078	4.25
342.449	4.03
342.82	4.03
343.191	4.37
343.562	4.55
343.933	4.13
344.303	3.75
344.674	4.3
345.045	4.71
345.416	4.06
345.786	4.72
346.157	4.38
346.527	4.31
346.898	4.79
347.268	4.17
347.639	4.23
348.009	4.95
348.38	3.9
348.75	4.39
349.12	5.04
349.49	4.13
349.861	4.09
350.231	4.26
350.601	4.92
350.971	4.38
351.341	3.79
351.711	3.99
352.081	4.11
352.45	4.7
352.82	3.99
353.19	4.59
353.56	4.28
353.929	4.05
354.299	4.52
354.669	4.62
355.038	4.55
355.408	4.18
355.777	4.33
356.147	4.54
356.516	4.27
356.885	4.68
357.254	4.46
357.624	4.63
357.993	4.31
358.362	4.75
358.731	4.21
359.1	4.63
359.469	4.06
359.838	4.53
360.207	4.41
360.576	4.46
360.945	4.72
361.314	4.56
361.682	4.24
362.051	4.54
362.42	4.5
362.788	4.28
363.157	4.15
363.525	4.28
363.894	4.47
364.262	4.51
364.631	4.58
364.999	4.56
365.367	4.78
365.735	4.62
366.104	4.3
366.472	4.74
366.84	4.54
367.208	4.57
367.576	4.61
367.944	4.59
368.312	4.27
368.68	4.66
369.048	4.47
369.416	4.35
369.783	4.23
370.151	4.72
370.519	5.08
370.886	4.35
371.254	4.6
371.621	5.16
371.989	4.84
372.356	4.74
372.724	4.54
373.091	4.9
373.458	4.53
373.826	4.55
374.193	4.4
374.56	4.77
374.927	4.64
375.294	4.85
375.661	4.22
376.028	4.83
376.395	4.97
376.762	4.83
377.129	4.99
377.496	4.98
377.863	4.69
378.229	4.49
378.596	4.49
378.963	4.78
379.329	4.55
379.696	4.64
380.062	4.55
380.429	4.52
380.795	5.11
381.161	4.55
381.528	4.91
381.894	4.82
382.26	4.65
382.626	4.37
382.993	4.53
383.359	5.14
383.725	4.79
384.091	4.53
384.457	4.36
384.823	4.81
385.188	4.75
385.554	4.56
385.92	4.57
386.286	4.57
386.651	4.7
387.017	4.97
387.383	4.65
387.748	4.58
388.114	4.72
388.479	4.69
388.845	4.74
389.21	5
389.575	5.03
389.94	4.8
390.306	4.7
390.671	4.68
391.036	4.66
391.401	4.82
391.766	4.73
392.131	4.64
392.496	5.01
392.861	4.78
393.226	4.78
393.591	5.02
393.956	4.79
394.32	4.87
394.685	4.93
395.05	4.95
395.414	5.01
395.779	4.78
396.143	4.69
396.508	4.7
396.872	4.9
397.236	4.77
397.601	4.78
397.965	4.79
398.329	4.86
398.694	4.65
399.058	4.74
399.422	4.82
399.786	4.67
400.15	4.64
400.514	5.23
400.878	4.94
401.242	4.83
401.605	4.94
401.969	4.69
402.333	4.7
402.697	4.72
403.06	4.68
403.424	4.85
403.787	4.96
404.151	4.71
404.514	4.79
404.878	4.79
405.241	4.84
405.604	4.91
405.968	4.89
406.331	4.63
406.694	4.63
407.057	4.79
407.42	5.11
407.783	4.95
408.146	4.88
408.509	4.96
408.872	4.76
409.235	4.74
409.598	4.94
409.961	5.01
410.323	5
410.686	5.04
411.049	4.78
411.411	5.07
411.774	5.11
412.136	4.76
412.499	4.99
412.861	4.6
413.223	5.04
413.586	4.96
413.948	5.02
414.31	4.75
414.672	4.56
415.035	4.78
415.397	4.83
415.759	5.15
416.121	5.03
416.483	4.95
416.845	5.17
417.206	4.86
417.568	5.04
417.93	5.04
418.292	4.94
418.653	4.83
419.015	4.8
419.377	5.04
419.738	4.78
420.1	5.05
420.461	4.91
420.822	4.85
421.184	4.89
421.545	4.84
421.906	4.8
422.267	4.96
422.629	4.91
422.99	4.83
423.351	4.78
423.712	4.75
424.073	4.83
424.434	4.93
424.795	5.03
425.155	4.87
425.516	4.79
425.877	4.77
426.238	4.9
426.598	4.88
426.959	4.88
427.32	4.89
427.68	5.03
428.041	4.8
428.401	4.89
428.761	5.07
429.122	4.92
429.482	5.08
429.842	5.05
430.202	4.92
430.563	5.13
430.923	5.15
431.283	4.96
431.643	5
432.003	5.18
432.363	5.13
432.722	5.08
433.082	5.09
433.442	5.11
433.802	4.83
434.161	5.1
434.521	4.9
434.881	5.19
435.24	4.99
435.6	4.91
435.959	5.13
436.319	5.1
436.678	5.08
437.037	5.19
437.396	5.1
437.756	5.26
438.115	5.2
438.474	5.19
438.833	5.01
439.192	5.16
439.551	5.14
439.91	5.06
440.269	5.17
440.628	4.85
440.987	5.21
441.345	5.08
441.704	5.14
442.063	5.11
442.421	5.17
442.78	5.04
443.138	5.03
443.497	5.04
443.855	5.11
444.214	5.32
444.572	5.09
444.93	5.15
445.288	5.2
445.647	5.37
446.005	5.04
446.363	5.21
446.721	5.15
447.079	5.14
447.437	5.11
447.795	5.18
448.153	5.16
448.51	5.14
448.868	4.92
449.226	5.05
449.584	5.15
449.941	5.29
450.299	5.14
450.656	5.18
451.014	5.27
451.371	5.23
451.729	5.21
452.086	5.21
452.443	5.38
452.801	5.22
453.158	5.37
453.515	5.05
453.872	5.33
454.229	5.21
454.586	5.36
454.943	5.25
455.3	5.24
455.657	5.43
456.014	5.3
456.371	5.23
456.727	5.31
457.084	5.08
457.441	5.44
457.797	5.28
458.154	5.39
458.51	5.42
458.867	5.11
459.223	5.46
459.58	5.24
459.936	5.47
460.292	5.28
460.648	5.42
461.005	5.28
461.361	5.25
461.717	5.15
462.073	5.25
462.429	5.27
462.785	5.18
463.141	5.33
463.496	5.38
463.852	5.34
464.208	5.42
464.564	5.51
464.919	5.46
465.275	5.35
465.631	5.12
465.986	5.46
466.342	5.43
466.697	5.37
467.052	5.32
467.408	5.48
467.763	5.4
468.118	5.48
468.473	5.38
468.829	5.38
469.184	5.59
469.539	5.41
469.894	5.41
470.249	5.38
470.603	5.51
470.958	5.59
471.313	5.39
471.668	5.67
472.023	5.58
472.377	5.46
472.732	5.43
473.086	5.63
473.441	5.38
473.795	5.67
474.15	5.53
474.504	5.5
474.859	5.64
475.213	5.59
475.567	5.5
475.921	5.54
476.275	5.58
476.63	5.78
476.984	5.68
477.338	5.41
477.692	5.52
478.045	5.43
478.399	5.52
478.753	5.36
479.107	5.47
479.461	5.68
479.814	5.58
480.168	5.61
480.521	5.69
480.875	5.62
481.228	5.51
481.582	5.75
481.935	5.44
482.289	5.61
482.642	5.63
482.995	5.62
483.348	5.67
483.701	5.42
484.055	5.56
484.408	5.47
484.761	5.51
485.114	5.35
485.466	5.31
485.819	5.22
486.172	5.23
486.525	5.3
486.878	5.42
487.23	5.44
487.583	5.5
487.936	5.52
488.288	5.57
488.641	5.41
488.993	5.42
489.345	5.41
489.698	5.39
490.05	5.42
490.402	5.38
490.754	5.49
491.107	5.55
491.459	5.55
491.811	5.64
492.163	5.53
492.515	5.71
492.866	5.61
493.218	5.5
493.57	5.48
493.922	5.5
494.274	5.53
494.625	5.62
494.977	5.77
495.328	5.8
495.68	5.78
496.031	5.78
496.383	5.71
496.734	5.89
497.086	5.76
497.437	5.93
497.788	5.78
498.139	5.77
498.49	5.8
498.842	5.84
499.193	5.82
499.544	5.86
499.894	5.81
500.245	5.88
500.596	5.95
500.947	5.89
501.298	6.01
501.648	5.9
501.999	5.8
502.35	5.93
502.7	5.95
503.051	5.84
503.401	6
503.752	5.88
504.102	5.96
504.452	5.87
504.803	6.09
505.153	5.97
505.503	5.99
505.853	6.06
506.203	5.94
506.553	6.03
506.903	5.91
507.253	6.01
507.603	5.99
507.953	6.06
508.303	5.94
508.652	6.06
509.002	5.99
509.352	6.22
509.701	6.06
510.051	5.99
510.4	5.99
510.75	5.99
511.099	5.98
511.449	6.11
511.798	6.12
512.147	6.11
512.496	6.06
512.846	6.19
513.195	6.17
513.544	6.14
513.893	6.04
514.242	6.23
514.591	6.13
514.939	6.11
515.288	6.26
515.637	6.31
515.986	6.19
516.334	6.17
516.683	6.29
517.032	6.36
517.38	6.33
517.729	6.16
518.077	6.24
518.426	6.35
518.774	6.31
519.122	6.28
519.47	6.28
519.819	6.2
520.167	6.22
520.515	6.03
520.863	6.14
521.211	6.23
521.559	6.25
521.907	6.27
522.255	6.24
522.602	6.19
522.95	6.39
523.298	6.41
523.645	6.54
523.993	6.36
524.341	6.47
524.688	6.27
525.036	6.43
525.383	6.43
525.73	6.55
526.078	6.61
526.425	6.43
526.772	6.46
527.119	6.36
527.466	6.35
527.814	6.42
528.161	6.32
528.508	6.34
528.854	6.35
529.201	6.42
529.548	6.33
529.895	6.32
530.242	6.27
530.588	6.19
530.935	6.24
531.282	6.28
531.628	6.34
531.975	6.38
532.321	6.46
532.667	6.48
533.014	6.47
533.36	6.52
533.706	6.63
534.052	6.6
534.399	6.61
534.745	6.53
535.091	6.41
535.437	6.46
535.783	6.58
536.129	6.64
536.474	6.61
536.82	6.65
537.166	6.71
537.512	6.73
537.857	6.8
538.203	6.69
538.549	6.65
538.894	6.7
539.239	6.77
539.585	6.79
539.93	6.76
540.276	6.99
540.621	6.92
540.966	6.94
541.311	6.98
541.656	6.96
542.001	6.97
542.346	7
542.691	6.83
543.036	6.68
543.381	6.67
543.726	6.72
544.071	6.79
544.415	6.86
544.76	6.89
545.105	6.92
545.449	6.93
545.794	6.96
546.138	6.97
546.483	7.03
546.827	7.19
547.171	7.06
547.516	7.05
547.86	7.16
548.204	7.15
548.548	7.1
548.892	7.08
549.236	7.05
549.58	7.25
549.924	7.22
550.268	7.21
550.612	7.32
550.956	7.29
551.3	7.38
551.643	7.38
551.987	7.45
552.33	7.5
552.674	7.65
553.017	7.51
553.361	7.42
553.704	7.46
554.048	7.37
554.391	7.52
554.734	7.64
555.077	7.58
555.42	7.57
555.764	7.59
556.107	7.63
556.45	7.67
556.793	7.52
557.135	7.75
557.478	7.77
557.821	7.71
558.164	7.71
558.507	7.7
558.849	7.66
559.192	7.71
559.534	7.84
559.877	7.99
560.219	7.82
560.562	7.94
560.904	7.94
561.246	7.78
561.589	7.81
561.931	7.83
562.273	7.91
562.615	7.81
562.957	7.94
563.299	8.1
563.641	7.87
563.983	8.27
564.325	8.22
564.667	8.18
565.008	8.19
565.35	8.44
565.692	8.01
566.033	8.13
566.375	8.3
566.716	8.27
567.058	8.2
567.399	8.24
567.741	8.19
568.082	8.22
568.423	8.02
568.764	8.18
569.105	8.05
569.447	8.36
569.788	8.1
570.129	8.17
570.47	8.22
570.811	8.27
571.151	8.45
571.492	8.49
571.833	8.5
572.174	8.53
572.514	8.6
572.855	8.45
573.195	8.61
573.536	8.59
573.876	8.43
574.217	8.55
574.557	8.52
574.898	8.55
575.238	8.73
575.578	8.69
575.918	8.62
576.258	8.69
576.598	8.84
576.938	8.76
577.278	8.72
577.618	8.83
577.958	8.75
578.298	8.79
578.638	8.98
578.977	9.1
579.317	8.7
579.657	8.74
579.996	8.73
580.336	8.98
580.675	9.1
581.014	9
581.354	9.03
581.693	9.22
582.032	8.93
582.372	9.35
582.711	8.99
583.05	9.29
583.389	9.1
583.728	9.5
584.067	9.27
584.406	9.3
584.745	9.36
585.083	9.38
585.422	9.36
585.761	9.47
586.1	9.27
586.438	9.3
586.777	9.55
587.115	9.19
587.454	9.23
587.792	9.47
588.13	9.58
588.469	9.37
588.807	9.68
589.145	9.71
589.483	9.68
589.821	9.37
590.159	9.56
590.497	9.47
590.835	9.76
591.173	9.73
591.511	10
591.849	9.71
592.187	9.57
592.524	9.8
592.862	9.94
593.2	9.74
593.537	9.97
593.875	10.13
594.212	9.75
594.55	9.84
594.887	9.9
595.224	10.19
595.561	10.01
595.899	9.89
596.236	10.06
596.573	9.98
596.91	10.11
597.247	10.07
597.584	10.03
597.921	10.09
598.258	10.16
598.594	10.06
598.931	10.24
599.268	10.23
599.604	10.45
599.941	10.32
600.277	10.26
600.614	10.47
600.95	10.48
601.287	10.47
601.623	10.44
601.959	10.51
602.296	10.43
602.632	10.41
602.968	10.52
603.304	10.83
603.64	10.82
603.976	10.7
604.312	10.66
604.648	10.75
604.984	10.95
605.319	10.81
605.655	10.46
605.991	10.61
606.326	10.92
606.662	10.63
606.998	10.58
607.333	10.83
607.668	10.88
608.004	10.74
608.339	11.2
608.674	10.98
609.01	11
609.345	11
609.68	11.07
610.015	11.07
610.35	11.07
610.685	11.06
611.02	10.89
611.355	11.27
611.689	11.24
612.024	11.04
612.359	11.19
612.694	11.32
613.028	11.15
613.363	11.2
613.697	10.9
614.032	11.42
614.366	11.42
614.7	11.34
615.035	11.8
615.369	11.71
615.703	11.8
616.037	11.7
616.371	11.88
616.705	11.63
617.039	11.79
617.373	11.94
617.707	11.87
618.041	12.28
618.375	11.57
618.709	11.47
619.042	11.67
619.376	12.04
619.71	12.02
620.043	11.94
620.377	11.68
620.71	12.17
621.043	11.79
621.377	11.57
621.71	12.13
622.043	11.79
622.376	12.12
622.709	12.18
623.043	12.5
623.376	12.29
623.709	12.16
624.041	12.19
624.374	12.26
624.707	12.15
625.04	12.45
625.373	12.65
625.705	12.4
626.038	12.5
626.37	12.5
626.703	12.51
627.035	12.54
627.368	12.62
627.7	12.5
628.032	12.65
628.365	12.51
628.697	12.51
629.029	12.49
629.361	12.82
629.693	12.73
630.025	12.42
630.357	12.61
630.689	12.29
631.021	12.72
631.353	12.71
631.684	13.11
632.016	13.27
632.348	13.28
632.679	13.17
633.011	13.24
633.342	12.85
633.674	12.83
634.005	13.22
634.336	13.12
634.668	13.23
634.999	13.52
635.33	13.1
635.661	13.1
635.992	13.03
636.323	13.28
636.654	13.44
636.985	13.39
637.316	13.31
637.647	13.62
637.977	13.67
638.308	13.42
638.639	13.5
638.969	13.69
639.3	13.35
639.63	13.79
639.961	14.05
640.291	14.06
640.622	13.78
640.952	14.08
641.282	13.64
641.612	14.16
641.943	14.12
642.273	13.99
642.603	14.19
642.933	13.72
643.263	14.2
643.592	14.04
643.922	13.97
644.252	13.81
644.582	13.84
644.911	13.99
645.241	13.46
645.571	14.19
645.9	13.77
646.23	14.14
646.559	14.41
646.888	14.26
647.218	14.28
647.547	14.06
647.876	14.27
648.205	14.26
648.534	14.08
648.863	14.3
649.192	14.47
649.521	14.32
649.85	14.67
650.179	14.48
650.508	14.64
650.837	14.32
651.165	14.83
651.494	14.42
651.822	14.59
652.151	15.01
652.479	14.75
652.808	15.05
653.136	14.49
653.465	15.12
653.793	14.75
654.121	14.66
654.449	15.07
654.777	15.06
655.105	15.2
655.433	14.93
655.761	15.05
656.089	14.81
656.417	15.33
656.745	15.4
657.073	15.33
657.4	15.42
657.728	15.44
658.056	15.57
658.383	15.12
658.711	15.14
659.038	15.35
659.365	15.27
659.693	15.37
660.02	15.37
660.347	15.4
660.674	15.47
661.001	15.39
661.329	15.65
661.656	15.77
661.982	15.58
662.309	15.85
662.636	15.83
662.963	16.05
663.29	15.94
663.616	15.34
663.943	15.21
664.27	15.89
664.596	16.23
664.923	15.79
665.249	15.57
665.576	16.24
665.902	15.82
666.228	16.07
666.554	16.17
666.881	15.83
667.207	16.61
667.533	16.52
667.859	16.26
668.185	16.39
668.511	16.59
668.837	17.07
669.162	16.27
669.488	16.51
669.814	16.26
670.139	16.05
670.465	16.71
670.791	16.57
671.116	16.5
671.442	16.87
671.767	17.02
672.092	16.93
672.418	16.97
672.743	16.4
673.068	16.7
673.393	16.72
673.718	16.63
674.043	17.43
674.368	16.65
674.693	17.05
675.018	17.22
675.343	16.64
675.667	17.39
675.992	16.81
676.317	16.79
676.641	17.02
676.966	17.15
677.29	16.13
677.615	17.87
677.939	16.83
678.264	17.25
678.588	18.1
678.912	17.45
679.236	17.09
679.56	17.41
679.885	17.84
680.209	17.62
680.532	17.73
680.856	17.92
681.18	17.46
681.504	17.66
681.828	17.29
682.152	17.31
682.475	17.79
682.799	18.14
683.122	17.66
683.446	17.4
683.769	17.95
684.093	17.88
684.416	17.89
684.739	18.31
685.062	18.26
685.386	18
685.709	18
686.032	17.95
686.355	17.61
686.678	17.74
687.001	18.24
687.324	17.17
687.646	17.6
687.969	18.33
688.292	18.48
688.614	18.64
688.937	18.75
689.26	18.12
689.582	17.82
689.904	18.7
690.227	18.18
690.549	19.18
690.871	18.81
691.194	17.93
691.516	18.24
691.838	18.15
692.16	19.19
692.482	19.59
692.804	18.23
693.126	18.59
693.448	18.37
693.769	18.47
694.091	17.72
694.413	19.17
694.735	18.36
695.056	18.85
695.378	18.65
695.699	17.97
696.021	19.95
696.342	19.5
696.663	19.7
696.984	19.04
697.306	20.02
697.627	19.55
697.948	19.13
698.269	19.39
698.59	19.74
698.911	19.1
699.232	19.68
699.553	19.74
699.873	19.26
700.194	19.4
700.515	20.05
700.835	19.43
701.156	19.55
701.477	19.6
701.797	19.52
702.117	19.54
702.438	19.74
702.758	19.98
703.078	19.75
703.398	20.4
703.719	19.96
704.039	19.52
704.359	20.22
704.679	20.38
704.999	19.91
705.319	20.1
705.638	20.38
705.958	20.53
706.278	20.74
706.597	21.71
706.917	19.71
707.237	20.27
707.556	19.98
707.876	20.71
708.195	20.62
708.514	20.72
708.834	20.6
709.153	20.01
709.472	19.63
709.791	21.2
710.11	19.74
710.429	18.93
710.748	19.89
711.067	21.47
711.386	21.63
711.705	20.62
712.023	20.28
712.342	21.06
712.661	20.45
712.979	20.23
713.298	19.97
713.616	21.2
713.935	20.89
714.253	20.52
714.572	20.76
714.89	21.02
715.208	21.34
715.526	21.09
715.844	21.6
716.162	20.36
716.48	20.6
716.798	20.71
717.116	21.1
717.434	21.18
717.752	21.29
718.069	21.52
718.387	21.29
718.705	19.99
719.022	21.47
719.34	21.43
719.657	21.03
719.975	21.24
720.292	22.32
720.609	21.33
720.927	21.98
721.244	22.19
721.561	21.21
721.878	21.9
722.195	23.53
722.512	21.22
722.829	22.49
723.146	21.96
723.463	22.45
723.779	22.49
724.096	21.06
724.413	21.47
724.729	22.95
725.046	21.86
725.362	22.16
725.679	22.1
725.995	22.95
726.311	21.47
726.628	21.92
726.944	22.12
727.26	21.57
727.576	21.14
727.892	22.5
728.208	22.71
728.524	22.63
728.84	21.52
729.156	21.1
729.472	22.24
729.787	23.28
730.103	23.08
730.419	22.78
730.734	21.48
731.05	22.57
731.365	22.49
731.681	22.86
731.996	22
732.311	22.5
732.626	22.87
732.942	22.14
733.257	22.57
733.572	22.12
733.887	23.3
734.202	23.76
734.517	22.53
734.832	22.16
735.146	22.83
735.461	22.24
735.776	23.2
736.091	24.1
736.405	22.37
736.72	23.13
737.034	24.12
737.349	22.74
737.663	23.01
737.977	24.44
738.292	23.98
738.606	22.99
738.92	22.95
739.234	22.77
739.548	22.56
739.862	23.29
740.176	23.41
740.49	22.13
740.804	23.36
741.117	23.48
741.431	23.76
741.745	22.19
742.058	23.64
742.372	23.18
742.685	21.26
742.999	23.12
743.312	22.98
743.626	23.38
743.939	23.21
744.252	23.59
744.565	23.84
744.878	22.28
745.191	23.44
745.505	24.42
745.817	23.37
746.13	26.42
746.443	22.36
746.756	25.53
747.069	22.6
747.381	25.86
747.694	24.61
748.007	25.53
748.319	23.67
748.632	24.6
748.944	23.6
749.256	24.39
749.569	24.93
749.881	24.31
750.193	26.08
750.505	25.62
750.817	23.49
751.129	27.03
751.441	25.14
751.753	24.15
752.065	24.55
752.377	24.99
752.689	22.24
753	24.27
753.312	25.11
753.624	24.2
753.935	24.79
754.247	24.85
754.558	26.61
754.869	22.45
755.181	23.33
755.492	24.78
755.803	24.1
756.114	25.56
756.425	24.96
756.736	24.47
757.047	24.96
757.358	24.8
757.669	27.2
757.98	24.06
758.291	24.33
758.601	24.94
758.912	24.16
759.223	23.29
759.533	24.57
759.844	26.74
760.154	26.27
760.464	25.98
760.775	25.71
761.085	26.54
761.395	24.7
761.705	24.95
762.016	25.91
762.326	25.52
762.636	26.87
762.945	23.47
763.255	24.29
763.565	27.02
763.875	26.93
764.185	26.85
764.494	28.37
764.804	25.95
765.113	24.52
765.423	26.6
765.732	26.78
766.042	25.48
766.351	25.63
766.66	26.99
766.97	25.48
767.279	27.15
767.588	26.37
767.897	26.94
768.206	27.17
768.515	27.23
768.824	27.24
769.133	25.99
769.441	25.08
769.75	24.73
770.059	28.39
770.367	23.85
770.676	26.79
770.984	25.97
771.293	27.49
771.601	27.01
771.91	27.53
772.218	27.37
772.526	28.99
772.834	27.2
773.142	24.4
773.45	27.07
773.758	27.69
774.066	28.22
774.374	26.44
774.682	26.03
774.99	26.95
775.298	27.05
775.605	26.16
775.913	31.56
776.22	27.79
776.528	25.66
776.835	27.76
777.143	26.03
777.45	24.18
777.757	27.17
778.065	27.01
778.372	29.57
778.679	28.16
778.986	26.15
779.293	28.96
779.6	29.41
779.907	24.1
780.214	27.05
780.52	30.06
780.827	29.5
781.134	27.01
781.44	28.59
781.747	25.55
782.053	27.62
782.36	28.71
782.666	26.21
782.973	27.81
783.279	27.72
783.585	27.48
783.891	28.21
784.197	26.17
784.503	30.33
784.809	29.05
785.115	28.66
785.421	28.11
785.727	28.63
786.033	26.54
786.339	28.54
786.644	27.86
786.95	27.12
787.255	27.95
787.561	34.5
787.866	30.85
788.172	29.55
788.477	29.31
788.782	26.21
789.088	32.02
789.393	24.81
789.698	30.71
790.003	24.02
790.308	27.13
790.613	28.18
790.918	27.77
791.223	28.56
791.527	28.45
791.832	28.58
792.137	28.43
792.441	32.55
792.746	29.36
793.05	30.49
793.355	33.99
793.659	26.4
793.963	28.83
794.268	29.88
794.572	33.1
794.876	29.63
795.18	28.98
795.484	33.57
795.788	31.71
796.092	29.93
796.396	26.63
796.7	26.63
797.004	30.34
797.307	29.75
797.611	31.42
797.915	29.21
798.218	31.36
798.522	28.86
798.825	31.18
799.128	31.71
799.432	34.99
799.735	27.49
800.038	31.89
800.341	28.15
800.644	32.6
800.947	29.72
801.25	32.91
801.553	31.23
801.856	35.42
802.159	32.85
802.462	31.7
802.764	32.52
803.067	29.32
803.37	28.93
803.672	34.66
803.975	36.87
804.277	30.27
804.579	34.35
804.882	29.2
805.184	27.67
805.486	32.42
805.788	29.86
806.09	28.35
806.392	32.04
806.694	31.08
806.996	30.64
807.298	32.27
807.6	25.28
807.902	25.48
808.203	29.3
808.505	26.86
808.807	26.89
809.108	26.08
809.409	31.85
809.711	32.77
810.012	29.02
810.313	31.14
810.615	28.21
810.916	37.42
811.217	31.77
811.518	23.73
811.819	34.91
812.12	30.08
812.421	30.07
812.722	33.26
813.023	36.28
813.323	34.43
813.624	28.69
813.925	29
814.225	23.78
814.526	33.89
814.826	31.44
815.126	29.71
815.427	31.52
815.727	33.18
816.027	26.99
816.327	31.61
816.627	32.58
816.927	31.22
817.227	29.3
817.527	29.17
817.827	36.43
818.127	25.01
818.427	32.05
818.727	29.05
819.026	32.51
819.326	31.46
819.625	23.43
819.925	26.84
820.224	35.06
820.524	32.64
820.823	31.88
821.122	30.17
821.421	28.34
821.72	33.99
822.019	29.02
822.318	29.71
822.617	28.55
822.916	29.66
823.215	31.35
823.514	36.23
823.813	34.46
824.111	33.98
824.41	35.07
824.709	32.07
825.007	31.87
825.306	32.1
825.604	31.76
825.902	32.63
826.201	31.57
826.499	31.14
826.797	32.63
827.095	32.08
827.393	33.09
827.691	31.69
827.989	31.52
828.287	31.86
828.585	33.04
828.882	34.77
829.18	35.85
829.478	30.09
829.775	34.34
830.073	34.68
830.37	32.33
830.668	30.41
830.965	33.94
831.263	34.58
831.56	32.26
831.857	34.62
832.154	31.63
832.451	31.9
832.748	32.52
833.045	31.58
833.342	35.33
833.639	37.47
833.936	35.93
834.232	28.97
834.529	34.97
834.826	32.77
835.122	32.58
835.419	27.71
835.715	34.76
836.012	35.56
836.308	35.32
836.604	32.9
836.901	35.76
837.197	33.07
837.493	36.48
837.789	30.87
838.085	34.17
838.381	29.38
838.677	34.86
838.972	33.13
839.268	30.83
839.564	31.87
839.86	35.23
840.155	34.56
840.451	30.44
840.746	37.2
841.042	27.96
841.337	29.51
841.632	34.29
841.928	27.54
842.223	31.04
842.518	37.92
842.813	38.2
843.108	30.63
843.403	35.98
843.698	29.88
843.993	37.18
844.287	36.68
844.582	34.37
844.877	27.09
845.171	14.88
845.466	31.98
845.761	31.17
846.055	28.82
846.349	24.73
846.644	34.82
846.938	46.12
847.232	13.44
847.526	33
847.82	20.86
848.114	15.47
848.408	26.33
848.702	37.9
848.996	26.65
849.29	47.71
849.584	55.97
849.877	31.35
850.171	24.8
850.465	36.8
850.758	44.9
851.052	44.75
851.345	26.51
851.638	32.72
851.932	46.28
852.225	35.5
852.518	64.72
852.811	37.01
853.104	53.43
853.397	53.1
853.69	31.7
853.983	21.33
854.276	35.08
854.569	54.19
854.861	37.12
855.154	9.35
855.447	8.78
855.739	47.27
856.032	48
856.324	27.8
856.616	37.48
856.909	47.31
857.201	22.51
857.493	56.19
857.785	6.16
858.077	40.44
858.369	40.76
858.661	21.81
858.953	20.89
859.245	21.46
859.537	38.23
859.829	34.5
860.12	29.06
860.412	13.05
860.703	25.04
860.995	39.68
861.286	45.88
861.578	42.71
861.869	47.39
862.16	53.33
862.452	21.35
862.743	56.83
863.034	31.25
863.325	6.82
863.616	14.98
863.907	36.44
864.198	36.21
864.488	59.39
864.779	37.38
865.07	0.9
865.36	46.66
865.651	44.86
865.941	44.57
866.232	2.5
866.522	14.6
866.813	56.06
867.103	39.48
867.393	12.35
867.683	10.75
867.973	43.33
868.263	-6.98
868.553	29.34
868.843	41.17
869.133	34.58
869.423	29.13
869.713	-0.51
870.002	29.47
870.292	42.87
870.582	45.2
870.871	35.9
871.161	18.59
871.45	11.39
871.739	49.79
872.029	11.96
872.318	9.71
872.607	37.41
872.896	22.35
873.185	57.98
873.474	48.53
873.763	46.97
874.052	48.73
874.341	29.75
874.63	22.65
874.918	45.72
875.207	28.31
875.496	27.27
875.784	3.69
876.073	31.68
876.361	8.75
876.649	23.44
876.938	12.48
877.226	42.84
877.514	42.9
877.802	63.91
878.09	73.43
878.378	37.41
878.666	40.75
878.954	42.31
879.242	45.34
879.53	69.83
879.817	-0.1
880.105	59.67
880.392	46.14
880.68	9.26
880.967	49.33
881.255	55.32
881.542	38.98
881.83	41.34
882.117	19.92
882.404	27.2
882.691	15.62
882.978	39.8
883.265	-8.7
883.552	32.68
883.839	35.71
884.126	26.97
884.413	42.5
884.699	37.32
884.986	33.97
885.273	39.98
885.559	39.98
885.846	39.98
