Data from 0381_forehead_Reflection__2__117.txt Node

Date: Mon Dec 11 18:59:27 CST 2023
User: ToomeyLab
Spectrometer: FLMS14357
Trigger mode: 0
Integration Time (sec): 1.000000E-2
Scans to average: 100
Electric dark correction enabled: true
Nonlinearity correction enabled: false
Boxcar width: 0
XAxis mode: Wavelengths
Number of Pixels in Spectrum: 2048
>>>>>Begin Spectral Data<<<<<
189.047	-180.66
189.435	-180.66
189.823	-180.66
190.211	37.05
190.599	-311.33
190.987	-93.43
191.375	161.96
191.763	20.25
192.151	469.44
192.538	111.56
192.926	163.46
193.314	68.84
193.702	494.22
194.089	-60.46
194.477	320.77
194.864	2205.02
195.252	-6.16
195.639	-2467.79
196.027	-72.82
196.414	81.67
196.801	-20.28
197.189	203.37
197.576	10.9
197.963	-2.7
198.351	25.18
198.738	4.4
199.125	-23.04
199.512	27.25
199.899	-13.15
200.286	-31.28
200.673	-310.58
201.06	38.47
201.447	5.6
201.833	40.27
202.22	55.32
202.607	16.47
202.994	31.29
203.38	-102.68
203.767	37.29
204.154	39.67
204.54	-44.95
204.927	-64.69
205.313	6.31
205.699	-33.63
206.086	28.62
206.472	18.19
206.858	1.13
207.245	15.47
207.631	23.29
208.017	-13.79
208.403	1.01
208.789	-2.19
209.175	33.73
209.561	-0.43
209.947	28.58
210.333	28.55
210.719	37.13
211.105	46.71
211.491	15.22
211.876	42.7
212.262	-41.97
212.648	10.32
213.034	-10.59
213.419	-2
213.805	-13.27
214.19	49.89
214.576	7.49
214.961	10.14
215.346	-2.57
215.732	36.93
216.117	0.18
216.502	18.6
216.888	24.7
217.273	24.86
217.658	21.52
218.043	-21.34
218.428	40.27
218.813	9.9
219.198	20.12
219.583	23.43
219.968	16.74
220.353	-17.35
220.738	25.04
221.122	11.82
221.507	28.01
221.892	4.89
222.276	11.13
222.661	7.96
223.046	7.02
223.43	9.68
223.815	0.57
224.199	1.33
224.583	4.05
224.968	13.98
225.352	1.95
225.736	12.25
226.121	7.1
226.505	6.6
226.889	6.82
227.273	7.16
227.657	8.46
228.041	5.34
228.425	-1.7
228.809	1.79
229.193	2.06
229.577	5.2
229.961	4.19
230.344	2.92
230.728	2.45
231.112	3.07
231.495	3.54
231.879	3
232.263	2.15
232.646	3.34
233.03	3.33
233.413	3.44
233.797	3.55
234.18	3.75
234.563	1.58
234.946	3.08
235.33	5.06
235.713	2.13
236.096	3.64
236.479	4.54
236.862	2.92
237.245	2.87
237.628	3.9
238.011	2.73
238.394	2.33
238.777	3.59
239.16	2.37
239.543	4.27
239.925	1.23
240.308	3.17
240.691	3.21
241.073	4.57
241.456	5.48
241.838	3.95
242.221	3.74
242.603	2.49
242.986	2.63
243.368	2.52
243.75	2.99
244.133	2.76
244.515	2.65
244.897	2.63
245.279	2.7
245.661	3.04
246.043	3.1
246.425	4.26
246.807	3.27
247.189	2.81
247.571	2.98
247.953	2.81
248.335	2.89
248.717	2.79
249.098	2.56
249.48	2.47
249.862	2.82
250.243	2.68
250.625	2.6
251.006	2.4
251.388	2.61
251.769	3.21
252.151	3.91
252.532	3.31
252.913	2.56
253.295	3.14
253.676	2.57
254.057	2.69
254.438	3.03
254.819	2.83
255.2	1.7
255.581	2.94
255.962	2.33
256.343	2.8
256.724	3.4
257.105	2.83
257.486	3.32
257.867	3.79
258.247	1.76
258.628	2.77
259.009	4.41
259.389	3.33
259.77	2.49
260.15	2.38
260.531	2.31
260.911	2.41
261.292	2.53
261.672	2.46
262.052	2.55
262.432	2.53
262.813	2.39
263.193	2.26
263.573	3.16
263.953	3.01
264.333	1.81
264.713	2.81
265.093	2.93
265.473	2.45
265.853	3.32
266.233	2.18
266.612	3.32
266.992	3.62
267.372	2.88
267.752	3.07
268.131	2.52
268.511	2.43
268.89	2.78
269.27	3.42
269.649	2.69
270.029	2.8
270.408	2.56
270.787	2.41
271.167	2.4
271.546	2.57
271.925	2.08
272.304	2.5
272.683	2.2
273.062	2.18
273.441	1.93
273.82	2.36
274.199	2.75
274.578	2.71
274.957	2.57
275.336	2.27
275.715	2.71
276.093	3.2
276.472	2.76
276.851	2.99
277.229	3.04
277.608	2.8
277.986	2.99
278.365	2.29
278.743	2.71
279.122	2.63
279.5	2.83
279.878	2.37
280.257	2.48
280.635	2.68
281.013	2.08
281.391	2.94
281.769	2.07
282.147	1.89
282.525	2.01
282.903	2.2
283.281	2.7
283.659	2.62
284.037	2.02
284.415	2.28
284.792	2.62
285.17	2.72
285.548	2.22
285.925	2.63
286.303	2.49
286.68	2.45
287.058	2.29
287.435	2.92
287.813	2.54
288.19	2.36
288.567	2.31
288.945	2.52
289.322	2.11
289.699	2.2
290.076	2.29
290.453	2.75
290.83	2.57
291.207	2.48
291.584	2.56
291.961	2.58
292.338	2.75
292.715	3
293.092	2.69
293.469	2.55
293.845	2.21
294.222	3.27
294.599	2.21
294.975	2.57
295.352	2.69
295.728	2.73
296.105	2.72
296.481	2.59
296.858	2.67
297.234	3.2
297.61	3.31
297.986	3.09
298.363	2.79
298.739	2.96
299.115	2.66
299.491	3.06
299.867	2.94
300.243	3.04
300.619	2.63
300.995	2.72
301.371	2.74
301.746	2.6
302.122	2.81
302.498	3.03
302.874	3.44
303.249	3.33
303.625	3.24
304	3.11
304.376	3.08
304.751	3.17
305.127	3.56
305.502	3.47
305.878	2.96
306.253	3.83
306.628	3.44
307.003	3.7
307.378	3.49
307.754	3.16
308.129	3.39
308.504	3.36
308.879	3.69
309.254	4.15
309.629	3.93
310.003	3.71
310.378	3.44
310.753	4.01
311.128	3.95
311.502	3.7
311.877	3.85
312.252	3.93
312.626	3.97
313.001	3.69
313.375	3.47
313.75	3.53
314.124	4.17
314.498	4.05
314.873	3.75
315.247	4.13
315.621	4.7
315.995	4.59
316.369	4.15
316.743	4.82
317.117	4.36
317.491	4.73
317.865	4.08
318.239	4.63
318.613	4.53
318.987	4.66
319.361	5.07
319.734	4.3
320.108	4.77
320.482	5.17
320.855	4.67
321.229	4.45
321.602	4.88
321.976	4.81
322.349	4.4
322.723	4.78
323.096	5.36
323.469	5.26
323.843	5.57
324.216	5.69
324.589	5.24
324.962	4.92
325.335	5.04
325.708	5.39
326.081	5.79
326.454	5.31
326.827	5.59
327.2	4.85
327.573	5.16
327.945	5.77
328.318	5.4
328.691	5.28
329.063	5.34
329.436	5.49
329.809	5.52
330.181	6.14
330.553	5.79
330.926	5.78
331.298	6.22
331.671	6.03
332.043	6.07
332.415	5.79
332.787	6.21
333.159	5.96
333.532	6.33
333.904	6.2
334.276	6.19
334.648	6.25
335.02	5.55
335.391	6.16
335.763	5.79
336.135	6.19
336.507	5.64
336.879	6.7
337.25	6.13
337.622	5.86
337.993	6.51
338.365	6.45
338.736	6.25
339.108	6.5
339.479	6.27
339.851	6.29
340.222	6.16
340.593	6.08
340.964	6.74
341.336	6.31
341.707	5.95
342.078	6.23
342.449	6.45
342.82	6.34
343.191	6.41
343.562	6.48
343.933	6.58
344.303	6.17
344.674	6.23
345.045	6.44
345.416	6.74
345.786	6.82
346.157	7.15
346.527	6.94
346.898	6.89
347.268	6.97
347.639	6.93
348.009	6.78
348.38	6.77
348.75	6.81
349.12	6.99
349.49	6.76
349.861	7.15
350.231	7.21
350.601	7.51
350.971	7.74
351.341	6.61
351.711	7.23
352.081	7.03
352.45	7.31
352.82	6.91
353.19	7.75
353.56	7.21
353.929	7.25
354.299	7.65
354.669	7.2
355.038	7.59
355.408	7.17
355.777	7.49
356.147	7.38
356.516	7.62
356.885	7.77
357.254	7.94
357.624	7.45
357.993	7.94
358.362	7.92
358.731	7.67
359.1	7.96
359.469	7.4
359.838	7.69
360.207	7.75
360.576	7.7
360.945	8.05
361.314	7.89
361.682	8.01
362.051	8
362.42	8.12
362.788	7.82
363.157	7.99
363.525	7.76
363.894	7.89
364.262	8.06
364.631	8.09
364.999	8.18
365.367	8.26
365.735	8.09
366.104	8.21
366.472	8.42
366.84	8.19
367.208	8.36
367.576	8.49
367.944	8.6
368.312	8.58
368.68	8.81
369.048	8.68
369.416	8.54
369.783	8.61
370.151	9.05
370.519	9.33
370.886	8.63
371.254	8.79
371.621	9.17
371.989	8.81
372.356	8.89
372.724	9.3
373.091	8.98
373.458	8.72
373.826	9.18
374.193	8.85
374.56	9.38
374.927	9.09
375.294	9.03
375.661	9.36
376.028	9.45
376.395	9.38
376.762	9.43
377.129	9.41
377.496	9.32
377.863	9.43
378.229	9.26
378.596	9.13
378.963	9.69
379.329	9.31
379.696	9.8
380.062	9.19
380.429	9.68
380.795	9.97
381.161	9.88
381.528	9.69
381.894	9.67
382.26	9.63
382.626	9.82
382.993	9.87
383.359	9.67
383.725	10
384.091	9.99
384.457	9.83
384.823	9.89
385.188	10.06
385.554	9.72
385.92	9.76
386.286	10.33
386.651	10.14
387.017	10.23
387.383	10.33
387.748	10.34
388.114	10.24
388.479	10.51
388.845	10.62
389.21	10.39
389.575	10.55
389.94	10.8
390.306	10.6
390.671	10.53
391.036	10.83
391.401	10.64
391.766	10.8
392.131	10.87
392.496	10.78
392.861	10.96
393.226	10.96
393.591	11.04
393.956	10.91
394.32	10.91
394.685	11
395.05	11
395.414	11.16
395.779	11.07
396.143	10.76
396.508	11.11
396.872	10.9
397.236	11.16
397.601	11.08
397.965	11.35
398.329	11.27
398.694	11.26
399.058	11.61
399.422	11.17
399.786	11.52
400.15	11.36
400.514	11.64
400.878	11.5
401.242	11.5
401.605	11.64
401.969	11.72
402.333	11.57
402.697	11.65
403.06	11.54
403.424	11.63
403.787	11.97
404.151	11.91
404.514	11.74
404.878	11.64
405.241	11.78
405.604	11.86
405.968	11.83
406.331	11.6
406.694	11.83
407.057	11.95
407.42	11.99
407.783	12.23
408.146	12.21
408.509	11.93
408.872	12.26
409.235	11.92
409.598	12.18
409.961	12.35
410.323	12.53
410.686	12.61
411.049	12.45
411.411	12.28
411.774	12.49
412.136	12.44
412.499	12.63
412.861	12.36
413.223	12.35
413.586	12.54
413.948	12.77
414.31	12.56
414.672	12.54
415.035	12.83
415.397	12.58
415.759	12.72
416.121	12.86
416.483	13.08
416.845	13
417.206	12.97
417.568	13.11
417.93	12.92
418.292	12.84
418.653	12.74
419.015	12.76
419.377	13
419.738	12.92
420.1	13.14
420.461	12.92
420.822	12.93
421.184	12.92
421.545	12.91
421.906	12.94
422.267	13.01
422.629	13.01
422.99	13.08
423.351	12.86
423.712	12.99
424.073	13.05
424.434	13.16
424.795	13.27
425.155	13.2
425.516	13.33
425.877	13.26
426.238	13.36
426.598	13.34
426.959	13.33
427.32	13.46
427.68	13.61
428.041	13.67
428.401	13.51
428.761	13.88
429.122	13.76
429.482	13.96
429.842	13.84
430.202	14.05
430.563	14.1
430.923	14.06
431.283	14.22
431.643	14.23
432.003	14.22
432.363	14.33
432.722	14.26
433.082	14.16
433.442	14.35
433.802	14.37
434.161	14.42
434.521	14.29
434.881	14.46
435.24	14.24
435.6	14.35
435.959	14.47
436.319	14.42
436.678	14.62
437.037	14.52
437.396	14.7
437.756	14.71
438.115	14.87
438.474	14.79
438.833	14.73
439.192	14.58
439.551	14.85
439.91	15.03
440.269	15.01
440.628	14.82
440.987	15.04
441.345	14.86
441.704	14.89
442.063	15.03
442.421	15.07
442.78	15.02
443.138	14.96
443.497	14.95
443.855	15.05
444.214	15.22
444.572	15.14
444.93	15.34
445.288	15.33
445.647	15.36
446.005	15.25
446.363	15.37
446.721	15.33
447.079	15.58
447.437	15.31
447.795	15.3
448.153	15.45
448.51	15.44
448.868	15.31
449.226	15.36
449.584	15.41
449.941	15.56
450.299	15.72
450.656	15.69
451.014	15.88
451.371	15.73
451.729	15.99
452.086	16.04
452.443	16.06
452.801	16.1
453.158	16.02
453.515	16.03
453.872	16.39
454.229	16.18
454.586	16.07
454.943	16.23
455.3	16.31
455.657	16.42
456.014	16.35
456.371	16.4
456.727	16.54
457.084	16.51
457.441	16.62
457.797	16.44
458.154	16.74
458.51	16.81
458.867	16.53
459.223	16.73
459.58	16.62
459.936	16.71
460.292	16.8
460.648	16.9
461.005	16.75
461.361	16.84
461.717	16.69
462.073	16.43
462.429	16.57
462.785	16.8
463.141	16.74
463.496	17
463.852	16.99
464.208	17
464.564	17.31
464.919	17.08
465.275	17.29
465.631	17.29
465.986	17.4
466.342	17.52
466.697	17.49
467.052	17.52
467.408	17.52
467.763	17.63
468.118	17.48
468.473	17.6
468.829	17.7
469.184	17.56
469.539	17.64
469.894	17.75
470.249	17.62
470.603	17.77
470.958	17.88
471.313	17.95
471.668	17.99
472.023	18.14
472.377	18.11
472.732	18.15
473.086	18.28
473.441	18.39
473.795	18.44
474.15	18.17
474.504	18.36
474.859	18.35
475.213	18.21
475.567	18.27
475.921	18.5
476.275	18.35
476.63	18.5
476.984	18.48
477.338	18.59
477.692	18.72
478.045	18.57
478.399	18.83
478.753	18.46
479.107	18.55
479.461	18.59
479.814	18.61
480.168	18.81
480.521	18.91
480.875	18.77
481.228	18.73
481.582	19.03
481.935	18.95
482.289	19.01
482.642	18.95
482.995	18.96
483.348	19.01
483.701	18.87
484.055	18.95
484.408	18.86
484.761	18.73
485.114	18.52
485.466	18.31
485.819	18.24
486.172	18.27
486.525	18.26
486.878	18.4
487.23	18.49
487.583	18.72
487.936	18.91
488.288	18.99
488.641	18.96
488.993	18.91
489.345	18.8
489.698	18.85
490.05	18.78
490.402	18.77
490.754	19.07
491.107	19.05
491.459	19.35
491.811	19.42
492.163	19.54
492.515	19.59
492.866	19.6
493.218	19.4
493.57	19.23
493.922	19.3
494.274	19.38
494.625	19.42
494.977	19.8
495.328	19.91
495.68	20.1
496.031	20.16
496.383	20.22
496.734	20.61
497.086	20.47
497.437	20.61
497.788	20.49
498.139	20.51
498.49	20.57
498.842	20.52
499.193	20.58
499.544	20.55
499.894	20.55
500.245	20.65
500.596	20.95
500.947	20.83
501.298	21.01
501.648	20.91
501.999	20.91
502.35	21.11
502.7	21.19
503.051	21.21
503.401	20.99
503.752	21.26
504.102	21.35
504.452	21.31
504.803	21.4
505.153	21.59
505.503	21.55
505.853	21.47
506.203	21.46
506.553	21.43
506.903	21.54
507.253	21.56
507.603	21.77
507.953	21.79
508.303	21.62
508.652	21.79
509.002	21.82
509.352	21.85
509.701	21.87
510.051	21.8
510.4	21.66
510.75	21.9
511.099	21.86
511.449	21.94
511.798	21.89
512.147	21.95
512.496	21.96
512.846	22.03
513.195	22.21
513.544	22.2
513.893	22.07
514.242	22.23
514.591	22.09
514.939	22.25
515.288	22.33
515.637	22.32
515.986	22.32
516.334	22.47
516.683	22.75
517.032	22.69
517.38	22.76
517.729	22.67
518.077	22.86
518.426	23.02
518.774	22.9
519.122	22.8
519.47	22.75
519.819	22.67
520.167	22.72
520.515	22.51
520.863	22.6
521.211	22.52
521.559	22.78
521.907	22.75
522.255	22.98
522.602	23.02
522.95	23.23
523.298	23.26
523.645	23.26
523.993	23.44
524.341	23.37
524.688	23.5
525.036	23.46
525.383	23.5
525.73	23.71
526.078	23.63
526.425	23.5
526.772	23.51
527.119	23.47
527.466	23.42
527.814	23.3
528.161	23.31
528.508	23.46
528.854	23.38
529.201	23.33
529.548	23.33
529.895	23.31
530.242	23.02
530.588	23.04
530.935	23.08
531.282	23.1
531.628	23.17
531.975	23.21
532.321	23.47
532.667	23.65
533.014	23.78
533.36	23.93
533.706	24.12
534.052	24.08
534.399	24.06
534.745	24.01
535.091	23.83
535.437	23.76
535.783	23.87
536.129	23.94
536.474	24.11
536.82	24.09
537.166	24.35
537.512	24.46
537.857	24.54
538.203	24.54
538.549	24.56
538.894	24.46
539.239	24.5
539.585	24.52
539.93	24.77
540.276	24.98
540.621	25.01
540.966	25.1
541.311	25.17
541.656	25.31
542.001	25.31
542.346	25.29
542.691	24.97
543.036	24.69
543.381	24.55
543.726	24.63
544.071	24.72
544.415	24.63
544.76	24.81
545.105	24.98
545.449	25.14
545.794	25.27
546.138	25.21
546.483	25.44
546.827	25.67
547.171	25.64
547.516	25.87
547.86	25.8
548.204	25.84
548.548	25.68
548.892	25.87
549.236	25.76
549.58	26.08
549.924	26.06
550.268	26.09
550.612	26.41
550.956	26.32
551.3	26.36
551.643	26.61
551.987	26.64
552.33	26.89
552.674	26.87
553.017	26.72
553.361	26.72
553.704	26.87
554.048	27
554.391	26.88
554.734	26.89
555.077	27.01
555.42	27.03
555.764	26.77
556.107	27.19
556.45	27.14
556.793	27.18
557.135	27.2
557.478	27.42
557.821	27.41
558.164	27.41
558.507	27.62
558.849	27.54
559.192	27.54
559.534	27.78
559.877	27.75
560.219	27.53
560.562	27.77
560.904	27.64
561.246	27.74
561.589	28.14
561.931	27.86
562.273	27.98
562.615	27.83
562.957	28.01
563.299	28.05
563.641	27.84
563.983	28.15
564.325	28.05
564.667	28.26
565.008	28.21
565.35	28.47
565.692	28.21
566.033	28.68
566.375	28.36
566.716	28.25
567.058	28.3
567.399	28.56
567.741	28.28
568.082	28.33
568.423	28.36
568.764	28.34
569.105	28.33
569.447	28.46
569.788	28.36
570.129	28.49
570.47	28.64
570.811	28.69
571.151	28.84
571.492	28.91
571.833	28.75
572.174	28.83
572.514	28.8
572.855	29
573.195	28.84
573.536	28.89
573.876	29
574.217	29.02
574.557	28.9
574.898	29.15
575.238	29.07
575.578	29.26
575.918	29.23
576.258	29.19
576.598	29.2
576.938	29.38
577.278	29.13
577.618	29.38
577.958	29.33
578.298	29.67
578.638	29.63
578.977	29.87
579.317	29.78
579.657	29.47
579.996	29.84
580.336	29.99
580.675	30.05
581.014	29.95
581.354	30.14
581.693	30.29
582.032	30.12
582.372	30.34
582.711	30.22
583.05	30.29
583.389	30.45
583.728	30.62
584.067	30.4
584.406	30.59
584.745	30.34
585.083	30.44
585.422	30.49
585.761	30.79
586.1	30.73
586.438	30.83
586.777	30.74
587.115	30.71
587.454	30.91
587.792	30.72
588.13	31.07
588.469	30.98
588.807	31.03
589.145	31.33
589.483	31.17
589.821	30.7
590.159	31.13
590.497	30.86
590.835	31.3
591.173	31.15
591.511	31.48
591.849	31.45
592.187	31.28
592.524	31.51
592.862	31.46
593.2	31.14
593.537	31.43
593.875	31.44
594.212	31.42
594.55	31.11
594.887	31.83
595.224	31.72
595.561	31.66
595.899	31.33
596.236	31.8
596.573	31.73
596.91	31.73
597.247	31.56
597.584	31.72
597.921	31.91
598.258	31.66
598.594	31.7
598.931	31.88
599.268	31.96
599.604	31.63
599.941	32.29
600.277	31.76
600.614	32.34
600.95	32.23
601.287	32.58
601.623	32.4
601.959	32.89
602.296	32.43
602.632	32.71
602.968	32.48
603.304	32.33
603.64	32.33
603.976	32.81
604.312	32.14
604.648	32.82
604.984	32.6
605.319	32.54
605.655	32.47
605.991	32.78
606.326	32.27
606.662	32.5
606.998	32.58
607.333	32.67
607.668	32.46
608.004	32.59
608.339	33.01
608.674	33.19
609.01	33.19
609.345	32.78
609.68	33.17
610.015	33.06
610.35	33.56
610.685	33.35
611.02	33.25
611.355	33.25
611.689	33.11
612.024	33.01
612.359	33.15
612.694	33.41
613.028	33.49
613.363	33.39
613.697	33.1
614.032	33.67
614.366	33.97
614.7	33.42
615.035	33.84
615.369	33.71
615.703	33.62
616.037	33.82
616.371	33.66
616.705	34.09
617.039	33.71
617.373	34.18
617.707	34.11
618.041	34.17
618.375	34.32
618.709	34.1
619.042	34.25
619.376	34.83
619.71	34.08
620.043	34.34
620.377	34.56
620.71	34.66
621.043	34.33
621.377	34.41
621.71	34.67
622.043	34.28
622.376	34.81
622.709	34.72
623.043	35.12
623.376	34.63
623.709	34.86
624.041	34.55
624.374	34.92
624.707	34.72
625.04	35.3
625.373	34.93
625.705	35.1
626.038	35.15
626.37	35.01
626.703	35.31
627.035	34.87
627.368	35.11
627.7	35.34
628.032	35.18
628.365	35.54
628.697	35.41
629.029	35.28
629.361	35.49
629.693	35.41
630.025	35.29
630.357	35.23
630.689	35.3
631.021	35.51
631.353	35.08
631.684	35.68
632.016	35.72
632.348	36.09
632.679	35.94
633.011	35.8
633.342	35.89
633.674	36
634.005	35.78
634.336	35.78
634.668	35.74
634.999	36.14
635.33	35.48
635.661	36.29
635.992	36.15
636.323	36.1
636.654	36.08
636.985	36.26
637.316	36.32
637.647	36.22
637.977	36.71
638.308	36.78
638.639	36.24
638.969	36.33
639.3	36.28
639.63	36.09
639.961	36.4
640.291	36.84
640.622	36.69
640.952	37.01
641.282	36.77
641.612	37.33
641.943	36.95
642.273	36.9
642.603	37.45
642.933	37.35
643.263	36.92
643.592	36.94
643.922	37.27
644.252	36.6
644.582	36.9
644.911	37.17
645.241	37.08
645.571	37.63
645.9	37.05
646.23	37.28
646.559	37.28
646.888	36.99
647.218	37.51
647.547	37.8
647.876	37.75
648.205	37.23
648.534	37.57
648.863	38.08
649.192	37.14
649.521	37.72
649.85	37.47
650.179	37.76
650.508	37.2
650.837	37.63
651.165	38.22
651.494	37.19
651.822	38.12
652.151	38.06
652.479	37.69
652.808	38.28
653.136	37.26
653.465	38.68
653.793	38.21
654.121	38.45
654.449	38.43
654.777	38.29
655.105	37.86
655.433	38.25
655.761	38.24
656.089	38
656.417	38.33
656.745	38.66
657.073	38.86
657.4	38.53
657.728	38.98
658.056	38.96
658.383	39.03
658.711	38.71
659.038	38.67
659.365	39.08
659.693	38.91
660.02	38.64
660.347	38.95
660.674	38.87
661.001	38.72
661.329	38.65
661.656	39.16
661.982	38.74
662.309	38.59
662.636	39.22
662.963	38.67
663.29	38.8
663.616	39.16
663.943	38.8
664.27	39.13
664.596	39.05
664.923	39.25
665.249	39.71
665.576	39.53
665.902	39.44
666.228	39.59
666.554	39.56
666.881	39.67
667.207	40.04
667.533	39.35
667.859	39.14
668.185	39.73
668.511	39.89
668.837	40.44
669.162	40.14
669.488	39.99
669.814	39.23
670.139	40.05
670.465	39.9
670.791	39.58
671.116	40.13
671.442	39.97
671.767	39.72
672.092	40.01
672.418	40.3
672.743	39.38
673.068	40.11
673.393	39.86
673.718	39.69
674.043	40.63
674.368	40.7
674.693	40.52
675.018	40.97
675.343	40.2
675.667	40.34
675.992	40.45
676.317	39.63
676.641	40.18
676.966	40.66
677.29	40.64
677.615	40.83
677.939	40.68
678.264	40.44
678.588	41.17
678.912	41.37
679.236	40.31
679.56	40.77
679.885	40.92
680.209	40.86
680.532	41.52
680.856	41.26
681.18	40.88
681.504	40.8
681.828	40.52
682.152	41.03
682.475	41.16
682.799	41.26
683.122	41.01
683.446	40.51
683.769	41.41
684.093	41.42
684.416	40.97
684.739	40.75
685.062	41.41
685.386	41.62
685.709	41.23
686.032	41.81
686.355	41.79
686.678	41.6
687.001	41.27
687.324	41.2
687.646	41.1
687.969	41.87
688.292	42.62
688.614	42.08
688.937	42.01
689.26	41.84
689.582	41.79
689.904	41.68
690.227	42.1
690.549	41.71
690.871	41.24
691.194	40.21
691.516	41.27
691.838	41.03
692.16	41.75
692.482	42.42
692.804	42.54
693.126	41.9
693.448	41.89
693.769	42.18
694.091	42.05
694.413	42.22
694.735	41.45
695.056	42.99
695.378	42.25
695.699	41.85
696.021	41.89
696.342	42.46
696.663	42.75
696.984	42.65
697.306	43.34
697.627	42.46
697.948	42.88
698.269	42.89
698.59	43.29
698.911	41.75
699.232	42.95
699.553	42.38
699.873	42.73
700.194	42.5
700.515	42.89
700.835	43.2
701.156	43.25
701.477	43.07
701.797	42.29
702.117	43.36
702.438	42.19
702.758	42.49
703.078	42.52
703.398	43.37
703.719	43.4
704.039	42.71
704.359	43.05
704.679	43.09
704.999	42.96
705.319	43.08
705.638	43.49
705.958	43.4
706.278	43.42
706.597	43.95
706.917	43.66
707.237	43.28
707.556	43.83
707.876	42.83
708.195	43.8
708.514	43.84
708.834	43.76
709.153	42.77
709.472	43.17
709.791	44.04
710.11	43.99
710.429	43.66
710.748	43.51
711.067	44.57
711.386	44.71
711.705	43.88
712.023	44.05
712.342	43.85
712.661	43.66
712.979	44.08
713.298	44.19
713.616	45.12
713.935	42.95
714.253	44.3
714.572	44.37
714.89	44.51
715.208	43.95
715.526	43.77
715.844	43.64
716.162	44.76
716.48	44.81
716.798	44.24
717.116	43.99
717.434	43.49
717.752	44.05
718.069	44.48
718.387	44.68
718.705	45.11
719.022	44.4
719.34	44.26
719.657	44.4
719.975	45.22
720.292	45.49
720.609	43.94
720.927	45.47
721.244	45.08
721.561	45.91
721.878	45.6
722.195	44.5
722.512	44.08
722.829	45.23
723.146	45.34
723.463	44.73
723.779	45.64
724.096	45.99
724.413	44.48
724.729	46.46
725.046	44.15
725.362	45.93
725.679	43.35
725.995	46.59
726.311	45.02
726.628	46.16
726.944	46.03
727.26	45.4
727.576	44.83
727.892	45.97
728.208	45.61
728.524	44.86
728.84	44.17
729.156	44.65
729.472	45.74
729.787	45.31
730.103	44.51
730.419	45.12
730.734	44.62
731.05	44.93
731.365	45.11
731.681	46.31
731.996	45.6
732.311	47.43
732.626	46.11
732.942	44.8
733.257	44.74
733.572	44.51
733.887	47.23
734.202	46.09
734.517	46.06
734.832	45.36
735.146	46.57
735.461	46.21
735.776	45.39
736.091	46.09
736.405	46.24
736.72	45.29
737.034	47.14
737.349	46.2
737.663	45.25
737.977	47.13
738.292	47.13
738.606	46.53
738.92	45.95
739.234	46.09
739.548	46.74
739.862	46.67
740.176	45.85
740.49	45.21
740.804	47.49
741.117	46.45
741.431	46.88
741.745	48.06
742.058	47.96
742.372	45.53
742.685	45.6
742.999	46.68
743.312	47.53
743.626	45.55
743.939	45.08
744.252	45.52
744.565	47
744.878	45.75
745.191	46.5
745.505	48.78
745.817	46.04
746.13	47.87
746.443	45.7
746.756	46.88
747.069	45.95
747.381	45.71
747.694	47.03
748.007	48.75
748.319	48.59
748.632	45.05
748.944	46.94
749.256	46.51
749.569	47.11
749.881	47.4
750.193	47.93
750.505	45.67
750.817	45.99
751.129	47.28
751.441	46.72
751.753	49.17
752.065	48.78
752.377	47.11
752.689	47.93
753	47.4
753.312	48.47
753.624	48.82
753.935	45.31
754.247	48.09
754.558	47.82
754.869	46.08
755.181	46.24
755.492	48.37
755.803	48.03
756.114	48.82
756.425	47.41
756.736	47.12
757.047	45.93
757.358	45.62
757.669	46.45
757.98	46.28
758.291	46.65
758.601	47.45
758.912	46.07
759.223	48.08
759.533	48.06
759.844	48.8
760.154	49.06
760.464	45.81
760.775	46.57
761.085	46.13
761.395	48.72
761.705	48.62
762.016	46.37
762.326	47.38
762.636	49.03
762.945	48.06
763.255	48.17
763.565	48.42
763.875	50.54
764.185	47.81
764.494	48.71
764.804	48.8
765.113	48.34
765.423	46.28
765.732	50.27
766.042	49.78
766.351	47.66
766.66	47.01
766.97	47.53
767.279	48.54
767.588	48.08
767.897	45.88
768.206	49.61
768.515	49.03
768.824	49.1
769.133	48.48
769.441	47.5
769.75	48.93
770.059	47.97
770.367	48.03
770.676	47.9
770.984	49.19
771.293	46.63
771.601	47.31
771.91	49
772.218	48.36
772.526	49.22
772.834	47.95
773.142	46.82
773.45	46.58
773.758	49.67
774.066	47.55
774.374	47.36
774.682	47.75
774.99	46.67
775.298	47.8
775.605	48.45
775.913	50.33
776.22	50.92
776.528	48.37
776.835	51.12
777.143	47.74
777.45	46.96
777.757	51.39
778.065	46.45
778.372	50.86
778.679	51.18
778.986	49.59
779.293	53.34
779.6	49.76
779.907	46.44
780.214	49.16
780.52	47.53
780.827	49.93
781.134	48.35
781.44	48.85
781.747	48.48
782.053	48.74
782.36	47.56
782.666	47.94
782.973	49.55
783.279	49.21
783.585	51.39
783.891	48.72
784.197	48.97
784.503	47.8
784.809	48.61
785.115	49.41
785.421	50.09
785.727	51.38
786.033	50.11
786.339	47.44
786.644	51.97
786.95	51.27
787.255	50.72
787.561	52.76
787.866	51.15
788.172	49.63
788.477	52.21
788.782	48.08
789.088	54.49
789.393	46.3
789.698	49.19
790.003	48.27
790.308	48.76
790.613	46.69
790.918	49.06
791.223	48.98
791.527	50.6
791.832	49.87
792.137	47.77
792.441	51.99
792.746	51.47
793.05	48.66
793.355	49.64
793.659	50.16
793.963	47.16
794.268	51.95
794.572	55.22
794.876	46.42
795.18	50.41
795.484	50.71
795.788	53.41
796.092	49.07
796.396	50.71
796.7	49.72
797.004	51.52
797.307	48.43
797.611	49.25
797.915	48.81
798.218	47.89
798.522	48.37
798.825	47.53
799.128	51.48
799.432	48.78
799.735	49.41
800.038	49.95
800.341	47.64
800.644	50.5
800.947	53.3
801.25	50.33
801.553	48.92
801.856	53.62
802.159	52.35
802.462	52.65
802.764	54.26
803.067	49.46
803.37	52.66
803.672	53.09
803.975	49.16
804.277	46.87
804.579	50.26
804.882	49.15
805.184	54.21
805.486	49.95
805.788	52.79
806.09	48.36
806.392	52.79
806.694	47.19
806.996	49.96
807.298	49.47
807.6	49.14
807.902	48.33
808.203	53.95
808.505	46.87
808.807	43.9
809.108	48.56
809.409	54.81
809.711	50.2
810.012	49.68
810.313	51.03
810.615	50.02
810.916	53.23
811.217	47.87
811.518	45.93
811.819	53.43
812.12	49.96
812.421	57.92
812.722	47.17
813.023	46.63
813.323	54.02
813.624	48.75
813.925	55.37
814.225	42.47
814.526	54.89
814.826	47.49
815.126	52.66
815.427	48.31
815.727	51.95
816.027	51.68
816.327	49.67
816.627	50.95
816.927	52.86
817.227	54.04
817.527	53.81
817.827	45.19
818.127	52.41
818.427	48.83
818.727	55.91
819.026	57.02
819.326	45.1
819.625	48.24
819.925	54.49
820.224	54.92
820.524	53.13
820.823	48.32
821.122	51.22
821.421	47.86
821.72	51.31
822.019	49.91
822.318	51.13
822.617	51.31
822.916	50.03
823.215	51.21
823.514	56.18
823.813	51.98
824.111	52.74
824.41	51.18
824.709	51.76
825.007	52.63
825.306	52.44
825.604	51.64
825.902	52.12
826.201	51.69
826.499	50.51
826.797	52.33
827.095	51.1
827.393	50.79
827.691	51.8
827.989	50.04
828.287	51.18
828.585	50.93
828.882	52.37
829.18	54.13
829.478	50.98
829.775	52.12
830.073	53.91
830.37	52.23
830.668	50.39
830.965	50.86
831.263	51.41
831.56	51.85
831.857	53.35
832.154	50.89
832.451	50.88
832.748	50.48
833.045	54.89
833.342	47.95
833.639	48.81
833.936	52.35
834.232	50.71
834.529	49.25
834.826	55.92
835.122	54.4
835.419	45.31
835.715	56.13
836.012	51.57
836.308	49.89
836.604	53.08
836.901	53.13
837.197	51.17
837.493	52.19
837.789	51.97
838.085	52.73
838.381	50.04
838.677	53.22
838.972	56.64
839.268	51.55
839.564	43.98
839.86	54.15
840.155	49.64
840.451	45.27
840.746	46.64
841.042	53.58
841.337	41.27
841.632	52.45
841.928	47.63
842.223	55.47
842.518	51.98
842.813	59.15
843.108	50.63
843.403	50.78
843.698	57.08
843.993	55.82
844.287	41.29
844.582	60.34
844.877	52.39
845.171	46.47
845.466	47.24
845.761	41.8
846.055	50.8
846.349	51.14
846.644	43.12
846.938	61.42
847.232	53.04
847.526	55.5
847.82	38.87
848.114	35.04
848.408	57.92
848.702	56.69
848.996	50.52
849.29	65.31
849.584	73.74
849.877	61.57
850.171	53.16
850.465	60.21
850.758	42.85
851.052	38.99
851.345	49.75
851.638	68.79
851.932	44.22
852.225	64.83
852.518	46.18
852.811	56.02
853.104	59.21
853.397	71.68
853.69	50.88
853.983	56.49
854.276	57.9
854.569	70.12
854.861	68.03
855.154	60.42
855.447	70.93
855.739	55.1
856.032	70.75
856.324	67.73
856.616	34.44
856.909	48.89
857.201	61.17
857.493	82.87
857.785	54.06
858.077	33.47
858.369	58.58
858.661	50.86
858.953	44.61
859.245	36.89
859.537	64.18
859.829	38.15
860.12	19.71
860.412	56
860.703	62.76
860.995	51.82
861.286	38.4
861.578	74.39
861.869	67.5
862.16	26.55
862.452	81.03
862.743	34.3
863.034	51.06
863.325	43.7
863.616	59.62
863.907	47.01
864.198	70.8
864.488	86.9
864.779	71.55
865.07	45.44
865.36	60.92
865.651	57.9
865.941	45.24
866.232	39.02
866.522	67.55
866.813	74.47
867.103	68.16
867.393	61.04
867.683	37.17
867.973	82.43
868.263	37.73
868.553	66.23
868.843	65.9
869.133	51.78
869.423	95.2
869.713	64.46
870.002	45.15
870.292	49.33
870.582	64.72
870.871	59.82
871.161	38.72
871.45	37.34
871.739	66.44
872.029	44.28
872.318	46.31
872.607	54.32
872.896	41.19
873.185	34.35
873.474	69.96
873.763	71.33
874.052	42.09
874.341	74.92
874.63	46.75
874.918	50.59
875.207	69.37
875.496	73.81
875.784	28.39
876.073	43.52
876.361	41.9
876.649	49.11
876.938	70.04
877.226	64.42
877.514	28.5
877.802	77.32
878.09	58.68
878.378	55.05
878.666	43.6
878.954	44.44
879.242	47.38
879.53	76.21
879.817	34.36
880.105	76.43
880.392	36.69
880.68	40.26
880.967	49.48
881.255	60.88
881.542	24.69
881.83	64.54
882.117	55.38
882.404	72.73
882.691	25.72
882.978	52.98
883.265	40.62
883.552	57.21
883.839	53.42
884.126	43.89
884.413	45.03
884.699	57.3
884.986	59.09
885.273	55.88
885.559	55.88
885.846	55.88
