Data from 0160_crown_Reflection__3__104.txt Node

Date: Fri Sep 22 21:08:58 CDT 2023
User: ToomeyLab
Spectrometer: FLMS14357
Trigger mode: 0
Integration Time (sec): 1.000000E-2
Scans to average: 100
Electric dark correction enabled: true
Nonlinearity correction enabled: false
Boxcar width: 0
XAxis mode: Wavelengths
Number of Pixels in Spectrum: 2048
>>>>>Begin Spectral Data<<<<<
189.047	-12.71
189.435	-12.71
189.823	-12.71
190.211	-79.79
190.599	98.64
190.987	11.24
191.375	-10.84
191.763	48.8
192.151	66.51
192.538	-463.99
192.926	152.04
193.314	-157.37
193.702	41.47
194.089	105.9
194.477	91.74
194.864	13.41
195.252	-230.96
195.639	34.71
196.027	3293.29
196.414	222.21
196.801	60.13
197.189	-33.07
197.576	142.61
197.963	-220.61
198.351	14.96
198.738	44.41
199.125	39.51
199.512	10.05
199.899	52.49
200.286	-7.68
200.673	7.4
201.06	-4.26
201.447	45.61
201.833	110.4
202.22	22.15
202.607	47.45
202.994	44.69
203.38	20.91
203.767	40.78
204.154	34.97
204.54	32.34
204.927	61.35
205.313	10.47
205.699	35.93
206.086	38.5
206.472	54.71
206.858	51.98
207.245	-14.34
207.631	51.53
208.017	13.15
208.403	12.56
208.789	16.02
209.175	54.8
209.561	37.67
209.947	71.22
210.333	33.4
210.719	5.62
211.105	21.37
211.491	23.49
211.876	35.38
212.262	33.65
212.648	19.01
213.034	48.14
213.419	26.34
213.805	2.08
214.19	11.73
214.576	17.4
214.961	26.96
215.346	14.08
215.732	25.4
216.117	-1.39
216.502	33.67
216.888	35.17
217.273	24.2
217.658	42.6
218.043	39.79
218.428	37.83
218.813	10.09
219.198	38.49
219.583	34.28
219.968	9.03
220.353	28.41
220.738	6.18
221.122	-0.77
221.507	12.58
221.892	-2.79
222.276	10.44
222.661	-13.21
223.046	23.85
223.43	33.94
223.815	5.21
224.199	2.68
224.583	13.96
224.968	14.3
225.352	4.56
225.736	4.42
226.121	11.61
226.505	12.51
226.889	9.16
227.273	10.77
227.657	10.98
228.041	14.27
228.425	14.09
228.809	7.97
229.193	9.48
229.577	11.08
229.961	12.84
230.344	11.54
230.728	8.57
231.112	9.86
231.495	9.16
231.879	9.24
232.263	9.1
232.646	9.03
233.03	8.89
233.413	9.82
233.797	9.12
234.18	8.49
234.563	13.67
234.946	10.31
235.33	7.5
235.713	7.79
236.096	8.27
236.479	10.05
236.862	10.57
237.245	8.89
237.628	10.4
238.011	10.78
238.394	9.41
238.777	11.09
239.16	10.43
239.543	10.82
239.925	9.05
240.308	10.35
240.691	10.11
241.073	10.67
241.456	8.96
241.838	9.02
242.221	9.22
242.603	7.37
242.986	8.88
243.368	7.99
243.75	8.74
244.133	8.54
244.515	8.07
244.897	7.78
245.279	7.75
245.661	7.89
246.043	8.17
246.425	7.69
246.807	9.01
247.189	7.39
247.571	8.14
247.953	7.62
248.335	8.1
248.717	7.48
249.098	7.5
249.48	7.37
249.862	7.13
250.243	7.37
250.625	7.21
251.006	7.21
251.388	7.61
251.769	7.41
252.151	6.92
252.532	6.88
252.913	7.38
253.295	8.02
253.676	7.71
254.057	7.67
254.438	7.9
254.819	6.75
255.2	7.54
255.581	7.02
255.962	7.58
256.343	7.55
256.724	6.19
257.105	7.62
257.486	6.92
257.867	6.63
258.247	7.61
258.628	8.21
259.009	5.59
259.389	7.3
259.77	8.11
260.15	7.09
260.531	6.36
260.911	6.7
261.292	6.64
261.672	6.14
262.052	6.46
262.432	6.61
262.813	6.76
263.193	6.28
263.573	7.19
263.953	6.15
264.333	6.15
264.713	6.75
265.093	6.27
265.473	5.82
265.853	6.08
266.233	6.43
266.612	6.07
266.992	6.93
267.372	7.09
267.752	7.44
268.131	6.08
268.511	6.3
268.89	6.61
269.27	6.25
269.649	6.22
270.029	6.35
270.408	6.36
270.787	6.2
271.167	5.77
271.546	5.38
271.925	5.9
272.304	5.68
272.683	6.13
273.062	6.6
273.441	6.11
273.82	6.29
274.199	6.21
274.578	6.55
274.957	5.56
275.336	5.54
275.715	5.67
276.093	5.6
276.472	6.07
276.851	6.24
277.229	5.72
277.608	6.43
277.986	5.68
278.365	6.36
278.743	5.84
279.122	6.31
279.5	6.23
279.878	5.32
280.257	6.41
280.635	6.15
281.013	6.59
281.391	5.53
281.769	5.94
282.147	5.61
282.525	5.58
282.903	6.01
283.281	6.24
283.659	4.87
284.037	5.68
284.415	5.72
284.792	5.69
285.17	6.31
285.548	6.28
285.925	5.48
286.303	6.01
286.68	5.91
287.058	5.83
287.435	5.66
287.813	5.47
288.19	5.31
288.567	5.85
288.945	5.87
289.322	5.52
289.699	5.48
290.076	5.9
290.453	5.53
290.83	5.69
291.207	5.74
291.584	5.44
291.961	5.27
292.338	5.92
292.715	5.75
293.092	5.77
293.469	5.61
293.845	5.74
294.222	5.63
294.599	5.87
294.975	5.96
295.352	5.23
295.728	5.26
296.105	6.12
296.481	5.42
296.858	5.68
297.234	5.25
297.61	5.49
297.986	5.45
298.363	5.63
298.739	5.63
299.115	5.38
299.491	5.57
299.867	5.24
300.243	5.31
300.619	5.69
300.995	5.4
301.371	5.96
301.746	5.89
302.122	5.6
302.498	5.29
302.874	5.21
303.249	5.57
303.625	5.08
304	5.63
304.376	5.78
304.751	5.88
305.127	5.24
305.502	5.75
305.878	5.58
306.253	5.23
306.628	5.14
307.003	5.3
307.378	5.45
307.754	5.67
308.129	5.61
308.504	4.86
308.879	5.73
309.254	5.47
309.629	4.84
310.003	5.38
310.378	6.04
310.753	5.39
311.128	5.83
311.502	6.03
311.877	5.26
312.252	5.32
312.626	5.21
313.001	5.3
313.375	5.45
313.75	5.63
314.124	5.77
314.498	5.18
314.873	5.23
315.247	6.15
315.621	5.36
315.995	5.35
316.369	5.33
316.743	5.59
317.117	5.55
317.491	5.88
317.865	5.35
318.239	5.64
318.613	6.26
318.987	5.83
319.361	5.07
319.734	5.25
320.108	5.12
320.482	5.42
320.855	6.03
321.229	5.43
321.602	5.43
321.976	5.49
322.349	5.87
322.723	5.73
323.096	5.74
323.469	5.47
323.843	5.08
324.216	6.5
324.589	5.48
324.962	4.92
325.335	4.83
325.708	5.56
326.081	5.68
326.454	5.31
326.827	5.13
327.2	5.75
327.573	6.3
327.945	5.56
328.318	5.66
328.691	5.99
329.063	5.56
329.436	5.52
329.809	5.61
330.181	5.38
330.553	5.49
330.926	5.31
331.298	5.51
331.671	5.8
332.043	5.19
332.415	4.94
332.787	6.06
333.159	5.39
333.532	5.06
333.904	5.75
334.276	5.19
334.648	4.93
335.02	5.02
335.391	5.63
335.763	5.93
336.135	5.56
336.507	5.4
336.879	5.41
337.25	5.74
337.622	5.59
337.993	5.64
338.365	5.39
338.736	5.5
339.108	5.6
339.479	5.16
339.851	5.2
340.222	5.47
340.593	5.32
340.964	5.2
341.336	5.55
341.707	5.66
342.078	5.46
342.449	5.76
342.82	5
343.191	4.98
343.562	5.77
343.933	5.59
344.303	6.01
344.674	5.65
345.045	5.49
345.416	6
345.786	5.38
346.157	5.56
346.527	5.43
346.898	5.56
347.268	5.28
347.639	5.78
348.009	5.71
348.38	5.96
348.75	5.99
349.12	5.57
349.49	5.91
349.861	5.39
350.231	5.85
350.601	5.34
350.971	6.26
351.341	5.38
351.711	5.13
352.081	5.69
352.45	5.36
352.82	6.09
353.19	5.82
353.56	5.32
353.929	5.71
354.299	5.21
354.669	5.38
355.038	5.57
355.408	5.56
355.777	5.83
356.147	5.82
356.516	5.75
356.885	5.87
357.254	5.88
357.624	5.3
357.993	5.57
358.362	5.74
358.731	5.58
359.1	5.48
359.469	5.9
359.838	5.6
360.207	5.67
360.576	5.79
360.945	5.76
361.314	5.5
361.682	6.03
362.051	5.9
362.42	5.61
362.788	5.71
363.157	5.95
363.525	5.7
363.894	5.74
364.262	5.83
364.631	5.75
364.999	5.71
365.367	5.86
365.735	5.92
366.104	5.67
366.472	6.03
366.84	5.74
367.208	6.32
367.576	5.97
367.944	5.97
368.312	5.76
368.68	5.9
369.048	5.91
369.416	6.19
369.783	5.52
370.151	5.5
370.519	5.73
370.886	6.32
371.254	5.87
371.621	5.75
371.989	6.01
372.356	5.97
372.724	6.04
373.091	5.69
373.458	6.08
373.826	6.26
374.193	6.19
374.56	6.04
374.927	5.94
375.294	5.96
375.661	5.91
376.028	6.21
376.395	5.86
376.762	5.62
377.129	6.25
377.496	5.98
377.863	6.17
378.229	6.59
378.596	5.95
378.963	6.48
379.329	5.97
379.696	6.25
380.062	5.92
380.429	6.44
380.795	6.4
381.161	6.13
381.528	6.09
381.894	5.8
382.26	6.1
382.626	6.15
382.993	6.49
383.359	5.91
383.725	6.15
384.091	6.07
384.457	6.11
384.823	6.05
385.188	6.08
385.554	6.02
385.92	6.34
386.286	6.27
386.651	6.18
387.017	6.07
387.383	5.92
387.748	6.07
388.114	6.15
388.479	6.26
388.845	5.8
389.21	6.15
389.575	6.41
389.94	6.11
390.306	6
390.671	6.57
391.036	5.98
391.401	6.22
391.766	6.15
392.131	6.03
392.496	6.21
392.861	6.09
393.226	6.13
393.591	6.18
393.956	6.16
394.32	6.28
394.685	5.78
395.05	6.23
395.414	6.37
395.779	6.26
396.143	6.13
396.508	6.03
396.872	6.09
397.236	6.15
397.601	6.08
397.965	6.35
398.329	6.17
398.694	6.26
399.058	6.15
399.422	6.15
399.786	6.18
400.15	6.06
400.514	6.44
400.878	6.12
401.242	6.34
401.605	6.04
401.969	6.22
402.333	6.32
402.697	6.39
403.06	6.23
403.424	6.18
403.787	6.22
404.151	6.2
404.514	6.32
404.878	6.39
405.241	6.29
405.604	6.49
405.968	6.33
406.331	6.33
406.694	6.35
407.057	6.4
407.42	6.48
407.783	6.11
408.146	6.34
408.509	6.16
408.872	6.11
409.235	6.31
409.598	6.16
409.961	6.53
410.323	6.52
410.686	6.2
411.049	6.52
411.411	6.38
411.774	6.19
412.136	6.31
412.499	6.19
412.861	6.3
413.223	6.47
413.586	6.26
413.948	6.52
414.31	6.19
414.672	6.44
415.035	6.38
415.397	6.41
415.759	6.49
416.121	6.06
416.483	6.24
416.845	6.25
417.206	5.98
417.568	6.31
417.93	6.25
418.292	6.42
418.653	6.24
419.015	6.15
419.377	6.13
419.738	6.42
420.1	6.08
420.461	6.27
420.822	6.19
421.184	6.18
421.545	6.05
421.906	6.22
422.267	6.2
422.629	6.12
422.99	6.14
423.351	6.06
423.712	6.08
424.073	6.1
424.434	6.22
424.795	6.22
425.155	6.13
425.516	6.25
425.877	6.15
426.238	6.02
426.598	6.1
426.959	6.05
427.32	6.12
427.68	6.07
428.041	6.11
428.401	6.14
428.761	6.26
429.122	6.16
429.482	6.13
429.842	6.14
430.202	6.35
430.563	6.41
430.923	6.5
431.283	6.23
431.643	6.33
432.003	6.5
432.363	6.39
432.722	6.47
433.082	6.52
433.442	6.34
433.802	6.55
434.161	6.26
434.521	6.29
434.881	6.37
435.24	6.18
435.6	6.23
435.959	6.01
436.319	6.17
436.678	6.33
437.037	6.31
437.396	6.19
437.756	6.39
438.115	6.23
438.474	6.22
438.833	6.4
439.192	6.23
439.551	6.16
439.91	6.44
440.269	6.3
440.628	6.1
440.987	6.27
441.345	6.26
441.704	6.33
442.063	6.2
442.421	6.21
442.78	6.22
443.138	6.19
443.497	6.19
443.855	6.26
444.214	6.12
444.572	6.28
444.93	6.25
445.288	6.3
445.647	6.46
446.005	6.31
446.363	6.2
446.721	6.18
447.079	6.13
447.437	6.14
447.795	6.25
448.153	5.99
448.51	6.21
448.868	6.05
449.226	6.19
449.584	6.17
449.941	6.1
450.299	6.26
450.656	6.23
451.014	6.32
451.371	6.38
451.729	6.26
452.086	6.2
452.443	6.19
452.801	6.42
453.158	6.33
453.515	6.29
453.872	6.35
454.229	6.47
454.586	6.37
454.943	6.3
455.3	6.2
455.657	6.19
456.014	6.19
456.371	6.4
456.727	6.46
457.084	6.39
457.441	6.16
457.797	6.4
458.154	6.37
458.51	6.26
458.867	6.39
459.223	6.44
459.58	6.5
459.936	6.41
460.292	6.44
460.648	6.37
461.005	6.21
461.361	6.18
461.717	6.05
462.073	6.19
462.429	6.02
462.785	6.14
463.141	6.12
463.496	6.29
463.852	6.29
464.208	6.24
464.564	6.37
464.919	6.21
465.275	6.5
465.631	6.42
465.986	6.31
466.342	6.63
466.697	6.46
467.052	6.34
467.408	6.55
467.763	6.32
468.118	6.53
468.473	6.31
468.829	6.13
469.184	6.35
469.539	6.32
469.894	6.22
470.249	6.28
470.603	6.18
470.958	6.33
471.313	6.31
471.668	6.26
472.023	6.22
472.377	6.24
472.732	6.37
473.086	6.42
473.441	6.15
473.795	6.49
474.15	6.22
474.504	6.19
474.859	6.47
475.213	6.07
475.567	6.36
475.921	6.27
476.275	6.48
476.63	6.27
476.984	6.04
477.338	6.4
477.692	6.27
478.045	6.45
478.399	6.44
478.753	6.11
479.107	6.22
479.461	6.33
479.814	6.4
480.168	6.39
480.521	6.24
480.875	6.44
481.228	6.23
481.582	6.18
481.935	6.21
482.289	6.26
482.642	6.23
482.995	6.27
483.348	6.19
483.701	6.16
484.055	6.17
484.408	6.17
484.761	6.14
485.114	5.96
485.466	5.92
485.819	5.81
486.172	5.78
486.525	5.77
486.878	5.8
487.23	5.92
487.583	5.93
487.936	5.98
488.288	6.12
488.641	5.97
488.993	6.02
489.345	5.89
489.698	5.86
490.05	5.87
490.402	5.91
490.754	5.87
491.107	5.91
491.459	5.97
491.811	5.99
492.163	6.09
492.515	6.04
492.866	6.03
493.218	6.06
493.57	6
493.922	5.84
494.274	5.88
494.625	5.92
494.977	6.05
495.328	6.16
495.68	6.21
496.031	6.16
496.383	6.22
496.734	6.17
497.086	6.08
497.437	6.34
497.788	6.21
498.139	6.21
498.49	6.22
498.842	6.09
499.193	6.09
499.544	6.07
499.894	6.12
500.245	6.18
500.596	6.12
500.947	6.15
501.298	6.05
501.648	6.18
501.999	6.22
502.35	6.25
502.7	6.16
503.051	6.17
503.401	6.2
503.752	6.24
504.102	6.13
504.452	6.11
504.803	6.15
505.153	6.15
505.503	6.24
505.853	6.14
506.203	6.12
506.553	6.08
506.903	6.16
507.253	6.06
507.603	6.21
507.953	6.17
508.303	6.38
508.652	6.13
509.002	6.28
509.352	5.95
509.701	6.14
510.051	6.16
510.4	6.08
510.75	6.02
511.099	5.9
511.449	6.08
511.798	6.14
512.147	6.01
512.496	6.07
512.846	6.04
513.195	6.08
513.544	6.06
513.893	6.12
514.242	6.11
514.591	6
514.939	6.16
515.288	5.99
515.637	6.1
515.986	6.01
516.334	6
516.683	6.12
517.032	6.26
517.38	6.05
517.729	6.01
518.077	6.01
518.426	5.95
518.774	6.08
519.122	5.98
519.47	5.95
519.819	6.02
520.167	6.08
520.515	6.06
520.863	5.88
521.211	5.83
521.559	5.97
521.907	5.97
522.255	6.04
522.602	6.03
522.95	5.97
523.298	5.94
523.645	6.15
523.993	6.02
524.341	5.87
524.688	5.99
525.036	5.83
525.383	5.95
525.73	6.01
526.078	6.01
526.425	5.88
526.772	5.98
527.119	5.89
527.466	5.79
527.814	5.78
528.161	5.74
528.508	5.8
528.854	5.85
529.201	5.83
529.548	5.81
529.895	5.68
530.242	5.64
530.588	5.57
530.935	5.48
531.282	5.55
531.628	5.58
531.975	5.58
532.321	5.62
532.667	5.71
533.014	5.73
533.36	5.77
533.706	5.74
534.052	5.91
534.399	5.84
534.745	5.81
535.091	5.69
535.437	5.63
535.783	5.51
536.129	5.62
536.474	5.69
536.82	5.61
537.166	5.85
537.512	5.78
537.857	5.74
538.203	5.82
538.549	5.73
538.894	5.64
539.239	5.7
539.585	5.67
539.93	5.74
540.276	5.72
540.621	5.72
540.966	5.8
541.311	5.9
541.656	5.72
542.001	5.78
542.346	5.67
542.691	5.79
543.036	5.59
543.381	5.53
543.726	5.47
544.071	5.52
544.415	5.55
544.76	5.52
545.105	5.54
545.449	5.54
545.794	5.67
546.138	5.69
546.483	5.67
546.827	5.54
547.171	5.73
547.516	5.79
547.86	5.75
548.204	5.75
548.548	5.69
548.892	5.68
549.236	5.63
549.58	5.65
549.924	5.74
550.268	5.77
550.612	5.7
550.956	5.7
551.3	5.83
551.643	5.75
551.987	5.64
552.33	5.97
552.674	5.64
553.017	5.73
553.361	5.65
553.704	5.76
554.048	5.87
554.391	5.73
554.734	5.79
555.077	5.65
555.42	5.63
555.764	5.69
556.107	5.78
556.45	5.69
556.793	5.67
557.135	5.72
557.478	5.61
557.821	5.89
558.164	5.83
558.507	5.85
558.849	5.67
559.192	5.81
559.534	5.76
559.877	5.74
560.219	5.74
560.562	5.59
560.904	5.72
561.246	5.98
561.589	5.7
561.931	5.41
562.273	5.58
562.615	5.79
562.957	5.56
563.299	5.92
563.641	5.69
563.983	5.67
564.325	5.68
564.667	5.8
565.008	5.56
565.35	5.8
565.692	5.52
566.033	5.56
566.375	5.68
566.716	5.64
567.058	5.67
567.399	5.63
567.741	5.73
568.082	5.58
568.423	5.66
568.764	5.68
569.105	5.38
569.447	5.49
569.788	5.41
570.129	5.55
570.47	5.62
570.811	5.56
571.151	5.61
571.492	5.41
571.833	5.59
572.174	5.55
572.514	5.53
572.855	5.61
573.195	5.39
573.536	5.49
573.876	5.47
574.217	5.41
574.557	5.55
574.898	5.56
575.238	5.54
575.578	5.66
575.918	5.44
576.258	5.47
576.598	5.62
576.938	5.54
577.278	5.52
577.618	5.39
577.958	5.47
578.298	5.62
578.638	5.38
578.977	5.51
579.317	5.55
579.657	5.5
579.996	5.54
580.336	5.59
580.675	5.67
581.014	5.23
581.354	5.63
581.693	5.52
582.032	5.69
582.372	5.56
582.711	5.45
583.05	5.46
583.389	5.54
583.728	5.67
584.067	5.68
584.406	5.51
584.745	5.46
585.083	5.81
585.422	5.75
585.761	5.65
586.1	5.5
586.438	5.39
586.777	5.51
587.115	5.58
587.454	5.36
587.792	5.66
588.13	5.59
588.469	5.36
588.807	5.4
589.145	5.84
589.483	5.31
589.821	5.36
590.159	5.46
590.497	5.51
590.835	5.55
591.173	5.49
591.511	5.59
591.849	5.65
592.187	5.5
592.524	5.58
592.862	5.5
593.2	5.34
593.537	5.26
593.875	5.29
594.212	5.43
594.55	5.69
594.887	5.14
595.224	5.25
595.561	5.43
595.899	5.51
596.236	5.71
596.573	5.42
596.91	5.56
597.247	5.28
597.584	5.58
597.921	5.38
598.258	5.44
598.594	5.42
598.931	5.37
599.268	5.38
599.604	5.32
599.941	5.52
600.277	5.4
600.614	5.29
600.95	5.46
601.287	5.35
601.623	5.22
601.959	5.41
602.296	5.32
602.632	5.47
602.968	5.5
603.304	5.25
603.64	5.36
603.976	5.33
604.312	5.14
604.648	5.36
604.984	5.36
605.319	5.42
605.655	5.29
605.991	5.28
606.326	5.33
606.662	5.35
606.998	5.31
607.333	5.26
607.668	5.34
608.004	5.32
608.339	5.21
608.674	5.26
609.01	5.4
609.345	5.42
609.68	5.54
610.015	5.44
610.35	5.4
610.685	5.53
611.02	5.45
611.355	5.49
611.689	5.28
612.024	5.35
612.359	5.29
612.694	5.26
613.028	5.28
613.363	5.33
613.697	5.52
614.032	5.37
614.366	5.28
614.7	5.37
615.035	5.43
615.369	5.57
615.703	5.41
616.037	5.17
616.371	5.52
616.705	5.49
617.039	5.55
617.373	5.36
617.707	5.45
618.041	5.37
618.375	5.23
618.709	5.68
619.042	5.7
619.376	5.49
619.71	5.7
620.043	5.17
620.377	5.13
620.71	5.06
621.043	5.86
621.377	5.29
621.71	5.38
622.043	5.23
622.376	5.62
622.709	5.47
623.043	5.22
623.376	5.37
623.709	5.34
624.041	5.33
624.374	5.42
624.707	5.39
625.04	5.3
625.373	5.11
625.705	5.25
626.038	5.42
626.37	5.58
626.703	5.36
627.035	5.45
627.368	5.32
627.7	5.57
628.032	5.79
628.365	5.36
628.697	5.2
629.029	5.34
629.361	5.02
629.693	5.39
630.025	5.42
630.357	5.04
630.689	5.32
631.021	5.44
631.353	5.53
631.684	5.07
632.016	5.61
632.348	5.51
632.679	4.84
633.011	5.52
633.342	5.23
633.674	5.58
634.005	5.25
634.336	5.94
634.668	5.42
634.999	5.5
635.33	5.54
635.661	5.63
635.992	5.13
636.323	5.28
636.654	5.38
636.985	5.31
637.316	5.3
637.647	5.57
637.977	5.1
638.308	5.63
638.639	5.11
638.969	5.33
639.3	5.1
639.63	5.7
639.961	5.19
640.291	5.56
640.622	5.27
640.952	5.18
641.282	5.32
641.612	5.59
641.943	5.33
642.273	5.4
642.603	5.5
642.933	5.11
643.263	4.73
643.592	5.51
643.922	5.7
644.252	5.06
644.582	5.49
644.911	5.17
645.241	5.29
645.571	5.12
645.9	5.55
646.23	5.59
646.559	5.49
646.888	5.8
647.218	5.26
647.547	5.37
647.876	5.51
648.205	5.14
648.534	5.71
648.863	5.45
649.192	4.95
649.521	5.62
649.85	5.55
650.179	5.2
650.508	5.38
650.837	5.71
651.165	5.7
651.494	5.26
651.822	5.32
652.151	5.05
652.479	5.42
652.808	5.35
653.136	5.79
653.465	5.48
653.793	4.97
654.121	5.47
654.449	5.11
654.777	4.98
655.105	5.79
655.433	5.52
655.761	5.9
656.089	5.63
656.417	5.3
656.745	5.48
657.073	5.64
657.4	6.2
657.728	5.29
658.056	5.57
658.383	6.07
658.711	5.35
659.038	5.16
659.365	5.67
659.693	5.12
660.02	5.6
660.347	5.52
660.674	5.16
661.001	5.21
661.329	5.78
661.656	5.53
661.982	5.17
662.309	5.54
662.636	5.62
662.963	5.43
663.29	5.92
663.616	5.36
663.943	5.94
664.27	5.79
664.596	5.72
664.923	5.22
665.249	5.48
665.576	5.07
665.902	5.48
666.228	5.27
666.554	4.76
666.881	6.28
667.207	5.24
667.533	5.1
667.859	5.33
668.185	5.62
668.511	5.89
668.837	4.69
669.162	5.9
669.488	5.61
669.814	5.42
670.139	5.73
670.465	6.23
670.791	5.88
671.116	4.75
671.442	5.84
671.767	4.8
672.092	5.9
672.418	6.24
672.743	5.54
673.068	5.91
673.393	5.19
673.718	5.28
674.043	6.12
674.368	5.57
674.693	5.37
675.018	4.96
675.343	5.38
675.667	5.62
675.992	5.95
676.317	6.28
676.641	5.46
676.966	5.44
677.29	5.32
677.615	5.85
677.939	6.03
678.264	6.24
678.588	5.79
678.912	5.56
679.236	6
679.56	5.82
679.885	5.81
680.209	6.04
680.532	6.06
680.856	5.94
681.18	5.93
681.504	5.84
681.828	5.64
682.152	5.05
682.475	6.18
682.799	6.06
683.122	5.45
683.446	5.85
683.769	5.89
684.093	6.02
684.416	5.72
684.739	6.16
685.062	6.46
685.386	5.67
685.709	5.62
686.032	5.3
686.355	5.97
686.678	5.68
687.001	6.19
687.324	6.03
687.646	6.15
687.969	6.47
688.292	5.6
688.614	6.56
688.937	6.42
689.26	5.42
689.582	6.27
689.904	6.35
690.227	6.37
690.549	6.57
690.871	5.7
691.194	5.84
691.516	6.26
691.838	6.52
692.16	5.91
692.482	5.52
692.804	5.68
693.126	5.69
693.448	6.78
693.769	4.62
694.091	5.83
694.413	5.79
694.735	5.67
695.056	6.4
695.378	5.81
695.699	5.41
696.021	5.28
696.342	6.8
696.663	5.75
696.984	6.18
697.306	6.49
697.627	5.82
697.948	6.93
698.269	5.92
698.59	5.77
698.911	5.83
699.232	5.13
699.553	5.94
699.873	6.04
700.194	5.95
700.515	4.87
700.835	6.51
701.156	6.29
701.477	6.04
701.797	5.48
702.117	6.16
702.438	4.85
702.758	5.56
703.078	6.04
703.398	6.11
703.719	5.92
704.039	6.6
704.359	5.47
704.679	4.2
704.999	5.98
705.319	6.52
705.638	6.35
705.958	6.05
706.278	6.87
706.597	6.52
706.917	5.75
707.237	6.22
707.556	6
707.876	5.35
708.195	6.59
708.514	5.89
708.834	6.02
709.153	7.23
709.472	5.79
709.791	5.46
710.11	6.33
710.429	6.66
710.748	6.55
711.067	5.88
711.386	6.17
711.705	5.69
712.023	5.85
712.342	6.99
712.661	6.89
712.979	6.54
713.298	7.82
713.616	6.2
713.935	7.28
714.253	6.6
714.572	7.03
714.89	7.65
715.208	6.74
715.526	5.83
715.844	7.6
716.162	5.68
716.48	5.54
716.798	6.15
717.116	7.2
717.434	6.22
717.752	6.5
718.069	5.85
718.387	6.38
718.705	5.93
719.022	6.83
719.34	6.13
719.657	5.52
719.975	7.52
720.292	6.74
720.609	6.93
720.927	7.11
721.244	7.26
721.561	6.28
721.878	6.37
722.195	5.73
722.512	6.95
722.829	6.29
723.146	6.36
723.463	5.97
723.779	6.13
724.096	6.57
724.413	8.23
724.729	7.18
725.046	7.87
725.362	6.54
725.679	4.99
725.995	7.87
726.311	5.05
726.628	5.02
726.944	5.88
727.26	7.13
727.576	5.48
727.892	5.2
728.208	8.02
728.524	8.15
728.84	5.82
729.156	6.54
729.472	7.37
729.787	7.41
730.103	6.5
730.419	6.14
730.734	6.75
731.05	5.55
731.365	5.71
731.681	5.83
731.996	6.86
732.311	7.43
732.626	5.97
732.942	6.86
733.257	8.38
733.572	5.47
733.887	5.38
734.202	6.92
734.517	7.7
734.832	7.27
735.146	7.59
735.461	7.05
735.776	7.03
736.091	5.69
736.405	5.81
736.72	7.24
737.034	5.66
737.349	5.35
737.663	6.31
737.977	7.64
738.292	7.12
738.606	6.03
738.92	6.16
739.234	6.02
739.548	7.57
739.862	6.15
740.176	7.55
740.49	6.31
740.804	7.97
741.117	5.95
741.431	5.69
741.745	8.48
742.058	6.84
742.372	4.75
742.685	6.96
742.999	8.05
743.312	7.26
743.626	6.04
743.939	6.53
744.252	7.6
744.565	4.52
744.878	7.58
745.191	7.19
745.505	7.13
745.817	7.58
746.13	8.65
746.443	7.71
746.756	7.66
747.069	6.86
747.381	3.08
747.694	7.84
748.007	7.24
748.319	5.88
748.632	6.81
748.944	7.07
749.256	8.71
749.569	6.08
749.881	8.43
750.193	7.94
750.505	9.31
750.817	8.25
751.129	8.43
751.441	6.71
751.753	7.66
752.065	10.18
752.377	8.36
752.689	5.75
753	8.58
753.312	6.25
753.624	7.97
753.935	8.48
754.247	6.76
754.558	7.83
754.869	6.67
755.181	6.67
755.492	6.53
755.803	9.79
756.114	7.76
756.425	10.33
756.736	5.47
757.047	7.04
757.358	8.1
757.669	5.59
757.98	7.04
758.291	7.57
758.601	7.65
758.912	7.27
759.223	9.34
759.533	7.7
759.844	7.73
760.154	6.29
760.464	6.85
760.775	6.92
761.085	7.43
761.395	7.68
761.705	7.52
762.016	6.69
762.326	8.06
762.636	6.67
762.945	6.79
763.255	7.71
763.565	6.88
763.875	7.44
764.185	7.69
764.494	9.17
764.804	7.14
765.113	4.61
765.423	7.14
765.732	8.67
766.042	7.39
766.351	7.07
766.66	8.1
766.97	8.29
767.279	7.08
767.588	6.02
767.897	8.3
768.206	8.46
768.515	6.93
768.824	8.14
769.133	7.95
769.441	8.33
769.75	9.98
770.059	9.22
770.367	6.1
770.676	9.2
770.984	7.08
771.293	7.43
771.601	10.55
771.91	7.89
772.218	6.87
772.526	9.99
772.834	6.86
773.142	9.21
773.45	6.09
773.758	6.94
774.066	10.88
774.374	6.49
774.682	8.64
774.99	10.05
775.298	8.35
775.605	9.39
775.913	12.37
776.22	7.78
776.528	6.2
776.835	11.25
777.143	10.1
777.45	9.96
777.757	7.19
778.065	10.34
778.372	9.51
778.679	11.71
778.986	6.78
779.293	8.13
779.6	9.37
779.907	13.67
780.214	14.76
780.52	6.16
780.827	10.6
781.134	10.13
781.44	8.44
781.747	9.67
782.053	11.1
782.36	5.97
782.666	11.43
782.973	9.73
783.279	7.98
783.585	10.8
783.891	8.38
784.197	7.71
784.503	5.65
784.809	8.62
785.115	9.42
785.421	13.79
785.727	11.15
786.033	9.63
786.339	10.11
786.644	11.07
786.95	5.33
787.255	12.38
787.561	7.76
787.866	9.71
788.172	10.42
788.477	9.99
788.782	6.51
789.088	13.9
789.393	5.45
789.698	8.72
790.003	11.46
790.308	8.8
790.613	10.16
790.918	9.35
791.223	7.86
791.527	5.09
791.832	10.37
792.137	9.63
792.441	13.51
792.746	8.75
793.05	9.7
793.355	10.48
793.659	9.66
793.963	11.01
794.268	7.48
794.572	8.45
794.876	10.44
795.18	6.79
795.484	8.24
795.788	8.71
796.092	10.98
796.396	10.11
796.7	10.66
797.004	11.26
797.307	5.21
797.611	9.71
797.915	9.67
798.218	10.7
798.522	8.79
798.825	9.58
799.128	13.24
799.432	10.2
799.735	7.55
800.038	9.99
800.341	9.52
800.644	6.56
800.947	9.33
801.25	9.26
801.553	12.27
801.856	14.65
802.159	7.15
802.462	12.07
802.764	13.16
803.067	9.91
803.37	13.22
803.672	8.65
803.975	8.97
804.277	15.31
804.579	15.24
804.882	11.4
805.184	11.64
805.486	12.39
805.788	12.34
806.09	11.32
806.392	12.68
806.694	8.62
806.996	8.23
807.298	9.18
807.6	13.71
807.902	14.13
808.203	7.72
808.505	11.92
808.807	9.5
809.108	17.2
809.409	11.1
809.711	10.01
810.012	9.91
810.313	4.91
810.615	13.43
810.916	3.01
811.217	11.07
811.518	10.87
811.819	14.21
812.12	13.35
812.421	12.8
812.722	7.27
813.023	13.73
813.323	8.69
813.624	11.86
813.925	21.91
814.225	16.45
814.526	16.94
814.826	14.23
815.126	13.33
815.427	15.16
815.727	14.19
816.027	3.9
816.327	10.32
816.627	15.42
816.927	11.89
817.227	11.15
817.527	14.62
817.827	7.6
818.127	3.66
818.427	15
818.727	9.55
819.026	13.94
819.326	5.5
819.625	13.72
819.925	8.68
820.224	15.49
820.524	5.38
820.823	3.4
821.122	-2.36
821.421	13.26
821.72	18.77
822.019	11.33
822.318	8.58
822.617	13.53
822.916	14.28
823.215	9.75
823.514	8.2
823.813	13.6
824.111	10.85
824.41	11.06
824.709	8.83
825.007	10.5
825.306	8.64
825.604	7.74
825.902	8.52
826.201	9.46
826.499	8.95
826.797	9.81
827.095	9.7
827.393	10.07
827.691	8.62
827.989	8.32
828.287	8.57
828.585	10.7
828.882	9.89
829.18	10.01
829.478	10.14
829.775	8.47
830.073	6.44
830.37	7.78
830.668	9.49
830.965	10.33
831.263	9.28
831.56	7.87
831.857	10.03
832.154	11.5
832.451	9.06
832.748	10.86
833.045	11.4
833.342	11
833.639	11.37
833.936	16.23
834.232	10.01
834.529	12.75
834.826	14
835.122	14.21
835.419	7.17
835.715	16
836.012	8.99
836.308	18.98
836.604	10.64
836.901	10.24
837.197	16.88
837.493	11.18
837.789	8.5
838.085	4.59
838.381	7.99
838.677	8.24
838.972	16.05
839.268	6.97
839.564	14.6
839.86	11.78
840.155	14.97
840.451	10.82
840.746	12.94
841.042	12.62
841.337	20.38
841.632	19.97
841.928	13.99
842.223	8.9
842.518	9.01
842.813	17.97
843.108	13.02
843.403	20.48
843.698	17.28
843.993	20.41
844.287	18.33
844.582	9.51
844.877	13.25
845.171	14.91
845.466	18.29
845.761	10.62
846.055	13.62
846.349	28.34
846.644	19.3
846.938	10.71
847.232	13.52
847.526	2.64
847.82	5.41
848.114	21.04
848.408	20.54
848.702	15.38
848.996	34.16
849.29	12.87
849.584	23.04
849.877	38.38
850.171	10.8
850.465	-5.02
850.758	30.06
851.052	6.82
851.345	26.64
851.638	22.63
851.932	28.72
852.225	15.43
852.518	23.63
852.811	14.41
853.104	22.12
853.397	10.34
853.69	10.81
853.983	33.85
854.276	34.32
854.569	22.29
854.861	-1.91
855.154	24.89
855.447	22.31
855.739	0.5
856.032	18.41
856.324	18.06
856.616	27.66
856.909	-3.84
857.201	-0.17
857.493	22.93
857.785	29.46
858.077	21.86
858.369	29.08
858.661	17.18
858.953	12.61
859.245	33.01
859.537	15.38
859.829	18.35
860.12	21.85
860.412	11.48
860.703	1.37
860.995	4.14
861.286	7.88
861.578	21.42
861.869	15.39
862.16	16.52
862.452	-19.48
862.743	25.35
863.034	42.68
863.325	26.97
863.616	18.07
863.907	16.37
864.198	26.92
864.488	21.54
864.779	7.33
865.07	18.55
865.36	12.09
865.651	27.53
865.941	5.69
866.232	21.45
866.522	35.85
866.813	17.88
867.103	37.23
867.393	37.24
867.683	4.65
867.973	16.65
868.263	33.4
868.553	14.86
868.843	27.61
869.133	3.93
869.423	20.11
869.713	14.6
870.002	29.95
870.292	11.86
870.582	29.03
870.871	-12.47
871.161	-4
871.45	12.88
871.739	57.81
872.029	12.76
872.318	29.56
872.607	28.59
872.896	10.74
873.185	26.5
873.474	15.22
873.763	13.92
874.052	19.07
874.341	17.72
874.63	35.29
874.918	-26.4
875.207	35.27
875.496	21.29
875.784	33.3
876.073	-1.37
876.361	12.48
876.649	39.27
876.938	49.39
877.226	32.97
877.514	20.08
877.802	-12.31
878.09	19.49
878.378	34.06
878.666	11.87
878.954	45.26
879.242	25.06
879.53	29.09
879.817	6.97
880.105	2.76
880.392	11.43
880.68	28.17
880.967	32.18
881.255	29.24
881.542	33.85
881.83	6.93
882.117	10.25
882.404	22.94
882.691	18.25
882.978	14.31
883.265	13.68
883.552	38.29
883.839	11.37
884.126	26.08
884.413	0.62
884.699	24.31
884.986	17.09
885.273	24.47
885.559	24.47
885.846	24.47
