Data from 0160_chest_Reflection__1__97.txt Node

Date: Fri Sep 22 21:06:29 CDT 2023
User: ToomeyLab
Spectrometer: FLMS14357
Trigger mode: 0
Integration Time (sec): 1.000000E-2
Scans to average: 100
Electric dark correction enabled: true
Nonlinearity correction enabled: false
Boxcar width: 0
XAxis mode: Wavelengths
Number of Pixels in Spectrum: 2048
>>>>>Begin Spectral Data<<<<<
189.047	57.37
189.435	57.37
189.823	57.37
190.211	243.45
190.599	-154.93
190.987	120.84
191.375	89.33
191.763	105.62
192.151	143.96
192.538	-200
192.926	274.96
193.314	-2.44
193.702	21.57
194.089	130.63
194.477	4.41
194.864	110.39
195.252	104.71
195.639	-18.34
196.027	2268.29
196.414	-145.82
196.801	10.77
197.189	-20.51
197.576	236.23
197.963	621.05
198.351	28.94
198.738	54.16
199.125	12.87
199.512	60.28
199.899	42.07
200.286	10.93
200.673	-7.3
201.06	18.06
201.447	47.3
201.833	-58.14
202.22	35.32
202.607	63.21
202.994	28.91
203.38	25.56
203.767	23.95
204.154	26.31
204.54	17.33
204.927	15.55
205.313	17.7
205.699	33.91
206.086	45.13
206.472	54.89
206.858	47.41
207.245	34.87
207.631	27.07
208.017	6.33
208.403	40.05
208.789	17.25
209.175	48.7
209.561	34.69
209.947	40.03
210.333	29.64
210.719	-50.64
211.105	29.6
211.491	25.18
211.876	33.57
212.262	21.14
212.648	18.84
213.034	43.23
213.419	23.59
213.805	21.17
214.19	29.1
214.576	23.1
214.961	47.31
215.346	26.85
215.732	29.42
216.117	13.67
216.502	45.2
216.888	9.98
217.273	28.87
217.658	-17.93
218.043	35.61
218.428	23.2
218.813	-27.17
219.198	12.54
219.583	2.68
219.968	-2.46
220.353	34.74
220.738	7.08
221.122	16.54
221.507	-3.04
221.892	6.39
222.276	1.98
222.661	-8.13
223.046	27.69
223.43	21.74
223.815	2.85
224.199	-4.57
224.583	14.4
224.968	15.98
225.352	-0.44
225.736	9.61
226.121	8.9
226.505	11.34
226.889	7.28
227.273	1.98
227.657	6.76
228.041	7.39
228.425	7.57
228.809	2.03
229.193	2.2
229.577	2.41
229.961	3.85
230.344	3.55
230.728	1.31
231.112	1.33
231.495	1.39
231.879	2.86
232.263	1.39
232.646	3.6
233.03	1.28
233.413	0.27
233.797	3.02
234.18	0.91
234.563	4.62
234.946	3.55
235.33	-0.23
235.713	1.02
236.096	0.89
236.479	2.83
236.862	3.85
237.245	3.6
237.628	3.51
238.011	3.59
238.394	2.73
238.777	4.1
239.16	2.59
239.543	3.27
239.925	3.5
240.308	3.69
240.691	2.35
241.073	2.74
241.456	2.25
241.838	2.45
242.221	1.71
242.603	1.68
242.986	1.73
243.368	1.61
243.75	2.76
244.133	1.58
244.515	1.53
244.897	1.84
245.279	1.53
245.661	1.36
246.043	1.23
246.425	0.94
246.807	1.8
247.189	0.06
247.571	2.87
247.953	2.56
248.335	2.07
248.717	1.53
249.098	1.51
249.48	1.29
249.862	1.33
250.243	1.27
250.625	1.83
251.006	1.32
251.388	1.98
251.769	1.65
252.151	0.97
252.532	1.83
252.913	1.53
253.295	2.65
253.676	2.28
254.057	1.38
254.438	2.15
254.819	1.32
255.2	1.46
255.581	1.43
255.962	2.99
256.343	1.96
256.724	1.58
257.105	1.54
257.486	1.11
257.867	1.83
258.247	2.29
258.628	0.82
259.009	2.55
259.389	0.7
259.77	2.62
260.15	2.11
260.531	1.41
260.911	1.79
261.292	1.39
261.672	1.62
262.052	1.62
262.432	1.56
262.813	1.43
263.193	1.26
263.573	2.14
263.953	1.57
264.333	1.49
264.713	2.08
265.093	1.07
265.473	0.81
265.853	1.26
266.233	1.57
266.612	1.8
266.992	1.56
267.372	0.89
267.752	2.02
268.131	1.39
268.511	1.53
268.89	2.12
269.27	1.3
269.649	1.83
270.029	1.67
270.408	1.57
270.787	1.4
271.167	2.1
271.546	1.43
271.925	1.39
272.304	1.22
272.683	1.7
273.062	2.19
273.441	1.39
273.82	1.49
274.199	1.77
274.578	1.82
274.957	1.36
275.336	1.78
275.715	1.52
276.093	1.65
276.472	1.15
276.851	1.38
277.229	0.79
277.608	2.07
277.986	1.47
278.365	1.65
278.743	1.9
279.122	1.95
279.5	2.48
279.878	1.2
280.257	1.95
280.635	1.86
281.013	2.25
281.391	0.69
281.769	1.74
282.147	1.54
282.525	1.64
282.903	1.95
283.281	1.3
283.659	2.01
284.037	1.29
284.415	1.65
284.792	1.55
285.17	1.59
285.548	2.09
285.925	1.7
286.303	1.3
286.68	1.25
287.058	1.61
287.435	1.85
287.813	1.29
288.19	0.82
288.567	1.66
288.945	1.71
289.322	1.68
289.699	1.4
290.076	1.74
290.453	1.37
290.83	1.32
291.207	1.43
291.584	1.39
291.961	1.11
292.338	1.37
292.715	1.57
293.092	1.21
293.469	2.04
293.845	1.62
294.222	1.87
294.599	2.18
294.975	2.12
295.352	1.6
295.728	1.22
296.105	1.48
296.481	1.51
296.858	1.84
297.234	1.39
297.61	1.9
297.986	1.57
298.363	1.28
298.739	1.81
299.115	1.89
299.491	1.88
299.867	1.84
300.243	1.41
300.619	1.73
300.995	1.4
301.371	2.38
301.746	1.73
302.122	1.45
302.498	2.06
302.874	1.6
303.249	2.01
303.625	1.45
304	1.76
304.376	2.04
304.751	1.96
305.127	1.89
305.502	1.69
305.878	1.91
306.253	2.02
306.628	1.59
307.003	1.77
307.378	2.1
307.754	1.51
308.129	1.77
308.504	1.71
308.879	1.69
309.254	1.88
309.629	1.34
310.003	2.33
310.378	2.27
310.753	2.09
311.128	2.16
311.502	2.13
311.877	1.77
312.252	1.66
312.626	1.85
313.001	1.98
313.375	1.97
313.75	2.15
314.124	2.19
314.498	1.7
314.873	2.01
315.247	2.42
315.621	1.84
315.995	1.89
316.369	1.9
316.743	2.15
317.117	2.53
317.491	2.87
317.865	1.66
318.239	2.48
318.613	2.4
318.987	2.33
319.361	2.11
319.734	2.12
320.108	2.61
320.482	2.27
320.855	2
321.229	2.46
321.602	2.27
321.976	2.22
322.349	2.73
322.723	2.34
323.096	2.1
323.469	2.12
323.843	2.05
324.216	2.85
324.589	2.09
324.962	1.69
325.335	1.96
325.708	2.08
326.081	2.35
326.454	1.8
326.827	2.41
327.2	2.34
327.573	2.67
327.945	2.01
328.318	2.27
328.691	2.16
329.063	1.87
329.436	2.21
329.809	2.4
330.181	2.4
330.553	1.79
330.926	2.56
331.298	2.15
331.671	2.01
332.043	2.07
332.415	2.43
332.787	2.74
333.159	1.87
333.532	2.28
333.904	2.47
334.276	1.99
334.648	1.85
335.02	2.4
335.391	2.73
335.763	2.27
336.135	2.54
336.507	2.44
336.879	2.14
337.25	2.74
337.622	2.25
337.993	2.58
338.365	3.01
338.736	2.42
339.108	2.78
339.479	2.16
339.851	2.07
340.222	2.41
340.593	1.93
340.964	1.7
341.336	1.72
341.707	2.54
342.078	2.19
342.449	2.58
342.82	1.89
343.191	2.12
343.562	2.45
343.933	2.25
344.303	2.12
344.674	2.6
345.045	1.8
345.416	2.25
345.786	2.08
346.157	2.24
346.527	2.25
346.898	1.7
347.268	1.83
347.639	1.87
348.009	2.3
348.38	2.12
348.75	2.56
349.12	2.07
349.49	2.54
349.861	2.3
350.231	2.33
350.601	2.1
350.971	2.71
351.341	1.94
351.711	1.62
352.081	1.79
352.45	2.06
352.82	2.93
353.19	2.58
353.56	1.69
353.929	2.51
354.299	1.83
354.669	2.08
355.038	2.29
355.408	2.22
355.777	2.54
356.147	1.88
356.516	2.71
356.885	2.27
357.254	2.48
357.624	1.93
357.993	2.24
358.362	2.12
358.731	2.01
359.1	1.86
359.469	2.3
359.838	1.84
360.207	2.07
360.576	2.47
360.945	2.05
361.314	2.59
361.682	2.59
362.051	2.17
362.42	2.54
362.788	2.21
363.157	2.36
363.525	2.33
363.894	2.35
364.262	2.09
364.631	2.1
364.999	2.07
365.367	2.32
365.735	2.26
366.104	2.44
366.472	2.79
366.84	2.12
367.208	2.45
367.576	2.54
367.944	2.12
368.312	2.27
368.68	2.33
369.048	2.31
369.416	2.38
369.783	2.21
370.151	2.15
370.519	2.46
370.886	2.55
371.254	2.47
371.621	2.11
371.989	2.26
372.356	2.02
372.724	2.73
373.091	2.13
373.458	2.05
373.826	2.22
374.193	2.35
374.56	2.53
374.927	2.62
375.294	2.18
375.661	2.3
376.028	2.32
376.395	2.47
376.762	2.14
377.129	2.52
377.496	2.87
377.863	2.53
378.229	2.36
378.596	2.36
378.963	2.42
379.329	2.51
379.696	2.88
380.062	2.22
380.429	2.14
380.795	2.41
381.161	2.46
381.528	2.47
381.894	2.16
382.26	2.42
382.626	2.31
382.993	2.75
383.359	2.35
383.725	2.34
384.091	2.48
384.457	2.34
384.823	2.45
385.188	2.36
385.554	2.4
385.92	2.93
386.286	2.45
386.651	2.46
387.017	2.51
387.383	2.32
387.748	2.39
388.114	2.2
388.479	2.36
388.845	2.33
389.21	2.33
389.575	2.56
389.94	2.13
390.306	2.64
390.671	2.64
391.036	2.25
391.401	2.25
391.766	2.26
392.131	2.43
392.496	2.49
392.861	2.54
393.226	2.62
393.591	2.5
393.956	2.34
394.32	2.29
394.685	2.23
395.05	2.61
395.414	2.39
395.779	2.43
396.143	2.41
396.508	2.63
396.872	2.47
397.236	2.44
397.601	2.41
397.965	2.7
398.329	2.44
398.694	2.46
399.058	2.37
399.422	2.52
399.786	2.41
400.15	2.6
400.514	2.58
400.878	2.4
401.242	2.84
401.605	2.47
401.969	2.39
402.333	2.75
402.697	2.28
403.06	2.47
403.424	2.27
403.787	2.41
404.151	2.43
404.514	2.65
404.878	2.65
405.241	2.72
405.604	2.54
405.968	2.64
406.331	2.66
406.694	2.53
407.057	2.42
407.42	2.48
407.783	2.42
408.146	2.51
408.509	2.56
408.872	2.38
409.235	2.49
409.598	2.4
409.961	2.56
410.323	2.64
410.686	2.45
411.049	2.86
411.411	2.54
411.774	2.41
412.136	2.4
412.499	2.42
412.861	2.64
413.223	2.48
413.586	2.51
413.948	2.57
414.31	2.35
414.672	2.52
415.035	2.44
415.397	2.68
415.759	2.67
416.121	2.48
416.483	2.66
416.845	2.61
417.206	2.37
417.568	2.55
417.93	2.54
418.292	2.76
418.653	2.27
419.015	2.49
419.377	2.46
419.738	2.56
420.1	2.39
420.461	2.59
420.822	2.46
421.184	2.52
421.545	2.41
421.906	2.48
422.267	2.48
422.629	2.53
422.99	2.42
423.351	2.42
423.712	2.4
424.073	2.38
424.434	2.53
424.795	2.53
425.155	2.55
425.516	2.46
425.877	2.47
426.238	2.36
426.598	2.36
426.959	2.41
427.32	2.54
427.68	2.52
428.041	2.48
428.401	2.61
428.761	2.61
429.122	2.45
429.482	2.58
429.842	2.45
430.202	2.49
430.563	2.53
430.923	2.84
431.283	2.81
431.643	2.68
432.003	2.6
432.363	2.59
432.722	2.56
433.082	2.66
433.442	2.6
433.802	2.73
434.161	2.55
434.521	2.53
434.881	2.65
435.24	2.54
435.6	2.47
435.959	2.58
436.319	2.48
436.678	2.68
437.037	2.68
437.396	2.51
437.756	2.57
438.115	2.67
438.474	2.42
438.833	2.76
439.192	2.75
439.551	2.6
439.91	2.68
440.269	2.64
440.628	2.47
440.987	2.58
441.345	2.62
441.704	2.71
442.063	2.6
442.421	2.53
442.78	2.65
443.138	2.59
443.497	2.59
443.855	2.61
444.214	2.48
444.572	2.7
444.93	2.64
445.288	2.61
445.647	2.71
446.005	2.61
446.363	2.52
446.721	2.67
447.079	2.58
447.437	2.55
447.795	2.7
448.153	2.56
448.51	2.62
448.868	2.58
449.226	2.6
449.584	2.66
449.941	2.53
450.299	2.66
450.656	2.66
451.014	2.75
451.371	2.71
451.729	2.7
452.086	2.69
452.443	2.76
452.801	2.8
453.158	2.69
453.515	2.72
453.872	2.74
454.229	2.75
454.586	2.69
454.943	2.68
455.3	2.65
455.657	2.62
456.014	2.68
456.371	2.74
456.727	2.85
457.084	2.65
457.441	2.65
457.797	2.82
458.154	2.7
458.51	2.59
458.867	2.74
459.223	2.79
459.58	2.8
459.936	2.88
460.292	2.92
460.648	2.93
461.005	2.85
461.361	2.78
461.717	2.54
462.073	2.75
462.429	2.59
462.785	2.65
463.141	2.63
463.496	2.81
463.852	2.81
464.208	2.71
464.564	2.97
464.919	2.79
465.275	2.96
465.631	2.86
465.986	2.84
466.342	2.88
466.697	3.03
467.052	2.81
467.408	2.87
467.763	2.81
468.118	3.01
468.473	2.83
468.829	2.74
469.184	2.81
469.539	2.94
469.894	2.97
470.249	2.9
470.603	2.75
470.958	2.82
471.313	2.89
471.668	2.89
472.023	2.81
472.377	2.8
472.732	2.83
473.086	3.01
473.441	2.7
473.795	3.17
474.15	2.9
474.504	2.87
474.859	2.94
475.213	2.72
475.567	2.72
475.921	2.89
476.275	2.98
476.63	2.64
476.984	2.76
477.338	3.09
477.692	2.79
478.045	3.05
478.399	3
478.753	2.93
479.107	2.89
479.461	2.86
479.814	2.97
480.168	3.02
480.521	2.92
480.875	3.05
481.228	2.85
481.582	2.82
481.935	2.89
482.289	2.89
482.642	2.87
482.995	2.88
483.348	3
483.701	2.86
484.055	2.89
484.408	2.83
484.761	2.99
485.114	2.78
485.466	2.75
485.819	2.7
486.172	2.68
486.525	2.66
486.878	2.71
487.23	2.74
487.583	2.82
487.936	2.85
488.288	2.87
488.641	2.86
488.993	2.82
489.345	2.78
489.698	2.77
490.05	2.77
490.402	2.76
490.754	2.73
491.107	2.8
491.459	2.88
491.811	2.94
492.163	2.92
492.515	2.96
492.866	2.9
493.218	2.96
493.57	2.86
493.922	2.78
494.274	2.81
494.625	2.84
494.977	2.98
495.328	3.04
495.68	2.99
496.031	2.93
496.383	2.94
496.734	3.1
497.086	3.13
497.437	3.04
497.788	3.12
498.139	3.09
498.49	3.16
498.842	2.92
499.193	3.07
499.544	3.14
499.894	3.04
500.245	3.08
500.596	3.12
500.947	3.19
501.298	3.07
501.648	3.07
501.999	3.12
502.35	3.13
502.7	3.15
503.051	3.21
503.401	3.23
503.752	3.22
504.102	3.18
504.452	3.09
504.803	3.22
505.153	3.27
505.503	3.22
505.853	3.22
506.203	3.06
506.553	3.24
506.903	3.12
507.253	3.2
507.603	3.25
507.953	3.36
508.303	3.29
508.652	3.3
509.002	3.24
509.352	3.19
509.701	3.23
510.051	3.33
510.4	3.25
510.75	3.2
511.099	3.08
511.449	3.16
511.798	3.36
512.147	3.29
512.496	3.23
512.846	3.3
513.195	3.32
513.544	3.24
513.893	3.37
514.242	3.2
514.591	3.36
514.939	3.39
515.288	3.16
515.637	3.33
515.986	3.24
516.334	3.35
516.683	3.31
517.032	3.49
517.38	3.34
517.729	3.37
518.077	3.52
518.426	3.33
518.774	3.34
519.122	3.35
519.47	3.28
519.819	3.33
520.167	3.47
520.515	3.33
520.863	3.25
521.211	3.26
521.559	3.31
521.907	3.37
522.255	3.38
522.602	3.36
522.95	3.45
523.298	3.58
523.645	3.53
523.993	3.46
524.341	3.43
524.688	3.53
525.036	3.4
525.383	3.49
525.73	3.55
526.078	3.51
526.425	3.47
526.772	3.6
527.119	3.47
527.466	3.33
527.814	3.36
528.161	3.32
528.508	3.39
528.854	3.48
529.201	3.45
529.548	3.45
529.895	3.39
530.242	3.35
530.588	3.28
530.935	3.22
531.282	3.26
531.628	3.33
531.975	3.39
532.321	3.38
532.667	3.45
533.014	3.45
533.36	3.52
533.706	3.52
534.052	3.57
534.399	3.65
534.745	3.56
535.091	3.47
535.437	3.42
535.783	3.39
536.129	3.48
536.474	3.56
536.82	3.47
537.166	3.7
537.512	3.7
537.857	3.65
538.203	3.73
538.549	3.6
538.894	3.57
539.239	3.6
539.585	3.54
539.93	3.72
540.276	3.67
540.621	3.76
540.966	3.77
541.311	3.8
541.656	3.74
542.001	3.99
542.346	3.65
542.691	3.93
543.036	3.7
543.381	3.64
543.726	3.6
544.071	3.61
544.415	3.63
544.76	3.66
545.105	3.71
545.449	3.68
545.794	3.78
546.138	3.77
546.483	3.75
546.827	3.91
547.171	3.89
547.516	3.95
547.86	3.96
548.204	3.88
548.548	3.9
548.892	3.94
549.236	3.92
549.58	3.9
549.924	4.01
550.268	4.12
550.612	3.92
550.956	3.97
551.3	4.09
551.643	4.12
551.987	4.1
552.33	4.33
552.674	3.96
553.017	4.07
553.361	4.17
553.704	4.18
554.048	4.24
554.391	4.05
554.734	4.1
555.077	4.12
555.42	4.05
555.764	4.15
556.107	4.24
556.45	4.25
556.793	4.36
557.135	4.29
557.478	4.31
557.821	4.27
558.164	4.28
558.507	4.49
558.849	4.17
559.192	4.51
559.534	4.54
559.877	4.42
560.219	4.37
560.562	4.45
560.904	4.51
561.246	4.55
561.589	4.61
561.931	4.43
562.273	4.41
562.615	4.43
562.957	4.4
563.299	4.48
563.641	4.31
563.983	4.6
564.325	4.65
564.667	4.64
565.008	4.6
565.35	4.64
565.692	4.79
566.033	4.51
566.375	4.67
566.716	4.55
567.058	4.59
567.399	4.69
567.741	4.87
568.082	4.64
568.423	4.67
568.764	4.79
569.105	4.37
569.447	4.67
569.788	4.61
570.129	4.85
570.47	4.83
570.811	4.76
571.151	4.63
571.492	4.74
571.833	4.8
572.174	4.69
572.514	4.59
572.855	4.74
573.195	4.8
573.536	4.8
573.876	4.75
574.217	4.7
574.557	4.76
574.898	4.88
575.238	4.76
575.578	4.96
575.918	4.72
576.258	4.73
576.598	4.86
576.938	4.94
577.278	5.16
577.618	4.86
577.958	4.93
578.298	5.04
578.638	4.91
578.977	5.17
579.317	5.2
579.657	5.12
579.996	5.19
580.336	5.33
580.675	5.43
581.014	5.03
581.354	5.21
581.693	5.4
582.032	5.13
582.372	5.6
582.711	5.42
583.05	5.3
583.389	5.6
583.728	5.21
584.067	5.19
584.406	5.44
584.745	5.08
585.083	5.51
585.422	5.73
585.761	5.47
586.1	5.45
586.438	5.52
586.777	5.51
587.115	5.39
587.454	5.29
587.792	5.6
588.13	5.62
588.469	5.32
588.807	5.77
589.145	5.61
589.483	5.49
589.821	5.59
590.159	5.7
590.497	5.72
590.835	5.79
591.173	5.54
591.511	5.76
591.849	5.8
592.187	5.81
592.524	5.93
592.862	5.73
593.2	5.67
593.537	5.66
593.875	5.63
594.212	5.82
594.55	6.26
594.887	5.91
595.224	5.84
595.561	6.05
595.899	6.07
596.236	6.2
596.573	6.1
596.91	6.03
597.247	5.86
597.584	6.19
597.921	6.28
598.258	6
598.594	6.09
598.931	5.86
599.268	6.07
599.604	6.04
599.941	5.97
600.277	5.94
600.614	6.07
600.95	6.3
601.287	6.2
601.623	6.21
601.959	6.25
602.296	6
602.632	6.02
602.968	6.28
603.304	6.06
603.64	6.33
603.976	6.34
604.312	6.21
604.648	6.17
604.984	6.18
605.319	6.23
605.655	6.19
605.991	6.34
606.326	6.46
606.662	6.25
606.998	6.37
607.333	6.41
607.668	6.48
608.004	6.49
608.339	6.57
608.674	6.47
609.01	6.37
609.345	6.64
609.68	6.76
610.015	6.85
610.35	6.64
610.685	6.98
611.02	6.45
611.355	6.74
611.689	6.67
612.024	6.79
612.359	6.63
612.694	6.67
613.028	6.63
613.363	6.85
613.697	6.51
614.032	6.68
614.366	6.7
614.7	6.86
615.035	6.84
615.369	6.9
615.703	6.84
616.037	6.96
616.371	7.09
616.705	7.19
617.039	7.12
617.373	6.92
617.707	6.94
618.041	7.06
618.375	6.92
618.709	6.98
619.042	7.45
619.376	7.56
619.71	7.42
620.043	7.07
620.377	7.13
620.71	7.31
621.043	7.33
621.377	7.06
621.71	7.39
622.043	7.62
622.376	7.68
622.709	7.44
623.043	7.5
623.376	7.51
623.709	7.77
624.041	7.47
624.374	7.72
624.707	7.45
625.04	7.63
625.373	7.33
625.705	7.66
626.038	7.15
626.37	7.72
626.703	7.62
627.035	7.71
627.368	7.59
627.7	7.94
628.032	7.78
628.365	7.85
628.697	7.72
629.029	7.73
629.361	7.86
629.693	7.79
630.025	7.69
630.357	7.58
630.689	7.87
631.021	7.61
631.353	7.71
631.684	7.62
632.016	7.89
632.348	7.88
632.679	7.33
633.011	7.95
633.342	7.89
633.674	8.05
634.005	7.83
634.336	8.07
634.668	8.34
634.999	8.07
635.33	8.29
635.661	7.97
635.992	8.09
636.323	7.86
636.654	8.04
636.985	7.79
637.316	8.16
637.647	8.37
637.977	7.94
638.308	8.6
638.639	8.15
638.969	8.34
639.3	8.13
639.63	8.26
639.961	8.16
640.291	8.59
640.622	8.74
640.952	8.29
641.282	8.43
641.612	8.67
641.943	8.45
642.273	8.5
642.603	8.37
642.933	8.27
643.263	8.37
643.592	8.48
643.922	8.74
644.252	8.47
644.582	8.99
644.911	8.76
645.241	8.62
645.571	8.44
645.9	8.7
646.23	8.84
646.559	8.78
646.888	9.27
647.218	8.93
647.547	8.7
647.876	8.68
648.205	8.84
648.534	9.34
648.863	8.93
649.192	8.48
649.521	8.84
649.85	9.26
650.179	8.79
650.508	9.06
650.837	9.26
651.165	8.82
651.494	9.52
651.822	9.51
652.151	9.02
652.479	9.29
652.808	8.74
653.136	9.59
653.465	9.25
653.793	8.95
654.121	10
654.449	9.18
654.777	9.14
655.105	9.7
655.433	9.22
655.761	9.78
656.089	9.11
656.417	9.16
656.745	9.15
657.073	9.68
657.4	9.89
657.728	9.43
658.056	9.21
658.383	9.89
658.711	9.33
659.038	9.53
659.365	9.15
659.693	9.62
660.02	10.08
660.347	10.22
660.674	9.23
661.001	9.2
661.329	9.37
661.656	9.51
661.982	9.26
662.309	9.77
662.636	9.54
662.963	9.78
663.29	9.68
663.616	9.88
663.943	9.98
664.27	9.63
664.596	9.55
664.923	9.3
665.249	10.07
665.576	9.66
665.902	10.1
666.228	10.33
666.554	10.01
666.881	10.71
667.207	10.27
667.533	10.05
667.859	10.44
668.185	10.51
668.511	10.55
668.837	10.2
669.162	10.35
669.488	10.65
669.814	10.22
670.139	10.7
670.465	10.47
670.791	10.43
671.116	10.22
671.442	10.9
671.767	9.93
672.092	10.6
672.418	11.21
672.743	10.58
673.068	10.76
673.393	10.21
673.718	11.14
674.043	10.82
674.368	10.23
674.693	10.01
675.018	10.36
675.343	10.64
675.667	10.74
675.992	10.77
676.317	10.33
676.641	10.59
676.966	11.4
677.29	10.43
677.615	11.04
677.939	11.16
678.264	10.91
678.588	11.05
678.912	10.33
679.236	10.69
679.56	11.05
679.885	10.84
680.209	11.08
680.532	10.53
680.856	10.6
681.18	11.48
681.504	11.12
681.828	11.29
682.152	10.88
682.475	11.77
682.799	10.88
683.122	11.15
683.446	10.98
683.769	11.37
684.093	11.25
684.416	10.89
684.739	11.22
685.062	11.55
685.386	11.19
685.709	11.72
686.032	11.39
686.355	11.44
686.678	12.13
687.001	11.43
687.324	11.73
687.646	11.63
687.969	11.58
688.292	11.69
688.614	12.59
688.937	11.82
689.26	10.6
689.582	11.88
689.904	11.24
690.227	12.27
690.549	11.87
690.871	11.04
691.194	11.71
691.516	11.58
691.838	11.82
692.16	11.09
692.482	11.48
692.804	11.53
693.126	11.55
693.448	12.86
693.769	12.32
694.091	12.53
694.413	11.73
694.735	12.42
695.056	12.24
695.378	12.42
695.699	11.33
696.021	11.48
696.342	12.23
696.663	11.74
696.984	11.5
697.306	12.43
697.627	11.1
697.948	11.52
698.269	12.82
698.59	12.17
698.911	12.23
699.232	13.1
699.553	11.81
699.873	12.47
700.194	11.65
700.515	11.18
700.835	12.49
701.156	12.48
701.477	11.63
701.797	12
702.117	12.71
702.438	12.25
702.758	11.95
703.078	12.76
703.398	13.08
703.719	12.37
704.039	12.96
704.359	13.19
704.679	11.49
704.999	13.98
705.319	12.6
705.638	11.77
705.958	13.4
706.278	14.16
706.597	13.41
706.917	12.2
707.237	11.9
707.556	13.07
707.876	12.05
708.195	12.98
708.514	13.06
708.834	12.04
709.153	12.99
709.472	12.78
709.791	12.5
710.11	13.62
710.429	13.7
710.748	13.35
711.067	13.15
711.386	13.94
711.705	12.64
712.023	13.55
712.342	13.14
712.661	14.1
712.979	13.33
713.298	14.55
713.616	14.01
713.935	14.18
714.253	14.13
714.572	13.92
714.89	14.68
715.208	14.35
715.526	13.07
715.844	13.97
716.162	13.07
716.48	13.17
716.798	13.74
717.116	13.34
717.434	13.02
717.752	14.65
718.069	13.16
718.387	13.76
718.705	13.08
719.022	13.76
719.34	14.42
719.657	13.28
719.975	14.05
720.292	14.23
720.609	13.9
720.927	15.22
721.244	14.76
721.561	14.75
721.878	12.98
722.195	14.11
722.512	14.36
722.829	13.27
723.146	14.26
723.463	14.1
723.779	13.7
724.096	14.94
724.413	15.46
724.729	15.26
725.046	15.24
725.362	14.93
725.679	14.21
725.995	15.66
726.311	12.94
726.628	12.97
726.944	13.23
727.26	14.65
727.576	13.84
727.892	13.15
728.208	15.03
728.524	13.96
728.84	13.05
729.156	13.83
729.472	16.01
729.787	15.63
730.103	13.47
730.419	14.77
730.734	14.19
731.05	13.81
731.365	15.08
731.681	14.53
731.996	16.18
732.311	14.48
732.626	14.61
732.942	16.11
733.257	14.86
733.572	13.7
733.887	16.39
734.202	15.42
734.517	15.85
734.832	14.5
735.146	16
735.461	14.84
735.776	15.41
736.091	15.68
736.405	15.04
736.72	15.01
737.034	15.33
737.349	14.94
737.663	15.93
737.977	15.65
738.292	15.64
738.606	13.09
738.92	15.46
739.234	15.51
739.548	14.9
739.862	14.98
740.176	15.75
740.49	15.09
740.804	15.35
741.117	16
741.431	14.73
741.745	17.05
742.058	15.29
742.372	14.88
742.685	15.75
742.999	17.67
743.312	16.25
743.626	14.37
743.939	15.58
744.252	16.05
744.565	12.64
744.878	16.04
745.191	15.61
745.505	14.99
745.817	16.19
746.13	17.29
746.443	17.91
746.756	16.37
747.069	15.83
747.381	13.34
747.694	17.6
748.007	17.44
748.319	16.3
748.632	16.74
748.944	16.82
749.256	17.46
749.569	16.93
749.881	16.39
750.193	17.34
750.505	19.3
750.817	17.54
751.129	16.55
751.441	15.43
751.753	17.06
752.065	17.55
752.377	17.9
752.689	16.14
753	15.09
753.312	16.81
753.624	17.27
753.935	17.23
754.247	15.28
754.558	16.96
754.869	18.85
755.181	16.57
755.492	15.89
755.803	17.75
756.114	15.53
756.425	18.85
756.736	16.48
757.047	16.72
757.358	16.89
757.669	15.47
757.98	19.47
758.291	17.83
758.601	17.02
758.912	16.26
759.223	19.04
759.533	17.89
759.844	18.92
760.154	19.08
760.464	17.45
760.775	16.72
761.085	18.18
761.395	18.44
761.705	17.6
762.016	16.31
762.326	16.91
762.636	17.41
762.945	16.65
763.255	16.66
763.565	17.74
763.875	16.52
764.185	17.03
764.494	18.22
764.804	15.88
765.113	16.25
765.423	17.83
765.732	16.33
766.042	17.57
766.351	16.41
766.66	17.58
766.97	17.39
767.279	17.39
767.588	17.04
767.897	19.31
768.206	17.64
768.515	18.21
768.824	18.17
769.133	17.22
769.441	16.49
769.75	18.53
770.059	20.26
770.367	18.5
770.676	18.06
770.984	16.57
771.293	19.28
771.601	17.83
771.91	18.78
772.218	17.77
772.526	18.36
772.834	16.93
773.142	19.5
773.45	19.36
773.758	16.94
774.066	17.44
774.374	19.47
774.682	17.33
774.99	20.51
775.298	18.69
775.605	20.13
775.913	23.36
776.22	17.44
776.528	19.77
776.835	17.68
777.143	22.8
777.45	20.28
777.757	18.26
778.065	20.72
778.372	19.62
778.679	18.64
778.986	20.18
779.293	17.14
779.6	18.4
779.907	18.28
780.214	22.27
780.52	18.26
780.827	20.99
781.134	20.96
781.44	18.07
781.747	17.93
782.053	18.63
782.36	20.08
782.666	21.94
782.973	20.56
783.279	16.07
783.585	19.17
783.891	19.26
784.197	21.45
784.503	18.71
784.809	17.64
785.115	18.26
785.421	19.82
785.727	20.64
786.033	19.09
786.339	21.19
786.644	21.23
786.95	18.51
787.255	23.92
787.561	22.08
787.866	22.36
788.172	22.86
788.477	17.93
788.782	20.84
789.088	20.94
789.393	17.31
789.698	20.6
790.003	19.35
790.308	20.41
790.613	16.71
790.918	21.27
791.223	18.6
791.527	16.58
791.832	21.65
792.137	21.79
792.441	24.38
792.746	18.05
793.05	23.95
793.355	25.01
793.659	22.06
793.963	20.46
794.268	19.56
794.572	24.34
794.876	23.76
795.18	19.66
795.484	18.85
795.788	20.17
796.092	21.47
796.396	22.19
796.7	21.86
797.004	22.89
797.307	16.79
797.611	17.08
797.915	19.06
798.218	24.96
798.522	19.84
798.825	21.22
799.128	19.14
799.432	20.49
799.735	20.3
800.038	18.37
800.341	19.06
800.644	20.25
800.947	23.74
801.25	23.45
801.553	21.16
801.856	23.09
802.159	17.54
802.462	18.43
802.764	24.97
803.067	22.27
803.37	20.09
803.672	23.63
803.975	21.3
804.277	25.5
804.579	24.03
804.882	22.2
805.184	25.05
805.486	19.48
805.788	26
806.09	21.86
806.392	21.54
806.694	20.16
806.996	14.91
807.298	21.04
807.6	23.3
807.902	17.3
808.203	22.76
808.505	22.6
808.807	25.27
809.108	23.67
809.409	20.72
809.711	23.12
810.012	24.59
810.313	17.58
810.615	22.72
810.916	20.4
811.217	20.48
811.518	24.3
811.819	24.02
812.12	25.3
812.421	21.98
812.722	23.24
813.023	27.24
813.323	18.82
813.624	21.6
813.925	19.79
814.225	24.23
814.526	19.68
814.826	24.07
815.126	25.52
815.427	21.35
815.727	25.92
816.027	21.44
816.327	21.02
816.627	27.49
816.927	27.65
817.227	22.77
817.527	25.05
817.827	20.86
818.127	22.36
818.427	21.88
818.727	25.12
819.026	27.15
819.326	20.8
819.625	21.42
819.925	25.87
820.224	25.83
820.524	21.4
820.823	18.75
821.122	22.01
821.421	30.81
821.72	30.2
822.019	22.79
822.318	26.36
822.617	23.26
822.916	23.58
823.215	26.41
823.514	19.74
823.813	26.45
824.111	26.53
824.41	26.86
824.709	20.42
825.007	21.66
825.306	22.37
825.604	21.57
825.902	22.51
826.201	22.45
826.499	21.96
826.797	22.99
827.095	22.77
827.393	22.72
827.691	24.79
827.989	20.75
828.287	22.98
828.585	23.89
828.882	24.28
829.18	27.37
829.478	25.57
829.775	24.01
830.073	21.53
830.37	22.57
830.668	23.81
830.965	23.52
831.263	20.67
831.56	23.87
831.857	25.64
832.154	25.6
832.451	22.02
832.748	22.64
833.045	26.39
833.342	21.73
833.639	25.27
833.936	27.58
834.232	26.86
834.529	30.6
834.826	23.96
835.122	23.06
835.419	26.8
835.715	26.33
836.012	24.77
836.308	24.44
836.604	23.59
836.901	21.25
837.197	23.36
837.493	23.94
837.789	22.7
838.085	22.11
838.381	22.41
838.677	21.42
838.972	28.34
839.268	26.58
839.564	29.79
839.86	23.07
840.155	28.04
840.451	31.1
840.746	30.81
841.042	23.75
841.337	31.11
841.632	34.61
841.928	26.65
842.223	16.64
842.518	35.11
842.813	32.05
843.108	32.82
843.403	20.1
843.698	27.59
843.993	32.27
844.287	31.02
844.582	21.47
844.877	12.92
845.171	28.5
845.466	27.16
845.761	21.63
846.055	18.87
846.349	37.78
846.644	28.49
846.938	31.43
847.232	18.89
847.526	14.45
847.82	12.79
848.114	29.57
848.408	13.81
848.702	15.38
848.996	42.76
849.29	48.39
849.584	29.41
849.877	38.38
850.171	28.63
850.465	28.7
850.758	34.63
851.052	30
851.345	33.09
851.638	15.08
851.932	39.18
852.225	35.45
852.518	30.53
852.811	41.84
853.104	46
853.397	53.48
853.69	22.5
853.983	39.64
854.276	31.15
854.569	41.33
854.861	7.15
855.154	2.69
855.447	26.95
855.739	-1.04
856.032	46.87
856.324	9.45
856.616	48.37
856.909	20.91
857.201	14.49
857.493	33.85
857.785	40.8
858.077	44.61
858.369	30.49
858.661	30.96
858.953	23.81
859.245	45.22
859.537	31.83
859.829	36.48
860.12	60.92
860.412	38.73
860.703	6.39
860.995	31.55
861.286	40.57
861.578	33.26
861.869	41.23
862.16	32.04
862.452	2.98
862.743	40.36
863.034	48.3
863.325	52.62
863.616	41.44
863.907	23.58
864.198	14.26
864.488	22.34
864.779	20.79
865.07	34.36
865.36	9.73
865.651	27.66
865.941	3.12
866.232	46.01
866.522	43.13
866.813	40.57
867.103	41.48
867.393	20.86
867.683	23.95
867.973	34.16
868.263	18.99
868.553	31.55
868.843	35.29
869.133	37.91
869.423	50.86
869.713	30.19
870.002	28.41
870.292	62.7
870.582	34.43
870.871	7.14
871.161	9.59
871.45	50.41
871.739	61.12
872.029	28.33
872.318	38.38
872.607	32.86
872.896	3.98
873.185	31.69
873.474	17.45
873.763	16.04
874.052	33.24
874.341	29.68
874.63	54.64
874.918	33.2
875.207	33.46
875.496	27.43
875.784	35.06
876.073	36.79
876.361	47.81
876.649	41.48
876.938	45.64
877.226	39.94
877.514	45.05
877.802	27.48
878.09	27.73
878.378	48.08
878.666	32.61
878.954	45.19
879.242	28.62
879.53	20.26
879.817	66.06
880.105	0.48
880.392	39.1
880.68	34.33
880.967	33.19
881.255	76.28
881.542	43.96
881.83	48.97
882.117	32.01
882.404	27.85
882.691	55.26
882.978	58.78
883.265	35.47
883.552	52.1
883.839	22.71
884.126	32.39
884.413	6.07
884.699	39.8
884.986	32.06
885.273	29.52
885.559	29.52
885.846	29.52
