Data from 22-2_crown_Reflection__1__232.txt Node

Date: Thu Dec 15 18:17:39 CST 2022
User: ToomeyLab
Spectrometer: FLMS14357
Trigger mode: 0
Integration Time (sec): 1.000000E-2
Scans to average: 100
Electric dark correction enabled: true
Nonlinearity correction enabled: false
Boxcar width: 0
XAxis mode: Wavelengths
Number of Pixels in Spectrum: 2048
>>>>>Begin Spectral Data<<<<<
189.047	436.6
189.435	436.6
189.823	436.6
190.211	-410.15
190.599	-38.19
190.987	49.72
191.375	-68.73
191.763	1876.52
192.151	75.07
192.538	29.89
192.926	80.08
193.314	26.98
193.702	47.43
194.089	31.4
194.477	3948.28
194.864	35.01
195.252	6.31
195.639	240.68
196.027	203.88
196.414	-237.61
196.801	1649.09
197.189	564.9
197.576	-756.51
197.963	125.08
198.351	-22.64
198.738	-61.15
199.125	-90.08
199.512	3.29
199.899	-42.47
200.286	-34.96
200.673	-2.52
201.06	-16.09
201.447	-22.93
201.833	-10.85
202.22	-22.9
202.607	-162.64
202.994	-26.77
203.38	-1.67
203.767	-29.14
204.154	-15.77
204.54	14.87
204.927	-11.07
205.313	13.88
205.699	40.47
206.086	0.78
206.472	3.3
206.858	-5.15
207.245	-28.12
207.631	2.92
208.017	39.11
208.403	-98.67
208.789	28.81
209.175	-1.84
209.561	-123.17
209.947	4.14
210.333	-35.77
210.719	1.83
211.105	16.86
211.491	0.03
211.876	-35.68
212.262	30.3
212.648	0.11
213.034	-28.34
213.419	-22.66
213.805	-59.6
214.19	-14.32
214.576	-53.23
214.961	1
215.346	-8.47
215.732	-4.34
216.117	-2.29
216.502	-16.28
216.888	16.66
217.273	3.73
217.658	-19.65
218.043	-36.4
218.428	-31.24
218.813	-7.95
219.198	-42.26
219.583	-40.75
219.968	-8.95
220.353	-9.03
220.738	-11.66
221.122	-34
221.507	-16.39
221.892	-37.59
222.276	-27.87
222.661	-21.25
223.046	-10.97
223.43	11.16
223.815	-7.27
224.199	5.76
224.583	-10.09
224.968	-1.8
225.352	-17.8
225.736	10.59
226.121	-1.71
226.505	2.16
226.889	-2.14
227.273	1.02
227.657	2.84
228.041	1.46
228.425	0.4
228.809	2.08
229.193	3.43
229.577	2.87
229.961	3.07
230.344	3.03
230.728	4.36
231.112	4.07
231.495	2.59
231.879	3.1
232.263	3.67
232.646	3.45
233.03	3.53
233.413	3.13
233.797	2.33
234.18	2.23
234.563	4.27
234.946	2.38
235.33	2.9
235.713	2.13
236.096	4.27
236.479	4.46
236.862	2.41
237.245	1.05
237.628	5.21
238.011	1.75
238.394	2.23
238.777	3.56
239.16	4.11
239.543	3.95
239.925	2.58
240.308	2.86
240.691	3.11
241.073	1.64
241.456	4.15
241.838	3.99
242.221	3.18
242.603	3.6
242.986	4.16
243.368	3.39
243.75	4.14
244.133	4.19
244.515	3.76
244.897	3.68
245.279	3.16
245.661	3.78
246.043	2.6
246.425	4.29
246.807	3.88
247.189	3.97
247.571	3.57
247.953	3.63
248.335	3.68
248.717	3.98
249.098	3.96
249.48	3.69
249.862	3.94
250.243	3.79
250.625	3.61
251.006	4.56
251.388	2.77
251.769	3.11
252.151	3.59
252.532	3.03
252.913	3.92
253.295	3.77
253.676	3.6
254.057	3.59
254.438	3.75
254.819	3.21
255.2	3.5
255.581	3.38
255.962	3.44
256.343	4.68
256.724	4.1
257.105	2.76
257.486	2.46
257.867	2.56
258.247	2.89
258.628	3.32
259.009	2.99
259.389	2.01
259.77	3.16
260.15	4.03
260.531	3.65
260.911	3.71
261.292	3.84
261.672	3.74
262.052	3.91
262.432	3.49
262.813	3.78
263.193	3.65
263.573	3.39
263.953	3.16
264.333	3.22
264.713	3.81
265.093	3.65
265.473	3.06
265.853	3.74
266.233	4.07
266.612	3.17
266.992	3.39
267.372	3.47
267.752	3.74
268.131	3.41
268.511	3.25
268.89	4.15
269.27	2.74
269.649	3.41
270.029	2.98
270.408	3.17
270.787	3.51
271.167	3.65
271.546	3.55
271.925	3.58
272.304	3.41
272.683	3.05
273.062	3.39
273.441	3.37
273.82	3.43
274.199	3.53
274.578	3.38
274.957	3.19
275.336	3.72
275.715	3.79
276.093	2.93
276.472	3.02
276.851	2.97
277.229	3.17
277.608	3.44
277.986	3.35
278.365	3.63
278.743	3.07
279.122	3.08
279.5	3.16
279.878	3.68
280.257	3.54
280.635	3.33
281.013	3.17
281.391	3.3
281.769	3.73
282.147	2.81
282.525	3.15
282.903	2.93
283.281	3.5
283.659	3.5
284.037	3.51
284.415	3.35
284.792	3.42
285.17	3.2
285.548	3.36
285.925	3.44
286.303	3.83
286.68	3.37
287.058	3.43
287.435	3.13
287.813	3.51
288.19	3.37
288.567	3.07
288.945	2.86
289.322	3.44
289.699	3.52
290.076	3.48
290.453	2.69
290.83	3.61
291.207	3.05
291.584	3.28
291.961	3.15
292.338	3.24
292.715	3.12
293.092	3.61
293.469	3.28
293.845	3.28
294.222	3.81
294.599	2.87
294.975	3.23
295.352	3.3
295.728	3.31
296.105	3.3
296.481	3.51
296.858	3.08
297.234	2.84
297.61	3.3
297.986	3.81
298.363	3.32
298.739	3.7
299.115	3.2
299.491	3.56
299.867	2.96
300.243	3.27
300.619	2.92
300.995	3.5
301.371	3.23
301.746	3.08
302.122	3.17
302.498	3.32
302.874	3.65
303.249	3.36
303.625	3.28
304	3.15
304.376	3.62
304.751	3.42
305.127	3.33
305.502	3.43
305.878	3.33
306.253	3.31
306.628	3.24
307.003	3.19
307.378	2.98
307.754	3.49
308.129	2.84
308.504	3.48
308.879	3.23
309.254	3.41
309.629	3.5
310.003	3.02
310.378	3.39
310.753	3.27
311.128	3.51
311.502	3.32
311.877	3.21
312.252	3.05
312.626	3.63
313.001	3.56
313.375	3.36
313.75	3.41
314.124	3.63
314.498	3.88
314.873	2.93
315.247	3.23
315.621	3.3
315.995	3.18
316.369	3.18
316.743	3.18
317.117	2.77
317.491	3.59
317.865	2.82
318.239	3.73
318.613	3.21
318.987	3.12
319.361	2.88
319.734	3.18
320.108	3.68
320.482	3.89
320.855	3.17
321.229	3.44
321.602	3.28
321.976	2.86
322.349	3.79
322.723	3.94
323.096	2.9
323.469	2.88
323.843	3.01
324.216	3.24
324.589	3.98
324.962	3.06
325.335	3.14
325.708	3.56
326.081	3.52
326.454	3.51
326.827	3.37
327.2	3.23
327.573	4.21
327.945	3.52
328.318	3.44
328.691	3.4
329.063	2.94
329.436	3.08
329.809	3.67
330.181	3.84
330.553	3.66
330.926	3.55
331.298	3.18
331.671	3.46
332.043	3.24
332.415	3.43
332.787	3.82
333.159	3.69
333.532	3.61
333.904	3.8
334.276	4.01
334.648	3.78
335.02	3.48
335.391	3.45
335.763	3.72
336.135	3.5
336.507	3.36
336.879	3.54
337.25	3.71
337.622	3.81
337.993	3.49
338.365	3.52
338.736	4.02
339.108	3.58
339.479	3.93
339.851	3.74
340.222	4.11
340.593	3.75
340.964	3.55
341.336	3.68
341.707	3.75
342.078	3.53
342.449	3.5
342.82	3.73
343.191	3.6
343.562	3.58
343.933	3.6
344.303	3.41
344.674	3.38
345.045	3.71
345.416	3.95
345.786	4.14
346.157	3.54
346.527	3.62
346.898	3.3
347.268	3.66
347.639	3.45
348.009	3.78
348.38	3.71
348.75	3.82
349.12	3.63
349.49	3.61
349.861	3.73
350.231	3.5
350.601	3.46
350.971	3.7
351.341	3.98
351.711	3.27
352.081	3.54
352.45	3.3
352.82	3.37
353.19	3.44
353.56	3.62
353.929	3.76
354.299	3.81
354.669	3.62
355.038	4
355.408	3.52
355.777	4.17
356.147	3.62
356.516	3.35
356.885	3.41
357.254	3.54
357.624	3.22
357.993	3.53
358.362	3.82
358.731	4.05
359.1	3.72
359.469	3.82
359.838	3.78
360.207	3.65
360.576	3.93
360.945	3.93
361.314	3.75
361.682	3.77
362.051	3.94
362.42	3.63
362.788	4
363.157	3.69
363.525	3.82
363.894	3.63
364.262	3.9
364.631	3.99
364.999	3.91
365.367	3.56
365.735	3.43
366.104	3.64
366.472	3.53
366.84	4
367.208	3.97
367.576	3.65
367.944	3.94
368.312	3.54
368.68	3.91
369.048	3.94
369.416	3.74
369.783	3.65
370.151	4.13
370.519	4.16
370.886	3.79
371.254	3.88
371.621	3.86
371.989	3.97
372.356	4.08
372.724	3.57
373.091	3.84
373.458	3.62
373.826	3.98
374.193	3.86
374.56	3.97
374.927	3.7
375.294	3.88
375.661	3.95
376.028	4.04
376.395	3.67
376.762	3.66
377.129	3.82
377.496	3.78
377.863	3.76
378.229	4.1
378.596	4
378.963	4.04
379.329	3.91
379.696	3.75
380.062	3.9
380.429	3.78
380.795	3.88
381.161	3.72
381.528	3.58
381.894	3.9
382.26	3.96
382.626	3.83
382.993	4.18
383.359	3.99
383.725	3.58
384.091	4.09
384.457	3.6
384.823	3.91
385.188	3.87
385.554	4.13
385.92	3.73
386.286	3.85
386.651	3.67
387.017	4.1
387.383	3.94
387.748	4.02
388.114	3.9
388.479	3.92
388.845	3.72
389.21	4.24
389.575	4.33
389.94	4.26
390.306	3.96
390.671	4.06
391.036	4.03
391.401	4.13
391.766	3.97
392.131	4.3
392.496	3.97
392.861	3.8
393.226	3.84
393.591	4.04
393.956	4.05
394.32	4.08
394.685	4.13
395.05	4.13
395.414	4.14
395.779	4.24
396.143	3.94
396.508	3.89
396.872	4.01
397.236	4.32
397.601	4.22
397.965	3.84
398.329	4.1
398.694	3.72
399.058	4.08
399.422	4.16
399.786	4.09
400.15	4.1
400.514	4.08
400.878	4.16
401.242	4.02
401.605	4.17
401.969	4.09
402.333	4.03
402.697	4.56
403.06	4.02
403.424	3.97
403.787	4.12
404.151	4.12
404.514	4.35
404.878	3.98
405.241	4.04
405.604	4.06
405.968	4.09
406.331	4.24
406.694	4.15
407.057	4.08
407.42	4.17
407.783	4.17
408.146	4.02
408.509	4.18
408.872	4.08
409.235	4.32
409.598	4.27
409.961	4.18
410.323	3.92
410.686	4.05
411.049	4.26
411.411	4.18
411.774	4.12
412.136	4.1
412.499	4.37
412.861	3.79
413.223	3.97
413.586	4.13
413.948	4.4
414.31	4.19
414.672	4.02
415.035	4.17
415.397	4.13
415.759	3.91
416.121	3.96
416.483	4.09
416.845	4.02
417.206	4.02
417.568	4.19
417.93	4.27
418.292	4.06
418.653	4.06
419.015	4.15
419.377	4.13
419.738	4.3
420.1	4.07
420.461	3.99
420.822	4.17
421.184	4.11
421.545	4.1
421.906	4.22
422.267	4.11
422.629	4.02
422.99	3.99
423.351	4.06
423.712	4.13
424.073	4.27
424.434	4.22
424.795	4.13
425.155	4.06
425.516	4.12
425.877	4.1
426.238	4.04
426.598	4.12
426.959	4.14
427.32	4.13
427.68	4.25
428.041	4.23
428.401	4.13
428.761	4.3
429.122	4.22
429.482	4.24
429.842	4.28
430.202	4.13
430.563	4.14
430.923	4.31
431.283	4.32
431.643	4.32
432.003	4.15
432.363	4.34
432.722	4.22
433.082	3.97
433.442	4.46
433.802	4.25
434.161	4.2
434.521	4.06
434.881	4.16
435.24	4.25
435.6	4.34
435.959	4.22
436.319	4.28
436.678	4.43
437.037	4.19
437.396	4.3
437.756	4.19
438.115	4.29
438.474	4.17
438.833	4.29
439.192	4.12
439.551	4.24
439.91	4.2
440.269	4.19
440.628	4.13
440.987	4.27
441.345	4.33
441.704	4.22
442.063	4.2
442.421	4.32
442.78	4.23
443.138	4.3
443.497	4.29
443.855	4.33
444.214	4.15
444.572	4.42
444.93	4.32
445.288	4.33
445.647	4.16
446.005	4.26
446.363	4.37
446.721	4.28
447.079	4.22
447.437	4.26
447.795	4.35
448.153	4.3
448.51	4.3
448.868	4.2
449.226	4.22
449.584	4.25
449.941	4.4
450.299	4.37
450.656	4.41
451.014	4.52
451.371	4.45
451.729	4.39
452.086	4.29
452.443	4.37
452.801	4.24
453.158	4.46
453.515	4.19
453.872	4.35
454.229	4.32
454.586	4.23
454.943	4.3
455.3	4.49
455.657	4.35
456.014	4.38
456.371	4.52
456.727	4.5
457.084	4.47
457.441	4.36
457.797	4.39
458.154	4.32
458.51	4.4
458.867	4.31
459.223	4.27
459.58	4.43
459.936	4.35
460.292	4.33
460.648	4.24
461.005	4.23
461.361	4.34
461.717	4.3
462.073	4.42
462.429	4.39
462.785	4.44
463.141	4.47
463.496	4.49
463.852	4.59
464.208	4.35
464.564	4.39
464.919	4.43
465.275	4.49
465.631	4.57
465.986	4.53
466.342	4.41
466.697	4.46
467.052	4.45
467.408	4.45
467.763	4.44
468.118	4.31
468.473	4.4
468.829	4.23
469.184	4.6
469.539	4.37
469.894	4.52
470.249	4.5
470.603	4.55
470.958	4.56
471.313	4.49
471.668	4.57
472.023	4.4
472.377	4.34
472.732	4.64
473.086	4.42
473.441	4.49
473.795	4.64
474.15	4.36
474.504	4.43
474.859	4.31
475.213	4.46
475.567	4.39
475.921	4.65
476.275	4.42
476.63	4.47
476.984	4.31
477.338	4.52
477.692	4.42
478.045	4.44
478.399	4.53
478.753	4.34
479.107	4.5
479.461	4.44
479.814	4.47
480.168	4.5
480.521	4.46
480.875	4.51
481.228	4.59
481.582	4.52
481.935	4.56
482.289	4.54
482.642	4.57
482.995	4.46
483.348	4.41
483.701	4.52
484.055	4.37
484.408	4.35
484.761	4.29
485.114	4.2
485.466	4.19
485.819	4.21
486.172	4.26
486.525	4.29
486.878	4.42
487.23	4.42
487.583	4.45
487.936	4.41
488.288	4.36
488.641	4.33
488.993	4.26
489.345	4.31
489.698	4.3
490.05	4.33
490.402	4.37
490.754	4.4
491.107	4.42
491.459	4.48
491.811	4.55
492.163	4.47
492.515	4.38
492.866	4.33
493.218	4.27
493.57	4.39
493.922	4.37
494.274	4.5
494.625	4.56
494.977	4.52
495.328	4.55
495.68	4.43
496.031	4.65
496.383	4.43
496.734	4.43
497.086	4.65
497.437	4.64
497.788	4.65
498.139	4.58
498.49	4.52
498.842	4.61
499.193	4.47
499.544	4.59
499.894	4.58
500.245	4.55
500.596	4.62
500.947	4.56
501.298	4.53
501.648	4.56
501.999	4.59
502.35	4.48
502.7	4.74
503.051	4.63
503.401	4.68
503.752	4.55
504.102	4.63
504.452	4.5
504.803	4.5
505.153	4.73
505.503	4.63
505.853	4.7
506.203	4.66
506.553	4.58
506.903	4.67
507.253	4.62
507.603	4.66
507.953	4.63
508.303	4.71
508.652	4.56
509.002	4.7
509.352	4.71
509.701	4.59
510.051	4.72
510.4	4.73
510.75	4.55
511.099	4.48
511.449	4.62
511.798	4.64
512.147	4.64
512.496	4.67
512.846	4.68
513.195	4.58
513.544	4.69
513.893	4.63
514.242	4.67
514.591	4.63
514.939	4.66
515.288	4.8
515.637	4.69
515.986	4.69
516.334	4.77
516.683	4.84
517.032	4.52
517.38	4.55
517.729	4.53
518.077	4.63
518.426	4.67
518.774	4.57
519.122	4.65
519.47	4.54
519.819	4.62
520.167	4.59
520.515	4.58
520.863	4.54
521.211	4.64
521.559	4.65
521.907	4.68
522.255	4.6
522.602	4.65
522.95	4.69
523.298	4.66
523.645	4.72
523.993	4.67
524.341	4.74
524.688	4.61
525.036	4.73
525.383	4.81
525.73	4.56
526.078	4.74
526.425	4.6
526.772	4.66
527.119	4.68
527.466	4.67
527.814	4.67
528.161	4.7
528.508	4.73
528.854	4.64
529.201	4.53
529.548	4.58
529.895	4.45
530.242	4.43
530.588	4.49
530.935	4.48
531.282	4.57
531.628	4.64
531.975	4.58
532.321	4.63
532.667	4.67
533.014	4.7
533.36	4.7
533.706	4.68
534.052	4.65
534.399	4.64
534.745	4.54
535.091	4.51
535.437	4.6
535.783	4.65
536.129	4.63
536.474	4.84
536.82	4.74
537.166	4.7
537.512	4.66
537.857	4.67
538.203	4.67
538.549	4.65
538.894	4.66
539.239	4.75
539.585	4.77
539.93	4.8
540.276	4.72
540.621	4.86
540.966	4.77
541.311	4.75
541.656	4.65
542.001	4.69
542.346	4.62
542.691	4.51
543.036	4.52
543.381	4.58
543.726	4.66
544.071	4.69
544.415	4.73
544.76	4.65
545.105	4.7
545.449	4.75
545.794	4.71
546.138	4.69
546.483	4.8
546.827	4.81
547.171	4.78
547.516	4.83
547.86	4.75
548.204	4.75
548.548	4.73
548.892	4.81
549.236	4.72
549.58	4.98
549.924	4.89
550.268	4.91
550.612	4.83
550.956	5
551.3	5.06
551.643	4.74
551.987	4.91
552.33	5.01
552.674	5.03
553.017	4.9
553.361	4.94
553.704	4.97
554.048	4.88
554.391	4.85
554.734	4.75
555.077	4.84
555.42	4.73
555.764	4.96
556.107	4.88
556.45	4.88
556.793	4.93
557.135	4.89
557.478	4.96
557.821	4.97
558.164	5.12
558.507	4.76
558.849	4.92
559.192	4.97
559.534	4.86
559.877	4.8
560.219	4.68
560.562	5.01
560.904	5.07
561.246	4.8
561.589	5.07
561.931	4.87
562.273	4.88
562.615	4.89
562.957	4.8
563.299	4.84
563.641	5.03
563.983	4.69
564.325	4.87
564.667	4.92
565.008	4.87
565.35	4.8
565.692	4.99
566.033	4.96
566.375	4.93
566.716	4.77
567.058	4.9
567.399	4.87
567.741	4.95
568.082	4.81
568.423	4.85
568.764	4.92
569.105	4.9
569.447	4.91
569.788	4.89
570.129	4.8
570.47	5
570.811	4.86
571.151	4.87
571.492	4.9
571.833	4.83
572.174	5.02
572.514	4.93
572.855	4.99
573.195	4.78
573.536	4.98
573.876	4.84
574.217	4.78
574.557	4.78
574.898	4.94
575.238	5
575.578	4.95
575.918	4.86
576.258	5.13
576.598	4.91
576.938	4.87
577.278	4.83
577.618	4.92
577.958	4.82
578.298	4.94
578.638	4.88
578.977	4.99
579.317	4.72
579.657	4.88
579.996	5.09
580.336	5.03
580.675	4.99
581.014	4.93
581.354	4.88
581.693	5.13
582.032	5.34
582.372	4.96
582.711	5.16
583.05	4.92
583.389	5.25
583.728	5.08
584.067	4.93
584.406	5.19
584.745	5
585.083	5.08
585.422	5.05
585.761	5.12
586.1	5.05
586.438	4.93
586.777	5.08
587.115	4.87
587.454	4.82
587.792	4.86
588.13	5.17
588.469	4.98
588.807	5.11
589.145	4.98
589.483	4.53
589.821	5.07
590.159	4.95
590.497	4.93
590.835	4.92
591.173	5.38
591.511	5.2
591.849	4.97
592.187	4.77
592.524	5.05
592.862	4.85
593.2	5.05
593.537	5.07
593.875	4.96
594.212	5.11
594.55	5.23
594.887	5.07
595.224	5.17
595.561	4.95
595.899	5.06
596.236	5.02
596.573	4.85
596.91	4.93
597.247	5.14
597.584	5
597.921	4.88
598.258	5.02
598.594	5
598.931	4.75
599.268	4.87
599.604	4.95
599.941	5.08
600.277	5.01
600.614	4.92
600.95	4.99
601.287	4.88
601.623	4.92
601.959	5.38
602.296	4.99
602.632	5.04
602.968	4.95
603.304	4.9
603.64	5.09
603.976	4.95
604.312	4.94
604.648	4.92
604.984	5.1
605.319	5.01
605.655	4.97
605.991	4.99
606.326	5.15
606.662	4.83
606.998	5.05
607.333	4.99
607.668	4.92
608.004	5.11
608.339	5.04
608.674	4.9
609.01	5.29
609.345	4.98
609.68	4.93
610.015	5.08
610.35	5.07
610.685	4.62
611.02	4.88
611.355	5
611.689	4.83
612.024	5.08
612.359	5.26
612.694	4.98
613.028	4.92
613.363	5.01
613.697	5.19
614.032	5.02
614.366	5.19
614.7	5.22
615.035	5.14
615.369	5.19
615.703	5.25
616.037	5.09
616.371	4.97
616.705	5.23
617.039	5.06
617.373	5.01
617.707	5.14
618.041	4.7
618.375	4.75
618.709	5.2
619.042	4.95
619.376	5.22
619.71	4.89
620.043	5.15
620.377	5.05
620.71	5.08
621.043	5.1
621.377	5.36
621.71	5.34
622.043	5.3
622.376	4.98
622.709	5.26
623.043	5.13
623.376	5.03
623.709	5.17
624.041	5.08
624.374	5.03
624.707	5.12
625.04	5.27
625.373	5.07
625.705	5.13
626.038	4.98
626.37	4.95
626.703	5.05
627.035	5.26
627.368	5.15
627.7	5.17
628.032	4.89
628.365	5.36
628.697	5.35
629.029	4.99
629.361	5.18
629.693	4.85
630.025	5.29
630.357	5.21
630.689	5.17
631.021	5.36
631.353	5.16
631.684	5.14
632.016	4.98
632.348	5.27
632.679	5.28
633.011	5.08
633.342	5.1
633.674	5.04
634.005	5.49
634.336	4.97
634.668	4.75
634.999	4.87
635.33	5.18
635.661	5.17
635.992	5.18
636.323	5.14
636.654	5.22
636.985	4.93
637.316	5.27
637.647	5.41
637.977	5.12
638.308	5.42
638.639	5.05
638.969	5.17
639.3	5.18
639.63	5.13
639.961	5.39
640.291	4.73
640.622	5.31
640.952	5.17
641.282	4.85
641.612	5.04
641.943	4.71
642.273	4.9
642.603	5.5
642.933	5.63
643.263	5.42
643.592	5.45
643.922	5.72
644.252	5.02
644.582	4.94
644.911	5.31
645.241	4.77
645.571	5.16
645.9	5.44
646.23	5.39
646.559	4.65
646.888	5.4
647.218	5.01
647.547	5.24
647.876	4.81
648.205	4.92
648.534	5.35
648.863	5.09
649.192	5.14
649.521	4.92
649.85	5.55
650.179	5.52
650.508	5.05
650.837	5.1
651.165	5.36
651.494	5.18
651.822	4.92
652.151	4.5
652.479	5.36
652.808	5.33
653.136	5.19
653.465	4.67
653.793	4.98
654.121	5.33
654.449	5.17
654.777	4.74
655.105	5.12
655.433	5.33
655.761	5.22
656.089	5.08
656.417	5.24
656.745	5.45
657.073	4.86
657.4	4.99
657.728	4.77
658.056	5.26
658.383	5.06
658.711	4.98
659.038	5.79
659.365	5.66
659.693	5.11
660.02	5.02
660.347	4.96
660.674	5.02
661.001	5.13
661.329	4.81
661.656	4.61
661.982	4.94
662.309	5.17
662.636	4.96
662.963	5.11
663.29	4.88
663.616	4.85
663.943	5.22
664.27	5.33
664.596	4.82
664.923	5.27
665.249	5.22
665.576	5
665.902	4.99
666.228	5.24
666.554	5.41
666.881	4.91
667.207	5.35
667.533	5.07
667.859	5.36
668.185	5.32
668.511	5.36
668.837	5.33
669.162	5.72
669.488	4.76
669.814	5.22
670.139	4.42
670.465	5.5
670.791	5.2
671.116	4.76
671.442	5
671.767	4.85
672.092	5.07
672.418	5.12
672.743	5.59
673.068	4.76
673.393	5.49
673.718	4.95
674.043	4.82
674.368	5.13
674.693	5.43
675.018	5.46
675.343	5.48
675.667	5.1
675.992	5.15
676.317	4.75
676.641	5.56
676.966	5.21
677.29	4.91
677.615	4.81
677.939	5.71
678.264	4.86
678.588	5.72
678.912	5.21
679.236	4.76
679.56	5.02
679.885	4.43
680.209	5.71
680.532	5.63
680.856	5.31
681.18	5.35
681.504	4.75
681.828	4.96
682.152	5.17
682.475	5.28
682.799	5.16
683.122	5.47
683.446	4.56
683.769	5.93
684.093	5.32
684.416	4.95
684.739	4.55
685.062	5.49
685.386	4.88
685.709	5.34
686.032	5.61
686.355	5.07
686.678	5.39
687.001	4.75
687.324	5.14
687.646	5.47
687.969	5.43
688.292	5.16
688.614	5.51
688.937	5.25
689.26	5.67
689.582	5.39
689.904	5.35
690.227	5.29
690.549	5.31
690.871	4.98
691.194	5.48
691.516	5.02
691.838	5.77
692.16	5.11
692.482	4.9
692.804	4.95
693.126	4.74
693.448	5.84
693.769	5.12
694.091	5.52
694.413	5.45
694.735	5.1
695.056	5.54
695.378	4.78
695.699	4.8
696.021	6
696.342	4.72
696.663	5.35
696.984	4.76
697.306	4.85
697.627	5.99
697.948	4.93
698.269	5.43
698.59	4.72
698.911	4.53
699.232	5.64
699.553	5.68
699.873	4.9
700.194	5.8
700.515	5.3
700.835	5.32
701.156	5.91
701.477	5.32
701.797	4.31
702.117	5.06
702.438	5.31
702.758	5.07
703.078	5.72
703.398	4.79
703.719	5.33
704.039	5.71
704.359	5.58
704.679	5.68
704.999	5.68
705.319	3.92
705.638	4.12
705.958	4.48
706.278	5.38
706.597	5.21
706.917	5.31
707.237	5.28
707.556	6.08
707.876	4.83
708.195	5.69
708.514	4.93
708.834	5.43
709.153	4.84
709.472	5.61
709.791	4.65
710.11	5.48
710.429	5.71
710.748	5.7
711.067	5.47
711.386	5.5
711.705	5.29
712.023	6
712.342	4.62
712.661	5.75
712.979	5.84
713.298	5.5
713.616	5.36
713.935	5.79
714.253	4.73
714.572	5.43
714.89	5.01
715.208	4.52
715.526	4.66
715.844	5.38
716.162	4.65
716.48	5.43
716.798	5.23
717.116	5.08
717.434	5.12
717.752	5.27
718.069	5.53
718.387	5.13
718.705	5.37
719.022	5.48
719.34	4.69
719.657	5.06
719.975	4.85
720.292	5.83
720.609	5.08
720.927	4.74
721.244	6.03
721.561	4.5
721.878	5.14
722.195	6.33
722.512	5.16
722.829	4.39
723.146	5.35
723.463	4.98
723.779	3.32
724.096	3.66
724.413	5.53
724.729	5.9
725.046	5.38
725.362	6.35
725.679	5.06
725.995	4.09
726.311	4.64
726.628	5.2
726.944	5.45
727.26	4.55
727.576	5.11
727.892	5.04
728.208	5.94
728.524	4.42
728.84	4.77
729.156	4.11
729.472	4
729.787	4.15
730.103	5.37
730.419	4.1
730.734	5.4
731.05	4.39
731.365	5.87
731.681	5.46
731.996	5.63
732.311	4.38
732.626	5.2
732.942	5.72
733.257	5.93
733.572	4.95
733.887	5.01
734.202	5.91
734.517	4.94
734.832	4.97
735.146	5.45
735.461	4.8
735.776	6.08
736.091	6.28
736.405	5
736.72	4.33
737.034	4.84
737.349	4.93
737.663	6.54
737.977	5.56
738.292	3.28
738.606	6.17
738.92	6.15
739.234	5.84
739.548	5.88
739.862	4.31
740.176	4.47
740.49	5.08
740.804	6.69
741.117	6.32
741.431	4.61
741.745	5.69
742.058	4.14
742.372	3.78
742.685	4.61
742.999	3.28
743.312	5.68
743.626	5.86
743.939	4.02
744.252	4.7
744.565	5.58
744.878	2.75
745.191	6.22
745.505	5.19
745.817	6.47
746.13	4.06
746.443	5.21
746.756	4.38
747.069	6.15
747.381	5.23
747.694	5.26
748.007	6.07
748.319	6.12
748.632	5.85
748.944	4.1
749.256	4.76
749.569	4.58
749.881	5.83
750.193	4.9
750.505	6.61
750.817	5.15
751.129	5.81
751.441	5.07
751.753	6.46
752.065	5.41
752.377	7.72
752.689	4.55
753	5.54
753.312	5.45
753.624	4.24
753.935	3.24
754.247	6.01
754.558	6.15
754.869	7.23
755.181	4.73
755.492	5.02
755.803	5.14
756.114	3.46
756.425	3.42
756.736	4.91
757.047	7.06
757.358	4.83
757.669	5.71
757.98	4.8
758.291	4.02
758.601	5.33
758.912	4.26
759.223	4.69
759.533	4.21
759.844	5.53
760.154	5.42
760.464	5.12
760.775	5.19
761.085	4.24
761.395	4.47
761.705	5.58
762.016	5.77
762.326	5.43
762.636	5.79
762.945	4.8
763.255	3.57
763.565	6.21
763.875	4.23
764.185	6.52
764.494	4.52
764.804	5.01
765.113	5.08
765.423	5.77
765.732	6.24
766.042	6.83
766.351	6.23
766.66	5.7
766.97	6.11
767.279	4.64
767.588	4.23
767.897	5.01
768.206	6.39
768.515	6.43
768.824	7.83
769.133	4.1
769.441	4.71
769.75	3.82
770.059	4.73
770.367	5.31
770.676	4.33
770.984	3.93
771.293	3.57
771.601	3.26
771.91	3.83
772.218	3.21
772.526	5.09
772.834	3.07
773.142	5.41
773.45	5.8
773.758	4.86
774.066	3
774.374	8.1
774.682	4.25
774.99	3.07
775.298	0.51
775.605	0.09
775.913	4.23
776.22	1.29
776.528	3.84
776.835	7.54
777.143	7.01
777.45	1.36
777.757	4.07
778.065	4.32
778.372	3.63
778.679	8.73
778.986	5.95
779.293	2.65
779.6	5.15
779.907	4.85
780.214	3.83
780.52	4.23
780.827	5.77
781.134	4.84
781.44	5.79
781.747	5.08
782.053	1.88
782.36	4.15
782.666	3.67
782.973	1.63
783.279	4.6
783.585	4.64
783.891	3.64
784.197	3.3
784.503	3.99
784.809	8.84
785.115	7.61
785.421	9.6
785.727	6.7
786.033	3.09
786.339	5.55
786.644	2.03
786.95	3.94
787.255	0.49
787.561	4.22
787.866	5.32
788.172	6.41
788.477	3.46
788.782	0.23
789.088	3.98
789.393	5.52
789.698	1.91
790.003	4.59
790.308	3.08
790.613	6
790.918	3.11
791.223	5.4
791.527	8.15
791.832	3.89
792.137	6.06
792.441	1.02
792.746	4.25
793.05	3.53
793.355	4.21
793.659	6.31
793.963	2.92
794.268	4.6
794.572	5.07
794.876	1.99
795.18	4.72
795.484	4.38
795.788	6.17
796.092	3.7
796.396	1.71
796.7	4.95
797.004	3.11
797.307	6.04
797.611	7.18
797.915	4.12
798.218	3.47
798.522	0.57
798.825	2.8
799.128	8.1
799.432	-1.46
799.735	2.59
800.038	3.8
800.341	5.17
800.644	4.84
800.947	3.07
801.25	3.21
801.553	9.21
801.856	8.18
802.159	4.99
802.462	3.93
802.764	6.89
803.067	4.01
803.37	1.53
803.672	3.24
803.975	-0.12
804.277	4.51
804.579	3.73
804.882	6.28
805.184	4.77
805.486	7.95
805.788	7.75
806.09	3.71
806.392	3.87
806.694	2.7
806.996	8.32
807.298	-0.66
807.6	6.74
807.902	4.6
808.203	-0.36
808.505	0.87
808.807	4.39
809.108	6.45
809.409	2.92
809.711	1.04
810.012	2.71
810.313	3.05
810.615	10.1
810.916	4.17
811.217	4.01
811.518	1.3
811.819	2.73
812.12	5.08
812.421	-1.14
812.722	3.04
813.023	9.59
813.323	6.63
813.624	1.89
813.925	8.73
814.225	5.35
814.526	-8.03
814.826	1.69
815.126	0.98
815.427	4.24
815.727	-0.4
816.027	7.27
816.327	7.94
816.627	7.61
816.927	3.15
817.227	-0.7
817.527	4.71
817.827	2.57
818.127	2.08
818.427	1.25
818.727	0.71
819.026	3.18
819.326	-2.99
819.625	1.87
819.925	1.84
820.224	3.19
820.524	1.06
820.823	6.16
821.122	-2.55
821.421	2.12
821.72	0.35
822.019	-2.07
822.318	7.19
822.617	4.09
822.916	2.18
823.215	2.86
823.514	4.18
823.813	5.5
824.111	5.23
824.41	6.54
824.709	6.38
825.007	6.71
825.306	7.28
825.604	6.87
825.902	6.39
826.201	7.47
826.499	5.93
826.797	6.25
827.095	7.23
827.393	7.01
827.691	9.08
827.989	6.89
828.287	6.26
828.585	5.3
828.882	4.9
829.18	4.62
829.478	6.86
829.775	8.15
830.073	7.23
830.37	6.56
830.668	6.16
830.965	7.21
831.263	7.22
831.56	7.07
831.857	7.77
832.154	5.69
832.451	5.16
832.748	8.47
833.045	5.31
833.342	5.12
833.639	7.55
833.936	2.63
834.232	9.53
834.529	4.17
834.826	4.68
835.122	-1.37
835.419	4.65
835.715	3.43
836.012	3.99
836.308	8.37
836.604	4.66
836.901	0.99
837.197	3.98
837.493	7.52
837.789	4.99
838.085	3.37
838.381	8.03
838.677	6.21
838.972	0.21
839.268	1.86
839.564	6.16
839.86	2
840.155	2.89
840.451	7.5
840.746	4.82
841.042	-5.74
841.337	3.28
841.632	9.86
841.928	5.51
842.223	7.47
842.518	0.01
842.813	5.73
843.108	2.48
843.403	4.68
843.698	3.47
843.993	11.82
844.287	0.54
844.582	4.84
844.877	3.65
845.171	1.48
845.466	0.62
845.761	0.84
846.055	10.58
846.349	-1.88
846.644	-15.85
846.938	0.24
847.232	-0.89
847.526	-3.25
847.82	-0.84
848.114	-3.51
848.408	-13.53
848.702	15.08
848.996	-11.88
849.29	7.32
849.584	-1.35
849.877	-21.54
850.171	-4.49
850.465	4.03
850.758	-29.4
851.052	-8.76
851.345	-12.08
851.638	-15.2
851.932	-10.36
852.225	-3.47
852.518	-1.99
852.811	-20.6
853.104	-16.9
853.397	7.82
853.69	6.67
853.983	-4.67
854.276	-8.83
854.569	-0.76
854.861	-13.42
855.154	-0.98
855.447	-18.71
855.739	-38.98
856.032	-1.84
856.324	-2.26
856.616	2.63
856.909	-35.33
857.201	-27.24
857.493	-13.28
857.785	6.12
858.077	-12.4
858.369	-9.95
858.661	9.23
858.953	-2.94
859.245	14.9
859.537	-17.87
859.829	-12.65
860.12	-0.83
860.412	9.44
860.703	3.64
860.995	21.4
861.286	-27.55
861.578	12.56
861.869	0.88
862.16	-13.76
862.452	-11.57
862.743	-20.48
863.034	-5.81
863.325	-3.7
863.616	0.3
863.907	16.09
864.198	-42.83
864.488	7.01
864.779	-11.78
865.07	-13.65
865.36	-14.6
865.651	-0.16
865.941	1.46
866.232	24.33
866.522	-28.6
866.813	2.34
867.103	-32.77
867.393	9.49
867.683	-6.83
867.973	-5.51
868.263	2.35
868.553	10.05
868.843	-19.29
869.133	2.85
869.423	-35.76
869.713	-36.5
870.002	-7.88
870.292	-6.76
870.582	-19.66
870.871	-29.51
871.161	-20.89
871.45	-13.81
871.739	13.47
872.029	-9.39
872.318	-9.93
872.607	3.44
872.896	0.02
873.185	3.08
873.474	-21.41
873.763	10.61
874.052	-2.7
874.341	-14.49
874.63	-20.39
874.918	15.63
875.207	-34.94
875.496	-2.31
875.784	-29.95
876.073	-13.52
876.361	1.84
876.649	-8.6
876.938	-20.17
877.226	22.62
877.514	-10.77
877.802	-36.97
878.09	-15.33
878.378	-7.7
878.666	4.79
878.954	10.64
879.242	6.59
879.53	-1.13
879.817	-22.45
880.105	8.46
880.392	3.12
880.68	-4.84
880.967	-31.42
881.255	-5.99
881.542	-34.86
881.83	-0.17
882.117	-1.1
882.404	-18.37
882.691	-9.48
882.978	9.6
883.265	10.13
883.552	3.76
883.839	3.33
884.126	0.31
884.413	5.51
884.699	2.8
884.986	2.39
885.273	10.38
885.559	10.38
885.846	10.38
