Data from 22-2_chest_Reflection__2__228.txt Node

Date: Thu Dec 15 18:16:08 CST 2022
User: ToomeyLab
Spectrometer: FLMS14357
Trigger mode: 0
Integration Time (sec): 1.000000E-2
Scans to average: 100
Electric dark correction enabled: true
Nonlinearity correction enabled: false
Boxcar width: 0
XAxis mode: Wavelengths
Number of Pixels in Spectrum: 2048
>>>>>Begin Spectral Data<<<<<
189.047	1616.6
189.435	1616.6
189.823	1616.6
190.211	137.69
190.599	324.23
190.987	59.04
191.375	-168.73
191.763	1718.22
192.151	116.15
192.538	45.53
192.926	103.21
193.314	27.56
193.702	-4.41
194.089	290.64
194.477	2597.7
194.864	199.04
195.252	-25.24
195.639	55.21
196.027	-26.68
196.414	-258.49
196.801	2014.55
197.189	280.52
197.576	-320.22
197.963	111.49
198.351	-3.03
198.738	-84.01
199.125	15.74
199.512	35.66
199.899	-9.48
200.286	-32.35
200.673	51.6
201.06	33.37
201.447	40.93
201.833	54.27
202.22	-8.68
202.607	14.17
202.994	-28.87
203.38	24.11
203.767	1.87
204.154	25.68
204.54	7.92
204.927	23.57
205.313	15.66
205.699	22.39
206.086	11.2
206.472	22.24
206.858	-20.35
207.245	6.01
207.631	20.64
208.017	40.88
208.403	-82.68
208.789	-23.45
209.175	-11.78
209.561	-66.31
209.947	0.32
210.333	-11.82
210.719	22.93
211.105	57.4
211.491	2.75
211.876	-27.2
212.262	17.23
212.648	27.94
213.034	1.55
213.419	29.32
213.805	35.4
214.19	-16.67
214.576	-7.79
214.961	15.93
215.346	15.14
215.732	-11.72
216.117	8.78
216.502	-3.48
216.888	1.9
217.273	0.62
217.658	-8.79
218.043	-17.48
218.428	-11.6
218.813	0.13
219.198	-39.08
219.583	-0.72
219.968	13.14
220.353	-24.64
220.738	7.66
221.122	-4.59
221.507	-12.04
221.892	-9.05
222.276	-9.6
222.661	-14.22
223.046	-7.36
223.43	15.91
223.815	4.99
224.199	-4.63
224.583	-3.85
224.968	4.2
225.352	-8.22
225.736	3.66
226.121	2.46
226.505	-2.8
226.889	-3.6
227.273	-1.84
227.657	6.71
228.041	2.13
228.425	0.78
228.809	0.94
229.193	1.93
229.577	3.72
229.961	1.67
230.344	2.17
230.728	3.24
231.112	3
231.495	1.77
231.879	2.43
232.263	2.3
232.646	1.28
233.03	3.83
233.413	2.52
233.797	3.32
234.18	1.92
234.563	2.22
234.946	2.76
235.33	2.31
235.713	2.77
236.096	3.52
236.479	2.57
236.862	0.44
237.245	1.84
237.628	1.7
238.011	3.58
238.394	2.94
238.777	2.84
239.16	3.1
239.543	4.01
239.925	2
240.308	1.56
240.691	2.89
241.073	1.67
241.456	2.44
241.838	2.85
242.221	2.41
242.603	3.65
242.986	3.05
243.368	3.2
243.75	3.05
244.133	3.01
244.515	2.49
244.897	2.93
245.279	2.75
245.661	2.61
246.043	2.75
246.425	3.21
246.807	2.73
247.189	2.54
247.571	2.85
247.953	2.87
248.335	2.96
248.717	2.95
249.098	3.22
249.48	3.09
249.862	2.94
250.243	3.18
250.625	3.45
251.006	3.56
251.388	3.26
251.769	2.63
252.151	2.92
252.532	1.64
252.913	2.94
253.295	2.85
253.676	3.23
254.057	3.03
254.438	3.48
254.819	3.29
255.2	3.23
255.581	3.6
255.962	3.48
256.343	3.71
256.724	2.33
257.105	2.93
257.486	2.79
257.867	2.35
258.247	3.48
258.628	3.1
259.009	2.83
259.389	1.55
259.77	2.81
260.15	3.54
260.531	2.65
260.911	2.9
261.292	2.97
261.672	2.89
262.052	3.03
262.432	2.62
262.813	2.99
263.193	3.2
263.573	3.35
263.953	2.43
264.333	3.29
264.713	3.56
265.093	3.4
265.473	2.31
265.853	2.63
266.233	2.44
266.612	3.3
266.992	2.86
267.372	2.72
267.752	3.38
268.131	2.67
268.511	2.96
268.89	3.05
269.27	2.43
269.649	2.78
270.029	3.04
270.408	3.1
270.787	2.69
271.167	2.82
271.546	2.64
271.925	3.17
272.304	2.92
272.683	2.45
273.062	2.7
273.441	2.62
273.82	2.78
274.199	2.77
274.578	3.28
274.957	2.74
275.336	3.16
275.715	3.16
276.093	2.73
276.472	2.29
276.851	2.64
277.229	2.84
277.608	2.65
277.986	2.96
278.365	3.13
278.743	2.39
279.122	2.68
279.5	1.93
279.878	2.99
280.257	3.13
280.635	3.28
281.013	2.86
281.391	2.58
281.769	3.34
282.147	2.83
282.525	2.46
282.903	2.51
283.281	3.15
283.659	2.84
284.037	2.37
284.415	2.98
284.792	3.03
285.17	2.76
285.548	2.96
285.925	2.64
286.303	3.26
286.68	2.66
287.058	2.9
287.435	2.86
287.813	2.74
288.19	2.83
288.567	2.98
288.945	2.38
289.322	3.14
289.699	3.52
290.076	3.34
290.453	2.68
290.83	3.29
291.207	2.78
291.584	3.02
291.961	2.89
292.338	2.86
292.715	2.96
293.092	3.41
293.469	2.87
293.845	2.93
294.222	3.55
294.599	2.36
294.975	2.56
295.352	3.25
295.728	3.23
296.105	2.91
296.481	3.1
296.858	3.45
297.234	2.71
297.61	3.3
297.986	3.38
298.363	3.44
298.739	3.5
299.115	3.22
299.491	3.5
299.867	2.81
300.243	3.02
300.619	3.17
300.995	3.25
301.371	3.92
301.746	3.72
302.122	2.76
302.498	3.08
302.874	3.78
303.249	3.72
303.625	3.17
304	3.32
304.376	3.57
304.751	3.67
305.127	3.04
305.502	3.43
305.878	3.48
306.253	3.07
306.628	3.58
307.003	3.41
307.378	2.81
307.754	3.7
308.129	3.47
308.504	3.6
308.879	3.77
309.254	3.63
309.629	3.37
310.003	3.62
310.378	3.69
310.753	3.79
311.128	3.62
311.502	3.82
311.877	3.49
312.252	3.6
312.626	4
313.001	3.73
313.375	3.42
313.75	3.58
314.124	3.87
314.498	3.79
314.873	3.19
315.247	3.71
315.621	3.12
315.995	3.67
316.369	3.4
316.743	3.31
317.117	3.72
317.491	4.06
317.865	3.13
318.239	4.11
318.613	3.33
318.987	3.36
319.361	3.63
319.734	3.62
320.108	3.62
320.482	3.89
320.855	3.87
321.229	4.04
321.602	4.14
321.976	3.68
322.349	4.23
322.723	3.52
323.096	3.78
323.469	3.83
323.843	3.71
324.216	3.99
324.589	4.16
324.962	3.7
325.335	3.32
325.708	3.65
326.081	3.62
326.454	3.72
326.827	4.25
327.2	3.51
327.573	4.32
327.945	3.55
328.318	3.92
328.691	3.62
329.063	3.73
329.436	3.38
329.809	3.99
330.181	4.32
330.553	4.22
330.926	4.71
331.298	3.61
331.671	3.96
332.043	4.23
332.415	4.23
332.787	4.14
333.159	3.69
333.532	3.86
333.904	4.02
334.276	3.96
334.648	3.72
335.02	3.98
335.391	3.83
335.763	4.3
336.135	4.14
336.507	4.15
336.879	4.04
337.25	3.95
337.622	4.27
337.993	3.94
338.365	4.03
338.736	3.85
339.108	4.25
339.479	3.78
339.851	4.25
340.222	4.48
340.593	3.64
340.964	4.18
341.336	3.58
341.707	3.83
342.078	3.77
342.449	3.52
342.82	3.76
343.191	4.23
343.562	3.86
343.933	3.73
344.303	4.21
344.674	3.99
345.045	4.1
345.416	4.38
345.786	3.74
346.157	4.15
346.527	3.57
346.898	3.67
347.268	4.02
347.639	3.78
348.009	3.87
348.38	3.82
348.75	4.04
349.12	3.83
349.49	4.06
349.861	4.06
350.231	3.99
350.601	3.73
350.971	3.96
351.341	4.15
351.711	4.07
352.081	4.03
352.45	3.54
352.82	3.65
353.19	3.62
353.56	3.55
353.929	3.85
354.299	4.12
354.669	4.12
355.038	4.19
355.408	4.55
355.777	3.86
356.147	4.04
356.516	4.09
356.885	4.12
357.254	3.8
357.624	3.46
357.993	3.81
358.362	4.24
358.731	4.25
359.1	4.21
359.469	3.92
359.838	3.89
360.207	3.92
360.576	4.07
360.945	4.17
361.314	4.04
361.682	3.78
362.051	4.05
362.42	3.94
362.788	3.92
363.157	3.83
363.525	4.08
363.894	3.88
364.262	4.03
364.631	4.26
364.999	4.22
365.367	3.96
365.735	3.82
366.104	3.76
366.472	3.98
366.84	3.96
367.208	4.25
367.576	3.81
367.944	3.89
368.312	3.97
368.68	4.33
369.048	3.99
369.416	3.82
369.783	3.71
370.151	4.33
370.519	4.2
370.886	4.12
371.254	4.46
371.621	3.96
371.989	4.45
372.356	4.25
372.724	4.12
373.091	3.96
373.458	3.96
373.826	4.28
374.193	4.29
374.56	4.48
374.927	3.92
375.294	4.27
375.661	4.39
376.028	4.13
376.395	4.62
376.762	4.02
377.129	4.12
377.496	4.21
377.863	4.25
378.229	4.37
378.596	4.24
378.963	4.26
379.329	4.19
379.696	4.04
380.062	4.06
380.429	4.13
380.795	4.36
381.161	3.96
381.528	3.8
381.894	3.88
382.26	4.29
382.626	4.24
382.993	4.43
383.359	4.25
383.725	3.87
384.091	4.35
384.457	3.99
384.823	4.02
385.188	3.99
385.554	4.39
385.92	4.03
386.286	4.16
386.651	4.13
387.017	4.44
387.383	3.98
387.748	4.35
388.114	4.18
388.479	4.24
388.845	4.02
389.21	4.51
389.575	4.57
389.94	4.49
390.306	4.48
390.671	3.88
391.036	4.33
391.401	4.17
391.766	4.21
392.131	4.54
392.496	4.36
392.861	4.26
393.226	4.12
393.591	4.36
393.956	4.46
394.32	4.31
394.685	4.53
395.05	4.2
395.414	4.2
395.779	4.37
396.143	4.04
396.508	4.28
396.872	3.95
397.236	4.3
397.601	4.4
397.965	4.28
398.329	4.38
398.694	4.08
399.058	4.15
399.422	4.25
399.786	4.45
400.15	4.26
400.514	4.32
400.878	4.18
401.242	4.46
401.605	4.2
401.969	4.21
402.333	4.24
402.697	4.56
403.06	4.45
403.424	4.23
403.787	4.38
404.151	4.37
404.514	4.27
404.878	4.1
405.241	4.42
405.604	4.27
405.968	4.28
406.331	4.25
406.694	4.34
407.057	4.33
407.42	4.39
407.783	4.28
408.146	4.34
408.509	4.5
408.872	4.45
409.235	4.41
409.598	4.46
409.961	4.27
410.323	4.24
410.686	4.43
411.049	4.44
411.411	4.41
411.774	4.34
412.136	4.27
412.499	4.53
412.861	4.2
413.223	4.33
413.586	4.26
413.948	4.54
414.31	4.38
414.672	4.59
415.035	4.73
415.397	4.56
415.759	4.28
416.121	4.58
416.483	4.48
416.845	4.46
417.206	4.37
417.568	4.28
417.93	4.41
418.292	4.29
418.653	4.25
419.015	4.35
419.377	4.25
419.738	4.33
420.1	4.31
420.461	4.27
420.822	4.34
421.184	4.38
421.545	4.44
421.906	4.43
422.267	4.3
422.629	4.21
422.99	4.32
423.351	4.33
423.712	4.36
424.073	4.41
424.434	4.53
424.795	4.34
425.155	4.32
425.516	4.32
425.877	4.38
426.238	4.42
426.598	4.41
426.959	4.44
427.32	4.3
427.68	4.34
428.041	4.52
428.401	4.35
428.761	4.49
429.122	4.48
429.482	4.46
429.842	4.51
430.202	4.49
430.563	4.59
430.923	4.59
431.283	4.61
431.643	4.54
432.003	4.69
432.363	4.57
432.722	4.6
433.082	4.5
433.442	4.59
433.802	4.6
434.161	4.54
434.521	4.54
434.881	4.63
435.24	4.6
435.6	4.5
435.959	4.65
436.319	4.57
436.678	4.66
437.037	4.65
437.396	4.51
437.756	4.42
438.115	4.52
438.474	4.66
438.833	4.62
439.192	4.47
439.551	4.52
439.91	4.61
440.269	4.66
440.628	4.52
440.987	4.53
441.345	4.65
441.704	4.53
442.063	4.47
442.421	4.59
442.78	4.53
443.138	4.59
443.497	4.59
443.855	4.66
444.214	4.49
444.572	4.8
444.93	4.62
445.288	4.65
445.647	4.57
446.005	4.7
446.363	4.62
446.721	4.66
447.079	4.49
447.437	4.57
447.795	4.62
448.153	4.58
448.51	4.54
448.868	4.53
449.226	4.56
449.584	4.59
449.941	4.68
450.299	4.64
450.656	4.77
451.014	4.77
451.371	4.75
451.729	4.76
452.086	4.64
452.443	4.83
452.801	4.85
453.158	5
453.515	4.68
453.872	4.73
454.229	4.63
454.586	4.75
454.943	4.74
455.3	4.69
455.657	4.67
456.014	4.84
456.371	4.88
456.727	4.76
457.084	4.83
457.441	4.7
457.797	4.71
458.154	4.88
458.51	4.76
458.867	4.89
459.223	4.7
459.58	4.99
459.936	4.79
460.292	4.62
460.648	4.75
461.005	4.69
461.361	4.72
461.717	4.7
462.073	4.82
462.429	4.8
462.785	4.87
463.141	4.81
463.496	4.76
463.852	4.93
464.208	4.93
464.564	4.84
464.919	4.84
465.275	4.97
465.631	5.04
465.986	4.96
466.342	4.9
466.697	5.02
467.052	5.04
467.408	4.88
467.763	4.81
468.118	4.85
468.473	4.94
468.829	4.77
469.184	4.98
469.539	4.94
469.894	5.02
470.249	5.02
470.603	5
470.958	5.01
471.313	5.11
471.668	5.08
472.023	5.13
472.377	4.94
472.732	5.17
473.086	5.01
473.441	5
473.795	5.19
474.15	4.92
474.504	5.02
474.859	4.91
475.213	5.12
475.567	4.92
475.921	5.01
476.275	5.08
476.63	5.22
476.984	4.95
477.338	5.17
477.692	5.01
478.045	5.14
478.399	5.07
478.753	5.05
479.107	5.11
479.461	5.04
479.814	5.09
480.168	5.05
480.521	5.07
480.875	5.08
481.228	4.98
481.582	5.06
481.935	5.18
482.289	5.12
482.642	5.18
482.995	5.02
483.348	4.88
483.701	5.07
484.055	4.88
484.408	4.95
484.761	4.86
485.114	4.79
485.466	4.76
485.819	4.82
486.172	4.87
486.525	4.92
486.878	5.01
487.23	4.99
487.583	4.99
487.936	4.97
488.288	4.94
488.641	4.88
488.993	4.89
489.345	4.97
489.698	4.91
490.05	4.96
490.402	4.97
490.754	5.04
491.107	5.06
491.459	5.17
491.811	5.17
492.163	5.1
492.515	5.07
492.866	5.05
493.218	4.97
493.57	5.04
493.922	5.12
494.274	5.12
494.625	5.25
494.977	5.17
495.328	5.23
495.68	5.24
496.031	5.23
496.383	5.23
496.734	5.2
497.086	5.33
497.437	5.33
497.788	5.4
498.139	5.32
498.49	5.28
498.842	5.26
499.193	5.27
499.544	5.37
499.894	5.23
500.245	5.47
500.596	5.49
500.947	5.37
501.298	5.33
501.648	5.43
501.999	5.51
502.35	5.3
502.7	5.59
503.051	5.36
503.401	5.52
503.752	5.51
504.102	5.46
504.452	5.36
504.803	5.41
505.153	5.56
505.503	5.53
505.853	5.49
506.203	5.56
506.553	5.52
506.903	5.66
507.253	5.5
507.603	5.48
507.953	5.41
508.303	5.61
508.652	5.46
509.002	5.63
509.352	5.62
509.701	5.47
510.051	5.66
510.4	5.54
510.75	5.64
511.099	5.48
511.449	5.56
511.798	5.53
512.147	5.45
512.496	5.72
512.846	5.69
513.195	5.59
513.544	5.64
513.893	5.63
514.242	5.63
514.591	5.58
514.939	5.73
515.288	5.68
515.637	5.6
515.986	5.72
516.334	5.75
516.683	5.66
517.032	5.67
517.38	5.66
517.729	5.69
518.077	5.79
518.426	5.8
518.774	5.73
519.122	5.77
519.47	5.64
519.819	5.68
520.167	5.71
520.515	5.74
520.863	5.72
521.211	5.74
521.559	5.78
521.907	5.86
522.255	5.87
522.602	5.88
522.95	5.83
523.298	5.92
523.645	5.95
523.993	5.86
524.341	6
524.688	5.92
525.036	6
525.383	6
525.73	5.81
526.078	6.05
526.425	6.03
526.772	5.91
527.119	6.04
527.466	5.98
527.814	5.88
528.161	5.93
528.508	6.02
528.854	5.86
529.201	5.87
529.548	5.83
529.895	5.8
530.242	5.77
530.588	5.8
530.935	5.89
531.282	5.84
531.628	5.98
531.975	5.93
532.321	6.07
532.667	6.04
533.014	6.09
533.36	6.1
533.706	6.16
534.052	6.15
534.399	6.08
534.745	6.05
535.091	6.01
535.437	6.1
535.783	6.12
536.129	6.12
536.474	6.3
536.82	6.31
537.166	6.25
537.512	6.3
537.857	6.3
538.203	6.27
538.549	6.28
538.894	6.26
539.239	6.37
539.585	6.49
539.93	6.48
540.276	6.43
540.621	6.52
540.966	6.48
541.311	6.57
541.656	6.43
542.001	6.38
542.346	6.34
542.691	6.34
543.036	6.31
543.381	6.4
543.726	6.38
544.071	6.47
544.415	6.52
544.76	6.41
545.105	6.51
545.449	6.5
545.794	6.63
546.138	6.52
546.483	6.7
546.827	6.59
547.171	6.82
547.516	6.67
547.86	6.67
548.204	6.77
548.548	6.7
548.892	6.78
549.236	6.74
549.58	6.86
549.924	6.92
550.268	6.96
550.612	7.06
550.956	7.11
551.3	7.14
551.643	7.01
551.987	7.04
552.33	7.22
552.674	7.01
553.017	7.21
553.361	7.15
553.704	7.05
554.048	7.05
554.391	7.16
554.734	7.01
555.077	7.14
555.42	7.35
555.764	7.22
556.107	7.39
556.45	7.41
556.793	7.53
557.135	7.19
557.478	7.36
557.821	7.45
558.164	7.57
558.507	7.38
558.849	7.55
559.192	7.42
559.534	7.38
559.877	7.37
560.219	7.41
560.562	7.45
560.904	7.68
561.246	7.4
561.589	7.65
561.931	7.66
562.273	7.48
562.615	7.53
562.957	7.53
563.299	7.7
563.641	7.68
563.983	7.57
564.325	7.73
564.667	7.63
565.008	7.64
565.35	7.62
565.692	7.69
566.033	7.71
566.375	7.76
566.716	7.64
567.058	7.78
567.399	7.9
567.741	7.8
568.082	7.89
568.423	7.85
568.764	7.92
569.105	7.94
569.447	8.01
569.788	8.02
570.129	7.94
570.47	8.09
570.811	7.95
571.151	7.97
571.492	8.05
571.833	8.13
572.174	8.2
572.514	8.18
572.855	8.29
573.195	8.18
573.536	8.23
573.876	8.18
574.217	8.12
574.557	8.36
574.898	8.2
575.238	8.41
575.578	8.38
575.918	8.44
576.258	8.52
576.598	8.41
576.938	8.39
577.278	8.39
577.618	8.47
577.958	8.54
578.298	8.67
578.638	8.58
578.977	8.78
579.317	8.6
579.657	8.67
579.996	8.92
580.336	8.83
580.675	8.89
581.014	8.82
581.354	8.91
581.693	8.97
582.032	9.13
582.372	8.97
582.711	9.07
583.05	8.98
583.389	9.01
583.728	9.04
584.067	8.96
584.406	8.97
584.745	9.14
585.083	9.18
585.422	9.23
585.761	9.14
586.1	9.09
586.438	9.25
586.777	9.27
587.115	9.34
587.454	9.26
587.792	9.35
588.13	9.5
588.469	9.31
588.807	9.53
589.145	9.57
589.483	9.23
589.821	9.24
590.159	9.51
590.497	9.52
590.835	9.56
591.173	9.75
591.511	9.86
591.849	9.69
592.187	9.65
592.524	9.68
592.862	9.81
593.2	9.66
593.537	9.71
593.875	9.98
594.212	9.99
594.55	9.94
594.887	9.99
595.224	9.98
595.561	9.75
595.899	9.9
596.236	10.2
596.573	9.81
596.91	9.87
597.247	9.97
597.584	9.96
597.921	9.86
598.258	10.28
598.594	10.01
598.931	9.94
599.268	9.9
599.604	10.23
599.941	10.14
600.277	10.36
600.614	10.27
600.95	10.45
601.287	10.3
601.623	10.21
601.959	10.51
602.296	10.39
602.632	10.41
602.968	10.38
603.304	10.6
603.64	10.56
603.976	10.46
604.312	10.6
604.648	10.88
604.984	10.59
605.319	10.46
605.655	10.79
605.991	10.64
606.326	10.71
606.662	10.48
606.998	10.79
607.333	10.87
607.668	10.83
608.004	10.87
608.339	10.94
608.674	11.02
609.01	11.33
609.345	11.09
609.68	11.09
610.015	11.08
610.35	11.25
610.685	10.94
611.02	10.96
611.355	11.12
611.689	10.93
612.024	11.25
612.359	11.26
612.694	11.21
613.028	11.13
613.363	11.36
613.697	11.45
614.032	11.43
614.366	11.35
614.7	11.26
615.035	11.47
615.369	11.88
615.703	11.68
616.037	11.63
616.371	11.64
616.705	11.74
617.039	11.87
617.373	11.69
617.707	11.87
618.041	11.41
618.375	11.43
618.709	11.77
619.042	11.88
619.376	12.16
619.71	11.62
620.043	12.19
620.377	12.27
620.71	11.89
621.043	12.25
621.377	12.26
621.71	12.37
622.043	12.36
622.376	12.32
622.709	12.47
623.043	12.4
623.376	12.17
623.709	12.66
624.041	11.91
624.374	12.06
624.707	12.18
625.04	12.12
625.373	12.37
625.705	12.57
626.038	12.4
626.37	12.34
626.703	12.56
627.035	12.92
627.368	12.89
627.7	12.63
628.032	12.49
628.365	12.97
628.697	12.93
629.029	12.86
629.361	12.9
629.693	12.92
630.025	12.74
630.357	13.13
630.689	12.78
631.021	12.99
631.353	12.92
631.684	12.8
632.016	12.89
632.348	13.16
632.679	13.25
633.011	13.09
633.342	12.95
633.674	12.84
634.005	13.17
634.336	13.26
634.668	13.28
634.999	13.2
635.33	13.47
635.661	13.3
635.992	13.55
636.323	13.47
636.654	13.64
636.985	13.2
637.316	13.42
637.647	13.76
637.977	13.66
638.308	13.88
638.639	14.07
638.969	13.17
639.3	14.26
639.63	13.57
639.961	14.09
640.291	13.64
640.622	14.05
640.952	14.1
641.282	13.55
641.612	13.77
641.943	14.09
642.273	14.12
642.603	14.21
642.933	14.46
643.263	14.81
643.592	14.07
643.922	14.95
644.252	14.15
644.582	14.27
644.911	14.17
645.241	14.04
645.571	14.57
645.9	15.08
646.23	14.76
646.559	14.07
646.888	14.7
647.218	14.61
647.547	14.55
647.876	14.31
648.205	14.21
648.534	14.49
648.863	14.67
649.192	14.62
649.521	14.57
649.85	15
650.179	14.88
650.508	14.73
650.837	15.1
651.165	15.28
651.494	14.95
651.822	15.27
652.151	14.86
652.479	15.33
652.808	14.75
653.136	14.78
653.465	14.96
653.793	15.25
654.121	15.24
654.449	15.22
654.777	14.61
655.105	14.67
655.433	15.3
655.761	15.42
656.089	15.11
656.417	15.72
656.745	15.41
657.073	15.3
657.4	15.08
657.728	15.12
658.056	15.78
658.383	15.94
658.711	15.58
659.038	16.09
659.365	16.05
659.693	15.76
660.02	15.63
660.347	16.08
660.674	15.41
661.001	15.96
661.329	15.74
661.656	15.77
661.982	15.63
662.309	15.79
662.636	15.83
662.963	15.91
663.29	16.42
663.616	15.93
663.943	16.36
664.27	16.15
664.596	16.37
664.923	16.41
665.249	16.16
665.576	16.32
665.902	16.19
666.228	16.34
666.554	16.78
666.881	15.81
667.207	16.26
667.533	16.45
667.859	16.83
668.185	16.45
668.511	16.58
668.837	17.34
669.162	16.67
669.488	16.37
669.814	16.32
670.139	16
670.465	16.5
670.791	16.56
671.116	16.3
671.442	16.63
671.767	16.74
672.092	16.84
672.418	16.98
672.743	16.88
673.068	16.92
673.393	17.19
673.718	16.59
674.043	17.26
674.368	17.6
674.693	17.24
675.018	17.83
675.343	18.13
675.667	17.86
675.992	17.43
676.317	16.87
676.641	18.26
676.966	17.62
677.29	17.67
677.615	17.3
677.939	18.06
678.264	17.41
678.588	18.01
678.912	17.95
679.236	17.48
679.56	17.17
679.885	17.8
680.209	18.42
680.532	18.4
680.856	17.89
681.18	18.13
681.504	17.74
681.828	17.47
682.152	17.89
682.475	17.85
682.799	18.2
683.122	18.25
683.446	17.88
683.769	18.63
684.093	18.78
684.416	18.27
684.739	18.16
685.062	18.15
685.386	17.85
685.709	18.22
686.032	18.67
686.355	18.8
686.678	18.22
687.001	17.86
687.324	18.04
687.646	18.58
687.969	18.71
688.292	18.34
688.614	18.93
688.937	18.81
689.26	19.52
689.582	18.63
689.904	18.76
690.227	19.22
690.549	18.94
690.871	18.64
691.194	18.72
691.516	18.62
691.838	18.64
692.16	18.78
692.482	18.26
692.804	18.7
693.126	18.95
693.448	19.02
693.769	18.75
694.091	18.89
694.413	18.95
694.735	19.44
695.056	19.87
695.378	19.38
695.699	18.79
696.021	18.67
696.342	19.2
696.663	20.33
696.984	19.1
697.306	18.48
697.627	19.83
697.948	19.38
698.269	20.02
698.59	19.77
698.911	19.35
699.232	20.62
699.553	19.88
699.873	19.23
700.194	19.82
700.515	19.54
700.835	20.12
701.156	20.32
701.477	20.01
701.797	20.02
702.117	19.54
702.438	19.87
702.758	20.3
703.078	20.58
703.398	20.26
703.719	20.8
704.039	20.03
704.359	19.93
704.679	20.26
704.999	19.23
705.319	19.72
705.638	21.03
705.958	20.32
706.278	20.32
706.597	20.4
706.917	21.47
707.237	20.9
707.556	20.66
707.876	20.57
708.195	21.49
708.514	19.83
708.834	20.57
709.153	20.84
709.472	21.19
709.791	20.13
710.11	20.67
710.429	21.6
710.748	21.64
711.067	20.32
711.386	20.54
711.705	20.39
712.023	21.13
712.342	21.28
712.661	21.72
712.979	20.55
713.298	21.71
713.616	21.63
713.935	21.68
714.253	21.39
714.572	20.39
714.89	21.51
715.208	20.96
715.526	21.15
715.844	20.98
716.162	22.6
716.48	22.04
716.798	22.17
717.116	21.43
717.434	21.89
717.752	21.95
718.069	22.18
718.387	21.26
718.705	22.59
719.022	21.75
719.34	21.58
719.657	22.62
719.975	21.09
720.292	21.42
720.609	20.62
720.927	22.78
721.244	22.59
721.561	21.16
721.878	21.37
722.195	22.73
722.512	21.81
722.829	22.15
723.146	22.89
723.463	21.81
723.779	21.6
724.096	20.94
724.413	23.35
724.729	23.19
725.046	21.49
725.362	21.91
725.679	21.11
725.995	21.21
726.311	23.15
726.628	23.22
726.944	22.36
727.26	23.43
727.576	22.74
727.892	21.18
728.208	23.71
728.524	22.78
728.84	21.74
729.156	21.83
729.472	21.89
729.787	23.12
730.103	22.01
730.419	21.78
730.734	22.78
731.05	22.13
731.365	23.93
731.681	23.78
731.996	23.38
732.311	21.51
732.626	21.98
732.942	23.17
733.257	22.87
733.572	23.9
733.887	23.15
734.202	23.87
734.517	22.84
734.832	22.58
735.146	22.77
735.461	23.99
735.776	24.91
736.091	24.98
736.405	21.96
736.72	23.68
737.034	23.28
737.349	24.06
737.663	25.28
737.977	25.21
738.292	21.83
738.606	25.97
738.92	25.71
739.234	23.64
739.548	24.3
739.862	24.08
740.176	23.3
740.49	24.68
740.804	25.19
741.117	24.05
741.431	24.35
741.745	23.23
742.058	23.5
742.372	24.29
742.685	24.48
742.999	24.07
743.312	25.14
743.626	26.37
743.939	22.37
744.252	24.75
744.565	25.49
744.878	22.69
745.191	25.55
745.505	24.28
745.817	24.4
746.13	25.16
746.443	23.17
746.756	25.84
747.069	25.77
747.381	24.29
747.694	25.22
748.007	26.09
748.319	26.83
748.632	26.17
748.944	24.58
749.256	25.3
749.569	24.65
749.881	24.15
750.193	25.08
750.505	26.8
750.817	25.15
751.129	24.61
751.441	25.72
751.753	24.36
752.065	25.31
752.377	25.35
752.689	23.84
753	26.38
753.312	24.87
753.624	24.44
753.935	25.06
754.247	25.79
754.558	26.08
754.869	27.36
755.181	25.92
755.492	24.93
755.803	27.81
756.114	26.08
756.425	24.5
756.736	25.62
757.047	25.82
757.358	26.08
757.669	26.83
757.98	25.36
758.291	26.41
758.601	25.91
758.912	25.38
759.223	25.21
759.533	26.5
759.844	24.14
760.154	27.02
760.464	27.47
760.775	26.86
761.085	25.48
761.395	24.42
761.705	26.72
762.016	26.24
762.326	28.12
762.636	27.26
762.945	27.4
763.255	26.22
763.565	26.45
763.875	26.34
764.185	27.16
764.494	25.01
764.804	27.22
765.113	27.18
765.423	26.43
765.732	26.82
766.042	26.95
766.351	26.99
766.66	26.58
766.97	26.93
767.279	26.48
767.588	26.34
767.897	25.75
768.206	26.01
768.515	27.35
768.824	26.85
769.133	26.35
769.441	25.84
769.75	24.55
770.059	26.54
770.367	27.3
770.676	26.78
770.984	26.52
771.293	27.57
771.601	26.4
771.91	26.75
772.218	24.95
772.526	24.44
772.834	25.66
773.142	27.43
773.45	28.85
773.758	28.56
774.066	28.34
774.374	32.09
774.682	27.44
774.99	25.4
775.298	26.34
775.605	25.57
775.913	25.67
776.22	24.69
776.528	25.28
776.835	29.15
777.143	29.43
777.45	25.87
777.757	30.17
778.065	29.69
778.372	29.08
778.679	29.01
778.986	28.86
779.293	28.02
779.6	29.99
779.907	29.62
780.214	26.14
780.52	27.49
780.827	28.08
781.134	29.1
781.44	30.13
781.747	27.79
782.053	27.21
782.36	27.77
782.666	25.66
782.973	27.31
783.279	26.98
783.585	26.82
783.891	27.13
784.197	27.35
784.503	29.41
784.809	28.94
785.115	29.36
785.421	30.14
785.727	29.69
786.033	26.68
786.339	28.36
786.644	24.2
786.95	29.9
787.255	24.34
787.561	29.4
787.866	27.43
788.172	28
788.477	29.43
788.782	27.68
789.088	24.86
789.393	25.05
789.698	26.66
790.003	30.09
790.308	26.93
790.613	27.3
790.918	26.84
791.223	30.12
791.527	30.92
791.832	31.18
792.137	30.84
792.441	28.54
792.746	29.88
793.05	28.18
793.355	30.17
793.659	29.79
793.963	30.01
794.268	28.01
794.572	24.81
794.876	27.33
795.18	33.19
795.484	32.21
795.788	31.11
796.092	25.32
796.396	26.62
796.7	21.71
797.004	25.45
797.307	26.83
797.611	30.11
797.915	25.68
798.218	27.27
798.522	26.37
798.825	31.16
799.128	32.48
799.432	27.77
799.735	24.21
800.038	29.99
800.341	32.22
800.644	30.24
800.947	36.94
801.25	31.01
801.553	29.59
801.856	34.7
802.159	26.59
802.462	31.69
802.764	29.34
803.067	29.8
803.37	27.35
803.672	26.13
803.975	29.38
804.277	29.59
804.579	30.3
804.882	36.56
805.184	30.88
805.486	28.82
805.788	33.96
806.09	27.14
806.392	27.75
806.694	30
806.996	32.08
807.298	29.83
807.6	31.77
807.902	30.12
808.203	26.27
808.505	30.06
808.807	28.73
809.108	28.99
809.409	31.85
809.711	26.81
810.012	23.13
810.313	31.17
810.615	31.05
810.916	23.19
811.217	25.76
811.518	30.32
811.819	30.45
812.12	31.08
812.421	31.95
812.722	29.67
813.023	35.04
813.323	29.66
813.624	32.16
813.925	30.45
814.225	30.97
814.526	26.06
814.826	27.63
815.126	32.1
815.427	27.86
815.727	28.16
816.027	34.41
816.327	33.1
816.627	34.7
816.927	30.78
817.227	27.22
817.527	31.62
817.827	29.57
818.127	30.78
818.427	27.42
818.727	28.63
819.026	33.33
819.326	26.88
819.625	31.81
819.925	33.74
820.224	32.35
820.524	29.33
820.823	32.24
821.122	25.9
821.421	33.98
821.72	32.22
822.019	27.79
822.318	32.54
822.617	35.73
822.916	31.07
823.215	30.78
823.514	35.2
823.813	31.69
824.111	31.86
824.41	32.28
824.709	32.32
825.007	33.15
825.306	32.9
825.604	32.58
825.902	32.94
826.201	33.23
826.499	32.75
826.797	33.15
827.095	33.75
827.393	34.09
827.691	33.85
827.989	34.44
828.287	32.16
828.585	32.36
828.882	32.57
829.18	31.47
829.478	34.35
829.775	33.81
830.073	33.3
830.37	32.49
830.668	31.99
830.965	33.68
831.263	34.8
831.56	31.71
831.857	32.45
832.154	33.78
832.451	33.38
832.748	35.73
833.045	28.38
833.342	29.41
833.639	29.23
833.936	33.44
834.232	32.55
834.529	33.02
834.826	34.94
835.122	34.08
835.419	38.5
835.715	31.56
836.012	30.58
836.308	34.87
836.604	33.72
836.901	30.78
837.197	33.7
837.493	33.91
837.789	32.79
838.085	31.72
838.381	36.61
838.677	34.67
838.972	30.24
839.268	34.12
839.564	29.65
839.86	36.2
840.155	28.6
840.451	33.7
840.746	32.18
841.042	33.34
841.337	28.48
841.632	32.42
841.928	37.2
842.223	25.54
842.518	39.33
842.813	33.49
843.108	23.11
843.403	34.01
843.698	32.15
843.993	35.58
844.287	37.43
844.582	38.66
844.877	39.47
845.171	30.22
845.466	28.63
845.761	24.08
846.055	25.29
846.349	36.26
846.644	25.38
846.938	39.62
847.232	36.86
847.526	25.44
847.82	28.05
848.114	21.91
848.408	20.68
848.702	29.76
848.996	38.11
849.29	36.62
849.584	27.5
849.877	25.62
850.171	41.94
850.465	39.8
850.758	19.69
851.052	21.02
851.345	24.49
851.638	44.76
851.932	30.11
852.225	34.59
852.518	39.54
852.811	29.12
853.104	45.6
853.397	31.25
853.69	25.62
853.983	38.27
854.276	41.12
854.569	32.73
854.861	20.21
855.154	42.06
855.447	35.17
855.739	12.55
856.032	27.22
856.324	6.15
856.616	35.49
856.909	25.74
857.201	16.54
857.493	32.84
857.785	45.98
858.077	41.06
858.369	21.69
858.661	32.32
858.953	48.76
859.245	27.99
859.537	5.11
859.829	42.33
860.12	38.61
860.412	19.9
860.703	26.73
860.995	54.68
861.286	26.81
861.578	34.28
861.869	46.57
862.16	15.97
862.452	-6.52
862.743	25.47
863.034	20.74
863.325	25.7
863.616	43.45
863.907	40.74
864.198	16
864.488	27.93
864.779	28.48
865.07	42.03
865.36	40.52
865.651	33.75
865.941	31.48
866.232	35.27
866.522	65.29
866.813	33.98
867.103	20.19
867.393	57.09
867.683	44.06
867.973	10.08
868.263	23.56
868.553	44.19
868.843	16.77
869.133	42.33
869.423	32.11
869.713	27.65
870.002	57.56
870.292	45.3
870.582	25.86
870.871	42.03
871.161	28.98
871.45	5.05
871.739	33.81
872.029	48.93
872.318	23.5
872.607	35.72
872.896	38.26
873.185	44.41
873.474	32.13
873.763	25.17
874.052	45.63
874.341	41.85
874.63	30.09
874.918	42.42
875.207	22.75
875.496	53.02
875.784	33.82
876.073	41.09
876.361	65.96
876.649	45.44
876.938	25.25
877.226	37.79
877.514	51.92
877.802	-2.3
878.09	45.88
878.378	28.53
878.666	47.86
878.954	52.85
879.242	32.78
879.53	32.26
879.817	-1
880.105	38.43
880.392	26.16
880.68	37.97
880.967	58.77
881.255	49.05
881.542	35.37
881.83	35.83
882.117	24.8
882.404	12.3
882.691	28.64
882.978	43.61
883.265	52.09
883.552	39.91
883.839	21.32
884.126	35.53
884.413	38.73
884.699	37.99
884.986	35.29
885.273	40.35
885.559	40.35
885.846	40.35
