Data from 22-2_forehead_Reflection__1__237.txt Node

Date: Thu Dec 15 18:18:57 CST 2022
User: ToomeyLab
Spectrometer: FLMS14357
Trigger mode: 0
Integration Time (sec): 1.000000E-2
Scans to average: 100
Electric dark correction enabled: true
Nonlinearity correction enabled: false
Boxcar width: 0
XAxis mode: Wavelengths
Number of Pixels in Spectrum: 2048
>>>>>Begin Spectral Data<<<<<
189.047	-697.36
189.435	-697.36
189.823	-697.36
190.211	40.14
190.599	39.48
190.987	59.7
191.375	99.87
191.763	1331.17
192.151	229.59
192.538	36.95
192.926	64.71
193.314	39.16
193.702	-23.86
194.089	-109.36
194.477	5894.25
194.864	110.52
195.252	108.87
195.639	140.2
196.027	-24.57
196.414	-46.79
196.801	3069.09
197.189	403.34
197.576	-653.74
197.963	51.32
198.351	30.02
198.738	28.02
199.125	-109.06
199.512	18.18
199.899	-15.1
200.286	-6.56
200.673	47.33
201.06	-12.02
201.447	6.32
201.833	2.72
202.22	7.44
202.607	35.99
202.994	-13.31
203.38	33.01
203.767	7.59
204.154	18.7
204.54	6.84
204.927	37.21
205.313	44.79
205.699	76.35
206.086	19.04
206.472	47.02
206.858	-6.83
207.245	5.26
207.631	-6.53
208.017	45.6
208.403	-48.83
208.789	43.22
209.175	4.11
209.561	-83.18
209.947	-7.69
210.333	2.57
210.719	45.35
211.105	36.2
211.491	9.07
211.876	-21.91
212.262	29.21
212.648	21.46
213.034	3.56
213.419	18.49
213.805	-43.78
214.19	8.56
214.576	-5.71
214.961	-4.62
215.346	2.65
215.732	4.69
216.117	25.33
216.502	1.57
216.888	3.72
217.273	13.36
217.658	10.63
218.043	-12.73
218.428	10.14
218.813	15.23
219.198	-5.9
219.583	-9.37
219.968	4.84
220.353	3.69
220.738	4.23
221.122	-3.59
221.507	-36.68
221.892	-11.09
222.276	-0.27
222.661	0.97
223.046	-7.79
223.43	13.35
223.815	9.08
224.199	4.42
224.583	-0.54
224.968	7.98
225.352	-1.17
225.736	10.2
226.121	4.78
226.505	-1.42
226.889	6.23
227.273	1.99
227.657	4.15
228.041	4.95
228.425	1.26
228.809	0.3
229.193	2.32
229.577	1.81
229.961	2.45
230.344	2.92
230.728	3.27
231.112	3.73
231.495	3.06
231.879	2.69
232.263	3.63
232.646	3.24
233.03	3.92
233.413	3.01
233.797	4.15
234.18	4.45
234.563	5.49
234.946	3.7
235.33	3.18
235.713	4.49
236.096	4.01
236.479	5.68
236.862	2.56
237.245	1.67
237.628	4.24
238.011	3.19
238.394	4.49
238.777	3.12
239.16	4.62
239.543	4.14
239.925	2.5
240.308	1.58
240.691	2.76
241.073	3.38
241.456	3.61
241.838	4.01
242.221	3.47
242.603	3.76
242.986	3.66
243.368	3.78
243.75	3.38
244.133	3.74
244.515	3.67
244.897	2.77
245.279	2.94
245.661	3.97
246.043	3.79
246.425	4.61
246.807	3.77
247.189	3.45
247.571	3.81
247.953	3.58
248.335	3.62
248.717	3.71
249.098	3.82
249.48	3.71
249.862	3.95
250.243	4.02
250.625	3.42
251.006	4.51
251.388	3.6
251.769	2.83
252.151	4.23
252.532	3.19
252.913	4.18
253.295	3.43
253.676	4.02
254.057	3.7
254.438	3.74
254.819	3.47
255.2	4.17
255.581	5.58
255.962	4.63
256.343	3.77
256.724	4.3
257.105	4.02
257.486	3.28
257.867	3.28
258.247	3.8
258.628	4.57
259.009	3.33
259.389	3.8
259.77	3.42
260.15	4.25
260.531	3.74
260.911	3.54
261.292	3.77
261.672	3.67
262.052	3.75
262.432	3.51
262.813	3.62
263.193	3.63
263.573	3.68
263.953	3.39
264.333	3.71
264.713	4.18
265.093	3.84
265.473	3.5
265.853	3.75
266.233	3.94
266.612	3.35
266.992	3.55
267.372	4.34
267.752	3.63
268.131	3.73
268.511	3.6
268.89	3.99
269.27	3.13
269.649	3.48
270.029	3.33
270.408	3.36
270.787	3.86
271.167	4.04
271.546	4.02
271.925	4.09
272.304	3.76
272.683	3.81
273.062	3.57
273.441	3.46
273.82	3.61
274.199	3.33
274.578	3.81
274.957	3.56
275.336	3.47
275.715	4
276.093	3.25
276.472	2.88
276.851	3.52
277.229	3.47
277.608	2.87
277.986	3.39
278.365	4.07
278.743	3.61
279.122	3.09
279.5	3.92
279.878	3.36
280.257	3.8
280.635	3.46
281.013	3.11
281.391	3.54
281.769	3.91
282.147	3.14
282.525	3.03
282.903	3.2
283.281	4.07
283.659	3.66
284.037	3.46
284.415	3.21
284.792	3.65
285.17	3.39
285.548	3.24
285.925	3.56
286.303	3.97
286.68	3.88
287.058	3.84
287.435	3.46
287.813	3.76
288.19	3.67
288.567	3.77
288.945	3.51
289.322	3.89
289.699	4.07
290.076	3.67
290.453	3.87
290.83	3.91
291.207	3.66
291.584	4.01
291.961	3.65
292.338	3.96
292.715	3.75
293.092	4.18
293.469	4.02
293.845	4.39
294.222	4.61
294.599	3.66
294.975	3.89
295.352	4.22
295.728	4.37
296.105	4.53
296.481	4.63
296.858	4.44
297.234	4.11
297.61	4.54
297.986	4.96
298.363	4.67
298.739	4.7
299.115	4.77
299.491	4.91
299.867	4.57
300.243	4.83
300.619	4.45
300.995	5.08
301.371	5.1
301.746	5.32
302.122	4.64
302.498	5.07
302.874	4.82
303.249	5.13
303.625	4.57
304	5.62
304.376	5.48
304.751	5.46
305.127	5.24
305.502	5.33
305.878	5.55
306.253	5.54
306.628	5.35
307.003	5.67
307.378	5.51
307.754	6.05
308.129	5.25
308.504	5.93
308.879	6.1
309.254	6.32
309.629	6.5
310.003	6.34
310.378	6.19
310.753	5.98
311.128	5.83
311.502	6.37
311.877	6.14
312.252	6.19
312.626	6.86
313.001	6.6
313.375	6.7
313.75	6.29
314.124	6.97
314.498	6.82
314.873	6.52
315.247	6.65
315.621	6.69
315.995	6.47
316.369	6.69
316.743	6.89
317.117	6.88
317.491	7.15
317.865	6.8
318.239	7.67
318.613	7.44
318.987	7.35
319.361	7.19
319.734	7.27
320.108	7.66
320.482	8.02
320.855	7.43
321.229	8.02
321.602	8.05
321.976	7.44
322.349	8.55
322.723	7.6
323.096	8.26
323.469	8.01
323.843	8.05
324.216	8.03
324.589	8.29
324.962	7.88
325.335	8.01
325.708	8.07
326.081	8.21
326.454	8.32
326.827	8.3
327.2	8.2
327.573	8.72
327.945	8.51
328.318	8.45
328.691	8.33
329.063	8.3
329.436	8.91
329.809	8.9
330.181	9.33
330.553	9
330.926	9.6
331.298	8.47
331.671	9.28
332.043	9.22
332.415	9.7
332.787	9.73
333.159	9.18
333.532	9.52
333.904	9.55
334.276	9.97
334.648	9.5
335.02	9.12
335.391	9.13
335.763	9.64
336.135	9.57
336.507	9.66
336.879	9.72
337.25	9.46
337.622	9.61
337.993	9.46
338.365	9.58
338.736	9.76
339.108	10.04
339.479	9.92
339.851	9.98
340.222	10.16
340.593	9.82
340.964	10.11
341.336	10.23
341.707	10.17
342.078	9.75
342.449	9.81
342.82	10.03
343.191	10.3
343.562	9.97
343.933	9.89
344.303	10.19
344.674	10.42
345.045	10.73
345.416	10.69
345.786	9.97
346.157	10.49
346.527	10.2
346.898	10.34
347.268	10.56
347.639	10.19
348.009	10.76
348.38	10.33
348.75	10.35
349.12	10.3
349.49	11.09
349.861	10.82
350.231	10.58
350.601	10.73
350.971	10.59
351.341	10.93
351.711	10.58
352.081	10.78
352.45	10.63
352.82	10.56
353.19	10.91
353.56	10.74
353.929	10.87
354.299	11.17
354.669	11.3
355.038	11.19
355.408	11.29
355.777	11.4
356.147	11.04
356.516	11.07
356.885	11.54
357.254	11.29
357.624	11.01
357.993	11.5
358.362	11.14
358.731	11.71
359.1	11.29
359.469	11.5
359.838	11.44
360.207	11.25
360.576	11.77
360.945	11.49
361.314	11.6
361.682	11.42
362.051	11.41
362.42	11.51
362.788	11.71
363.157	11.45
363.525	11.57
363.894	11.67
364.262	11.7
364.631	12.13
364.999	11.84
365.367	11.77
365.735	11.64
366.104	12.18
366.472	11.9
366.84	12.01
367.208	12.34
367.576	12.24
367.944	11.93
368.312	12.11
368.68	12.59
369.048	12.18
369.416	12.05
369.783	12.2
370.151	12.77
370.519	13
370.886	12.46
371.254	12.7
371.621	12.46
371.989	12.48
372.356	12.58
372.724	12.62
373.091	12.52
373.458	12.57
373.826	12.65
374.193	12.69
374.56	12.95
374.927	12.54
375.294	13.18
375.661	12.96
376.028	12.72
376.395	12.9
376.762	12.72
377.129	13.06
377.496	13.26
377.863	13.01
378.229	13.21
378.596	13.09
378.963	12.76
379.329	13.07
379.696	12.94
380.062	13.3
380.429	12.87
380.795	13.5
381.161	13.06
381.528	12.99
381.894	13
382.26	12.94
382.626	13.37
382.993	13.54
383.359	13.31
383.725	13.09
384.091	13.38
384.457	13.05
384.823	13.77
385.188	13.74
385.554	13.49
385.92	13.32
386.286	13.35
386.651	13.1
387.017	13.59
387.383	13.38
387.748	13.53
388.114	13.63
388.479	13.66
388.845	13.46
389.21	13.77
389.575	13.96
389.94	13.64
390.306	13.8
390.671	13.71
391.036	13.62
391.401	13.94
391.766	13.69
392.131	13.83
392.496	13.97
392.861	13.72
393.226	13.63
393.591	13.98
393.956	13.85
394.32	13.91
394.685	13.81
395.05	13.84
395.414	14.01
395.779	14.17
396.143	14.03
396.508	14.11
396.872	13.8
397.236	14.29
397.601	14.4
397.965	14.05
398.329	14.15
398.694	13.72
399.058	13.9
399.422	14.02
399.786	14.05
400.15	14.04
400.514	14.13
400.878	14.03
401.242	14.22
401.605	14.11
401.969	14.17
402.333	14.24
402.697	14.32
403.06	14.36
403.424	14.45
403.787	14.31
404.151	14.16
404.514	14.55
404.878	14.26
405.241	14.26
405.604	14.16
405.968	14.2
406.331	14.47
406.694	14.22
407.057	14.23
407.42	14.33
407.783	14.45
408.146	14.22
408.509	14.45
408.872	14.77
409.235	14.36
409.598	14.61
409.961	14.67
410.323	14.47
410.686	14.52
411.049	14.65
411.411	14.42
411.774	14.55
412.136	14.66
412.499	14.7
412.861	14.52
413.223	14.72
413.586	14.86
413.948	14.95
414.31	14.84
414.672	14.78
415.035	14.9
415.397	14.78
415.759	14.73
416.121	15.12
416.483	14.99
416.845	15.08
417.206	14.97
417.568	14.89
417.93	15.13
418.292	15.16
418.653	15.1
419.015	15.06
419.377	15.09
419.738	15.18
420.1	15.15
420.461	15.07
420.822	15.19
421.184	15.27
421.545	15.41
421.906	15.41
422.267	15.29
422.629	15.27
422.99	15.34
423.351	15.36
423.712	15.54
424.073	15.76
424.434	15.74
424.795	15.64
425.155	15.72
425.516	15.71
425.877	15.71
426.238	15.78
426.598	15.89
426.959	16.07
427.32	16.18
427.68	16.22
428.041	16.42
428.401	16.44
428.761	16.63
429.122	16.64
429.482	16.67
429.842	16.81
430.202	17.1
430.563	16.96
430.923	16.93
431.283	17.05
431.643	16.97
432.003	17.27
432.363	17.33
432.722	17.36
433.082	17.15
433.442	17.34
433.802	17.42
434.161	17.31
434.521	17.35
434.881	17.64
435.24	17.5
435.6	17.71
435.959	17.77
436.319	17.78
436.678	18.02
437.037	17.98
437.396	17.99
437.756	17.95
438.115	17.98
438.474	18.16
438.833	18.19
439.192	18.24
439.551	18.33
439.91	18.22
440.269	18.38
440.628	18.27
440.987	18.31
441.345	18.6
441.704	18.48
442.063	18.53
442.421	18.49
442.78	18.66
443.138	18.7
443.497	18.73
443.855	18.88
444.214	18.96
444.572	19.06
444.93	19.04
445.288	19.19
445.647	19.08
446.005	19.25
446.363	19.03
446.721	19.03
447.079	19.05
447.437	19.07
447.795	19.1
448.153	19.13
448.51	19.16
448.868	19.15
449.226	19.35
449.584	19.47
449.941	19.56
450.299	19.6
450.656	19.76
451.014	19.79
451.371	20.14
451.729	19.97
452.086	19.88
452.443	20.04
452.801	20.11
453.158	20.26
453.515	20.09
453.872	20.34
454.229	20.21
454.586	20.37
454.943	20.38
455.3	20.32
455.657	20.56
456.014	20.4
456.371	20.57
456.727	20.75
457.084	20.84
457.441	20.89
457.797	20.76
458.154	21.01
458.51	20.96
458.867	20.96
459.223	20.84
459.58	20.98
459.936	21.02
460.292	20.95
460.648	20.89
461.005	20.73
461.361	20.79
461.717	20.65
462.073	20.89
462.429	21.14
462.785	21.15
463.141	21.55
463.496	21.48
463.852	21.73
464.208	21.69
464.564	21.79
464.919	21.88
465.275	21.92
465.631	21.91
465.986	21.93
466.342	21.94
466.697	22.03
467.052	22.24
467.408	21.91
467.763	22.09
468.118	22.01
468.473	22.18
468.829	22.27
469.184	22.46
469.539	22.26
469.894	22.53
470.249	22.43
470.603	22.63
470.958	22.6
471.313	22.68
471.668	22.63
472.023	22.84
472.377	22.82
472.732	23.01
473.086	22.94
473.441	22.99
473.795	22.97
474.15	23
474.504	22.87
474.859	22.91
475.213	23.13
475.567	22.93
475.921	23.21
476.275	23.24
476.63	23.54
476.984	23.4
477.338	23.41
477.692	23.48
478.045	23.34
478.399	23.51
478.753	23.32
479.107	23.43
479.461	23.42
479.814	23.53
480.168	23.61
480.521	23.56
480.875	23.58
481.228	23.62
481.582	23.66
481.935	23.75
482.289	23.71
482.642	23.75
482.995	23.74
483.348	23.5
483.701	23.6
484.055	23.36
484.408	23.41
484.761	22.95
485.114	22.94
485.466	22.88
485.819	22.99
486.172	23.18
486.525	23.31
486.878	23.57
487.23	23.64
487.583	23.85
487.936	23.66
488.288	23.54
488.641	23.46
488.993	23.46
489.345	23.54
489.698	23.55
490.05	23.62
490.402	23.8
490.754	23.98
491.107	24.12
491.459	24.3
491.811	24.5
492.163	24.47
492.515	24.15
492.866	24.03
493.218	23.84
493.57	24.12
493.922	24.26
494.274	24.51
494.625	24.75
494.977	24.89
495.328	25.15
495.68	25.18
496.031	25.44
496.383	25.35
496.734	25.5
497.086	25.38
497.437	25.53
497.788	25.35
498.139	25.27
498.49	25.4
498.842	25.19
499.193	25.35
499.544	25.42
499.894	25.55
500.245	25.66
500.596	25.74
500.947	25.68
501.298	25.71
501.648	25.95
501.999	26.21
502.35	25.88
502.7	26.01
503.051	26.15
503.401	26
503.752	26.24
504.102	26.34
504.452	26.13
504.803	26.23
505.153	26.39
505.503	26.29
505.853	26.46
506.203	26.38
506.553	26.52
506.903	26.6
507.253	26.5
507.603	26.63
507.953	26.55
508.303	26.53
508.652	26.52
509.002	26.72
509.352	26.61
509.701	26.43
510.051	26.71
510.4	26.61
510.75	26.53
511.099	26.53
511.449	26.61
511.798	26.83
512.147	26.74
512.496	26.91
512.846	26.98
513.195	27.03
513.544	26.97
513.893	27.06
514.242	27
514.591	26.94
514.939	27.31
515.288	27.24
515.637	27.37
515.986	27.29
516.334	27.41
516.683	27.42
517.032	27.46
517.38	27.47
517.729	27.34
518.077	27.54
518.426	27.66
518.774	27.25
519.122	27.46
519.47	27.23
519.819	27.15
520.167	27.12
520.515	27.17
520.863	27.22
521.211	27.53
521.559	27.49
521.907	27.81
522.255	27.53
522.602	27.66
522.95	27.89
523.298	27.96
523.645	28.05
523.993	28
524.341	28.05
524.688	28.02
525.036	28.03
525.383	28.15
525.73	28.07
526.078	28.18
526.425	27.97
526.772	27.79
527.119	27.7
527.466	27.67
527.814	27.81
528.161	27.93
528.508	27.87
528.854	27.88
529.201	27.7
529.548	27.49
529.895	27.24
530.242	27.28
530.588	27.37
530.935	27.59
531.282	27.71
531.628	27.84
531.975	27.99
532.321	28.22
532.667	28.34
533.014	28.35
533.36	28.41
533.706	28.41
534.052	28.29
534.399	28.16
534.745	27.98
535.091	28.04
535.437	28.11
535.783	28.4
536.129	28.47
536.474	28.69
536.82	28.74
537.166	28.84
537.512	28.89
537.857	28.6
538.203	28.57
538.549	28.66
538.894	28.84
539.239	28.99
539.585	29.22
539.93	29.31
540.276	29.41
540.621	29.52
540.966	29.53
541.311	29.57
541.656	29.33
542.001	29.17
542.346	28.98
542.691	28.8
543.036	28.59
543.381	28.88
543.726	28.89
544.071	29.14
544.415	29.32
544.76	29.3
545.105	29.36
545.449	29.58
545.794	29.85
546.138	29.74
546.483	29.87
546.827	29.79
547.171	30.04
547.516	30.06
547.86	30.04
548.204	29.91
548.548	29.91
548.892	30.02
549.236	30.15
549.58	30.52
549.924	30.48
550.268	30.75
550.612	30.74
550.956	30.96
551.3	31.11
551.643	31.06
551.987	31.02
552.33	31.26
552.674	31.16
553.017	31.05
553.361	31.14
553.704	31.18
554.048	31.07
554.391	30.88
554.734	30.94
555.077	31.08
555.42	31.16
555.764	31.28
556.107	31.55
556.45	31.46
556.793	31.61
557.135	31.61
557.478	31.68
557.821	31.6
558.164	31.69
558.507	31.64
558.849	31.71
559.192	31.78
559.534	31.92
559.877	31.79
560.219	31.91
560.562	31.67
560.904	32.02
561.246	31.81
561.589	32.2
561.931	32.06
562.273	32.14
562.615	31.99
562.957	32.01
563.299	32.06
563.641	32.33
563.983	32.28
564.325	32.19
564.667	32.29
565.008	32.44
565.35	32.17
565.692	32.46
566.033	32.37
566.375	32.61
566.716	32.56
567.058	32.49
567.399	32.5
567.741	32.19
568.082	32.29
568.423	32.49
568.764	32.48
569.105	32.5
569.447	32.67
569.788	32.81
570.129	32.75
570.47	32.96
570.811	32.77
571.151	32.9
571.492	32.9
571.833	32.87
572.174	32.87
572.514	33.22
572.855	33.07
573.195	32.97
573.536	33.09
573.876	33.02
574.217	33.05
574.557	33.17
574.898	33.22
575.238	33.43
575.578	33.38
575.918	33.38
576.258	33.62
576.598	33.45
576.938	33.52
577.278	33.57
577.618	33.42
577.958	33.81
578.298	34
578.638	33.82
578.977	33.91
579.317	33.91
579.657	33.97
579.996	34.14
580.336	34.37
580.675	34.52
581.014	34.33
581.354	34.68
581.693	34.69
582.032	34.92
582.372	34.49
582.711	35
583.05	34.63
583.389	34.45
583.728	35.1
584.067	34.67
584.406	34.79
584.745	35.1
585.083	35.21
585.422	34.91
585.761	35.22
586.1	35.23
586.438	35.17
586.777	35.14
587.115	35.03
587.454	35.21
587.792	35.26
588.13	35.12
588.469	35.5
588.807	35.4
589.145	35.77
589.483	35.2
589.821	35.74
590.159	35.55
590.497	35.66
590.835	35.68
591.173	35.82
591.511	36.12
591.849	35.77
592.187	35.6
592.524	35.75
592.862	35.84
593.2	35.7
593.537	36.09
593.875	36.01
594.212	35.94
594.55	36.44
594.887	35.93
595.224	36.12
595.561	35.99
595.899	36.38
596.236	36.54
596.573	36.13
596.91	36.43
597.247	36.55
597.584	36.26
597.921	36.32
598.258	36.23
598.594	36.1
598.931	36.15
599.268	36.06
599.604	36.36
599.941	36.63
600.277	36.55
600.614	36.88
600.95	37.15
601.287	36.98
601.623	36.81
601.959	37.06
602.296	37.22
602.632	37.04
602.968	36.92
603.304	37.24
603.64	37.26
603.976	37.16
604.312	37.24
604.648	37.24
604.984	37.21
605.319	36.92
605.655	37
605.991	36.92
606.326	36.86
606.662	36.98
606.998	37.07
607.333	37.24
607.668	37.17
608.004	37.44
608.339	37.65
608.674	37.48
609.01	37.68
609.345	38.03
609.68	37.79
610.015	37.77
610.35	37.64
610.685	37.63
611.02	37.36
611.355	37.52
611.689	37.69
612.024	37.69
612.359	38
612.694	38.19
613.028	38.08
613.363	38.22
613.697	38.49
614.032	38.45
614.366	38.85
614.7	38.52
615.035	38.15
615.369	38.81
615.703	38.54
616.037	38.69
616.371	38.66
616.705	38.79
617.039	38.8
617.373	38.66
617.707	38.85
618.041	39.03
618.375	38.32
618.709	38.85
619.042	38.72
619.376	39.04
619.71	38.85
620.043	38.94
620.377	39.22
620.71	38.85
621.043	39.14
621.377	39.41
621.71	39
622.043	38.94
622.376	39.33
622.709	39.44
623.043	39.73
623.376	39.44
623.709	39.54
624.041	39.11
624.374	39.06
624.707	39.58
625.04	39.29
625.373	39.61
625.705	39.39
626.038	39.47
626.37	39.11
626.703	39.68
627.035	39.08
627.368	39.85
627.7	39.5
628.032	39.24
628.365	39.34
628.697	39.62
629.029	39.71
629.361	39.83
629.693	39.85
630.025	40.08
630.357	39.79
630.689	40.03
631.021	40.38
631.353	40.38
631.684	40.13
632.016	39.95
632.348	39.9
632.679	40.32
633.011	40.16
633.342	40.16
633.674	40.11
634.005	40.47
634.336	40.67
634.668	40.87
634.999	40.71
635.33	40.92
635.661	40.96
635.992	40.81
636.323	40.83
636.654	40.69
636.985	40.58
637.316	40.88
637.647	41.3
637.977	41.08
638.308	41.65
638.639	41.22
638.969	40.79
639.3	41.58
639.63	40.77
639.961	41.41
640.291	41.47
640.622	41.41
640.952	41.96
641.282	41.46
641.612	41.46
641.943	40.7
642.273	41.64
642.603	41.73
642.933	42.1
643.263	42.23
643.592	41.99
643.922	42.34
644.252	42.19
644.582	41.82
644.911	41.48
645.241	42.12
645.571	42.14
645.9	42.76
646.23	42.83
646.559	41.87
646.888	42.46
647.218	42.31
647.547	42.25
647.876	42.73
648.205	42.4
648.534	43.05
648.863	42.52
649.192	42.35
649.521	42.76
649.85	43.1
650.179	42.63
650.508	42.39
650.837	42.67
651.165	43.45
651.494	42.81
651.822	42.87
652.151	42.74
652.479	42.8
652.808	42.96
653.136	42.95
653.465	43.03
653.793	43.25
654.121	43.16
654.449	43.14
654.777	43
655.105	42.95
655.433	43.32
655.761	43.76
656.089	43.46
656.417	44
656.745	43.5
657.073	42.97
657.4	43.44
657.728	43.37
658.056	44.07
658.383	43.95
658.711	43.41
659.038	43.85
659.365	44.12
659.693	43.83
660.02	43.81
660.347	43.45
660.674	43.47
661.001	43.91
661.329	43.78
661.656	43.58
661.982	43.74
662.309	43.8
662.636	44.2
662.963	44.3
663.29	44.4
663.616	44.4
663.943	44.17
664.27	44.57
664.596	45.01
664.923	44.7
665.249	43.93
665.576	44.83
665.902	43.93
666.228	44.36
666.554	45.18
666.881	44.49
667.207	44.78
667.533	45.04
667.859	45.09
668.185	45.22
668.511	45.06
668.837	44.81
669.162	44.99
669.488	44.4
669.814	44.93
670.139	45.11
670.465	45.27
670.791	44.92
671.116	44.66
671.442	44.88
671.767	45.45
672.092	44.77
672.418	45.24
672.743	45.56
673.068	44.8
673.393	45.05
673.718	45.1
674.043	45.1
674.368	45.14
674.693	45.75
675.018	45.96
675.343	45.86
675.667	45.51
675.992	46
676.317	45.28
676.641	46.38
676.966	46.32
677.29	45.06
677.615	46.15
677.939	45.98
678.264	45.62
678.588	45.55
678.912	46.1
679.236	45.67
679.56	46.3
679.885	46.13
680.209	46.33
680.532	46.69
680.856	45.97
681.18	45.96
681.504	45.96
681.828	46.01
682.152	45.72
682.475	45.93
682.799	46.39
683.122	46.04
683.446	46.04
683.769	46.81
684.093	46.66
684.416	46.48
684.739	47.08
685.062	46.49
685.386	46.59
685.709	46.84
686.032	47
686.355	47.64
686.678	47.1
687.001	46.17
687.324	46.89
687.646	46.73
687.969	47.23
688.292	46.52
688.614	46.89
688.937	47.06
689.26	47.73
689.582	47.37
689.904	47.42
690.227	48.01
690.549	48.08
690.871	47.5
691.194	47.5
691.516	46.67
691.838	47.03
692.16	46.71
692.482	46.83
692.804	48.07
693.126	47.88
693.448	47.14
693.769	47.75
694.091	47.94
694.413	47.54
694.735	47.83
695.056	48.24
695.378	47.1
695.699	47.93
696.021	47.56
696.342	48.13
696.663	48.37
696.984	48.22
697.306	48.01
697.627	48.91
697.948	47.54
698.269	48.51
698.59	47.78
698.911	47.51
699.232	48.6
699.553	47.62
699.873	47.32
700.194	48.28
700.515	48.36
700.835	47.82
701.156	48.61
701.477	48.67
701.797	48.52
702.117	48.9
702.438	48.77
702.758	48.51
703.078	48.66
703.398	48.12
703.719	48.68
704.039	48.56
704.359	47.78
704.679	48.07
704.999	47.04
705.319	49.31
705.638	48.55
705.958	48.62
706.278	48.03
706.597	48.78
706.917	48.53
707.237	48.7
707.556	48.67
707.876	48.78
708.195	49.69
708.514	48.39
708.834	48.53
709.153	49.14
709.472	49.02
709.791	48.8
710.11	48.69
710.429	49.52
710.748	49.8
711.067	50.38
711.386	48.84
711.705	49.15
712.023	49.08
712.342	49.14
712.661	50.32
712.979	49.01
713.298	49.34
713.616	50.43
713.935	50
714.253	49.67
714.572	49.93
714.89	49.3
715.208	50.13
715.526	50.27
715.844	49.79
716.162	49.81
716.48	49.83
716.798	50.21
717.116	50.36
717.434	50.71
717.752	49.69
718.069	50.48
718.387	49.95
718.705	50.34
719.022	49.98
719.34	49.3
719.657	50.05
719.975	50.09
720.292	49.55
720.609	49.3
720.927	49.93
721.244	50.85
721.561	49.25
721.878	50.52
722.195	50.32
722.512	51.54
722.829	51.34
723.146	49.76
723.463	50.07
723.779	49.94
724.096	49.44
724.413	51.09
724.729	51.6
725.046	49.23
725.362	50.77
725.679	50.9
725.995	49.08
726.311	49.77
726.628	49.85
726.944	51.02
727.26	50.09
727.576	50.48
727.892	50.08
728.208	50.46
728.524	50.02
728.84	50.44
729.156	49.15
729.472	50.7
729.787	50.76
730.103	51.04
730.419	50.55
730.734	50.18
731.05	50.45
731.365	52.15
731.681	51.55
731.996	50.48
732.311	49.62
732.626	50.61
732.942	51.38
733.257	50.82
733.572	50.84
733.887	50.68
734.202	52.03
734.517	50.78
734.832	50.56
735.146	50.8
735.461	49.75
735.776	51.82
736.091	51.31
736.405	51.22
736.72	51.21
737.034	50.51
737.349	52.13
737.663	51.57
737.977	51.97
738.292	49.6
738.606	51.65
738.92	51.65
739.234	50.58
739.548	52.02
739.862	50.88
740.176	53.09
740.49	51.37
740.804	53.29
741.117	50.06
741.431	51.6
741.745	49.96
742.058	52.19
742.372	50.14
742.685	52.73
742.999	51.82
743.312	52.59
743.626	53.92
743.939	51.72
744.252	51.9
744.565	51.42
744.878	51.02
745.191	52.44
745.505	51.65
745.817	51.06
746.13	50.38
746.443	50.65
746.756	52.77
747.069	53.28
747.381	52.59
747.694	51.29
748.007	51.98
748.319	52.89
748.632	51.96
748.944	51.79
749.256	52
749.569	50.31
749.881	52.05
750.193	51.81
750.505	52.65
750.817	52.09
751.129	51.9
751.441	52.56
751.753	53.93
752.065	51.89
752.377	53.67
752.689	52.58
753	52.66
753.312	53.56
753.624	52.9
753.935	53.45
754.247	53.48
754.558	52.58
754.869	54.62
755.181	53.88
755.492	52.44
755.803	53.29
756.114	52.45
756.425	51.49
756.736	53.8
757.047	52.81
757.358	52.54
757.669	54.49
757.98	52.61
758.291	55.81
758.601	52.83
758.912	52
759.223	52.03
759.533	51.76
759.844	52.89
760.154	55.18
760.464	52.53
760.775	52.58
761.085	53.16
761.395	52.36
761.705	53.01
762.016	52.52
762.326	52.07
762.636	53.72
762.945	53.43
763.255	53.76
763.565	54.55
763.875	53.1
764.185	54.01
764.494	52.32
764.804	52.9
765.113	52.89
765.423	51.94
765.732	54.07
766.042	53.18
766.351	54.2
766.66	54.19
766.97	52.81
767.279	53.91
767.588	53.31
767.897	50.74
768.206	54.92
768.515	55.41
768.824	52.99
769.133	56.44
769.441	55.21
769.75	52.77
770.059	54.07
770.367	52.74
770.676	53.14
770.984	53.65
771.293	51.15
771.601	52.98
771.91	52.91
772.218	54.56
772.526	53.19
772.834	50.87
773.142	55.35
773.45	55.25
773.758	53.2
774.066	53.16
774.374	56.85
774.682	51.02
774.99	52.08
775.298	52.77
775.605	51.95
775.913	51.94
776.22	53.83
776.528	53.43
776.835	53.95
777.143	56.75
777.45	53.88
777.757	52.97
778.065	54.67
778.372	54.64
778.679	54.1
778.986	55.76
779.293	52.97
779.6	56.77
779.907	50.44
780.214	54.94
780.52	56.18
780.827	54.02
781.134	53.54
781.44	57.27
781.747	53.98
782.053	53.35
782.36	52.61
782.666	53.69
782.973	52.22
783.279	54.41
783.585	54.47
783.891	57.81
784.197	55.15
784.503	55.45
784.809	55.56
785.115	55.59
785.421	55.92
785.727	54.37
786.033	53.03
786.339	52.92
786.644	54.33
786.95	52.77
787.255	50.78
787.561	55.22
787.866	55.39
788.172	55.7
788.477	53.35
788.782	51.15
789.088	52.73
789.393	54
789.698	52.68
790.003	53.13
790.308	55.41
790.613	53.32
790.918	52.86
791.223	55.51
791.527	57.05
791.832	52.97
792.137	54.86
792.441	53.89
792.746	51.92
793.05	55.92
793.355	57.65
793.659	57.21
793.963	55.25
794.268	54.5
794.572	53.69
794.876	50.39
795.18	57.87
795.484	56.92
795.788	58.07
796.092	50.56
796.396	53
796.7	52.22
797.004	56.14
797.307	57.79
797.611	59.17
797.915	54.86
798.218	53.25
798.522	54.18
798.825	57.47
799.128	55.1
799.432	57.87
799.735	53.83
800.038	53
800.341	56.51
800.644	54.35
800.947	56.84
801.25	52.08
801.553	56.84
801.856	52.38
802.159	59.1
802.462	54.13
802.764	55.99
803.067	55.97
803.37	52.5
803.672	59.74
803.975	56.32
804.277	47.68
804.579	53.04
804.882	56.58
805.184	59.73
805.486	56.82
805.788	55.2
806.09	54.42
806.392	55.04
806.694	51.94
806.996	59.02
807.298	51.74
807.6	54.28
807.902	51.42
808.203	57.18
808.505	58.55
808.807	55.62
809.108	56.51
809.409	54.33
809.711	54.08
810.012	56.39
810.313	58.5
810.615	55.97
810.916	55.07
811.217	54.48
811.518	49.75
811.819	55.31
812.12	56.4
812.421	55.48
812.722	49.77
813.023	55.42
813.323	55.14
813.624	53.74
813.925	56.52
814.225	60.25
814.526	55.22
814.826	57.79
815.126	50.58
815.427	51.65
815.727	51.43
816.027	54.38
816.327	56.89
816.627	54.32
816.927	56.49
817.227	56.32
817.527	55.72
817.827	55.3
818.127	52.93
818.427	49.39
818.727	51.88
819.026	53.75
819.326	53.28
819.625	54.94
819.925	62.95
820.224	59.73
820.524	50.46
820.823	56.4
821.122	52.01
821.421	56.14
821.72	48.79
822.019	54.77
822.318	57.31
822.617	55.3
822.916	56.59
823.215	56.63
823.514	57.7
823.813	56.5
824.111	56.22
824.41	57.81
824.709	57.76
825.007	57.41
825.306	57.6
825.604	56.58
825.902	58.76
826.201	58.21
826.499	58.5
826.797	59.66
827.095	58.56
827.393	57.97
827.691	58.89
827.989	58.51
828.287	56.69
828.585	56.83
828.882	54.63
829.18	57.74
829.478	57.75
829.775	57.1
830.073	57.72
830.37	57.41
830.668	58.16
830.965	61.41
831.263	54.94
831.56	57.12
831.857	58.63
832.154	58.09
832.451	54.88
832.748	55.62
833.045	56.02
833.342	55.74
833.639	63.86
833.936	57.36
834.232	57.08
834.529	54.71
834.826	61.68
835.122	53.06
835.419	59.81
835.715	54.39
836.012	57.14
836.308	59.71
836.604	56.74
836.901	57.83
837.197	59.87
837.493	56.46
837.789	57.65
838.085	58.02
838.381	62.35
838.677	55.73
838.972	55.53
839.268	61.11
839.564	51.4
839.86	58.21
840.155	62
840.451	58
840.746	55.05
841.042	51.79
841.337	51.12
841.632	56.03
841.928	60.34
842.223	56.86
842.518	59.32
842.813	51.46
843.108	58.18
843.403	60.8
843.698	56.85
843.993	54.87
844.287	59.27
844.582	60.12
844.877	53.15
845.171	46.93
845.466	50.1
845.761	51.24
846.055	47.32
846.349	46.57
846.644	57.7
846.938	56.66
847.232	60.68
847.526	43.92
847.82	54.86
848.114	57.46
848.408	52.93
848.702	50.19
848.996	59.8
849.29	55.22
849.584	56.07
849.877	59.49
850.171	63.02
850.465	69.2
850.758	70.03
851.052	28.93
851.345	45.78
851.638	58.6
851.932	59.94
852.225	60.87
852.518	55.74
852.811	44.91
853.104	56.96
853.397	50.01
853.69	50.58
853.983	49.58
854.276	64.65
854.569	28.69
854.861	72.39
855.154	62.95
855.447	52.55
855.739	48.18
856.032	57.7
856.324	48.16
856.616	71.83
856.909	45.22
857.201	48.01
857.493	41.84
857.785	69.58
858.077	54.47
858.369	31.53
858.661	58.97
858.953	59.15
859.245	39.22
859.537	55.89
859.829	45.54
860.12	51.53
860.412	51.69
860.703	53.46
860.995	61.52
861.286	10.33
861.578	56.76
861.869	44.34
862.16	48.05
862.452	36.73
862.743	52.83
863.034	48.18
863.325	63.13
863.616	70.45
863.907	47.63
864.198	35.32
864.488	54.86
864.779	59.37
865.07	48.88
865.36	54.32
865.651	51.73
865.941	52.07
866.232	43.57
866.522	25.06
866.813	40.57
867.103	62.72
867.393	50.62
867.683	66.96
867.973	52.3
868.263	52.08
868.553	69.02
868.843	46.41
869.133	70.39
869.423	44.32
869.713	52.21
870.002	47.98
870.292	65.81
870.582	42.12
870.871	60.95
871.161	43.65
871.45	34.33
871.739	49.98
872.029	59.44
872.318	67.13
872.607	72.63
872.896	69.68
873.185	58.07
873.474	50.38
873.763	56.1
874.052	49.25
874.341	49
874.63	69.52
874.918	43.51
875.207	44.73
875.496	37.06
875.784	72.05
876.073	80.83
876.361	47.34
876.649	39.5
876.938	60.55
877.226	55.19
877.514	57.77
877.802	65.69
878.09	70.37
878.378	55.15
878.666	87.33
878.954	79.78
879.242	42
879.53	80.47
879.817	18.08
880.105	61.85
880.392	62.64
880.68	64.25
880.967	43.36
881.255	41.78
881.542	56.56
881.83	71.73
882.117	41.28
882.404	58.87
882.691	59.56
882.978	67.95
883.265	81.66
883.552	53.58
883.839	53.98
884.126	54.92
884.413	64.53
884.699	62.36
884.986	57.68
885.273	66.45
885.559	66.45
885.846	66.45
