Data from 0387_crown_Reflection__1__237.txt Node

Date: Fri Dec 15 18:30:47 CST 2023
User: ToomeyLab
Spectrometer: FLMS14357
Trigger mode: 0
Integration Time (sec): 1.000000E-2
Scans to average: 100
Electric dark correction enabled: true
Nonlinearity correction enabled: false
Boxcar width: 0
XAxis mode: Wavelengths
Number of Pixels in Spectrum: 2048
>>>>>Begin Spectral Data<<<<<
189.047	-47.49
189.435	-47.49
189.823	-47.49
190.211	-128.14
190.599	-25.6
190.987	175.53
191.375	478.42
191.763	-145.81
192.151	231.91
192.538	87.62
192.926	58.44
193.314	77.01
193.702	64.58
194.089	-142.28
194.477	55.64
194.864	26.43
195.252	117.06
195.639	111.04
196.027	713.28
196.414	109.14
196.801	27.97
197.189	142.1
197.576	1.72
197.963	9.8
198.351	-259.15
198.738	-11.79
199.125	1.68
199.512	-40.98
199.899	-5.44
200.286	22.93
200.673	27.61
201.06	-11.1
201.447	-22.21
201.833	-79.17
202.22	4.37
202.607	34.05
202.994	-48.84
203.38	2.71
203.767	10.78
204.154	19.52
204.54	24.38
204.927	-21.78
205.313	-123.82
205.699	43.08
206.086	-1.48
206.472	19.15
206.858	-21.73
207.245	-34.49
207.631	20.23
208.017	-14.43
208.403	-40.8
208.789	29.81
209.175	42.95
209.561	-98.75
209.947	-26.34
210.333	-76.77
210.719	14.13
211.105	11.8
211.491	-24.24
211.876	57.68
212.262	6.65
212.648	18.02
213.034	46.47
213.419	-39.83
213.805	-9.32
214.19	-13.22
214.576	-1.05
214.961	55.33
215.346	-46.88
215.732	-29.11
216.117	31.6
216.502	-29.49
216.888	-19.46
217.273	7.18
217.658	-60.99
218.043	4.12
218.428	-50.69
218.813	-49.36
219.198	-10.89
219.583	0.41
219.968	13.29
220.353	-33.5
220.738	0.28
221.122	-6.45
221.507	-29.34
221.892	-38.82
222.276	-15.34
222.661	-7.05
223.046	17.24
223.43	7.76
223.815	9.09
224.199	-9.03
224.583	-12.11
224.968	-10.74
225.352	2.61
225.736	8.05
226.121	-5.2
226.505	2.81
226.889	3.6
227.273	9.17
227.657	11.36
228.041	5.49
228.425	6.31
228.809	5.05
229.193	6.46
229.577	4.65
229.961	5.02
230.344	5.63
230.728	5.41
231.112	5.43
231.495	5.89
231.879	5.22
232.263	7.06
232.646	5.28
233.03	5.15
233.413	5.59
233.797	5.73
234.18	4.49
234.563	3.38
234.946	4
235.33	7.99
235.713	5.09
236.096	4.64
236.479	6.48
236.862	3.35
237.245	4.69
237.628	4.27
238.011	5.47
238.394	6.42
238.777	4.95
239.16	3.81
239.543	4.07
239.925	6.35
240.308	5.25
240.691	4.4
241.073	6.53
241.456	4.91
241.838	4.03
242.221	3.3
242.603	5.53
242.986	5.93
243.368	5.92
243.75	6.05
244.133	5.22
244.515	5.52
244.897	5.54
245.279	5.14
245.661	4.7
246.043	4.73
246.425	4.93
246.807	5.63
247.189	6.16
247.571	5.12
247.953	5.33
248.335	5.5
248.717	5.42
249.098	5.56
249.48	5.35
249.862	5.61
250.243	5.25
250.625	5.43
251.006	5.62
251.388	4.68
251.769	4.02
252.151	5.08
252.532	4.69
252.913	4.66
253.295	4.67
253.676	5.42
254.057	4.35
254.438	5.38
254.819	4.53
255.2	4.04
255.581	5.78
255.962	4.9
256.343	4.74
256.724	4.94
257.105	4.44
257.486	3.74
257.867	5.46
258.247	4.21
258.628	3.98
259.009	5.57
259.389	4.33
259.77	3.64
260.15	3.94
260.531	4.07
260.911	5.2
261.292	5
261.672	5.32
262.052	4.9
262.432	5.32
262.813	4.87
263.193	5.08
263.573	4.12
263.953	4.57
264.333	4.95
264.713	4.6
265.093	4.31
265.473	4.47
265.853	4.57
266.233	5.33
266.612	3.68
266.992	3.38
267.372	4.68
267.752	3.75
268.131	5.16
268.511	4.55
268.89	5.25
269.27	4.39
269.649	4
270.029	4.73
270.408	5.55
270.787	4.25
271.167	5.09
271.546	5.54
271.925	4
272.304	4.37
272.683	4.83
273.062	4.39
273.441	4.77
273.82	4.11
274.199	4.59
274.578	5.44
274.957	4.94
275.336	4.73
275.715	4.35
276.093	4.1
276.472	4.51
276.851	4.19
277.229	3.83
277.608	4.21
277.986	4.67
278.365	4.63
278.743	5.05
279.122	4.16
279.5	4.67
279.878	4.75
280.257	4.45
280.635	4.3
281.013	4.49
281.391	4.69
281.769	4.71
282.147	4.8
282.525	5.18
282.903	4.25
283.281	4.88
283.659	4.85
284.037	4.6
284.415	4.69
284.792	4.64
285.17	4.17
285.548	4.1
285.925	4.55
286.303	4.47
286.68	4.24
287.058	4.37
287.435	4.69
287.813	4.69
288.19	4.49
288.567	4.23
288.945	4.34
289.322	4.39
289.699	4.26
290.076	4.53
290.453	4.72
290.83	4.14
291.207	3.95
291.584	3.93
291.961	5.1
292.338	4.63
292.715	4.66
293.092	4.31
293.469	4.61
293.845	4.97
294.222	4.32
294.599	3.88
294.975	4.14
295.352	4.14
295.728	4.02
296.105	4.28
296.481	4.58
296.858	4.47
297.234	4.24
297.61	4.25
297.986	4.32
298.363	4.83
298.739	4.46
299.115	4.53
299.491	4.23
299.867	4.37
300.243	5.03
300.619	4.42
300.995	4.45
301.371	4.46
301.746	4.12
302.122	5.01
302.498	4.41
302.874	4.41
303.249	4.67
303.625	4.35
304	4.7
304.376	4.53
304.751	4.08
305.127	5.17
305.502	3.78
305.878	3.94
306.253	4.33
306.628	4.58
307.003	4.03
307.378	4.09
307.754	4.56
308.129	3.76
308.504	4.52
308.879	4.08
309.254	4.79
309.629	4.89
310.003	4.54
310.378	5.02
310.753	4.37
311.128	4.79
311.502	4.51
311.877	5.02
312.252	4.1
312.626	4.33
313.001	4.25
313.375	5.13
313.75	4.13
314.124	4.92
314.498	4.06
314.873	4.48
315.247	4.36
315.621	4.37
315.995	3.66
316.369	3.94
316.743	3.97
317.117	4.1
317.491	3.7
317.865	4.61
318.239	4.52
318.613	4.09
318.987	4.8
319.361	4.21
319.734	4.51
320.108	3.82
320.482	4.41
320.855	4.78
321.229	4.49
321.602	4.58
321.976	4.48
322.349	4.7
322.723	4.19
323.096	4.71
323.469	3.92
323.843	4.23
324.216	4.75
324.589	4.36
324.962	4.17
325.335	3.97
325.708	4.43
326.081	4.39
326.454	4.34
326.827	4.22
327.2	4.85
327.573	4.33
327.945	4.56
328.318	4.47
328.691	3.99
329.063	4.76
329.436	4.15
329.809	5.13
330.181	4.55
330.553	4.62
330.926	4.53
331.298	5.03
331.671	4.24
332.043	4.12
332.415	4.83
332.787	4.59
333.159	4.83
333.532	4.55
333.904	4.6
334.276	4.82
334.648	4.13
335.02	4.22
335.391	4.05
335.763	4.38
336.135	4.8
336.507	5.02
336.879	4.55
337.25	4.03
337.622	4.67
337.993	4.59
338.365	4.46
338.736	5.06
339.108	4.62
339.479	3.93
339.851	4.55
340.222	4.38
340.593	4.4
340.964	4.39
341.336	4.9
341.707	4.5
342.078	4.75
342.449	4.66
342.82	4.45
343.191	4.49
343.562	4.73
343.933	5.16
344.303	4.8
344.674	4.53
345.045	4.69
345.416	5.34
345.786	4.59
346.157	4.69
346.527	4.21
346.898	4.71
347.268	5.07
347.639	4.69
348.009	4.68
348.38	4.5
348.75	4.59
349.12	4.19
349.49	5.07
349.861	4.91
350.231	4.31
350.601	4.66
350.971	5
351.341	4.54
351.711	4.73
352.081	4.77
352.45	4.29
352.82	4.86
353.19	4.95
353.56	4.53
353.929	4.89
354.299	4.67
354.669	4.17
355.038	5.05
355.408	4.39
355.777	4.73
356.147	4.37
356.516	4.66
356.885	4.72
357.254	4.88
357.624	4.62
357.993	5.1
358.362	4.59
358.731	4.47
359.1	4.68
359.469	4.79
359.838	5.14
360.207	4.81
360.576	4.33
360.945	4.44
361.314	5.28
361.682	4.33
362.051	4.39
362.42	4.77
362.788	4.93
363.157	5.01
363.525	4.79
363.894	5.09
364.262	4.89
364.631	4.8
364.999	4.9
365.367	4.44
365.735	5.14
366.104	4.89
366.472	4.71
366.84	4.46
367.208	4.49
367.576	4.8
367.944	5.02
368.312	4.75
368.68	4.79
369.048	5.26
369.416	5.09
369.783	4.7
370.151	4.85
370.519	5.42
370.886	4.85
371.254	4.87
371.621	5.07
371.989	5.05
372.356	4.43
372.724	5.09
373.091	4.57
373.458	5.05
373.826	4.98
374.193	4.43
374.56	5.15
374.927	4.9
375.294	5.05
375.661	4.72
376.028	4.9
376.395	4.6
376.762	5.03
377.129	4.6
377.496	4.86
377.863	5.02
378.229	4.68
378.596	4.87
378.963	4.94
379.329	4.68
379.696	5.26
380.062	5.1
380.429	4.94
380.795	4.49
381.161	5.11
381.528	5.53
381.894	4.95
382.26	4.79
382.626	4.92
382.993	4.97
383.359	5.34
383.725	4.68
384.091	5.04
384.457	5.09
384.823	5.18
385.188	4.98
385.554	5.31
385.92	4.84
386.286	5.12
386.651	4.91
387.017	5.29
387.383	5.19
387.748	5.05
388.114	5.41
388.479	4.99
388.845	5.14
389.21	5.17
389.575	5.14
389.94	5.12
390.306	4.96
390.671	5.36
391.036	4.72
391.401	4.93
391.766	4.83
392.131	5.13
392.496	5.31
392.861	4.82
393.226	5.42
393.591	5.29
393.956	4.94
394.32	5.13
394.685	4.87
395.05	4.98
395.414	5.19
395.779	5.01
396.143	5.11
396.508	5.09
396.872	5.48
397.236	5.17
397.601	4.98
397.965	5.34
398.329	5.32
398.694	5.38
399.058	5.42
399.422	4.89
399.786	5.63
400.15	5.12
400.514	5.24
400.878	5.07
401.242	5.37
401.605	5.36
401.969	5.47
402.333	5.3
402.697	5.18
403.06	5.28
403.424	5.3
403.787	5.08
404.151	5.57
404.514	5.01
404.878	5.12
405.241	5.56
405.604	5.07
405.968	5.39
406.331	5.2
406.694	5.43
407.057	5.12
407.42	5.43
407.783	5
408.146	5.27
408.509	5.07
408.872	5.15
409.235	5.36
409.598	5.47
409.961	5.13
410.323	5.32
410.686	5.04
411.049	5.19
411.411	5.1
411.774	5.2
412.136	5.31
412.499	5.22
412.861	5.26
413.223	5.24
413.586	5.32
413.948	5.43
414.31	5.34
414.672	5.11
415.035	5.11
415.397	5.42
415.759	5.49
416.121	5.27
416.483	5.19
416.845	5.24
417.206	5.01
417.568	5.23
417.93	5.05
418.292	5.21
418.653	5.45
419.015	5.21
419.377	5.19
419.738	5.31
420.1	5.27
420.461	5.23
420.822	5.23
421.184	5.16
421.545	5.09
421.906	5.12
422.267	5.2
422.629	5.14
422.99	5.17
423.351	5.13
423.712	5.22
424.073	5.26
424.434	5.14
424.795	5.16
425.155	5.28
425.516	5.1
425.877	5.2
426.238	5.17
426.598	5.38
426.959	5.09
427.32	5.21
427.68	5.13
428.041	5.29
428.401	5.26
428.761	5.23
429.122	5.42
429.482	5.18
429.842	5.34
430.202	5.21
430.563	5.28
430.923	5.3
431.283	5.5
431.643	5.17
432.003	5.34
432.363	5.42
432.722	5.22
433.082	5.36
433.442	5.16
433.802	5.08
434.161	5.33
434.521	5.52
434.881	5.32
435.24	5.25
435.6	5.4
435.959	5.31
436.319	5.24
436.678	5.16
437.037	5.24
437.396	5.38
437.756	5.4
438.115	5.34
438.474	5.49
438.833	5.16
439.192	5.31
439.551	5.42
439.91	5.2
440.269	5.32
440.628	5.24
440.987	5.28
441.345	5.23
441.704	5.32
442.063	5.19
442.421	5.42
442.78	5.26
443.138	5.28
443.497	5.34
443.855	5.29
444.214	5.35
444.572	5.24
444.93	5.23
445.288	5.42
445.647	5.45
446.005	5.25
446.363	5.42
446.721	5.3
447.079	5.24
447.437	5.32
447.795	5.38
448.153	5.25
448.51	5.27
448.868	5.21
449.226	5.35
449.584	5.3
449.941	5.4
450.299	5.32
450.656	5.34
451.014	5.5
451.371	5.15
451.729	5.26
452.086	5.37
452.443	5.31
452.801	5.44
453.158	5.4
453.515	5.21
453.872	5.52
454.229	5.16
454.586	5.25
454.943	5.32
455.3	5.35
455.657	5.43
456.014	5.14
456.371	5.51
456.727	5.35
457.084	5.42
457.441	5.35
457.797	5.4
458.154	5.68
458.51	5.56
458.867	5.53
459.223	5.47
459.58	5.54
459.936	5.38
460.292	5.25
460.648	5.32
461.005	5.24
461.361	5.24
461.717	5.3
462.073	5.32
462.429	5.21
462.785	5.36
463.141	5.37
463.496	5.44
463.852	5.49
464.208	5.31
464.564	5.38
464.919	5.38
465.275	5.29
465.631	5.56
465.986	5.36
466.342	5.44
466.697	5.07
467.052	5.35
467.408	5.61
467.763	5.39
468.118	5.33
468.473	5.31
468.829	5.35
469.184	5.33
469.539	5.5
469.894	5.29
470.249	5.58
470.603	5.45
470.958	5.44
471.313	5.5
471.668	5.5
472.023	5.42
472.377	5.37
472.732	5.55
473.086	5.27
473.441	5.13
473.795	5.5
474.15	5.3
474.504	5.41
474.859	5.51
475.213	5.29
475.567	5.36
475.921	5.32
476.275	5.53
476.63	5.5
476.984	5.66
477.338	5.47
477.692	5.26
478.045	5.4
478.399	5.54
478.753	5.59
479.107	5.49
479.461	5.42
479.814	5.4
480.168	5.32
480.521	5.26
480.875	5.31
481.228	5.34
481.582	5.41
481.935	5.33
482.289	5.27
482.642	5.42
482.995	5.33
483.348	5.22
483.701	5.27
484.055	5.43
484.408	5.38
484.761	5.24
485.114	5.23
485.466	5.03
485.819	5.03
486.172	5.08
486.525	5.09
486.878	5.2
487.23	5.17
487.583	5.29
487.936	5.28
488.288	5.26
488.641	5.3
488.993	5.13
489.345	5.08
489.698	5.14
490.05	5.13
490.402	5.23
490.754	5.21
491.107	5.34
491.459	5.27
491.811	5.37
492.163	5.35
492.515	5.33
492.866	5.35
493.218	5.23
493.57	5.14
493.922	5.15
494.274	5.28
494.625	5.29
494.977	5.38
495.328	5.47
495.68	5.47
496.031	5.47
496.383	5.51
496.734	5.54
497.086	5.47
497.437	5.46
497.788	5.45
498.139	5.39
498.49	5.35
498.842	5.26
499.193	5.43
499.544	5.33
499.894	5.38
500.245	5.3
500.596	5.41
500.947	5.39
501.298	5.38
501.648	5.49
501.999	5.59
502.35	5.38
502.7	5.41
503.051	5.22
503.401	5.39
503.752	5.63
504.102	5.34
504.452	5.49
504.803	5.4
505.153	5.45
505.503	5.35
505.853	5.32
506.203	5.5
506.553	5.35
506.903	5.31
507.253	5.33
507.603	5.35
507.953	5.56
508.303	5.44
508.652	5.23
509.002	5.56
509.352	5.55
509.701	5.39
510.051	5.51
510.4	5.38
510.75	5.31
511.099	5.45
511.449	5.34
511.798	5.3
512.147	5.38
512.496	5.25
512.846	5.3
513.195	5.36
513.544	5.24
513.893	5.51
514.242	5.4
514.591	5.56
514.939	5.39
515.288	5.25
515.637	5.51
515.986	5.38
516.334	5.41
516.683	5.48
517.032	5.45
517.38	5.46
517.729	5.42
518.077	5.32
518.426	5.45
518.774	5.51
519.122	5.43
519.47	5.49
519.819	5.28
520.167	5.25
520.515	5.35
520.863	5.44
521.211	5.4
521.559	5.43
521.907	5.42
522.255	5.46
522.602	5.36
522.95	5.31
523.298	5.33
523.645	5.49
523.993	5.37
524.341	5.54
524.688	5.44
525.036	5.4
525.383	5.49
525.73	5.57
526.078	5.41
526.425	5.35
526.772	5.44
527.119	5.35
527.466	5.31
527.814	5.33
528.161	5.29
528.508	5.4
528.854	5.32
529.201	5.31
529.548	5.23
529.895	5.22
530.242	5.04
530.588	5.04
530.935	5.1
531.282	5.18
531.628	5.26
531.975	5.28
532.321	5.35
532.667	5.36
533.014	5.43
533.36	5.34
533.706	5.28
534.052	5.29
534.399	5.22
534.745	5.31
535.091	5.23
535.437	5.24
535.783	5.29
536.129	5.28
536.474	5.29
536.82	5.35
537.166	5.36
537.512	5.42
537.857	5.33
538.203	5.41
538.549	5.24
538.894	5.3
539.239	5.35
539.585	5.37
539.93	5.32
540.276	5.45
540.621	5.43
540.966	5.54
541.311	5.26
541.656	5.29
542.001	5.28
542.346	5.31
542.691	5.23
543.036	5.13
543.381	5.14
543.726	5.18
544.071	5.32
544.415	5.25
544.76	5.25
545.105	5.41
545.449	5.36
545.794	5.34
546.138	5.44
546.483	5.43
546.827	5.49
547.171	5.38
547.516	5.36
547.86	5.35
548.204	5.32
548.548	5.34
548.892	5.45
549.236	5.41
549.58	5.33
549.924	5.53
550.268	5.48
550.612	5.53
550.956	5.67
551.3	5.49
551.643	5.64
551.987	5.5
552.33	5.46
552.674	5.48
553.017	5.21
553.361	5.39
553.704	5.66
554.048	5.31
554.391	5.37
554.734	5.38
555.077	5.56
555.42	5.43
555.764	5.47
556.107	5.37
556.45	5.29
556.793	5.5
557.135	5.51
557.478	5.65
557.821	5.62
558.164	5.45
558.507	5.44
558.849	5.44
559.192	5.5
559.534	5.43
559.877	5.62
560.219	5.31
560.562	5.81
560.904	5.4
561.246	5.56
561.589	5.58
561.931	5.48
562.273	5.18
562.615	5.48
562.957	5.46
563.299	5.23
563.641	5.63
563.983	5.49
564.325	5.33
564.667	5.26
565.008	5.52
565.35	5.5
565.692	5.32
566.033	5.43
566.375	5.63
566.716	5.65
567.058	5.32
567.399	5.36
567.741	5.25
568.082	5.64
568.423	5.47
568.764	5.4
569.105	5.49
569.447	5.52
569.788	5.39
570.129	5.56
570.47	5.39
570.811	5.57
571.151	5.46
571.492	5.44
571.833	5.45
572.174	5.38
572.514	5.49
572.855	5.34
573.195	5.36
573.536	5.37
573.876	5.33
574.217	5.26
574.557	5.47
574.898	5.57
575.238	5.43
575.578	5.34
575.918	5.45
576.258	5.36
576.598	5.52
576.938	5.41
577.278	5.46
577.618	5.45
577.958	5.34
578.298	5.46
578.638	5.35
578.977	5.41
579.317	5.48
579.657	5.54
579.996	5.72
580.336	5.51
580.675	5.46
581.014	5.35
581.354	5.48
581.693	5.62
582.032	5.54
582.372	5.39
582.711	5.59
583.05	5.26
583.389	5.39
583.728	5.2
584.067	5.49
584.406	5.56
584.745	5.34
585.083	5.74
585.422	5.68
585.761	5.77
586.1	5.36
586.438	5.43
586.777	5.73
587.115	5.48
587.454	5.54
587.792	5.31
588.13	5.53
588.469	5.37
588.807	5.36
589.145	5.65
589.483	5.32
589.821	5.51
590.159	5.49
590.497	5.77
590.835	5.78
591.173	5.74
591.511	5.68
591.849	5.32
592.187	5.61
592.524	5.41
592.862	5.43
593.2	5.52
593.537	5.69
593.875	5.55
594.212	5.29
594.55	5.32
594.887	5.77
595.224	5.42
595.561	5.48
595.899	5.34
596.236	5.59
596.573	5.73
596.91	5.02
597.247	5.53
597.584	5.52
597.921	5.5
598.258	5.32
598.594	5.32
598.931	5.34
599.268	5.66
599.604	5.42
599.941	5.57
600.277	5.33
600.614	5.48
600.95	5.22
601.287	5.44
601.623	5.27
601.959	5.71
602.296	5.53
602.632	5.56
602.968	5.49
603.304	5.4
603.64	5.32
603.976	5.84
604.312	5.45
604.648	5.51
604.984	5.6
605.319	5.45
605.655	5.39
605.991	5.36
606.326	5.47
606.662	5.25
606.998	5.3
607.333	5.48
607.668	5.54
608.004	5.4
608.339	5.61
608.674	5.56
609.01	5.24
609.345	5.37
609.68	5.67
610.015	5.29
610.35	5.47
610.685	5.37
611.02	5.37
611.355	5.45
611.689	5.37
612.024	5.52
612.359	5.35
612.694	5.45
613.028	5.13
613.363	5.48
613.697	5.48
614.032	5.48
614.366	5.41
614.7	5.58
615.035	5.72
615.369	5.28
615.703	5.29
616.037	5.37
616.371	5.19
616.705	5.29
617.039	5.47
617.373	5.4
617.707	5.53
618.041	5.21
618.375	5.47
618.709	5.67
619.042	5.11
619.376	5.7
619.71	5.66
620.043	5.7
620.377	5.69
620.71	5.4
621.043	5.52
621.377	5.1
621.71	5.65
622.043	5.22
622.376	5.31
622.709	5.55
623.043	5.71
623.376	5.4
623.709	5.42
624.041	5.8
624.374	5.26
624.707	5.1
625.04	5.5
625.373	5.09
625.705	5.54
626.038	5.21
626.37	5.63
626.703	5.62
627.035	5.53
627.368	5.89
627.7	5.35
628.032	5.38
628.365	5.84
628.697	5.5
629.029	5.09
629.361	5.37
629.693	5.82
630.025	5.39
630.357	5.69
630.689	5.36
631.021	5.64
631.353	5.62
631.684	5.51
632.016	5.19
632.348	5.72
632.679	5.3
633.011	5.58
633.342	5.89
633.674	5.59
634.005	5.88
634.336	5.1
634.668	6.01
634.999	5.14
635.33	5.51
635.661	5.73
635.992	5.32
636.323	5.85
636.654	5.88
636.985	5.6
637.316	5.38
637.647	5.19
637.977	5.66
638.308	5.42
638.639	4.97
638.969	5.24
639.3	5.52
639.63	5.25
639.961	5.43
640.291	5.51
640.622	5.86
640.952	5.69
641.282	6.22
641.612	5.93
641.943	5.63
642.273	6.01
642.603	5.56
642.933	5.7
643.263	5.31
643.592	5.11
643.922	5.1
644.252	5.67
644.582	5.35
644.911	4.92
645.241	5.49
645.571	5.19
645.9	4.8
646.23	5.3
646.559	5.94
646.888	5.3
647.218	5.33
647.547	5.16
647.876	5.4
648.205	5.28
648.534	5.25
648.863	5.39
649.192	5.56
649.521	5.13
649.85	4.96
650.179	5.29
650.508	5.4
650.837	5.24
651.165	5.27
651.494	5.37
651.822	5.55
652.151	4.95
652.479	5.75
652.808	5.19
653.136	5.77
653.465	4.66
653.793	5
654.121	5.19
654.449	5.54
654.777	5.43
655.105	5.47
655.433	5.52
655.761	5.57
656.089	5.73
656.417	6.2
656.745	5.49
657.073	4.77
657.4	6.32
657.728	5.29
658.056	5.24
658.383	5.37
658.711	5.92
659.038	5.61
659.365	5.75
659.693	5.3
660.02	4.91
660.347	5.41
660.674	5.64
661.001	5.87
661.329	4.94
661.656	5.22
661.982	5.72
662.309	5.69
662.636	5.62
662.963	6.15
663.29	5.99
663.616	6.08
663.943	5.21
664.27	5.56
664.596	6.09
664.923	5.4
665.249	5.64
665.576	5.3
665.902	6.1
666.228	5.8
666.554	5.75
666.881	5.35
667.207	5.75
667.533	5.48
667.859	6.41
668.185	5.38
668.511	5.26
668.837	4.48
669.162	5.3
669.488	5.47
669.814	6.02
670.139	5.58
670.465	5.87
670.791	5.86
671.116	5.95
671.442	5.35
671.767	5.7
672.092	6.09
672.418	6.02
672.743	5.47
673.068	5.2
673.393	5.78
673.718	5.31
674.043	5.43
674.368	5.37
674.693	6.28
675.018	5.43
675.343	5.57
675.667	5.46
675.992	5.42
676.317	6.2
676.641	5.95
676.966	5.71
677.29	5.35
677.615	5.99
677.939	5.39
678.264	6.25
678.588	5.61
678.912	5.78
679.236	6.38
679.56	4.88
679.885	6.21
680.209	5.72
680.532	5.23
680.856	5.79
681.18	5.37
681.504	5.16
681.828	5.67
682.152	5.85
682.475	5.74
682.799	5.97
683.122	5.51
683.446	5.03
683.769	6.13
684.093	5.19
684.416	6
684.739	6.01
685.062	5.65
685.386	6.9
685.709	5.26
686.032	5.76
686.355	6.19
686.678	6.33
687.001	5.41
687.324	6.17
687.646	5.44
687.969	5.31
688.292	5.68
688.614	5.3
688.937	5.93
689.26	5.51
689.582	6.28
689.904	5.22
690.227	5.94
690.549	5.82
690.871	6.47
691.194	5.27
691.516	5.62
691.838	6.23
692.16	4.67
692.482	5.87
692.804	6.1
693.126	5.69
693.448	6.02
693.769	5.88
694.091	5.26
694.413	6.07
694.735	5.51
695.056	6.07
695.378	5.12
695.699	5.32
696.021	4.2
696.342	5.11
696.663	6.28
696.984	5.33
697.306	4.57
697.627	6.62
697.948	5.9
698.269	6.06
698.59	5.9
698.911	5.45
699.232	5.37
699.553	6.12
699.873	5.91
700.194	6.64
700.515	5.95
700.835	5.75
701.156	5.49
701.477	5.64
701.797	5.44
702.117	6.15
702.438	6.21
702.758	5.47
703.078	5.5
703.398	5.45
703.719	4.96
704.039	5.21
704.359	6.03
704.679	5.5
704.999	5.86
705.319	4.88
705.638	5.43
705.958	5.21
706.278	5.95
706.597	5.13
706.917	5.32
707.237	6.46
707.556	5.39
707.876	5.73
708.195	6.19
708.514	5.41
708.834	5.59
709.153	5.85
709.472	6.06
709.791	6.39
710.11	5.77
710.429	5.92
710.748	5.54
711.067	5.67
711.386	5.36
711.705	5.76
712.023	5.89
712.342	4.18
712.661	4.89
712.979	4.87
713.298	4.86
713.616	6.52
713.935	5.14
714.253	5.99
714.572	7.17
714.89	5.59
715.208	5.5
715.526	5.58
715.844	6.42
716.162	5.98
716.48	6.4
716.798	5.91
717.116	5.24
717.434	5.01
717.752	3.68
718.069	6.15
718.387	5.29
718.705	6.07
719.022	4.17
719.34	5.55
719.657	4.8
719.975	6.83
720.292	6.39
720.609	5.88
720.927	5.57
721.244	7.28
721.561	7.21
721.878	6.59
722.195	5.59
722.512	6.1
722.829	4.84
723.146	4.38
723.463	6.47
723.779	4.82
724.096	6.94
724.413	5.4
724.729	5.24
725.046	4.03
725.362	7.34
725.679	5.72
725.995	5.65
726.311	5.88
726.628	5.74
726.944	7.13
727.26	6.77
727.576	5.59
727.892	6.44
728.208	6.65
728.524	4.9
728.84	5.44
729.156	5.89
729.472	5.12
729.787	5.75
730.103	5.54
730.419	5.82
730.734	6.13
731.05	5.96
731.365	5.75
731.681	6.12
731.996	5.07
732.311	6.17
732.626	6.46
732.942	5.03
733.257	6.47
733.572	6.76
733.887	4.7
734.202	5.33
734.517	6.43
734.832	6.96
735.146	6.71
735.461	6.24
735.776	5.06
736.091	5.84
736.405	6.73
736.72	4.47
737.034	6.49
737.349	7.31
737.663	6.19
737.977	6.71
738.292	6.23
738.606	7.14
738.92	7.07
739.234	5.43
739.548	6.22
739.862	5.92
740.176	6.08
740.49	7.03
740.804	7.31
741.117	5.91
741.431	5.24
741.745	5.31
742.058	4.9
742.372	4.54
742.685	7.95
742.999	6.15
743.312	5.45
743.626	5.49
743.939	4.81
744.252	6.26
744.565	5.94
744.878	6.49
745.191	3.44
745.505	6.43
745.817	7.57
746.13	3.58
746.443	7.48
746.756	7.78
747.069	5.95
747.381	6.83
747.694	2.92
748.007	5.15
748.319	4.61
748.632	8.49
748.944	6.09
749.256	7.9
749.569	6.79
749.881	6.62
750.193	8.54
750.505	5.79
750.817	6.98
751.129	6.89
751.441	7.05
751.753	7.69
752.065	6.01
752.377	6.51
752.689	5.87
753	5.53
753.312	4.5
753.624	4.52
753.935	5.75
754.247	6.39
754.558	4.28
754.869	7.03
755.181	5.59
755.492	6.43
755.803	5.82
756.114	3.93
756.425	4.81
756.736	4.16
757.047	7.34
757.358	6.56
757.669	5.06
757.98	5.69
758.291	5.6
758.601	6.01
758.912	5.51
759.223	7.59
759.533	4.82
759.844	3.52
760.154	5.49
760.464	7.88
760.775	6.48
761.085	6.43
761.395	7.04
761.705	6.77
762.016	6.42
762.326	6.15
762.636	6.02
762.945	4.71
763.255	7.39
763.565	4.32
763.875	6.11
764.185	6.05
764.494	6.63
764.804	6.21
765.113	5.89
765.423	4.86
765.732	7.14
766.042	5.18
766.351	6.37
766.66	5.89
766.97	7.34
767.279	5.9
767.588	5.96
767.897	7.78
768.206	5.09
768.515	6.27
768.824	7.29
769.133	6.87
769.441	8.16
769.75	5.62
770.059	9.84
770.367	6.28
770.676	7.07
770.984	6.78
771.293	4.55
771.601	8.32
771.91	3.88
772.218	9.74
772.526	7.05
772.834	9.13
773.142	2.95
773.45	5.66
773.758	5.2
774.066	5.66
774.374	5.95
774.682	5.85
774.99	8.68
775.298	3.84
775.605	5.43
775.913	5.51
776.22	7.06
776.528	5.84
776.835	8.44
777.143	7.02
777.45	6.07
777.757	6.06
778.065	4.01
778.372	7.27
778.679	2.26
778.986	4.15
779.293	5.15
779.6	4.42
779.907	6.43
780.214	6.97
780.52	6.16
780.827	9.01
781.134	6.18
781.44	3.23
781.747	5.62
782.053	7.08
782.36	5.11
782.666	10.83
782.973	6.45
783.279	6.97
783.585	3.1
783.891	6.92
784.197	6.72
784.503	11.93
784.809	5.07
785.115	7.78
785.421	12.54
785.727	4.44
786.033	5.24
786.339	4.92
786.644	3.6
786.95	4.79
787.255	4.11
787.561	8.8
787.866	3.84
788.172	8.46
788.477	2.31
788.782	8.4
789.088	4.09
789.393	3.84
789.698	5.43
790.003	3.74
790.308	1.37
790.613	7.68
790.918	5.64
791.223	6.47
791.527	2.75
791.832	9.3
792.137	5.1
792.441	5.25
792.746	6.5
793.05	6.65
793.355	6.97
793.659	8.69
793.963	4.19
794.268	7.78
794.572	7.33
794.876	8.56
795.18	3.54
795.484	6.54
795.788	7.58
796.092	7.49
796.396	3.35
796.7	5.42
797.004	5.53
797.307	-0.93
797.611	7.66
797.915	5.26
798.218	7.25
798.522	4.96
798.825	0.52
799.128	4.39
799.432	3.43
799.735	6.21
800.038	13.97
800.341	6.43
800.644	6.19
800.947	11.88
801.25	9.47
801.553	3.68
801.856	0.06
802.159	1.59
802.462	4.92
802.764	3.12
803.067	5.66
803.37	4.56
803.672	0.45
803.975	8.53
804.277	4.85
804.579	4.5
804.882	6
805.184	2.58
805.486	4.57
805.788	3.5
806.09	6.15
806.392	5.1
806.694	8.85
806.996	5.58
807.298	6.97
807.6	7.66
807.902	11.86
808.203	7.34
808.505	9.77
808.807	7.15
809.108	8.37
809.409	6.54
809.711	3.6
810.012	3.96
810.313	5.6
810.615	2.38
810.916	1.62
811.217	0.92
811.518	5.66
811.819	9.61
812.12	3.53
812.421	9.22
812.722	9.63
813.023	5.8
813.323	-2.08
813.624	0.72
813.925	9.55
814.225	6.47
814.526	8.27
814.826	2.36
815.126	4.2
815.427	4.59
815.727	5.04
816.027	2.76
816.327	5.76
816.627	2.37
816.927	9.74
817.227	8.14
817.527	-0.08
817.827	8.88
818.127	1.54
818.427	6.64
818.727	6.18
819.026	1.32
819.326	11.29
819.625	6.16
819.925	0.53
820.224	9.21
820.524	3.21
820.823	11.74
821.122	7.89
821.421	4.46
821.72	-2.59
822.019	10.52
822.318	6.28
822.617	2.04
822.916	11.87
823.215	4.74
823.514	8.91
823.813	1.95
824.111	5.59
824.41	7.91
824.709	8.05
825.007	7.34
825.306	8.25
825.604	9.04
825.902	8.4
826.201	8.27
826.499	7.56
826.797	8.05
827.095	8.83
827.393	8.85
827.691	9.35
827.989	6.82
828.287	8.71
828.585	9.21
828.882	9.65
829.18	8.31
829.478	9.19
829.775	7.69
830.073	9.89
830.37	8.1
830.668	7.22
830.965	11.23
831.263	9.48
831.56	6.01
831.857	5.55
832.154	5.8
832.451	6.69
832.748	10.42
833.045	10.36
833.342	7.57
833.639	4.84
833.936	1.6
834.232	5.74
834.529	-0.83
834.826	1.43
835.122	4.15
835.419	4.31
835.715	3.07
836.012	6.84
836.308	4.5
836.604	3.02
836.901	3.88
837.197	5.77
837.493	11.29
837.789	6.41
838.085	8.73
838.381	8.17
838.677	6.9
838.972	5.07
839.268	3.6
839.564	2.27
839.86	7.67
840.155	-1.36
840.451	-2.75
840.746	14.13
841.042	6.84
841.337	4.68
841.632	2.37
841.928	25.22
842.223	-0.42
842.518	6.16
842.813	12.72
843.108	5.34
843.403	14.1
843.698	1.68
843.993	8.27
844.287	3.5
844.582	-5.04
844.877	5.82
845.171	16.45
845.466	-7.07
845.761	8.68
846.055	-4.32
846.349	-0.65
846.644	15.54
846.938	-15.52
847.232	-4.54
847.526	0.61
847.82	26.29
848.114	0.27
848.408	-9.75
848.702	1.62
848.996	0.5
849.29	0.7
849.584	-5.69
849.877	0.23
850.171	18.25
850.465	-17.01
850.758	2.1
851.052	-14.72
851.345	12.99
851.638	3.04
851.932	-27.28
852.225	-12.46
852.518	-8.04
852.811	-6.51
853.104	-49.37
853.397	26.02
853.69	-11.72
853.983	-14.53
854.276	17.31
854.569	8.57
854.861	1.34
855.154	11.38
855.447	-65.61
855.739	10.6
856.032	-0.45
856.324	15.57
856.616	25.26
856.909	-8.79
857.201	4.04
857.493	-2.88
857.785	-34.46
858.077	10.58
858.369	15.07
858.661	7.17
858.953	1.18
859.245	-30.8
859.537	-6.59
859.829	2.02
860.12	8.85
860.412	-11.68
860.703	2.17
860.995	22.95
861.286	-14.25
861.578	-1.78
861.869	26.78
862.16	-5.87
862.452	9.71
862.743	6.17
863.034	12.82
863.325	-17.42
863.616	-9.57
863.907	-32.52
864.198	2.07
864.488	9.7
864.779	-22.52
865.07	-10.78
865.36	-7.16
865.651	-6.94
865.941	20.93
866.232	-4.11
866.522	-92.99
866.813	11.68
867.103	10.75
867.393	-29.9
867.683	-5.94
867.973	-5.9
868.263	-23.41
868.553	16.8
868.843	-1.7
869.133	-44.77
869.423	-10.59
869.713	8.73
870.002	-7.47
870.292	23.51
870.582	22.3
870.871	-24.82
871.161	-2.72
871.45	-46.68
871.739	-58.23
872.029	-31.84
872.318	6.8
872.607	25.67
872.896	-17.64
873.185	-6.59
873.474	-54.46
873.763	-10.23
874.052	-49.33
874.341	8.57
874.63	45.14
874.918	6.7
875.207	-14.61
875.496	4.47
875.784	-120.05
876.073	-123.82
876.361	-71.12
876.649	-16.71
876.938	-27.6
877.226	-13.21
877.514	14.77
877.802	-9.25
878.09	-22.22
878.378	38.78
878.666	-2.5
878.954	3.39
879.242	-19.9
879.53	9.65
879.817	28.18
880.105	-34.17
880.392	-23.07
880.68	-27.83
880.967	-6.83
881.255	14.69
881.542	-2.44
881.83	-84.82
882.117	-3.95
882.404	27.08
882.691	31.8
882.978	-13.34
883.265	-15.31
883.552	3.67
883.839	7.61
884.126	-5.18
884.413	7.3
884.699	10.07
884.986	16.63
885.273	4.67
885.559	4.67
885.846	4.67
