Data from 0387_chest_Reflection__3__233.txt Node

Date: Fri Dec 15 18:28:27 CST 2023
User: ToomeyLab
Spectrometer: FLMS14357
Trigger mode: 0
Integration Time (sec): 1.000000E-2
Scans to average: 100
Electric dark correction enabled: true
Nonlinearity correction enabled: false
Boxcar width: 0
XAxis mode: Wavelengths
Number of Pixels in Spectrum: 2048
>>>>>Begin Spectral Data<<<<<
189.047	-40.47
189.435	-40.47
189.823	-40.47
190.211	-438.7
190.599	-96.06
190.987	263.3
191.375	223.39
191.763	-91.3
192.151	-4.4
192.538	89.92
192.926	62.93
193.314	73.88
193.702	60.87
194.089	3.91
194.477	40.15
194.864	191.3
195.252	113.37
195.639	95.46
196.027	1089.43
196.414	43.55
196.801	9.62
197.189	24.1
197.576	209.33
197.963	-134.34
198.351	-435.61
198.738	-15.29
199.125	49.51
199.512	-55.17
199.899	48.37
200.286	-4.11
200.673	14.6
201.06	-22.44
201.447	-11.76
201.833	51.66
202.22	35.64
202.607	76.48
202.994	-0.05
203.38	-23.93
203.767	23.24
204.154	14.87
204.54	11.25
204.927	-54.45
205.313	-99.12
205.699	10.35
206.086	49.22
206.472	18.54
206.858	19.23
207.245	-32.2
207.631	30.12
208.017	22.33
208.403	0.09
208.789	35.79
209.175	45.51
209.561	-13.91
209.947	-16.82
210.333	-46.71
210.719	-28.42
211.105	21.53
211.491	-71.03
211.876	-20.89
212.262	31.07
212.648	-3.62
213.034	15.07
213.419	-11.19
213.805	-11.31
214.19	-68.76
214.576	-10.35
214.961	-30.51
215.346	-74.09
215.732	-7.54
216.117	0.97
216.502	-57.76
216.888	4.88
217.273	17.12
217.658	-6.93
218.043	14.75
218.428	-15.39
218.813	-33.2
219.198	-62.92
219.583	-13.84
219.968	9.8
220.353	-7.74
220.738	21.92
221.122	6.54
221.507	-16.08
221.892	-19.74
222.276	-26.73
222.661	-3.15
223.046	-2.57
223.43	0.29
223.815	0.85
224.199	-21.11
224.583	0.44
224.968	0.69
225.352	15.19
225.736	-6.17
226.121	-10.12
226.505	4.67
226.889	7.31
227.273	0.07
227.657	8.29
228.041	0.82
228.425	-1.45
228.809	2.5
229.193	5.36
229.577	0.51
229.961	2.96
230.344	2.56
230.728	2.25
231.112	3.14
231.495	2.48
231.879	1.09
232.263	1.58
232.646	2.19
233.03	2.5
233.413	1.56
233.797	2.82
234.18	1.98
234.563	3.17
234.946	2.15
235.33	4.62
235.713	2.02
236.096	2.8
236.479	4.12
236.862	2.2
237.245	4.31
237.628	0.42
238.011	3.27
238.394	5.16
238.777	2.68
239.16	0.03
239.543	4.22
239.925	2.63
240.308	1.3
240.691	3.05
241.073	2.7
241.456	2.31
241.838	1.7
242.221	2.52
242.603	3.16
242.986	3.21
243.368	3.63
243.75	3.1
244.133	2.31
244.515	3.25
244.897	3.42
245.279	2.77
245.661	2.68
246.043	1.09
246.425	1.92
246.807	4.64
247.189	3.41
247.571	3.52
247.953	2.76
248.335	3
248.717	3.53
249.098	3.04
249.48	3.13
249.862	2.97
250.243	2.89
250.625	3.35
251.006	3.97
251.388	1.55
251.769	2.88
252.151	2.93
252.532	3.29
252.913	1.85
253.295	2.21
253.676	2.05
254.057	3.32
254.438	3.05
254.819	2.61
255.2	2
255.581	3.22
255.962	0.95
256.343	2.47
256.724	2.44
257.105	2.55
257.486	1.87
257.867	3.38
258.247	2.11
258.628	2.82
259.009	3.2
259.389	3.69
259.77	2.48
260.15	2.78
260.531	2.24
260.911	3.51
261.292	3.01
261.672	2.99
262.052	3.14
262.432	3.46
262.813	2.89
263.193	2.89
263.573	2.71
263.953	2.71
264.333	2.85
264.713	2.73
265.093	2.98
265.473	3.1
265.853	2.98
266.233	3.53
266.612	1.72
266.992	1.97
267.372	2.66
267.752	2.48
268.131	2.7
268.511	3.82
268.89	3.25
269.27	2.49
269.649	2.31
270.029	2.81
270.408	4.08
270.787	3.42
271.167	3.15
271.546	3.15
271.925	2.07
272.304	2.71
272.683	3.66
273.062	2.69
273.441	3.1
273.82	2.19
274.199	2.73
274.578	3.1
274.957	2.98
275.336	2.77
275.715	2.79
276.093	3
276.472	3.1
276.851	2.69
277.229	2.27
277.608	2.55
277.986	2.46
278.365	2.75
278.743	2.3
279.122	3.02
279.5	2.08
279.878	3.55
280.257	2.81
280.635	2.36
281.013	2.76
281.391	3.71
281.769	2.58
282.147	3.26
282.525	3.64
282.903	3.18
283.281	3.49
283.659	3.24
284.037	2.88
284.415	2.76
284.792	3.13
285.17	2.29
285.548	3.31
285.925	2.72
286.303	2.5
286.68	2.7
287.058	2.93
287.435	3.03
287.813	2.88
288.19	2.8
288.567	2.89
288.945	2.95
289.322	2.68
289.699	3.07
290.076	2.61
290.453	2.48
290.83	2.59
291.207	2.34
291.584	3.01
291.961	3.13
292.338	2.94
292.715	3.5
293.092	2.9
293.469	2.72
293.845	3.23
294.222	2.74
294.599	3.02
294.975	2.55
295.352	2.99
295.728	2.64
296.105	3.02
296.481	3.15
296.858	3.43
297.234	3.28
297.61	2.47
297.986	3.48
298.363	3.25
298.739	3.34
299.115	3.01
299.491	2.91
299.867	3.26
300.243	3.18
300.619	2.74
300.995	3.17
301.371	3.46
301.746	3.56
302.122	3.88
302.498	3.07
302.874	3.4
303.249	3.74
303.625	3.32
304	3.75
304.376	2.93
304.751	2.31
305.127	3.37
305.502	3.21
305.878	2.64
306.253	3.37
306.628	3.71
307.003	3.63
307.378	3.92
307.754	3.12
308.129	2.8
308.504	3.47
308.879	3.36
309.254	4.09
309.629	3.59
310.003	3.31
310.378	4.12
310.753	4.29
311.128	3.72
311.502	3.34
311.877	3.83
312.252	3.43
312.626	3.43
313.001	3.17
313.375	3.91
313.75	2.93
314.124	3.73
314.498	3.21
314.873	3.64
315.247	3.38
315.621	3.44
315.995	3.11
316.369	3.47
316.743	3.42
317.117	3.41
317.491	3.37
317.865	3.51
318.239	4.29
318.613	3.34
318.987	3.57
319.361	2.98
319.734	4.18
320.108	4.01
320.482	3.66
320.855	3.94
321.229	3.85
321.602	3.7
321.976	3.62
322.349	2.96
322.723	3.72
323.096	4.2
323.469	2.66
323.843	3.66
324.216	4.27
324.589	3.15
324.962	3.96
325.335	3.35
325.708	4.09
326.081	3.37
326.454	3.97
326.827	3.84
327.2	3.74
327.573	3.84
327.945	3.59
328.318	3.78
328.691	3.16
329.063	3.32
329.436	4
329.809	4.16
330.181	3.72
330.553	3.64
330.926	3.81
331.298	4.25
331.671	3.81
332.043	3.94
332.415	4.2
332.787	3.74
333.159	4.71
333.532	4.19
333.904	3.41
334.276	3.92
334.648	3.07
335.02	3.48
335.391	4.1
335.763	3.57
336.135	3.53
336.507	4.39
336.879	3.19
337.25	3.64
337.622	3.72
337.993	3.91
338.365	4.3
338.736	3.89
339.108	4.39
339.479	3.94
339.851	3.97
340.222	3.81
340.593	3.77
340.964	3.77
341.336	4.29
341.707	3.63
342.078	3.98
342.449	4.05
342.82	4.02
343.191	4.12
343.562	4.2
343.933	4.36
344.303	4.1
344.674	4.11
345.045	4.24
345.416	4.08
345.786	4.1
346.157	3.74
346.527	3.4
346.898	3.1
347.268	4.3
347.639	4.08
348.009	4.14
348.38	3.81
348.75	4.13
349.12	3.74
349.49	4.21
349.861	4.08
350.231	3.83
350.601	4.06
350.971	4.2
351.341	4.11
351.711	4.21
352.081	3.64
352.45	3.58
352.82	4.1
353.19	4.15
353.56	3.87
353.929	4.04
354.299	3.84
354.669	3.5
355.038	3.97
355.408	4.03
355.777	3.97
356.147	4.03
356.516	4.08
356.885	4.15
357.254	4.12
357.624	4.5
357.993	4.19
358.362	3.99
358.731	3.75
359.1	3.85
359.469	4.25
359.838	4.25
360.207	3.81
360.576	3.89
360.945	4.2
361.314	4.07
361.682	3.67
362.051	3.9
362.42	4.17
362.788	4.05
363.157	4.15
363.525	4.18
363.894	4.29
364.262	4.12
364.631	4.01
364.999	4.21
365.367	3.73
365.735	4.53
366.104	4.19
366.472	4.34
366.84	3.84
367.208	3.95
367.576	4.29
367.944	4.34
368.312	4.13
368.68	3.87
369.048	4.28
369.416	4.04
369.783	4.08
370.151	4.16
370.519	4.42
370.886	4.23
371.254	4.14
371.621	4.37
371.989	4.29
372.356	3.68
372.724	4.52
373.091	4.16
373.458	4.1
373.826	4.51
374.193	4.13
374.56	4.47
374.927	4.29
375.294	4.15
375.661	4.21
376.028	4.03
376.395	3.76
376.762	4.45
377.129	4.05
377.496	4.23
377.863	4.23
378.229	3.8
378.596	4.45
378.963	4.16
379.329	4.09
379.696	4.2
380.062	4.23
380.429	4.25
380.795	4.02
381.161	4.21
381.528	4.57
381.894	4.03
382.26	4.06
382.626	4.41
382.993	4.06
383.359	4.76
383.725	3.96
384.091	4.21
384.457	4.22
384.823	4.52
385.188	4.44
385.554	4.22
385.92	4.29
386.286	4.49
386.651	4.39
387.017	4.66
387.383	4.39
387.748	4.07
388.114	4.59
388.479	4.19
388.845	4.46
389.21	4.16
389.575	4.45
389.94	4.13
390.306	4.58
390.671	4.54
391.036	3.79
391.401	3.8
391.766	4.28
392.131	4.03
392.496	4.67
392.861	4.23
393.226	4.64
393.591	4.29
393.956	4.38
394.32	4.34
394.685	4.14
395.05	4.14
395.414	4.27
395.779	4.12
396.143	4.49
396.508	4.55
396.872	4.24
397.236	4.42
397.601	4.38
397.965	4.56
398.329	4.72
398.694	4.68
399.058	4.55
399.422	4.09
399.786	4.71
400.15	4.51
400.514	4.68
400.878	4.46
401.242	4.65
401.605	4.63
401.969	4.71
402.333	4.64
402.697	4.44
403.06	4.34
403.424	4.48
403.787	4.56
404.151	4.44
404.514	4.57
404.878	4.57
405.241	4.66
405.604	4.37
405.968	4.45
406.331	4.45
406.694	4.48
407.057	4.41
407.42	4.48
407.783	4.35
408.146	4.23
408.509	4.3
408.872	4.17
409.235	4.45
409.598	4.62
409.961	4.76
410.323	4.78
410.686	4.41
411.049	4.25
411.411	4.51
411.774	4.57
412.136	4.6
412.499	4.56
412.861	4.4
413.223	4.39
413.586	4.66
413.948	4.72
414.31	4.61
414.672	4.45
415.035	4.32
415.397	5.06
415.759	4.04
416.121	4.83
416.483	4.28
416.845	4.46
417.206	4.6
417.568	4.56
417.93	4.54
418.292	4.54
418.653	4.55
419.015	4.51
419.377	4.5
419.738	4.65
420.1	4.56
420.461	4.62
420.822	4.73
421.184	4.46
421.545	4.6
421.906	4.43
422.267	4.53
422.629	4.5
422.99	4.45
423.351	4.5
423.712	4.57
424.073	4.54
424.434	4.43
424.795	4.3
425.155	4.67
425.516	4.48
425.877	4.47
426.238	4.41
426.598	4.63
426.959	4.55
427.32	4.52
427.68	4.46
428.041	4.47
428.401	4.64
428.761	4.55
429.122	4.72
429.482	4.57
429.842	4.74
430.202	4.6
430.563	4.68
430.923	4.58
431.283	4.8
431.643	4.62
432.003	4.7
432.363	4.69
432.722	4.49
433.082	4.56
433.442	4.65
433.802	4.48
434.161	4.65
434.521	4.87
434.881	4.76
435.24	4.58
435.6	4.66
435.959	4.61
436.319	4.72
436.678	4.61
437.037	4.78
437.396	4.68
437.756	4.81
438.115	4.59
438.474	4.89
438.833	4.47
439.192	4.57
439.551	4.85
439.91	4.78
440.269	4.71
440.628	4.65
440.987	4.74
441.345	4.59
441.704	4.65
442.063	4.63
442.421	4.75
442.78	4.8
443.138	4.63
443.497	4.6
443.855	4.65
444.214	4.87
444.572	4.83
444.93	4.75
445.288	4.77
445.647	4.95
446.005	4.74
446.363	4.9
446.721	4.8
447.079	4.54
447.437	4.67
447.795	4.61
448.153	4.58
448.51	4.71
448.868	4.7
449.226	4.72
449.584	4.8
449.941	4.91
450.299	4.69
450.656	4.78
451.014	4.87
451.371	4.84
451.729	4.82
452.086	4.91
452.443	4.82
452.801	4.91
453.158	4.86
453.515	4.79
453.872	4.96
454.229	5.03
454.586	4.84
454.943	4.9
455.3	4.94
455.657	4.89
456.014	4.87
456.371	4.81
456.727	5.1
457.084	4.93
457.441	4.88
457.797	4.84
458.154	5.14
458.51	4.93
458.867	5.1
459.223	5.11
459.58	5.03
459.936	5
460.292	4.93
460.648	4.98
461.005	4.84
461.361	4.92
461.717	4.91
462.073	4.72
462.429	4.85
462.785	4.9
463.141	4.89
463.496	5.05
463.852	5.03
464.208	5.1
464.564	5.05
464.919	5.03
465.275	5.2
465.631	5.28
465.986	4.94
466.342	5.07
466.697	4.87
467.052	5.19
467.408	5.15
467.763	5.17
468.118	5.12
468.473	5.07
468.829	5.13
469.184	5.03
469.539	5.22
469.894	4.92
470.249	5.25
470.603	5.2
470.958	5.23
471.313	5.19
471.668	5.27
472.023	5.18
472.377	5.16
472.732	5.15
473.086	4.99
473.441	5.03
473.795	5.37
474.15	5.07
474.504	4.89
474.859	5.14
475.213	4.85
475.567	5.16
475.921	4.93
476.275	5.15
476.63	5.17
476.984	5.11
477.338	5.18
477.692	5.05
478.045	5.02
478.399	5.27
478.753	5.28
479.107	5.12
479.461	5.16
479.814	5.1
480.168	5.17
480.521	5.23
480.875	5.09
481.228	5.16
481.582	5.13
481.935	5.17
482.289	5.13
482.642	5.21
482.995	5.23
483.348	5.07
483.701	5.17
484.055	5.13
484.408	5.16
484.761	5.11
485.114	4.96
485.466	4.79
485.819	4.84
486.172	4.83
486.525	4.91
486.878	5
487.23	5.03
487.583	5.17
487.936	5.13
488.288	5.08
488.641	5.08
488.993	5.02
489.345	4.95
489.698	4.96
490.05	4.98
490.402	5.08
490.754	5.1
491.107	5.21
491.459	5.26
491.811	5.22
492.163	5.17
492.515	5.2
492.866	5.28
493.218	5.06
493.57	4.99
493.922	5.1
494.274	5.23
494.625	5.24
494.977	5.27
495.328	5.43
495.68	5.41
496.031	5.5
496.383	5.33
496.734	5.59
497.086	5.39
497.437	5.43
497.788	5.29
498.139	5.28
498.49	5.38
498.842	5.19
499.193	5.37
499.544	5.44
499.894	5.33
500.245	5.37
500.596	5.39
500.947	5.34
501.298	5.26
501.648	5.5
501.999	5.37
502.35	5.34
502.7	5.45
503.051	5.44
503.401	5.41
503.752	5.53
504.102	5.44
504.452	5.36
504.803	5.42
505.153	5.59
505.503	5.61
505.853	5.53
506.203	5.32
506.553	5.46
506.903	5.56
507.253	5.51
507.603	5.45
507.953	5.66
508.303	5.67
508.652	5.49
509.002	5.65
509.352	5.67
509.701	5.52
510.051	5.36
510.4	5.47
510.75	5.56
511.099	5.53
511.449	5.5
511.798	5.53
512.147	5.67
512.496	5.55
512.846	5.7
513.195	5.55
513.544	5.66
513.893	5.58
514.242	5.57
514.591	5.8
514.939	5.7
515.288	5.55
515.637	5.79
515.986	5.87
516.334	5.86
516.683	5.81
517.032	5.88
517.38	5.84
517.729	6
518.077	5.63
518.426	5.7
518.774	5.72
519.122	5.69
519.47	5.8
519.819	5.68
520.167	5.7
520.515	5.71
520.863	5.82
521.211	5.79
521.559	5.87
521.907	5.78
522.255	5.83
522.602	5.82
522.95	5.8
523.298	5.98
523.645	5.89
523.993	5.78
524.341	6.03
524.688	5.95
525.036	5.82
525.383	5.9
525.73	6
526.078	5.96
526.425	5.9
526.772	6
527.119	5.81
527.466	5.79
527.814	5.92
528.161	5.86
528.508	5.88
528.854	5.91
529.201	5.79
529.548	5.75
529.895	5.79
530.242	5.66
530.588	5.68
530.935	5.71
531.282	5.81
531.628	5.85
531.975	5.91
532.321	5.96
532.667	6.07
533.014	6.15
533.36	6.09
533.706	6.11
534.052	6.04
534.399	5.96
534.745	5.96
535.091	5.88
535.437	5.99
535.783	6.02
536.129	6.17
536.474	6.13
536.82	6.08
537.166	6.27
537.512	6.23
537.857	6.08
538.203	6.21
538.549	6.22
538.894	6.05
539.239	6.24
539.585	6.35
539.93	6.3
540.276	6.32
540.621	6.41
540.966	6.36
541.311	6.32
541.656	6.29
542.001	6.29
542.346	6.43
542.691	6.21
543.036	6.09
543.381	6.08
543.726	6.18
544.071	6.33
544.415	6.42
544.76	6.34
545.105	6.42
545.449	6.42
545.794	6.56
546.138	6.56
546.483	6.64
546.827	6.62
547.171	6.62
547.516	6.61
547.86	6.56
548.204	6.47
548.548	6.57
548.892	6.58
549.236	6.62
549.58	6.53
549.924	6.76
550.268	6.82
550.612	6.92
550.956	6.95
551.3	6.84
551.643	6.89
551.987	7.01
552.33	6.98
552.674	6.94
553.017	6.95
553.361	6.87
553.704	7.11
554.048	6.91
554.391	6.85
554.734	6.82
555.077	7.08
555.42	6.86
555.764	6.96
556.107	6.99
556.45	7.01
556.793	7.18
557.135	7.12
557.478	7.24
557.821	7.25
558.164	7.04
558.507	7.1
558.849	7.2
559.192	7.38
559.534	7.41
559.877	7.25
560.219	7.26
560.562	7.42
560.904	7.44
561.246	7.35
561.589	7.35
561.931	7.34
562.273	7.42
562.615	7.49
562.957	7.38
563.299	7.32
563.641	7.18
563.983	7.48
564.325	7.25
564.667	7.37
565.008	7.49
565.35	7.4
565.692	7.47
566.033	7.51
566.375	7.86
566.716	7.85
567.058	7.62
567.399	7.48
567.741	7.39
568.082	7.58
568.423	7.68
568.764	7.65
569.105	7.81
569.447	7.89
569.788	7.75
570.129	7.72
570.47	7.79
570.811	7.85
571.151	7.94
571.492	7.85
571.833	7.88
572.174	8.03
572.514	7.83
572.855	7.88
573.195	7.95
573.536	7.94
573.876	7.9
574.217	8.06
574.557	8.01
574.898	8.23
575.238	8.2
575.578	8.13
575.918	8.31
576.258	8.31
576.598	8.24
576.938	7.97
577.278	8.06
577.618	8.17
577.958	8.16
578.298	8.43
578.638	8.29
578.977	8.45
579.317	8.4
579.657	8.51
579.996	8.61
580.336	8.38
580.675	8.55
581.014	8.38
581.354	8.42
581.693	8.62
582.032	8.67
582.372	8.41
582.711	8.75
583.05	8.33
583.389	8.58
583.728	8.83
584.067	8.79
584.406	8.8
584.745	8.81
585.083	8.92
585.422	8.75
585.761	9.07
586.1	8.97
586.438	9
586.777	9.1
587.115	9.01
587.454	9.14
587.792	9.03
588.13	9.05
588.469	9.15
588.807	9.03
589.145	9.15
589.483	9.15
589.821	9.06
590.159	9.14
590.497	9.27
590.835	9.4
591.173	9.27
591.511	9.65
591.849	9.14
592.187	9.54
592.524	9.39
592.862	9.34
593.2	9.38
593.537	9.49
593.875	9.15
594.212	9.35
594.55	9.32
594.887	9.91
595.224	9.58
595.561	9.32
595.899	9.32
596.236	9.64
596.573	9.66
596.91	9.25
597.247	9.53
597.584	10.07
597.921	9.75
598.258	9.66
598.594	9.82
598.931	9.52
599.268	9.69
599.604	9.69
599.941	9.92
600.277	9.87
600.614	9.83
600.95	9.9
601.287	10.38
601.623	10.06
601.959	9.88
602.296	10.1
602.632	9.96
602.968	10.22
603.304	10.26
603.64	10.35
603.976	10.41
604.312	10.11
604.648	9.86
604.984	10.29
605.319	10.2
605.655	10.38
605.991	10.33
606.326	10.28
606.662	10.22
606.998	10.24
607.333	10.4
607.668	10.34
608.004	10.74
608.339	10.72
608.674	10.64
609.01	10.35
609.345	10.68
609.68	10.94
610.015	10.52
610.35	10.48
610.685	10.43
611.02	10.75
611.355	10.89
611.689	10.81
612.024	10.77
612.359	10.6
612.694	10.64
613.028	10.64
613.363	10.98
613.697	11.18
614.032	11.03
614.366	11
614.7	11.05
615.035	11.2
615.369	11.06
615.703	11.26
616.037	11.53
616.371	10.97
616.705	11.27
617.039	11.13
617.373	11.41
617.707	11.07
618.041	11.22
618.375	11.5
618.709	11.59
619.042	11.34
619.376	11.63
619.71	11.35
620.043	11.27
620.377	11.41
620.71	11.62
621.043	11.51
621.377	11.86
621.71	11.87
622.043	11.55
622.376	11.54
622.709	11.67
623.043	11.81
623.376	11.82
623.709	11.93
624.041	12.37
624.374	11.89
624.707	11.85
625.04	12.13
625.373	11.73
625.705	11.74
626.038	11.51
626.37	11.9
626.703	12
627.035	12.33
627.368	12.5
627.7	12.11
628.032	12.13
628.365	12.39
628.697	12.2
629.029	12.17
629.361	12.18
629.693	12.28
630.025	12.43
630.357	12.4
630.689	12.29
631.021	12.35
631.353	12.55
631.684	12.19
632.016	12.23
632.348	12.42
632.679	12.76
633.011	12.82
633.342	12.86
633.674	12.45
634.005	13.16
634.336	12.33
634.668	13.33
634.999	12.13
635.33	12.8
635.661	12.87
635.992	12.98
636.323	12.98
636.654	12.75
636.985	12.91
637.316	12.67
637.647	12.87
637.977	13.52
638.308	13.15
638.639	12.69
638.969	12.94
639.3	13.03
639.63	12.76
639.961	13.05
640.291	13.24
640.622	13.43
640.952	13.12
641.282	13.87
641.612	13.47
641.943	13.34
642.273	13.22
642.603	14.18
642.933	13.49
643.263	13.29
643.592	13.31
643.922	13.22
644.252	13.87
644.582	13.27
644.911	13.08
645.241	13.9
645.571	13.6
645.9	13.41
646.23	13.47
646.559	13.52
646.888	13.22
647.218	13.61
647.547	13.95
647.876	13.47
648.205	14.23
648.534	13.52
648.863	13.45
649.192	14.67
649.521	13.78
649.85	13.55
650.179	13.77
650.508	14.07
650.837	14.23
651.165	13.84
651.494	13.97
651.822	14.55
652.151	14.26
652.479	14.41
652.808	13.48
653.136	14.23
653.465	13.66
653.793	13.72
654.121	13.94
654.449	14.15
654.777	14.79
655.105	14.61
655.433	13.77
655.761	14.43
656.089	14.78
656.417	14.94
656.745	14.78
657.073	14.63
657.4	15.02
657.728	14.95
658.056	14.38
658.383	14.57
658.711	15.12
659.038	14.46
659.365	15.27
659.693	14.75
660.02	14.72
660.347	15.12
660.674	14.89
661.001	15.28
661.329	14.38
661.656	14.8
661.982	15.06
662.309	14.89
662.636	14.6
662.963	15.52
663.29	15.31
663.616	15.16
663.943	14.71
664.27	15.2
664.596	15.61
664.923	15.19
665.249	15
665.576	15.41
665.902	15.97
666.228	15.55
666.554	15.62
666.881	14.81
667.207	15.62
667.533	15.57
667.859	15.99
668.185	16.16
668.511	15
668.837	15.22
669.162	15.68
669.488	15.26
669.814	16.35
670.139	16.19
670.465	15.75
670.791	15.8
671.116	16.56
671.442	15.73
671.767	16.35
672.092	16.43
672.418	16.2
672.743	16.1
673.068	15.56
673.393	16.07
673.718	15.57
674.043	16.12
674.368	16.3
674.693	16.93
675.018	16.16
675.343	15.99
675.667	16.33
675.992	16.23
676.317	16.12
676.641	16.27
676.966	16.16
677.29	15.75
677.615	16.42
677.939	17.04
678.264	16.45
678.588	16.97
678.912	16.38
679.236	17.02
679.56	16.1
679.885	16.37
680.209	16.25
680.532	16.77
680.856	17.28
681.18	16.72
681.504	16.65
681.828	17.52
682.152	16.25
682.475	17.24
682.799	16.98
683.122	16.78
683.446	16.46
683.769	16.77
684.093	16.52
684.416	17.51
684.739	15.99
685.062	16.31
685.386	17.61
685.709	16.27
686.032	16.78
686.355	16.99
686.678	16.91
687.001	17.4
687.324	18.32
687.646	17.09
687.969	16.35
688.292	16.7
688.614	17.18
688.937	18.36
689.26	17.28
689.582	17.57
689.904	18.17
690.227	17.32
690.549	17.04
690.871	17.45
691.194	17.07
691.516	16.93
691.838	16.89
692.16	17.02
692.482	17.6
692.804	18.19
693.126	17.87
693.448	17.65
693.769	18.51
694.091	17.77
694.413	17.96
694.735	17.12
695.056	17.96
695.378	17.93
695.699	17.41
696.021	16.99
696.342	17.37
696.663	18.57
696.984	18.26
697.306	16.88
697.627	18.55
697.948	17.98
698.269	18.58
698.59	18.06
698.911	17.86
699.232	17.52
699.553	18.47
699.873	18.22
700.194	18.88
700.515	18.37
700.835	17.97
701.156	18.46
701.477	18.18
701.797	18.63
702.117	18.89
702.438	18.84
702.758	18.31
703.078	18.66
703.398	18.26
703.719	18.64
704.039	18.06
704.359	19
704.679	18.66
704.999	18.5
705.319	18.56
705.638	18.94
705.958	18.52
706.278	18.8
706.597	18.58
706.917	18.74
707.237	18.89
707.556	19.02
707.876	18.66
708.195	19.27
708.514	18.94
708.834	18.67
709.153	19.3
709.472	19.7
709.791	19.59
710.11	18.51
710.429	19.75
710.748	19.28
711.067	18.7
711.386	19.28
711.705	19.26
712.023	19.12
712.342	18.49
712.661	18.63
712.979	19.82
713.298	18.83
713.616	20.05
713.935	20.77
714.253	18.02
714.572	19.49
714.89	19.71
715.208	20.81
715.526	19.98
715.844	19.77
716.162	19.6
716.48	20.14
716.798	19.84
717.116	19.28
717.434	19.51
717.752	18.58
718.069	20.41
718.387	19.88
718.705	19.88
719.022	19.47
719.34	19.91
719.657	20.42
719.975	20.35
720.292	20.02
720.609	20.76
720.927	20.61
721.244	20.83
721.561	20.67
721.878	20.29
722.195	19.88
722.512	19.72
722.829	20.32
723.146	19.76
723.463	21.36
723.779	21.06
724.096	19.31
724.413	19.73
724.729	19.77
725.046	20.38
725.362	19.88
725.679	21.46
725.995	19.77
726.311	19.4
726.628	20.37
726.944	21.88
727.26	21.94
727.576	22.13
727.892	21.31
728.208	20.91
728.524	20.89
728.84	19.88
729.156	19.9
729.472	19.77
729.787	20.57
730.103	23.31
730.419	21.47
730.734	19.56
731.05	20.1
731.365	21.02
731.681	21.07
731.996	20.55
732.311	20.82
732.626	21.9
732.942	20.74
733.257	20.89
733.572	20.25
733.887	20.7
734.202	22.88
734.517	20.68
734.832	21.39
735.146	21.62
735.461	21.08
735.776	22.04
736.091	21.34
736.405	21.9
736.72	21.73
737.034	22.56
737.349	23.01
737.663	20.16
737.977	22.93
738.292	20.25
738.606	21.76
738.92	22.36
739.234	22.19
739.548	22.17
739.862	21.85
740.176	19.73
740.49	20.74
740.804	22.88
741.117	21.13
741.431	21.01
741.745	21.27
742.058	21.87
742.372	20.26
742.685	20.4
742.999	21.95
743.312	21.48
743.626	21.93
743.939	22.84
744.252	21.53
744.565	21.73
744.878	22.86
745.191	21.78
745.505	20.94
745.817	21.63
746.13	23.27
746.443	24.48
746.756	23.1
747.069	21.74
747.381	23.17
747.694	22.2
748.007	21.24
748.319	22.06
748.632	24.22
748.944	21.74
749.256	24.7
749.569	22.44
749.881	21.34
750.193	24.78
750.505	21.45
750.817	23.16
751.129	22.27
751.441	22.61
751.753	23.99
752.065	22.9
752.377	23.23
752.689	23.53
753	23.45
753.312	22.59
753.624	21.06
753.935	23.53
754.247	24.41
754.558	22.31
754.869	23.29
755.181	23.1
755.492	24.22
755.803	21.44
756.114	21.94
756.425	22.04
756.736	21.52
757.047	23.63
757.358	23.78
757.669	22.34
757.98	22.61
758.291	22.25
758.601	22.28
758.912	23.62
759.223	23.62
759.533	22.4
759.844	23.53
760.154	21.47
760.464	24.71
760.775	24.06
761.085	23.14
761.395	25.34
761.705	24.37
762.016	25.28
762.326	23.72
762.636	22.75
762.945	23.27
763.255	24.8
763.565	23.08
763.875	24.52
764.185	23.63
764.494	22.84
764.804	22.71
765.113	23.46
765.423	23.64
765.732	24.14
766.042	22.78
766.351	23.88
766.66	24.36
766.97	24.84
767.279	23.04
767.588	25.37
767.897	24.53
768.206	22.77
768.515	23.47
768.824	22.98
769.133	23.09
769.441	23.28
769.75	24.31
770.059	25.51
770.367	23.09
770.676	24.71
770.984	25.18
771.293	22.62
771.601	25.01
771.91	20.69
772.218	25.48
772.526	26.82
772.834	25.95
773.142	23.62
773.45	24.96
773.758	22.99
774.066	24.26
774.374	23.59
774.682	26.13
774.99	25.01
775.298	23.04
775.605	21.59
775.913	23.08
776.22	25.93
776.528	25.55
776.835	24.17
777.143	24.43
777.45	27.78
777.757	21.75
778.065	24.07
778.372	22.96
778.679	26.66
778.986	25.88
779.293	21.47
779.6	26.08
779.907	23.94
780.214	26.38
780.52	27.61
780.827	27.8
781.134	25.22
781.44	25.28
781.747	25.64
782.053	21.62
782.36	22.17
782.666	27.16
782.973	26.32
783.279	28.45
783.585	27.43
783.891	29.56
784.197	23.68
784.503	26.96
784.809	24.62
785.115	23.74
785.421	30.48
785.727	26.57
786.033	24.92
786.339	24.9
786.644	25.46
786.95	25.7
787.255	25.77
787.561	28.48
787.866	27.03
788.172	19.36
788.477	22.9
788.782	24.56
789.088	24.03
789.393	26.83
789.698	22.84
790.003	26.25
790.308	24.78
790.613	22.96
790.918	25.28
791.223	23.72
791.527	24.45
791.832	27.39
792.137	25.33
792.441	24.27
792.746	27.52
793.05	22.55
793.355	27.72
793.659	25.43
793.963	23.79
794.268	23.84
794.572	24.69
794.876	23.75
795.18	26.32
795.484	29.47
795.788	25.32
796.092	23.87
796.396	27.93
796.7	24.05
797.004	23.66
797.307	24.3
797.611	25.11
797.915	28.42
798.218	24.81
798.522	23.37
798.825	27.8
799.128	25.97
799.432	22.13
799.735	27.54
800.038	27.38
800.341	28.11
800.644	29.25
800.947	30.04
801.25	22.47
801.553	21.77
801.856	23.55
802.159	26.74
802.462	29.39
802.764	29.46
803.067	24.06
803.37	26
803.672	23.52
803.975	21.98
804.277	27.62
804.579	26.76
804.882	32.78
805.184	26.84
805.486	24.77
805.788	26.98
806.09	30.51
806.392	25.27
806.694	26.43
806.996	29.47
807.298	28.34
807.6	25.18
807.902	29.5
808.203	26.44
808.505	26.47
808.807	24.61
809.108	25.05
809.409	26.9
809.711	27.56
810.012	22.51
810.313	30.32
810.615	22.42
810.916	21.19
811.217	25.42
811.518	27.37
811.819	26.01
812.12	27.6
812.421	26.88
812.722	29.95
813.023	31.17
813.323	29.61
813.624	23.76
813.925	31.34
814.225	26.27
814.526	25.38
814.826	37.04
815.126	29.12
815.427	17.81
815.727	28.35
816.027	27.82
816.327	27.69
816.627	26.68
816.927	30.06
817.227	22.36
817.527	21.56
817.827	32.43
818.127	28.7
818.427	30.03
818.727	26.86
819.026	23.46
819.326	29.31
819.625	25.56
819.925	27.92
820.224	23.03
820.524	27.97
820.823	30.26
821.122	28.7
821.421	29.22
821.72	23.26
822.019	31.06
822.318	29.23
822.617	19.16
822.916	33.16
823.215	26.34
823.514	28.98
823.813	26.79
824.111	27.65
824.41	29.91
824.709	30.07
825.007	28.88
825.306	28.75
825.604	29.5
825.902	29.66
826.201	29.71
826.499	29.22
826.797	29.43
827.095	28.91
827.393	28.91
827.691	32.44
827.989	28.93
828.287	31.04
828.585	27.95
828.882	31.46
829.18	28.22
829.478	30.2
829.775	29.89
830.073	29.57
830.37	28.16
830.668	28.22
830.965	31
831.263	28.78
831.56	30.28
831.857	26.49
832.154	29.81
832.451	33.34
832.748	29.94
833.045	30.2
833.342	31.98
833.639	28.86
833.936	26.76
834.232	26.93
834.529	20.86
834.826	23.58
835.122	23.11
835.419	23.26
835.715	34.75
836.012	29.91
836.308	26.67
836.604	28.09
836.901	24.92
837.197	29.51
837.493	28.08
837.789	24.86
838.085	33.3
838.381	28.42
838.677	30.07
838.972	29.24
839.268	26.89
839.564	29.16
839.86	30.61
840.155	26.3
840.451	19.51
840.746	25.59
841.042	30.51
841.337	39.25
841.632	30.45
841.928	33.25
842.223	22.59
842.518	32.73
842.813	33.07
843.108	32.08
843.403	29.5
843.698	26.14
843.993	32.68
844.287	32.41
844.582	26.38
844.877	19.17
845.171	28.69
845.466	16.99
845.761	22.86
846.055	28.17
846.349	44.52
846.644	25.67
846.938	12.04
847.232	19.29
847.526	33.49
847.82	37.75
848.114	10
848.408	35.08
848.702	32.44
848.996	18.36
849.29	37.14
849.584	13.58
849.877	51.39
850.171	40.75
850.465	20.91
850.758	30.76
851.052	16.21
851.345	25
851.638	45.82
851.932	13.42
852.225	19.92
852.518	18.5
852.811	35.78
853.104	5.15
853.397	25.14
853.69	19.62
853.983	2.09
854.276	26.43
854.569	15.61
854.861	6.6
855.154	36.51
855.447	8.04
855.739	20.54
856.032	14.08
856.324	19.95
856.616	54.14
856.909	58.77
857.201	40.48
857.493	26.14
857.785	-0.6
858.077	49.7
858.369	32.69
858.661	15.21
858.953	14.63
859.245	-2.01
859.537	17.51
859.829	40.2
860.12	37.2
860.412	9.21
860.703	19.54
860.995	61.57
861.286	-27.71
861.578	13.42
861.869	37.58
862.16	-3.33
862.452	50.11
862.743	4.95
863.034	44.74
863.325	-8.39
863.616	6.75
863.907	4.05
864.198	6.74
864.488	28.36
864.779	31.05
865.07	6.77
865.36	29.02
865.651	22.72
865.941	32.45
866.232	11.19
866.522	52.02
866.813	17.47
867.103	18.66
867.393	21.18
867.683	30.55
867.973	-2.39
868.263	6.17
868.553	32.54
868.843	25.1
869.133	5.53
869.423	55.09
869.713	24.52
870.002	65.5
870.292	35
870.582	46.26
870.871	2.71
871.161	25.56
871.45	10.75
871.739	-11.75
872.029	47.89
872.318	60.49
872.607	54.92
872.896	15.86
873.185	21.75
873.474	-42.73
873.763	34.02
874.052	-1.6
874.341	39.44
874.63	33.63
874.918	10.57
875.207	39.12
875.496	21.95
875.784	-36.63
876.073	-58.51
876.361	-14.9
876.649	26.93
876.938	18.78
877.226	60.05
877.514	14.36
877.802	-8.4
878.09	1.58
878.378	52.85
878.666	15.74
878.954	-0.16
879.242	-7.39
879.53	45.47
879.817	13.31
880.105	-26.83
880.392	21.02
880.68	16.88
880.967	-3.95
881.255	55.09
881.542	-7.4
881.83	-31.64
882.117	-10.13
882.404	-34.67
882.691	51.88
882.978	35.21
883.265	14.88
883.552	37.69
883.839	42.13
884.126	55.65
884.413	34.69
884.699	31.87
884.986	37.31
885.273	27.07
885.559	27.07
885.846	27.07
