Data from 0387_crown_Reflection__0__236.txt Node

Date: Fri Dec 15 18:30:37 CST 2023
User: ToomeyLab
Spectrometer: FLMS14357
Trigger mode: 0
Integration Time (sec): 1.000000E-2
Scans to average: 100
Electric dark correction enabled: true
Nonlinearity correction enabled: false
Boxcar width: 0
XAxis mode: Wavelengths
Number of Pixels in Spectrum: 2048
>>>>>Begin Spectral Data<<<<<
189.047	-47.21
189.435	-47.21
189.823	-47.21
190.211	-210.71
190.599	17.98
190.987	110.21
191.375	298.85
191.763	-132.35
192.151	161.5
192.538	57.5
192.926	141.56
193.314	93.73
193.702	77.16
194.089	129.64
194.477	39.73
194.864	-193.74
195.252	112.03
195.639	152.5
196.027	-894.85
196.414	75.42
196.801	137.12
197.189	58.45
197.576	202.87
197.963	-44.05
198.351	-262.87
198.738	34.11
199.125	-9.8
199.512	-18.44
199.899	-4.46
200.286	41.12
200.673	24.55
201.06	-29.34
201.447	-95.11
201.833	-60.71
202.22	14.81
202.607	52.13
202.994	28.05
203.38	-19.71
203.767	27.1
204.154	12.86
204.54	26.15
204.927	-148.33
205.313	51.8
205.699	33.25
206.086	8.82
206.472	35.28
206.858	21.92
207.245	-42.74
207.631	38.84
208.017	-10.52
208.403	13.04
208.789	-12.61
209.175	-11.87
209.561	-36.06
209.947	-0.5
210.333	-53.28
210.719	-6.33
211.105	9.3
211.491	-28.49
211.876	57.84
212.262	5.34
212.648	-11.92
213.034	32.51
213.419	-31.32
213.805	-7.75
214.19	-7.49
214.576	11.55
214.961	-10.94
215.346	-26.55
215.732	-0.09
216.117	21.53
216.502	-43.19
216.888	-0.64
217.273	-8.23
217.658	10.9
218.043	6.71
218.428	-54.2
218.813	-34
219.198	-33.51
219.583	-3.04
219.968	-2.04
220.353	-31.37
220.738	17.24
221.122	-0.43
221.507	-15.8
221.892	-18.79
222.276	1.4
222.661	-5.08
223.046	15.95
223.43	12.61
223.815	14.03
224.199	-1.99
224.583	6.8
224.968	8.92
225.352	13.58
225.736	-2.21
226.121	-9.88
226.505	10.16
226.889	8.25
227.273	-3.78
227.657	-0.44
228.041	-0.46
228.425	-0.01
228.809	4.8
229.193	0.34
229.577	-0.51
229.961	3.43
230.344	1.52
230.728	1.95
231.112	2.22
231.495	3.39
231.879	1.49
232.263	2.89
232.646	0.95
233.03	1.26
233.413	1.38
233.797	2.42
234.18	0.73
234.563	2.53
234.946	0.4
235.33	3.92
235.713	2.47
236.096	2.07
236.479	3.11
236.862	0.24
237.245	3.18
237.628	3.6
238.011	1.92
238.394	5.1
238.777	3.11
239.16	0.77
239.543	1.7
239.925	2.39
240.308	2.48
240.691	4.25
241.073	3.55
241.456	1.3
241.838	1.3
242.221	2.13
242.603	2.37
242.986	2.75
243.368	2.63
243.75	3.03
244.133	2.52
244.515	2.58
244.897	2.89
245.279	3.13
245.661	2.21
246.043	2.39
246.425	1.4
246.807	3.91
247.189	2.99
247.571	3.03
247.953	2.73
248.335	2.92
248.717	2.8
249.098	2.55
249.48	2.88
249.862	2.53
250.243	2.06
250.625	2.66
251.006	2.73
251.388	1.97
251.769	1.81
252.151	2.73
252.532	2.55
252.913	2.01
253.295	1.61
253.676	2.49
254.057	2.35
254.438	2.51
254.819	1.92
255.2	1.63
255.581	1.6
255.962	2
256.343	2.72
256.724	2.36
257.105	2.55
257.486	1.54
257.867	3.32
258.247	1.97
258.628	1.64
259.009	2.25
259.389	3.11
259.77	2
260.15	1.89
260.531	1.04
260.911	2.73
261.292	2.38
261.672	2.6
262.052	2.43
262.432	2.8
262.813	2.41
263.193	1.89
263.573	3.21
263.953	2.23
264.333	3.22
264.713	2.31
265.093	1.72
265.473	2.27
265.853	1.85
266.233	2.66
266.612	0.31
266.992	0.92
267.372	3.12
267.752	2.17
268.131	3.08
268.511	3.08
268.89	2.67
269.27	2.19
269.649	1.46
270.029	1.88
270.408	3.19
270.787	2.64
271.167	2.29
271.546	2.34
271.925	1.83
272.304	1.86
272.683	2.64
273.062	2.17
273.441	2.4
273.82	1.81
274.199	2.05
274.578	2.51
274.957	2.14
275.336	1.89
275.715	2.28
276.093	2.01
276.472	3.13
276.851	1.89
277.229	2.21
277.608	1.2
277.986	1.84
278.365	2.66
278.743	2.27
279.122	1.9
279.5	2.52
279.878	2.42
280.257	2.21
280.635	2.07
281.013	1.67
281.391	2.61
281.769	2.59
282.147	2.7
282.525	2.87
282.903	1.74
283.281	2.36
283.659	2.61
284.037	2.38
284.415	2.51
284.792	2.41
285.17	1.96
285.548	2.07
285.925	2.52
286.303	2.57
286.68	2.12
287.058	2.2
287.435	2.02
287.813	2.38
288.19	2.12
288.567	2.1
288.945	2.93
289.322	2.3
289.699	2.14
290.076	1.87
290.453	1.84
290.83	1.91
291.207	1.87
291.584	2.68
291.961	2.42
292.338	2.43
292.715	2.48
293.092	2.67
293.469	2.52
293.845	2.5
294.222	2
294.599	2.11
294.975	2.18
295.352	2.17
295.728	1.6
296.105	2.24
296.481	2.7
296.858	2.05
297.234	2.25
297.61	2.2
297.986	2.24
298.363	2.78
298.739	2.47
299.115	2.58
299.491	2.1
299.867	2.36
300.243	2.66
300.619	2.45
300.995	1.99
301.371	2.99
301.746	2.08
302.122	2.46
302.498	2.19
302.874	2.24
303.249	2.71
303.625	2.47
304	2.36
304.376	2.62
304.751	2.06
305.127	3.08
305.502	1.78
305.878	1.62
306.253	2.36
306.628	2.88
307.003	2.22
307.378	2.65
307.754	2.52
308.129	1.68
308.504	2.95
308.879	1.93
309.254	3.18
309.629	2.58
310.003	2.54
310.378	3.27
310.753	3.27
311.128	2.54
311.502	2.94
311.877	2.78
312.252	2.24
312.626	2.66
313.001	2.62
313.375	3.1
313.75	2.4
314.124	2.73
314.498	2.89
314.873	2.6
315.247	2.03
315.621	2.86
315.995	2.11
316.369	2.15
316.743	2.17
317.117	2.36
317.491	2.23
317.865	2.62
318.239	2.3
318.613	2.74
318.987	2.74
319.361	2.26
319.734	3.05
320.108	2.85
320.482	1.87
320.855	2.97
321.229	2.28
321.602	2.33
321.976	3.61
322.349	2.49
322.723	2.91
323.096	3.43
323.469	1.34
323.843	2.58
324.216	3.04
324.589	2.54
324.962	2.34
325.335	2.55
325.708	2.75
326.081	3.14
326.454	3.07
326.827	2.16
327.2	3.02
327.573	3.35
327.945	2.89
328.318	2.3
328.691	2.24
329.063	2.57
329.436	2.61
329.809	3.06
330.181	1.9
330.553	2.36
330.926	3.21
331.298	3.18
331.671	2.76
332.043	2.61
332.415	2.68
332.787	2.52
333.159	3.84
333.532	3.24
333.904	2.7
334.276	2.67
334.648	2.86
335.02	2.37
335.391	2.84
335.763	2.81
336.135	3.02
336.507	3.35
336.879	2.93
337.25	2.51
337.622	3.07
337.993	2.63
338.365	3.06
338.736	3.09
339.108	3.02
339.479	2.51
339.851	2.64
340.222	2.54
340.593	2.47
340.964	2.79
341.336	3.46
341.707	2.19
342.078	3.18
342.449	3.48
342.82	3.14
343.191	3.1
343.562	2.87
343.933	2.94
344.303	2.76
344.674	2.58
345.045	3.16
345.416	3.1
345.786	2.46
346.157	2.86
346.527	2.78
346.898	2.22
347.268	3.2
347.639	2.53
348.009	3
348.38	2.41
348.75	2.71
349.12	2.82
349.49	3.49
349.861	2.86
350.231	2.89
350.601	3.05
350.971	3.37
351.341	3.42
351.711	2.88
352.081	3.25
352.45	2.58
352.82	3.28
353.19	2.87
353.56	2.26
353.929	3.21
354.299	2.91
354.669	2.6
355.038	3.52
355.408	2.78
355.777	3.42
356.147	3.07
356.516	3.01
356.885	3.28
357.254	3.35
357.624	3.18
357.993	3.21
358.362	2.95
358.731	2.86
359.1	2.96
359.469	3.04
359.838	3.1
360.207	2.97
360.576	2.79
360.945	3.12
361.314	3.32
361.682	2.68
362.051	2.8
362.42	3.27
362.788	2.8
363.157	3.24
363.525	3.18
363.894	3.08
364.262	2.97
364.631	2.92
364.999	3.16
365.367	2.87
365.735	3.49
366.104	3.21
366.472	3.44
366.84	2.96
367.208	3.11
367.576	3.39
367.944	3.22
368.312	2.95
368.68	2.85
369.048	3.24
369.416	3.06
369.783	2.73
370.151	3.05
370.519	3.41
370.886	3.15
371.254	2.56
371.621	3.29
371.989	3.06
372.356	2.53
372.724	2.65
373.091	3.28
373.458	3.22
373.826	2.86
374.193	3.13
374.56	3.06
374.927	3.3
375.294	3.13
375.661	2.99
376.028	2.82
376.395	2.81
376.762	3.1
377.129	2.91
377.496	2.98
377.863	3.43
378.229	2.78
378.596	3.17
378.963	3.09
379.329	2.97
379.696	3.18
380.062	3.01
380.429	3.02
380.795	2.92
381.161	3.51
381.528	3.39
381.894	3.32
382.26	3.05
382.626	3.23
382.993	2.8
383.359	3.41
383.725	3.14
384.091	3.17
384.457	3.38
384.823	3.21
385.188	3.43
385.554	3.23
385.92	3.3
386.286	3.37
386.651	3.44
387.017	3.39
387.383	3.15
387.748	3.27
388.114	3.21
388.479	2.93
388.845	3.29
389.21	3.41
389.575	3.33
389.94	3.35
390.306	3.21
390.671	3.48
391.036	3.04
391.401	2.88
391.766	3.49
392.131	3.12
392.496	3.27
392.861	3.19
393.226	3.39
393.591	3.32
393.956	3.17
394.32	3.15
394.685	2.92
395.05	3.19
395.414	3.16
395.779	2.8
396.143	3.19
396.508	3.22
396.872	3.54
397.236	3.44
397.601	3.05
397.965	3.05
398.329	3.35
398.694	3.32
399.058	3.26
399.422	3.13
399.786	3.31
400.15	3.28
400.514	3.28
400.878	3.35
401.242	3.47
401.605	3.42
401.969	3.39
402.333	3.26
402.697	3.27
403.06	3.34
403.424	3.12
403.787	3.24
404.151	3.42
404.514	3.27
404.878	3.08
405.241	3.43
405.604	3.02
405.968	3.29
406.331	3.28
406.694	3.46
407.057	3.28
407.42	3.15
407.783	3.22
408.146	3.22
408.509	3.13
408.872	3.24
409.235	3.12
409.598	3.42
409.961	3.42
410.323	3.39
410.686	3.23
411.049	2.7
411.411	3.46
411.774	3.31
412.136	3.3
412.499	3.07
412.861	3.26
413.223	3.18
413.586	3.37
413.948	3.17
414.31	3.37
414.672	3.04
415.035	3.31
415.397	3.75
415.759	3.09
416.121	3.28
416.483	2.93
416.845	3.19
417.206	3.15
417.568	3.31
417.93	3.04
418.292	3.26
418.653	3.11
419.015	3.4
419.377	3.06
419.738	3.28
420.1	3.22
420.461	3.39
420.822	3.16
421.184	3.22
421.545	3.32
421.906	3.19
422.267	3.21
422.629	3.19
422.99	3.2
423.351	3.21
423.712	3.19
424.073	3.33
424.434	3.12
424.795	3.25
425.155	3.25
425.516	3.02
425.877	3.23
426.238	3.1
426.598	3.38
426.959	3.37
427.32	3.18
427.68	3.19
428.041	3.31
428.401	3.27
428.761	3.28
429.122	3.43
429.482	3.17
429.842	3.34
430.202	3.23
430.563	3.29
430.923	3.25
431.283	3.24
431.643	3.2
432.003	3.1
432.363	3.17
432.722	3.23
433.082	3.48
433.442	3.27
433.802	3.15
434.161	3.2
434.521	3.38
434.881	3.46
435.24	3.24
435.6	3.21
435.959	3.3
436.319	3.24
436.678	3.33
437.037	3.34
437.396	3.31
437.756	3.3
438.115	3.15
438.474	3.57
438.833	3.08
439.192	3.33
439.551	3.36
439.91	3.25
440.269	3.26
440.628	3.2
440.987	3.2
441.345	3.15
441.704	3.29
442.063	3.26
442.421	3.27
442.78	3.16
443.138	3.22
443.497	3.35
443.855	3.28
444.214	3.35
444.572	3.35
444.93	3.37
445.288	3.28
445.647	3.4
446.005	3.24
446.363	3.41
446.721	3.44
447.079	3.17
447.437	3.16
447.795	3.45
448.153	3.22
448.51	3.28
448.868	3.24
449.226	3.32
449.584	3.25
449.941	3.3
450.299	3.32
450.656	3.32
451.014	3.25
451.371	3.16
451.729	3.2
452.086	3.34
452.443	3.45
452.801	3.47
453.158	3.33
453.515	3.23
453.872	3.47
454.229	3.19
454.586	3.36
454.943	3.37
455.3	3.43
455.657	3.41
456.014	3.18
456.371	3.25
456.727	3.36
457.084	3.43
457.441	3.47
457.797	3.3
458.154	3.36
458.51	3.45
458.867	3.24
459.223	3.44
459.58	3.5
459.936	3.42
460.292	3.43
460.648	3.29
461.005	3.23
461.361	3.38
461.717	3.41
462.073	3.17
462.429	3.32
462.785	3.26
463.141	3.28
463.496	3.25
463.852	3.37
464.208	3.36
464.564	3.42
464.919	3.4
465.275	3.42
465.631	3.4
465.986	3.2
466.342	3.44
466.697	3.13
467.052	3.36
467.408	3.39
467.763	3.46
468.118	3.24
468.473	3.33
468.829	3.35
469.184	3.3
469.539	3.37
469.894	3.31
470.249	3.43
470.603	3.5
470.958	3.42
471.313	3.42
471.668	3.65
472.023	3.32
472.377	3.23
472.732	3.51
473.086	3.2
473.441	3.21
473.795	3.52
474.15	3.31
474.504	3.35
474.859	3.52
475.213	3.16
475.567	3.17
475.921	3.14
476.275	3.45
476.63	3.25
476.984	3.66
477.338	3.4
477.692	3.21
478.045	3.33
478.399	3.25
478.753	3.39
479.107	3.29
479.461	3.45
479.814	3.3
480.168	3.15
480.521	3.4
480.875	3.25
481.228	3.34
481.582	3.18
481.935	3.38
482.289	3.33
482.642	3.35
482.995	3.27
483.348	3.18
483.701	3.32
484.055	3.27
484.408	3.3
484.761	3.13
485.114	3.23
485.466	3.03
485.819	3.07
486.172	3.09
486.525	3.12
486.878	3.21
487.23	3.22
487.583	3.26
487.936	3.31
488.288	3.24
488.641	3.21
488.993	3.13
489.345	3.13
489.698	3.13
490.05	3.12
490.402	3.24
490.754	3.18
491.107	3.29
491.459	3.28
491.811	3.32
492.163	3.23
492.515	3.22
492.866	3.26
493.218	3.27
493.57	3.14
493.922	3.12
494.274	3.29
494.625	3.31
494.977	3.36
495.328	3.35
495.68	3.3
496.031	3.37
496.383	3.28
496.734	3.48
497.086	3.37
497.437	3.31
497.788	3.18
498.139	3.28
498.49	3.36
498.842	3.12
499.193	3.3
499.544	3.35
499.894	3.34
500.245	3.44
500.596	3.28
500.947	3.4
501.298	3.2
501.648	3.33
501.999	3.43
502.35	3.32
502.7	3.37
503.051	3.15
503.401	3.28
503.752	3.52
504.102	3.32
504.452	3.44
504.803	3.12
505.153	3.34
505.503	3.39
505.853	3.23
506.203	3.25
506.553	3.3
506.903	3.39
507.253	3.32
507.603	3.3
507.953	3.4
508.303	3.4
508.652	3.35
509.002	3.41
509.352	3.38
509.701	3.23
510.051	3.27
510.4	3.26
510.75	3.37
511.099	3.3
511.449	3.29
511.798	3.31
512.147	3.3
512.496	3.26
512.846	3.33
513.195	3.18
513.544	3.3
513.893	3.29
514.242	3.34
514.591	3.48
514.939	3.33
515.288	3.2
515.637	3.37
515.986	3.44
516.334	3.42
516.683	3.52
517.032	3.39
517.38	3.43
517.729	3.46
518.077	3.26
518.426	3.38
518.774	3.44
519.122	3.4
519.47	3.27
519.819	3.27
520.167	3.24
520.515	3.36
520.863	3.37
521.211	3.37
521.559	3.4
521.907	3.3
522.255	3.34
522.602	3.39
522.95	3.27
523.298	3.45
523.645	3.32
523.993	3.34
524.341	3.4
524.688	3.39
525.036	3.33
525.383	3.44
525.73	3.42
526.078	3.33
526.425	3.17
526.772	3.38
527.119	3.25
527.466	3.23
527.814	3.2
528.161	3.27
528.508	3.31
528.854	3.32
529.201	3.21
529.548	3.11
529.895	3.19
530.242	3.06
530.588	3.07
530.935	3.15
531.282	3.2
531.628	3.23
531.975	3.26
532.321	3.26
532.667	3.33
533.014	3.37
533.36	3.32
533.706	3.39
534.052	3.31
534.399	3.22
534.745	3.16
535.091	3.17
535.437	3.21
535.783	3.25
536.129	3.3
536.474	3.29
536.82	3.26
537.166	3.38
537.512	3.36
537.857	3.28
538.203	3.32
538.549	3.24
538.894	3.27
539.239	3.3
539.585	3.28
539.93	3.27
540.276	3.46
540.621	3.34
540.966	3.37
541.311	3.29
541.656	3.23
542.001	3.22
542.346	3.33
542.691	3.15
543.036	3.2
543.381	3.08
543.726	3.18
544.071	3.28
544.415	3.35
544.76	3.29
545.105	3.31
545.449	3.26
545.794	3.37
546.138	3.37
546.483	3.26
546.827	3.38
547.171	3.23
547.516	3.43
547.86	3.28
548.204	3.16
548.548	3.32
548.892	3.27
549.236	3.29
549.58	3.16
549.924	3.37
550.268	3.42
550.612	3.5
550.956	3.57
551.3	3.42
551.643	3.4
551.987	3.42
552.33	3.31
552.674	3.39
553.017	3.33
553.361	3.32
553.704	3.65
554.048	3.4
554.391	3.34
554.734	3.21
555.077	3.36
555.42	3.22
555.764	3.32
556.107	3.18
556.45	3.09
556.793	3.25
557.135	3.44
557.478	3.66
557.821	3.4
558.164	3.31
558.507	3.61
558.849	3.37
559.192	3.37
559.534	3.34
559.877	3.48
560.219	3.27
560.562	3.57
560.904	3.5
561.246	3.36
561.589	3.28
561.931	3.52
562.273	3.45
562.615	3.61
562.957	3.44
563.299	3.38
563.641	3.45
563.983	3.3
564.325	3.42
564.667	3.29
565.008	3.34
565.35	3.48
565.692	3.28
566.033	3.53
566.375	3.57
566.716	3.7
567.058	3.24
567.399	3.42
567.741	3.25
568.082	3.25
568.423	3.34
568.764	3.32
569.105	3.48
569.447	3.51
569.788	3.48
570.129	3.48
570.47	3.22
570.811	3.36
571.151	3.38
571.492	3.41
571.833	3.5
572.174	3.35
572.514	3.35
572.855	3.43
573.195	3.07
573.536	3.37
573.876	3.29
574.217	3.33
574.557	3.45
574.898	3.41
575.238	3.42
575.578	3.14
575.918	3.5
576.258	3.48
576.598	3.37
576.938	3.4
577.278	3.5
577.618	3.39
577.958	3.25
578.298	3.37
578.638	3.44
578.977	3.33
579.317	3.26
579.657	3.46
579.996	3.41
580.336	3.33
580.675	3.37
581.014	3.72
581.354	3.76
581.693	3.36
582.032	3.34
582.372	3.57
582.711	3.35
583.05	3.38
583.389	3.45
583.728	3.16
584.067	3.62
584.406	3.44
584.745	3.36
585.083	3.5
585.422	3.47
585.761	3.52
586.1	3.49
586.438	3.44
586.777	3.54
587.115	3.64
587.454	3.41
587.792	3.1
588.13	3.78
588.469	3.44
588.807	3.18
589.145	3.21
589.483	3.29
589.821	3.5
590.159	3.31
590.497	3.87
590.835	3.68
591.173	3.44
591.511	3.49
591.849	3.66
592.187	3.43
592.524	3.37
592.862	3.45
593.2	3.61
593.537	3.7
593.875	3.21
594.212	3.38
594.55	3.39
594.887	3.54
595.224	3.44
595.561	3.41
595.899	3.32
596.236	3.25
596.573	3.69
596.91	3.2
597.247	3.17
597.584	3.5
597.921	3.3
598.258	3.22
598.594	3.32
598.931	3.4
599.268	3.54
599.604	3.3
599.941	3.62
600.277	3.4
600.614	3.63
600.95	3.43
601.287	3.48
601.623	3.25
601.959	3.54
602.296	3.75
602.632	3.28
602.968	3.56
603.304	3.55
603.64	3.62
603.976	3.5
604.312	3.22
604.648	3.45
604.984	3.46
605.319	3.6
605.655	3.39
605.991	3.5
606.326	3.36
606.662	3.42
606.998	3.07
607.333	3.56
607.668	3.34
608.004	3.64
608.339	3.83
608.674	3.52
609.01	3.22
609.345	3.33
609.68	3.53
610.015	3.43
610.35	3.26
610.685	3.26
611.02	3.45
611.355	3.5
611.689	3.33
612.024	3.4
612.359	3.38
612.694	3.64
613.028	3.21
613.363	3.51
613.697	3.62
614.032	3.52
614.366	3.55
614.7	3.62
615.035	3.48
615.369	3.32
615.703	3.53
616.037	3.51
616.371	3.19
616.705	3.69
617.039	3.61
617.373	3.46
617.707	3.64
618.041	3.35
618.375	3.59
618.709	3.33
619.042	3.26
619.376	3.48
619.71	3.77
620.043	3.52
620.377	3.5
620.71	3.73
621.043	3.12
621.377	3.31
621.71	3.36
622.043	3.26
622.376	3.64
622.709	3.84
623.043	3.73
623.376	3.74
623.709	3.23
624.041	3.9
624.374	3.51
624.707	3.59
625.04	3.5
625.373	3.23
625.705	3.22
626.038	3.14
626.37	3.62
626.703	3.23
627.035	3.48
627.368	3.82
627.7	3.55
628.032	3.2
628.365	3.53
628.697	3.37
629.029	3.15
629.361	3.41
629.693	3.66
630.025	3.28
630.357	3.46
630.689	3.54
631.021	3.4
631.353	3.74
631.684	3.51
632.016	3.49
632.348	3.75
632.679	3.42
633.011	3.8
633.342	3.86
633.674	3.05
634.005	3.88
634.336	3.38
634.668	3.79
634.999	3.16
635.33	3.74
635.661	3.95
635.992	3.39
636.323	3.42
636.654	3.92
636.985	3.54
637.316	3.48
637.647	3.32
637.977	3.39
638.308	3.72
638.639	3.02
638.969	3.24
639.3	3.34
639.63	3.08
639.961	3.86
640.291	3.38
640.622	3.5
640.952	3.05
641.282	4.02
641.612	3.67
641.943	3.55
642.273	3.59
642.603	3.98
642.933	3.96
643.263	3.57
643.592	3.31
643.922	3.19
644.252	3.45
644.582	3.81
644.911	3.27
645.241	3.71
645.571	3.73
645.9	3.4
646.23	3.76
646.559	3.9
646.888	3.13
647.218	3.41
647.547	4.06
647.876	3.6
648.205	3.58
648.534	3.15
648.863	3.36
649.192	3.72
649.521	3.51
649.85	3.36
650.179	3.18
650.508	3.02
650.837	3.55
651.165	3.23
651.494	3.52
651.822	3.63
652.151	3.13
652.479	3.48
652.808	3.32
653.136	3.77
653.465	3.26
653.793	3.35
654.121	3.34
654.449	3.51
654.777	3.78
655.105	3.48
655.433	3.18
655.761	3.61
656.089	3.89
656.417	3.28
656.745	3.73
657.073	3.27
657.4	4.72
657.728	3.96
658.056	3.12
658.383	3.36
658.711	4.06
659.038	3.52
659.365	3.48
659.693	3.82
660.02	3.81
660.347	3.59
660.674	3.44
661.001	3.75
661.329	3.01
661.656	3.82
661.982	3.81
662.309	3.94
662.636	3.34
662.963	3.72
663.29	3.95
663.616	3.71
663.943	3.34
664.27	3.92
664.596	3.42
664.923	3.72
665.249	3.87
665.576	3.59
665.902	4.18
666.228	3.84
666.554	3.93
666.881	3.34
667.207	3.44
667.533	3.64
667.859	3.58
668.185	4.11
668.511	3.11
668.837	3.24
669.162	3.11
669.488	2.98
669.814	3.81
670.139	3.97
670.465	4.33
670.791	3.57
671.116	4.07
671.442	3.39
671.767	3.77
672.092	4.18
672.418	3.37
672.743	4.03
673.068	3.72
673.393	3.53
673.718	3.57
674.043	3.61
674.368	3.29
674.693	4.79
675.018	3.51
675.343	3.54
675.667	3.44
675.992	3.95
676.317	4.44
676.641	4.06
676.966	3.61
677.29	3.75
677.615	3.67
677.939	4.16
678.264	4.32
678.588	3.77
678.912	3.46
679.236	4.34
679.56	2.8
679.885	4.26
680.209	3.27
680.532	3.51
680.856	4.57
681.18	3.48
681.504	3.55
681.828	4.04
682.152	3.75
682.475	3.93
682.799	4.21
683.122	3.8
683.446	3.48
683.769	4.19
684.093	3.38
684.416	3.97
684.739	3.72
685.062	3.71
685.386	4.72
685.709	3.27
686.032	3.66
686.355	3.97
686.678	3
687.001	3.85
687.324	4.17
687.646	2.76
687.969	2.77
688.292	3.43
688.614	4.07
688.937	4.46
689.26	3.52
689.582	3.76
689.904	3.88
690.227	3.82
690.549	3.91
690.871	3.95
691.194	3.39
691.516	4.46
691.838	3.59
692.16	3.38
692.482	3.83
692.804	3.73
693.126	4.07
693.448	4.07
693.769	3.99
694.091	3.15
694.413	3.64
694.735	3.68
695.056	4.18
695.378	3.65
695.699	2.37
696.021	2.86
696.342	2.87
696.663	3.59
696.984	4.29
697.306	1.98
697.627	3.93
697.948	3.89
698.269	4.16
698.59	4.16
698.911	3.17
699.232	3.51
699.553	4.35
699.873	3.9
700.194	3.73
700.515	4.02
700.835	3.42
701.156	3.86
701.477	4.28
701.797	3.97
702.117	4.32
702.438	4.15
702.758	3.39
703.078	3.29
703.398	3.04
703.719	3.85
704.039	3.25
704.359	4.86
704.679	3.37
704.999	3.83
705.319	3.49
705.638	2.88
705.958	3.87
706.278	3.29
706.597	3.64
706.917	3.03
707.237	4.71
707.556	5.45
707.876	3.78
708.195	3.7
708.514	2.97
708.834	4.97
709.153	3.72
709.472	4.51
709.791	3.63
710.11	3.36
710.429	4.02
710.748	4.21
711.067	4.04
711.386	4.51
711.705	3.71
712.023	3.52
712.342	3.19
712.661	3.55
712.979	3.04
713.298	3.65
713.616	3.98
713.935	3.99
714.253	3.05
714.572	3.72
714.89	3.45
715.208	4.23
715.526	4.52
715.844	4.61
716.162	3.56
716.48	4.76
716.798	3.82
717.116	3.68
717.434	3.42
717.752	1.78
718.069	4.71
718.387	3.17
718.705	4
719.022	2.67
719.34	4.18
719.657	3.76
719.975	3.8
720.292	2.9
720.609	5.12
720.927	3.98
721.244	5.94
721.561	4.04
721.878	4.15
722.195	2.49
722.512	4.19
722.829	4.43
723.146	2.99
723.463	3.68
723.779	2.44
724.096	5
724.413	3.5
724.729	4.02
725.046	2.56
725.362	4.76
725.679	3.05
725.995	2.42
726.311	4.15
726.628	3.16
726.944	4.15
727.26	4.24
727.576	6.04
727.892	3.39
728.208	4.3
728.524	3.39
728.84	2.13
729.156	3.5
729.472	2.65
729.787	3.32
730.103	5.2
730.419	3.37
730.734	3.84
731.05	4.19
731.365	3.1
731.681	4.79
731.996	4.29
732.311	3.65
732.626	4.71
732.942	3.02
733.257	4.64
733.572	4.05
733.887	3.75
734.202	4.92
734.517	5.27
734.832	4.14
735.146	2.91
735.461	3.7
735.776	4.13
736.091	4.43
736.405	3.94
736.72	3.43
737.034	3.06
737.349	5.06
737.663	5.61
737.977	3.92
738.292	3.23
738.606	4.92
738.92	4.74
739.234	4.36
739.548	5.21
739.862	2.44
740.176	2.82
740.49	4.52
740.804	5.1
741.117	5.28
741.431	4.55
741.745	2.51
742.058	3.58
742.372	3.72
742.685	3.42
742.999	4.04
743.312	2.87
743.626	3.81
743.939	1.61
744.252	5.64
744.565	1.89
744.878	1.6
745.191	2.45
745.505	2.96
745.817	4.25
746.13	5.36
746.443	4.48
746.756	6.86
747.069	3.63
747.381	5.18
747.694	3.22
748.007	3.71
748.319	4.56
748.632	4.62
748.944	3.49
749.256	5.68
749.569	2.73
749.881	5.35
750.193	4.78
750.505	4.06
750.817	3.57
751.129	3.82
751.441	4.33
751.753	4.67
752.065	4.01
752.377	5.52
752.689	4.33
753	5.87
753.312	3.25
753.624	2.37
753.935	4.95
754.247	4.15
754.558	4.37
754.869	4.84
755.181	3.74
755.492	4.34
755.803	3.15
756.114	3.51
756.425	2.44
756.736	1.64
757.047	5.2
757.358	5.14
757.669	3.92
757.98	5.04
758.291	2.94
758.601	4.4
758.912	2.49
759.223	5.1
759.533	3.32
759.844	4.48
760.154	2.4
760.464	6.03
760.775	4.07
761.085	3.73
761.395	3.89
761.705	3.12
762.016	1.97
762.326	3.33
762.636	3.59
762.945	3.43
763.255	5.62
763.565	1.95
763.875	4.23
764.185	4.73
764.494	4.52
764.804	5.56
765.113	5.36
765.423	3.56
765.732	4.48
766.042	3.41
766.351	3.69
766.66	6.3
766.97	4.96
767.279	3.86
767.588	4.5
767.897	6.05
768.206	4.06
768.515	3.91
768.824	4.41
769.133	2.61
769.441	4.88
769.75	3.38
770.059	5.16
770.367	7.45
770.676	4.23
770.984	3.91
771.293	4.33
771.601	7.71
771.91	2.88
772.218	5.66
772.526	5.4
772.834	3.91
773.142	3.26
773.45	3.44
773.758	5.6
774.066	4.56
774.374	3.88
774.682	2.75
774.99	9.85
775.298	2.92
775.605	4.28
775.913	0.56
776.22	5.74
776.528	4.97
776.835	6.58
777.143	3.3
777.45	3.01
777.757	6.31
778.065	4.08
778.372	3.46
778.679	3.3
778.986	2.33
779.293	3.54
779.6	6.62
779.907	3.85
780.214	4.49
780.52	4.42
780.827	5.95
781.134	9.37
781.44	0.27
781.747	4.1
782.053	2.11
782.36	0.92
782.666	5.3
782.973	0.84
783.279	7.45
783.585	2.39
783.891	5.26
784.197	4.14
784.503	3.24
784.809	0.47
785.115	7.96
785.421	7.77
785.727	4.07
786.033	3.17
786.339	0.08
786.644	3.66
786.95	4.73
787.255	8.57
787.561	6.23
787.866	1.86
788.172	1.82
788.477	2.45
788.782	3.76
789.088	5.4
789.393	0.74
789.698	1.97
790.003	6.3
790.308	-0.42
790.613	5.67
790.918	0.29
791.223	6.62
791.527	-0.62
791.832	7.72
792.137	-0.81
792.441	2.94
792.746	1.81
793.05	3.96
793.355	4.56
793.659	7.27
793.963	1.89
794.268	1.48
794.572	5.46
794.876	5.86
795.18	7.37
795.484	0.88
795.788	1.81
796.092	1.88
796.396	-7.03
796.7	2.16
797.004	7.44
797.307	1.61
797.611	8.08
797.915	5.61
798.218	7.18
798.522	3.88
798.825	-0.3
799.128	3.83
799.432	-1.62
799.735	2.14
800.038	7.98
800.341	5.14
800.644	5.55
800.947	7.42
801.25	3.77
801.553	-0.2
801.856	3.06
802.159	-4.65
802.462	1.27
802.764	9.13
803.067	0.85
803.37	0.73
803.672	4.09
803.975	0.02
804.277	4.13
804.579	3.39
804.882	1.17
805.184	1.78
805.486	4.01
805.788	3.73
806.09	9.73
806.392	2.15
806.694	4.33
806.996	6.19
807.298	-1.23
807.6	4.06
807.902	3.93
808.203	1.42
808.505	1.82
808.807	0.63
809.108	4.38
809.409	4.09
809.711	1.72
810.012	-2.21
810.313	1.85
810.615	5.03
810.916	-0.44
811.217	0.64
811.518	0.3
811.819	1.94
812.12	1.04
812.421	3.03
812.722	7.58
813.023	7.15
813.323	-1.64
813.624	0.05
813.925	13.1
814.225	-6.27
814.526	9.74
814.826	12.04
815.126	-2.89
815.427	3.86
815.727	4.49
816.027	6.87
816.327	3.01
816.627	-3.88
816.927	1.35
817.227	2.23
817.527	5.53
817.827	9.55
818.127	0.68
818.427	4.07
818.727	6.33
819.026	3.32
819.326	8.46
819.625	0.14
819.925	-8.23
820.224	8.5
820.524	-1.78
820.823	13.44
821.122	0.09
821.421	5.14
821.72	-2.34
822.019	7.29
822.318	4.17
822.617	1.28
822.916	4.04
823.215	6.13
823.514	7.88
823.813	2.57
824.111	5.16
824.41	5.98
824.709	5.7
825.007	5.59
825.306	6.31
825.604	5.45
825.902	5.51
826.201	5.71
826.499	5.94
826.797	5.39
827.095	7.17
827.393	6.71
827.691	6.77
827.989	3.19
828.287	8.4
828.585	3.13
828.882	4.76
829.18	4.96
829.478	6.91
829.775	6.49
830.073	7.93
830.37	6.33
830.668	3.98
830.965	6.64
831.263	4.45
831.56	5.51
831.857	3.3
832.154	4.05
832.451	8.67
832.748	11.68
833.045	9.02
833.342	8.35
833.639	3.03
833.936	5.06
834.232	6.88
834.529	5.34
834.826	2.73
835.122	3.55
835.419	-2.61
835.715	4.03
836.012	7.73
836.308	2.19
836.604	4.5
836.901	4.48
837.197	1.92
837.493	5
837.789	6.39
838.085	4.33
838.381	8.57
838.677	3.08
838.972	3.52
839.268	4.89
839.564	0.89
839.86	9.89
840.155	1.29
840.451	-7.52
840.746	6.02
841.042	7.25
841.337	13.64
841.632	11.28
841.928	17.75
842.223	-10.7
842.518	3.43
842.813	19.09
843.108	-1.52
843.403	17.2
843.698	7.1
843.993	5.01
844.287	-2.44
844.582	2.27
844.877	7.27
845.171	1.46
845.466	0.82
845.761	13.95
846.055	2.18
846.349	0.07
846.644	8.33
846.938	-10.52
847.232	-10.1
847.526	5.33
847.82	16.3
848.114	-17.91
848.408	1.92
848.702	14.38
848.996	-17.55
849.29	-2.23
849.584	5.21
849.877	-1.73
850.171	6.63
850.465	0.39
850.758	-1.18
851.052	5.21
851.345	1.11
851.638	12.42
851.932	-59.52
852.225	-7.62
852.518	3.66
852.811	-36
853.104	-23.62
853.397	24.8
853.69	-24.28
853.983	-51.74
854.276	0.29
854.569	7.98
854.861	-17.56
855.154	-21.85
855.447	-41.77
855.739	2.67
856.032	-12.61
856.324	11.77
856.616	10.86
856.909	13.77
857.201	16.17
857.493	-12.39
857.785	-33.33
858.077	0.24
858.369	7.4
858.661	-9.99
858.953	7.31
859.245	7.7
859.537	19
859.829	-7.78
860.12	21.73
860.412	1.8
860.703	12.87
860.995	-6.24
861.286	-31.42
861.578	-18.47
861.869	2.69
862.16	-3.36
862.452	14.88
862.743	-7.43
863.034	-7.37
863.325	-8.86
863.616	-2.51
863.907	20.94
864.198	-23.58
864.488	-9.79
864.779	25.02
865.07	0.89
865.36	-13.81
865.651	-19.65
865.941	15.46
866.232	-25.18
866.522	-17.35
866.813	-12.09
867.103	8.28
867.393	-39.82
867.683	9.43
867.973	-15.62
868.263	27.05
868.553	-5.11
868.843	14.43
869.133	-36.17
869.423	-7.16
869.713	15.55
870.002	2.08
870.292	10.73
870.582	-14.58
870.871	-36.52
871.161	1.91
871.45	2.27
871.739	-34.68
872.029	-2.73
872.318	2.72
872.607	30.3
872.896	-51.38
873.185	1.25
873.474	-17.2
873.763	-28.98
874.052	7.24
874.341	19.86
874.63	-5.48
874.918	3.1
875.207	20.77
875.496	9.05
875.784	22.34
876.073	-55.27
876.361	-51.93
876.649	-19.1
876.938	-18.21
877.226	-0.31
877.514	8.6
877.802	-27.84
878.09	-6.8
878.378	33.04
878.666	-24.35
878.954	5.81
879.242	-28.24
879.53	-4.05
879.817	-4.15
880.105	-47.37
880.392	6.48
880.68	-11.05
880.967	22.94
881.255	12.47
881.542	-35.65
881.83	-56.13
882.117	11.82
882.404	-104.42
882.691	6.81
882.978	-17.72
883.265	-8.94
883.552	15
883.839	10.54
884.126	-4.95
884.413	16.06
884.699	9.54
884.986	14.66
885.273	2.45
885.559	2.45
885.846	2.45
