Data from 0054_crown_Reflection__1__06.txt Node

Date: Fri Dec 16 13:51:45 CST 2022
User: ToomeyLab
Spectrometer: FLMS14357
Trigger mode: 0
Integration Time (sec): 1.000000E-2
Scans to average: 100
Electric dark correction enabled: true
Nonlinearity correction enabled: false
Boxcar width: 0
XAxis mode: Wavelengths
Number of Pixels in Spectrum: 2048
>>>>>Begin Spectral Data<<<<<
189.047	507.08
189.435	507.08
189.823	507.08
190.211	43.9
190.599	10.39
190.987	47.08
191.375	-30.29
191.763	109.54
192.151	182.78
192.538	59.36
192.926	-81.08
193.314	71.4
193.702	1082.8
194.089	93.07
194.477	-46.96
194.864	71.7
195.252	1.34
195.639	149.67
196.027	90.46
196.414	-409.41
196.801	12.06
197.189	96.91
197.576	90.98
197.963	-53.95
198.351	6.49
198.738	11.31
199.125	28.89
199.512	10.03
199.899	-33.29
200.286	-12.86
200.673	9.5
201.06	19.11
201.447	27.27
201.833	-21.24
202.22	23.91
202.607	-5.6
202.994	25.53
203.38	-30.45
203.767	-10.41
204.154	-27.65
204.54	26.17
204.927	15.59
205.313	50.68
205.699	-9.14
206.086	0.43
206.472	12.11
206.858	7.75
207.245	26.18
207.631	-4.95
208.017	0.82
208.403	-0.75
208.789	4.59
209.175	37.75
209.561	33.57
209.947	-19.02
210.333	-35.65
210.719	0.25
211.105	1.65
211.491	-35.18
211.876	-10.89
212.262	1.04
212.648	-8.7
213.034	1.71
213.419	19.25
213.805	-20.97
214.19	0.92
214.576	0.85
214.961	11.77
215.346	-9.21
215.732	10.4
216.117	3.11
216.502	3.56
216.888	1.75
217.273	6.85
217.658	-15.37
218.043	12.54
218.428	1.97
218.813	-14.42
219.198	-3.4
219.583	-8.03
219.968	-5.69
220.353	21.42
220.738	21.68
221.122	-5.08
221.507	10.45
221.892	0.41
222.276	10.4
222.661	-2.27
223.046	4.45
223.43	2.31
223.815	8.32
224.199	8.95
224.583	6.43
224.968	9.91
225.352	1.2
225.736	6.7
226.121	8.83
226.505	7.83
226.889	9.88
227.273	5.21
227.657	2.85
228.041	6.66
228.425	6.02
228.809	4.31
229.193	5.8
229.577	5.82
229.961	6.3
230.344	6.27
230.728	5.82
231.112	5.77
231.495	5.26
231.879	6.72
232.263	5.42
232.646	6.28
233.03	4.59
233.413	4.43
233.797	8.2
234.18	4.63
234.563	6.2
234.946	5.32
235.33	4.85
235.713	5.77
236.096	5.36
236.479	6.8
236.862	6.83
237.245	7.43
237.628	6.08
238.011	5.53
238.394	6.82
238.777	4.89
239.16	3.53
239.543	3.26
239.925	5.61
240.308	6.46
240.691	5.85
241.073	6.21
241.456	4.6
241.838	5
242.221	5.75
242.603	5.79
242.986	6.34
243.368	6.05
243.75	5.15
244.133	5.74
244.515	5.12
244.897	5.17
245.279	5.23
245.661	4.86
246.043	5
246.425	5.07
246.807	5.9
247.189	5.54
247.571	5.99
247.953	5.09
248.335	5.38
248.717	5.22
249.098	5.18
249.48	5.19
249.862	5.66
250.243	5.36
250.625	5.49
251.006	5.15
251.388	4.74
251.769	5.19
252.151	5.86
252.532	5.21
252.913	6.25
253.295	5.11
253.676	5.47
254.057	4.78
254.438	4.87
254.819	4.85
255.2	5.56
255.581	5.02
255.962	4.9
256.343	6.33
256.724	4.96
257.105	5.18
257.486	5.17
257.867	4.04
258.247	5.27
258.628	5.06
259.009	5.16
259.389	5.35
259.77	4.46
260.15	5.58
260.531	4.86
260.911	4.64
261.292	4.73
261.672	4.74
262.052	4.64
262.432	5.01
262.813	5.13
263.193	4.64
263.573	4.85
263.953	4.53
264.333	4.94
264.713	4.55
265.093	4.79
265.473	5.42
265.853	4.91
266.233	4.52
266.612	4.42
266.992	4.33
267.372	4.26
267.752	4.22
268.131	4.43
268.511	4.88
268.89	4.97
269.27	4.87
269.649	5.14
270.029	4.76
270.408	4.7
270.787	4.48
271.167	4.81
271.546	4.26
271.925	4.84
272.304	4.55
272.683	4.23
273.062	5.05
273.441	4.71
273.82	4.74
274.199	4.67
274.578	4.75
274.957	4.68
275.336	4.47
275.715	4.52
276.093	4.72
276.472	4.81
276.851	4.9
277.229	4.91
277.608	4.37
277.986	4.36
278.365	4.38
278.743	4.5
279.122	4.11
279.5	3.83
279.878	3.12
280.257	5.14
280.635	4.23
281.013	4.66
281.391	4.55
281.769	4.21
282.147	4.33
282.525	4.43
282.903	4.58
283.281	4.91
283.659	4.56
284.037	4.53
284.415	4.23
284.792	4.54
285.17	4.22
285.548	3.95
285.925	4.07
286.303	3.89
286.68	4.64
287.058	4.37
287.435	4.02
287.813	4.29
288.19	4.76
288.567	4.33
288.945	4.41
289.322	4.01
289.699	4.35
290.076	4.68
290.453	4.19
290.83	4.51
291.207	4.14
291.584	4.05
291.961	4.24
292.338	4.45
292.715	4.18
293.092	3.92
293.469	4.65
293.845	4.25
294.222	4.19
294.599	4.66
294.975	4.28
295.352	3.95
295.728	4.36
296.105	4.23
296.481	4.88
296.858	4.35
297.234	3.94
297.61	4.48
297.986	4.27
298.363	3.67
298.739	4.36
299.115	3.92
299.491	4.23
299.867	4.09
300.243	4.24
300.619	3.95
300.995	4.28
301.371	4.75
301.746	3.93
302.122	4.5
302.498	3.9
302.874	4.43
303.249	4.47
303.625	4.24
304	3.45
304.376	3.95
304.751	4.22
305.127	4.15
305.502	4.44
305.878	4.2
306.253	3.97
306.628	4.23
307.003	4.18
307.378	4.14
307.754	4.53
308.129	3.93
308.504	3.93
308.879	4.2
309.254	3.63
309.629	4.39
310.003	4.33
310.378	4.04
310.753	4.42
311.128	3.71
311.502	3.87
311.877	4.13
312.252	3.75
312.626	3.89
313.001	3.9
313.375	4.46
313.75	3.76
314.124	4.24
314.498	3.79
314.873	3.95
315.247	3.91
315.621	4.43
315.995	4.15
316.369	4.57
316.743	4.17
317.117	3.92
317.491	4.14
317.865	3.78
318.239	4.36
318.613	4
318.987	4.63
319.361	3.55
319.734	4.16
320.108	4.59
320.482	4.1
320.855	4.08
321.229	4.21
321.602	4.33
321.976	3.88
322.349	3.5
322.723	3.38
323.096	3.87
323.469	4.06
323.843	4.2
324.216	3.67
324.589	4.65
324.962	4.23
325.335	4.07
325.708	4.12
326.081	4.17
326.454	3.83
326.827	3.92
327.2	4.57
327.573	4.05
327.945	3.93
328.318	3.99
328.691	4.08
329.063	3.99
329.436	4.07
329.809	4.08
330.181	4.09
330.553	4.27
330.926	4.06
331.298	3.54
331.671	4.36
332.043	4.22
332.415	4.36
332.787	4.35
333.159	4.32
333.532	4.57
333.904	3.99
334.276	4.2
334.648	3.99
335.02	3.52
335.391	4.39
335.763	3.78
336.135	4.38
336.507	4.67
336.879	4.39
337.25	3.88
337.622	4.32
337.993	4.07
338.365	4.28
338.736	3.88
339.108	4.5
339.479	3.87
339.851	4.44
340.222	4.31
340.593	3.93
340.964	3.92
341.336	3.78
341.707	3.6
342.078	3.64
342.449	4.23
342.82	4.29
343.191	3.59
343.562	4.05
343.933	4.49
344.303	4.01
344.674	4.46
345.045	4.58
345.416	4.29
345.786	3.78
346.157	4.08
346.527	3.95
346.898	4.22
347.268	3.7
347.639	4.31
348.009	4.53
348.38	4.31
348.75	4.05
349.12	4.4
349.49	4.55
349.861	4.31
350.231	4.02
350.601	4.15
350.971	4.22
351.341	4.77
351.711	4.2
352.081	4.36
352.45	4.58
352.82	4.33
353.19	3.7
353.56	4.42
353.929	4.36
354.299	4.48
354.669	4.39
355.038	3.92
355.408	4.75
355.777	4.19
356.147	4.35
356.516	4.47
356.885	4.29
357.254	4.65
357.624	4.27
357.993	4.31
358.362	4.58
358.731	4.32
359.1	4.75
359.469	4.43
359.838	4.39
360.207	4.25
360.576	4.46
360.945	4.23
361.314	4.45
361.682	4.18
362.051	4.07
362.42	4.44
362.788	4.52
363.157	4.32
363.525	4.24
363.894	4.43
364.262	4.25
364.631	5.1
364.999	4.31
365.367	4.76
365.735	3.95
366.104	4.26
366.472	4.74
366.84	4.73
367.208	4
367.576	4.38
367.944	4.52
368.312	4.02
368.68	4.51
369.048	4.27
369.416	4.4
369.783	4.43
370.151	4.4
370.519	3.98
370.886	4.37
371.254	4.31
371.621	4.33
371.989	4.79
372.356	4.53
372.724	4.48
373.091	4.47
373.458	4.38
373.826	4.27
374.193	4.93
374.56	4.44
374.927	4.32
375.294	5.06
375.661	4.6
376.028	4.53
376.395	4.53
376.762	4.56
377.129	4.55
377.496	4.57
377.863	4.64
378.229	4.32
378.596	4.59
378.963	4.43
379.329	4.81
379.696	4.43
380.062	4.48
380.429	4.49
380.795	4.48
381.161	4.54
381.528	3.82
381.894	4.45
382.26	4.52
382.626	4.55
382.993	4.36
383.359	4.55
383.725	4.93
384.091	4.69
384.457	4.64
384.823	4.63
385.188	4.77
385.554	4.5
385.92	4.87
386.286	4.69
386.651	4.82
387.017	4.67
387.383	4.56
387.748	4.73
388.114	4.58
388.479	4.85
388.845	4.77
389.21	4.65
389.575	4.48
389.94	4.67
390.306	4.69
390.671	4.84
391.036	4.74
391.401	5
391.766	4.74
392.131	4.51
392.496	4.73
392.861	4.63
393.226	4.64
393.591	4.65
393.956	5
394.32	4.63
394.685	4.87
395.05	4.52
395.414	4.68
395.779	4.79
396.143	4.61
396.508	4.94
396.872	5.07
397.236	4.58
397.601	4.82
397.965	4.5
398.329	4.81
398.694	4.54
399.058	4.77
399.422	4.99
399.786	4.9
400.15	4.76
400.514	4.9
400.878	4.75
401.242	4.85
401.605	4.55
401.969	4.73
402.333	4.5
402.697	4.77
403.06	5.14
403.424	4.79
403.787	4.88
404.151	4.71
404.514	4.76
404.878	4.8
405.241	4.8
405.604	4.77
405.968	4.97
406.331	4.91
406.694	4.85
407.057	5.03
407.42	4.84
407.783	4.91
408.146	4.7
408.509	4.59
408.872	4.72
409.235	4.72
409.598	4.99
409.961	4.9
410.323	4.71
410.686	4.76
411.049	4.86
411.411	4.89
411.774	4.73
412.136	4.79
412.499	4.63
412.861	4.75
413.223	4.98
413.586	4.8
413.948	4.95
414.31	5.03
414.672	4.9
415.035	5.02
415.397	5.08
415.759	4.94
416.121	5.01
416.483	5.15
416.845	4.87
417.206	5.07
417.568	4.92
417.93	4.79
418.292	4.94
418.653	4.91
419.015	4.99
419.377	4.85
419.738	4.78
420.1	4.77
420.461	4.75
420.822	4.77
421.184	4.82
421.545	4.74
421.906	4.76
422.267	4.67
422.629	4.79
422.99	4.75
423.351	4.87
423.712	4.82
424.073	4.93
424.434	4.77
424.795	4.72
425.155	4.79
425.516	4.75
425.877	4.79
426.238	4.75
426.598	4.83
426.959	4.8
427.32	4.83
427.68	4.97
428.041	4.97
428.401	4.98
428.761	4.87
429.122	4.84
429.482	4.98
429.842	5.03
430.202	5
430.563	4.9
430.923	5.01
431.283	5.1
431.643	5.03
432.003	4.94
432.363	5.09
432.722	4.95
433.082	4.87
433.442	4.89
433.802	5.01
434.161	4.95
434.521	4.94
434.881	4.89
435.24	4.89
435.6	4.88
435.959	4.82
436.319	4.87
436.678	5.12
437.037	4.99
437.396	4.96
437.756	5.02
438.115	4.78
438.474	4.93
438.833	5.06
439.192	5.19
439.551	4.99
439.91	4.95
440.269	5.01
440.628	4.95
440.987	4.84
441.345	4.86
441.704	4.97
442.063	4.84
442.421	4.88
442.78	4.95
443.138	4.99
443.497	4.84
443.855	5.07
444.214	5.06
444.572	4.98
444.93	5.02
445.288	4.98
445.647	4.96
446.005	4.79
446.363	4.98
446.721	4.87
447.079	5
447.437	4.86
447.795	4.91
448.153	4.84
448.51	4.93
448.868	4.93
449.226	5.05
449.584	4.98
449.941	4.98
450.299	4.88
450.656	5
451.014	4.88
451.371	5.18
451.729	4.92
452.086	4.97
452.443	4.93
452.801	5.06
453.158	5.15
453.515	4.9
453.872	5.12
454.229	4.86
454.586	4.85
454.943	4.89
455.3	5.17
455.657	4.92
456.014	5.08
456.371	5.21
456.727	4.98
457.084	4.97
457.441	5.04
457.797	5.07
458.154	5.01
458.51	5.05
458.867	5.03
459.223	5.01
459.58	4.94
459.936	5.04
460.292	4.97
460.648	4.99
461.005	4.9
461.361	4.85
461.717	4.97
462.073	4.92
462.429	4.98
462.785	5.11
463.141	5.14
463.496	4.97
463.852	5.31
464.208	5.15
464.564	5.04
464.919	4.94
465.275	5.02
465.631	5.05
465.986	4.96
466.342	5.18
466.697	5.06
467.052	5.06
467.408	5.07
467.763	4.95
468.118	5.1
468.473	5.3
468.829	5.1
469.184	5.2
469.539	4.93
469.894	5.16
470.249	5.09
470.603	5.09
470.958	5.23
471.313	5.06
471.668	5.1
472.023	5.3
472.377	4.95
472.732	5.1
473.086	4.98
473.441	5.2
473.795	5.33
474.15	5.02
474.504	5.15
474.859	5.03
475.213	5.12
475.567	4.91
475.921	5.13
476.275	5.21
476.63	5.14
476.984	5.05
477.338	5.52
477.692	5.12
478.045	5.05
478.399	5.15
478.753	4.92
479.107	5.1
479.461	5.05
479.814	5.21
480.168	5.08
480.521	4.96
480.875	5.28
481.228	5.19
481.582	5.03
481.935	5.01
482.289	5.07
482.642	5.1
482.995	4.96
483.348	4.91
483.701	5.07
484.055	5
484.408	4.87
484.761	4.77
485.114	4.7
485.466	4.72
485.819	4.74
486.172	4.85
486.525	4.92
486.878	4.93
487.23	4.97
487.583	4.98
487.936	4.98
488.288	4.88
488.641	4.82
488.993	4.79
489.345	4.84
489.698	4.82
490.05	4.88
490.402	4.99
490.754	5.06
491.107	5.05
491.459	5.05
491.811	5.14
492.163	5.1
492.515	4.97
492.866	4.84
493.218	4.83
493.57	4.94
493.922	4.94
494.274	4.99
494.625	5.05
494.977	5
495.328	5.15
495.68	5.21
496.031	5.07
496.383	5.13
496.734	5.25
497.086	4.98
497.437	5.18
497.788	5.08
498.139	5.1
498.49	5.09
498.842	5.06
499.193	5.1
499.544	5.18
499.894	5.1
500.245	5.16
500.596	5.15
500.947	5.02
501.298	5.12
501.648	5.22
501.999	5.12
502.35	5.28
502.7	5.2
503.051	5.17
503.401	5.21
503.752	5.17
504.102	5.07
504.452	5.15
504.803	5.02
505.153	5.2
505.503	5.08
505.853	5.06
506.203	5.02
506.553	5.15
506.903	5.03
507.253	5.26
507.603	5.05
507.953	5.21
508.303	5.11
508.652	5.15
509.002	5.06
509.352	5.04
509.701	5.07
510.051	5.17
510.4	5.1
510.75	5.11
511.099	5.06
511.449	5.17
511.798	5.21
512.147	5.02
512.496	5.2
512.846	5.09
513.195	5.17
513.544	5.06
513.893	4.91
514.242	5.17
514.591	5.14
514.939	5.06
515.288	5.23
515.637	5.12
515.986	5.18
516.334	5.26
516.683	5.14
517.032	5.17
517.38	5.17
517.729	5.09
518.077	5.18
518.426	5.07
518.774	5.06
519.122	4.93
519.47	4.98
519.819	5.06
520.167	4.98
520.515	4.99
520.863	4.97
521.211	5.04
521.559	5.07
521.907	5.07
522.255	5.18
522.602	5.16
522.95	5.11
523.298	5.13
523.645	5.09
523.993	5.18
524.341	5.01
524.688	5.01
525.036	5.21
525.383	5.16
525.73	5.15
526.078	5.15
526.425	4.98
526.772	4.88
527.119	4.94
527.466	4.99
527.814	4.96
528.161	5.02
528.508	5.02
528.854	4.96
529.201	4.94
529.548	4.84
529.895	4.77
530.242	4.75
530.588	4.84
530.935	4.87
531.282	4.92
531.628	4.93
531.975	5.06
532.321	5.06
532.667	4.96
533.014	5.12
533.36	4.96
533.706	5
534.052	4.96
534.399	4.85
534.745	4.8
535.091	4.84
535.437	4.88
535.783	4.99
536.129	4.97
536.474	5.06
536.82	5.01
537.166	5.02
537.512	5.05
537.857	4.98
538.203	4.99
538.549	4.99
538.894	5.05
539.239	5.06
539.585	5.1
539.93	5.11
540.276	5.04
540.621	5.01
540.966	5.05
541.311	5.05
541.656	4.88
542.001	5.04
542.346	4.86
542.691	4.78
543.036	4.78
543.381	4.91
543.726	4.98
544.071	4.98
544.415	4.94
544.76	4.97
545.105	4.94
545.449	4.98
545.794	5.05
546.138	5.07
546.483	5
546.827	5.06
547.171	4.99
547.516	5.05
547.86	5.06
548.204	4.95
548.548	5.07
548.892	5.03
549.236	5.08
549.58	5.15
549.924	5.14
550.268	5.2
550.612	5.13
550.956	5.02
551.3	5.14
551.643	5.18
551.987	5.15
552.33	5.13
552.674	5.28
553.017	5.14
553.361	5.1
553.704	4.99
554.048	5.09
554.391	5.03
554.734	4.98
555.077	5.08
555.42	5.05
555.764	5.19
556.107	5.24
556.45	5.1
556.793	5.34
557.135	5.24
557.478	5.23
557.821	5.05
558.164	5.25
558.507	5.21
558.849	5.03
559.192	5.21
559.534	5.01
559.877	5.21
560.219	5.29
560.562	5.1
560.904	5.12
561.246	5.33
561.589	5.22
561.931	5.33
562.273	5.12
562.615	5.13
562.957	5.09
563.299	5.03
563.641	5.19
563.983	5.28
564.325	5.05
564.667	5.21
565.008	5.06
565.35	5.35
565.692	5.16
566.033	5.23
566.375	4.84
566.716	5.05
567.058	5.11
567.399	5.04
567.741	5.07
568.082	4.95
568.423	4.99
568.764	5.13
569.105	5.01
569.447	5.17
569.788	5.12
570.129	5.12
570.47	5.25
570.811	5.04
571.151	5.12
571.492	5.2
571.833	5.1
572.174	5.06
572.514	4.95
572.855	5.1
573.195	4.91
573.536	5.01
573.876	4.98
574.217	4.95
574.557	5.2
574.898	5.02
575.238	4.89
575.578	5.3
575.918	4.97
576.258	4.97
576.598	5.01
576.938	5.1
577.278	5.09
577.618	5.05
577.958	4.97
578.298	5.16
578.638	5.2
578.977	5.19
579.317	5.2
579.657	4.95
579.996	5.19
580.336	5.18
580.675	5.21
581.014	5.2
581.354	5.37
581.693	5.18
582.032	5.1
582.372	5.05
582.711	5.1
583.05	5.56
583.389	5.03
583.728	5.43
584.067	5.25
584.406	5.36
584.745	5.13
585.083	5.44
585.422	5.18
585.761	5.3
586.1	5.31
586.438	5.16
586.777	4.88
587.115	5.18
587.454	5.15
587.792	4.98
588.13	5.43
588.469	5.38
588.807	5.4
589.145	5.43
589.483	5.05
589.821	5.2
590.159	5.04
590.497	5.02
590.835	5.27
591.173	5.15
591.511	5.16
591.849	5.16
592.187	5.21
592.524	5.15
592.862	5.36
593.2	4.9
593.537	5.11
593.875	5.3
594.212	5.11
594.55	5.11
594.887	5.36
595.224	5.04
595.561	4.98
595.899	5.01
596.236	5.14
596.573	5.18
596.91	5.07
597.247	5.15
597.584	5.11
597.921	4.92
598.258	5.02
598.594	4.89
598.931	4.97
599.268	5.04
599.604	5.19
599.941	4.96
600.277	5.13
600.614	5.22
600.95	5.03
601.287	5.36
601.623	5.15
601.959	4.87
602.296	5.05
602.632	5.36
602.968	5.22
603.304	5.14
603.64	5.01
603.976	5
604.312	5.37
604.648	5.1
604.984	5.03
605.319	4.93
605.655	5.08
605.991	5.01
606.326	4.92
606.662	4.92
606.998	4.94
607.333	5.12
607.668	5.09
608.004	5.12
608.339	5.18
608.674	5.15
609.01	5.11
609.345	5.2
609.68	4.99
610.015	5.12
610.35	5.14
610.685	5.22
611.02	5.15
611.355	5.16
611.689	5.04
612.024	5.3
612.359	5.25
612.694	5.25
613.028	5.41
613.363	5.09
613.697	5.29
614.032	5.29
614.366	5.3
614.7	5.56
615.035	5.04
615.369	5.33
615.703	5.3
616.037	5.31
616.371	5.08
616.705	5.35
617.039	5.33
617.373	5.25
617.707	4.85
618.041	5.2
618.375	5.2
618.709	5.24
619.042	5.05
619.376	5.24
619.71	4.99
620.043	4.97
620.377	5.28
620.71	5.21
621.043	5.19
621.377	5.07
621.71	5.3
622.043	5.12
622.376	4.88
622.709	5.42
623.043	5.01
623.376	5.28
623.709	5.21
624.041	5.2
624.374	5.07
624.707	5.22
625.04	5.13
625.373	4.99
625.705	5.48
626.038	5.23
626.37	5.13
626.703	4.91
627.035	5.38
627.368	5.34
627.7	5.19
628.032	5.2
628.365	5.25
628.697	5.05
629.029	5.36
629.361	5.04
629.693	5.48
630.025	5.37
630.357	5.15
630.689	5.53
631.021	5.17
631.353	5.32
631.684	5.02
632.016	5.08
632.348	5.36
632.679	5.13
633.011	5.15
633.342	5.33
633.674	5.44
634.005	5.29
634.336	5.11
634.668	5.22
634.999	5.1
635.33	5.22
635.661	5.34
635.992	5.34
636.323	5.06
636.654	5.43
636.985	5.26
637.316	5.35
637.647	5.38
637.977	5.38
638.308	4.7
638.639	5.02
638.969	5.19
639.3	5.07
639.63	5.27
639.961	5.17
640.291	5.66
640.622	5.58
640.952	5.2
641.282	4.99
641.612	5.09
641.943	5.46
642.273	5.32
642.603	5.34
642.933	5.28
643.263	5.57
643.592	5.14
643.922	5.5
644.252	5.55
644.582	5.14
644.911	5.14
645.241	5.2
645.571	5.21
645.9	5.96
646.23	5.16
646.559	5.37
646.888	5.2
647.218	5.64
647.547	5.35
647.876	5.31
648.205	5.3
648.534	5.2
648.863	5.39
649.192	5.19
649.521	5.18
649.85	5.88
650.179	4.87
650.508	5.55
650.837	5.24
651.165	5.24
651.494	5.24
651.822	5.33
652.151	5.68
652.479	5.78
652.808	4.87
653.136	4.84
653.465	5.46
653.793	5.31
654.121	5.3
654.449	4.98
654.777	5.03
655.105	5.4
655.433	5.65
655.761	4.83
656.089	5.44
656.417	5.23
656.745	5.97
657.073	5.58
657.4	5.51
657.728	5.06
658.056	5.41
658.383	5.52
658.711	5.01
659.038	6.03
659.365	5.61
659.693	5.34
660.02	5.37
660.347	5.29
660.674	5.06
661.001	4.96
661.329	5.12
661.656	5.5
661.982	5.68
662.309	5.34
662.636	5.1
662.963	5.5
663.29	5.42
663.616	5.4
663.943	5.65
664.27	5.39
664.596	5.34
664.923	5.74
665.249	5.52
665.576	5.16
665.902	5.33
666.228	5.61
666.554	5.04
666.881	5.74
667.207	4.96
667.533	5.39
667.859	4.86
668.185	5.55
668.511	5.27
668.837	4.84
669.162	5.45
669.488	5.6
669.814	5.91
670.139	5.9
670.465	5.63
670.791	5.4
671.116	5.35
671.442	5.42
671.767	4.98
672.092	5.32
672.418	5.7
672.743	5.56
673.068	5.2
673.393	5.27
673.718	4.83
674.043	5.57
674.368	6.09
674.693	5.17
675.018	5.66
675.343	5.54
675.667	5.27
675.992	4.8
676.317	5.86
676.641	5.37
676.966	5.67
677.29	5.16
677.615	5.23
677.939	5.76
678.264	5.75
678.588	6.32
678.912	5.92
679.236	6.14
679.56	5.33
679.885	5.86
680.209	5.19
680.532	5.2
680.856	5.84
681.18	5.94
681.504	4.82
681.828	4.87
682.152	5.3
682.475	5.52
682.799	5.59
683.122	4.96
683.446	5.07
683.769	5.54
684.093	5.28
684.416	5.25
684.739	5.78
685.062	5.42
685.386	5.45
685.709	5.6
686.032	6.07
686.355	5.64
686.678	5.54
687.001	4.71
687.324	5.01
687.646	5.53
687.969	5.7
688.292	6.02
688.614	5.81
688.937	5.35
689.26	4.91
689.582	5.46
689.904	5.8
690.227	5.59
690.549	6.64
690.871	6.09
691.194	5.68
691.516	5.51
691.838	5.63
692.16	5.88
692.482	6.26
692.804	5.34
693.126	5.66
693.448	5.39
693.769	5.35
694.091	6.28
694.413	5.59
694.735	5.47
695.056	5.96
695.378	5.39
695.699	6.66
696.021	5.95
696.342	5.18
696.663	5.92
696.984	5.73
697.306	6.05
697.627	6.07
697.948	5.24
698.269	5.61
698.59	6.14
698.911	5.31
699.232	6.38
699.553	5.91
699.873	5.4
700.194	5.39
700.515	5.36
700.835	5.57
701.156	5.71
701.477	5.41
701.797	6.02
702.117	5.78
702.438	6.38
702.758	6.12
703.078	5.96
703.398	5.98
703.719	5.79
704.039	5.85
704.359	5.86
704.679	5.49
704.999	5.02
705.319	5.6
705.638	5.71
705.958	6.15
706.278	5.78
706.597	6.51
706.917	5.84
707.237	5.55
707.556	5.89
707.876	5.49
708.195	5.04
708.514	5.8
708.834	5.91
709.153	5.41
709.472	6.18
709.791	6.08
710.11	5.33
710.429	5.24
710.748	6.01
711.067	6.17
711.386	7.03
711.705	4.98
712.023	5.88
712.342	5.05
712.661	6.27
712.979	6.43
713.298	6.5
713.616	6.23
713.935	6.22
714.253	6.31
714.572	5.8
714.89	5.61
715.208	6.87
715.526	7.02
715.844	6.74
716.162	5.9
716.48	4.98
716.798	5.84
717.116	6.71
717.434	6.88
717.752	4.98
718.069	5.47
718.387	5.86
718.705	6.05
719.022	6.91
719.34	6.36
719.657	6.19
719.975	5.6
720.292	6.4
720.609	5.66
720.927	7.01
721.244	5.1
721.561	6.1
721.878	6.27
722.195	6.64
722.512	6.42
722.829	6.44
723.146	5.98
723.463	6.09
723.779	5.24
724.096	5.76
724.413	5.66
724.729	6.87
725.046	6.32
725.362	4.65
725.679	6.21
725.995	6.46
726.311	6.21
726.628	5.27
726.944	7.14
727.26	4.96
727.576	6.36
727.892	5.97
728.208	5.64
728.524	5.83
728.84	5.82
729.156	7.12
729.472	7.19
729.787	6.25
730.103	5.98
730.419	6.56
730.734	5.96
731.05	6
731.365	6.41
731.681	4.87
731.996	5.44
732.311	6.14
732.626	6.65
732.942	6.85
733.257	5.86
733.572	6.28
733.887	6.35
734.202	6.37
734.517	5.74
734.832	6.06
735.146	6.42
735.461	5.99
735.776	6.46
736.091	6.65
736.405	7
736.72	7.11
737.034	5.36
737.349	4.6
737.663	6.62
737.977	6.87
738.292	6.08
738.606	7.19
738.92	6.12
739.234	7
739.548	7.58
739.862	6.53
740.176	5.23
740.49	7.6
740.804	6.64
741.117	5.67
741.431	6.46
741.745	6.83
742.058	6.45
742.372	6.13
742.685	5.18
742.999	7.08
743.312	5.96
743.626	5.18
743.939	5.84
744.252	5.92
744.565	5.63
744.878	7.51
745.191	5.67
745.505	6.29
745.817	6.31
746.13	7.16
746.443	7.89
746.756	4.69
747.069	6.39
747.381	6.24
747.694	4.39
748.007	8.1
748.319	6.42
748.632	7.01
748.944	6.89
749.256	7.81
749.569	6.37
749.881	6.98
750.193	7.35
750.505	6.94
750.817	6.98
751.129	7.74
751.441	6.39
751.753	7.46
752.065	5.86
752.377	5.81
752.689	8.92
753	4.82
753.312	6.24
753.624	5.64
753.935	6.51
754.247	7.67
754.558	6.37
754.869	7.37
755.181	6.19
755.492	7.93
755.803	5.23
756.114	6.62
756.425	5.8
756.736	6.6
757.047	7.33
757.358	5.86
757.669	8.72
757.98	4.9
758.291	8.17
758.601	6.24
758.912	6.47
759.223	9.02
759.533	8.46
759.844	7.1
760.154	7.13
760.464	8.21
760.775	8.64
761.085	6.46
761.395	5.97
761.705	7.76
762.016	7.06
762.326	7.44
762.636	7.8
762.945	7.63
763.255	7.54
763.565	5.26
763.875	5.62
764.185	8.27
764.494	5.74
764.804	7.41
765.113	6.94
765.423	6.55
765.732	7.19
766.042	8.48
766.351	6.3
766.66	7.88
766.97	6.97
767.279	8.8
767.588	7.32
767.897	7.95
768.206	6
768.515	6.5
768.824	6.98
769.133	7.61
769.441	8.03
769.75	5.59
770.059	6.79
770.367	5.37
770.676	5.39
770.984	8.71
771.293	8.36
771.601	6.64
771.91	6.39
772.218	6.13
772.526	7.39
772.834	8.92
773.142	5.79
773.45	5.66
773.758	5.02
774.066	4.02
774.374	3.81
774.682	4.96
774.99	6.2
775.298	8.12
775.605	5.74
775.913	5.59
776.22	7.43
776.528	6.91
776.835	9.63
777.143	9.2
777.45	10.09
777.757	3.25
778.065	7.11
778.372	5.29
778.679	8.35
778.986	5.38
779.293	6.36
779.6	5.9
779.907	3.16
780.214	7.36
780.52	9.25
780.827	6.99
781.134	8.47
781.44	4.16
781.747	7.47
782.053	9.34
782.36	8.82
782.666	5.98
782.973	5.53
783.279	9.82
783.585	6.53
783.891	6.02
784.197	7.22
784.503	9.74
784.809	8.92
785.115	4.84
785.421	8.12
785.727	6.43
786.033	5.74
786.339	9.22
786.644	4.69
786.95	10.38
787.255	4.97
787.561	9.2
787.866	4.27
788.172	8.26
788.477	4.74
788.782	3.19
789.088	11.57
789.393	6.82
789.698	3.93
790.003	7.27
790.308	7.82
790.613	7.91
790.918	9.22
791.223	8.92
791.527	9.24
791.832	10.24
792.137	11
792.441	10.48
792.746	11.35
793.05	12.04
793.355	7.01
793.659	6.39
793.963	9.74
794.268	4.19
794.572	15.65
794.876	8.52
795.18	6.72
795.484	5.29
795.788	7.55
796.092	11.23
796.396	8.56
796.7	11.39
797.004	12.42
797.307	4.79
797.611	6.37
797.915	5.82
798.218	10.04
798.522	5.22
798.825	10.38
799.128	8.9
799.432	6.63
799.735	4.54
800.038	4.76
800.341	2.43
800.644	11.19
800.947	9.71
801.25	6.81
801.553	7.29
801.856	7.26
802.159	7.49
802.462	7.96
802.764	6.37
803.067	6.67
803.37	10.42
803.672	7.69
803.975	9.28
804.277	10.48
804.579	9.26
804.882	8.2
805.184	9.87
805.486	5.62
805.788	11.87
806.09	5.61
806.392	7.07
806.694	9.79
806.996	8.81
807.298	8.29
807.6	5.31
807.902	7.03
808.203	7.86
808.505	5.3
808.807	15.08
809.108	8.72
809.409	11.06
809.711	7.74
810.012	7.94
810.313	8.57
810.615	7.83
810.916	8.45
811.217	11.5
811.518	16.16
811.819	1.89
812.12	10.66
812.421	6.68
812.722	7.67
813.023	5.93
813.323	10.77
813.624	13.17
813.925	8.43
814.225	10.49
814.526	11.72
814.826	11.11
815.126	8.48
815.427	8.86
815.727	13.39
816.027	10.86
816.327	0.49
816.627	2.76
816.927	9.42
817.227	10.53
817.527	9.08
817.827	9.52
818.127	9.56
818.427	3.93
818.727	7.41
819.026	6.49
819.326	14.47
819.625	6.44
819.925	9.12
820.224	4.14
820.524	10.82
820.823	5.68
821.122	5.77
821.421	5.84
821.72	8.85
822.019	5.65
822.318	11.16
822.617	9.81
822.916	7.45
823.215	6.61
823.514	6.92
823.813	9.37
824.111	8.01
824.41	8.57
824.709	9.74
825.007	8.88
825.306	9.77
825.604	9.76
825.902	8.89
826.201	8.52
826.499	9.03
826.797	8.36
827.095	6.18
827.393	10.32
827.691	10.66
827.989	10.96
828.287	10.55
828.585	8.93
828.882	8.96
829.18	6.93
829.478	8.98
829.775	9.51
830.073	10.65
830.37	8.13
830.668	8.04
830.965	6.25
831.263	7.29
831.56	9.99
831.857	12.11
832.154	10.6
832.451	10.89
832.748	8.47
833.045	13.35
833.342	9.98
833.639	6.99
833.936	9.34
834.232	8.32
834.529	10.2
834.826	9.59
835.122	8.22
835.419	5.59
835.715	6.1
836.012	9.75
836.308	12.83
836.604	8.74
836.901	17.5
837.197	13.63
837.493	10.15
837.789	9.26
838.085	5.22
838.381	7.83
838.677	7.68
838.972	9.99
839.268	6.83
839.564	14.26
839.86	10.14
840.155	4.27
840.451	11.29
840.746	10
841.042	-1.33
841.337	8.81
841.632	10.77
841.928	20.72
842.223	7.8
842.518	21.27
842.813	6.26
843.108	11.2
843.403	15.18
843.698	2.77
843.993	8.04
844.287	13.66
844.582	18.38
844.877	12.91
845.171	11.51
845.466	8.34
845.761	8.64
846.055	14.33
846.349	-10.45
846.644	11.95
846.938	7.51
847.232	-7.34
847.526	1.19
847.82	2.43
848.114	23.06
848.408	34.59
848.702	12.21
848.996	10.76
849.29	14.23
849.584	0.73
849.877	23.14
850.171	0.55
850.465	-10.53
850.758	16.18
851.052	4.02
851.345	13.67
851.638	16.57
851.932	3.05
852.225	-6.11
852.518	8.62
852.811	13.22
853.104	1.46
853.397	17.95
853.69	14.18
853.983	1.52
854.276	33.27
854.569	9.48
854.861	14.8
855.154	19.62
855.447	-0.14
855.739	4.31
856.032	-4.67
856.324	-6.11
856.616	20.81
856.909	24.24
857.201	18.75
857.493	10.08
857.785	21.3
858.077	1.61
858.369	14.07
858.661	41.39
858.953	-5.22
859.245	31.73
859.537	15.71
859.829	13.54
860.12	27.01
860.412	1.34
860.703	8.55
860.995	3.15
861.286	16.25
861.578	-18.58
861.869	19.12
862.16	1.89
862.452	7.51
862.743	10.68
863.034	14.4
863.325	32.58
863.616	20.42
863.907	17.89
864.198	29.09
864.488	-2.73
864.779	1.5
865.07	28.36
865.36	0.51
865.651	8.43
865.941	5.02
866.232	9.26
866.522	8.74
866.813	48.06
867.103	6.99
867.393	-8.95
867.683	8.57
867.973	-3.46
868.263	9.21
868.553	13.06
868.843	-13.29
869.133	21.17
869.423	34.77
869.713	7.27
870.002	-14.73
870.292	16.93
870.582	17.84
870.871	18.31
871.161	-25.11
871.45	15.38
871.739	-47.01
872.029	6.5
872.318	5.24
872.607	10.33
872.896	16.48
873.185	22.89
873.474	11.05
873.763	20.58
874.052	11.05
874.341	-25.56
874.63	19.49
874.918	10.85
875.207	7.41
875.496	18.6
875.784	-3.44
876.073	-5.86
876.361	8.94
876.649	28.68
876.938	23.05
877.226	1.49
877.514	13.37
877.802	27.19
878.09	-10.87
878.378	32.94
878.666	6.23
878.954	0.43
879.242	37.69
879.53	-5.26
879.817	21.77
880.105	-22.76
880.392	-2.94
880.68	1.52
880.967	24
881.255	-17.43
881.542	36.18
881.83	-4.75
882.117	7.01
882.404	12.13
882.691	14.25
882.978	-9.45
883.265	26.75
883.552	5.97
883.839	11.98
884.126	3.38
884.413	7.13
884.699	19.99
884.986	8.12
885.273	5
885.559	5
885.846	5
