Data from 0054_crown_Reflection__0__05.txt Node

Date: Fri Dec 16 13:51:36 CST 2022
User: ToomeyLab
Spectrometer: FLMS14357
Trigger mode: 0
Integration Time (sec): 1.000000E-2
Scans to average: 100
Electric dark correction enabled: true
Nonlinearity correction enabled: false
Boxcar width: 0
XAxis mode: Wavelengths
Number of Pixels in Spectrum: 2048
>>>>>Begin Spectral Data<<<<<
189.047	318.23
189.435	318.23
189.823	318.23
190.211	52.66
190.599	-25.4
190.987	101.25
191.375	-82.99
191.763	-128.42
192.151	70.67
192.538	-26.2
192.926	374.68
193.314	64.97
193.702	-179.83
194.089	183.72
194.477	-16.68
194.864	308.57
195.252	1
195.639	56.68
196.027	-106.2
196.414	225.65
196.801	191.98
197.189	53.73
197.576	16.73
197.963	41.46
198.351	-28.72
198.738	-22.46
199.125	17.97
199.512	2.12
199.899	40.17
200.286	-63.08
200.673	-2.42
201.06	14.45
201.447	18.71
201.833	-22.79
202.22	19.98
202.607	6.69
202.994	37
203.38	-4.82
203.767	-36.7
204.154	-88.57
204.54	19.41
204.927	8.82
205.313	46.38
205.699	1.46
206.086	-12.62
206.472	-29.93
206.858	26.27
207.245	12.33
207.631	-15.99
208.017	38.34
208.403	15.37
208.789	-8.1
209.175	42.61
209.561	-5.37
209.947	-10.57
210.333	-15.89
210.719	55.34
211.105	8.37
211.491	13.11
211.876	15.95
212.262	-17.44
212.648	-50.34
213.034	-16.76
213.419	31.23
213.805	7.08
214.19	14.59
214.576	8.85
214.961	6.72
215.346	-8.61
215.732	8.57
216.117	0.23
216.502	15.84
216.888	-3.43
217.273	18.88
217.658	22.18
218.043	13.27
218.428	9.39
218.813	-10.02
219.198	-37.9
219.583	5.11
219.968	12.17
220.353	21.04
220.738	10.49
221.122	-6.42
221.507	-11.72
221.892	7.37
222.276	-2.3
222.661	4.99
223.046	11.62
223.43	7.25
223.815	0.75
224.199	15.57
224.583	10.49
224.968	11.99
225.352	8.24
225.736	13.11
226.121	-0.11
226.505	5.51
226.889	6.5
227.273	9.1
227.657	3.06
228.041	1.53
228.425	4.43
228.809	5.18
229.193	3.46
229.577	4.62
229.961	5.16
230.344	5.07
230.728	5.6
231.112	5.62
231.495	5.07
231.879	4.72
232.263	4.16
232.646	4.11
233.03	3.05
233.413	4.25
233.797	6.56
234.18	5.18
234.563	3.39
234.946	4.55
235.33	5.77
235.713	5.24
236.096	4.55
236.479	4.84
236.862	5.98
237.245	5.27
237.628	4.87
238.011	5.89
238.394	6.64
238.777	4.53
239.16	2.63
239.543	4.8
239.925	5.27
240.308	6.8
240.691	5.74
241.073	5.54
241.456	5.18
241.838	4.8
242.221	5.29
242.603	5.13
242.986	5.85
243.368	4.85
243.75	4.86
244.133	4.56
244.515	5.11
244.897	4.9
245.279	4.63
245.661	3.73
246.043	4.48
246.425	4.62
246.807	5.28
247.189	4.74
247.571	4.95
247.953	4.72
248.335	5.05
248.717	4.74
249.098	4.84
249.48	4.39
249.862	4.74
250.243	4.65
250.625	4.45
251.006	4.86
251.388	4.52
251.769	5.05
252.151	4
252.532	4.78
252.913	4.07
253.295	4.54
253.676	4.71
254.057	4.2
254.438	4.68
254.819	4.32
255.2	4.2
255.581	4.37
255.962	4.25
256.343	5.43
256.724	4.03
257.105	5.12
257.486	4.47
257.867	2.88
258.247	4.35
258.628	4.78
259.009	4.7
259.389	5.11
259.77	3.65
260.15	5.29
260.531	4.58
260.911	4.37
261.292	4.29
261.672	4.29
262.052	4.28
262.432	4.63
262.813	4.48
263.193	4.33
263.573	4.16
263.953	3.92
264.333	3.82
264.713	3.74
265.093	4.33
265.473	4.94
265.853	4.67
266.233	3.69
266.612	4.61
266.992	3.78
267.372	3.75
267.752	4.26
268.131	4.58
268.511	4.32
268.89	4.52
269.27	4.23
269.649	4.21
270.029	4.26
270.408	4.13
270.787	3.9
271.167	4.66
271.546	3.53
271.925	4.51
272.304	4.33
272.683	4.3
273.062	4.53
273.441	4.1
273.82	4.56
274.199	4.32
274.578	3.68
274.957	3.97
275.336	3.79
275.715	4.64
276.093	4.47
276.472	4.36
276.851	4.3
277.229	4.45
277.608	3.6
277.986	3.56
278.365	3.89
278.743	4.39
279.122	3.79
279.5	3.96
279.878	3.4
280.257	4.31
280.635	3.79
281.013	4.5
281.391	4.02
281.769	4.29
282.147	3.93
282.525	3.94
282.903	3.84
283.281	4.2
283.659	4.23
284.037	3.93
284.415	4.07
284.792	4.11
285.17	3.55
285.548	3.96
285.925	3.54
286.303	3.8
286.68	4.13
287.058	3.98
287.435	3.62
287.813	3.64
288.19	4.04
288.567	3.67
288.945	4.01
289.322	3.78
289.699	3.61
290.076	3.81
290.453	3.83
290.83	4.18
291.207	3.79
291.584	3.91
291.961	4.03
292.338	3.99
292.715	3.9
293.092	3.65
293.469	3.59
293.845	4.21
294.222	3.95
294.599	3.99
294.975	3.73
295.352	3.33
295.728	3.94
296.105	3.88
296.481	4.11
296.858	3.72
297.234	3.73
297.61	4
297.986	3.73
298.363	3.25
298.739	3.58
299.115	3.4
299.491	3.7
299.867	3.78
300.243	3.61
300.619	3.43
300.995	3.78
301.371	4.18
301.746	3.84
302.122	3.61
302.498	3.62
302.874	3.78
303.249	3.7
303.625	3.64
304	3.51
304.376	3.93
304.751	3.65
305.127	3.69
305.502	3.7
305.878	3.65
306.253	3.52
306.628	3.69
307.003	3.45
307.378	3.55
307.754	4.02
308.129	3.24
308.504	3.54
308.879	3.59
309.254	3.73
309.629	3.45
310.003	3.93
310.378	3.92
310.753	3.6
311.128	3.77
311.502	3.74
311.877	3.52
312.252	3.45
312.626	3.41
313.001	3.35
313.375	3.44
313.75	3.49
314.124	4.15
314.498	3.32
314.873	3.6
315.247	3.39
315.621	3.83
315.995	3.69
316.369	3.65
316.743	4.22
317.117	4.08
317.491	3.8
317.865	3.24
318.239	3.59
318.613	3.92
318.987	3.45
319.361	3.47
319.734	3.54
320.108	3.46
320.482	3.66
320.855	3.9
321.229	3.76
321.602	3.66
321.976	3.57
322.349	3.23
322.723	2.53
323.096	3.43
323.469	3.48
323.843	3.28
324.216	2.87
324.589	3.95
324.962	3.38
325.335	3.61
325.708	3.85
326.081	3.69
326.454	3.32
326.827	3.67
327.2	3.94
327.573	3.44
327.945	3.67
328.318	3.81
328.691	3.33
329.063	3.61
329.436	3.66
329.809	3.29
330.181	3.48
330.553	4.16
330.926	3.38
331.298	3.54
331.671	3.12
332.043	3.35
332.415	4.05
332.787	3.72
333.159	3.59
333.532	3.24
333.904	3.33
334.276	3.39
334.648	3.79
335.02	2.62
335.391	3.56
335.763	3.29
336.135	3.49
336.507	3.61
336.879	3.4
337.25	3.65
337.622	3.55
337.993	3.63
338.365	4.09
338.736	3.74
339.108	3.09
339.479	3.62
339.851	3.54
340.222	3.64
340.593	3.23
340.964	3.26
341.336	3.57
341.707	3.44
342.078	3.32
342.449	3.63
342.82	3.69
343.191	3.29
343.562	3.61
343.933	3.51
344.303	3.78
344.674	3.62
345.045	3.82
345.416	3.5
345.786	2.95
346.157	3.7
346.527	3.21
346.898	3.98
347.268	3.34
347.639	3.62
348.009	3.81
348.38	3.42
348.75	3.81
349.12	3.57
349.49	3.12
349.861	4
350.231	3.58
350.601	3.32
350.971	3.42
351.341	3.39
351.711	3.25
352.081	3.77
352.45	3.6
352.82	3.81
353.19	3.77
353.56	3.42
353.929	3.63
354.299	3.52
354.669	3.73
355.038	3.69
355.408	3.83
355.777	3.63
356.147	4.01
356.516	3.78
356.885	3.51
357.254	3.8
357.624	3.75
357.993	3.59
358.362	3.63
358.731	3.54
359.1	3.74
359.469	3.44
359.838	3.48
360.207	3.41
360.576	3.51
360.945	3.59
361.314	3.82
361.682	3.39
362.051	3.39
362.42	3.81
362.788	3.6
363.157	3.38
363.525	3.49
363.894	3.4
364.262	3.48
364.631	3.88
364.999	3.58
365.367	4.03
365.735	3.51
366.104	3.45
366.472	3.73
366.84	3.65
367.208	3.44
367.576	3.77
367.944	3.88
368.312	3.48
368.68	3.72
369.048	3.85
369.416	3.72
369.783	3.48
370.151	3.76
370.519	3.44
370.886	3.64
371.254	3.9
371.621	3.52
371.989	3.86
372.356	3.64
372.724	3.53
373.091	3.71
373.458	3.62
373.826	3.28
374.193	3.91
374.56	3.7
374.927	3.8
375.294	4.08
375.661	3.77
376.028	3.73
376.395	3.54
376.762	4.02
377.129	3.75
377.496	3.85
377.863	3.75
378.229	3.49
378.596	3.87
378.963	3.71
379.329	3.7
379.696	3.65
380.062	4.17
380.429	3.77
380.795	3.81
381.161	3.58
381.528	3.5
381.894	4.02
382.26	3.45
382.626	3.53
382.993	3.49
383.359	3.67
383.725	3.94
384.091	4.02
384.457	3.93
384.823	3.81
385.188	3.86
385.554	3.94
385.92	3.93
386.286	4.09
386.651	3.56
387.017	3.9
387.383	3.88
387.748	3.45
388.114	3.81
388.479	3.93
388.845	3.86
389.21	4.1
389.575	3.9
389.94	3.81
390.306	4.14
390.671	3.86
391.036	3.75
391.401	4.06
391.766	3.93
392.131	3.87
392.496	3.73
392.861	3.62
393.226	3.86
393.591	4.13
393.956	4.02
394.32	3.87
394.685	3.89
395.05	3.64
395.414	3.77
395.779	3.87
396.143	3.9
396.508	3.92
396.872	4.04
397.236	3.84
397.601	4.06
397.965	3.7
398.329	3.95
398.694	3.8
399.058	3.76
399.422	3.83
399.786	3.95
400.15	3.85
400.514	3.8
400.878	3.84
401.242	3.76
401.605	3.88
401.969	3.81
402.333	3.76
402.697	4.14
403.06	4.17
403.424	3.6
403.787	3.86
404.151	3.85
404.514	4.14
404.878	3.88
405.241	3.91
405.604	4.03
405.968	3.83
406.331	4.07
406.694	4
407.057	4.11
407.42	4.03
407.783	3.77
408.146	3.86
408.509	3.73
408.872	3.67
409.235	3.96
409.598	4.39
409.961	3.76
410.323	3.79
410.686	3.97
411.049	3.84
411.411	3.87
411.774	3.97
412.136	4.1
412.499	3.92
412.861	3.95
413.223	4.22
413.586	3.91
413.948	3.96
414.31	4.05
414.672	3.84
415.035	4.24
415.397	4.15
415.759	4.02
416.121	4.21
416.483	4.27
416.845	4.02
417.206	4.09
417.568	4.09
417.93	3.91
418.292	4.16
418.653	3.94
419.015	4.03
419.377	4
419.738	3.94
420.1	4.08
420.461	3.89
420.822	4.06
421.184	4.05
421.545	4.04
421.906	4.02
422.267	3.8
422.629	3.99
422.99	3.95
423.351	3.96
423.712	3.94
424.073	4.11
424.434	3.94
424.795	3.98
425.155	4.07
425.516	3.95
425.877	4.05
426.238	3.92
426.598	4.01
426.959	3.94
427.32	4.09
427.68	4.04
428.041	4.17
428.401	3.96
428.761	4.02
429.122	4
429.482	3.99
429.842	4.23
430.202	4.06
430.563	4.04
430.923	3.95
431.283	4.07
431.643	4.13
432.003	4.12
432.363	4.14
432.722	4.06
433.082	4.14
433.442	4.06
433.802	4.22
434.161	4.01
434.521	4.22
434.881	4.2
435.24	4.03
435.6	4.04
435.959	3.98
436.319	4.05
436.678	4.13
437.037	4.15
437.396	4.23
437.756	4.01
438.115	4.08
438.474	4.13
438.833	4.35
439.192	4.12
439.551	4.11
439.91	4.24
440.269	4.35
440.628	4.27
440.987	4.07
441.345	4.14
441.704	4.11
442.063	4.17
442.421	4.11
442.78	4.06
443.138	4.12
443.497	4.04
443.855	4.22
444.214	4.25
444.572	4.01
444.93	4.15
445.288	4.2
445.647	4.35
446.005	4.14
446.363	4
446.721	3.96
447.079	4.11
447.437	4.14
447.795	4.12
448.153	4.14
448.51	4
448.868	4.15
449.226	4.21
449.584	4.23
449.941	4.18
450.299	4.14
450.656	4.16
451.014	4.13
451.371	4.23
451.729	4.22
452.086	4.09
452.443	4.1
452.801	4.19
453.158	4.14
453.515	4.12
453.872	4.27
454.229	4.14
454.586	4.11
454.943	4.22
455.3	4.32
455.657	4.2
456.014	4.36
456.371	4.41
456.727	4.14
457.084	4.2
457.441	4.03
457.797	4.26
458.154	4.19
458.51	4.13
458.867	4.14
459.223	4.35
459.58	4.28
459.936	4.15
460.292	4.42
460.648	4.23
461.005	4.12
461.361	4.16
461.717	4.14
462.073	4.24
462.429	4.18
462.785	4.29
463.141	4.42
463.496	4.26
463.852	4.43
464.208	4.25
464.564	4.29
464.919	4.32
465.275	4.26
465.631	4.33
465.986	4.22
466.342	4.24
466.697	4.22
467.052	4.28
467.408	4.34
467.763	4.3
468.118	4.28
468.473	4.47
468.829	4.27
469.184	4.4
469.539	4.28
469.894	4.27
470.249	4.32
470.603	4.35
470.958	4.52
471.313	4.15
471.668	4.4
472.023	4.5
472.377	4.38
472.732	4.33
473.086	4.3
473.441	4.39
473.795	4.53
474.15	4.27
474.504	4.35
474.859	4.43
475.213	4.31
475.567	4.28
475.921	4.44
476.275	4.37
476.63	4.26
476.984	4.24
477.338	4.58
477.692	4.35
478.045	4.23
478.399	4.43
478.753	4.38
479.107	4.35
479.461	4.26
479.814	4.23
480.168	4.29
480.521	4.22
480.875	4.59
481.228	4.4
481.582	4.29
481.935	4.37
482.289	4.27
482.642	4.26
482.995	4.4
483.348	4.37
483.701	4.27
484.055	4.29
484.408	4.3
484.761	4.08
485.114	4.07
485.466	4.08
485.819	4.1
486.172	4.15
486.525	4.23
486.878	4.2
487.23	4.29
487.583	4.27
487.936	4.27
488.288	4.28
488.641	4.18
488.993	4.11
489.345	4.15
489.698	4.18
490.05	4.23
490.402	4.28
490.754	4.35
491.107	4.3
491.459	4.38
491.811	4.41
492.163	4.33
492.515	4.3
492.866	4.15
493.218	4.2
493.57	4.25
493.922	4.3
494.274	4.33
494.625	4.31
494.977	4.35
495.328	4.44
495.68	4.56
496.031	4.57
496.383	4.39
496.734	4.6
497.086	4.29
497.437	4.51
497.788	4.39
498.139	4.45
498.49	4.41
498.842	4.39
499.193	4.45
499.544	4.51
499.894	4.47
500.245	4.35
500.596	4.46
500.947	4.39
501.298	4.45
501.648	4.46
501.999	4.57
502.35	4.57
502.7	4.49
503.051	4.53
503.401	4.54
503.752	4.38
504.102	4.55
504.452	4.36
504.803	4.39
505.153	4.58
505.503	4.47
505.853	4.44
506.203	4.43
506.553	4.56
506.903	4.45
507.253	4.54
507.603	4.39
507.953	4.57
508.303	4.55
508.652	4.55
509.002	4.56
509.352	4.51
509.701	4.47
510.051	4.51
510.4	4.43
510.75	4.47
511.099	4.44
511.449	4.43
511.798	4.48
512.147	4.48
512.496	4.57
512.846	4.58
513.195	4.54
513.544	4.41
513.893	4.32
514.242	4.65
514.591	4.54
514.939	4.5
515.288	4.59
515.637	4.58
515.986	4.41
516.334	4.56
516.683	4.6
517.032	4.44
517.38	4.5
517.729	4.48
518.077	4.65
518.426	4.53
518.774	4.5
519.122	4.5
519.47	4.52
519.819	4.46
520.167	4.45
520.515	4.47
520.863	4.41
521.211	4.49
521.559	4.54
521.907	4.4
522.255	4.56
522.602	4.6
522.95	4.54
523.298	4.61
523.645	4.55
523.993	4.64
524.341	4.51
524.688	4.52
525.036	4.61
525.383	4.65
525.73	4.54
526.078	4.62
526.425	4.59
526.772	4.4
527.119	4.43
527.466	4.48
527.814	4.4
528.161	4.5
528.508	4.5
528.854	4.4
529.201	4.48
529.548	4.33
529.895	4.32
530.242	4.32
530.588	4.36
530.935	4.37
531.282	4.41
531.628	4.42
531.975	4.49
532.321	4.49
532.667	4.54
533.014	4.54
533.36	4.5
533.706	4.44
534.052	4.41
534.399	4.49
534.745	4.39
535.091	4.35
535.437	4.42
535.783	4.46
536.129	4.49
536.474	4.6
536.82	4.55
537.166	4.54
537.512	4.54
537.857	4.5
538.203	4.51
538.549	4.5
538.894	4.52
539.239	4.71
539.585	4.63
539.93	4.6
540.276	4.39
540.621	4.57
540.966	4.53
541.311	4.65
541.656	4.51
542.001	4.5
542.346	4.48
542.691	4.33
543.036	4.38
543.381	4.42
543.726	4.53
544.071	4.52
544.415	4.47
544.76	4.45
545.105	4.5
545.449	4.52
545.794	4.46
546.138	4.63
546.483	4.43
546.827	4.64
547.171	4.53
547.516	4.7
547.86	4.48
548.204	4.54
548.548	4.68
548.892	4.56
549.236	4.73
549.58	4.63
549.924	4.63
550.268	4.8
550.612	4.68
550.956	4.56
551.3	4.76
551.643	4.71
551.987	4.66
552.33	4.66
552.674	4.84
553.017	4.83
553.361	4.66
553.704	4.53
554.048	4.74
554.391	4.67
554.734	4.61
555.077	4.7
555.42	4.59
555.764	4.73
556.107	4.72
556.45	4.53
556.793	4.58
557.135	4.77
557.478	4.68
557.821	4.77
558.164	4.88
558.507	4.76
558.849	4.59
559.192	4.59
559.534	4.65
559.877	4.82
560.219	4.84
560.562	4.63
560.904	4.75
561.246	4.89
561.589	4.62
561.931	4.84
562.273	4.65
562.615	4.74
562.957	4.75
563.299	4.64
563.641	4.72
563.983	4.65
564.325	4.58
564.667	4.62
565.008	4.65
565.35	4.78
565.692	4.88
566.033	4.78
566.375	4.53
566.716	4.73
567.058	4.75
567.399	4.62
567.741	4.7
568.082	4.63
568.423	4.61
568.764	4.73
569.105	4.8
569.447	4.7
569.788	4.68
570.129	4.84
570.47	4.77
570.811	4.67
571.151	4.74
571.492	4.83
571.833	4.71
572.174	4.86
572.514	4.7
572.855	4.83
573.195	4.74
573.536	4.75
573.876	4.73
574.217	4.75
574.557	4.62
574.898	4.61
575.238	4.52
575.578	4.69
575.918	4.61
576.258	4.78
576.598	4.73
576.938	4.83
577.278	4.81
577.618	4.67
577.958	4.8
578.298	4.8
578.638	4.61
578.977	4.7
579.317	4.88
579.657	4.75
579.996	4.68
580.336	4.58
580.675	4.84
581.014	4.86
581.354	4.91
581.693	4.61
582.032	4.65
582.372	4.9
582.711	4.69
583.05	4.89
583.389	4.75
583.728	4.66
584.067	4.59
584.406	4.77
584.745	4.79
585.083	4.98
585.422	4.73
585.761	4.75
586.1	4.9
586.438	4.75
586.777	4.84
587.115	4.74
587.454	4.81
587.792	4.6
588.13	5.03
588.469	4.83
588.807	5.01
589.145	4.86
589.483	4.78
589.821	4.84
590.159	4.71
590.497	4.51
590.835	4.77
591.173	4.81
591.511	4.86
591.849	4.98
592.187	4.63
592.524	4.89
592.862	4.88
593.2	4.79
593.537	4.74
593.875	4.85
594.212	4.66
594.55	4.63
594.887	4.89
595.224	4.8
595.561	4.91
595.899	4.84
596.236	4.69
596.573	4.68
596.91	4.65
597.247	4.78
597.584	4.92
597.921	4.76
598.258	4.67
598.594	4.64
598.931	4.72
599.268	4.8
599.604	4.92
599.941	4.67
600.277	4.81
600.614	4.63
600.95	4.95
601.287	4.7
601.623	5.09
601.959	4.81
602.296	4.91
602.632	4.99
602.968	4.62
603.304	4.72
603.64	4.84
603.976	4.79
604.312	4.84
604.648	4.84
604.984	4.53
605.319	4.8
605.655	4.78
605.991	4.71
606.326	4.83
606.662	4.55
606.998	4.77
607.333	4.65
607.668	4.83
608.004	4.74
608.339	4.85
608.674	4.9
609.01	4.71
609.345	4.82
609.68	4.6
610.015	4.79
610.35	4.91
610.685	4.79
611.02	4.97
611.355	4.8
611.689	4.64
612.024	4.93
612.359	4.89
612.694	4.91
613.028	5.1
613.363	4.89
613.697	5.09
614.032	4.87
614.366	4.71
614.7	5.11
615.035	4.84
615.369	4.76
615.703	4.93
616.037	4.94
616.371	4.62
616.705	4.76
617.039	5.04
617.373	4.7
617.707	4.74
618.041	5.11
618.375	4.7
618.709	4.56
619.042	4.84
619.376	4.59
619.71	4.72
620.043	4.68
620.377	4.81
620.71	5.03
621.043	4.65
621.377	4.93
621.71	4.86
622.043	5.25
622.376	4.87
622.709	5.1
623.043	4.77
623.376	5.26
623.709	5.05
624.041	4.65
624.374	4.7
624.707	4.69
625.04	4.93
625.373	4.74
625.705	4.97
626.038	4.67
626.37	4.85
626.703	4.68
627.035	4.82
627.368	5.08
627.7	5.06
628.032	4.97
628.365	4.78
628.697	4.64
629.029	5.16
629.361	4.76
629.693	5.12
630.025	4.75
630.357	4.8
630.689	5.28
631.021	4.99
631.353	5.15
631.684	4.79
632.016	4.8
632.348	4.91
632.679	5.05
633.011	4.91
633.342	4.73
633.674	4.8
634.005	4.83
634.336	4.81
634.668	4.8
634.999	4.94
635.33	5
635.661	4.98
635.992	5.01
636.323	4.77
636.654	4.98
636.985	5.1
637.316	4.86
637.647	5.05
637.977	4.8
638.308	4.72
638.639	4.89
638.969	4.73
639.3	5.07
639.63	4.72
639.961	4.76
640.291	5.21
640.622	5.24
640.952	4.78
641.282	4.54
641.612	4.6
641.943	5.43
642.273	5
642.603	4.91
642.933	4.87
643.263	5.44
643.592	4.86
643.922	5.41
644.252	5.14
644.582	4.83
644.911	5.14
645.241	4.7
645.571	5.02
645.9	5.33
646.23	5.02
646.559	4.81
646.888	4.87
647.218	4.8
647.547	5.09
647.876	5.24
648.205	4.73
648.534	4.54
648.863	5.18
649.192	4.71
649.521	4.9
649.85	5.55
650.179	4.75
650.508	5.06
650.837	4.86
651.165	5.11
651.494	4.93
651.822	5
652.151	5.14
652.479	5.27
652.808	4.75
653.136	4.98
653.465	4.87
653.793	5.18
654.121	5.11
654.449	5.16
654.777	4.93
655.105	5.68
655.433	5.38
655.761	5.07
656.089	5.29
656.417	4.92
656.745	5.22
657.073	5.66
657.4	5.47
657.728	4.91
658.056	4.85
658.383	5.32
658.711	4.77
659.038	5.11
659.365	5.25
659.693	4.87
660.02	5.16
660.347	4.81
660.674	4.79
661.001	4.58
661.329	5.04
661.656	4.86
661.982	4.94
662.309	5.27
662.636	5.05
662.963	5.38
663.29	4.96
663.616	5.19
663.943	5.15
664.27	5.36
664.596	4.91
664.923	5.12
665.249	5.06
665.576	4.8
665.902	5.25
666.228	4.68
666.554	5.1
666.881	5.08
667.207	5.05
667.533	5.56
667.859	5.15
668.185	4.94
668.511	4.61
668.837	4.61
669.162	5.21
669.488	4.94
669.814	5.19
670.139	5.1
670.465	5.48
670.791	5.23
671.116	5.28
671.442	5.28
671.767	4.99
672.092	5.39
672.418	5.1
672.743	5.08
673.068	4.41
673.393	4.94
673.718	4.62
674.043	4.96
674.368	5.48
674.693	5.36
675.018	5.05
675.343	5.31
675.667	4.96
675.992	4.62
676.317	4.69
676.641	5.2
676.966	5.28
677.29	5.03
677.615	4.86
677.939	4.9
678.264	5.4
678.588	5.34
678.912	5.36
679.236	5.07
679.56	5.31
679.885	5.21
680.209	4.61
680.532	5.07
680.856	5.82
681.18	5.34
681.504	4.68
681.828	4.78
682.152	4.64
682.475	4.88
682.799	5.45
683.122	5.22
683.446	5.16
683.769	5.63
684.093	5.2
684.416	4.98
684.739	5.41
685.062	5.72
685.386	5.1
685.709	4.76
686.032	4.93
686.355	5.1
686.678	5.54
687.001	4.88
687.324	4.96
687.646	5.4
687.969	4.88
688.292	5.61
688.614	5.49
688.937	4.99
689.26	4.96
689.582	5.07
689.904	5.03
690.227	5.16
690.549	5.52
690.871	5.57
691.194	5.44
691.516	5.2
691.838	5.18
692.16	5.34
692.482	5.67
692.804	5.02
693.126	5.19
693.448	5.24
693.769	5.56
694.091	5.9
694.413	5.4
694.735	6.03
695.056	5.77
695.378	5.17
695.699	6.6
696.021	5.29
696.342	4.66
696.663	5.6
696.984	5.54
697.306	5.25
697.627	5.49
697.948	5.4
698.269	4.69
698.59	6.15
698.911	4.68
699.232	6.02
699.553	5.31
699.873	5.67
700.194	5.41
700.515	5.47
700.835	5.86
701.156	5.44
701.477	5.08
701.797	6.43
702.117	5.76
702.438	5.94
702.758	5.62
703.078	4.75
703.398	5.47
703.719	4.83
704.039	5.57
704.359	5.61
704.679	4.93
704.999	4.19
705.319	5.69
705.638	6.52
705.958	5.36
706.278	5.37
706.597	5.15
706.917	5.43
707.237	5.65
707.556	5.53
707.876	4.79
708.195	5.08
708.514	6.33
708.834	5.81
709.153	6.09
709.472	5.69
709.791	5.47
710.11	5.62
710.429	5.57
710.748	6.17
711.067	6.81
711.386	5.63
711.705	5.59
712.023	5.5
712.342	5.41
712.661	5.62
712.979	6.87
713.298	6.96
713.616	5.54
713.935	5.04
714.253	5.76
714.572	5.38
714.89	5.3
715.208	5.68
715.526	5.69
715.844	5.42
716.162	5.49
716.48	5.15
716.798	5.53
717.116	5.56
717.434	6.64
717.752	5.02
718.069	4.4
718.387	5.63
718.705	4.98
719.022	5.78
719.34	5.19
719.657	5.33
719.975	5.78
720.292	5.91
720.609	5.73
720.927	5.55
721.244	6.52
721.561	5.95
721.878	6.33
722.195	6
722.512	4.99
722.829	6.86
723.146	5.28
723.463	6.55
723.779	4.22
724.096	5.6
724.413	5.89
724.729	5.64
725.046	6.37
725.362	5.17
725.679	7.09
725.995	5.93
726.311	6.02
726.628	5.64
726.944	7.15
727.26	4.71
727.576	6.29
727.892	5.59
728.208	5.57
728.524	5.92
728.84	5.82
729.156	7.12
729.472	8.12
729.787	7.32
730.103	5.74
730.419	6.48
730.734	5.37
731.05	6.11
731.365	6.14
731.681	4.93
731.996	5.11
732.311	5.95
732.626	6.69
732.942	6.53
733.257	6.09
733.572	6.41
733.887	6.2
734.202	6.36
734.517	5.81
734.832	5.97
735.146	5.53
735.461	5.21
735.776	6
736.091	5.44
736.405	6.08
736.72	5.62
737.034	5.13
737.349	5.57
737.663	5.55
737.977	6.56
738.292	7.37
738.606	6.76
738.92	6.29
739.234	5.8
739.548	5.62
739.862	5.78
740.176	6.48
740.49	6.34
740.804	6.96
741.117	6.52
741.431	5.35
741.745	5.54
742.058	4.89
742.372	5.73
742.685	5.08
742.999	7.03
743.312	4.94
743.626	4.48
743.939	7.08
744.252	7.39
744.565	5.86
744.878	5.75
745.191	5.36
745.505	5.24
745.817	4.38
746.13	6.31
746.443	6.3
746.756	6.01
747.069	6.87
747.381	5.87
747.694	2.96
748.007	8.16
748.319	7.04
748.632	5.73
748.944	6.61
749.256	8.61
749.569	4.7
749.881	6.07
750.193	5.92
750.505	7.44
750.817	5.23
751.129	7.97
751.441	6.49
751.753	6.8
752.065	5.31
752.377	5.26
752.689	7.9
753	4.9
753.312	5.85
753.624	6.86
753.935	6.6
754.247	9.82
754.558	6.88
754.869	6.66
755.181	5.59
755.492	7.35
755.803	6.32
756.114	5.5
756.425	7.78
756.736	5.21
757.047	8.86
757.358	5.14
757.669	7.37
757.98	6.11
758.291	7.48
758.601	6.32
758.912	5.17
759.223	8.83
759.533	7.51
759.844	6.63
760.154	7.89
760.464	7.97
760.775	7.63
761.085	4.91
761.395	8.34
761.705	6.16
762.016	6.02
762.326	6.26
762.636	7.65
762.945	3.84
763.255	6.1
763.565	4.97
763.875	7.17
764.185	6.35
764.494	5.3
764.804	5.76
765.113	6.62
765.423	6.56
765.732	6.94
766.042	6.91
766.351	5.47
766.66	6.89
766.97	5.56
767.279	8.15
767.588	6.1
767.897	8.2
768.206	8.11
768.515	5.48
768.824	7.95
769.133	6.56
769.441	7.75
769.75	5.84
770.059	6.98
770.367	5.96
770.676	5.5
770.984	7.69
771.293	6.84
771.601	5.78
771.91	5.57
772.218	5.99
772.526	7.46
772.834	9.59
773.142	8.52
773.45	4.87
773.758	8.4
774.066	6.74
774.374	2.54
774.682	6.29
774.99	7.34
775.298	6.54
775.605	6.3
775.913	4.9
776.22	6.13
776.528	7.13
776.835	6.87
777.143	7.48
777.45	7.96
777.757	5.19
778.065	7.58
778.372	5.58
778.679	8.32
778.986	5.84
779.293	6.53
779.6	3.63
779.907	6.71
780.214	9.49
780.52	5.19
780.827	3.81
781.134	8.84
781.44	4.86
781.747	7.2
782.053	6.45
782.36	7.84
782.666	5.61
782.973	4.38
783.279	7.19
783.585	5.55
783.891	7.61
784.197	5.73
784.503	10.85
784.809	6.14
785.115	1.61
785.421	9.1
785.727	4.42
786.033	6.46
786.339	6.18
786.644	7.7
786.95	8.95
787.255	7.79
787.561	8.57
787.866	1.99
788.172	5.8
788.477	3
788.782	5.81
789.088	8.88
789.393	6.17
789.698	4.8
790.003	9.14
790.308	5.19
790.613	10.83
790.918	9.71
791.223	7.73
791.527	9.7
791.832	9.71
792.137	7.71
792.441	9.23
792.746	3.93
793.05	8.35
793.355	7.13
793.659	8.47
793.963	4.97
794.268	5.89
794.572	11.41
794.876	8.51
795.18	4.41
795.484	1.79
795.788	6.52
796.092	4.56
796.396	6.97
796.7	8.86
797.004	9.3
797.307	3.46
797.611	5.25
797.915	6.26
798.218	8.14
798.522	3.99
798.825	8.5
799.128	6.77
799.432	8.35
799.735	5.59
800.038	5.28
800.341	3.64
800.644	5.8
800.947	7.59
801.25	5.78
801.553	7.8
801.856	7.92
802.159	1.7
802.462	1.4
802.764	1.41
803.067	3.14
803.37	8.11
803.672	5.88
803.975	2.93
804.277	8.01
804.579	6.26
804.882	6.02
805.184	5.43
805.486	3.54
805.788	2.67
806.09	7.16
806.392	8.83
806.694	8.99
806.996	11.78
807.298	10.36
807.6	3.07
807.902	6.91
808.203	11.14
808.505	4.62
808.807	10.82
809.108	3.04
809.409	11.1
809.711	8.77
810.012	7.96
810.313	7.07
810.615	9.11
810.916	4.42
811.217	7.5
811.518	13.62
811.819	1.88
812.12	8.18
812.421	0.76
812.722	6.32
813.023	11.99
813.323	11.17
813.624	7.03
813.925	10.82
814.225	10.39
814.526	11.55
814.826	5.9
815.126	11.32
815.427	9.19
815.727	7.14
816.027	9.41
816.327	1.66
816.627	4.88
816.927	10.52
817.227	8.73
817.527	6.74
817.827	7.45
818.127	9.94
818.427	-0.22
818.727	5.66
819.026	10.72
819.326	11.88
819.625	8.7
819.925	9.12
820.224	3.35
820.524	5.5
820.823	2.15
821.122	5.52
821.421	6.8
821.72	7.76
822.019	8.89
822.318	11.11
822.617	8.77
822.916	5.63
823.215	7.39
823.514	8.12
823.813	8.64
824.111	9.31
824.41	7.54
824.709	9.1
825.007	8.63
825.306	8.3
825.604	8.98
825.902	8.61
826.201	7.89
826.499	7.97
826.797	7.86
827.095	6.5
827.393	8.83
827.691	8.77
827.989	10.6
828.287	8.98
828.585	5.79
828.882	8.34
829.18	8.16
829.478	8.11
829.775	9.11
830.073	9.54
830.37	7.39
830.668	8.22
830.965	7.87
831.263	7.08
831.56	8.64
831.857	9.77
832.154	11.08
832.451	8.2
832.748	10.29
833.045	10.37
833.342	10.69
833.639	7.86
833.936	4.42
834.232	6.41
834.529	4.83
834.826	7.57
835.122	6.55
835.419	5.73
835.715	5.43
836.012	8.23
836.308	10.33
836.604	6.09
836.901	14.81
837.197	10.87
837.493	7.57
837.789	12.02
838.085	3.66
838.381	8.96
838.677	3.64
838.972	9.03
839.268	6.91
839.564	14.86
839.86	4.51
840.155	8.02
840.451	4.72
840.746	14.96
841.042	0.77
841.337	15.58
841.632	11.5
841.928	14.54
842.223	4.82
842.518	14.04
842.813	1.69
843.108	4.37
843.403	12.78
843.698	0.43
843.993	13.6
844.287	13.67
844.582	8.02
844.877	17.15
845.171	6.12
845.466	2.24
845.761	18.97
846.055	9.16
846.349	-8.69
846.644	1.72
846.938	2.06
847.232	3.48
847.526	6.94
847.82	-1.5
848.114	10.49
848.408	15.54
848.702	3.64
848.996	12.09
849.29	11.49
849.584	-2.06
849.877	-4.08
850.171	5.53
850.465	3.79
850.758	7.94
851.052	26.91
851.345	10.24
851.638	19.62
851.932	11.35
852.225	10.31
852.518	10.45
852.811	3.56
853.104	18.3
853.397	5.71
853.69	3.11
853.983	5.87
854.276	-3.59
854.569	5.21
854.861	10.41
855.154	-0.39
855.447	-0.49
855.739	-2.06
856.032	21.31
856.324	-3.76
856.616	13.42
856.909	28.64
857.201	14.43
857.493	-0.21
857.785	-2.23
858.077	8.62
858.369	-6.52
858.661	24.32
858.953	-7.19
859.245	3.86
859.537	22.57
859.829	8.41
860.12	7.36
860.412	-20.79
860.703	7.38
860.995	-2.65
861.286	19.1
861.578	-14.42
861.869	3.64
862.16	3.21
862.452	-17.35
862.743	21.14
863.034	3.16
863.325	13.89
863.616	7.37
863.907	11.07
864.198	25.35
864.488	-1.16
864.779	-6.65
865.07	17.7
865.36	17.45
865.651	16.84
865.941	31.85
866.232	-9.34
866.522	14.49
866.813	19.94
867.103	-5.88
867.393	2.71
867.683	26.11
867.973	12.34
868.263	17.24
868.553	26.58
868.843	-24.39
869.133	-7.1
869.423	35.51
869.713	22.95
870.002	-11.28
870.292	-4.7
870.582	9.65
870.871	11.17
871.161	-5.76
871.45	26.06
871.739	-32.97
872.029	-10.61
872.318	1.94
872.607	16.31
872.896	1.27
873.185	25.23
873.474	19.48
873.763	20.82
874.052	-5.73
874.341	-18.01
874.63	8.75
874.918	22.46
875.207	20.3
875.496	28.07
875.784	9.92
876.073	-6.45
876.361	9.57
876.649	24.81
876.938	3.9
877.226	17.71
877.514	30.85
877.802	20.5
878.09	-2.2
878.378	10.51
878.666	-18.09
878.954	2.04
879.242	19.14
879.53	-9.29
879.817	9.17
880.105	-8.35
880.392	-8.13
880.68	6.81
880.967	14.9
881.255	-21.43
881.542	0.52
881.83	10.5
882.117	-14.06
882.404	-6.77
882.691	7.73
882.978	-3.66
883.265	17.92
883.552	6.27
883.839	18.35
884.126	6.56
884.413	8.21
884.699	14
884.986	9.03
885.273	7.53
885.559	7.53
885.846	7.53
