Data from 0220_crown_Reflection__2__227.txt Node

Date: Fri Sep 22 22:38:56 CDT 2023
User: ToomeyLab
Spectrometer: FLMS14357
Trigger mode: 0
Integration Time (sec): 1.000000E-2
Scans to average: 100
Electric dark correction enabled: true
Nonlinearity correction enabled: false
Boxcar width: 0
XAxis mode: Wavelengths
Number of Pixels in Spectrum: 2048
>>>>>Begin Spectral Data<<<<<
189.047	-289.51
189.435	-289.51
189.823	-289.51
190.211	405.44
190.599	76.8
190.987	142.66
191.375	-39.35
191.763	4.5
192.151	117.61
192.538	-62.66
192.926	68.27
193.314	-2481.71
193.702	155.71
194.089	129.13
194.477	33.41
194.864	837.54
195.252	163.66
195.639	28.41
196.027	-21.99
196.414	-461.29
196.801	35.19
197.189	-45.64
197.576	17.88
197.963	-28.78
198.351	4.98
198.738	6.71
199.125	-18.03
199.512	-0.2
199.899	34.94
200.286	-37.65
200.673	-15.58
201.06	3.32
201.447	31.42
201.833	-77.36
202.22	37.72
202.607	27.03
202.994	26.68
203.38	26.24
203.767	-0.69
204.154	23.11
204.54	20.45
204.927	8.56
205.313	-10.16
205.699	32.89
206.086	26.83
206.472	47.32
206.858	35.44
207.245	-28.69
207.631	30.23
208.017	-7.23
208.403	20.71
208.789	5.83
209.175	32.8
209.561	30.13
209.947	19.34
210.333	5.6
210.719	11.81
211.105	26.37
211.491	18.14
211.876	65.4
212.262	22.8
212.648	6.03
213.034	22.13
213.419	2.49
213.805	10.92
214.19	-10.88
214.576	14.68
214.961	26.71
215.346	-15.26
215.732	4.75
216.117	23.52
216.502	20.05
216.888	33.87
217.273	26.36
217.658	2.07
218.043	-10.36
218.428	23.01
218.813	-14.11
219.198	14.17
219.583	27.51
219.968	-20.06
220.353	15.03
220.738	-13.94
221.122	9.31
221.507	-4.4
221.892	-4.47
222.276	1.56
222.661	-34.76
223.046	24.78
223.43	23.35
223.815	9.54
224.199	-5.43
224.583	6.86
224.968	14.55
225.352	2.76
225.736	5.59
226.121	4.96
226.505	6.96
226.889	2.15
227.273	-1.2
227.657	11.78
228.041	3.59
228.425	8.46
228.809	3.04
229.193	1.14
229.577	4.96
229.961	5.79
230.344	7.66
230.728	5.23
231.112	6.6
231.495	5.65
231.879	5.75
232.263	4.85
232.646	5.1
233.03	5.02
233.413	6.05
233.797	6.46
234.18	4.12
234.563	5.87
234.946	7.36
235.33	1.83
235.713	2.19
236.096	4.73
236.479	4.24
236.862	7.8
237.245	5.63
237.628	5.5
238.011	5.41
238.394	6.33
238.777	3.9
239.16	7.02
239.543	7.07
239.925	8.49
240.308	7.1
240.691	3.91
241.073	7.4
241.456	5.8
241.838	4.95
242.221	4.4
242.603	4.96
242.986	5.02
243.368	5.37
243.75	5.69
244.133	5.83
244.515	5.75
244.897	5.4
245.279	5.22
245.661	5.61
246.043	5.71
246.425	4.26
246.807	5.58
247.189	3.34
247.571	5.77
247.953	4.87
248.335	5.19
248.717	5.19
249.098	5.02
249.48	4.98
249.862	5.02
250.243	4.81
250.625	4.64
251.006	4.68
251.388	4.92
251.769	5.75
252.151	4.54
252.532	4.14
252.913	5.63
253.295	6.12
253.676	4.71
254.057	4.87
254.438	5.71
254.819	4.76
255.2	4.82
255.581	4.35
255.962	5.22
256.343	3.83
256.724	4.29
257.105	5.1
257.486	4.78
257.867	4.84
258.247	5.08
258.628	4.95
259.009	4.69
259.389	4.25
259.77	4.5
260.15	5.31
260.531	4.39
260.911	4.64
261.292	4.6
261.672	4.32
262.052	4.61
262.432	4.55
262.813	4.64
263.193	4.28
263.573	4.99
263.953	3.73
264.333	4.52
264.713	4.42
265.093	4.03
265.473	4.25
265.853	4.08
266.233	4.84
266.612	3.75
266.992	4.12
267.372	4.87
267.752	4.72
268.131	4.29
268.511	3.83
268.89	4.43
269.27	4.1
269.649	4.48
270.029	4.18
270.408	4.46
270.787	4.13
271.167	4.55
271.546	3.72
271.925	4.17
272.304	3.83
272.683	4.4
273.062	4.54
273.441	4.08
273.82	4.63
274.199	4.44
274.578	4.17
274.957	3.94
275.336	4.14
275.715	4.33
276.093	3.77
276.472	3.57
276.851	4.31
277.229	3.81
277.608	4.41
277.986	4.09
278.365	4.47
278.743	4.02
279.122	4.42
279.5	4.09
279.878	3.89
280.257	4.77
280.635	3.5
281.013	4.86
281.391	4.12
281.769	3.51
282.147	4.05
282.525	3.67
282.903	4.5
283.281	3.99
283.659	3.92
284.037	4
284.415	4.27
284.792	3.94
285.17	4.11
285.548	4.15
285.925	3.79
286.303	4.18
286.68	3.75
287.058	4.05
287.435	4.12
287.813	3.81
288.19	3.56
288.567	3.98
288.945	3.49
289.322	3.81
289.699	3.55
290.076	4.12
290.453	3.76
290.83	3.27
291.207	3.82
291.584	3.7
291.961	3.74
292.338	3.64
292.715	4.07
293.092	3.64
293.469	3.84
293.845	3.35
294.222	3.89
294.599	3.78
294.975	3.75
295.352	4.6
295.728	3.77
296.105	4.27
296.481	4.18
296.858	3.7
297.234	3.57
297.61	3.73
297.986	3.66
298.363	3.56
298.739	3.83
299.115	3.87
299.491	3.55
299.867	3.57
300.243	3.48
300.619	3.71
300.995	3.58
301.371	4.38
301.746	3.39
302.122	3.73
302.498	3.36
302.874	3.31
303.249	3.48
303.625	2.93
304	3.44
304.376	4.16
304.751	4.21
305.127	3.65
305.502	3.62
305.878	4
306.253	3.97
306.628	3.44
307.003	3.75
307.378	3.37
307.754	3.81
308.129	4.05
308.504	3.65
308.879	3.55
309.254	3.9
309.629	3.67
310.003	3.77
310.378	3.61
310.753	3.33
311.128	3.41
311.502	3.73
311.877	3.58
312.252	3.73
312.626	3.93
313.001	3.91
313.375	3.93
313.75	3.48
314.124	3.71
314.498	3.38
314.873	4
315.247	3.96
315.621	3.66
315.995	3.63
316.369	3.7
316.743	3.62
317.117	4.06
317.491	4.22
317.865	3.13
318.239	3.91
318.613	3.41
318.987	3.55
319.361	3.63
319.734	3.57
320.108	3.94
320.482	3.63
320.855	3.2
321.229	4.3
321.602	3.84
321.976	3.18
322.349	3.64
322.723	3.82
323.096	3.5
323.469	3.53
323.843	3.5
324.216	3.41
324.589	4.07
324.962	3.56
325.335	3.42
325.708	3.42
326.081	3.96
326.454	2.81
326.827	3.73
327.2	3.83
327.573	4.23
327.945	3.94
328.318	3.83
328.691	3.99
329.063	3.37
329.436	4.08
329.809	3.55
330.181	3.84
330.553	3.73
330.926	3.65
331.298	3.18
331.671	2.87
332.043	3.26
332.415	2.91
332.787	4.54
333.159	3.54
333.532	3.16
333.904	3.4
334.276	3.77
334.648	3.14
335.02	3.36
335.391	4.19
335.763	3.58
336.135	3.45
336.507	3.84
336.879	3.06
337.25	4.02
337.622	3.71
337.993	3.33
338.365	3.94
338.736	3.58
339.108	3.99
339.479	3.37
339.851	3.59
340.222	3.19
340.593	3.5
340.964	3.38
341.336	3.32
341.707	3.88
342.078	3.72
342.449	3.63
342.82	3.31
343.191	3.62
343.562	3.25
343.933	4
344.303	3.65
344.674	3.43
345.045	3.37
345.416	3.94
345.786	2.84
346.157	3.67
346.527	3.24
346.898	3.66
347.268	3.44
347.639	3.32
348.009	3.76
348.38	3.89
348.75	3.77
349.12	3.54
349.49	3.73
349.861	3.28
350.231	3.41
350.601	3.54
350.971	4.26
351.341	3.76
351.711	3.57
352.081	3.65
352.45	3.61
352.82	3.51
353.19	3.87
353.56	3.59
353.929	3.75
354.299	3.81
354.669	3.5
355.038	3.45
355.408	3.86
355.777	4.21
356.147	4.25
356.516	4.13
356.885	3.64
357.254	3.88
357.624	3.47
357.993	4.03
358.362	3.68
358.731	3.69
359.1	3.5
359.469	3.93
359.838	3.42
360.207	3.56
360.576	3.78
360.945	3.8
361.314	3.77
361.682	4.14
362.051	3.88
362.42	3.69
362.788	3.68
363.157	3.93
363.525	3.69
363.894	3.66
364.262	3.59
364.631	3.55
364.999	3.56
365.367	3.74
365.735	3.42
366.104	3.5
366.472	4.19
366.84	3.46
367.208	4.2
367.576	4.11
367.944	3.69
368.312	4.21
368.68	3.62
369.048	3.98
369.416	4.02
369.783	3.6
370.151	3.66
370.519	3.91
370.886	4.23
371.254	4.21
371.621	3.51
371.989	3.66
372.356	3.63
372.724	4.1
373.091	4.11
373.458	3.87
373.826	4.03
374.193	4
374.56	3.85
374.927	3.91
375.294	3.89
375.661	3.91
376.028	4.17
376.395	4.17
376.762	3.84
377.129	4.02
377.496	4.05
377.863	3.97
378.229	3.88
378.596	4.22
378.963	4.22
379.329	3.9
379.696	3.89
380.062	3.72
380.429	4.07
380.795	4.02
381.161	3.76
381.528	4.24
381.894	4.03
382.26	3.8
382.626	4.03
382.993	4.03
383.359	3.77
383.725	3.9
384.091	3.85
384.457	3.67
384.823	3.8
385.188	3.91
385.554	3.98
385.92	4.28
386.286	4.26
386.651	3.88
387.017	4.04
387.383	3.89
387.748	3.83
388.114	4
388.479	4.08
388.845	3.91
389.21	3.96
389.575	4.4
389.94	3.82
390.306	4.1
390.671	4.32
391.036	3.76
391.401	3.75
391.766	4.16
392.131	3.96
392.496	4.27
392.861	4.04
393.226	4.19
393.591	4.22
393.956	4.1
394.32	4.01
394.685	4.26
395.05	4.33
395.414	4.17
395.779	4.15
396.143	4.39
396.508	4.2
396.872	3.89
397.236	4.17
397.601	3.98
397.965	4.23
398.329	3.99
398.694	3.99
399.058	4.08
399.422	4.02
399.786	3.99
400.15	4.15
400.514	4.11
400.878	3.98
401.242	4.34
401.605	4.01
401.969	3.88
402.333	4.2
402.697	4
403.06	4.11
403.424	4
403.787	3.99
404.151	4.02
404.514	4.17
404.878	4.11
405.241	4.32
405.604	4.34
405.968	4.23
406.331	4.11
406.694	4.11
407.057	3.92
407.42	4.26
407.783	4.15
408.146	4.11
408.509	3.96
408.872	4.16
409.235	4.14
409.598	4.18
409.961	4.46
410.323	4.35
410.686	4.18
411.049	4.45
411.411	4.47
411.774	4.21
412.136	4.19
412.499	4.09
412.861	4.11
413.223	4.27
413.586	4.15
413.948	4.12
414.31	4.22
414.672	4.44
415.035	4.19
415.397	4.26
415.759	4.44
416.121	4.15
416.483	4.14
416.845	4.08
417.206	4.08
417.568	4.04
417.93	4.39
418.292	4.43
418.653	3.93
419.015	4.19
419.377	4.05
419.738	4.38
420.1	4.07
420.461	4.1
420.822	4.18
421.184	4.09
421.545	4.09
421.906	4.08
422.267	4.1
422.629	4.24
422.99	4.15
423.351	3.97
423.712	4.03
424.073	4.15
424.434	4.19
424.795	4.12
425.155	4.27
425.516	4.18
425.877	4.12
426.238	4.03
426.598	4.04
426.959	4.17
427.32	4.16
427.68	4.1
428.041	4.19
428.401	4.32
428.761	4.28
429.122	4.27
429.482	4.16
429.842	4.27
430.202	4.11
430.563	4.26
430.923	4.24
431.283	4.37
431.643	4.35
432.003	4.33
432.363	4.3
432.722	4.33
433.082	4.39
433.442	4.19
433.802	4.46
434.161	4.26
434.521	4.16
434.881	4.4
435.24	4.15
435.6	4.09
435.959	4.08
436.319	4.23
436.678	4.39
437.037	4.35
437.396	4.17
437.756	4.25
438.115	4.14
438.474	4.29
438.833	4.27
439.192	4.14
439.551	4.15
439.91	4.38
440.269	4.21
440.628	4.22
440.987	4.27
441.345	4.33
441.704	4.18
442.063	4.16
442.421	4.29
442.78	4.29
443.138	4.12
443.497	4.29
443.855	4.32
444.214	4.09
444.572	4.39
444.93	4.21
445.288	4.4
445.647	4.36
446.005	4.22
446.363	4.21
446.721	4.37
447.079	4.02
447.437	4.32
447.795	4.34
448.153	4.23
448.51	4.23
448.868	4.18
449.226	4.24
449.584	4.33
449.941	4.15
450.299	4.25
450.656	4.27
451.014	4.42
451.371	4.23
451.729	4.36
452.086	4.34
452.443	4.36
452.801	4.35
453.158	4.3
453.515	4.41
453.872	4.35
454.229	4.55
454.586	4.41
454.943	4.33
455.3	4.31
455.657	4.23
456.014	4.28
456.371	4.39
456.727	4.51
457.084	4.44
457.441	4.35
457.797	4.54
458.154	4.35
458.51	4.33
458.867	4.29
459.223	4.3
459.58	4.46
459.936	4.29
460.292	4.48
460.648	4.48
461.005	4.35
461.361	4.37
461.717	4.1
462.073	4.24
462.429	4.26
462.785	4.35
463.141	4.31
463.496	4.49
463.852	4.37
464.208	4.22
464.564	4.46
464.919	4.31
465.275	4.52
465.631	4.49
465.986	4.45
466.342	4.49
466.697	4.4
467.052	4.38
467.408	4.35
467.763	4.4
468.118	4.53
468.473	4.36
468.829	4.43
469.184	4.44
469.539	4.38
469.894	4.32
470.249	4.41
470.603	4.38
470.958	4.4
471.313	4.6
471.668	4.57
472.023	4.41
472.377	4.42
472.732	4.31
473.086	4.57
473.441	4.25
473.795	4.67
474.15	4.33
474.504	4.48
474.859	4.57
475.213	4.25
475.567	4.39
475.921	4.42
476.275	4.48
476.63	4.5
476.984	4.47
477.338	4.47
477.692	4.53
478.045	4.44
478.399	4.49
478.753	4.3
479.107	4.4
479.461	4.4
479.814	4.56
480.168	4.44
480.521	4.6
480.875	4.53
481.228	4.35
481.582	4.26
481.935	4.32
482.289	4.29
482.642	4.39
482.995	4.42
483.348	4.32
483.701	4.35
484.055	4.39
484.408	4.43
484.761	4.43
485.114	4.21
485.466	4.23
485.819	4.13
486.172	4.13
486.525	4.15
486.878	4.15
487.23	4.17
487.583	4.26
487.936	4.28
488.288	4.32
488.641	4.33
488.993	4.21
489.345	4.26
489.698	4.18
490.05	4.16
490.402	4.21
490.754	4.2
491.107	4.25
491.459	4.37
491.811	4.24
492.163	4.28
492.515	4.37
492.866	4.41
493.218	4.34
493.57	4.34
493.922	4.24
494.274	4.26
494.625	4.24
494.977	4.33
495.328	4.44
495.68	4.45
496.031	4.31
496.383	4.47
496.734	4.4
497.086	4.51
497.437	4.42
497.788	4.48
498.139	4.49
498.49	4.55
498.842	4.29
499.193	4.29
499.544	4.48
499.894	4.33
500.245	4.44
500.596	4.46
500.947	4.51
501.298	4.55
501.648	4.45
501.999	4.54
502.35	4.5
502.7	4.62
503.051	4.53
503.401	4.52
503.752	4.52
504.102	4.47
504.452	4.43
504.803	4.49
505.153	4.42
505.503	4.47
505.853	4.58
506.203	4.46
506.553	4.5
506.903	4.43
507.253	4.44
507.603	4.58
507.953	4.47
508.303	4.5
508.652	4.51
509.002	4.55
509.352	4.53
509.701	4.55
510.051	4.49
510.4	4.53
510.75	4.49
511.099	4.32
511.449	4.41
511.798	4.48
512.147	4.43
512.496	4.4
512.846	4.42
513.195	4.49
513.544	4.49
513.893	4.42
514.242	4.47
514.591	4.51
514.939	4.42
515.288	4.3
515.637	4.38
515.986	4.4
516.334	4.49
516.683	4.54
517.032	4.54
517.38	4.48
517.729	4.43
518.077	4.61
518.426	4.56
518.774	4.6
519.122	4.43
519.47	4.48
519.819	4.52
520.167	4.5
520.515	4.43
520.863	4.37
521.211	4.47
521.559	4.44
521.907	4.49
522.255	4.43
522.602	4.48
522.95	4.44
523.298	4.51
523.645	4.57
523.993	4.54
524.341	4.49
524.688	4.57
525.036	4.47
525.383	4.53
525.73	4.58
526.078	4.53
526.425	4.41
526.772	4.48
527.119	4.43
527.466	4.36
527.814	4.36
528.161	4.37
528.508	4.36
528.854	4.41
529.201	4.42
529.548	4.4
529.895	4.34
530.242	4.3
530.588	4.23
530.935	4.2
531.282	4.22
531.628	4.3
531.975	4.25
532.321	4.25
532.667	4.39
533.014	4.4
533.36	4.38
533.706	4.44
534.052	4.54
534.399	4.48
534.745	4.44
535.091	4.26
535.437	4.33
535.783	4.19
536.129	4.29
536.474	4.34
536.82	4.3
537.166	4.46
537.512	4.4
537.857	4.37
538.203	4.51
538.549	4.38
538.894	4.3
539.239	4.36
539.585	4.36
539.93	4.49
540.276	4.32
540.621	4.37
540.966	4.43
541.311	4.49
541.656	4.5
542.001	4.41
542.346	4.46
542.691	4.44
543.036	4.44
543.381	4.34
543.726	4.3
544.071	4.32
544.415	4.31
544.76	4.31
545.105	4.23
545.449	4.33
545.794	4.38
546.138	4.41
546.483	4.37
546.827	4.3
547.171	4.41
547.516	4.49
547.86	4.4
548.204	4.51
548.548	4.34
548.892	4.42
549.236	4.32
549.58	4.4
549.924	4.46
550.268	4.59
550.612	4.47
550.956	4.51
551.3	4.53
551.643	4.52
551.987	4.43
552.33	4.57
552.674	4.38
553.017	4.45
553.361	4.57
553.704	4.5
554.048	4.52
554.391	4.57
554.734	4.41
555.077	4.36
555.42	4.4
555.764	4.42
556.107	4.47
556.45	4.46
556.793	4.33
557.135	4.44
557.478	4.42
557.821	4.58
558.164	4.68
558.507	4.58
558.849	4.61
559.192	4.66
559.534	4.52
559.877	4.51
560.219	4.44
560.562	4.47
560.904	4.61
561.246	4.68
561.589	4.56
561.931	4.48
562.273	4.41
562.615	4.46
562.957	4.28
563.299	4.53
563.641	4.61
563.983	4.51
564.325	4.59
564.667	4.56
565.008	4.47
565.35	4.36
565.692	4.51
566.033	4.51
566.375	4.43
566.716	4.6
567.058	4.4
567.399	4.61
567.741	4.56
568.082	4.39
568.423	4.48
568.764	4.6
569.105	4.32
569.447	4.39
569.788	4.33
570.129	4.41
570.47	4.55
570.811	4.45
571.151	4.46
571.492	4.43
571.833	4.14
572.174	4.57
572.514	4.39
572.855	4.5
573.195	4.3
573.536	4.38
573.876	4.36
574.217	4.4
574.557	4.36
574.898	4.55
575.238	4.2
575.578	4.4
575.918	4.36
576.258	4.3
576.598	4.46
576.938	4.48
577.278	4.64
577.618	4.14
577.958	4.6
578.298	4.41
578.638	4.29
578.977	4.37
579.317	4.45
579.657	4.38
579.996	4.46
580.336	4.49
580.675	4.46
581.014	4.46
581.354	4.35
581.693	4.43
582.032	4.52
582.372	4.53
582.711	4.48
583.05	4.38
583.389	4.52
583.728	4.71
584.067	4.39
584.406	4.54
584.745	4.12
585.083	4.66
585.422	4.39
585.761	4.5
586.1	4.55
586.438	4.68
586.777	4.3
587.115	4.44
587.454	4.29
587.792	4.42
588.13	4.47
588.469	4.35
588.807	4.44
589.145	4.27
589.483	4.55
589.821	4.36
590.159	4.67
590.497	4.75
590.835	4.51
591.173	4.54
591.511	4.64
591.849	4.48
592.187	4.37
592.524	4.43
592.862	4.58
593.2	4.1
593.537	4.39
593.875	4.41
594.212	4.51
594.55	4.67
594.887	4.23
595.224	4.3
595.561	4.68
595.899	4.77
596.236	4.62
596.573	4.63
596.91	4.37
597.247	4.55
597.584	4.52
597.921	4.62
598.258	4.7
598.594	4.36
598.931	4.35
599.268	4.4
599.604	4.5
599.941	4.34
600.277	4.34
600.614	4.5
600.95	4.57
601.287	4.43
601.623	4.21
601.959	4.45
602.296	4.53
602.632	4.36
602.968	4.73
603.304	4.56
603.64	4.17
603.976	4.49
604.312	4.62
604.648	4.54
604.984	4.65
605.319	4.53
605.655	4.37
605.991	4.5
606.326	4.51
606.662	4.26
606.998	4.35
607.333	4.52
607.668	4.55
608.004	4.49
608.339	4.27
608.674	4.45
609.01	4.54
609.345	4.31
609.68	4.66
610.015	4.41
610.35	4.45
610.685	4.64
611.02	4.58
611.355	4.61
611.689	4.48
612.024	4.47
612.359	4.28
612.694	4.51
613.028	4.46
613.363	4.3
613.697	4.2
614.032	4.37
614.366	4.26
614.7	4.49
615.035	4.51
615.369	4.49
615.703	4.59
616.037	4.55
616.371	4.48
616.705	4.82
617.039	4.53
617.373	4.66
617.707	4.36
618.041	4.56
618.375	4.51
618.709	4.31
619.042	4.85
619.376	4.7
619.71	4.8
620.043	4.14
620.377	4.38
620.71	4.48
621.043	5.03
621.377	4.26
621.71	4.41
622.043	4.51
622.376	4.67
622.709	4.72
623.043	4.27
623.376	4.41
623.709	4.48
624.041	4.54
624.374	4.69
624.707	4.79
625.04	4.62
625.373	4.06
625.705	4.54
626.038	4.16
626.37	4.54
626.703	4.55
627.035	4.41
627.368	4.53
627.7	4.69
628.032	4.86
628.365	4.44
628.697	4.66
629.029	4.31
629.361	4.68
629.693	4.63
630.025	4.63
630.357	4.38
630.689	4.5
631.021	4.47
631.353	4.22
631.684	4.74
632.016	4.67
632.348	4.55
632.679	4.19
633.011	4.57
633.342	4.55
633.674	4.56
634.005	4.21
634.336	4.4
634.668	4.87
634.999	4.72
635.33	4.78
635.661	4.38
635.992	4.52
636.323	4.55
636.654	4.55
636.985	4.48
637.316	4.37
637.647	4.65
637.977	4.2
638.308	4.75
638.639	4.67
638.969	4.62
639.3	4.67
639.63	4.86
639.961	4.44
640.291	4.5
640.622	4.61
640.952	4.59
641.282	4.71
641.612	4.38
641.943	4.96
642.273	4.58
642.603	4.79
642.933	4.33
643.263	3.92
643.592	4.57
643.922	4.7
644.252	4.52
644.582	5.14
644.911	4.9
645.241	4.79
645.571	4.35
645.9	4.69
646.23	4.94
646.559	4.39
646.888	4.78
647.218	4.46
647.547	4.66
647.876	4.44
648.205	4.18
648.534	5.01
648.863	4.56
649.192	4.22
649.521	4.87
649.85	4.48
650.179	4.23
650.508	4.35
650.837	5.04
651.165	4.59
651.494	4.44
651.822	4.77
652.151	4.14
652.479	4.93
652.808	4.03
653.136	4.91
653.465	4.37
653.793	4.17
654.121	4.97
654.449	4.47
654.777	4.85
655.105	4.61
655.433	4.36
655.761	4.76
656.089	4.71
656.417	4.28
656.745	4.59
657.073	4.65
657.4	5.43
657.728	4.95
658.056	4.66
658.383	5.09
658.711	4.35
659.038	4.21
659.365	5.03
659.693	4.37
660.02	4.8
660.347	5.35
660.674	4.48
661.001	4.44
661.329	4.63
661.656	4.84
661.982	4.42
662.309	4.79
662.636	4.41
662.963	4.71
663.29	4.91
663.616	4.81
663.943	4.69
664.27	4.91
664.596	4.56
664.923	4.26
665.249	4.34
665.576	4.91
665.902	4.79
666.228	4.84
666.554	4.5
666.881	5.36
667.207	4.84
667.533	4.62
667.859	4.68
668.185	5.14
668.511	4.89
668.837	4.33
669.162	5.41
669.488	4.89
669.814	4.46
670.139	4.94
670.465	5.1
670.791	4.34
671.116	4.24
671.442	4.91
671.767	4.56
672.092	4.92
672.418	5.15
672.743	4.45
673.068	4.5
673.393	4.44
673.718	4.94
674.043	5.12
674.368	5.16
674.693	4.86
675.018	4.44
675.343	5.08
675.667	5.3
675.992	4.67
676.317	5.45
676.641	4.81
676.966	5.09
677.29	4.59
677.615	4.68
677.939	5.25
678.264	4.75
678.588	5.77
678.912	4.83
679.236	4.59
679.56	4.55
679.885	4.81
680.209	5.57
680.532	4.63
680.856	4.64
681.18	4.86
681.504	5.27
681.828	4.83
682.152	4.55
682.475	5.64
682.799	5.28
683.122	4.99
683.446	5.42
683.769	5.36
684.093	4.89
684.416	5.03
684.739	5.05
685.062	5.52
685.386	4.83
685.709	4.86
686.032	4.44
686.355	4.29
686.678	4.53
687.001	5.29
687.324	5.4
687.646	4.65
687.969	5.57
688.292	4.89
688.614	5.35
688.937	5.43
689.26	4.91
689.582	5.36
689.904	4.78
690.227	5.67
690.549	5.28
690.871	5.14
691.194	5.4
691.516	4.84
691.838	5.58
692.16	4.75
692.482	5.33
692.804	4.64
693.126	4.18
693.448	5.58
693.769	5.23
694.091	5.45
694.413	6.13
694.735	4.87
695.056	5.86
695.378	5.57
695.699	4.97
696.021	4.78
696.342	5.84
696.663	4.63
696.984	4.72
697.306	5.44
697.627	4.26
697.948	5.14
698.269	4.96
698.59	5.01
698.911	5.66
699.232	5.11
699.553	5.38
699.873	6.18
700.194	5.25
700.515	5.01
700.835	5.99
701.156	5.42
701.477	5.3
701.797	4.86
702.117	5.15
702.438	5.32
702.758	4.67
703.078	4.94
703.398	6.06
703.719	5.16
704.039	6.21
704.359	4.9
704.679	3.69
704.999	4.83
705.319	5.4
705.638	4.93
705.958	5.17
706.278	6.04
706.597	6.21
706.917	5.8
707.237	4.95
707.556	5.05
707.876	4.54
708.195	5.94
708.514	6.85
708.834	4.7
709.153	5.62
709.472	5.05
709.791	5.38
710.11	5.54
710.429	6.19
710.748	5.48
711.067	5.12
711.386	5.31
711.705	5.79
712.023	5.62
712.342	5.88
712.661	5.82
712.979	5.5
713.298	6.77
713.616	4.68
713.935	6.12
714.253	6.61
714.572	6.23
714.89	6.62
715.208	5.82
715.526	4.66
715.844	5.94
716.162	4.96
716.48	5.84
716.798	4.79
717.116	5.43
717.434	4.23
717.752	5.54
718.069	5.07
718.387	6.4
718.705	5.7
719.022	6.19
719.34	6.09
719.657	3.99
719.975	6.34
720.292	5.76
720.609	6.1
720.927	6.15
721.244	5.2
721.561	6.86
721.878	5.25
722.195	5.34
722.512	6.38
722.829	6.71
723.146	5.45
723.463	4.58
723.779	5.66
724.096	4.35
724.413	7.34
724.729	5.61
725.046	5.52
725.362	5.85
725.679	5.89
725.995	6.86
726.311	4.24
726.628	5.39
726.944	5.86
727.26	6.7
727.576	5.34
727.892	3.73
728.208	5.56
728.524	6.23
728.84	5.55
729.156	6.7
729.472	7.8
729.787	6.47
730.103	5.72
730.419	6.24
730.734	5.29
731.05	5.18
731.365	6.02
731.681	5.65
731.996	6.23
732.311	6.22
732.626	5.15
732.942	5.11
733.257	5.89
733.572	5.61
733.887	5.6
734.202	6.11
734.517	5.7
734.832	6.9
735.146	6.32
735.461	6.64
735.776	5.36
736.091	6.14
736.405	5.82
736.72	5.71
737.034	4.17
737.349	4.5
737.663	5.53
737.977	6.91
738.292	5.77
738.606	5.84
738.92	6.45
739.234	7.39
739.548	5.91
739.862	4.18
740.176	5.47
740.49	5.81
740.804	6.47
741.117	5.7
741.431	6.07
741.745	6.96
742.058	4.9
742.372	5.3
742.685	6.09
742.999	6.6
743.312	6.49
743.626	4.64
743.939	5.39
744.252	6.02
744.565	4.68
744.878	6.24
745.191	6.89
745.505	4.81
745.817	6.51
746.13	6.43
746.443	6.58
746.756	4.97
747.069	6.95
747.381	3.78
747.694	5.12
748.007	6.65
748.319	5.29
748.632	7.13
748.944	6.09
749.256	5.8
749.569	5.55
749.881	5.93
750.193	6.13
750.505	6.12
750.817	7.68
751.129	4.87
751.441	7.51
751.753	6.99
752.065	7.59
752.377	6.03
752.689	5.67
753	5.06
753.312	7.2
753.624	6.15
753.935	7.47
754.247	5.9
754.558	7.81
754.869	6.03
755.181	4.51
755.492	5.82
755.803	8.13
756.114	7.29
756.425	7.88
756.736	6.38
757.047	6.33
757.358	5.95
757.669	6.25
757.98	7.55
758.291	6.06
758.601	7.56
758.912	6.61
759.223	8.63
759.533	6.95
759.844	6.97
760.154	6.14
760.464	4.84
760.775	6.1
761.085	8.37
761.395	6.88
761.705	7.37
762.016	4.81
762.326	6.22
762.636	7.45
762.945	6.22
763.255	3.85
763.565	5.45
763.875	5.69
764.185	6.31
764.494	6.82
764.804	7.21
765.113	5.4
765.423	6.6
765.732	6.37
766.042	7.34
766.351	6.97
766.66	5.71
766.97	6.45
767.279	6.73
767.588	6.88
767.897	6.79
768.206	7.29
768.515	6.81
768.824	5.59
769.133	7.22
769.441	7.32
769.75	10.31
770.059	8.4
770.367	7.42
770.676	7.94
770.984	5.06
771.293	7.58
771.601	5.71
771.91	7.83
772.218	7.08
772.526	5.4
772.834	6.68
773.142	6.07
773.45	7.45
773.758	5.49
774.066	8.92
774.374	5.79
774.682	6.49
774.99	5.77
775.298	8.73
775.605	8.4
775.913	10.13
776.22	7.33
776.528	4.19
776.835	6.76
777.143	10.7
777.45	8.11
777.757	4.95
778.065	8.25
778.372	9.33
778.679	6.57
778.986	7.7
779.293	6.66
779.6	6.24
779.907	9.57
780.214	11.41
780.52	3.96
780.827	7.23
781.134	10.22
781.44	7.93
781.747	5.4
782.053	8.26
782.36	5.31
782.666	6.42
782.973	11.01
783.279	10.12
783.585	7.08
783.891	6.93
784.197	6.47
784.503	5.28
784.809	3.36
785.115	7.55
785.421	9.95
785.727	11.38
786.033	9.16
786.339	7.66
786.644	8.7
786.95	7.5
787.255	5.98
787.561	10.45
787.866	7.5
788.172	5.16
788.477	7.05
788.782	8.42
789.088	8.51
789.393	4.94
789.698	10.27
790.003	9.41
790.308	3.04
790.613	7.84
790.918	9.36
791.223	6.13
791.527	3.04
791.832	8
792.137	7.2
792.441	11.46
792.746	8.91
793.05	6.72
793.355	11.59
793.659	9.09
793.963	11.09
794.268	8.96
794.572	5.94
794.876	6.65
795.18	8.67
795.484	5.79
795.788	8.63
796.092	7.52
796.396	9.83
796.7	9.46
797.004	8.19
797.307	4.25
797.611	5.59
797.915	7.11
798.218	11.17
798.522	7.13
798.825	9.55
799.128	14.99
799.432	7.32
799.735	6.62
800.038	10.58
800.341	6.99
800.644	12.19
800.947	10.14
801.25	8.36
801.553	11.35
801.856	16.52
802.159	8.34
802.462	5.13
802.764	7.47
803.067	11.26
803.37	12.04
803.672	4.97
803.975	8.66
804.277	17.01
804.579	9.16
804.882	7.29
805.184	5.69
805.486	11.48
805.788	7.77
806.09	12.13
806.392	8.18
806.694	10.88
806.996	7.34
807.298	6.1
807.6	9.56
807.902	10.72
808.203	7.6
808.505	10.58
808.807	7.05
809.108	8.67
809.409	10.1
809.711	10.24
810.012	11.56
810.313	3.68
810.615	7.45
810.916	5.08
811.217	9.55
811.518	13.97
811.819	12.69
812.12	8.85
812.421	8.08
812.722	10.15
813.023	10.39
813.323	10.76
813.624	12
813.925	9.19
814.225	12.47
814.526	4.28
814.826	6.79
815.126	7.7
815.427	9.71
815.727	9.88
816.027	0.51
816.327	8.87
816.627	9.86
816.927	11.01
817.227	3.89
817.527	7.55
817.827	9.01
818.127	11.27
818.427	13.08
818.727	8.46
819.026	13.56
819.326	4.04
819.625	12.2
819.925	2.34
820.224	12.44
820.524	4.87
820.823	6.89
821.122	5.93
821.421	9.77
821.72	11.48
822.019	6.5
822.318	9.76
822.617	7.9
822.916	8.74
823.215	9.56
823.514	8.13
823.813	12.28
824.111	12.27
824.41	10.69
824.709	6.54
825.007	9.36
825.306	8.66
825.604	8.1
825.902	9.3
826.201	8.37
826.499	9.13
826.797	8.88
827.095	9.15
827.393	9.28
827.691	8.72
827.989	8.02
828.287	8.95
828.585	8.81
828.882	6.99
829.18	9.11
829.478	8.13
829.775	8.64
830.073	7.51
830.37	5.45
830.668	9.24
830.965	10.09
831.263	6.19
831.56	8.01
831.857	8.49
832.154	10.92
832.451	11.16
832.748	9.8
833.045	10.59
833.342	9.33
833.639	7.74
833.936	13.09
834.232	10.57
834.529	7.57
834.826	9.52
835.122	12.82
835.419	4.05
835.715	10.86
836.012	11.27
836.308	15.94
836.604	12.33
836.901	6.88
837.197	10.73
837.493	9.73
837.789	8.6
838.085	8.19
838.381	6.06
838.677	8
838.972	12.64
839.268	9.25
839.564	12.26
839.86	11.87
840.155	4.95
840.451	5.15
840.746	7.13
841.042	10.26
841.337	14.59
841.632	5.85
841.928	9.92
842.223	4.43
842.518	17.94
842.813	8.02
843.108	3.51
843.403	14.58
843.698	12.44
843.993	8
844.287	12.82
844.582	-2.15
844.877	6.15
845.171	21.82
845.466	11.29
845.761	12.14
846.055	10.24
846.349	6.6
846.644	9.37
846.938	-4.1
847.232	-3.22
847.526	6.86
847.82	9.5
848.114	8.36
848.408	17.16
848.702	7.93
848.996	4.25
849.29	6.08
849.584	14.77
849.877	17.41
850.171	3.22
850.465	12.69
850.758	13.18
851.052	-2.8
851.345	16.91
851.638	12.28
851.932	31.83
852.225	30.73
852.518	15.02
852.811	9.12
853.104	22.26
853.397	4.88
853.69	10.24
853.983	23.87
854.276	2.14
854.569	15.97
854.861	4.41
855.154	12.99
855.447	-11.85
855.739	-28.55
856.032	10.93
856.324	23.65
856.616	12.63
856.909	9.35
857.201	1.79
857.493	11.71
857.785	39.02
858.077	25.87
858.369	7.7
858.661	23.97
858.953	23.01
859.245	15.12
859.537	17.92
859.829	10.92
860.12	6.66
860.412	14.38
860.703	-3.96
860.995	-4.8
861.286	24.17
861.578	10.94
861.869	7.69
862.16	13.91
862.452	-34.41
862.743	22.47
863.034	46.92
863.325	29.01
863.616	10.58
863.907	28.14
864.198	2.06
864.488	-3.5
864.779	-17.8
865.07	17.67
865.36	-21.77
865.651	12.02
865.941	14.5
866.232	35.87
866.522	33.96
866.813	15.43
867.103	23.91
867.393	1.64
867.683	0.05
867.973	19.43
868.263	-10.63
868.553	-8.53
868.843	17.88
869.133	26.58
869.423	4.22
869.713	-0.08
870.002	30.1
870.292	9.21
870.582	25.76
870.871	3.98
871.161	-2.56
871.45	-0.02
871.739	15.32
872.029	11.49
872.318	16.61
872.607	3.08
872.896	-18.81
873.185	28.21
873.474	17.95
873.763	-5.04
874.052	18.41
874.341	29.45
874.63	7.04
874.918	15.76
875.207	37.15
875.496	19.09
875.784	-2.61
876.073	6.1
876.361	13.13
876.649	13.03
876.938	31
877.226	-24.83
877.514	14.46
877.802	10.19
878.09	23.21
878.378	28.2
878.666	32.01
878.954	24.83
879.242	-4.38
879.53	0.87
879.817	13.99
880.105	-28.46
880.392	-32.29
880.68	-2.3
880.967	41.88
881.255	35.83
881.542	1.62
881.83	25.24
882.117	12.84
882.404	38.7
882.691	7.47
882.978	8.53
883.265	15.88
883.552	22.38
883.839	-7.65
884.126	15.66
884.413	-5.74
884.699	14.62
884.986	13.91
885.273	9.02
885.559	9.02
885.846	9.02
