Data from 0220_forehead_Reflection__1__231.txt Node

Date: Fri Sep 22 22:39:53 CDT 2023
User: ToomeyLab
Spectrometer: FLMS14357
Trigger mode: 0
Integration Time (sec): 1.000000E-2
Scans to average: 100
Electric dark correction enabled: true
Nonlinearity correction enabled: false
Boxcar width: 0
XAxis mode: Wavelengths
Number of Pixels in Spectrum: 2048
>>>>>Begin Spectral Data<<<<<
189.047	-479.56
189.435	-479.56
189.823	-479.56
190.211	-360.62
190.599	15.25
190.987	194.52
191.375	111.63
191.763	177.35
192.151	5.66
192.538	-13.97
192.926	88.41
193.314	897.56
193.702	89.49
194.089	202.24
194.477	-96.99
194.864	942.43
195.252	262.91
195.639	42.7
196.027	32.21
196.414	249.69
196.801	-52.15
197.189	-35.48
197.576	-0.16
197.963	-14.36
198.351	17.84
198.738	15.5
199.125	47.82
199.512	18.99
199.899	62.85
200.286	39.29
200.673	5.36
201.06	52.07
201.447	33.9
201.833	-9.56
202.22	69.76
202.607	57.64
202.994	42.63
203.38	44.98
203.767	32.92
204.154	32.39
204.54	57.97
204.927	49.06
205.313	70.7
205.699	55.04
206.086	34.23
206.472	83.62
206.858	62.73
207.245	12.77
207.631	41.92
208.017	39.73
208.403	12.47
208.789	40.54
209.175	68.56
209.561	62.59
209.947	46.29
210.333	59.65
210.719	-8.63
211.105	70.51
211.491	8.53
211.876	55.43
212.262	39.86
212.648	3.29
213.034	36.96
213.419	49.5
213.805	16.61
214.19	32.23
214.576	45.9
214.961	28.58
215.346	28.05
215.732	35.51
216.117	13.88
216.502	45.36
216.888	22.15
217.273	41.06
217.658	24.47
218.043	27.93
218.428	42.98
218.813	-4.58
219.198	18.82
219.583	21.54
219.968	24.15
220.353	30.03
220.738	21.19
221.122	17.87
221.507	26.21
221.892	-16.38
222.276	14.12
222.661	-17.26
223.046	19.19
223.43	25.02
223.815	16.04
224.199	11.14
224.583	9.63
224.968	19.64
225.352	6.22
225.736	10.82
226.121	7.13
226.505	2.7
226.889	4.16
227.273	15.47
227.657	11.9
228.041	8.43
228.425	14
228.809	5.76
229.193	8.07
229.577	8.12
229.961	6.06
230.344	6.62
230.728	3.76
231.112	4.43
231.495	3.38
231.879	4
232.263	2.82
232.646	3.34
233.03	3.91
233.413	4.81
233.797	4.41
234.18	4.56
234.563	7.92
234.946	8.5
235.33	3.58
235.713	3.47
236.096	2.17
236.479	5.57
236.862	6.7
237.245	5.41
237.628	4.1
238.011	6.8
238.394	5.42
238.777	5.88
239.16	3.32
239.543	4.22
239.925	6.77
240.308	5.67
240.691	6.91
241.073	5.5
241.456	6.27
241.838	3.94
242.221	4.98
242.603	5.24
242.986	4.18
243.368	3.29
243.75	3.86
244.133	4.42
244.515	3.87
244.897	3.56
245.279	3.53
245.661	3.84
246.043	4.14
246.425	4
246.807	3.48
247.189	4.01
247.571	5.45
247.953	4.48
248.335	4.1
248.717	4.22
249.098	3.81
249.48	3.4
249.862	3.55
250.243	3.71
250.625	3.83
251.006	3.71
251.388	4.34
251.769	5.05
252.151	3.65
252.532	4.11
252.913	5.16
253.295	5.12
253.676	3.94
254.057	4.62
254.438	4.71
254.819	3.88
255.2	4.26
255.581	3.53
255.962	5.03
256.343	3.52
256.724	4.36
257.105	5.12
257.486	5.09
257.867	5.44
258.247	5.06
258.628	4.82
259.009	4.2
259.389	3.5
259.77	4.88
260.15	4.74
260.531	3.89
260.911	3.95
261.292	3.93
261.672	3.46
262.052	3.67
262.432	3.85
262.813	4.01
263.193	4.03
263.573	4.36
263.953	3.78
264.333	4.74
264.713	3.58
265.093	3.87
265.473	4.54
265.853	3.68
266.233	3.91
266.612	3.92
266.992	4.1
267.372	4.74
267.752	4.73
268.131	3.63
268.511	3.78
268.89	4.18
269.27	4.03
269.649	4.05
270.029	3.72
270.408	4.25
270.787	4.44
271.167	4.31
271.546	3.99
271.925	3.84
272.304	3.63
272.683	4.57
273.062	4.7
273.441	4.37
273.82	4.31
274.199	3.93
274.578	3.9
274.957	3.66
275.336	3.87
275.715	3.74
276.093	3.45
276.472	3.51
276.851	3.55
277.229	3.46
277.608	4.3
277.986	3.73
278.365	4.55
278.743	3.7
279.122	4.24
279.5	4.55
279.878	4.08
280.257	4.59
280.635	3.87
281.013	3.93
281.391	3.89
281.769	3.84
282.147	4.67
282.525	3.9
282.903	4
283.281	4.51
283.659	4.3
284.037	3.86
284.415	4.3
284.792	3.93
285.17	3.71
285.548	4.45
285.925	3.95
286.303	3.85
286.68	3.51
287.058	3.69
287.435	4.34
287.813	3.9
288.19	3.5
288.567	4.6
288.945	3.83
289.322	4.35
289.699	3.82
290.076	4.67
290.453	3.9
290.83	3.81
291.207	4.49
291.584	4.23
291.961	4.32
292.338	4.28
292.715	4.76
293.092	3.97
293.469	4.58
293.845	4.8
294.222	4.68
294.599	4.73
294.975	5.05
295.352	5.07
295.728	5.28
296.105	4.56
296.481	4.74
296.858	4.92
297.234	4.54
297.61	4.8
297.986	5.19
298.363	5.12
298.739	5.09
299.115	5.11
299.491	4.98
299.867	5.08
300.243	4.82
300.619	4.79
300.995	5.66
301.371	5.74
301.746	5.7
302.122	5.34
302.498	5.47
302.874	5.85
303.249	5.48
303.625	5.32
304	6.11
304.376	6.05
304.751	5.94
305.127	6.34
305.502	6.14
305.878	6.77
306.253	5.97
306.628	6.01
307.003	6
307.378	6.17
307.754	6.11
308.129	6.77
308.504	6.41
308.879	6.5
309.254	6.68
309.629	6.72
310.003	6.95
310.378	7.5
310.753	6.87
311.128	6.9
311.502	6.58
311.877	6.61
312.252	6.73
312.626	6.85
313.001	7.29
313.375	6.99
313.75	7.4
314.124	7.19
314.498	7
314.873	7.36
315.247	7.79
315.621	7.74
315.995	7.54
316.369	7.35
316.743	7.48
317.117	8.01
317.491	7.83
317.865	7.28
318.239	7.73
318.613	8.49
318.987	8.03
319.361	8.02
319.734	8.34
320.108	8.84
320.482	8.08
320.855	7.88
321.229	8.8
321.602	8
321.976	7.72
322.349	8.31
322.723	9.29
323.096	9.28
323.469	9
323.843	9.06
324.216	9.04
324.589	8.96
324.962	8.69
325.335	8.55
325.708	9.28
326.081	9.25
326.454	9.04
326.827	9.61
327.2	9.5
327.573	9.86
327.945	9.32
328.318	9.65
328.691	9.55
329.063	9.06
329.436	9.83
329.809	9.65
330.181	9.92
330.553	9.66
330.926	10.11
331.298	10.03
331.671	10.07
332.043	9.31
332.415	9.72
332.787	9.98
333.159	9.74
333.532	9.51
333.904	10.63
334.276	10.02
334.648	9.78
335.02	10.17
335.391	10.25
335.763	10.89
336.135	10.88
336.507	10.83
336.879	10.28
337.25	10.37
337.622	10.92
337.993	10.97
338.365	11.19
338.736	11.3
339.108	10.95
339.479	11.2
339.851	10.34
340.222	10.67
340.593	10.9
340.964	11
341.336	11.02
341.707	10.95
342.078	11.32
342.449	11.08
342.82	11.2
343.191	10.86
343.562	11.43
343.933	11.4
344.303	11.02
344.674	11.42
345.045	12.24
345.416	12.05
345.786	11.7
346.157	11.82
346.527	11.93
346.898	11.7
347.268	11.77
347.639	12.18
348.009	11.81
348.38	12.1
348.75	12.4
349.12	12.23
349.49	12.72
349.861	12.03
350.231	12.39
350.601	12.03
350.971	12.44
351.341	12.15
351.711	12.18
352.081	12.43
352.45	12.53
352.82	12.33
353.19	12.79
353.56	12.8
353.929	12.71
354.299	13.22
354.669	12.79
355.038	13.22
355.408	13.05
355.777	13.52
356.147	12.88
356.516	13.11
356.885	13.1
357.254	13.49
357.624	13.08
357.993	13.32
358.362	13.49
358.731	13.23
359.1	13.44
359.469	13.34
359.838	13.19
360.207	13.41
360.576	13.53
360.945	13.84
361.314	13.89
361.682	14.26
362.051	14.08
362.42	13.63
362.788	13.85
363.157	14.4
363.525	13.73
363.894	13.96
364.262	13.8
364.631	13.72
364.999	13.82
365.367	14.51
365.735	14.23
366.104	14.21
366.472	14.98
366.84	14.28
367.208	14.82
367.576	14.79
367.944	14.32
368.312	14.76
368.68	14.72
369.048	15.13
369.416	14.79
369.783	14.69
370.151	14.74
370.519	15.06
370.886	15.14
371.254	15.21
371.621	14.9
371.989	15.33
372.356	15.12
372.724	15.58
373.091	15.28
373.458	15.31
373.826	15.52
374.193	15.9
374.56	15.74
374.927	16.16
375.294	15.42
375.661	15.69
376.028	16.08
376.395	15.96
376.762	15.91
377.129	15.99
377.496	16.46
377.863	16.33
378.229	16.41
378.596	16.29
378.963	16.48
379.329	15.94
379.696	16.37
380.062	16.14
380.429	16.23
380.795	16.74
381.161	16.21
381.528	16.67
381.894	16.52
382.26	16.77
382.626	16.65
382.993	16.78
383.359	16.85
383.725	17.01
384.091	17.22
384.457	17.12
384.823	17.03
385.188	17.26
385.554	16.99
385.92	17.55
386.286	17.4
386.651	17.27
387.017	17.64
387.383	17.22
387.748	17.16
388.114	17.56
388.479	17.83
388.845	17.07
389.21	17.73
389.575	18.08
389.94	17.52
390.306	17.75
390.671	18.21
391.036	17.9
391.401	17.84
391.766	17.8
392.131	18.28
392.496	18.26
392.861	18.08
393.226	18.25
393.591	18.35
393.956	18.32
394.32	18.08
394.685	18.3
395.05	18.69
395.414	18.67
395.779	18.28
396.143	18.38
396.508	18.55
396.872	18.42
397.236	18.92
397.601	18.61
397.965	18.9
398.329	18.59
398.694	19.05
399.058	18.71
399.422	18.85
399.786	18.92
400.15	19.24
400.514	19.42
400.878	19.51
401.242	19.3
401.605	19.19
401.969	19.31
402.333	19.22
402.697	19.2
403.06	19.04
403.424	19.42
403.787	19.83
404.151	19.78
404.514	19.64
404.878	19.89
405.241	20.14
405.604	20.01
405.968	20
406.331	19.88
406.694	19.77
407.057	19.81
407.42	20.06
407.783	19.89
408.146	19.93
408.509	19.9
408.872	20.1
409.235	20.53
409.598	20.5
409.961	20.67
410.323	20.62
410.686	20.64
411.049	20.87
411.411	20.85
411.774	20.56
412.136	20.39
412.499	20.71
412.861	20.82
413.223	20.72
413.586	20.91
413.948	20.86
414.31	20.65
414.672	20.85
415.035	21.1
415.397	21.42
415.759	21.45
416.121	20.83
416.483	21.19
416.845	21.19
417.206	21.42
417.568	21.46
417.93	21.34
418.292	21.18
418.653	21.29
419.015	21.55
419.377	21.33
419.738	21.5
420.1	21.38
420.461	21.51
420.822	21.55
421.184	21.43
421.545	21.49
421.906	21.58
422.267	21.53
422.629	21.62
422.99	21.58
423.351	21.47
423.712	21.5
424.073	21.6
424.434	21.7
424.795	21.7
425.155	21.86
425.516	21.9
425.877	21.94
426.238	21.95
426.598	21.87
426.959	21.97
427.32	22.03
427.68	22.19
428.041	22.05
428.401	22.34
428.761	22.59
429.122	22.49
429.482	22.66
429.842	22.8
430.202	22.68
430.563	22.7
430.923	23.25
431.283	23.12
431.643	23.25
432.003	23.11
432.363	23.25
432.722	23.21
433.082	23.5
433.442	23.03
433.802	23.57
434.161	23.43
434.521	23.53
434.881	23.42
435.24	23.36
435.6	23.35
435.959	23.27
436.319	23.51
436.678	23.66
437.037	23.71
437.396	23.63
437.756	23.73
438.115	23.91
438.474	23.86
438.833	24.04
439.192	23.96
439.551	23.92
439.91	24.19
440.269	24.08
440.628	24.05
440.987	24.08
441.345	24.16
441.704	24.11
442.063	24.2
442.421	24.12
442.78	24.26
443.138	24.14
443.497	24.15
443.855	24.39
444.214	24.14
444.572	24.73
444.93	24.62
445.288	24.61
445.647	24.73
446.005	24.58
446.363	24.7
446.721	24.82
447.079	24.54
447.437	24.9
447.795	24.89
448.153	24.61
448.51	24.61
448.868	24.64
449.226	24.71
449.584	24.67
449.941	24.77
450.299	25.05
450.656	25.07
451.014	25.21
451.371	25.21
451.729	25.48
452.086	25.42
452.443	25.56
452.801	25.69
453.158	25.85
453.515	25.75
453.872	25.65
454.229	25.87
454.586	25.95
454.943	25.91
455.3	25.8
455.657	25.95
456.014	25.96
456.371	26.08
456.727	26.29
457.084	26.16
457.441	26.1
457.797	26.24
458.154	26.22
458.51	26.09
458.867	26.33
459.223	26.34
459.58	26.52
459.936	26.7
460.292	26.8
460.648	26.62
461.005	26.36
461.361	26.56
461.717	26.3
462.073	26.23
462.429	26.28
462.785	26.38
463.141	26.46
463.496	26.67
463.852	26.77
464.208	26.83
464.564	27.05
464.919	26.99
465.275	27.38
465.631	27.4
465.986	27.32
466.342	27.35
466.697	27.39
467.052	27.33
467.408	27.31
467.763	27.67
468.118	27.71
468.473	27.67
468.829	27.65
469.184	27.6
469.539	27.79
469.894	27.65
470.249	27.8
470.603	27.84
470.958	27.92
471.313	28.04
471.668	27.9
472.023	27.92
472.377	28.21
472.732	28.01
473.086	28.2
473.441	28.22
473.795	28.56
474.15	28.31
474.504	28.24
474.859	28.37
475.213	28.17
475.567	28.31
475.921	28.47
476.275	28.55
476.63	28.46
476.984	28.45
477.338	28.49
477.692	28.58
478.045	28.67
478.399	28.56
478.753	28.83
479.107	28.7
479.461	28.79
479.814	28.93
480.168	28.91
480.521	28.89
480.875	28.99
481.228	28.97
481.582	29.01
481.935	29.01
482.289	29
482.642	29.03
482.995	29.21
483.348	29.05
483.701	29
484.055	28.91
484.408	28.93
484.761	28.88
485.114	28.61
485.466	28.37
485.819	28.18
486.172	28.1
486.525	28.2
486.878	28.24
487.23	28.32
487.583	28.48
487.936	28.79
488.288	28.86
488.641	29.07
488.993	28.81
489.345	28.69
489.698	28.64
490.05	28.59
490.402	28.73
490.754	28.78
491.107	29.02
491.459	29.07
491.811	29.29
492.163	29.38
492.515	29.49
492.866	29.63
493.218	29.55
493.57	29.36
493.922	29.2
494.274	29.29
494.625	29.41
494.977	29.51
495.328	29.78
495.68	29.98
496.031	30.09
496.383	30.32
496.734	30.59
497.086	30.61
497.437	30.77
497.788	30.48
498.139	30.8
498.49	31.01
498.842	30.53
499.193	30.7
499.544	30.67
499.894	30.69
500.245	30.73
500.596	30.91
500.947	30.9
501.298	30.95
501.648	31.17
501.999	31.14
502.35	31.21
502.7	31.33
503.051	31.4
503.401	31.31
503.752	31.63
504.102	31.68
504.452	31.59
504.803	31.57
505.153	31.67
505.503	31.65
505.853	31.74
506.203	31.67
506.553	31.72
506.903	31.45
507.253	31.66
507.603	31.73
507.953	31.89
508.303	31.97
508.652	32.1
509.002	32.2
509.352	32.02
509.701	32.06
510.051	32.06
510.4	32.22
510.75	32.1
511.099	31.99
511.449	32.07
511.798	32.21
512.147	32.04
512.496	32.12
512.846	32.13
513.195	32.11
513.544	32.18
513.893	32.44
514.242	32.28
514.591	32.35
514.939	32.27
515.288	32.27
515.637	32.63
515.986	32.43
516.334	32.65
516.683	32.82
517.032	32.81
517.38	32.58
517.729	32.78
518.077	32.96
518.426	33
518.774	33.13
519.122	32.87
519.47	32.86
519.819	32.86
520.167	32.79
520.515	32.72
520.863	32.7
521.211	32.71
521.559	32.77
521.907	32.72
522.255	32.86
522.602	33.03
522.95	33.08
523.298	33.12
523.645	33.34
523.993	33.23
524.341	33.33
524.688	33.51
525.036	33.58
525.383	33.82
525.73	33.67
526.078	33.53
526.425	33.69
526.772	33.49
527.119	33.51
527.466	33.41
527.814	33.18
528.161	33.21
528.508	33.32
528.854	33.27
529.201	33.38
529.548	33.4
529.895	33.31
530.242	33.05
530.588	32.85
530.935	32.93
531.282	32.92
531.628	33.02
531.975	33.03
532.321	33.17
532.667	33.41
533.014	33.48
533.36	33.6
533.706	33.82
534.052	34.05
534.399	33.85
534.745	33.93
535.091	33.68
535.437	33.68
535.783	33.55
536.129	33.77
536.474	33.75
536.82	33.94
537.166	34.09
537.512	34.21
537.857	34.43
538.203	34.54
538.549	34.47
538.894	34.21
539.239	34.32
539.585	34.36
539.93	34.66
540.276	34.54
540.621	34.7
540.966	34.9
541.311	35.05
541.656	35.02
542.001	35.16
542.346	34.99
542.691	35.09
543.036	34.64
543.381	34.52
543.726	34.33
544.071	34.37
544.415	34.35
544.76	34.39
545.105	34.53
545.449	34.75
545.794	34.79
546.138	34.91
546.483	35.11
546.827	35.19
547.171	35.41
547.516	35.4
547.86	35.54
548.204	35.53
548.548	35.54
548.892	35.5
549.236	35.63
549.58	35.69
549.924	35.64
550.268	35.85
550.612	35.88
550.956	36.1
551.3	36.24
551.643	36.07
551.987	36.37
552.33	36.36
552.674	36.42
553.017	36.33
553.361	36.46
553.704	36.6
554.048	36.6
554.391	36.97
554.734	36.85
555.077	36.63
555.42	36.63
555.764	36.51
556.107	36.71
556.45	36.92
556.793	36.84
557.135	36.68
557.478	36.63
557.821	37.03
558.164	36.96
558.507	37.13
558.849	37.06
559.192	37.44
559.534	37.27
559.877	37.23
560.219	37.16
560.562	37.19
560.904	37.35
561.246	37.37
561.589	37.4
561.931	37.46
562.273	37.35
562.615	37.35
562.957	37.53
563.299	37.43
563.641	37.51
563.983	37.61
564.325	37.57
564.667	37.69
565.008	37.72
565.35	37.75
565.692	37.8
566.033	38.03
566.375	37.65
566.716	37.86
567.058	38.02
567.399	37.79
567.741	38.04
568.082	37.6
568.423	37.94
568.764	37.88
569.105	37.7
569.447	37.73
569.788	37.78
570.129	38.04
570.47	38.04
570.811	38.3
571.151	38.23
571.492	38.13
571.833	38.09
572.174	38.27
572.514	38.27
572.855	38.4
573.195	38.38
573.536	38.31
573.876	38.33
574.217	38.19
574.557	38.1
574.898	38.41
575.238	38.07
575.578	38.42
575.918	38.55
576.258	38.44
576.598	38.55
576.938	38.72
577.278	38.68
577.618	38.37
577.958	38.71
578.298	38.79
578.638	38.48
578.977	38.84
579.317	38.81
579.657	39.04
579.996	38.92
580.336	39.03
580.675	39.18
581.014	38.91
581.354	39.18
581.693	39.34
582.032	39.35
582.372	39.54
582.711	39.28
583.05	39.33
583.389	39.64
583.728	39.78
584.067	39.66
584.406	39.33
584.745	39.49
585.083	39.75
585.422	39.89
585.761	39.78
586.1	40.01
586.438	39.93
586.777	39.72
587.115	40.02
587.454	40.01
587.792	40.01
588.13	40.04
588.469	40.19
588.807	39.78
589.145	39.94
589.483	40.16
589.821	39.97
590.159	40.06
590.497	40.26
590.835	40.64
591.173	40.33
591.511	39.92
591.849	40.51
592.187	39.91
592.524	40.32
592.862	40.34
593.2	40.27
593.537	40.26
593.875	40.41
594.212	40.19
594.55	40.8
594.887	40.36
595.224	40.13
595.561	40.49
595.899	40.81
596.236	41.05
596.573	40.87
596.91	40.61
597.247	40.79
597.584	40.94
597.921	41.11
598.258	40.88
598.594	40.92
598.931	40.84
599.268	40.73
599.604	40.73
599.941	40.77
600.277	40.49
600.614	40.71
600.95	40.82
601.287	40.61
601.623	41.12
601.959	41.15
602.296	40.89
602.632	41.07
602.968	41.09
603.304	41.34
603.64	41.43
603.976	41.39
604.312	41.36
604.648	41.13
604.984	41.5
605.319	41.21
605.655	41.14
605.991	41.1
606.326	41.19
606.662	40.89
606.998	41.43
607.333	41.02
607.668	41.04
608.004	41.02
608.339	40.91
608.674	41.52
609.01	41.26
609.345	41.91
609.68	41.89
610.015	41.62
610.35	41.53
610.685	42.06
611.02	41.86
611.355	41.91
611.689	41.64
612.024	41.65
612.359	41.78
612.694	41.41
613.028	41.51
613.363	41.67
613.697	41.81
614.032	42
614.366	41.75
614.7	42.07
615.035	42.01
615.369	41.61
615.703	41.95
616.037	41.9
616.371	42.79
616.705	42.52
617.039	42.33
617.373	42.09
617.707	42.31
618.041	42.43
618.375	42.26
618.709	42.51
619.042	42.63
619.376	42.72
619.71	42.58
620.043	42.47
620.377	42.92
620.71	43.21
621.043	42.36
621.377	42.59
621.71	42.44
622.043	42.45
622.376	42.82
622.709	42.76
623.043	42.32
623.376	42.71
623.709	42.77
624.041	42.89
624.374	43.43
624.707	43.24
625.04	43.46
625.373	42.69
625.705	43.18
626.038	43.03
626.37	43.44
626.703	43.31
627.035	43.07
627.368	43.25
627.7	42.75
628.032	43.64
628.365	43.09
628.697	42.92
629.029	42.86
629.361	42.82
629.693	42.98
630.025	43.58
630.357	43.57
630.689	43.36
631.021	43.07
631.353	43.05
631.684	43.28
632.016	43.9
632.348	43.71
632.679	43.95
633.011	43.2
633.342	43.44
633.674	43.78
634.005	43.76
634.336	43.63
634.668	43.64
634.999	43.82
635.33	43.32
635.661	43.75
635.992	43.39
636.323	44.03
636.654	43.79
636.985	43.44
637.316	44.67
637.647	44.11
637.977	43.99
638.308	43.52
638.639	43.72
638.969	44.62
639.3	44.16
639.63	44.27
639.961	43.97
640.291	44.22
640.622	43.74
640.952	44.14
641.282	44.24
641.612	44.03
641.943	44.52
642.273	44.56
642.603	44.34
642.933	44.66
643.263	43.59
643.592	44.21
643.922	44.48
644.252	44.45
644.582	44.64
644.911	45.02
645.241	44.51
645.571	44.35
645.9	44.92
646.23	44.68
646.559	44.19
646.888	44.15
647.218	44.58
647.547	44.47
647.876	44.48
648.205	44.7
648.534	44.98
648.863	44.68
649.192	44.84
649.521	44.68
649.85	45
650.179	44.76
650.508	44.13
650.837	44.74
651.165	44.86
651.494	44.99
651.822	44.47
652.151	44.88
652.479	45.32
652.808	44.54
653.136	45.73
653.465	45.53
653.793	44.74
654.121	44.86
654.449	44.33
654.777	45.4
655.105	45.44
655.433	44.72
655.761	45.19
656.089	45.02
656.417	44.72
656.745	45.44
657.073	45.64
657.4	45.14
657.728	45.31
658.056	45.84
658.383	45.38
658.711	45.51
659.038	45.05
659.365	45.09
659.693	44.95
660.02	45.45
660.347	46.12
660.674	45.25
661.001	44.92
661.329	45.78
661.656	45.92
661.982	45.17
662.309	45.63
662.636	45.58
662.963	45.37
663.29	46.19
663.616	45.51
663.943	45.28
664.27	45.74
664.596	46.38
664.923	45.4
665.249	45.5
665.576	45.66
665.902	45.9
666.228	45.8
666.554	46.34
666.881	45.87
667.207	45.51
667.533	45.98
667.859	46.4
668.185	46.76
668.511	46.44
668.837	46.04
669.162	46.67
669.488	45.83
669.814	45.8
670.139	46.09
670.465	45.72
670.791	46.36
671.116	46.02
671.442	46.67
671.767	45.84
672.092	46.48
672.418	46.26
672.743	45.91
673.068	46.5
673.393	45.86
673.718	46.61
674.043	46.57
674.368	47.19
674.693	46.48
675.018	46.55
675.343	46.43
675.667	47.53
675.992	46.47
676.317	46.56
676.641	46.76
676.966	46.67
677.29	46.51
677.615	46.98
677.939	46.44
678.264	46.81
678.588	46.88
678.912	46.09
679.236	47.42
679.56	46.35
679.885	46.85
680.209	47.17
680.532	47
680.856	46.71
681.18	47.59
681.504	47.21
681.828	46.75
682.152	46.95
682.475	47.49
682.799	46.6
683.122	47.29
683.446	47.07
683.769	46.59
684.093	47.42
684.416	47.12
684.739	46.71
685.062	47.12
685.386	46.6
685.709	47.02
686.032	46.78
686.355	46.62
686.678	47.16
687.001	47.66
687.324	47.3
687.646	47.33
687.969	47.25
688.292	47.29
688.614	47.17
688.937	46.24
689.26	46.94
689.582	47.31
689.904	47.84
690.227	47.72
690.549	47.48
690.871	45.77
691.194	47.06
691.516	47.14
691.838	47.81
692.16	47.27
692.482	47.36
692.804	47.38
693.126	46.95
693.448	47.22
693.769	47.87
694.091	47.82
694.413	46.95
694.735	47.38
695.056	48.7
695.378	47.43
695.699	47.86
696.021	46.93
696.342	48.78
696.663	47.1
696.984	48.48
697.306	48.35
697.627	46.97
697.948	48.06
698.269	48.32
698.59	47.64
698.911	48.13
699.232	48.14
699.553	48.36
699.873	49.1
700.194	48.06
700.515	47.33
700.835	48.42
701.156	47.88
701.477	48.29
701.797	47.66
702.117	47.61
702.438	48.49
702.758	48.03
703.078	47.66
703.398	48.67
703.719	48.03
704.039	48.89
704.359	47.29
704.679	48.12
704.999	47.8
705.319	48.19
705.638	48.3
705.958	49.55
706.278	48.25
706.597	48.8
706.917	48.31
707.237	47.92
707.556	48.74
707.876	48.72
708.195	49.56
708.514	47.88
708.834	48.02
709.153	48.25
709.472	48.8
709.791	49.16
710.11	50.07
710.429	48.29
710.748	49.02
711.067	47.68
711.386	48
711.705	49.17
712.023	48.83
712.342	48.9
712.661	49.34
712.979	49.12
713.298	49.26
713.616	48.65
713.935	49.09
714.253	49.43
714.572	49.32
714.89	49.99
715.208	49.06
715.526	49.07
715.844	48.51
716.162	48.11
716.48	49.27
716.798	49.18
717.116	48.08
717.434	48.34
717.752	48.6
718.069	49.01
718.387	49.83
718.705	48.4
719.022	49.17
719.34	49.32
719.657	48.39
719.975	48.96
720.292	49.11
720.609	49.16
720.927	50.41
721.244	49.45
721.561	49.55
721.878	49.84
722.195	49.6
722.512	48.99
722.829	48.76
723.146	49.55
723.463	50.31
723.779	49.79
724.096	49.38
724.413	49.64
724.729	49.3
725.046	49.37
725.362	49.83
725.679	49.14
725.995	49.34
726.311	47.92
726.628	49.46
726.944	49.81
727.26	50.75
727.576	48.28
727.892	48.49
728.208	50.18
728.524	49.07
728.84	49.59
729.156	49.29
729.472	48.99
729.787	48.79
730.103	48.48
730.419	51.66
730.734	51.11
731.05	47.78
731.365	50.84
731.681	48.79
731.996	49.42
732.311	49.33
732.626	48.33
732.942	50.14
733.257	50.24
733.572	49.27
733.887	49.64
734.202	50.14
734.517	50.21
734.832	50.12
735.146	49.77
735.461	50.19
735.776	48.78
736.091	49.68
736.405	49.44
736.72	50.85
737.034	49.39
737.349	49.38
737.663	49.13
737.977	51.25
738.292	50.28
738.606	49.58
738.92	50.73
739.234	50.05
739.548	50.62
739.862	50.73
740.176	51.09
740.49	51.34
740.804	50.01
741.117	49.58
741.431	49.85
741.745	49.86
742.058	49.68
742.372	50.03
742.685	51.18
742.999	50.65
743.312	51.5
743.626	49.42
743.939	47.9
744.252	49.34
744.565	49.01
744.878	50.08
745.191	50.35
745.505	48.71
745.817	49.85
746.13	50.83
746.443	50.77
746.756	51.34
747.069	50.06
747.381	48.67
747.694	51.4
748.007	53.32
748.319	51.97
748.632	50.25
748.944	51.78
749.256	49.97
749.569	51.71
749.881	50.23
750.193	49.43
750.505	52.07
750.817	50.95
751.129	49.52
751.441	49.23
751.753	53.64
752.065	52.13
752.377	51.95
752.689	50.47
753	51.08
753.312	51.34
753.624	50.51
753.935	51.06
754.247	50.04
754.558	51.42
754.869	48.43
755.181	49.17
755.492	50.5
755.803	52.37
756.114	51.35
756.425	49.24
756.736	49.55
757.047	48.52
757.358	49.91
757.669	51.16
757.98	50.27
758.291	49.41
758.601	51.64
758.912	51.46
759.223	51
759.533	49.99
759.844	51.44
760.154	51.3
760.464	50.8
760.775	49.82
761.085	50.76
761.395	52.84
761.705	50.75
762.016	51.04
762.326	51.16
762.636	52.89
762.945	50.3
763.255	53.08
763.565	51.02
763.875	50.48
764.185	52.75
764.494	53.04
764.804	50.03
765.113	50.86
765.423	50.46
765.732	52.33
766.042	52.72
766.351	51.27
766.66	51.75
766.97	51.48
767.279	50.58
767.588	49.66
767.897	51.11
768.206	52.09
768.515	50.76
768.824	52.21
769.133	50.94
769.441	50.67
769.75	49.83
770.059	51.5
770.367	50.95
770.676	51.41
770.984	49.36
771.293	50.76
771.601	52.4
771.91	50.38
772.218	52.18
772.526	49.01
772.834	47.51
773.142	48.42
773.45	53.68
773.758	52.1
774.066	51.66
774.374	49.73
774.682	48.05
774.99	53.46
775.298	52.02
775.605	49.09
775.913	53.78
776.22	52.37
776.528	50.07
776.835	50.55
777.143	51.75
777.45	54.76
777.757	52.02
778.065	52.19
778.372	51
778.679	54.17
778.986	48.88
779.293	51.39
779.6	54.08
779.907	52.18
780.214	49.94
780.52	51.31
780.827	53.88
781.134	51.46
781.44	52.91
781.747	49.74
782.053	50.63
782.36	53.1
782.666	51.76
782.973	54.11
783.279	50
783.585	49.69
783.891	54.38
784.197	54.09
784.503	51
784.809	48.18
785.115	55.08
785.421	57.17
785.727	50.3
786.033	53.93
786.339	49.41
786.644	52.29
786.95	49.93
787.255	55.35
787.561	54.19
787.866	53.36
788.172	54.37
788.477	53.16
788.782	51.8
789.088	50.76
789.393	53.37
789.698	50.67
790.003	54.53
790.308	51.77
790.613	52.85
790.918	54.11
791.223	52
791.527	52.09
791.832	51.17
792.137	51.92
792.441	54.38
792.746	49.25
793.05	53.16
793.355	54.81
793.659	54.17
793.963	54.58
794.268	47.91
794.572	52.41
794.876	52.76
795.18	52.35
795.484	50.05
795.788	55.64
796.092	53.54
796.396	54.72
796.7	51.31
797.004	53.91
797.307	51.23
797.611	51.28
797.915	51.64
798.218	56.39
798.522	53.48
798.825	51.76
799.128	52.14
799.432	50.35
799.735	51.32
800.038	52.01
800.341	52.75
800.644	51.31
800.947	49.22
801.25	52.52
801.553	52.87
801.856	52.33
802.159	51.67
802.462	52.63
802.764	52.57
803.067	53.73
803.37	52.16
803.672	55.05
803.975	54.48
804.277	53.28
804.579	53.89
804.882	51.19
805.184	55.18
805.486	58.48
805.788	53.91
806.09	52.08
806.392	53.57
806.694	51.57
806.996	50.41
807.298	49.14
807.6	51.55
807.902	50.92
808.203	48.99
808.505	52.17
808.807	54.09
809.108	58.73
809.409	54.65
809.711	52.33
810.012	49.35
810.313	48.81
810.615	53.61
810.916	54.31
811.217	51.36
811.518	50.94
811.819	53.88
812.12	51.54
812.421	53.71
812.722	52.06
813.023	50.62
813.323	53
813.624	52.09
813.925	54.41
814.225	54.22
814.526	54.28
814.826	52.36
815.126	49.23
815.427	48.79
815.727	55.32
816.027	52.81
816.327	53.64
816.627	48.25
816.927	54.06
817.227	51.81
817.527	49.99
817.827	46.23
818.127	50.85
818.427	55.67
818.727	48.38
819.026	54.56
819.326	49.58
819.625	53.48
819.925	54.26
820.224	57.35
820.524	52.32
820.823	44.76
821.122	43.84
821.421	55.63
821.72	55.69
822.019	57.59
822.318	51.77
822.617	52.49
822.916	55.27
823.215	51.64
823.514	54.01
823.813	57.41
824.111	55.76
824.41	54.42
824.709	53.21
825.007	53.48
825.306	54.83
825.604	54.16
825.902	53.52
826.201	53.69
826.499	53.37
826.797	52.24
827.095	51.59
827.393	51.66
827.691	51.69
827.989	51.94
828.287	52.88
828.585	52.12
828.882	51.98
829.18	53.15
829.478	51.23
829.775	55.38
830.073	56.85
830.37	52.8
830.668	51.46
830.965	53.19
831.263	53.63
831.56	55.42
831.857	50.75
832.154	53.27
832.451	51.12
832.748	51.92
833.045	54.49
833.342	54.62
833.639	53.72
833.936	51.93
834.232	48.38
834.529	56.28
834.826	52.65
835.122	49.31
835.419	53.46
835.715	53.6
836.012	53.85
836.308	61.34
836.604	58.88
836.901	55.48
837.197	52.03
837.493	52.05
837.789	51.39
838.085	53.19
838.381	51.45
838.677	50.92
838.972	55.92
839.268	51.76
839.564	55.44
839.86	49.12
840.155	48.14
840.451	56.2
840.746	48.91
841.042	51.06
841.337	56.51
841.632	53.01
841.928	54.15
842.223	59.12
842.518	52.59
842.813	59.8
843.108	57.9
843.403	54.74
843.698	63.2
843.993	53.2
844.287	55.4
844.582	54.68
844.877	41.94
845.171	55.78
845.466	51.39
845.761	51.01
846.055	48.76
846.349	57.89
846.644	50.52
846.938	51.52
847.232	50.27
847.526	57.86
847.82	49.32
848.114	42.35
848.408	59.43
848.702	58.91
848.996	44.37
849.29	66.78
849.584	73.4
849.877	69.04
850.171	31.23
850.465	48.27
850.758	57.52
851.052	33.72
851.345	48.75
851.638	62.6
851.932	62.61
852.225	59.64
852.518	57.76
852.811	40.33
853.104	57.26
853.397	48.81
853.69	38.41
853.983	48.12
854.276	60.39
854.569	49.94
854.861	56.78
855.154	50.44
855.447	42.04
855.739	34.72
856.032	57.7
856.324	59.19
856.616	63.99
856.909	36.38
857.201	49.88
857.493	45.95
857.785	72.93
858.077	57.98
858.369	71.37
858.661	57.22
858.953	35.21
859.245	43.44
859.537	71.65
859.829	56.85
860.12	73.37
860.412	69.04
860.703	44.84
860.995	45.5
861.286	50.38
861.578	56.06
861.869	31.25
862.16	70.84
862.452	44.72
862.743	52.49
863.034	71.5
863.325	70.73
863.616	44.87
863.907	51.75
864.198	58.99
864.488	34.69
864.779	48.12
865.07	29.76
865.36	32.63
865.651	65.21
865.941	40.82
866.232	49.89
866.522	37.4
866.813	50.97
867.103	76.37
867.393	62.63
867.683	35.44
867.973	37.95
868.263	66.87
868.553	42.51
868.843	49.43
869.133	68.21
869.423	56.01
869.713	53.03
870.002	67.21
870.292	60.02
870.582	33.44
870.871	62.9
871.161	60.04
871.45	64.3
871.739	52.6
872.029	51.66
872.318	30.32
872.607	42.26
872.896	41.17
873.185	61.15
873.474	58.03
873.763	27.68
874.052	48.57
874.341	53.64
874.63	59.1
874.918	53.3
875.207	55.19
875.496	43.79
875.784	21.62
876.073	47.83
876.361	60.84
876.649	47.71
876.938	58.02
877.226	62.03
877.514	52.13
877.802	73.27
878.09	45.91
878.378	61.4
878.666	50.31
878.954	46.57
879.242	72.03
879.53	52.9
879.817	35.69
880.105	76.92
880.392	50.92
880.68	51.1
880.967	77.79
881.255	72.27
881.542	31.27
881.83	79.69
882.117	41.76
882.404	87.03
882.691	46.52
882.978	40.38
883.265	43.66
883.552	63.58
883.839	52.41
884.126	56.27
884.413	46.57
884.699	58.74
884.986	68.96
885.273	53.4
885.559	53.4
885.846	53.4
