Data from 0220_crown_Reflection__3__228.txt Node

Date: Fri Sep 22 22:39:05 CDT 2023
User: ToomeyLab
Spectrometer: FLMS14357
Trigger mode: 0
Integration Time (sec): 1.000000E-2
Scans to average: 100
Electric dark correction enabled: true
Nonlinearity correction enabled: false
Boxcar width: 0
XAxis mode: Wavelengths
Number of Pixels in Spectrum: 2048
>>>>>Begin Spectral Data<<<<<
189.047	-441.42
189.435	-441.42
189.823	-441.42
190.211	-909.84
190.599	-23.11
190.987	244.91
191.375	146.39
191.763	197.1
192.151	137.11
192.538	7.57
192.926	52.87
193.314	439.02
193.702	116.82
194.089	138.78
194.477	-17.14
194.864	559.05
195.252	98.33
195.639	42.55
196.027	56.38
196.414	199.59
196.801	109.17
197.189	-10.94
197.576	82.31
197.963	-29.44
198.351	3.92
198.738	23.49
199.125	28.08
199.512	0.58
199.899	54.73
200.286	24.5
200.673	6.75
201.06	42.08
201.447	49.99
201.833	9.64
202.22	36.45
202.607	54.98
202.994	51.9
203.38	44.02
203.767	23.89
204.154	36.7
204.54	15.8
204.927	5.65
205.313	54.22
205.699	46.89
206.086	38
206.472	58.64
206.858	35.07
207.245	-5.23
207.631	40.61
208.017	20.88
208.403	32.48
208.789	30.56
209.175	69.29
209.561	45.51
209.947	46.08
210.333	49.89
210.719	-13.75
211.105	20.7
211.491	2.49
211.876	48.66
212.262	48.62
212.648	10.98
213.034	42.32
213.419	21.32
213.805	19.94
214.19	1.17
214.576	41.11
214.961	8.39
215.346	31.79
215.732	41.73
216.117	-7
216.502	57.41
216.888	21.68
217.273	22.75
217.658	12.24
218.043	25.68
218.428	12.59
218.813	-1.81
219.198	-3.26
219.583	23.33
219.968	-6.59
220.353	35.68
220.738	17.3
221.122	10.36
221.507	-12.64
221.892	12.19
222.276	20.25
222.661	-19.12
223.046	20.78
223.43	32.05
223.815	20.59
224.199	3.9
224.583	9.21
224.968	21.88
225.352	1.85
225.736	13.08
226.121	9.04
226.505	8.73
226.889	6.63
227.273	6.1
227.657	11.01
228.041	2.23
228.425	9.23
228.809	5.51
229.193	8.28
229.577	7.01
229.961	7.83
230.344	5.72
230.728	4.26
231.112	7.13
231.495	5.93
231.879	6.01
232.263	5
232.646	6.04
233.03	5.21
233.413	6.68
233.797	6.24
234.18	6.21
234.563	10
234.946	8.76
235.33	4.67
235.713	5.21
236.096	5.25
236.479	4.92
236.862	5.97
237.245	6.25
237.628	7.03
238.011	6.51
238.394	4.29
238.777	6.19
239.16	7.01
239.543	7.15
239.925	8.39
240.308	7.27
240.691	6.66
241.073	7.02
241.456	5.63
241.838	5.52
242.221	5.17
242.603	5.27
242.986	5.37
243.368	4.32
243.75	4.8
244.133	5.99
244.515	4.81
244.897	4.72
245.279	5.07
245.661	5.21
246.043	5.8
246.425	5.51
246.807	5.54
247.189	5.78
247.571	5.43
247.953	5.96
248.335	5.21
248.717	5.26
249.098	4.97
249.48	4.63
249.862	4.98
250.243	5.04
250.625	5.28
251.006	4.66
251.388	5.02
251.769	4.87
252.151	4.51
252.532	5.96
252.913	6.25
253.295	5.41
253.676	5.75
254.057	5.47
254.438	5.09
254.819	4.85
255.2	5.1
255.581	4.71
255.962	6.22
256.343	5.86
256.724	3.93
257.105	4.89
257.486	5.88
257.867	4.65
258.247	4.78
258.628	5.66
259.009	5.66
259.389	4.94
259.77	4.86
260.15	5.23
260.531	4.55
260.911	5.02
261.292	4.63
261.672	4.17
262.052	4.57
262.432	4.57
262.813	4.89
263.193	4.37
263.573	5.19
263.953	5.36
264.333	4.19
264.713	4.7
265.093	4.42
265.473	4.5
265.853	3.93
266.233	4.84
266.612	4.37
266.992	4.78
267.372	4.92
267.752	5.1
268.131	4.68
268.511	3.97
268.89	5.4
269.27	3.64
269.649	4.5
270.029	4.58
270.408	4.11
270.787	4.42
271.167	4.27
271.546	4.51
271.925	5.25
272.304	4.62
272.683	4.52
273.062	4.67
273.441	4.53
273.82	4.85
274.199	4.42
274.578	4.62
274.957	4.13
275.336	4.13
275.715	4.67
276.093	3.82
276.472	3.9
276.851	4.18
277.229	3.78
277.608	4.51
277.986	4.44
278.365	4.41
278.743	4.76
279.122	4.56
279.5	4.53
279.878	4.16
280.257	5.02
280.635	3.91
281.013	4.97
281.391	4.26
281.769	4.71
282.147	5.08
282.525	4.04
282.903	5
283.281	4.65
283.659	4.08
284.037	3.49
284.415	4.47
284.792	4.03
285.17	4.3
285.548	4.74
285.925	4.5
286.303	4.34
286.68	3.87
287.058	3.66
287.435	4.08
287.813	3.88
288.19	3.7
288.567	4.19
288.945	3.89
289.322	4.28
289.699	4.3
290.076	4.24
290.453	3.88
290.83	3.95
291.207	3.99
291.584	4.21
291.961	3.95
292.338	4.07
292.715	4.42
293.092	3.69
293.469	3.93
293.845	3.88
294.222	3.79
294.599	4.27
294.975	4.69
295.352	3.68
295.728	3.96
296.105	4.19
296.481	4.19
296.858	3.99
297.234	3.81
297.61	4.05
297.986	3.95
298.363	4.11
298.739	3.67
299.115	4.05
299.491	4.13
299.867	4.12
300.243	3.97
300.619	4.2
300.995	3.56
301.371	4.03
301.746	4.18
302.122	4.43
302.498	4.24
302.874	3.61
303.249	3.7
303.625	3.97
304	4.04
304.376	4.08
304.751	3.98
305.127	3.6
305.502	3.93
305.878	3.79
306.253	3.81
306.628	3.52
307.003	4.06
307.378	3.73
307.754	3.7
308.129	4.07
308.504	3.74
308.879	3.72
309.254	3.6
309.629	4.31
310.003	4.17
310.378	4.21
310.753	4.14
311.128	4.22
311.502	4.26
311.877	3.69
312.252	3.48
312.626	3.64
313.001	3.78
313.375	3.74
313.75	4.18
314.124	4.59
314.498	3.42
314.873	4.23
315.247	4.33
315.621	3.64
315.995	4.1
316.369	3.78
316.743	4.06
317.117	3.84
317.491	3.99
317.865	3.06
318.239	3.54
318.613	3.98
318.987	3.77
319.361	3.66
319.734	4.01
320.108	3.52
320.482	3.77
320.855	3.92
321.229	4.55
321.602	3.86
321.976	3.96
322.349	3.17
322.723	3.73
323.096	3.76
323.469	3.58
323.843	4.1
324.216	4.02
324.589	3.65
324.962	3.93
325.335	3.33
325.708	3.81
326.081	4.39
326.454	3.66
326.827	4.05
327.2	3.88
327.573	4.52
327.945	3.94
328.318	4.09
328.691	4.24
329.063	3.61
329.436	3.91
329.809	3.58
330.181	4.32
330.553	4.02
330.926	3.22
331.298	4.1
331.671	4.2
332.043	3.15
332.415	4.2
332.787	4.2
333.159	3.73
333.532	3.53
333.904	4.1
334.276	3.55
334.648	3.72
335.02	3.7
335.391	4.06
335.763	4.33
336.135	3.81
336.507	4.2
336.879	3.75
337.25	3.72
337.622	4.47
337.993	4.32
338.365	4.38
338.736	4.21
339.108	3.83
339.479	3.68
339.851	3.31
340.222	3.8
340.593	3.66
340.964	3.44
341.336	3.7
341.707	3.84
342.078	3.86
342.449	3.69
342.82	3.68
343.191	3.78
343.562	3.62
343.933	3.27
344.303	3.57
344.674	4.13
345.045	3.93
345.416	3.94
345.786	3.54
346.157	4.1
346.527	3.93
346.898	3.59
347.268	3.87
347.639	4.05
348.009	3.67
348.38	3.71
348.75	4.2
349.12	3.8
349.49	4.2
349.861	4.13
350.231	3.61
350.601	3.95
350.971	4.22
351.341	3.57
351.711	3.61
352.081	3.49
352.45	3.54
352.82	4.17
353.19	4
353.56	4.16
353.929	3.95
354.299	3.93
354.669	3.53
355.038	3.75
355.408	3.94
355.777	4.25
356.147	4.01
356.516	3.92
356.885	3.56
357.254	4.38
357.624	3.73
357.993	3.95
358.362	4.01
358.731	3.63
359.1	4.08
359.469	4.09
359.838	3.41
360.207	3.83
360.576	4.08
360.945	3.91
361.314	3.98
361.682	4.46
362.051	4.27
362.42	3.87
362.788	3.9
363.157	4.06
363.525	4.05
363.894	3.83
364.262	3.73
364.631	3.77
364.999	3.99
365.367	3.92
365.735	4
366.104	4.06
366.472	4.24
366.84	3.7
367.208	4.3
367.576	4.14
367.944	4
368.312	4.02
368.68	4.07
369.048	4.3
369.416	3.97
369.783	3.69
370.151	3.83
370.519	3.99
370.886	4.1
371.254	4.41
371.621	3.97
371.989	4.16
372.356	3.92
372.724	4.27
373.091	3.98
373.458	4.08
373.826	4.23
374.193	4.02
374.56	4.1
374.927	4.17
375.294	3.84
375.661	4.06
376.028	4.02
376.395	4.17
376.762	3.86
377.129	4.31
377.496	4.29
377.863	4.18
378.229	4.16
378.596	4.21
378.963	4.5
379.329	4.04
379.696	4.16
380.062	3.88
380.429	4.09
380.795	4.22
381.161	4.04
381.528	4.13
381.894	3.68
382.26	4.11
382.626	4.14
382.993	4.31
383.359	3.89
383.725	4.19
384.091	4.25
384.457	4.22
384.823	3.99
385.188	4.27
385.554	4.14
385.92	4.94
386.286	4.17
386.651	4.19
387.017	4.19
387.383	4.13
387.748	4.02
388.114	3.98
388.479	4.23
388.845	4.06
389.21	3.99
389.575	4.32
389.94	4.05
390.306	4.33
390.671	4.77
391.036	3.77
391.401	4.17
391.766	4.25
392.131	4.11
392.496	3.93
392.861	4.11
393.226	4.34
393.591	4.24
393.956	4.21
394.32	4.1
394.685	4.2
395.05	4.38
395.414	4.36
395.779	3.95
396.143	4.28
396.508	4.14
396.872	4.21
397.236	4.23
397.601	4.19
397.965	4.34
398.329	4.17
398.694	4.19
399.058	4.02
399.422	4.07
399.786	4.28
400.15	4.38
400.514	4.23
400.878	4.18
401.242	4.3
401.605	4.38
401.969	3.88
402.333	4.45
402.697	4.2
403.06	4.4
403.424	4.22
403.787	4.37
404.151	4.36
404.514	4.41
404.878	4.35
405.241	4.54
405.604	4.44
405.968	4.43
406.331	4.4
406.694	4.31
407.057	4.17
407.42	4.46
407.783	4.4
408.146	4.32
408.509	4.3
408.872	4.25
409.235	4.23
409.598	4.21
409.961	4.44
410.323	4.33
410.686	4.39
411.049	4.5
411.411	4.61
411.774	4.27
412.136	4.23
412.499	4.33
412.861	4.33
413.223	4.36
413.586	4.2
413.948	4.32
414.31	4.16
414.672	4.41
415.035	4.22
415.397	4.34
415.759	4.48
416.121	4.29
416.483	4.32
416.845	4.38
417.206	4.3
417.568	4.49
417.93	4.37
418.292	4.3
418.653	4.33
419.015	4.23
419.377	4.25
419.738	4.36
420.1	4.3
420.461	4.41
420.822	4.16
421.184	4.25
421.545	4.24
421.906	4.27
422.267	4.16
422.629	4.16
422.99	4.2
423.351	4.25
423.712	4.19
424.073	4.31
424.434	4.3
424.795	4.25
425.155	4.33
425.516	4.27
425.877	4.17
426.238	4.2
426.598	4.25
426.959	4.23
427.32	4.28
427.68	4.29
428.041	4.23
428.401	4.42
428.761	4.38
429.122	4.3
429.482	4.38
429.842	4.2
430.202	4.36
430.563	4.47
430.923	4.5
431.283	4.52
431.643	4.52
432.003	4.51
432.363	4.56
432.722	4.41
433.082	4.44
433.442	4.44
433.802	4.48
434.161	4.33
434.521	4.57
434.881	4.37
435.24	4.25
435.6	4.45
435.959	4.23
436.319	4.32
436.678	4.49
437.037	4.53
437.396	4.4
437.756	4.37
438.115	4.42
438.474	4.51
438.833	4.64
439.192	4.26
439.551	4.38
439.91	4.44
440.269	4.51
440.628	4.27
440.987	4.46
441.345	4.53
441.704	4.4
442.063	4.48
442.421	4.35
442.78	4.44
443.138	4.33
443.497	4.43
443.855	4.52
444.214	4.31
444.572	4.43
444.93	4.46
445.288	4.4
445.647	4.53
446.005	4.51
446.363	4.35
446.721	4.48
447.079	4.3
447.437	4.58
447.795	4.59
448.153	4.41
448.51	4.44
448.868	4.36
449.226	4.37
449.584	4.35
449.941	4.28
450.299	4.48
450.656	4.45
451.014	4.46
451.371	4.43
451.729	4.44
452.086	4.34
452.443	4.63
452.801	4.56
453.158	4.47
453.515	4.61
453.872	4.57
454.229	4.5
454.586	4.54
454.943	4.53
455.3	4.42
455.657	4.51
456.014	4.47
456.371	4.62
456.727	4.58
457.084	4.64
457.441	4.61
457.797	4.67
458.154	4.5
458.51	4.38
458.867	4.57
459.223	4.44
459.58	4.54
459.936	4.66
460.292	4.49
460.648	4.63
461.005	4.48
461.361	4.77
461.717	4.33
462.073	4.42
462.429	4.31
462.785	4.49
463.141	4.44
463.496	4.64
463.852	4.48
464.208	4.53
464.564	4.68
464.919	4.66
465.275	4.67
465.631	4.65
465.986	4.68
466.342	4.67
466.697	4.77
467.052	4.62
467.408	4.68
467.763	4.65
468.118	4.69
468.473	4.49
468.829	4.64
469.184	4.57
469.539	4.62
469.894	4.67
470.249	4.59
470.603	4.45
470.958	4.77
471.313	4.61
471.668	4.77
472.023	4.69
472.377	4.68
472.732	4.54
473.086	4.87
473.441	4.52
473.795	4.86
474.15	4.61
474.504	4.59
474.859	4.71
475.213	4.53
475.567	4.39
475.921	4.62
476.275	4.49
476.63	4.67
476.984	4.53
477.338	4.71
477.692	4.52
478.045	4.81
478.399	4.73
478.753	4.61
479.107	4.52
479.461	4.6
479.814	4.75
480.168	4.64
480.521	4.64
480.875	4.65
481.228	4.61
481.582	4.52
481.935	4.63
482.289	4.6
482.642	4.5
482.995	4.54
483.348	4.57
483.701	4.52
484.055	4.58
484.408	4.59
484.761	4.59
485.114	4.39
485.466	4.38
485.819	4.27
486.172	4.2
486.525	4.24
486.878	4.29
487.23	4.37
487.583	4.41
487.936	4.5
488.288	4.48
488.641	4.42
488.993	4.43
489.345	4.32
489.698	4.32
490.05	4.35
490.402	4.39
490.754	4.33
491.107	4.35
491.459	4.53
491.811	4.4
492.163	4.52
492.515	4.63
492.866	4.55
493.218	4.55
493.57	4.42
493.922	4.33
494.274	4.38
494.625	4.38
494.977	4.49
495.328	4.64
495.68	4.57
496.031	4.58
496.383	4.58
496.734	4.84
497.086	4.63
497.437	4.64
497.788	4.64
498.139	4.72
498.49	4.75
498.842	4.5
499.193	4.53
499.544	4.66
499.894	4.56
500.245	4.75
500.596	4.54
500.947	4.72
501.298	4.56
501.648	4.62
501.999	4.72
502.35	4.6
502.7	4.77
503.051	4.61
503.401	4.82
503.752	4.86
504.102	4.65
504.452	4.69
504.803	4.71
505.153	4.62
505.503	4.81
505.853	4.68
506.203	4.68
506.553	4.77
506.903	4.68
507.253	4.6
507.603	4.59
507.953	4.61
508.303	4.61
508.652	4.63
509.002	4.84
509.352	4.55
509.701	4.82
510.051	4.59
510.4	4.63
510.75	4.55
511.099	4.61
511.449	4.65
511.798	4.75
512.147	4.56
512.496	4.54
512.846	4.69
513.195	4.62
513.544	4.64
513.893	4.66
514.242	4.63
514.591	4.63
514.939	4.68
515.288	4.59
515.637	4.66
515.986	4.64
516.334	4.73
516.683	4.65
517.032	4.68
517.38	4.68
517.729	4.62
518.077	4.69
518.426	4.71
518.774	4.64
519.122	4.62
519.47	4.57
519.819	4.69
520.167	4.69
520.515	4.54
520.863	4.5
521.211	4.52
521.559	4.56
521.907	4.58
522.255	4.61
522.602	4.63
522.95	4.57
523.298	4.7
523.645	4.67
523.993	4.76
524.341	4.64
524.688	4.64
525.036	4.64
525.383	4.64
525.73	4.65
526.078	4.59
526.425	4.63
526.772	4.67
527.119	4.53
527.466	4.51
527.814	4.51
528.161	4.44
528.508	4.47
528.854	4.53
529.201	4.51
529.548	4.48
529.895	4.46
530.242	4.39
530.588	4.32
530.935	4.23
531.282	4.27
531.628	4.35
531.975	4.39
532.321	4.41
532.667	4.49
533.014	4.54
533.36	4.61
533.706	4.56
534.052	4.67
534.399	4.55
534.745	4.56
535.091	4.43
535.437	4.38
535.783	4.34
536.129	4.41
536.474	4.48
536.82	4.47
537.166	4.63
537.512	4.53
537.857	4.56
538.203	4.67
538.549	4.5
538.894	4.44
539.239	4.48
539.585	4.5
539.93	4.68
540.276	4.59
540.621	4.6
540.966	4.69
541.311	4.79
541.656	4.57
542.001	4.51
542.346	4.59
542.691	4.64
543.036	4.47
543.381	4.34
543.726	4.35
544.071	4.41
544.415	4.35
544.76	4.38
545.105	4.4
545.449	4.41
545.794	4.46
546.138	4.53
546.483	4.51
546.827	4.45
547.171	4.58
547.516	4.6
547.86	4.64
548.204	4.53
548.548	4.5
548.892	4.57
549.236	4.52
549.58	4.6
549.924	4.58
550.268	4.71
550.612	4.57
550.956	4.61
551.3	4.56
551.643	4.69
551.987	4.54
552.33	4.88
552.674	4.62
553.017	4.55
553.361	4.6
553.704	4.71
554.048	4.7
554.391	4.76
554.734	4.76
555.077	4.66
555.42	4.53
555.764	4.59
556.107	4.57
556.45	4.52
556.793	4.63
557.135	4.69
557.478	4.53
557.821	4.51
558.164	4.68
558.507	4.91
558.849	4.63
559.192	4.67
559.534	4.74
559.877	4.85
560.219	4.69
560.562	4.76
560.904	4.84
561.246	4.82
561.589	4.62
561.931	4.58
562.273	4.43
562.615	4.59
562.957	4.5
563.299	4.67
563.641	4.7
563.983	4.76
564.325	4.71
564.667	4.65
565.008	4.58
565.35	4.81
565.692	4.72
566.033	4.78
566.375	4.49
566.716	4.62
567.058	4.7
567.399	4.57
567.741	4.78
568.082	4.43
568.423	4.69
568.764	4.73
569.105	4.4
569.447	4.7
569.788	4.45
570.129	4.6
570.47	4.73
570.811	4.65
571.151	4.69
571.492	4.46
571.833	4.4
572.174	4.56
572.514	4.72
572.855	4.55
573.195	4.57
573.536	4.5
573.876	4.59
574.217	4.36
574.557	4.48
574.898	4.69
575.238	4.54
575.578	4.78
575.918	4.64
576.258	4.42
576.598	4.55
576.938	4.69
577.278	4.6
577.618	4.38
577.958	4.53
578.298	4.64
578.638	4.45
578.977	4.54
579.317	4.68
579.657	4.71
579.996	4.59
580.336	4.64
580.675	4.63
581.014	4.38
581.354	4.7
581.693	4.73
582.032	4.43
582.372	4.82
582.711	4.63
583.05	4.46
583.389	4.57
583.728	4.64
584.067	4.65
584.406	4.68
584.745	4.31
585.083	5.05
585.422	4.69
585.761	4.63
586.1	4.75
586.438	4.63
586.777	4.72
587.115	4.82
587.454	4.51
587.792	4.82
588.13	4.81
588.469	4.69
588.807	4.81
589.145	4.62
589.483	4.59
589.821	4.61
590.159	4.65
590.497	4.92
590.835	4.78
591.173	4.62
591.511	4.5
591.849	4.88
592.187	4.78
592.524	4.69
592.862	4.52
593.2	4.74
593.537	4.58
593.875	4.65
594.212	4.65
594.55	4.86
594.887	4.39
595.224	4.71
595.561	4.53
595.899	4.76
596.236	4.87
596.573	4.7
596.91	4.47
597.247	4.42
597.584	5.05
597.921	4.91
598.258	4.71
598.594	4.58
598.931	4.52
599.268	4.63
599.604	4.65
599.941	4.72
600.277	4.43
600.614	4.58
600.95	4.54
601.287	4.61
601.623	4.76
601.959	4.7
602.296	4.68
602.632	4.57
602.968	4.54
603.304	4.5
603.64	4.52
603.976	4.77
604.312	4.74
604.648	4.75
604.984	4.52
605.319	4.73
605.655	4.5
605.991	4.53
606.326	4.64
606.662	4.51
606.998	4.38
607.333	4.56
607.668	4.68
608.004	4.65
608.339	4.52
608.674	4.75
609.01	4.62
609.345	4.67
609.68	4.87
610.015	4.44
610.35	4.71
610.685	4.56
611.02	4.82
611.355	4.66
611.689	4.67
612.024	4.53
612.359	4.52
612.694	4.71
613.028	4.46
613.363	4.47
613.697	4.65
614.032	4.43
614.366	4.53
614.7	4.7
615.035	4.58
615.369	4.29
615.703	4.45
616.037	4.82
616.371	4.91
616.705	4.91
617.039	5.11
617.373	4.49
617.707	4.55
618.041	4.95
618.375	4.56
618.709	4.66
619.042	4.84
619.376	4.91
619.71	4.84
620.043	4.28
620.377	4.51
620.71	5.25
621.043	4.7
621.377	4.88
621.71	4.55
622.043	4.9
622.376	4.77
622.709	4.63
623.043	4.72
623.376	4.8
623.709	4.67
624.041	4.44
624.374	4.79
624.707	4.77
625.04	4.71
625.373	4.49
625.705	4.7
626.038	4.47
626.37	5.11
626.703	4.67
627.035	4.58
627.368	4.66
627.7	5.03
628.032	5
628.365	4.89
628.697	4.95
629.029	4.67
629.361	4.64
629.693	4.83
630.025	4.82
630.357	4.4
630.689	4.72
631.021	4.79
631.353	4.48
631.684	4.69
632.016	5.03
632.348	4.77
632.679	4.29
633.011	4.94
633.342	5
633.674	4.89
634.005	4.59
634.336	4.64
634.668	5.04
634.999	4.61
635.33	5.17
635.661	4.64
635.992	4.91
636.323	4.74
636.654	4.66
636.985	4.6
637.316	4.91
637.647	5.06
637.977	4.2
638.308	5.25
638.639	4.81
638.969	4.84
639.3	4.76
639.63	5.15
639.961	4.61
640.291	4.51
640.622	4.79
640.952	4.75
641.282	4.99
641.612	4.42
641.943	4.94
642.273	4.92
642.603	4.45
642.933	4.64
643.263	4.17
643.592	4.56
643.922	4.91
644.252	4.66
644.582	5.08
644.911	5.16
645.241	4.95
645.571	4.96
645.9	4.83
646.23	5.52
646.559	4.74
646.888	4.53
647.218	4.88
647.547	5.01
647.876	5.12
648.205	4.33
648.534	5.34
648.863	5.03
649.192	4.38
649.521	4.79
649.85	5
650.179	4.75
650.508	4.61
650.837	5.19
651.165	4.52
651.494	5
651.822	5.23
652.151	4.69
652.479	4.88
652.808	4.8
653.136	5.31
653.465	4.77
653.793	4.42
654.121	5.24
654.449	4.45
654.777	5.03
655.105	4.92
655.433	5.33
655.761	5.19
656.089	4.8
656.417	4.82
656.745	5.39
657.073	5.16
657.4	5.39
657.728	4.86
658.056	5
658.383	5.15
658.711	4.82
659.038	4.56
659.365	4.34
659.693	4.5
660.02	5.13
660.347	5.49
660.674	4.76
661.001	4.65
661.329	5.17
661.656	4.85
661.982	4.39
662.309	5
662.636	4.76
662.963	5.06
663.29	4.88
663.616	4.86
663.943	5.21
664.27	4.9
664.596	5.06
664.923	4.83
665.249	5.11
665.576	4.18
665.902	5.31
666.228	5.07
666.554	4.69
666.881	5.27
667.207	5.51
667.533	4.65
667.859	5.22
668.185	5.6
668.511	5.62
668.837	4.96
669.162	4.66
669.488	4.93
669.814	5.3
670.139	4.8
670.465	5.84
670.791	4.89
671.116	4.92
671.442	5.57
671.767	4.44
672.092	5.31
672.418	5.57
672.743	5.35
673.068	4.93
673.393	4.44
673.718	5.26
674.043	5.62
674.368	5.02
674.693	5.12
675.018	5.21
675.343	4.76
675.667	4.88
675.992	5.22
676.317	5.1
676.641	5.16
676.966	5.86
677.29	5.32
677.615	5.22
677.939	5.35
678.264	4.86
678.588	5.82
678.912	5.39
679.236	5.5
679.56	5.23
679.885	5.19
680.209	5.53
680.532	5.04
680.856	4.98
681.18	5.23
681.504	5.1
681.828	5.79
682.152	4.98
682.475	5.65
682.799	5.42
683.122	5.21
683.446	5.13
683.769	5.16
684.093	5.1
684.416	5.21
684.739	5.04
685.062	5.73
685.386	5.17
685.709	4.76
686.032	5.21
686.355	5.42
686.678	5.33
687.001	5.81
687.324	6.35
687.646	5.42
687.969	5.46
688.292	5.05
688.614	6.31
688.937	5.68
689.26	5
689.582	6.14
689.904	4.58
690.227	5.63
690.549	5.94
690.871	5.16
691.194	5.45
691.516	5.06
691.838	5.85
692.16	5.25
692.482	5.49
692.804	4.96
693.126	5.28
693.448	5.8
693.769	5.55
694.091	5.95
694.413	6.06
694.735	6.05
695.056	5.66
695.378	5.77
695.699	5.7
696.021	4.49
696.342	5.29
696.663	5.14
696.984	4.74
697.306	6.15
697.627	5.97
697.948	4.99
698.269	6.12
698.59	4.93
698.911	5.79
699.232	5.73
699.553	5.67
699.873	6.2
700.194	5.53
700.515	4.3
700.835	5.71
701.156	5.69
701.477	5.47
701.797	5.19
702.117	5.64
702.438	5.67
702.758	5.05
703.078	5.73
703.398	6.18
703.719	5.39
704.039	5.85
704.359	5.33
704.679	4.94
704.999	6.93
705.319	5.73
705.638	4.74
705.958	6.08
706.278	6.54
706.597	5.53
706.917	6.4
707.237	5.4
707.556	6.19
707.876	4.95
708.195	5.71
708.514	5.01
708.834	5.06
709.153	6.34
709.472	5.37
709.791	6.03
710.11	6.85
710.429	6.18
710.748	6.31
711.067	6.6
711.386	5.73
711.705	5.35
712.023	5.23
712.342	6.35
712.661	7.33
712.979	6.46
713.298	7.01
713.616	5.57
713.935	7.09
714.253	6.58
714.572	6.69
714.89	5.98
715.208	5.66
715.526	5
715.844	6.04
716.162	5.34
716.48	5.94
716.798	5.81
717.116	6.91
717.434	6.18
717.752	5.81
718.069	4.78
718.387	5.53
718.705	6.18
719.022	6.07
719.34	5.76
719.657	5.28
719.975	6.85
720.292	6.07
720.609	7.31
720.927	5.1
721.244	6.67
721.561	7.03
721.878	6.76
722.195	5.97
722.512	6.43
722.829	7.69
723.146	7.77
723.463	5.74
723.779	6.64
724.096	5.86
724.413	7.26
724.729	6.66
725.046	5.99
725.362	6.05
725.679	5.85
725.995	7.58
726.311	5.41
726.628	5.95
726.944	5.81
727.26	6.46
727.576	6.81
727.892	4.68
728.208	5.9
728.524	7.08
728.84	4.76
729.156	7.09
729.472	8.21
729.787	7.66
730.103	6.58
730.419	7.16
730.734	5.11
731.05	5.77
731.365	4.97
731.681	5.47
731.996	7.17
732.311	7.38
732.626	5.66
732.942	7.17
733.257	6.27
733.572	6.21
733.887	5.99
734.202	6.71
734.517	7.04
734.832	6.36
735.146	5.65
735.461	6.58
735.776	7.12
736.091	6.96
736.405	5.84
736.72	6.11
737.034	4.31
737.349	4.97
737.663	5.99
737.977	6.85
738.292	6.54
738.606	4.99
738.92	6.09
739.234	7.28
739.548	7.15
739.862	4.18
740.176	6.88
740.49	5.85
740.804	6.42
741.117	6.95
741.431	6.13
741.745	5.97
742.058	5.8
742.372	4.81
742.685	6.35
742.999	6.94
743.312	6.34
743.626	4.88
743.939	5.57
744.252	6.49
744.565	5.28
744.878	7.18
745.191	6.48
745.505	6.52
745.817	6.73
746.13	7.87
746.443	9.62
746.756	6.47
747.069	7.56
747.381	6.36
747.694	5.66
748.007	7.39
748.319	7.81
748.632	5.92
748.944	6.92
749.256	7.02
749.569	6.69
749.881	7.98
750.193	7.99
750.505	7.93
750.817	8.12
751.129	7.02
751.441	8.48
751.753	7.74
752.065	9.03
752.377	7.16
752.689	5.2
753	6.14
753.312	8.59
753.624	5.6
753.935	7.94
754.247	5.32
754.558	7.96
754.869	5.79
755.181	5.22
755.492	7.11
755.803	8.87
756.114	10.2
756.425	8.83
756.736	5.98
757.047	5.32
757.358	6.6
757.669	6.6
757.98	7.37
758.291	6.6
758.601	7.01
758.912	7.12
759.223	9.11
759.533	6.2
759.844	7.06
760.154	6.17
760.464	5.59
760.775	7.6
761.085	8.04
761.395	7.79
761.705	7.5
762.016	6.38
762.326	5.48
762.636	6.8
762.945	6.85
763.255	8.34
763.565	9.18
763.875	7.45
764.185	8.32
764.494	7.21
764.804	8.2
765.113	6.96
765.423	7.06
765.732	6.61
766.042	6.94
766.351	6.44
766.66	7.55
766.97	6.71
767.279	7.21
767.588	6.08
767.897	5.47
768.206	7.31
768.515	6.46
768.824	6.38
769.133	7.69
769.441	6.5
769.75	9.23
770.059	9.24
770.367	6.39
770.676	7.6
770.984	7.63
771.293	8.05
771.601	8.42
771.91	9.36
772.218	8.14
772.526	7.51
772.834	6.92
773.142	7.77
773.45	8.62
773.758	6.4
774.066	6.63
774.374	3.56
774.682	6.71
774.99	10.96
775.298	11.22
775.605	8.52
775.913	12.12
776.22	6.21
776.528	7.18
776.835	6.52
777.143	9.23
777.45	9.9
777.757	6.21
778.065	9.04
778.372	10.15
778.679	11.91
778.986	9.7
779.293	5.87
779.6	10.05
779.907	10.32
780.214	13.86
780.52	9.16
780.827	10.37
781.134	11.75
781.44	9.23
781.747	9.09
782.053	9.13
782.36	8.53
782.666	8.57
782.973	13.03
783.279	8.6
783.585	9.88
783.891	7.67
784.197	9.57
784.503	6.83
784.809	7.16
785.115	6.86
785.421	12.75
785.727	8.81
786.033	9.1
786.339	10.25
786.644	10.81
786.95	8
787.255	9.73
787.561	10.57
787.866	9.48
788.172	11.9
788.477	7.32
788.782	7.04
789.088	8.64
789.393	7.43
789.698	10.93
790.003	9.3
790.308	5.76
790.613	7.89
790.918	10.42
791.223	7.52
791.527	9.22
791.832	9.91
792.137	8.04
792.441	10.69
792.746	10.11
793.05	7.4
793.355	12.58
793.659	10.41
793.963	10.72
794.268	9.25
794.572	6.69
794.876	8.17
795.18	14.41
795.484	7.13
795.788	9.39
796.092	9.46
796.396	13.71
796.7	8.58
797.004	16.9
797.307	1.91
797.611	11.97
797.915	8.39
798.218	8.47
798.522	9.15
798.825	9.17
799.128	17.15
799.432	8.87
799.735	6.97
800.038	9.97
800.341	9.36
800.644	10.86
800.947	10.94
801.25	11.27
801.553	13.69
801.856	18.69
802.159	8.74
802.462	10.9
802.764	11.02
803.067	11.53
803.37	9.11
803.672	8.75
803.975	6.78
804.277	12.13
804.579	14.12
804.882	5.96
805.184	11.37
805.486	7.23
805.788	10.56
806.09	6.8
806.392	4.98
806.694	13.14
806.996	7.55
807.298	10.02
807.6	12.4
807.902	11.08
808.203	9.99
808.505	11.3
808.807	7.64
809.108	11.64
809.409	11.86
809.711	10.77
810.012	9.42
810.313	11.25
810.615	13.3
810.916	9.46
811.217	11.18
811.518	13.97
811.819	14.19
812.12	12.57
812.421	9.6
812.722	13.67
813.023	11.22
813.323	11.92
813.624	9.94
813.925	16.84
814.225	12.29
814.526	11.9
814.826	13.32
815.126	11.11
815.427	14.21
815.727	12.78
816.027	8.01
816.327	8.3
816.627	10.12
816.927	14.9
817.227	8.93
817.527	10.34
817.827	1.21
818.127	11.11
818.427	12.01
818.727	12.21
819.026	18.54
819.326	6.13
819.625	7.97
819.925	14.57
820.224	14.88
820.524	4.31
820.823	10.19
821.122	2.12
821.421	7.97
821.72	19.91
822.019	8.38
822.318	9.38
822.617	9.59
822.916	11.5
823.215	11.71
823.514	8.79
823.813	13.85
824.111	12.22
824.41	9.62
824.709	9.71
825.007	9.87
825.306	7.94
825.604	7.83
825.902	8.45
826.201	9.52
826.499	8.98
826.797	9.03
827.095	9.7
827.393	10.07
827.691	7.91
827.989	8.13
828.287	8.76
828.585	10.04
828.882	8.31
829.18	9.16
829.478	7.81
829.775	9.26
830.073	9.22
830.37	8.24
830.668	10.43
830.965	11.09
831.263	8.28
831.56	8.67
831.857	8.61
832.154	11.32
832.451	11.51
832.748	10.53
833.045	12.11
833.342	11.18
833.639	8.54
833.936	17.62
834.232	13.21
834.529	9.79
834.826	10.04
835.122	11.43
835.419	7.45
835.715	12.38
836.012	10.06
836.308	17.7
836.604	14.74
836.901	9.84
837.197	12.44
837.493	11.05
837.789	7.28
838.085	9.54
838.381	8.32
838.677	11.23
838.972	8.54
839.268	15.18
839.564	15.61
839.86	12.61
840.155	12.39
840.451	13.99
840.746	10.53
841.042	13.89
841.337	11.53
841.632	17.11
841.928	9.3
842.223	14.01
842.518	17.55
842.813	18.72
843.108	23.58
843.403	16.52
843.698	20.94
843.993	10.25
844.287	9.34
844.582	3.38
844.877	4.33
845.171	16.22
845.466	8.52
845.761	15.75
846.055	15.2
846.349	8.77
846.644	2.09
846.938	15.8
847.232	24.89
847.526	21.21
847.82	14.64
848.114	17.22
848.408	24.6
848.702	8.77
848.996	24.71
849.29	20.77
849.584	20.5
849.877	43.92
850.171	13.8
850.465	-3.43
850.758	24.45
851.052	4.89
851.345	22.27
851.638	10.31
851.932	24.74
852.225	24.84
852.518	25.1
852.811	18.59
853.104	20.55
853.397	15.87
853.69	25.36
853.983	34
854.276	11.62
854.569	24.67
854.861	12.89
855.154	16.9
855.447	17.33
855.739	3.75
856.032	40.96
856.324	33.08
856.616	17.67
856.909	28.35
857.201	8.45
857.493	16.54
857.785	45.38
858.077	20.63
858.369	31.83
858.661	27.64
858.953	26.26
859.245	24
859.537	16.1
859.829	32.24
860.12	11.96
860.412	36.22
860.703	14.68
860.995	5.76
861.286	38.48
861.578	28.03
861.869	16.35
862.16	14.05
862.452	-0.77
862.743	36.39
863.034	35.47
863.325	34.78
863.616	15.78
863.907	14.45
864.198	7.46
864.488	35.23
864.779	19.27
865.07	16.71
865.36	6.53
865.651	32.38
865.941	10.84
866.232	12.42
866.522	11.69
866.813	23.43
867.103	20.37
867.393	19.04
867.683	11.72
867.973	17.69
868.263	5.51
868.553	1.96
868.843	23
869.133	25.03
869.423	6.61
869.713	18.66
870.002	47.71
870.292	9.11
870.582	15.49
870.871	2.05
871.161	-16.61
871.45	32
871.739	30.55
872.029	36.01
872.318	43.88
872.607	19.58
872.896	13.13
873.185	32.66
873.474	46.37
873.763	15.51
874.052	24.59
874.341	39.09
874.63	50.18
874.918	8.77
875.207	49.12
875.496	28.79
875.784	9.96
876.073	24.42
876.361	13.79
876.649	25.89
876.938	38.11
877.226	14.49
877.514	21.06
877.802	-8.83
878.09	14.83
878.378	26.05
878.666	34.41
878.954	40.54
879.242	30.23
879.53	40.89
879.817	27.9
880.105	-6.36
880.392	4.3
880.68	7.22
880.967	18.32
881.255	29.01
881.542	31.24
881.83	56.14
882.117	13.99
882.404	21
882.691	11.04
882.978	-2.67
883.265	13.52
883.552	49.66
883.839	-0.95
884.126	40.47
884.413	8.79
884.699	36.77
884.986	25.32
885.273	21.75
885.559	21.75
885.846	21.75
