Data from 97280_forehead_Reflection__2__23.txt Node

Date: Fri Sep 23 19:44:29 CDT 2022
User: ToomeyLab
Spectrometer: FLMS14357
Trigger mode: 0
Integration Time (sec): 1.000000E-2
Scans to average: 100
Electric dark correction enabled: true
Nonlinearity correction enabled: false
Boxcar width: 0
XAxis mode: Wavelengths
Number of Pixels in Spectrum: 2048
>>>>>Begin Spectral Data<<<<<
189.047	-24.58
189.435	-24.58
189.823	-24.58
190.211	-278.1
190.599	41325
190.987	148.32
191.375	-3.2
191.763	67.36
192.151	-167.81
192.538	1447.22
192.926	77
193.314	215.85
193.702	47.62
194.089	-82.78
194.477	53.26
194.864	84.53
195.252	176.65
195.639	66.76
196.027	22.88
196.414	-2.22
196.801	306.99
197.189	798.13
197.576	170.5
197.963	-29.11
198.351	52.56
198.738	-42.5
199.125	35.6
199.512	20.31
199.899	38.14
200.286	-22.61
200.673	36.15
201.06	39.7
201.447	52.78
201.833	28.18
202.22	-14.8
202.607	44.7
202.994	-6.3
203.38	23.76
203.767	16.65
204.154	20.35
204.54	10.91
204.927	29.61
205.313	33.84
205.699	-25.02
206.086	-44.49
206.472	24.54
206.858	15.84
207.245	10.12
207.631	6.8
208.017	17.24
208.403	18.71
208.789	14.54
209.175	4.34
209.561	32.44
209.947	26.51
210.333	14.69
210.719	5.94
211.105	8.42
211.491	7.71
211.876	11.1
212.262	7.91
212.648	8.38
213.034	-18.46
213.419	2.73
213.805	31.07
214.19	21.09
214.576	17.68
214.961	36.32
215.346	10.65
215.732	24.13
216.117	-2.7
216.502	1.43
216.888	-13.37
217.273	7.13
217.658	-32.65
218.043	19.39
218.428	-0.73
218.813	1.06
219.198	11.56
219.583	11.34
219.968	2.52
220.353	-0.82
220.738	2.65
221.122	6.83
221.507	-1.73
221.892	-5.93
222.276	-17.36
222.661	5.86
223.046	4.97
223.43	-6.81
223.815	7.57
224.199	10.33
224.583	5.65
224.968	2.57
225.352	-2.71
225.736	4.03
226.121	10.6
226.505	2.04
226.889	6.4
227.273	6.66
227.657	0.28
228.041	3.86
228.425	6.81
228.809	1.69
229.193	4.72
229.577	2.92
229.961	2.71
230.344	3.36
230.728	1.84
231.112	1.17
231.495	2.13
231.879	1.07
232.263	4.33
232.646	3.61
233.03	3.99
233.413	3.27
233.797	2.88
234.18	6.72
234.563	2.15
234.946	5.32
235.33	0.03
235.713	3.57
236.096	1.65
236.479	1.92
236.862	3.17
237.245	3.32
237.628	4.63
238.011	2.76
238.394	1.94
238.777	3.64
239.16	2.91
239.543	2.66
239.925	2.34
240.308	2.71
240.691	4.06
241.073	0.77
241.456	2.74
241.838	4.22
242.221	3.83
242.603	3.94
242.986	1.74
243.368	2.29
243.75	2.77
244.133	2.53
244.515	2.36
244.897	2.62
245.279	2.42
245.661	3.18
246.043	3.55
246.425	2.26
246.807	1.65
247.189	2.49
247.571	2.71
247.953	2.89
248.335	2.65
248.717	2.71
249.098	2.4
249.48	2.58
249.862	2.45
250.243	2.55
250.625	2.82
251.006	3.4
251.388	2.65
251.769	3
252.151	2.39
252.532	2.59
252.913	3.57
253.295	3.16
253.676	3.37
254.057	2.56
254.438	2.38
254.819	3.12
255.2	2.42
255.581	3.55
255.962	2.7
256.343	3.33
256.724	3.03
257.105	2.29
257.486	3.08
257.867	2.39
258.247	3.89
258.628	3.17
259.009	1.84
259.389	2.44
259.77	1.98
260.15	2.21
260.531	2.57
260.911	2.6
261.292	2.58
261.672	2.57
262.052	2.4
262.432	2.39
262.813	2.32
263.193	2.61
263.573	2.94
263.953	2.65
264.333	2.41
264.713	2.83
265.093	2.73
265.473	3.35
265.853	2.33
266.233	2.16
266.612	2.63
266.992	3.56
267.372	2.08
267.752	2.93
268.131	2.89
268.511	2.1
268.89	2.66
269.27	2.51
269.649	2.54
270.029	2.74
270.408	3.19
270.787	2.03
271.167	2.33
271.546	2.69
271.925	2.27
272.304	2.83
272.683	2.6
273.062	2.35
273.441	2.51
273.82	2.12
274.199	2.43
274.578	1.95
274.957	2.37
275.336	2.91
275.715	2.39
276.093	2.94
276.472	3.04
276.851	3.16
277.229	2.69
277.608	2.89
277.986	1.85
278.365	2.59
278.743	3.19
279.122	2.06
279.5	2.53
279.878	2.28
280.257	2.48
280.635	2.62
281.013	2.55
281.391	2.55
281.769	2.52
282.147	2.22
282.525	2.12
282.903	2.56
283.281	2.46
283.659	2.59
284.037	2.3
284.415	2.52
284.792	2.08
285.17	2.3
285.548	2.13
285.925	2.66
286.303	2.83
286.68	2.62
287.058	2.32
287.435	2.41
287.813	3
288.19	2.53
288.567	2.93
288.945	2.59
289.322	2.42
289.699	2.87
290.076	2.93
290.453	2.5
290.83	2.31
291.207	2.73
291.584	2.95
291.961	2.67
292.338	2.75
292.715	2.27
293.092	2.61
293.469	2.92
293.845	3.16
294.222	3.1
294.599	2.97
294.975	3.36
295.352	3.35
295.728	3.11
296.105	3.22
296.481	2.56
296.858	2.99
297.234	3.14
297.61	3.03
297.986	3.16
298.363	2.94
298.739	3.28
299.115	3.19
299.491	3.07
299.867	3.24
300.243	3.11
300.619	3.57
300.995	3.71
301.371	2.98
301.746	3.77
302.122	3.44
302.498	3.66
302.874	3.61
303.249	3.65
303.625	3.26
304	3.23
304.376	3.44
304.751	3.03
305.127	3.53
305.502	3.95
305.878	3.42
306.253	3.65
306.628	3.56
307.003	3.58
307.378	3.94
307.754	4.03
308.129	3.7
308.504	4.04
308.879	4.47
309.254	3.98
309.629	3.87
310.003	3.97
310.378	4.1
310.753	3.96
311.128	3.99
311.502	3.65
311.877	4.01
312.252	3.64
312.626	3.84
313.001	3.87
313.375	3.96
313.75	4.03
314.124	3.83
314.498	4.64
314.873	4.36
315.247	4.24
315.621	4.05
315.995	4.25
316.369	4.4
316.743	4.29
317.117	3.57
317.491	3.97
317.865	4.41
318.239	4.76
318.613	4.05
318.987	4.24
319.361	4.4
319.734	4.31
320.108	4.21
320.482	4.38
320.855	4.39
321.229	4.94
321.602	4.71
321.976	5.07
322.349	4.42
322.723	4.87
323.096	4.62
323.469	4.33
323.843	4.13
324.216	5.13
324.589	5.08
324.962	5
325.335	4.77
325.708	4.85
326.081	4.73
326.454	4.97
326.827	4.62
327.2	4.49
327.573	5.04
327.945	5.4
328.318	4.64
328.691	4.77
329.063	5.02
329.436	5.17
329.809	5.37
330.181	5.08
330.553	4.8
330.926	4.88
331.298	4.7
331.671	5.27
332.043	4.87
332.415	5.1
332.787	4.86
333.159	5.01
333.532	4.82
333.904	4.98
334.276	4.99
334.648	4.84
335.02	5.13
335.391	5.42
335.763	5.18
336.135	4.88
336.507	5.49
336.879	5.58
337.25	5.32
337.622	5.64
337.993	4.92
338.365	5.78
338.736	5.65
339.108	5.38
339.479	5.26
339.851	5.29
340.222	5.67
340.593	4.89
340.964	5.73
341.336	5.4
341.707	5.94
342.078	5.19
342.449	5.23
342.82	5.49
343.191	5.23
343.562	5.72
343.933	5.71
344.303	5.34
344.674	5.68
345.045	6.01
345.416	5.49
345.786	5.69
346.157	5.31
346.527	5.48
346.898	5.84
347.268	5.98
347.639	5.39
348.009	5.45
348.38	5.59
348.75	5.74
349.12	5.6
349.49	6.25
349.861	5.85
350.231	5.39
350.601	5.16
350.971	5.76
351.341	6.09
351.711	5.85
352.081	5.23
352.45	5.58
352.82	5.28
353.19	6.46
353.56	6.29
353.929	5.71
354.299	5.97
354.669	6.12
355.038	6.24
355.408	5.63
355.777	5.72
356.147	5.87
356.516	6.42
356.885	5.85
357.254	5.82
357.624	5.78
357.993	5.94
358.362	5.91
358.731	6.14
359.1	6.14
359.469	6.13
359.838	6.24
360.207	6.21
360.576	5.99
360.945	6.02
361.314	5.86
361.682	5.91
362.051	6.27
362.42	6.25
362.788	6.36
363.157	6.28
363.525	6.1
363.894	6.25
364.262	6.06
364.631	6.23
364.999	6.3
365.367	6.25
365.735	6.46
366.104	6.43
366.472	6.02
366.84	6.3
367.208	6.49
367.576	6.5
367.944	6.78
368.312	6.4
368.68	6.28
369.048	6.19
369.416	6.49
369.783	6.33
370.151	6.74
370.519	6.54
370.886	6.46
371.254	6.88
371.621	6.46
371.989	6.53
372.356	7.04
372.724	6.24
373.091	6.78
373.458	6.51
373.826	6.56
374.193	6.77
374.56	6.9
374.927	6.88
375.294	6.98
375.661	7.04
376.028	6.57
376.395	6.67
376.762	6.96
377.129	6.79
377.496	6.93
377.863	6.86
378.229	6.79
378.596	6.79
378.963	6.84
379.329	6.97
379.696	6.97
380.062	6.78
380.429	6.98
380.795	7.1
381.161	7.27
381.528	7.14
381.894	6.83
382.26	7.34
382.626	6.68
382.993	7.35
383.359	7.09
383.725	7.5
384.091	7.52
384.457	7.11
384.823	6.94
385.188	7.25
385.554	7.21
385.92	7.44
386.286	7.33
386.651	7.37
387.017	7.5
387.383	7.15
387.748	7.5
388.114	7.53
388.479	7.26
388.845	7.21
389.21	7.08
389.575	7.32
389.94	7.21
390.306	7.32
390.671	7.42
391.036	7.57
391.401	7.73
391.766	7.36
392.131	7.53
392.496	7.73
392.861	7.34
393.226	7.26
393.591	7.57
393.956	7.68
394.32	7.57
394.685	7.49
395.05	7.6
395.414	7.52
395.779	7.4
396.143	7.51
396.508	7.4
396.872	7.51
397.236	7.77
397.601	7.63
397.965	7.71
398.329	7.91
398.694	7.65
399.058	7.43
399.422	7.96
399.786	7.94
400.15	7.65
400.514	7.79
400.878	7.95
401.242	7.65
401.605	7.91
401.969	8.02
402.333	7.69
402.697	7.48
403.06	7.73
403.424	7.66
403.787	7.75
404.151	7.85
404.514	7.69
404.878	7.8
405.241	8.13
405.604	7.86
405.968	7.84
406.331	7.72
406.694	7.94
407.057	7.79
407.42	7.93
407.783	7.8
408.146	7.94
408.509	7.91
408.872	8.1
409.235	8.06
409.598	7.97
409.961	7.96
410.323	7.96
410.686	8.06
411.049	8.06
411.411	8.1
411.774	7.85
412.136	7.9
412.499	7.9
412.861	7.91
413.223	8.16
413.586	8.01
413.948	8.08
414.31	8.14
414.672	8.07
415.035	8.26
415.397	8.28
415.759	8.29
416.121	8.18
416.483	8.1
416.845	7.95
417.206	8.06
417.568	8.26
417.93	8.03
418.292	8.08
418.653	8.1
419.015	8.15
419.377	7.93
419.738	8.19
420.1	8.06
420.461	8.14
420.822	8.16
421.184	8.12
421.545	8.18
421.906	8.2
422.267	8.17
422.629	8.07
422.99	8.16
423.351	8.15
423.712	8.12
424.073	8.27
424.434	8.3
424.795	8.46
425.155	8.4
425.516	8.36
425.877	8.29
426.238	8.36
426.598	8.44
426.959	8.37
427.32	8.46
427.68	8.58
428.041	8.54
428.401	8.69
428.761	8.69
429.122	8.7
429.482	8.72
429.842	8.94
430.202	8.94
430.563	8.81
430.923	9.01
431.283	8.95
431.643	8.76
432.003	8.82
432.363	8.89
432.722	9.01
433.082	8.81
433.442	8.94
433.802	9.07
434.161	9.01
434.521	8.99
434.881	8.97
435.24	9.04
435.6	9.09
435.959	9.05
436.319	9.06
436.678	9.22
437.037	9.25
437.396	9.22
437.756	9.48
438.115	9.18
438.474	9.42
438.833	9.36
439.192	9.47
439.551	9.3
439.91	9.39
440.269	9.41
440.628	9.41
440.987	9.29
441.345	9.36
441.704	9.38
442.063	9.43
442.421	9.4
442.78	9.37
443.138	9.44
443.497	9.48
443.855	9.54
444.214	9.66
444.572	9.53
444.93	9.52
445.288	9.67
445.647	9.74
446.005	9.65
446.363	9.72
446.721	9.54
447.079	9.67
447.437	9.72
447.795	9.63
448.153	9.42
448.51	9.67
448.868	9.65
449.226	9.78
449.584	9.68
449.941	9.84
450.299	9.88
450.656	9.86
451.014	9.9
451.371	9.84
451.729	9.94
452.086	10.17
452.443	10.12
452.801	10.12
453.158	10.14
453.515	10.07
453.872	10.22
454.229	10.29
454.586	10.22
454.943	10.31
455.3	10.21
455.657	10.32
456.014	10.45
456.371	10.39
456.727	10.46
457.084	10.45
457.441	10.38
457.797	10.45
458.154	10.36
458.51	10.36
458.867	10.49
459.223	10.68
459.58	10.52
459.936	10.46
460.292	10.31
460.648	10.47
461.005	10.47
461.361	10.36
461.717	10.39
462.073	10.48
462.429	10.47
462.785	10.57
463.141	10.68
463.496	10.69
463.852	10.75
464.208	10.91
464.564	11.01
464.919	10.9
465.275	11.15
465.631	10.78
465.986	10.85
466.342	10.69
466.697	10.83
467.052	11.07
467.408	10.99
467.763	11.04
468.118	11.04
468.473	11
468.829	11.05
469.184	11.07
469.539	11.11
469.894	11.14
470.249	11.22
470.603	11.2
470.958	11.22
471.313	11.33
471.668	11.44
472.023	11.21
472.377	11.31
472.732	11.27
473.086	11.19
473.441	11.3
473.795	11.47
474.15	11.48
474.504	11.4
474.859	11.5
475.213	11.52
475.567	11.35
475.921	11.66
476.275	11.46
476.63	11.5
476.984	11.72
477.338	11.45
477.692	11.56
478.045	11.46
478.399	11.54
478.753	11.78
479.107	11.58
479.461	11.53
479.814	11.73
480.168	11.65
480.521	11.7
480.875	11.7
481.228	11.92
481.582	11.74
481.935	11.78
482.289	11.91
482.642	11.71
482.995	11.88
483.348	11.49
483.701	11.73
484.055	11.78
484.408	11.58
484.761	11.47
485.114	11.25
485.466	11.09
485.819	11.04
486.172	11.17
486.525	11.41
486.878	11.5
487.23	11.61
487.583	11.68
487.936	11.65
488.288	11.74
488.641	11.53
488.993	11.48
489.345	11.53
489.698	11.53
490.05	11.51
490.402	11.62
490.754	11.81
491.107	11.92
491.459	12
491.811	11.99
492.163	12.16
492.515	12.04
492.866	11.83
493.218	11.71
493.57	11.73
493.922	11.88
494.274	11.97
494.625	12.1
494.977	12.32
495.328	12.48
495.68	12.45
496.031	12.53
496.383	12.57
496.734	12.54
497.086	12.62
497.437	12.72
497.788	12.81
498.139	12.54
498.49	12.51
498.842	12.43
499.193	12.61
499.544	12.5
499.894	12.73
500.245	12.61
500.596	12.74
500.947	12.82
501.298	12.84
501.648	13.01
501.999	12.88
502.35	12.95
502.7	12.92
503.051	12.98
503.401	12.95
503.752	12.88
504.102	13.02
504.452	12.98
504.803	13
505.153	13.06
505.503	13.02
505.853	13.1
506.203	13.09
506.553	13.15
506.903	13.03
507.253	13.07
507.603	13.23
507.953	13.28
508.303	13.28
508.652	13.17
509.002	13.23
509.352	13.21
509.701	13.2
510.051	13.27
510.4	13.24
510.75	13.13
511.099	13.23
511.449	13.22
511.798	13.31
512.147	13.37
512.496	13.26
512.846	13.38
513.195	13.29
513.544	13.44
513.893	13.45
514.242	13.23
514.591	13.38
514.939	13.53
515.288	13.53
515.637	13.43
515.986	13.59
516.334	13.51
516.683	13.55
517.032	13.52
517.38	13.77
517.729	13.63
518.077	13.68
518.426	13.77
518.774	13.64
519.122	13.6
519.47	13.47
519.819	13.43
520.167	13.39
520.515	13.36
520.863	13.5
521.211	13.52
521.559	13.53
521.907	13.58
522.255	13.68
522.602	13.75
522.95	13.93
523.298	13.81
523.645	13.9
523.993	13.94
524.341	13.98
524.688	13.98
525.036	14
525.383	13.95
525.73	13.99
526.078	14.04
526.425	13.81
526.772	13.83
527.119	13.74
527.466	13.64
527.814	13.71
528.161	13.82
528.508	13.96
528.854	13.9
529.201	13.75
529.548	13.73
529.895	13.54
530.242	13.28
530.588	13.27
530.935	13.5
531.282	13.65
531.628	13.74
531.975	13.86
532.321	13.93
532.667	14.12
533.014	14.11
533.36	14.1
533.706	14.08
534.052	14.06
534.399	13.98
534.745	13.84
535.091	13.8
535.437	13.81
535.783	14.03
536.129	14.2
536.474	14.3
536.82	14.27
537.166	14.39
537.512	14.22
537.857	14.37
538.203	14.05
538.549	14.16
538.894	14.31
539.239	14.41
539.585	14.49
539.93	14.55
540.276	14.72
540.621	14.61
540.966	14.64
541.311	14.82
541.656	14.53
542.001	14.69
542.346	14.43
542.691	14.2
543.036	14.1
543.381	14.14
543.726	14.22
544.071	14.33
544.415	14.51
544.76	14.41
545.105	14.64
545.449	14.62
545.794	14.73
546.138	14.83
546.483	14.85
546.827	15.05
547.171	14.91
547.516	14.93
547.86	14.87
548.204	14.91
548.548	14.74
548.892	14.93
549.236	14.97
549.58	15.05
549.924	15.2
550.268	15.22
550.612	15.35
550.956	15.33
551.3	15.5
551.643	15.34
551.987	15.51
552.33	15.5
552.674	15.34
553.017	15.55
553.361	15.43
553.704	15.43
554.048	15.47
554.391	15.55
554.734	15.55
555.077	15.42
555.42	15.44
555.764	15.56
556.107	15.53
556.45	15.71
556.793	15.67
557.135	15.61
557.478	15.62
557.821	15.82
558.164	15.68
558.507	15.68
558.849	15.78
559.192	15.96
559.534	15.96
559.877	15.9
560.219	15.76
560.562	15.99
560.904	15.96
561.246	16.04
561.589	15.96
561.931	15.9
562.273	16.16
562.615	16.13
562.957	15.92
563.299	16.06
563.641	15.83
563.983	16.08
564.325	16.02
564.667	16.18
565.008	16.22
565.35	16.36
565.692	16.01
566.033	16.06
566.375	16.2
566.716	16.12
567.058	16.2
567.399	16.03
567.741	16.02
568.082	16.18
568.423	16.02
568.764	16.2
569.105	16.31
569.447	16.17
569.788	16.39
570.129	16.39
570.47	16.29
570.811	16.29
571.151	16.55
571.492	16.52
571.833	16.42
572.174	16.36
572.514	16.61
572.855	16.27
573.195	16.46
573.536	16.31
573.876	16.1
574.217	16.38
574.557	16.34
574.898	16.58
575.238	16.67
575.578	16.65
575.918	16.49
576.258	16.55
576.598	16.49
576.938	16.61
577.278	16.61
577.618	16.58
577.958	16.73
578.298	16.75
578.638	16.82
578.977	16.73
579.317	16.85
579.657	17.01
579.996	16.67
580.336	16.96
580.675	16.96
581.014	17.05
581.354	17.12
581.693	17.02
582.032	17.07
582.372	17.1
582.711	17.06
583.05	17.2
583.389	17.24
583.728	17.16
584.067	17.2
584.406	16.79
584.745	17.31
585.083	17.18
585.422	17.11
585.761	17.41
586.1	17.39
586.438	17.34
586.777	17.15
587.115	17.41
587.454	17.36
587.792	17.4
588.13	17.5
588.469	17.24
588.807	17.26
589.145	17.47
589.483	17.46
589.821	17.49
590.159	17.31
590.497	17.41
590.835	17.3
591.173	17.56
591.511	17.33
591.849	17.08
592.187	17.56
592.524	17.73
592.862	17.7
593.2	17.86
593.537	17.85
593.875	17.72
594.212	17.63
594.55	17.36
594.887	17.64
595.224	17.45
595.561	17.75
595.899	17.68
596.236	17.38
596.573	17.9
596.91	17.72
597.247	17.71
597.584	17.89
597.921	17.67
598.258	17.56
598.594	17.67
598.931	17.71
599.268	17.86
599.604	17.8
599.941	17.85
600.277	17.85
600.614	18.04
600.95	17.8
601.287	18
601.623	18.05
601.959	17.9
602.296	17.9
602.632	18.06
602.968	17.97
603.304	17.93
603.64	18.09
603.976	18.08
604.312	18.07
604.648	18
604.984	17.98
605.319	17.84
605.655	17.92
605.991	17.72
606.326	18.03
606.662	18
606.998	18.21
607.333	18.18
607.668	18.02
608.004	18.35
608.339	18.02
608.674	18.35
609.01	18.65
609.345	18.33
609.68	18.13
610.015	18.65
610.35	18.28
610.685	18.12
611.02	18.12
611.355	17.91
611.689	18.26
612.024	18.2
612.359	18.38
612.694	18.66
613.028	18.73
613.363	18.9
613.697	18.78
614.032	18.79
614.366	18.76
614.7	18.45
615.035	18.72
615.369	18.63
615.703	18.63
616.037	18.61
616.371	18.74
616.705	18.82
617.039	18.76
617.373	19.02
617.707	18.9
618.041	18.99
618.375	18.93
618.709	18.63
619.042	18.83
619.376	19.15
619.71	19.02
620.043	19.11
620.377	18.93
620.71	19.27
621.043	18.92
621.377	18.81
621.71	19.01
622.043	18.94
622.376	18.78
622.709	19.08
623.043	19.06
623.376	19.11
623.709	19.45
624.041	19.33
624.374	19.02
624.707	19.41
625.04	19.81
625.373	19.32
625.705	18.96
626.038	19
626.37	19.65
626.703	19.42
627.035	19.58
627.368	19.52
627.7	19.41
628.032	18.97
628.365	19.19
628.697	19.34
629.029	19.33
629.361	19.63
629.693	19.23
630.025	19.64
630.357	19.91
630.689	19.62
631.021	19.5
631.353	19.47
631.684	19.57
632.016	19.63
632.348	19.42
632.679	20.11
633.011	19.83
633.342	19.68
633.674	19.37
634.005	19.53
634.336	19.83
634.668	19.79
634.999	19.87
635.33	19.46
635.661	19.92
635.992	19.99
636.323	19.77
636.654	19.92
636.985	19.79
637.316	19.7
637.647	19.75
637.977	20.02
638.308	19.95
638.639	19.56
638.969	19.85
639.3	19.89
639.63	19.78
639.961	20.09
640.291	20.03
640.622	20.03
640.952	20.36
641.282	20.12
641.612	20.03
641.943	20.12
642.273	20.22
642.603	20.21
642.933	19.94
643.263	19.94
643.592	20.16
643.922	20.12
644.252	20.56
644.582	20.93
644.911	20.34
645.241	20.36
645.571	20.25
645.9	20.2
646.23	20.33
646.559	19.95
646.888	20.55
647.218	20.32
647.547	20.33
647.876	20.28
648.205	20.65
648.534	20.3
648.863	20.49
649.192	20.53
649.521	20.31
649.85	20.55
650.179	20.14
650.508	20.27
650.837	20.74
651.165	21.15
651.494	20.67
651.822	20.67
652.151	20.5
652.479	20.7
652.808	20.87
653.136	20.47
653.465	20.47
653.793	20.52
654.121	20.34
654.449	20
654.777	21
655.105	20.55
655.433	20.84
655.761	20.5
656.089	20.97
656.417	20.84
656.745	20.61
657.073	20.39
657.4	21.41
657.728	20.75
658.056	21.32
658.383	20.78
658.711	20.54
659.038	21.12
659.365	20.7
659.693	21.35
660.02	20.91
660.347	20.76
660.674	20.85
661.001	21.04
661.329	20.63
661.656	21.42
661.982	21.04
662.309	20.97
662.636	21.37
662.963	21.15
663.29	21.16
663.616	21.22
663.943	20.99
664.27	20.85
664.596	21.26
664.923	21.23
665.249	21.28
665.576	21.7
665.902	21.09
666.228	21.74
666.554	21.32
666.881	21.19
667.207	21.48
667.533	21.59
667.859	21.05
668.185	20.8
668.511	21.34
668.837	22.13
669.162	21.79
669.488	21.62
669.814	21.73
670.139	21.18
670.465	21.75
670.791	21.03
671.116	21.39
671.442	21.87
671.767	21.37
672.092	21.68
672.418	22
672.743	21.75
673.068	21.29
673.393	21.8
673.718	21.5
674.043	21.83
674.368	21.84
674.693	21.51
675.018	21.38
675.343	21.81
675.667	21.73
675.992	21.97
676.317	22.16
676.641	21.38
676.966	22.03
677.29	21.26
677.615	21.86
677.939	21.45
678.264	21.4
678.588	22.47
678.912	22.32
679.236	21.45
679.56	21.72
679.885	21.68
680.209	21.85
680.532	20.89
680.856	21.72
681.18	22.14
681.504	21.59
681.828	22
682.152	22.09
682.475	21.7
682.799	21.65
683.122	21.99
683.446	22.84
683.769	21.86
684.093	21.86
684.416	22.43
684.739	22.29
685.062	22.16
685.386	21.79
685.709	22.2
686.032	21.75
686.355	22.15
686.678	22.01
687.001	21.85
687.324	21.91
687.646	22.29
687.969	21.68
688.292	21.76
688.614	21.98
688.937	22.24
689.26	22.63
689.582	22.39
689.904	22.51
690.227	22.36
690.549	22.47
690.871	23.11
691.194	22.29
691.516	22.4
691.838	22.16
692.16	22.12
692.482	22.7
692.804	21.71
693.126	23
693.448	22.3
693.769	22.9
694.091	22.49
694.413	22.51
694.735	22.47
695.056	22.48
695.378	22.06
695.699	23.1
696.021	22.49
696.342	23.08
696.663	22.66
696.984	22.51
697.306	22.5
697.627	22.23
697.948	22.74
698.269	22.85
698.59	22.37
698.911	22.13
699.232	23.27
699.553	22.32
699.873	22.84
700.194	22.91
700.515	21.99
700.835	22.64
701.156	22.45
701.477	22.77
701.797	23.27
702.117	22.78
702.438	22.4
702.758	22.13
703.078	23.39
703.398	23.24
703.719	23.6
704.039	22.68
704.359	23.43
704.679	22.7
704.999	23.19
705.319	23.84
705.638	23.25
705.958	23.09
706.278	23.4
706.597	22.95
706.917	23.13
707.237	22.98
707.556	22.76
707.876	23.1
708.195	22.46
708.514	22.98
708.834	22.42
709.153	23.08
709.472	23.03
709.791	23.35
710.11	23.79
710.429	23
710.748	23.12
711.067	23.53
711.386	23.01
711.705	22.43
712.023	23.08
712.342	24.22
712.661	23.1
712.979	23.42
713.298	22.38
713.616	23.15
713.935	23.34
714.253	24.23
714.572	23.75
714.89	23.24
715.208	22.07
715.526	23.38
715.844	22.72
716.162	22.74
716.48	23.86
716.798	23.24
717.116	23.61
717.434	23.55
717.752	23.56
718.069	23.05
718.387	22.48
718.705	22.25
719.022	22.89
719.34	22.8
719.657	23.53
719.975	23.14
720.292	23.83
720.609	22.61
720.927	23.39
721.244	24.22
721.561	23.32
721.878	23.27
722.195	24.73
722.512	23.32
722.829	24
723.146	24
723.463	23.75
723.779	23.19
724.096	24.21
724.413	23.46
724.729	23.57
725.046	23.78
725.362	24.17
725.679	23.43
725.995	23.92
726.311	25.56
726.628	23.85
726.944	23.17
727.26	24.22
727.576	23
727.892	23.05
728.208	24.06
728.524	23.72
728.84	23.19
729.156	24.45
729.472	23.49
729.787	24.23
730.103	24.47
730.419	24.58
730.734	24.21
731.05	23.52
731.365	24.68
731.681	24.68
731.996	25.39
732.311	24.34
732.626	23.01
732.942	24.07
733.257	23.92
733.572	24.42
733.887	24.45
734.202	23.79
734.517	23.97
734.832	25.28
735.146	24.71
735.461	24.92
735.776	22.7
736.091	24.5
736.405	24.66
736.72	24.82
737.034	23.63
737.349	23.54
737.663	25.28
737.977	23.78
738.292	25.02
738.606	23.65
738.92	23.18
739.234	23.65
739.548	24.21
739.862	23.77
740.176	22.68
740.49	25.24
740.804	24.47
741.117	27.26
741.431	25.38
741.745	26.56
742.058	24.77
742.372	25.23
742.685	25.18
742.999	24.64
743.312	22.71
743.626	24.44
743.939	24.35
744.252	25.29
744.565	22.78
744.878	25.58
745.191	25.04
745.505	24.92
745.817	23.83
746.13	26.89
746.443	23.84
746.756	25.34
747.069	25.25
747.381	25.6
747.694	24.74
748.007	25.08
748.319	26.32
748.632	23.69
748.944	24.41
749.256	25.91
749.569	25.12
749.881	23.71
750.193	24.28
750.505	25.72
750.817	26.25
751.129	23.77
751.441	26.06
751.753	25.71
752.065	24.7
752.377	23.25
752.689	24.05
753	24.12
753.312	22.65
753.624	23.87
753.935	25.61
754.247	25.35
754.558	25.06
754.869	23.61
755.181	24.24
755.492	26.54
755.803	23.79
756.114	24.3
756.425	24.55
756.736	25.3
757.047	25.77
757.358	26.5
757.669	24.53
757.98	24.09
758.291	25.98
758.601	26.48
758.912	25.08
759.223	26.82
759.533	24.03
759.844	25.28
760.154	25.66
760.464	24.85
760.775	25.56
761.085	23.66
761.395	24.28
761.705	25.71
762.016	24.77
762.326	25.52
762.636	25.27
762.945	24.37
763.255	24.4
763.565	25.84
763.875	25.91
764.185	26.63
764.494	24.69
764.804	26.79
765.113	25.57
765.423	25.88
765.732	26.09
766.042	24.63
766.351	24.36
766.66	25.17
766.97	25.43
767.279	25.15
767.588	25.5
767.897	25.58
768.206	26.66
768.515	24.94
768.824	27.03
769.133	24.04
769.441	23.25
769.75	27.28
770.059	26.9
770.367	27.39
770.676	26.17
770.984	25.29
771.293	25.92
771.601	25.73
771.91	27.34
772.218	26.32
772.526	24.47
772.834	26.74
773.142	24.94
773.45	24.32
773.758	28.14
774.066	24.93
774.374	23.61
774.682	25.67
774.99	24.61
775.298	25.31
775.605	27.89
775.913	25.16
776.22	24.85
776.528	28.52
776.835	24.46
777.143	27.26
777.45	23.19
777.757	25.54
778.065	26.48
778.372	23.99
778.679	26.31
778.986	29.16
779.293	27
779.6	27.95
779.907	27.53
780.214	25.11
780.52	26.97
780.827	25.1
781.134	25.96
781.44	25.43
781.747	26.45
782.053	25.67
782.36	26.65
782.666	26.39
782.973	26.59
783.279	23.87
783.585	28.4
783.891	25.52
784.197	26.87
784.503	27.97
784.809	25.15
785.115	26.76
785.421	24.13
785.727	26.9
786.033	29.36
786.339	25.41
786.644	27.09
786.95	25.73
787.255	23.73
787.561	27.48
787.866	25.49
788.172	30.17
788.477	28.56
788.782	22.57
789.088	28.37
789.393	27.2
789.698	26.01
790.003	27.06
790.308	24.91
790.613	24.6
790.918	25.88
791.223	25.58
791.527	29.78
791.832	26.08
792.137	26.22
792.441	26.38
792.746	27.12
793.05	21.86
793.355	26.61
793.659	25.4
793.963	25.97
794.268	28.18
794.572	28.22
794.876	29.81
795.18	24.54
795.484	28.42
795.788	27.47
796.092	26.38
796.396	25.32
796.7	23.82
797.004	27
797.307	23.7
797.611	26.67
797.915	27.61
798.218	24.92
798.522	27.23
798.825	28.19
799.128	28
799.432	27.53
799.735	27.1
800.038	27.32
800.341	27.28
800.644	27.02
800.947	26.74
801.25	25.73
801.553	25.01
801.856	28.97
802.159	26.79
802.462	25.05
802.764	24.24
803.067	29.66
803.37	24.73
803.672	26.51
803.975	23.04
804.277	28.69
804.579	28.94
804.882	21.95
805.184	25.26
805.486	30.93
805.788	27.48
806.09	27.38
806.392	26.44
806.694	26.26
806.996	25.41
807.298	27.48
807.6	26.79
807.902	28.2
808.203	27.7
808.505	27.38
808.807	27.89
809.108	27.94
809.409	28.64
809.711	29.17
810.012	27.66
810.313	26.27
810.615	25.07
810.916	25.51
811.217	28.19
811.518	30.52
811.819	31.7
812.12	27.54
812.421	30.28
812.722	24.23
813.023	28
813.323	25.06
813.624	33.05
813.925	28.95
814.225	26.61
814.526	25.92
814.826	29.03
815.126	25.38
815.427	27.44
815.727	30.47
816.027	29.88
816.327	22.74
816.627	26.05
816.927	29.43
817.227	21.03
817.527	27.75
817.827	31
818.127	25.64
818.427	32.91
818.727	24.1
819.026	29.81
819.326	29.51
819.625	30.43
819.925	29.86
820.224	28.65
820.524	26.89
820.823	27.6
821.122	26.05
821.421	18.55
821.72	28.55
822.019	30.56
822.318	27.99
822.617	28.87
822.916	25.75
823.215	28.28
823.514	27.38
823.813	28.07
824.111	26.58
824.41	27.72
824.709	27.78
825.007	28.17
825.306	28.5
825.604	28.47
825.902	28.68
826.201	28.38
826.499	27.96
826.797	28.41
827.095	28.37
827.393	29.57
827.691	28.03
827.989	28.05
828.287	28.69
828.585	28.37
828.882	29.07
829.18	28.06
829.478	28.88
829.775	26.74
830.073	28.38
830.37	27.96
830.668	28.53
830.965	28.57
831.263	28.22
831.56	28.63
831.857	27.74
832.154	29.92
832.451	29.97
832.748	26.07
833.045	28.74
833.342	29.8
833.639	29.58
833.936	29.29
834.232	24.02
834.529	27.35
834.826	28.67
835.122	27.73
835.419	26.47
835.715	27.42
836.012	27.34
836.308	27.13
836.604	27.78
836.901	28.59
837.197	27.63
837.493	25.13
837.789	29.94
838.085	25.11
838.381	25.3
838.677	26.26
838.972	29.5
839.268	27.7
839.564	32.45
839.86	24.59
840.155	26.65
840.451	28.78
840.746	24.87
841.042	27.72
841.337	29.75
841.632	21.59
841.928	34.21
842.223	30.59
842.518	29.42
842.813	29.26
843.108	27.09
843.403	29.35
843.698	26.89
843.993	22.04
844.287	28.42
844.582	23.18
844.877	29.15
845.171	32.05
845.466	38.8
845.761	30.47
846.055	35.3
846.349	15.69
846.644	31.13
846.938	21.62
847.232	34.36
847.526	30.49
847.82	38.39
848.114	24.39
848.408	32.66
848.702	23.15
848.996	25.95
849.29	13.75
849.584	34.68
849.877	23.16
850.171	24.49
850.465	39.35
850.758	30.39
851.052	34.07
851.345	39.26
851.638	46.94
851.932	47.94
852.225	36.05
852.518	1.65
852.811	22.39
853.104	19.27
853.397	25.58
853.69	35.74
853.983	25.89
854.276	24.57
854.569	49.36
854.861	43.21
855.154	38.74
855.447	49.96
855.739	39.21
856.032	24.74
856.324	24.63
856.616	35.96
856.909	36.19
857.201	28.23
857.493	15.61
857.785	25.14
858.077	31.61
858.369	34.01
858.661	41.04
858.953	15.28
859.245	16.98
859.537	34.39
859.829	10.98
860.12	22.36
860.412	25.88
860.703	13.17
860.995	35.69
861.286	43.08
861.578	47.28
861.869	39.07
862.16	38.37
862.452	25.15
862.743	18.35
863.034	21.73
863.325	31.31
863.616	20.72
863.907	24.55
864.198	34.26
864.488	28.1
864.779	28.09
865.07	26.05
865.36	9.92
865.651	34.14
865.941	47.68
866.232	40.06
866.522	39.74
866.813	29.88
867.103	26.86
867.393	14.5
867.683	28.8
867.973	26.31
868.263	31.72
868.553	6.28
868.843	38.97
869.133	1.75
869.423	28.74
869.713	13.14
870.002	12.36
870.292	14.45
870.582	17.55
870.871	27.55
871.161	31.3
871.45	28.36
871.739	38.65
872.029	53.28
872.318	33.27
872.607	31.31
872.896	36.97
873.185	31.14
873.474	35.43
873.763	38
874.052	35.1
874.341	28.87
874.63	37.4
874.918	57.95
875.207	52.72
875.496	11.52
875.784	68.36
876.073	16.27
876.361	40.84
876.649	28.35
876.938	27.41
877.226	28.48
877.514	47.42
877.802	15.08
878.09	34.87
878.378	14.13
878.666	14.59
878.954	4.35
879.242	42.47
879.53	40.26
879.817	39.73
880.105	7.56
880.392	25.37
880.68	31.96
880.967	31.6
881.255	19.2
881.542	18.18
881.83	46.22
882.117	24.27
882.404	34.37
882.691	30.57
882.978	35.94
883.265	33.61
883.552	25.5
883.839	28.59
884.126	34.85
884.413	40.91
884.699	30.68
884.986	34.28
885.273	31.15
885.559	31.15
885.846	31.15
