Data from 97280_chest_Reflection__2__18.txt Node

Date: Fri Sep 23 19:38:16 CDT 2022
User: ToomeyLab
Spectrometer: FLMS14357
Trigger mode: 0
Integration Time (sec): 1.000000E-2
Scans to average: 100
Electric dark correction enabled: true
Nonlinearity correction enabled: false
Boxcar width: 0
XAxis mode: Wavelengths
Number of Pixels in Spectrum: 2048
>>>>>Begin Spectral Data<<<<<
189.047	-24.72
189.435	-24.72
189.823	-24.72
190.211	416.09
190.599	5675
190.987	661.55
191.375	140.59
191.763	105.85
192.151	638.31
192.538	-13.03
192.926	507
193.314	147.11
193.702	-33.01
194.089	-82.84
194.477	71.6
194.864	56.2
195.252	160.18
195.639	-115.39
196.027	39.42
196.414	6.73
196.801	453.93
197.189	16.79
197.576	90.87
197.963	-24.82
198.351	38.76
198.738	-52.45
199.125	-11.72
199.512	46.71
199.899	31.03
200.286	3.42
200.673	41.45
201.06	-3.57
201.447	27.82
201.833	14.7
202.22	4.26
202.607	30.43
202.994	-6.78
203.38	-0.55
203.767	-26.01
204.154	15.53
204.54	22.07
204.927	12.8
205.313	22.71
205.699	22.34
206.086	-12.02
206.472	49.84
206.858	23.67
207.245	-2.74
207.631	5.59
208.017	0.43
208.403	19.74
208.789	5.23
209.175	-15.58
209.561	33.1
209.947	14.33
210.333	-5.98
210.719	39.36
211.105	28.66
211.491	29.65
211.876	15.12
212.262	0.17
212.648	0.27
213.034	-11.73
213.419	-11.81
213.805	29.3
214.19	0.98
214.576	17.78
214.961	23.35
215.346	-12.03
215.732	23.93
216.117	-2.99
216.502	18.59
216.888	22.52
217.273	31.11
217.658	1.57
218.043	9.24
218.428	9.78
218.813	16
219.198	-6.81
219.583	10.15
219.968	6.57
220.353	6.35
220.738	11.04
221.122	13.51
221.507	8.9
221.892	-5.77
222.276	-13.37
222.661	-0.57
223.046	-1.45
223.43	-5.39
223.815	4.27
224.199	8.13
224.583	9.88
224.968	-0.67
225.352	5.84
225.736	6
226.121	1.99
226.505	1.77
226.889	4.18
227.273	-2.34
227.657	-0.76
228.041	2.14
228.425	3.53
228.809	0.1
229.193	4.47
229.577	3.08
229.961	2.72
230.344	2.5
230.728	1.4
231.112	2.25
231.495	1.76
231.879	1.45
232.263	3.61
232.646	2.99
233.03	0.57
233.413	3.75
233.797	2.99
234.18	6.26
234.563	1.81
234.946	4.16
235.33	1.92
235.713	3.46
236.096	0.59
236.479	2.02
236.862	1.31
237.245	3.94
237.628	2.31
238.011	3.47
238.394	2.3
238.777	2.63
239.16	1.68
239.543	3.19
239.925	2.38
240.308	2.52
240.691	3.63
241.073	2.48
241.456	2.91
241.838	3.94
242.221	2.59
242.603	3.39
242.986	1.62
243.368	2.21
243.75	2.53
244.133	2.94
244.515	2.52
244.897	3.21
245.279	2.68
245.661	3.56
246.043	3.57
246.425	2.76
246.807	1.76
247.189	2.98
247.571	3.17
247.953	2.67
248.335	2.58
248.717	3.05
249.098	2.68
249.48	2.78
249.862	2.59
250.243	2.9
250.625	2.9
251.006	3.31
251.388	2.67
251.769	2.69
252.151	1.8
252.532	2.8
252.913	3.44
253.295	2.79
253.676	3.02
254.057	2.47
254.438	2.58
254.819	2.78
255.2	3.11
255.581	3.53
255.962	3.07
256.343	3.29
256.724	2.7
257.105	3.55
257.486	3.42
257.867	3.07
258.247	3.95
258.628	3.01
259.009	2.4
259.389	3.11
259.77	1.72
260.15	2.6
260.531	2.95
260.911	2.95
261.292	2.67
261.672	2.54
262.052	2.5
262.432	2.73
262.813	3.03
263.193	2.66
263.573	2.93
263.953	2.16
264.333	2.77
264.713	2.46
265.093	3.24
265.473	2.76
265.853	2.24
266.233	1.97
266.612	3.02
266.992	3.96
267.372	2.77
267.752	2.74
268.131	3.22
268.511	2.17
268.89	2.61
269.27	1.98
269.649	2.42
270.029	2.73
270.408	2.88
270.787	2.4
271.167	2.93
271.546	2.39
271.925	2.41
272.304	2.66
272.683	2.47
273.062	1.98
273.441	2.84
273.82	2.88
274.199	2.62
274.578	2.14
274.957	2.58
275.336	2.59
275.715	2.84
276.093	2.95
276.472	3.04
276.851	3.04
277.229	2.6
277.608	2.48
277.986	2.3
278.365	2.84
278.743	3.08
279.122	2.2
279.5	2.46
279.878	2.41
280.257	2.62
280.635	2.51
281.013	2.14
281.391	2.2
281.769	2.35
282.147	2.79
282.525	2.66
282.903	2.12
283.281	2.51
283.659	2.4
284.037	2.54
284.415	2.37
284.792	2.44
285.17	2.8
285.548	2.76
285.925	2.62
286.303	2.63
286.68	2.72
287.058	2.83
287.435	2.38
287.813	2.6
288.19	2.34
288.567	2.57
288.945	2.76
289.322	2.94
289.699	2.68
290.076	2.89
290.453	2.58
290.83	2.79
291.207	3.05
291.584	2.98
291.961	2.67
292.338	3.05
292.715	2.41
293.092	2.48
293.469	3.1
293.845	3.26
294.222	3.18
294.599	2.33
294.975	3.32
295.352	3.12
295.728	2.95
296.105	2.77
296.481	2.91
296.858	3.32
297.234	3.38
297.61	3.01
297.986	2.96
298.363	3.1
298.739	3.24
299.115	3.19
299.491	3.29
299.867	3.23
300.243	3.4
300.619	3.77
300.995	3.58
301.371	3.13
301.746	3.55
302.122	3.43
302.498	3.29
302.874	3.06
303.249	3.8
303.625	3.2
304	3.31
304.376	3.12
304.751	3.19
305.127	3.31
305.502	3.46
305.878	3.47
306.253	3.51
306.628	3.35
307.003	2.85
307.378	3.54
307.754	3.8
308.129	3.49
308.504	3.14
308.879	3.55
309.254	3.8
309.629	3.98
310.003	3.59
310.378	3.29
310.753	3.63
311.128	3.47
311.502	3.65
311.877	3.34
312.252	3.63
312.626	3.63
313.001	3.63
313.375	3.56
313.75	3.52
314.124	3.4
314.498	4.03
314.873	3.69
315.247	3.99
315.621	3.97
315.995	4
316.369	3.74
316.743	3.12
317.117	3.28
317.491	3.42
317.865	3.86
318.239	4.34
318.613	3.41
318.987	3.51
319.361	3.5
319.734	3.53
320.108	3.57
320.482	4.14
320.855	4.15
321.229	4.23
321.602	4.21
321.976	4.06
322.349	3.83
322.723	3.99
323.096	4.03
323.469	3.62
323.843	3.79
324.216	4.38
324.589	3.95
324.962	4.11
325.335	3.68
325.708	4.14
326.081	4.02
326.454	3.95
326.827	3.94
327.2	3.56
327.573	3.95
327.945	4.48
328.318	3.75
328.691	4.16
329.063	4.01
329.436	4.4
329.809	4.77
330.181	3.95
330.553	3.22
330.926	4.35
331.298	4.27
331.671	4.05
332.043	4.46
332.415	3.61
332.787	4.28
333.159	4.32
333.532	3.93
333.904	3.78
334.276	3.72
334.648	4.21
335.02	4.01
335.391	4.05
335.763	3.7
336.135	4.23
336.507	4.27
336.879	4
337.25	4.28
337.622	4.18
337.993	4.11
338.365	4.14
338.736	4.42
339.108	4.73
339.479	3.95
339.851	4.17
340.222	4.72
340.593	4.4
340.964	4.36
341.336	4.22
341.707	4.57
342.078	3.93
342.449	4.15
342.82	4.19
343.191	4.18
343.562	4.04
343.933	4.53
344.303	4.3
344.674	4.51
345.045	4.56
345.416	3.9
345.786	4.57
346.157	3.84
346.527	3.96
346.898	4.52
347.268	3.88
347.639	4.35
348.009	4.65
348.38	4.1
348.75	4.37
349.12	4.18
349.49	4.46
349.861	4.33
350.231	3.98
350.601	4.15
350.971	4.43
351.341	4.66
351.711	4.43
352.081	3.7
352.45	3.92
352.82	3.95
353.19	4.81
353.56	4.33
353.929	4.11
354.299	4.32
354.669	4.55
355.038	4.33
355.408	4.08
355.777	3.88
356.147	4.18
356.516	4.28
356.885	4.22
357.254	4.14
357.624	4.21
357.993	4.4
358.362	4.17
358.731	4.3
359.1	4.4
359.469	4.02
359.838	4.38
360.207	4.44
360.576	4.45
360.945	4.34
361.314	4.51
361.682	4.12
362.051	4.59
362.42	4.45
362.788	4.24
363.157	4.52
363.525	4.64
363.894	4.51
364.262	4.29
364.631	4.29
364.999	4.45
365.367	4.47
365.735	4.27
366.104	4.22
366.472	4.6
366.84	4.46
367.208	4.75
367.576	4.41
367.944	4.31
368.312	4.78
368.68	4.25
369.048	4.37
369.416	4.55
369.783	4.43
370.151	4.55
370.519	4.28
370.886	4.41
371.254	4.69
371.621	4.65
371.989	4.44
372.356	4.74
372.724	4.22
373.091	4.32
373.458	4.63
373.826	4.35
374.193	4.53
374.56	4.55
374.927	4.49
375.294	4.8
375.661	4.33
376.028	4.48
376.395	4.39
376.762	4.42
377.129	4.21
377.496	4.5
377.863	4.76
378.229	4.55
378.596	4.46
378.963	4.57
379.329	4.84
379.696	4.42
380.062	4.64
380.429	4.52
380.795	4.32
381.161	4.59
381.528	4.7
381.894	4.46
382.26	4.65
382.626	4.24
382.993	4.75
383.359	4.71
383.725	4.96
384.091	4.64
384.457	4.91
384.823	4.44
385.188	4.74
385.554	4.79
385.92	4.79
386.286	4.9
386.651	4.75
387.017	4.79
387.383	4.57
387.748	5.12
388.114	4.82
388.479	4.68
388.845	4.52
389.21	4.76
389.575	4.58
389.94	4.51
390.306	4.86
390.671	4.57
391.036	4.7
391.401	4.83
391.766	4.85
392.131	4.92
392.496	5.02
392.861	4.78
393.226	4.59
393.591	4.84
393.956	4.72
394.32	4.9
394.685	4.59
395.05	4.8
395.414	4.93
395.779	4.72
396.143	4.66
396.508	4.91
396.872	4.7
397.236	4.84
397.601	4.68
397.965	5.13
398.329	5.06
398.694	4.63
399.058	4.71
399.422	4.94
399.786	5.08
400.15	5.06
400.514	4.68
400.878	4.94
401.242	4.9
401.605	5.18
401.969	5.18
402.333	5.07
402.697	4.49
403.06	5.06
403.424	4.81
403.787	5.01
404.151	4.98
404.514	4.77
404.878	4.83
405.241	5.02
405.604	4.89
405.968	4.82
406.331	4.74
406.694	5.06
407.057	4.9
407.42	5
407.783	4.92
408.146	4.74
408.509	5.06
408.872	4.77
409.235	4.9
409.598	5.21
409.961	4.94
410.323	4.93
410.686	4.98
411.049	4.96
411.411	5.02
411.774	4.79
412.136	4.95
412.499	4.92
412.861	5.06
413.223	4.92
413.586	5.08
413.948	5.21
414.31	5.02
414.672	5.13
415.035	5
415.397	5.3
415.759	5.07
416.121	5.22
416.483	5.01
416.845	4.8
417.206	5.01
417.568	5.13
417.93	4.98
418.292	5.24
418.653	5.04
419.015	5.09
419.377	4.98
419.738	4.95
420.1	4.94
420.461	5.08
420.822	5.15
421.184	5.01
421.545	5
421.906	4.99
422.267	5.13
422.629	4.97
422.99	4.89
423.351	5.03
423.712	4.98
424.073	5.05
424.434	5.07
424.795	5.13
425.155	4.99
425.516	5.11
425.877	5.08
426.238	5.14
426.598	5.02
426.959	5.09
427.32	5.14
427.68	5.08
428.041	5.16
428.401	5.2
428.761	5.18
429.122	5.26
429.482	5.3
429.842	5.4
430.202	5.27
430.563	5.23
430.923	5.47
431.283	5.53
431.643	5.33
432.003	5.4
432.363	5.26
432.722	5.49
433.082	5.37
433.442	5.19
433.802	5.29
434.161	5.21
434.521	5.42
434.881	5.22
435.24	5.25
435.6	5.27
435.959	5.26
436.319	5.25
436.678	5.35
437.037	5.41
437.396	5.22
437.756	5.41
438.115	5.38
438.474	5.18
438.833	5.36
439.192	5.49
439.551	5.31
439.91	5.5
440.269	5.48
440.628	5.46
440.987	5.4
441.345	5.34
441.704	5.35
442.063	5.46
442.421	5.31
442.78	5.31
443.138	5.36
443.497	5.44
443.855	5.26
444.214	5.49
444.572	5.44
444.93	5.34
445.288	5.59
445.647	5.66
446.005	5.48
446.363	5.52
446.721	5.41
447.079	5.38
447.437	5.51
447.795	5.5
448.153	5.36
448.51	5.33
448.868	5.37
449.226	5.51
449.584	5.33
449.941	5.52
450.299	5.53
450.656	5.72
451.014	5.5
451.371	5.43
451.729	5.5
452.086	5.72
452.443	5.6
452.801	5.47
453.158	5.57
453.515	5.7
453.872	5.64
454.229	5.69
454.586	5.54
454.943	5.64
455.3	5.51
455.657	5.61
456.014	5.87
456.371	5.69
456.727	5.76
457.084	5.56
457.441	5.83
457.797	5.57
458.154	5.62
458.51	5.68
458.867	5.89
459.223	5.77
459.58	5.79
459.936	5.75
460.292	5.65
460.648	5.93
461.005	5.73
461.361	5.71
461.717	5.73
462.073	5.75
462.429	5.63
462.785	5.76
463.141	5.73
463.496	5.79
463.852	5.92
464.208	5.73
464.564	5.91
464.919	6
465.275	5.96
465.631	5.76
465.986	5.69
466.342	5.81
466.697	5.88
467.052	5.84
467.408	5.86
467.763	5.91
468.118	5.89
468.473	5.92
468.829	5.9
469.184	6.04
469.539	5.96
469.894	6.02
470.249	5.9
470.603	5.97
470.958	6.07
471.313	5.94
471.668	6.09
472.023	5.9
472.377	6
472.732	5.99
473.086	6.1
473.441	6.07
473.795	6.1
474.15	6.05
474.504	6.14
474.859	6.21
475.213	6.2
475.567	6.01
475.921	6.18
476.275	6.02
476.63	6.07
476.984	6.31
477.338	6.07
477.692	6.19
478.045	5.92
478.399	6.03
478.753	6.24
479.107	5.95
479.461	6.19
479.814	6.13
480.168	6.06
480.521	6
480.875	6.03
481.228	6.24
481.582	6.25
481.935	6.15
482.289	6.23
482.642	6.08
482.995	6.22
483.348	6.05
483.701	6.15
484.055	6.16
484.408	6.06
484.761	6
485.114	5.88
485.466	5.77
485.819	5.78
486.172	5.86
486.525	5.94
486.878	5.94
487.23	5.97
487.583	6.06
487.936	6.14
488.288	6.11
488.641	6.02
488.993	6.02
489.345	6.03
489.698	6.01
490.05	6.05
490.402	6.01
490.754	6.15
491.107	6.15
491.459	6.14
491.811	6.22
492.163	6.24
492.515	6.26
492.866	6.18
493.218	6.01
493.57	6.03
493.922	6.06
494.274	6.26
494.625	6.26
494.977	6.28
495.328	6.39
495.68	6.44
496.031	6.45
496.383	6.43
496.734	6.54
497.086	6.51
497.437	6.49
497.788	6.49
498.139	6.59
498.49	6.47
498.842	6.46
499.193	6.5
499.544	6.43
499.894	6.46
500.245	6.48
500.596	6.49
500.947	6.61
501.298	6.52
501.648	6.65
501.999	6.53
502.35	6.75
502.7	6.66
503.051	6.65
503.401	6.61
503.752	6.53
504.102	6.73
504.452	6.67
504.803	6.7
505.153	6.72
505.503	6.6
505.853	6.87
506.203	6.76
506.553	6.76
506.903	6.75
507.253	6.72
507.603	6.68
507.953	6.69
508.303	6.84
508.652	6.71
509.002	6.87
509.352	6.85
509.701	6.64
510.051	6.75
510.4	6.69
510.75	6.74
511.099	6.73
511.449	6.75
511.798	6.82
512.147	6.82
512.496	6.77
512.846	6.84
513.195	6.74
513.544	6.94
513.893	6.81
514.242	6.83
514.591	6.76
514.939	6.92
515.288	6.88
515.637	6.89
515.986	6.98
516.334	6.8
516.683	6.91
517.032	7.04
517.38	6.99
517.729	7.03
518.077	6.83
518.426	7.04
518.774	6.95
519.122	6.88
519.47	7.02
519.819	6.94
520.167	6.95
520.515	6.89
520.863	6.99
521.211	6.91
521.559	6.92
521.907	7
522.255	7.06
522.602	7.03
522.95	7.05
523.298	6.97
523.645	7.17
523.993	7.08
524.341	7.27
524.688	7.22
525.036	7.09
525.383	7.03
525.73	7.24
526.078	7.22
526.425	7.14
526.772	7.17
527.119	7.1
527.466	6.98
527.814	7.05
528.161	7.14
528.508	7.18
528.854	7.27
529.201	7.11
529.548	7.07
529.895	6.96
530.242	6.86
530.588	6.86
530.935	6.99
531.282	7
531.628	7.07
531.975	7.1
532.321	7.1
532.667	7.22
533.014	7.17
533.36	7.17
533.706	7.26
534.052	7.28
534.399	7.22
534.745	7.28
535.091	7.14
535.437	7.15
535.783	7.21
536.129	7.3
536.474	7.33
536.82	7.32
537.166	7.38
537.512	7.43
537.857	7.43
538.203	7.37
538.549	7.29
538.894	7.36
539.239	7.46
539.585	7.5
539.93	7.57
540.276	7.68
540.621	7.61
540.966	7.74
541.311	7.65
541.656	7.57
542.001	7.68
542.346	7.41
542.691	7.42
543.036	7.36
543.381	7.37
543.726	7.41
544.071	7.48
544.415	7.58
544.76	7.53
545.105	7.6
545.449	7.57
545.794	7.67
546.138	7.7
546.483	7.73
546.827	7.76
547.171	7.75
547.516	7.77
547.86	7.68
548.204	7.76
548.548	7.8
548.892	7.72
549.236	7.89
549.58	7.9
549.924	7.85
550.268	8.07
550.612	8.08
550.956	7.99
551.3	8.05
551.643	8.01
551.987	8.03
552.33	7.99
552.674	7.99
553.017	8.14
553.361	8.08
553.704	7.87
554.048	8.05
554.391	8.08
554.734	8.12
555.077	8.04
555.42	8.1
555.764	8.09
556.107	8.33
556.45	8.23
556.793	8.21
557.135	8.35
557.478	8.41
557.821	8.22
558.164	8.32
558.507	8.25
558.849	8.56
559.192	8.43
559.534	8.47
559.877	8.48
560.219	8.29
560.562	8.45
560.904	8.44
561.246	8.4
561.589	8.32
561.931	8.42
562.273	8.53
562.615	8.4
562.957	8.43
563.299	8.53
563.641	8.49
563.983	8.54
564.325	8.43
564.667	8.7
565.008	8.48
565.35	8.69
565.692	8.56
566.033	8.58
566.375	8.76
566.716	8.49
567.058	8.65
567.399	8.55
567.741	8.68
568.082	8.56
568.423	8.53
568.764	8.62
569.105	8.62
569.447	8.6
569.788	8.82
570.129	8.65
570.47	8.76
570.811	8.78
571.151	8.84
571.492	8.78
571.833	8.86
572.174	8.73
572.514	8.82
572.855	8.81
573.195	8.78
573.536	8.81
573.876	8.67
574.217	8.75
574.557	8.83
574.898	8.84
575.238	8.83
575.578	9.02
575.918	8.85
576.258	8.86
576.598	8.9
576.938	8.98
577.278	8.86
577.618	8.9
577.958	9.04
578.298	8.99
578.638	8.96
578.977	9.05
579.317	9.14
579.657	9.3
579.996	9.04
580.336	9.17
580.675	9.06
581.014	9.39
581.354	9.52
581.693	9.08
582.032	9.2
582.372	9.4
582.711	9.12
583.05	9.27
583.389	9.38
583.728	9.5
584.067	9.2
584.406	9.22
584.745	9.33
585.083	9.25
585.422	9.2
585.761	9.31
586.1	9.34
586.438	9.18
586.777	9.45
587.115	9.35
587.454	9.41
587.792	9.87
588.13	9.63
588.469	9.59
588.807	9.5
589.145	9.36
589.483	9.57
589.821	9.58
590.159	9.6
590.497	9.48
590.835	9.39
591.173	9.41
591.511	9.5
591.849	9.47
592.187	9.67
592.524	9.93
592.862	9.76
593.2	9.81
593.537	9.65
593.875	9.78
594.212	10.06
594.55	9.53
594.887	10.04
595.224	9.81
595.561	9.77
595.899	9.62
596.236	9.84
596.573	10
596.91	9.92
597.247	9.79
597.584	10.08
597.921	9.86
598.258	9.74
598.594	9.79
598.931	9.77
599.268	9.93
599.604	9.81
599.941	10.1
600.277	10.1
600.614	10.09
600.95	10.2
601.287	9.89
601.623	9.87
601.959	9.87
602.296	9.93
602.632	9.98
602.968	9.68
603.304	10.19
603.64	10.07
603.976	9.95
604.312	10.07
604.648	10.31
604.984	9.97
605.319	10.1
605.655	10.36
605.991	9.98
606.326	10.13
606.662	10.13
606.998	10.54
607.333	10.23
607.668	10.1
608.004	10.21
608.339	10.1
608.674	10.33
609.01	10.35
609.345	10.47
609.68	10.42
610.015	10.58
610.35	10.53
610.685	10.01
611.02	10.28
611.355	10.14
611.689	10.45
612.024	10.43
612.359	10.5
612.694	10.69
613.028	10.57
613.363	10.59
613.697	10.41
614.032	10.37
614.366	10.46
614.7	10.67
615.035	10.66
615.369	10.83
615.703	10.61
616.037	10.56
616.371	10.74
616.705	10.75
617.039	11.07
617.373	10.75
617.707	11.09
618.041	11.04
618.375	11
618.709	10.62
619.042	10.82
619.376	10.99
619.71	10.92
620.043	10.61
620.377	10.7
620.71	11.05
621.043	11.11
621.377	10.42
621.71	10.84
622.043	10.65
622.376	10.87
622.709	11.16
623.043	10.99
623.376	11.25
623.709	11.34
624.041	11.31
624.374	11.03
624.707	11.02
625.04	11.53
625.373	11.35
625.705	11.03
626.038	11.16
626.37	11.04
626.703	11.06
627.035	11.25
627.368	11.22
627.7	11.43
628.032	11.1
628.365	11.21
628.697	10.99
629.029	11.39
629.361	11.39
629.693	11.24
630.025	11.61
630.357	11.33
630.689	11.18
631.021	11.12
631.353	11.54
631.684	11.42
632.016	11.35
632.348	11.22
632.679	11.19
633.011	11.36
633.342	11.44
633.674	11.59
634.005	11.35
634.336	11.81
634.668	11.68
634.999	11.34
635.33	11.51
635.661	11.6
635.992	11.77
636.323	11.65
636.654	11.65
636.985	11.68
637.316	11.63
637.647	11.82
637.977	11.5
638.308	11.4
638.639	11.29
638.969	11.82
639.3	11.62
639.63	11.59
639.961	12.05
640.291	11.88
640.622	11.63
640.952	11.93
641.282	12.17
641.612	12.12
641.943	12.19
642.273	12.38
642.603	12.12
642.933	11.99
643.263	11.42
643.592	12.33
643.922	11.95
644.252	12.68
644.582	12.47
644.911	11.99
645.241	11.81
645.571	12.75
645.9	11.93
646.23	12.53
646.559	12.01
646.888	12.49
647.218	12.59
647.547	12.5
647.876	12
648.205	12.23
648.534	12.37
648.863	12.39
649.192	12.45
649.521	11.98
649.85	12.41
650.179	12.02
650.508	12.12
650.837	12.51
651.165	12.61
651.494	12.25
651.822	12.34
652.151	12.82
652.479	12.1
652.808	12.34
653.136	12.69
653.465	12.19
653.793	12.49
654.121	12.33
654.449	12.11
654.777	12.73
655.105	12.74
655.433	12.68
655.761	12.48
656.089	12.96
656.417	12.68
656.745	12.61
657.073	11.7
657.4	12.66
657.728	12.56
658.056	12.41
658.383	12.72
658.711	12.38
659.038	12.51
659.365	12.39
659.693	12.72
660.02	13.16
660.347	12.68
660.674	12.23
661.001	12.91
661.329	12.35
661.656	12.75
661.982	13
662.309	12.96
662.636	12.7
662.963	12.78
663.29	12.83
663.616	13.05
663.943	13.17
664.27	12.78
664.596	12.82
664.923	12.94
665.249	13.4
665.576	13.27
665.902	12.74
666.228	13.12
666.554	13.25
666.881	13.18
667.207	13.29
667.533	12.99
667.859	12.71
668.185	13.06
668.511	12.9
668.837	13.17
669.162	13.35
669.488	13.39
669.814	12.96
670.139	12.93
670.465	13.5
670.791	13.19
671.116	13.42
671.442	13.47
671.767	12.9
672.092	12.9
672.418	13.33
672.743	13.24
673.068	13.09
673.393	13.52
673.718	13.69
674.043	13.71
674.368	13.5
674.693	13.53
675.018	13.92
675.343	14.02
675.667	13.82
675.992	13.47
676.317	13.37
676.641	13.08
676.966	13.73
677.29	13.81
677.615	13.93
677.939	13.55
678.264	13.68
678.588	13.57
678.912	13.44
679.236	13.54
679.56	13.18
679.885	14.01
680.209	14.03
680.532	13.04
680.856	13.81
681.18	13.54
681.504	14.08
681.828	14.04
682.152	13.63
682.475	13.23
682.799	14.01
683.122	14.09
683.446	14.08
683.769	13.52
684.093	14.24
684.416	14.29
684.739	13.72
685.062	13.78
685.386	13.51
685.709	13.93
686.032	13.48
686.355	13.78
686.678	14.15
687.001	14.08
687.324	14.7
687.646	14.66
687.969	13.8
688.292	13.42
688.614	14.13
688.937	13.81
689.26	14.43
689.582	14.09
689.904	13.96
690.227	13.66
690.549	14.17
690.871	14.63
691.194	13.73
691.516	13.68
691.838	14.66
692.16	13.94
692.482	14.33
692.804	14.79
693.126	15.09
693.448	14.04
693.769	15.11
694.091	13.99
694.413	14.32
694.735	14.62
695.056	14.88
695.378	14.14
695.699	14.3
696.021	14.53
696.342	15.12
696.663	14.72
696.984	14.53
697.306	14.32
697.627	14.44
697.948	14.36
698.269	14.46
698.59	14.23
698.911	14.44
699.232	14.5
699.553	14.5
699.873	15.14
700.194	14.72
700.515	13.88
700.835	14.3
701.156	14.36
701.477	14.84
701.797	15.29
702.117	14.62
702.438	15.18
702.758	15.03
703.078	15.55
703.398	15.45
703.719	15.4
704.039	13.94
704.359	15.41
704.679	14.69
704.999	14.31
705.319	14.93
705.638	14.83
705.958	14.72
706.278	14.61
706.597	15.05
706.917	14.38
707.237	16.24
707.556	15.35
707.876	14.84
708.195	14.47
708.514	14.87
708.834	14.1
709.153	15.28
709.472	15.26
709.791	14.78
710.11	15.05
710.429	14.51
710.748	15.57
711.067	16.06
711.386	15.35
711.705	13.91
712.023	15.7
712.342	15.34
712.661	14.92
712.979	15.09
713.298	15.82
713.616	15.61
713.935	15.9
714.253	16.76
714.572	15.96
714.89	15.35
715.208	15.08
715.526	15.66
715.844	14.97
716.162	15.72
716.48	16.36
716.798	15.34
717.116	15.54
717.434	15.63
717.752	15.57
718.069	15.59
718.387	14.79
718.705	15.16
719.022	16.89
719.34	14.96
719.657	15.84
719.975	15.11
720.292	15.63
720.609	15.07
720.927	16.21
721.244	16.61
721.561	16.47
721.878	16.05
722.195	16.48
722.512	15.59
722.829	16.37
723.146	16.51
723.463	15.5
723.779	14.47
724.096	15.98
724.413	16.35
724.729	14.92
725.046	15.79
725.362	15.27
725.679	15.32
725.995	15.75
726.311	15.68
726.628	16.17
726.944	16.02
727.26	17.23
727.576	17.14
727.892	15.53
728.208	15.25
728.524	15.72
728.84	14.7
729.156	16.5
729.472	16.39
729.787	16.86
730.103	16.66
730.419	16.78
730.734	16.19
731.05	16.72
731.365	17.02
731.681	17.03
731.996	16.63
732.311	16.54
732.626	14.77
732.942	16.73
733.257	17.15
733.572	15.65
733.887	16.54
734.202	16.59
734.517	16.35
734.832	17.33
735.146	16.83
735.461	16.92
735.776	15.45
736.091	16.77
736.405	16.78
736.72	16.77
737.034	16.27
737.349	16.3
737.663	16.63
737.977	17.45
738.292	17.95
738.606	17.72
738.92	18.1
739.234	16.75
739.548	15.74
739.862	16.11
740.176	15.42
740.49	16.62
740.804	18.7
741.117	17.31
741.431	18.56
741.745	17.57
742.058	17.79
742.372	16.31
742.685	17.46
742.999	17.93
743.312	16.47
743.626	16.46
743.939	16.15
744.252	17.7
744.565	14.68
744.878	18.74
745.191	16.14
745.505	17.94
745.817	16.77
746.13	17.36
746.443	17.08
746.756	16.78
747.069	16.51
747.381	17
747.694	17.83
748.007	19.28
748.319	16.55
748.632	16.22
748.944	17.77
749.256	17
749.569	17.6
749.881	16.69
750.193	17.32
750.505	17.76
750.817	17.97
751.129	17.22
751.441	16.47
751.753	17.72
752.065	17.56
752.377	17.02
752.689	16.94
753	17.64
753.312	16.62
753.624	15.92
753.935	17.39
754.247	17.08
754.558	17.95
754.869	17.69
755.181	16.51
755.492	18.59
755.803	17.12
756.114	16.97
756.425	17.9
756.736	18.38
757.047	17.87
757.358	18.08
757.669	17.31
757.98	16.22
758.291	17.8
758.601	19.21
758.912	18.62
759.223	17.59
759.533	18.98
759.844	17.13
760.154	17.65
760.464	18.38
760.775	17.14
761.085	17.55
761.395	17.22
761.705	19.34
762.016	17.68
762.326	18.81
762.636	16.07
762.945	18.35
763.255	17.51
763.565	19.58
763.875	18.85
764.185	17.95
764.494	18.18
764.804	17.66
765.113	17.6
765.423	18.74
765.732	18.43
766.042	18.39
766.351	16.36
766.66	17.38
766.97	18.55
767.279	17.39
767.588	20.15
767.897	18.44
768.206	19.33
768.515	17.2
768.824	19.36
769.133	18.95
769.441	18.13
769.75	19.89
770.059	20.07
770.367	20.8
770.676	19.75
770.984	18.57
771.293	16.93
771.601	19.83
771.91	21.94
772.218	19.76
772.526	19.3
772.834	19.35
773.142	18.19
773.45	18.15
773.758	19.81
774.066	19.06
774.374	19.16
774.682	18.92
774.99	18.67
775.298	16.98
775.605	18.6
775.913	16.67
776.22	18.78
776.528	17.54
776.835	20.4
777.143	17.06
777.45	19.35
777.757	17.15
778.065	18.41
778.372	17.52
778.679	17.06
778.986	20.94
779.293	19.14
779.6	17.65
779.907	17.03
780.214	17.38
780.52	16.46
780.827	18.42
781.134	16.74
781.44	20.66
781.747	20.33
782.053	17.97
782.36	18.98
782.666	19.52
782.973	22.16
783.279	18.14
783.585	18.61
783.891	20.51
784.197	20.86
784.503	21.59
784.809	20.24
785.115	22.09
785.421	22.74
785.727	18.37
786.033	22.59
786.339	16.09
786.644	18.26
786.95	17.62
787.255	20.85
787.561	21.02
787.866	19.98
788.172	24.1
788.477	20.63
788.782	18.96
789.088	17.18
789.393	18.16
789.698	17.45
790.003	20.41
790.308	21.62
790.613	16.04
790.918	18
791.223	20.7
791.527	21.06
791.832	19.28
792.137	17.88
792.441	17.36
792.746	19.26
793.05	16.26
793.355	20.85
793.659	19.55
793.963	20.03
794.268	21.46
794.572	19.03
794.876	25.69
795.18	18.54
795.484	21.45
795.788	20.12
796.092	17.25
796.396	16.02
796.7	16.12
797.004	20.51
797.307	15.89
797.611	18.18
797.915	20.73
798.218	18.01
798.522	23.66
798.825	19.92
799.128	22.24
799.432	20.59
799.735	19.16
800.038	19.07
800.341	22.46
800.644	19.59
800.947	21.45
801.25	21.51
801.553	19.68
801.856	21.89
802.159	19.4
802.462	20.9
802.764	19.18
803.067	16.59
803.37	19.27
803.672	23.93
803.975	21.09
804.277	18.26
804.579	20.44
804.882	20.22
805.184	14.78
805.486	21.46
805.788	25.63
806.09	20.89
806.392	23.46
806.694	17.26
806.996	16.96
807.298	22.07
807.6	24.55
807.902	17.98
808.203	23.57
808.505	20.78
808.807	18.58
809.108	17.72
809.409	25.77
809.711	17.22
810.012	24.97
810.313	22.49
810.615	17.19
810.916	16.3
811.217	25.87
811.518	23.39
811.819	22.24
812.12	22.33
812.421	20.58
812.722	19.92
813.023	21.61
813.323	20.43
813.624	22.93
813.925	22.84
814.225	16.38
814.526	25.3
814.826	22.7
815.126	19.68
815.427	23.46
815.727	22.09
816.027	24.99
816.327	21.03
816.627	20.28
816.927	26.17
817.227	16.33
817.527	20.29
817.827	26.51
818.127	16.26
818.427	21.29
818.727	22.98
819.026	29.57
819.326	19.29
819.625	24.49
819.925	20.68
820.224	24.74
820.524	21.77
820.823	24.51
821.122	22.54
821.421	20.13
821.72	21.33
822.019	21.24
822.318	25.77
822.617	22.3
822.916	22.01
823.215	18.56
823.514	19.28
823.813	17.82
824.111	21.57
824.41	21.05
824.709	20.81
825.007	21.64
825.306	22.09
825.604	21.22
825.902	22.04
826.201	22.33
826.499	23.58
826.797	22.82
827.095	21.34
827.393	23.87
827.691	24.1
827.989	21.8
828.287	21.95
828.585	22.91
828.882	22.02
829.18	20.77
829.478	20.97
829.775	21.09
830.073	23.79
830.37	23.42
830.668	21.51
830.965	23.16
831.263	22.04
831.56	23.22
831.857	24.1
832.154	23.13
832.451	25.71
832.748	20.47
833.045	27.9
833.342	21.42
833.639	24.94
833.936	24.35
834.232	21.22
834.529	18.86
834.826	21.65
835.122	21.96
835.419	24.07
835.715	26
836.012	20.57
836.308	25.32
836.604	20.32
836.901	21.07
837.197	23.02
837.493	23.25
837.789	22.43
838.085	15.9
838.381	18.37
838.677	22.13
838.972	29.28
839.268	22.44
839.564	18.43
839.86	24.89
840.155	20.74
840.451	23.92
840.746	19.93
841.042	19.88
841.337	24.2
841.632	25.38
841.928	26.59
842.223	32.41
842.518	23.69
842.813	23.16
843.108	24.86
843.403	27.27
843.698	25.27
843.993	21.13
844.287	22.06
844.582	17.17
844.877	18.46
845.171	31.8
845.466	19.87
845.761	33.25
846.055	21.14
846.349	14.9
846.644	22.71
846.938	14.59
847.232	26.18
847.526	29.65
847.82	33.77
848.114	27.88
848.408	29.97
848.702	36.84
848.996	26.04
849.29	15.84
849.584	4.61
849.877	22.58
850.171	26.54
850.465	13.4
850.758	13.09
851.052	23.31
851.345	26.11
851.638	26.35
851.932	32.45
852.225	25.08
852.518	24.99
852.811	22.17
853.104	10.68
853.397	25.87
853.69	25.32
853.983	29
854.276	18.2
854.569	26.78
854.861	45.34
855.154	38.8
855.447	24.37
855.739	9.94
856.032	22.51
856.324	21.86
856.616	11.17
856.909	9.48
857.201	2.15
857.493	8.72
857.785	16.91
858.077	35.25
858.369	38.53
858.661	34.01
858.953	9.5
859.245	22.07
859.537	25.2
859.829	0.36
860.12	35.55
860.412	21.12
860.703	13.18
860.995	39.95
861.286	29.52
861.578	24.74
861.869	13.02
862.16	32.77
862.452	20.43
862.743	10.92
863.034	24.33
863.325	25.94
863.616	20.98
863.907	33.65
864.198	16.83
864.488	26.19
864.779	9.76
865.07	34.7
865.36	-6.62
865.651	34.15
865.941	40.96
866.232	31.38
866.522	21.73
866.813	21.77
867.103	30.19
867.393	30.84
867.683	37.31
867.973	40.49
868.263	13.88
868.553	21.8
868.843	8.88
869.133	20.29
869.423	27.19
869.713	20.51
870.002	15.29
870.292	14.53
870.582	36.27
870.871	42.06
871.161	35.74
871.45	12.45
871.739	32.89
872.029	40.03
872.318	23.53
872.607	25.43
872.896	43.93
873.185	54.62
873.474	43.05
873.763	8.64
874.052	25.89
874.341	24.11
874.63	27.63
874.918	27.58
875.207	42.77
875.496	21.4
875.784	-3.48
876.073	3.72
876.361	47.58
876.649	34.98
876.938	21.32
877.226	20.29
877.514	39.9
877.802	33.05
878.09	14.61
878.378	34.1
878.666	18.12
878.954	3.49
879.242	15.01
879.53	35.51
879.817	41.41
880.105	-9.8
880.392	53.42
880.68	-3.58
880.967	-0.01
881.255	31.84
881.542	21.16
881.83	7.23
882.117	18.87
882.404	30.47
882.691	14.18
882.978	9.04
883.265	0.97
883.552	17.96
883.839	13.86
884.126	19.19
884.413	19.86
884.699	18.26
884.986	25.07
885.273	23.44
885.559	23.44
885.846	23.44
