Data from 20-5_forehead_Reflection__3__13.txt Node

Date: Fri Nov 11 20:15:59 CST 2022
User: ToomeyLab
Spectrometer: FLMS14357
Trigger mode: 0
Integration Time (sec): 1.000000E-2
Scans to average: 100
Electric dark correction enabled: true
Nonlinearity correction enabled: false
Boxcar width: 0
XAxis mode: Wavelengths
Number of Pixels in Spectrum: 2048
>>>>>Begin Spectral Data<<<<<
189.047	50.52
189.435	50.52
189.823	50.52
190.211	1039.75
190.599	67.98
190.987	-23.53
191.375	83.99
191.763	86.52
192.151	815.63
192.538	49.96
192.926	58.87
193.314	398.06
193.702	109.43
194.089	1086.08
194.477	348.89
194.864	171.68
195.252	93.88
195.639	-55.51
196.027	659.67
196.414	-15.82
196.801	-220.94
197.189	98.5
197.576	-215.68
197.963	49.77
198.351	-18.53
198.738	17.84
199.125	33.92
199.512	0.77
199.899	-74.73
200.286	21.71
200.673	43.97
201.06	62.82
201.447	73.14
201.833	65.55
202.22	41.37
202.607	37.52
202.994	29.27
203.38	7.78
203.767	60.88
204.154	45.87
204.54	-31.13
204.927	6.7
205.313	-8.89
205.699	-40.29
206.086	50.05
206.472	51.85
206.858	48.93
207.245	58.47
207.631	4.47
208.017	10.91
208.403	26.45
208.789	-1.23
209.175	39.17
209.561	70.14
209.947	28
210.333	34.42
210.719	35.85
211.105	44.58
211.491	-7.24
211.876	26.21
212.262	34.82
212.648	19.03
213.034	24.56
213.419	-9.52
213.805	-1.18
214.19	50.59
214.576	19.37
214.961	-18.34
215.346	-31.92
215.732	3.7
216.117	29.6
216.502	-5.03
216.888	16.47
217.273	40.71
217.658	-33.05
218.043	-1.86
218.428	23.46
218.813	14.32
219.198	19.32
219.583	14.11
219.968	3.23
220.353	3.05
220.738	4.28
221.122	2.62
221.507	-0.35
221.892	15.06
222.276	22.68
222.661	29.83
223.046	-5.56
223.43	2.51
223.815	2.19
224.199	3.71
224.583	2.47
224.968	-0.57
225.352	7.91
225.736	11.43
226.121	7.5
226.505	4.58
226.889	-5.37
227.273	2.06
227.657	1.77
228.041	3.14
228.425	4.86
228.809	3.96
229.193	5.59
229.577	4.7
229.961	4.64
230.344	3.91
230.728	3.03
231.112	1.73
231.495	3.93
231.879	2.98
232.263	3.36
232.646	1.85
233.03	5.73
233.413	4.41
233.797	2.67
234.18	1.66
234.563	4.66
234.946	4.12
235.33	4.47
235.713	3.7
236.096	3.3
236.479	3.98
236.862	6.51
237.245	3.8
237.628	4.61
238.011	5.03
238.394	3.7
238.777	4.77
239.16	5.4
239.543	4.03
239.925	3.85
240.308	3.74
240.691	4.46
241.073	3.82
241.456	2.36
241.838	4.48
242.221	3.81
242.603	3.65
242.986	3.79
243.368	3.5
243.75	3.24
244.133	3.12
244.515	3.11
244.897	3.95
245.279	3.16
245.661	4.1
246.043	2.88
246.425	4.22
246.807	3.25
247.189	3.4
247.571	3.38
247.953	3.14
248.335	3.18
248.717	3.16
249.098	3.54
249.48	3.43
249.862	3.53
250.243	3.7
250.625	3.74
251.006	4.33
251.388	4.28
251.769	5.03
252.151	4.71
252.532	4.37
252.913	4.43
253.295	3.25
253.676	3.4
254.057	3.76
254.438	3.53
254.819	3.34
255.2	3.91
255.581	3.82
255.962	5.34
256.343	3.54
256.724	4.21
257.105	4.41
257.486	2.43
257.867	5.08
258.247	3.74
258.628	3.06
259.009	3.09
259.389	3.5
259.77	3.88
260.15	3.8
260.531	3.62
260.911	3.19
261.292	3.43
261.672	3.03
262.052	3.25
262.432	3.68
262.813	3.26
263.193	2.91
263.573	3.2
263.953	3.56
264.333	3.37
264.713	3.44
265.093	3.62
265.473	3.92
265.853	3.78
266.233	3.86
266.612	3.55
266.992	3.47
267.372	4.08
267.752	3.23
268.131	3.18
268.511	3.2
268.89	2.94
269.27	3.01
269.649	3.25
270.029	3.76
270.408	3.5
270.787	3.55
271.167	3
271.546	3.39
271.925	3.46
272.304	3.11
272.683	3.36
273.062	3.05
273.441	3.47
273.82	2.92
274.199	3.34
274.578	3.19
274.957	3.22
275.336	3.78
275.715	3.87
276.093	2.56
276.472	2.81
276.851	2.93
277.229	3.43
277.608	3.42
277.986	3.38
278.365	3.3
278.743	3.35
279.122	3.58
279.5	3.35
279.878	3.24
280.257	3.66
280.635	3.3
281.013	2.96
281.391	2.96
281.769	3.08
282.147	3.32
282.525	3.12
282.903	3.04
283.281	3.19
283.659	3.46
284.037	3.91
284.415	3.08
284.792	3.18
285.17	3.25
285.548	2.87
285.925	2.69
286.303	3.38
286.68	3.53
287.058	3.36
287.435	3.23
287.813	3.24
288.19	3.46
288.567	3.3
288.945	3.67
289.322	3.66
289.699	3.39
290.076	3.66
290.453	3.38
290.83	3.07
291.207	3.28
291.584	3.93
291.961	3.32
292.338	3.89
292.715	3.91
293.092	3.75
293.469	3.79
293.845	4.26
294.222	3.56
294.599	4.27
294.975	3.97
295.352	4.14
295.728	3.91
296.105	4.07
296.481	3.75
296.858	4.19
297.234	4.05
297.61	3.64
297.986	4.13
298.363	4.15
298.739	4.25
299.115	4.11
299.491	4.64
299.867	4.47
300.243	3.97
300.619	4.6
300.995	4.49
301.371	5.16
301.746	4.47
302.122	4.75
302.498	4.86
302.874	4.77
303.249	4.41
303.625	4.61
304	4.23
304.376	4.72
304.751	4.56
305.127	4.71
305.502	5.03
305.878	4.71
306.253	4.81
306.628	4.59
307.003	5.3
307.378	5.17
307.754	5.31
308.129	5.25
308.504	4.89
308.879	5.69
309.254	5.52
309.629	5.06
310.003	5.5
310.378	5.25
310.753	5.69
311.128	5.38
311.502	5.49
311.877	5.46
312.252	5.15
312.626	5.2
313.001	5.2
313.375	5.18
313.75	5.45
314.124	5.46
314.498	5.66
314.873	5.7
315.247	5.46
315.621	5.73
315.995	5.86
316.369	5.24
316.743	5.61
317.117	6.05
317.491	6.36
317.865	5.44
318.239	6.39
318.613	6.1
318.987	5.86
319.361	5.9
319.734	6.5
320.108	5.46
320.482	6.35
320.855	5.76
321.229	6.16
321.602	6.41
321.976	6.42
322.349	6.39
322.723	6.81
323.096	6.66
323.469	6.88
323.843	6.54
324.216	6.45
324.589	6.66
324.962	7.17
325.335	6.31
325.708	6.6
326.081	6.63
326.454	6.73
326.827	6.37
327.2	7.43
327.573	7.44
327.945	6.47
328.318	7.1
328.691	6.61
329.063	7.63
329.436	6.69
329.809	6.81
330.181	6.74
330.553	6.6
330.926	7.11
331.298	7.08
331.671	6.97
332.043	6.12
332.415	7.06
332.787	7.23
333.159	7
333.532	7.02
333.904	7.52
334.276	6.97
334.648	7.17
335.02	7.47
335.391	7.75
335.763	7.18
336.135	6.81
336.507	7.41
336.879	7.46
337.25	7.08
337.622	7.51
337.993	7.57
338.365	7.76
338.736	7.6
339.108	8.06
339.479	7.2
339.851	7.39
340.222	7.27
340.593	7.8
340.964	7.81
341.336	7.67
341.707	7.59
342.078	7.13
342.449	7.82
342.82	8.08
343.191	7.87
343.562	7.42
343.933	7.52
344.303	7.45
344.674	7.92
345.045	7.76
345.416	7.93
345.786	7.6
346.157	7.83
346.527	7.88
346.898	7.7
347.268	7.75
347.639	7.92
348.009	7.73
348.38	8.22
348.75	8.25
349.12	8.67
349.49	8.08
349.861	8.34
350.231	8.28
350.601	8.23
350.971	8.41
351.341	8.4
351.711	8.32
352.081	8.21
352.45	8.43
352.82	8.39
353.19	8.93
353.56	8.46
353.929	8.58
354.299	8
354.669	8.6
355.038	8.36
355.408	8.6
355.777	8.55
356.147	8.74
356.516	8.81
356.885	8.8
357.254	8.3
357.624	8.14
357.993	9.06
358.362	8.55
358.731	8.36
359.1	8.75
359.469	8.11
359.838	8.46
360.207	8.86
360.576	8.74
360.945	8.57
361.314	8.47
361.682	8.84
362.051	8.88
362.42	8.87
362.788	9.01
363.157	8.55
363.525	8.5
363.894	8.56
364.262	9.13
364.631	9.32
364.999	8.86
365.367	9.11
365.735	9.16
366.104	9.06
366.472	8.81
366.84	9.05
367.208	9.06
367.576	9.54
367.944	9.76
368.312	9.21
368.68	8.84
369.048	9.54
369.416	9.31
369.783	9.74
370.151	9.64
370.519	9.66
370.886	9.56
371.254	9.61
371.621	9.34
371.989	9.56
372.356	9.52
372.724	10.07
373.091	9.99
373.458	9.73
373.826	9.55
374.193	9.51
374.56	9.74
374.927	9.98
375.294	9.92
375.661	10.05
376.028	9.61
376.395	9.95
376.762	10.13
377.129	9.75
377.496	9.7
377.863	10.1
378.229	9.92
378.596	9.82
378.963	10.03
379.329	9.9
379.696	10.14
380.062	10.09
380.429	10.45
380.795	10.85
381.161	10.54
381.528	10.41
381.894	10.59
382.26	10.65
382.626	10.39
382.993	10.37
383.359	10.34
383.725	10.48
384.091	10.74
384.457	10.57
384.823	10.18
385.188	10.52
385.554	10.51
385.92	10.41
386.286	10.57
386.651	10.63
387.017	10.46
387.383	10.84
387.748	10.78
388.114	10.65
388.479	10.44
388.845	10.64
389.21	10.62
389.575	10.94
389.94	10.9
390.306	10.66
390.671	10.77
391.036	11.12
391.401	11.14
391.766	11.13
392.131	10.93
392.496	11.15
392.861	10.89
393.226	10.93
393.591	11.08
393.956	10.92
394.32	11.23
394.685	11.24
395.05	11.37
395.414	11.1
395.779	11.04
396.143	11.06
396.508	11.52
396.872	11.51
397.236	11.42
397.601	11.37
397.965	11.43
398.329	11.27
398.694	11.38
399.058	11.43
399.422	11.56
399.786	11.41
400.15	11.51
400.514	11.58
400.878	11.61
401.242	11.67
401.605	11.65
401.969	11.7
402.333	11.29
402.697	11.77
403.06	11.95
403.424	11.52
403.787	11.82
404.151	11.78
404.514	11.72
404.878	11.66
405.241	11.85
405.604	11.57
405.968	11.83
406.331	11.67
406.694	11.72
407.057	11.87
407.42	12.04
407.783	11.94
408.146	12.12
408.509	11.81
408.872	12.16
409.235	11.93
409.598	12.21
409.961	12.32
410.323	11.95
410.686	12.13
411.049	12.11
411.411	12.25
411.774	12.09
412.136	12.21
412.499	12.5
412.861	12.33
413.223	12.02
413.586	12.33
413.948	12.79
414.31	12.51
414.672	12.54
415.035	12.65
415.397	12.5
415.759	12.5
416.121	12.08
416.483	12.61
416.845	12.37
417.206	12.27
417.568	12.38
417.93	12.51
418.292	12.51
418.653	12.51
419.015	12.45
419.377	12.45
419.738	12.59
420.1	12.51
420.461	12.6
420.822	12.43
421.184	12.48
421.545	12.53
421.906	12.48
422.267	12.45
422.629	12.35
422.99	12.48
423.351	12.59
423.712	12.69
424.073	12.9
424.434	12.86
424.795	12.97
425.155	12.69
425.516	12.82
425.877	12.79
426.238	12.86
426.598	12.8
426.959	12.93
427.32	13
427.68	13.2
428.041	13.4
428.401	13.22
428.761	13.42
429.122	13.36
429.482	13.53
429.842	13.49
430.202	13.33
430.563	13.67
430.923	13.55
431.283	13.47
431.643	13.63
432.003	13.75
432.363	13.67
432.722	13.79
433.082	13.66
433.442	13.73
433.802	13.84
434.161	13.67
434.521	13.45
434.881	13.81
435.24	13.85
435.6	13.88
435.959	13.89
436.319	13.93
436.678	14.03
437.037	13.98
437.396	14.14
437.756	14.15
438.115	13.98
438.474	14.06
438.833	14.18
439.192	14.23
439.551	14.03
439.91	14.3
440.269	14.18
440.628	14.25
440.987	14.11
441.345	14.17
441.704	14.3
442.063	14.15
442.421	14.24
442.78	14.12
443.138	14.4
443.497	14.39
443.855	14.54
444.214	14.55
444.572	14.67
444.93	14.72
445.288	14.53
445.647	14.72
446.005	14.65
446.363	14.79
446.721	14.59
447.079	14.56
447.437	14.52
447.795	14.46
448.153	14.4
448.51	14.55
448.868	14.59
449.226	14.75
449.584	14.65
449.941	14.85
450.299	15.02
450.656	15.1
451.014	15.13
451.371	15.11
451.729	15.2
452.086	15.16
452.443	15.34
452.801	15.31
453.158	15.25
453.515	15.25
453.872	15.2
454.229	15.33
454.586	15.31
454.943	15.46
455.3	15.55
455.657	15.48
456.014	15.61
456.371	15.66
456.727	15.84
457.084	15.55
457.441	15.87
457.797	15.76
458.154	15.74
458.51	15.88
458.867	15.78
459.223	15.85
459.58	15.76
459.936	15.67
460.292	15.68
460.648	15.69
461.005	15.51
461.361	15.53
461.717	15.49
462.073	15.81
462.429	15.84
462.785	15.98
463.141	16
463.496	16.16
463.852	16.34
464.208	16.32
464.564	16.16
464.919	16.37
465.275	16.44
465.631	16.31
465.986	16.59
466.342	16.38
466.697	16.37
467.052	16.54
467.408	16.65
467.763	16.68
468.118	16.49
468.473	16.68
468.829	16.48
469.184	16.61
469.539	16.8
469.894	16.9
470.249	16.67
470.603	16.83
470.958	16.74
471.313	16.97
471.668	17.06
472.023	16.94
472.377	17.02
472.732	16.98
473.086	17
473.441	17.17
473.795	16.95
474.15	17.07
474.504	17.2
474.859	17.31
475.213	17.32
475.567	17.24
475.921	17.36
476.275	17.37
476.63	17.55
476.984	17.38
477.338	17.63
477.692	17.39
478.045	17.36
478.399	17.42
478.753	17.37
479.107	17.6
479.461	17.36
479.814	17.39
480.168	17.55
480.521	17.4
480.875	17.62
481.228	17.76
481.582	17.59
481.935	17.58
482.289	17.6
482.642	17.67
482.995	17.49
483.348	17.43
483.701	17.43
484.055	17.35
484.408	17.25
484.761	16.94
485.114	16.57
485.466	16.63
485.819	16.82
486.172	17.09
486.525	17.4
486.878	17.53
487.23	17.65
487.583	17.75
487.936	17.63
488.288	17.59
488.641	17.26
488.993	17.27
489.345	17.24
489.698	17.4
490.05	17.53
490.402	17.69
490.754	18.01
491.107	18.06
491.459	18.12
491.811	18.29
492.163	18.27
492.515	18.03
492.866	17.69
493.218	17.6
493.57	17.75
493.922	18.01
494.274	18.28
494.625	18.51
494.977	18.65
495.328	18.78
495.68	18.72
496.031	18.85
496.383	19
496.734	18.79
497.086	19.03
497.437	19.12
497.788	18.87
498.139	18.78
498.49	18.71
498.842	18.79
499.193	18.95
499.544	19.23
499.894	19.13
500.245	19.19
500.596	19.2
500.947	19.2
501.298	19.44
501.648	19.4
501.999	19.52
502.35	19.62
502.7	19.65
503.051	19.73
503.401	19.8
503.752	19.71
504.102	19.56
504.452	19.6
504.803	19.69
505.153	19.66
505.503	19.7
505.853	19.78
506.203	19.9
506.553	19.79
506.903	19.94
507.253	20.06
507.603	19.93
507.953	20.1
508.303	20.18
508.652	20.16
509.002	20.19
509.352	20.02
509.701	20.15
510.051	19.96
510.4	20.04
510.75	19.98
511.099	20.03
511.449	20.16
511.798	20.27
512.147	20.19
512.496	20.28
512.846	20.48
513.195	20.3
513.544	20.36
513.893	20.17
514.242	20.38
514.591	20.5
514.939	20.64
515.288	20.64
515.637	20.59
515.986	20.78
516.334	20.99
516.683	20.89
517.032	20.9
517.38	20.77
517.729	21.01
518.077	20.94
518.426	20.92
518.774	20.94
519.122	20.79
519.47	20.84
519.819	20.71
520.167	20.58
520.515	20.62
520.863	20.85
521.211	20.9
521.559	20.91
521.907	21.21
522.255	21.12
522.602	21.39
522.95	21.34
523.298	21.52
523.645	21.45
523.993	21.58
524.341	21.48
524.688	21.73
525.036	21.62
525.383	21.59
525.73	21.5
526.078	21.47
526.425	21.44
526.772	21.4
527.119	21.19
527.466	21.26
527.814	21.4
528.161	21.5
528.508	21.54
528.854	21.56
529.201	21.41
529.548	21.04
529.895	20.72
530.242	20.74
530.588	21.06
530.935	21.33
531.282	21.47
531.628	21.51
531.975	21.7
532.321	21.74
532.667	21.94
533.014	22.01
533.36	22.06
533.706	22.08
534.052	21.94
534.399	21.65
534.745	21.45
535.091	21.57
535.437	21.76
535.783	22
536.129	22.18
536.474	22.43
536.82	22.63
537.166	22.65
537.512	22.58
537.857	22.42
538.203	22.18
538.549	22.37
538.894	22.59
539.239	22.71
539.585	22.84
539.93	23.03
540.276	23.16
540.621	23.3
540.966	23.28
541.311	23.15
541.656	22.9
542.001	22.89
542.346	22.53
542.691	22.24
543.036	22.21
543.381	22.48
543.726	22.5
544.071	22.72
544.415	22.89
544.76	22.94
545.105	23.03
545.449	23.15
545.794	23.42
546.138	23.32
546.483	23.47
546.827	23.65
547.171	23.56
547.516	23.67
547.86	23.69
548.204	23.49
548.548	23.47
548.892	23.7
549.236	23.71
549.58	24.03
549.924	24.2
550.268	24.09
550.612	24.25
550.956	24.39
551.3	24.35
551.643	24.53
551.987	24.58
552.33	24.59
552.674	24.36
553.017	24.66
553.361	24.78
553.704	24.56
554.048	24.47
554.391	24.51
554.734	24.49
555.077	24.85
555.42	24.7
555.764	24.97
556.107	24.85
556.45	24.94
556.793	25
557.135	25.06
557.478	25.27
557.821	25.13
558.164	25.35
558.507	25.39
558.849	25.21
559.192	25.3
559.534	25.39
559.877	25.48
560.219	25.42
560.562	25.47
560.904	25.66
561.246	25.49
561.589	25.51
561.931	25.59
562.273	25.56
562.615	25.49
562.957	25.58
563.299	25.71
563.641	25.59
563.983	25.74
564.325	25.78
564.667	25.85
565.008	26.13
565.35	26.18
565.692	25.86
566.033	26.09
566.375	26.11
566.716	25.98
567.058	26.05
567.399	25.98
567.741	25.9
568.082	26.01
568.423	26.02
568.764	26.18
569.105	26.23
569.447	26.35
569.788	26.3
570.129	26.28
570.47	26.48
570.811	26.29
571.151	26.55
571.492	26.73
571.833	26.45
572.174	26.68
572.514	26.68
572.855	26.44
573.195	26.32
573.536	26.6
573.876	26.36
574.217	26.71
574.557	26.62
574.898	26.86
575.238	26.8
575.578	26.85
575.918	26.94
576.258	26.93
576.598	26.75
576.938	26.87
577.278	26.91
577.618	27.18
577.958	27.12
578.298	27.18
578.638	27.32
578.977	27.36
579.317	27.47
579.657	27.71
579.996	27.48
580.336	27.5
580.675	27.76
581.014	27.66
581.354	27.77
581.693	27.74
582.032	27.81
582.372	27.84
582.711	27.89
583.05	27.6
583.389	27.77
583.728	27.99
584.067	27.99
584.406	28
584.745	28.24
585.083	28.04
585.422	27.9
585.761	28
586.1	28.27
586.438	28.18
586.777	28.36
587.115	28.46
587.454	28.57
587.792	28.31
588.13	28.44
588.469	28.49
588.807	28.58
589.145	28.53
589.483	28.89
589.821	28.6
590.159	28.69
590.497	28.59
590.835	28.71
591.173	28.91
591.511	28.84
591.849	28.79
592.187	28.73
592.524	28.96
592.862	28.78
593.2	29.02
593.537	29.09
593.875	29.2
594.212	28.99
594.55	29.06
594.887	29.2
595.224	28.93
595.561	29.15
595.899	29.06
596.236	29.23
596.573	29.02
596.91	29.26
597.247	29.47
597.584	29.14
597.921	29.33
598.258	29
598.594	28.84
598.931	28.95
599.268	29.06
599.604	29.31
599.941	29.38
600.277	29.63
600.614	29.67
600.95	29.7
601.287	29.99
601.623	30.06
601.959	30
602.296	30
602.632	29.96
602.968	30.02
603.304	30.08
603.64	30.15
603.976	30.19
604.312	29.88
604.648	29.74
604.984	29.78
605.319	29.97
605.655	29.82
605.991	29.43
606.326	29.73
606.662	29.89
606.998	29.98
607.333	29.84
607.668	30.02
608.004	30.4
608.339	30.28
608.674	30.51
609.01	30.59
609.345	30.45
609.68	30.74
610.015	30.73
610.35	30.49
610.685	30.32
611.02	30.13
611.355	30.2
611.689	30.57
612.024	30.6
612.359	30.46
612.694	30.94
613.028	30.87
613.363	30.96
613.697	31.3
614.032	31.29
614.366	31.23
614.7	31.16
615.035	31.06
615.369	31.25
615.703	31.12
616.037	31.51
616.371	31.44
616.705	31.34
617.039	31.24
617.373	31.41
617.707	31.51
618.041	31.47
618.375	31.58
618.709	31.74
619.042	31.47
619.376	31.67
619.71	31.92
620.043	32.06
620.377	31.4
620.71	31.98
621.043	31.89
621.377	31.48
621.71	31.84
622.043	32.22
622.376	31.87
622.709	31.39
623.043	32.09
623.376	31.76
623.709	32.37
624.041	32.03
624.374	32.17
624.707	32.46
625.04	32.17
625.373	32.47
625.705	32.2
626.038	32.16
626.37	32.28
626.703	32.43
627.035	32.19
627.368	31.74
627.7	32.16
628.032	32.09
628.365	32.22
628.697	32.29
629.029	32.33
629.361	32.34
629.693	32.41
630.025	32.26
630.357	32.5
630.689	32.65
631.021	32.75
631.353	32.67
631.684	32.91
632.016	33.1
632.348	32.58
632.679	33.09
633.011	32.85
633.342	33.14
633.674	33
634.005	32.67
634.336	33.3
634.668	33.08
634.999	32.96
635.33	32.93
635.661	32.67
635.992	33.39
636.323	32.7
636.654	33.5
636.985	33.01
637.316	33.57
637.647	33.59
637.977	33.18
638.308	33.64
638.639	33.5
638.969	33.37
639.3	33.5
639.63	33.74
639.961	33.09
640.291	33.63
640.622	33.81
640.952	34.17
641.282	33.51
641.612	33.79
641.943	33.98
642.273	33.43
642.603	33.69
642.933	34
643.263	34.04
643.592	33.87
643.922	34.31
644.252	34.34
644.582	33.95
644.911	33.73
645.241	34.13
645.571	34.54
645.9	34.02
646.23	34.11
646.559	34.58
646.888	34.52
647.218	34.25
647.547	34.52
647.876	33.7
648.205	34.39
648.534	34.02
648.863	34.28
649.192	34.63
649.521	34.4
649.85	34.54
650.179	34.7
650.508	34.3
650.837	34.57
651.165	34.74
651.494	34.74
651.822	33.91
652.151	34.71
652.479	34.56
652.808	34.56
653.136	34.45
653.465	34.6
653.793	34.8
654.121	34.36
654.449	34.2
654.777	35.33
655.105	34.8
655.433	34.92
655.761	35.01
656.089	34.73
656.417	34.96
656.745	35.31
657.073	34.7
657.4	35.16
657.728	35.14
658.056	35.34
658.383	35.06
658.711	35.25
659.038	34.9
659.365	35.37
659.693	35.05
660.02	36.36
660.347	35.34
660.674	35.16
661.001	34.79
661.329	34.82
661.656	35
661.982	35.82
662.309	34.99
662.636	35.53
662.963	35.27
663.29	35.58
663.616	35.07
663.943	35.49
664.27	36.01
664.596	36.51
664.923	35.97
665.249	36.34
665.576	36.05
665.902	36.61
666.228	35.94
666.554	35.92
666.881	35.76
667.207	36.25
667.533	36.32
667.859	35.97
668.185	35.74
668.511	35.9
668.837	36.09
669.162	36.16
669.488	36.14
669.814	36.17
670.139	36.28
670.465	35.78
670.791	35.63
671.116	36.57
671.442	36.15
671.767	36.5
672.092	36.54
672.418	36.97
672.743	35.49
673.068	36.36
673.393	36.35
673.718	35.9
674.043	36.84
674.368	37.2
674.693	36.63
675.018	36.88
675.343	36.12
675.667	37.08
675.992	37.92
676.317	36.95
676.641	36.53
676.966	36.63
677.29	37.33
677.615	37.03
677.939	37.06
678.264	36.61
678.588	37.39
678.912	36.75
679.236	36.98
679.56	36.78
679.885	36.92
680.209	36.88
680.532	36.88
680.856	37
681.18	37.32
681.504	37.16
681.828	36.77
682.152	37.2
682.475	37.05
682.799	37
683.122	37.11
683.446	38.21
683.769	37.26
684.093	37.89
684.416	37.6
684.739	38.05
685.062	37.35
685.386	37.25
685.709	37.86
686.032	36.87
686.355	37.54
686.678	38.45
687.001	37.69
687.324	37.67
687.646	37.28
687.969	38.85
688.292	38.37
688.614	37.41
688.937	36.93
689.26	37.55
689.582	37.44
689.904	38.18
690.227	37.89
690.549	37.88
690.871	37.09
691.194	37.96
691.516	37.95
691.838	37.5
692.16	37.93
692.482	38.31
692.804	37.5
693.126	38.52
693.448	37.93
693.769	37.82
694.091	38.88
694.413	38.57
694.735	38.05
695.056	38.26
695.378	39.04
695.699	38.43
696.021	37.49
696.342	38.19
696.663	38.73
696.984	39.31
697.306	39.1
697.627	39.09
697.948	38.55
698.269	38.35
698.59	38.39
698.911	39.22
699.232	38.92
699.553	38.74
699.873	37.76
700.194	38.07
700.515	38.04
700.835	38.08
701.156	38.9
701.477	38.48
701.797	37.89
702.117	39.17
702.438	38.49
702.758	38.7
703.078	39.68
703.398	39.84
703.719	39.05
704.039	39.14
704.359	38.5
704.679	38.88
704.999	39.56
705.319	39.06
705.638	39.89
705.958	38.89
706.278	39.2
706.597	39.76
706.917	39.11
707.237	38.69
707.556	38.72
707.876	39.95
708.195	38.94
708.514	39.81
708.834	39.52
709.153	39.85
709.472	39.43
709.791	39.54
710.11	40.49
710.429	39.4
710.748	39.86
711.067	39.98
711.386	40.2
711.705	38.74
712.023	39.54
712.342	39.19
712.661	38.86
712.979	39.77
713.298	40.36
713.616	39.97
713.935	39.05
714.253	39.48
714.572	39.2
714.89	40.53
715.208	39.06
715.526	39.91
715.844	39.58
716.162	39.76
716.48	39.61
716.798	39.56
717.116	39.43
717.434	40.52
717.752	39.24
718.069	40.91
718.387	40.7
718.705	40.1
719.022	41.36
719.34	40.3
719.657	39.37
719.975	39.53
720.292	40.72
720.609	40.03
720.927	40.04
721.244	40.9
721.561	40.56
721.878	41.96
722.195	40.44
722.512	40.25
722.829	40.46
723.146	40.64
723.463	40.08
723.779	40.63
724.096	41.55
724.413	40.59
724.729	40.86
725.046	41.11
725.362	40.63
725.679	41.12
725.995	41.72
726.311	42.16
726.628	40.29
726.944	41.12
727.26	40.61
727.576	41.24
727.892	41.25
728.208	40.21
728.524	40.52
728.84	42.41
729.156	40.83
729.472	41.31
729.787	41.18
730.103	42
730.419	41.19
730.734	40.42
731.05	40.07
731.365	42.41
731.681	41.45
731.996	40.6
732.311	41.39
732.626	40.88
732.942	40.93
733.257	39.62
733.572	41.15
733.887	41.22
734.202	40.23
734.517	41.75
734.832	41.95
735.146	40.13
735.461	40.52
735.776	42.6
736.091	40.65
736.405	42.06
736.72	41.33
737.034	40.58
737.349	42.09
737.663	41.58
737.977	43.02
738.292	43.45
738.606	40.34
738.92	41.1
739.234	40.79
739.548	42.71
739.862	39.61
740.176	41.02
740.49	40.85
740.804	43.23
741.117	40.61
741.431	40.61
741.745	40.62
742.058	41.14
742.372	41.67
742.685	42
742.999	40.38
743.312	41.93
743.626	42.15
743.939	41.85
744.252	41.07
744.565	43.24
744.878	40.84
745.191	43.06
745.505	41.65
745.817	40.7
746.13	44.09
746.443	42.05
746.756	43.2
747.069	43.12
747.381	43.59
747.694	40.83
748.007	44.41
748.319	42.38
748.632	41.69
748.944	41.33
749.256	44.22
749.569	41.6
749.881	43.08
750.193	42.1
750.505	43.06
750.817	42.28
751.129	42.21
751.441	41.99
751.753	41.35
752.065	43.02
752.377	43.74
752.689	44.39
753	41.95
753.312	42.3
753.624	43.54
753.935	42.92
754.247	43.67
754.558	41.97
754.869	42.89
755.181	42.4
755.492	42.38
755.803	42.48
756.114	44.17
756.425	43.32
756.736	42.74
757.047	44.12
757.358	45.19
757.669	42.69
757.98	42.59
758.291	43.88
758.601	44.68
758.912	42.98
759.223	42.67
759.533	41.29
759.844	41.23
760.154	41.75
760.464	42.75
760.775	43.11
761.085	42.3
761.395	43.77
761.705	44.51
762.016	42.1
762.326	44.07
762.636	44.4
762.945	42.63
763.255	44.5
763.565	44.18
763.875	43.51
764.185	44.08
764.494	43.81
764.804	42.72
765.113	43.75
765.423	42.71
765.732	42.15
766.042	44.69
766.351	44.12
766.66	43.35
766.97	43.23
767.279	42.01
767.588	43.66
767.897	44.23
768.206	43.94
768.515	42.94
768.824	44.1
769.133	44.74
769.441	42.44
769.75	44.89
770.059	43.08
770.367	42.48
770.676	43.98
770.984	42.48
771.293	39.5
771.601	43.53
771.91	44.03
772.218	44.13
772.526	43.96
772.834	42.9
773.142	44.1
773.45	43.2
773.758	46.04
774.066	42.3
774.374	45.21
774.682	44.35
774.99	43.78
775.298	44.9
775.605	42.43
775.913	44.9
776.22	47.83
776.528	47.52
776.835	42.91
777.143	46.94
777.45	45.83
777.757	45.98
778.065	42.62
778.372	45.82
778.679	45.17
778.986	45.39
779.293	45.07
779.6	45.11
779.907	47.72
780.214	43.23
780.52	44.2
780.827	43.93
781.134	44.05
781.44	45.81
781.747	47.89
782.053	41.97
782.36	44.74
782.666	46.91
782.973	42.95
783.279	44.65
783.585	44.64
783.891	49.32
784.197	45.45
784.503	42.04
784.809	43.65
785.115	46.14
785.421	41.49
785.727	46.06
786.033	43.78
786.339	40.78
786.644	44.22
786.95	43.95
787.255	44.12
787.561	45.15
787.866	42.04
788.172	41.53
788.477	46
788.782	43.47
789.088	44.73
789.393	47.06
789.698	45.45
790.003	44.79
790.308	43.68
790.613	42.28
790.918	43.71
791.223	42.98
791.527	42.47
791.832	44.3
792.137	43.09
792.441	46.2
792.746	46.9
793.05	42.34
793.355	46.31
793.659	44.73
793.963	42.65
794.268	44.87
794.572	51.03
794.876	43.49
795.18	43.42
795.484	46.12
795.788	39.7
796.092	44.26
796.396	44.66
796.7	46.93
797.004	47.73
797.307	50.01
797.611	45.58
797.915	47.83
798.218	43.5
798.522	46.92
798.825	48.9
799.128	44.79
799.432	46.07
799.735	43.68
800.038	45.37
800.341	44.37
800.644	46.11
800.947	49.25
801.25	47.36
801.553	48.87
801.856	49.71
802.159	46.43
802.462	47.48
802.764	44.5
803.067	47.14
803.37	43.27
803.672	43.9
803.975	48.97
804.277	40.85
804.579	47.34
804.882	41.75
805.184	47.74
805.486	45.43
805.788	46.77
806.09	43.29
806.392	44.49
806.694	41.89
806.996	47.33
807.298	39.76
807.6	47.17
807.902	48.79
808.203	44.04
808.505	47.18
808.807	45.05
809.108	51.77
809.409	50.48
809.711	46.46
810.012	51.77
810.313	50.24
810.615	44.08
810.916	45.12
811.217	49.25
811.518	49
811.819	47.05
812.12	45.43
812.421	48.76
812.722	44.87
813.023	41.91
813.323	44.22
813.624	46.82
813.925	43.56
814.225	49.62
814.526	44.46
814.826	42.62
815.126	39.69
815.427	52.36
815.727	52.78
816.027	43.46
816.327	48.93
816.627	42.5
816.927	44.03
817.227	46.93
817.527	47.67
817.827	50.47
818.127	45.91
818.427	49.69
818.727	45.17
819.026	46.21
819.326	46.25
819.625	43.65
819.925	48.28
820.224	41.92
820.524	44.19
820.823	47.54
821.122	49.66
821.421	44.22
821.72	50.46
822.019	45.81
822.318	43.26
822.617	50.38
822.916	49.24
823.215	47.42
823.514	49.88
823.813	48.57
824.111	45.51
824.41	46.17
824.709	45.27
825.007	46.1
825.306	47.02
825.604	47.63
825.902	46.22
826.201	47.86
826.499	46.47
826.797	47.4
827.095	47.85
827.393	47.71
827.691	48.31
827.989	48.8
828.287	48.02
828.585	47.07
828.882	45.99
829.18	46.38
829.478	44.7
829.775	47.57
830.073	47.2
830.37	48.44
830.668	47.69
830.965	48.77
831.263	49.81
831.56	50.69
831.857	48.49
832.154	47.28
832.451	49.71
832.748	43.3
833.045	47.28
833.342	49.53
833.639	45.96
833.936	47.93
834.232	46.14
834.529	39.09
834.826	43.93
835.122	47.6
835.419	46.58
835.715	50.87
836.012	46.43
836.308	44.09
836.604	46.79
836.901	47.76
837.197	46.56
837.493	50.24
837.789	48.15
838.085	44.97
838.381	48.69
838.677	46.54
838.972	49.27
839.268	48.57
839.564	49.25
839.86	46.43
840.155	44.12
840.451	43.06
840.746	43.38
841.042	40.56
841.337	46.34
841.632	42.49
841.928	45.92
842.223	47.27
842.518	46.97
842.813	45.22
843.108	45.27
843.403	47.49
843.698	44.05
843.993	46.32
844.287	46.3
844.582	48.86
844.877	53.65
845.171	38.39
845.466	52.79
845.761	52.44
846.055	43.19
846.349	32.1
846.644	43.27
846.938	57.39
847.232	29.42
847.526	50.4
847.82	47.9
848.114	54.87
848.408	40.61
848.702	53.22
848.996	47.22
849.29	42.42
849.584	52.36
849.877	58.39
850.171	42.31
850.465	43.41
850.758	35.96
851.052	55.03
851.345	51.3
851.638	64.72
851.932	53.4
852.225	46.62
852.518	33.89
852.811	62.52
853.104	50.73
853.397	48.15
853.69	41.96
853.983	58.56
854.276	47.98
854.569	53.04
854.861	47.61
855.154	45.66
855.447	48.16
855.739	38.39
856.032	49.22
856.324	47.5
856.616	66.18
856.909	29.05
857.201	39.6
857.493	48.23
857.785	58.67
858.077	44.02
858.369	51.99
858.661	57.7
858.953	45.16
859.245	52.97
859.537	38.18
859.829	65.23
860.12	52
860.412	41.37
860.703	50.95
860.995	49.93
861.286	40.88
861.578	31.86
861.869	46.26
862.16	46.72
862.452	49.77
862.743	45.66
863.034	20.69
863.325	61.46
863.616	66.7
863.907	46.52
864.198	42.55
864.488	57.08
864.779	59.07
865.07	37.39
865.36	57.19
865.651	70.83
865.941	79.53
866.232	62.26
866.522	50.57
866.813	32.97
867.103	46.26
867.393	47.76
867.683	34.46
867.973	71.45
868.263	51.68
868.553	65.63
868.843	69.58
869.133	92.67
869.423	34.4
869.713	28.95
870.002	22.67
870.292	58.47
870.582	63.25
870.871	60.08
871.161	63.45
871.45	41.21
871.739	73.51
872.029	54
872.318	29.74
872.607	56.36
872.896	33.48
873.185	58.22
873.474	53.44
873.763	46.41
874.052	50.7
874.341	52.07
874.63	43.91
874.918	59.14
875.207	68.58
875.496	40.91
875.784	71.88
876.073	42.35
876.361	43.79
876.649	73.31
876.938	28.83
877.226	52.55
877.514	45.3
877.802	39.26
878.09	92.36
878.378	66.09
878.666	57.44
878.954	20.24
879.242	35.6
879.53	25.1
879.817	50.5
880.105	42.77
880.392	67.12
880.68	74.23
880.967	63.58
881.255	58.85
881.542	53.99
881.83	45.48
882.117	36.55
882.404	58.33
882.691	41.8
882.978	58.59
883.265	48.49
883.552	41.1
883.839	50.25
884.126	52.82
884.413	45.79
884.699	50.76
884.986	50.56
885.273	44.27
885.559	44.27
885.846	44.27
