Data from 0207_crown_Reflection__4__303.txt Node

Date: Fri Dec 15 19:29:38 CST 2023
User: ToomeyLab
Spectrometer: FLMS14357
Trigger mode: 0
Integration Time (sec): 1.000000E-2
Scans to average: 100
Electric dark correction enabled: true
Nonlinearity correction enabled: false
Boxcar width: 0
XAxis mode: Wavelengths
Number of Pixels in Spectrum: 2048
>>>>>Begin Spectral Data<<<<<
189.047	101.83
189.435	101.83
189.823	101.83
190.211	-271.12
190.599	-107.65
190.987	138.55
191.375	52.55
191.763	-275.32
192.151	0.43
192.538	42.49
192.926	-6237.1
193.314	116.84
193.702	-19.22
194.089	-117.64
194.477	97.95
194.864	14.65
195.252	112.16
195.639	38.56
196.027	142.13
196.414	345.37
196.801	85.29
197.189	316.74
197.576	599.89
197.963	77.2
198.351	-143.8
198.738	-20.04
199.125	55.83
199.512	-30.3
199.899	37.93
200.286	19.65
200.673	10.39
201.06	20.47
201.447	24.37
201.833	26.57
202.22	-2.24
202.607	-0.74
202.994	6.02
203.38	28.96
203.767	-9.24
204.154	-27.69
204.54	40.07
204.927	-82.43
205.313	-35.35
205.699	35.09
206.086	36.19
206.472	26.52
206.858	-23.15
207.245	1.44
207.631	22.2
208.017	7.88
208.403	-11.62
208.789	22.83
209.175	48.17
209.561	-4.03
209.947	-34.48
210.333	-30.15
210.719	7.39
211.105	10.19
211.491	-0.09
211.876	26.07
212.262	-11.23
212.648	16.78
213.034	48.37
213.419	-23.07
213.805	29
214.19	-21.1
214.576	42.42
214.961	-49.32
215.346	-262.82
215.732	16.25
216.117	1.39
216.502	-58.25
216.888	16.42
217.273	23.17
217.658	-15.9
218.043	2.63
218.428	-62.28
218.813	-37.17
219.198	-28.88
219.583	16.03
219.968	37.7
220.353	-8.35
220.738	1.03
221.122	0.35
221.507	-61.7
221.892	-51.47
222.276	-21.16
222.661	-14.65
223.046	13.54
223.43	23.26
223.815	5.04
224.199	-14.27
224.583	3.09
224.968	7.2
225.352	18.57
225.736	-1.57
226.121	-9.41
226.505	0.89
226.889	8.68
227.273	-0.85
227.657	8.01
228.041	5.21
228.425	3.95
228.809	7.55
229.193	5.25
229.577	6.06
229.961	7.09
230.344	7.25
230.728	6.74
231.112	6.83
231.495	7.39
231.879	5.56
232.263	6.88
232.646	5.96
233.03	7.8
233.413	6.64
233.797	7.65
234.18	6.58
234.563	7.79
234.946	4.98
235.33	8.9
235.713	6.78
236.096	6.96
236.479	6.72
236.862	5.36
237.245	7.61
237.628	6.2
238.011	6
238.394	8.55
238.777	7.8
239.16	6.14
239.543	5.71
239.925	6.58
240.308	5.3
240.691	6.92
241.073	7
241.456	6.14
241.838	6.02
242.221	6.86
242.603	7.73
242.986	7.18
243.368	7.04
243.75	6.67
244.133	7
244.515	7.13
244.897	6.95
245.279	7.09
245.661	7.19
246.043	6.57
246.425	5.87
246.807	7.08
247.189	6.81
247.571	6.71
247.953	7.19
248.335	6.64
248.717	6.9
249.098	6.62
249.48	6.77
249.862	6.77
250.243	6.49
250.625	6.83
251.006	7.1
251.388	5.97
251.769	6.9
252.151	6.71
252.532	6.81
252.913	6.11
253.295	6.18
253.676	5.76
254.057	6.79
254.438	6.27
254.819	6.34
255.2	6.24
255.581	5.54
255.962	6.12
256.343	6.41
256.724	5.76
257.105	6.26
257.486	6.13
257.867	7.11
258.247	5.98
258.628	5.3
259.009	5.55
259.389	6.94
259.77	5.88
260.15	4.82
260.531	6.02
260.911	6.71
261.292	6.6
261.672	6.43
262.052	6.39
262.432	6.57
262.813	6.5
263.193	6.57
263.573	5.72
263.953	5.95
264.333	6.35
264.713	6.23
265.093	5.41
265.473	5.47
265.853	4.7
266.233	6.11
266.612	4.5
266.992	5.02
267.372	6.12
267.752	6.34
268.131	6.33
268.511	6.71
268.89	6.49
269.27	5.74
269.649	5.62
270.029	5.58
270.408	7.07
270.787	6.49
271.167	6.68
271.546	6.22
271.925	5.25
272.304	5.92
272.683	6.67
273.062	5.35
273.441	6.08
273.82	5.5
274.199	6.25
274.578	6.12
274.957	5.96
275.336	6.08
275.715	6.09
276.093	6.34
276.472	5.6
276.851	5.45
277.229	6.05
277.608	5.21
277.986	5.82
278.365	6.05
278.743	5.28
279.122	5.54
279.5	6.08
279.878	6.27
280.257	5.35
280.635	4.97
281.013	6.14
281.391	5.86
281.769	6.17
282.147	6.52
282.525	6.21
282.903	5.64
283.281	6.09
283.659	6.5
284.037	6.19
284.415	5.74
284.792	6.06
285.17	4.75
285.548	4.97
285.925	5.81
286.303	5.64
286.68	5.83
287.058	5.92
287.435	5.84
287.813	5.47
288.19	5.56
288.567	5.56
288.945	5.83
289.322	5.87
289.699	5.6
290.076	5.07
290.453	5.19
290.83	5.52
291.207	5.37
291.584	5.29
291.961	5.41
292.338	5.31
292.715	5.79
293.092	5.38
293.469	4.9
293.845	5.65
294.222	4.93
294.599	5.29
294.975	5.19
295.352	5.85
295.728	4.65
296.105	4.96
296.481	5.35
296.858	5.47
297.234	5.18
297.61	5.35
297.986	5.26
298.363	5.49
298.739	5.22
299.115	4.88
299.491	4.98
299.867	5.37
300.243	5.67
300.619	4.91
300.995	4.98
301.371	5.35
301.746	4.86
302.122	5.12
302.498	5.18
302.874	5.06
303.249	5.17
303.625	4.81
304	5.32
304.376	5.39
304.751	4.75
305.127	5.7
305.502	4.57
305.878	4.59
306.253	5.34
306.628	5.61
307.003	5.19
307.378	5.49
307.754	5.22
308.129	4.92
308.504	5.18
308.879	4.6
309.254	5.86
309.629	5.75
310.003	4.99
310.378	5.15
310.753	5.67
311.128	5.39
311.502	5.23
311.877	5.7
312.252	4.44
312.626	4.73
313.001	4.83
313.375	5.77
313.75	4.55
314.124	4.99
314.498	4.78
314.873	4.43
315.247	4.47
315.621	5.12
315.995	4.21
316.369	4.9
316.743	4.71
317.117	5.23
317.491	4.6
317.865	5.14
318.239	4.44
318.613	5.21
318.987	5.22
319.361	3.86
319.734	4.76
320.108	4.75
320.482	4.47
320.855	4.69
321.229	4.58
321.602	4.51
321.976	4.81
322.349	4.95
322.723	4.24
323.096	5.17
323.469	4.74
323.843	4.4
324.216	5.25
324.589	4.48
324.962	4.9
325.335	4.33
325.708	4.51
326.081	4.79
326.454	4.84
326.827	4.55
327.2	4.81
327.573	5.17
327.945	4.88
328.318	4.48
328.691	4.08
329.063	4.71
329.436	4.87
329.809	4.67
330.181	4.06
330.553	4.54
330.926	4.67
331.298	4.35
331.671	4.4
332.043	4.89
332.415	5.02
332.787	4.42
333.159	5.63
333.532	4.87
333.904	5.03
334.276	4.54
334.648	4.43
335.02	4.74
335.391	4.63
335.763	4.29
336.135	4.35
336.507	4.64
336.879	4.48
337.25	4.01
337.622	5.08
337.993	4.57
338.365	4.84
338.736	4.37
339.108	4.87
339.479	4.61
339.851	4.97
340.222	4.83
340.593	4.68
340.964	4.12
341.336	5.54
341.707	4.5
342.078	5.48
342.449	5.42
342.82	4.45
343.191	4.82
343.562	4.51
343.933	4.65
344.303	4.8
344.674	4.75
345.045	4.92
345.416	5.24
345.786	4.19
346.157	4.38
346.527	4.13
346.898	4.49
347.268	4.85
347.639	4.5
348.009	4.72
348.38	4.41
348.75	4.48
349.12	4.81
349.49	5.24
349.861	4.78
350.231	4.54
350.601	5.01
350.971	4.22
351.341	4.69
351.711	4.65
352.081	4.83
352.45	4.67
352.82	4.79
353.19	4.8
353.56	4.16
353.929	4.87
354.299	4.31
354.669	4.19
355.038	4.95
355.408	4.83
355.777	4.76
356.147	4.71
356.516	4.96
356.885	4.73
357.254	5.01
357.624	5.11
357.993	4.92
358.362	4.45
358.731	4.35
359.1	4.89
359.469	4.53
359.838	4.97
360.207	4.88
360.576	4.7
360.945	4.57
361.314	5.18
361.682	4.81
362.051	4.83
362.42	4.82
362.788	4.85
363.157	4.95
363.525	5.05
363.894	4.84
364.262	5.01
364.631	4.94
364.999	4.87
365.367	4.62
365.735	5.51
366.104	4.88
366.472	5.01
366.84	4.41
367.208	4.69
367.576	4.85
367.944	5.12
368.312	4.61
368.68	4.48
369.048	4.8
369.416	4.77
369.783	5.08
370.151	5.19
370.519	5.29
370.886	5.19
371.254	5.1
371.621	5.48
371.989	5.31
372.356	4.45
372.724	5.15
373.091	4.83
373.458	4.89
373.826	5.04
374.193	4.99
374.56	5.31
374.927	5.12
375.294	4.78
375.661	4.92
376.028	4.83
376.395	4.93
376.762	5.23
377.129	5.06
377.496	5.04
377.863	4.82
378.229	4.42
378.596	5.11
378.963	4.97
379.329	4.89
379.696	5.39
380.062	5.27
380.429	5.16
380.795	4.9
381.161	5.2
381.528	5.57
381.894	4.93
382.26	4.87
382.626	5.29
382.993	4.96
383.359	5.53
383.725	5.08
384.091	5.21
384.457	5.31
384.823	4.72
385.188	5.17
385.554	5.04
385.92	5.17
386.286	5.47
386.651	5.33
387.017	5.45
387.383	5.26
387.748	5.23
388.114	5.63
388.479	5.13
388.845	5.51
389.21	5.43
389.575	5.62
389.94	5.43
390.306	5.42
390.671	5.67
391.036	4.83
391.401	5.02
391.766	5.41
392.131	5.3
392.496	5.47
392.861	5.42
393.226	5.46
393.591	5.47
393.956	5.33
394.32	5.43
394.685	5.2
395.05	5.35
395.414	5.44
395.779	5.37
396.143	5.5
396.508	5.52
396.872	5.48
397.236	5.71
397.601	5.24
397.965	5.53
398.329	5.48
398.694	5.69
399.058	5.62
399.422	5.3
399.786	5.53
400.15	5.23
400.514	5.49
400.878	5.54
401.242	5.84
401.605	5.73
401.969	5.58
402.333	5.51
402.697	5.23
403.06	5.33
403.424	5.72
403.787	5.54
404.151	5.63
404.514	5.42
404.878	5.52
405.241	5.86
405.604	5.66
405.968	5.7
406.331	5.54
406.694	5.54
407.057	5.66
407.42	5.91
407.783	5.75
408.146	5.63
408.509	5.62
408.872	5.42
409.235	5.64
409.598	5.85
409.961	5.67
410.323	5.88
410.686	5.47
411.049	5.8
411.411	5.8
411.774	5.93
412.136	5.68
412.499	5.63
412.861	5.66
413.223	5.64
413.586	5.83
413.948	5.54
414.31	5.96
414.672	5.4
415.035	5.51
415.397	6.09
415.759	5.48
416.121	5.73
416.483	5.58
416.845	5.73
417.206	5.6
417.568	5.92
417.93	5.71
418.292	5.99
418.653	5.81
419.015	5.82
419.377	5.85
419.738	5.98
420.1	5.82
420.461	5.92
420.822	5.84
421.184	5.71
421.545	5.78
421.906	5.71
422.267	5.64
422.629	5.69
422.99	5.66
423.351	5.65
423.712	5.82
424.073	5.76
424.434	5.75
424.795	5.72
425.155	5.76
425.516	5.58
425.877	5.76
426.238	5.74
426.598	5.8
426.959	5.84
427.32	5.78
427.68	5.89
428.041	5.83
428.401	5.96
428.761	5.86
429.122	6.02
429.482	5.88
429.842	6.05
430.202	5.95
430.563	5.97
430.923	5.88
431.283	5.87
431.643	5.9
432.003	5.97
432.363	5.82
432.722	5.92
433.082	6.03
433.442	5.98
433.802	5.93
434.161	5.97
434.521	6.12
434.881	6.04
435.24	5.7
435.6	5.86
435.959	5.95
436.319	5.95
436.678	5.97
437.037	6.11
437.396	6.07
437.756	6.16
438.115	5.89
438.474	6.13
438.833	5.71
439.192	6.03
439.551	6.08
439.91	5.91
440.269	6
440.628	6.01
440.987	5.94
441.345	5.98
441.704	6.04
442.063	6.01
442.421	6.02
442.78	6
443.138	5.97
443.497	6.01
443.855	5.95
444.214	5.97
444.572	5.98
444.93	6.09
445.288	6.12
445.647	6.3
446.005	6.05
446.363	6.19
446.721	6.19
447.079	5.84
447.437	6.06
447.795	6.08
448.153	5.94
448.51	5.99
448.868	6.05
449.226	5.99
449.584	6.1
449.941	6.14
450.299	6.17
450.656	6.15
451.014	6.1
451.371	6.06
451.729	5.97
452.086	6.37
452.443	6.12
452.801	6.17
453.158	6.15
453.515	6.1
453.872	6.32
454.229	6.2
454.586	6.16
454.943	6.13
455.3	6.28
455.657	6.21
456.014	6.25
456.371	6.28
456.727	6.34
457.084	6.28
457.441	6.27
457.797	6.27
458.154	6.49
458.51	6.35
458.867	6.29
459.223	6.34
459.58	6.22
459.936	6.36
460.292	6.34
460.648	6.2
461.005	6.22
461.361	6.32
461.717	6.2
462.073	6.05
462.429	6.17
462.785	6.29
463.141	6.15
463.496	6.26
463.852	6.34
464.208	6.28
464.564	6.46
464.919	6.26
465.275	6.18
465.631	6.56
465.986	6.28
466.342	6.2
466.697	6.31
467.052	6.42
467.408	6.44
467.763	6.22
468.118	6.35
468.473	6.26
468.829	6.42
469.184	6.35
469.539	6.38
469.894	6.38
470.249	6.47
470.603	6.45
470.958	6.4
471.313	6.53
471.668	6.44
472.023	6.5
472.377	6.29
472.732	6.32
473.086	6.44
473.441	6.29
473.795	6.62
474.15	6.46
474.504	6.41
474.859	6.35
475.213	6.3
475.567	6.28
475.921	6.43
476.275	6.49
476.63	6.42
476.984	6.63
477.338	6.46
477.692	6.39
478.045	6.23
478.399	6.25
478.753	6.47
479.107	6.44
479.461	6.48
479.814	6.47
480.168	6.35
480.521	6.38
480.875	6.42
481.228	6.36
481.582	6.44
481.935	6.41
482.289	6.37
482.642	6.32
482.995	6.51
483.348	6.37
483.701	6.38
484.055	6.49
484.408	6.33
484.761	6.35
485.114	6.23
485.466	6.1
485.819	6.05
486.172	6.1
486.525	6.11
486.878	6.18
487.23	6.14
487.583	6.33
487.936	6.29
488.288	6.24
488.641	6.37
488.993	6.25
489.345	6.18
489.698	6.2
490.05	6.18
490.402	6.27
490.754	6.25
491.107	6.33
491.459	6.38
491.811	6.34
492.163	6.34
492.515	6.35
492.866	6.4
493.218	6.42
493.57	6.26
493.922	6.22
494.274	6.35
494.625	6.4
494.977	6.47
495.328	6.53
495.68	6.47
496.031	6.6
496.383	6.49
496.734	6.75
497.086	6.56
497.437	6.5
497.788	6.47
498.139	6.44
498.49	6.74
498.842	6.49
499.193	6.48
499.544	6.54
499.894	6.58
500.245	6.47
500.596	6.46
500.947	6.54
501.298	6.33
501.648	6.55
501.999	6.67
502.35	6.45
502.7	6.56
503.051	6.4
503.401	6.58
503.752	6.66
504.102	6.58
504.452	6.57
504.803	6.45
505.153	6.69
505.503	6.46
505.853	6.61
506.203	6.52
506.553	6.41
506.903	6.56
507.253	6.57
507.603	6.58
507.953	6.67
508.303	6.72
508.652	6.63
509.002	6.8
509.352	6.79
509.701	6.62
510.051	6.48
510.4	6.55
510.75	6.52
511.099	6.4
511.449	6.56
511.798	6.63
512.147	6.53
512.496	6.57
512.846	6.77
513.195	6.66
513.544	6.66
513.893	6.73
514.242	6.63
514.591	6.78
514.939	6.61
515.288	6.54
515.637	6.64
515.986	6.72
516.334	6.74
516.683	6.63
517.032	6.82
517.38	6.68
517.729	6.57
518.077	6.64
518.426	6.62
518.774	6.67
519.122	6.61
519.47	6.63
519.819	6.46
520.167	6.54
520.515	6.56
520.863	6.53
521.211	6.58
521.559	6.62
521.907	6.57
522.255	6.54
522.602	6.63
522.95	6.57
523.298	6.72
523.645	6.69
523.993	6.57
524.341	6.73
524.688	6.78
525.036	6.67
525.383	6.68
525.73	6.86
526.078	6.66
526.425	6.55
526.772	6.71
527.119	6.59
527.466	6.66
527.814	6.61
528.161	6.56
528.508	6.64
528.854	6.55
529.201	6.52
529.548	6.51
529.895	6.51
530.242	6.35
530.588	6.37
530.935	6.38
531.282	6.44
531.628	6.44
531.975	6.48
532.321	6.54
532.667	6.61
533.014	6.63
533.36	6.65
533.706	6.56
534.052	6.69
534.399	6.46
534.745	6.52
535.091	6.54
535.437	6.47
535.783	6.56
536.129	6.59
536.474	6.54
536.82	6.6
537.166	6.66
537.512	6.69
537.857	6.6
538.203	6.57
538.549	6.61
538.894	6.57
539.239	6.62
539.585	6.63
539.93	6.59
540.276	6.71
540.621	6.79
540.966	6.79
541.311	6.63
541.656	6.66
542.001	6.61
542.346	6.74
542.691	6.57
543.036	6.56
543.381	6.42
543.726	6.47
544.071	6.5
544.415	6.56
544.76	6.53
545.105	6.54
545.449	6.7
545.794	6.73
546.138	6.63
546.483	6.64
546.827	6.66
547.171	6.76
547.516	6.76
547.86	6.66
548.204	6.59
548.548	6.55
548.892	6.76
549.236	6.56
549.58	6.6
549.924	6.65
550.268	6.73
550.612	6.87
550.956	6.84
551.3	6.71
551.643	6.78
551.987	6.86
552.33	6.81
552.674	6.8
553.017	6.65
553.361	6.7
553.704	6.83
554.048	6.68
554.391	6.62
554.734	6.66
555.077	6.86
555.42	6.53
555.764	6.7
556.107	6.55
556.45	6.52
556.793	6.74
557.135	6.74
557.478	6.81
557.821	6.79
558.164	6.74
558.507	6.84
558.849	6.71
559.192	6.66
559.534	6.7
559.877	6.82
560.219	6.7
560.562	6.73
560.904	6.73
561.246	6.61
561.589	6.65
561.931	6.8
562.273	6.58
562.615	6.78
562.957	6.65
563.299	6.48
563.641	6.67
563.983	6.49
564.325	6.57
564.667	6.75
565.008	6.68
565.35	6.82
565.692	6.5
566.033	6.79
566.375	6.84
566.716	6.88
567.058	6.73
567.399	6.73
567.741	6.48
568.082	6.65
568.423	6.61
568.764	6.59
569.105	6.61
569.447	6.6
569.788	6.69
570.129	6.79
570.47	6.64
570.811	6.8
571.151	6.59
571.492	6.74
571.833	6.63
572.174	6.75
572.514	6.67
572.855	6.62
573.195	6.84
573.536	6.73
573.876	6.57
574.217	6.56
574.557	6.65
574.898	6.67
575.238	6.74
575.578	6.56
575.918	6.76
576.258	6.78
576.598	6.75
576.938	6.71
577.278	6.56
577.618	6.64
577.958	6.49
578.298	6.64
578.638	6.73
578.977	6.5
579.317	6.54
579.657	6.82
579.996	6.5
580.336	6.87
580.675	6.57
581.014	6.73
581.354	6.83
581.693	6.76
582.032	6.56
582.372	6.44
582.711	6.71
583.05	6.37
583.389	6.72
583.728	6.59
584.067	6.59
584.406	6.65
584.745	6.59
585.083	6.58
585.422	6.74
585.761	6.71
586.1	6.58
586.438	6.52
586.777	6.82
587.115	6.75
587.454	6.63
587.792	6.58
588.13	6.79
588.469	6.53
588.807	6.74
589.145	6.42
589.483	6.63
589.821	6.4
590.159	6.78
590.497	6.84
590.835	7.05
591.173	6.78
591.511	6.75
591.849	6.72
592.187	6.74
592.524	6.74
592.862	6.74
593.2	6.83
593.537	6.85
593.875	6.37
594.212	6.62
594.55	6.73
594.887	6.77
595.224	6.51
595.561	6.61
595.899	6.66
596.236	6.43
596.573	6.81
596.91	6.45
597.247	6.46
597.584	6.98
597.921	6.53
598.258	6.28
598.594	6.42
598.931	6.47
599.268	6.62
599.604	6.62
599.941	6.56
600.277	6.52
600.614	6.62
600.95	6.5
601.287	6.76
601.623	6.73
601.959	6.63
602.296	6.61
602.632	6.66
602.968	6.69
603.304	6.7
603.64	6.65
603.976	6.81
604.312	6.49
604.648	6.5
604.984	6.85
605.319	6.6
605.655	6.56
605.991	6.46
606.326	6.6
606.662	6.75
606.998	6.47
607.333	6.56
607.668	6.35
608.004	6.69
608.339	6.85
608.674	6.49
609.01	6.35
609.345	6.42
609.68	6.77
610.015	6.59
610.35	6.48
610.685	6.51
611.02	6.76
611.355	6.62
611.689	6.39
612.024	6.56
612.359	6.55
612.694	6.42
613.028	6.37
613.363	6.6
613.697	6.63
614.032	6.47
614.366	6.52
614.7	6.73
615.035	6.46
615.369	6.47
615.703	6.75
616.037	6.65
616.371	6.14
616.705	5.94
617.039	6.49
617.373	6.52
617.707	6.59
618.041	6.15
618.375	6.52
618.709	6.59
619.042	6.02
619.376	6.68
619.71	6.95
620.043	6.77
620.377	6.13
620.71	6.8
621.043	6.62
621.377	6.47
621.71	6.28
622.043	6.33
622.376	6.22
622.709	6.5
623.043	6.77
623.376	6.75
623.709	6.29
624.041	7.08
624.374	6.95
624.707	6.5
625.04	6.51
625.373	6.4
625.705	6.61
626.038	6.6
626.37	6.58
626.703	6.02
627.035	6.7
627.368	6.81
627.7	6.61
628.032	6.17
628.365	6.75
628.697	6.38
629.029	6.39
629.361	6.6
629.693	6.4
630.025	6.44
630.357	6.92
630.689	6.89
631.021	6.53
631.353	6.82
631.684	6.16
632.016	6.59
632.348	6.62
632.679	6.77
633.011	6.81
633.342	6.7
633.674	6.73
634.005	6.51
634.336	6.7
634.668	7.2
634.999	6.43
635.33	6.7
635.661	6.82
635.992	6.4
636.323	6.48
636.654	7.11
636.985	6.71
637.316	6.35
637.647	6.49
637.977	6.69
638.308	6.49
638.639	6.24
638.969	6.45
639.3	6.2
639.63	6.43
639.961	6.42
640.291	6.39
640.622	6.64
640.952	6.67
641.282	6.58
641.612	6.36
641.943	6.13
642.273	6.83
642.603	6.76
642.933	6.58
643.263	6.87
643.592	6.37
643.922	5.72
644.252	6.27
644.582	6.53
644.911	5.56
645.241	6.59
645.571	6.09
645.9	5.92
646.23	6.55
646.559	7.04
646.888	6.2
647.218	6.14
647.547	6.99
647.876	5.87
648.205	6.13
648.534	6.53
648.863	6.05
649.192	6.43
649.521	6.12
649.85	6.02
650.179	6.6
650.508	6.08
650.837	6.02
651.165	6.28
651.494	6.65
651.822	6.18
652.151	5.97
652.479	6.63
652.808	5.93
653.136	6.97
653.465	5.83
653.793	6.23
654.121	5.97
654.449	6.35
654.777	6.51
655.105	6.75
655.433	6.24
655.761	6.25
656.089	6.59
656.417	7.1
656.745	6.29
657.073	6.19
657.4	6.94
657.728	6.52
658.056	6.63
658.383	6.49
658.711	6.76
659.038	6.44
659.365	7.08
659.693	6.87
660.02	6.37
660.347	6.6
660.674	6.91
661.001	6.63
661.329	5.73
661.656	6.25
661.982	6.72
662.309	6.28
662.636	5.94
662.963	6.87
663.29	6.36
663.616	6.52
663.943	6.3
664.27	6.38
664.596	6.77
664.923	6.85
665.249	6.65
665.576	6.32
665.902	6.87
666.228	6.6
666.554	6.81
666.881	6.3
667.207	6.55
667.533	6.38
667.859	6.74
668.185	6.48
668.511	6.18
668.837	5.93
669.162	6.76
669.488	6.37
669.814	6.54
670.139	6.83
670.465	7.08
670.791	6.58
671.116	7.32
671.442	6.25
671.767	6.63
672.092	7.35
672.418	6.76
672.743	6.74
673.068	5.91
673.393	6.55
673.718	6.23
674.043	6.5
674.368	6.72
674.693	7.04
675.018	6.33
675.343	5.84
675.667	6.59
675.992	6.8
676.317	6.79
676.641	6.83
676.966	7.17
677.29	6.17
677.615	6.76
677.939	7.02
678.264	6.62
678.588	6.79
678.912	6.87
679.236	7.49
679.56	6.24
679.885	7.16
680.209	6.6
680.532	6.19
680.856	6.74
681.18	6.78
681.504	6.25
681.828	6.45
682.152	6.28
682.475	6.74
682.799	6.67
683.122	6.55
683.446	6.35
683.769	6.98
684.093	6.53
684.416	7.22
684.739	6.05
685.062	6.27
685.386	6.99
685.709	6.82
686.032	6.67
686.355	7.58
686.678	6.21
687.001	6.91
687.324	7.2
687.646	6.4
687.969	6.75
688.292	6.89
688.614	6.12
688.937	6.8
689.26	6.16
689.582	6.59
689.904	6.32
690.227	6.71
690.549	6.66
690.871	7.47
691.194	5.65
691.516	5.79
691.838	6.81
692.16	6.73
692.482	6.42
692.804	6.81
693.126	5.88
693.448	6.96
693.769	7.39
694.091	6.57
694.413	6.85
694.735	6.05
695.056	6.28
695.378	7.26
695.699	5.83
696.021	5.46
696.342	6.34
696.663	6.78
696.984	6.29
697.306	5.91
697.627	7.36
697.948	6.79
698.269	6.07
698.59	6.17
698.911	5.99
699.232	6.5
699.553	6.99
699.873	6.79
700.194	7.94
700.515	7.1
700.835	6.78
701.156	6.7
701.477	6.81
701.797	6.98
702.117	6.55
702.438	7.15
702.758	6.57
703.078	6.43
703.398	5.96
703.719	6.55
704.039	5.77
704.359	7.64
704.679	6.37
704.999	5.86
705.319	6.45
705.638	6.18
705.958	7.04
706.278	6.24
706.597	6.56
706.917	6.49
707.237	7.02
707.556	6.89
707.876	5.76
708.195	6.86
708.514	5.75
708.834	6.23
709.153	6.67
709.472	7.9
709.791	6.63
710.11	5.9
710.429	6.99
710.748	6.83
711.067	6.69
711.386	6.24
711.705	6.01
712.023	6.73
712.342	5.76
712.661	5.56
712.979	6.28
713.298	6.52
713.616	7.03
713.935	7.23
714.253	5.85
714.572	6.71
714.89	6.68
715.208	7.32
715.526	7
715.844	7.58
716.162	7
716.48	7.45
716.798	7.46
717.116	6.94
717.434	7.92
717.752	5.92
718.069	7.24
718.387	6.27
718.705	6.86
719.022	5.29
719.34	6.46
719.657	5.72
719.975	7.29
720.292	7.07
720.609	6.99
720.927	7.1
721.244	6.66
721.561	6.54
721.878	7.75
722.195	5.79
722.512	7.14
722.829	6.51
723.146	5.58
723.463	8.14
723.779	5.64
724.096	6.56
724.413	6.31
724.729	6.34
725.046	6.55
725.362	6.85
725.679	5.5
725.995	6.16
726.311	7.56
726.628	6.09
726.944	8.19
727.26	6.08
727.576	6.66
727.892	8.17
728.208	7.44
728.524	6.34
728.84	5.99
729.156	5.97
729.472	6.41
729.787	5.49
730.103	6.81
730.419	6.52
730.734	6.27
731.05	5.89
731.365	6.74
731.681	6.95
731.996	7.98
732.311	6.37
732.626	8.07
732.942	6.24
733.257	6.93
733.572	7.49
733.887	6.32
734.202	7.34
734.517	7.06
734.832	7.79
735.146	7.35
735.461	7.52
735.776	6.86
736.091	6.82
736.405	7.54
736.72	6.01
737.034	8.05
737.349	9.11
737.663	6.46
737.977	6.45
738.292	6.69
738.606	7.43
738.92	8.96
739.234	6.3
739.548	6.97
739.862	7.04
740.176	7.16
740.49	6.35
740.804	7.81
741.117	6.85
741.431	5.54
741.745	6.29
742.058	6.66
742.372	6.51
742.685	8.05
742.999	6.6
743.312	5.16
743.626	4.88
743.939	5.06
744.252	7.64
744.565	6.42
744.878	8.71
745.191	5.37
745.505	6.18
745.817	8.38
746.13	6.59
746.443	7.73
746.756	9.35
747.069	4.51
747.381	6.55
747.694	6.33
748.007	8.31
748.319	6.19
748.632	7.37
748.944	5.71
749.256	7.07
749.569	8.22
749.881	8.29
750.193	7.66
750.505	5.74
750.817	6.35
751.129	9.13
751.441	5.54
751.753	6.75
752.065	7.59
752.377	7.6
752.689	9.33
753	7.71
753.312	4.55
753.624	5.93
753.935	7.62
754.247	6.76
754.558	7.72
754.869	7.47
755.181	6.56
755.492	7.03
755.803	6.9
756.114	8.2
756.425	7.57
756.736	6.27
757.047	8.76
757.358	7.12
757.669	7.35
757.98	7.7
758.291	6.99
758.601	7.86
758.912	7.27
759.223	7.67
759.533	5.38
759.844	4.12
760.154	6.66
760.464	8.91
760.775	7.88
761.085	6.99
761.395	7.66
761.705	5.03
762.016	7
762.326	7.35
762.636	6.99
762.945	4.26
763.255	9.11
763.565	7.05
763.875	7.89
764.185	6.74
764.494	9.3
764.804	7.82
765.113	8.06
765.423	6.93
765.732	7.82
766.042	6.93
766.351	6.28
766.66	8.16
766.97	9.3
767.279	7.14
767.588	9.23
767.897	9.22
768.206	5.54
768.515	7.58
768.824	7.14
769.133	7.84
769.441	5.79
769.75	5.15
770.059	9.9
770.367	5.73
770.676	7.17
770.984	7.37
771.293	7.01
771.601	10.28
771.91	6.42
772.218	8.58
772.526	7.29
772.834	7.03
773.142	6.54
773.45	4.82
773.758	5.43
774.066	6.49
774.374	6.65
774.682	9.01
774.99	9.42
775.298	7.26
775.605	9.36
775.913	9.21
776.22	6.71
776.528	7.68
776.835	9.83
777.143	5.25
777.45	8.7
777.757	8.8
778.065	4.93
778.372	5.92
778.679	5.06
778.986	7.86
779.293	4.18
779.6	8.99
779.907	8.06
780.214	7.98
780.52	10.03
780.827	10.85
781.134	7.25
781.44	4.74
781.747	6.93
782.053	5.51
782.36	6.46
782.666	7.03
782.973	7.37
783.279	7.98
783.585	6.78
783.891	9.61
784.197	7.47
784.503	9.29
784.809	3.57
785.115	4.79
785.421	7.11
785.727	9.06
786.033	7.73
786.339	5.23
786.644	10.45
786.95	10.71
787.255	5.6
787.561	12.33
787.866	4.45
788.172	5.81
788.477	4.49
788.782	7.53
789.088	5.57
789.393	8.55
789.698	6.4
790.003	7.41
790.308	8.16
790.613	8.76
790.918	8.63
791.223	9.51
791.527	6.32
791.832	5.89
792.137	4.4
792.441	8.74
792.746	7.76
793.05	9.96
793.355	8.54
793.659	12.58
793.963	9.37
794.268	7.87
794.572	8.28
794.876	4.88
795.18	9.88
795.484	6.29
795.788	6.21
796.092	1.01
796.396	5.35
796.7	5.96
797.004	8.78
797.307	4.3
797.611	6.87
797.915	5.53
798.218	5.96
798.522	9.71
798.825	4.97
799.128	9.24
799.432	5.7
799.735	8.58
800.038	11.65
800.341	9.9
800.644	8.5
800.947	7.74
801.25	6.19
801.553	3.68
801.856	7.62
802.159	2.64
802.462	5.26
802.764	6.39
803.067	7.6
803.37	6.98
803.672	2.52
803.975	3.86
804.277	8.13
804.579	6.51
804.882	10.01
805.184	6.9
805.486	5.23
805.788	8.48
806.09	10.6
806.392	5.38
806.694	9.87
806.996	11.22
807.298	9.89
807.6	10.15
807.902	9.16
808.203	10.17
808.505	8.05
808.807	8.63
809.108	1.47
809.409	9.03
809.711	3.31
810.012	9.88
810.313	7.67
810.615	6.65
810.916	5.95
811.217	6.64
811.518	6.7
811.819	9.4
812.12	5.36
812.421	6.58
812.722	10.75
813.023	8.73
813.323	9.03
813.624	5.96
813.925	16.34
814.225	6.41
814.526	10.08
814.826	12.61
815.126	3.57
815.427	2.55
815.727	9.41
816.027	7.9
816.327	7.26
816.627	8.97
816.927	14.25
817.227	5.42
817.527	6.68
817.827	11.04
818.127	12.22
818.427	9.71
818.727	3.42
819.026	8.22
819.326	9.17
819.625	4.89
819.925	3.79
820.224	6.36
820.524	2.29
820.823	2.31
821.122	5.53
821.421	4.1
821.72	6.03
822.019	6.38
822.318	3.55
822.617	2
822.916	7.25
823.215	8.89
823.514	11.62
823.813	8.89
824.111	9.62
824.41	9.35
824.709	9.24
825.007	8.17
825.306	9.57
825.604	9.77
825.902	9.2
826.201	9.94
826.499	9.28
826.797	8.45
827.095	9.34
827.393	8.55
827.691	9.16
827.989	6.29
828.287	8.65
828.585	7.93
828.882	7.65
829.18	8.84
829.478	10.33
829.775	10.02
830.073	9.52
830.37	10.84
830.668	8.39
830.965	10.84
831.263	8.9
831.56	8.84
831.857	4.99
832.154	6.86
832.451	10.21
832.748	10.52
833.045	14.23
833.342	14.46
833.639	12.81
833.936	3.63
834.232	13.01
834.529	-1.65
834.826	5.19
835.122	6.78
835.419	1.8
835.715	7.09
836.012	12.63
836.308	4.25
836.604	2.99
836.901	8.98
837.197	7.29
837.493	7.88
837.789	4.91
838.085	9.7
838.381	8.75
838.677	8.15
838.972	10.29
839.268	10.31
839.564	7.91
839.86	10.58
840.155	5.85
840.451	-5.3
840.746	3.24
841.042	7.56
841.337	8.29
841.632	6.36
841.928	24.3
842.223	7.59
842.518	-2.57
842.813	18.12
843.108	4.86
843.403	11.99
843.698	13
843.993	6.57
844.287	1.49
844.582	2.26
844.877	8.42
845.171	13.18
845.466	3.14
845.761	-9.17
846.055	3.17
846.349	3.74
846.644	10.91
846.938	-17.06
847.232	1.74
847.526	-7.3
847.82	16.17
848.114	-10.29
848.408	13.22
848.702	28.64
848.996	-3.52
849.29	10.12
849.584	-8.69
849.877	4.67
850.171	0.69
850.465	-11.01
850.758	-3.31
851.052	-1.01
851.345	-4.5
851.638	5.8
851.932	-25.7
852.225	17.92
852.518	4.15
852.811	0.84
853.104	8.91
853.397	9.58
853.69	0.73
853.983	-38.15
854.276	2.08
854.569	-1.89
854.861	-12.34
855.154	5.66
855.447	-36.35
855.739	8.6
856.032	21.53
856.324	9.71
856.616	20.25
856.909	3.3
857.201	20.97
857.493	-24.79
857.785	-2.15
858.077	16.02
858.369	-5.43
858.661	16.46
858.953	-42.03
859.245	-8.49
859.537	21.49
859.829	-7.11
860.12	32.33
860.412	-10.86
860.703	-11.71
860.995	19.89
861.286	-7.88
861.578	-9.91
861.869	28.77
862.16	12.77
862.452	8.01
862.743	-11.07
863.034	-32.47
863.325	-16.7
863.616	27.22
863.907	-10.7
864.198	-16
864.488	34.88
864.779	-8.83
865.07	-4.75
865.36	-1.26
865.651	3.8
865.941	-5.63
866.232	4.84
866.522	-23.75
866.813	9.43
867.103	1.85
867.393	-17.92
867.683	-0.83
867.973	-15.6
868.263	-14.26
868.553	17.73
868.843	-12.29
869.133	-41.52
869.423	-2.56
869.713	7.04
870.002	21.14
870.292	22.38
870.582	5.08
870.871	-35.97
871.161	19.41
871.45	-2.64
871.739	12.32
872.029	-17.17
872.318	-2.29
872.607	32.29
872.896	-19.17
873.185	8.9
873.474	-16.58
873.763	2.15
874.052	12.35
874.341	22.51
874.63	4.81
874.918	1.77
875.207	34.85
875.496	4.1
875.784	12.41
876.073	-67.17
876.361	-95.77
876.649	-20.43
876.938	-38.32
877.226	-8.06
877.514	20.41
877.802	-16.38
878.09	-23.92
878.378	36.74
878.666	11.13
878.954	-54.3
879.242	13.35
879.53	2.86
879.817	10.32
880.105	-24.19
880.392	9.38
880.68	-7.23
880.967	-27.33
881.255	9.84
881.542	1.94
881.83	-53.01
882.117	0.77
882.404	-36.98
882.691	20.09
882.978	-33.8
883.265	-20.05
883.552	-0.75
883.839	10.38
884.126	-5.05
884.413	19.74
884.699	14.7
884.986	6.08
885.273	8.03
885.559	8.03
885.846	8.03
