Data from 0207_forehead_Reflection__0__304.txt Node

Date: Fri Dec 15 19:30:11 CST 2023
User: ToomeyLab
Spectrometer: FLMS14357
Trigger mode: 0
Integration Time (sec): 1.000000E-2
Scans to average: 100
Electric dark correction enabled: true
Nonlinearity correction enabled: false
Boxcar width: 0
XAxis mode: Wavelengths
Number of Pixels in Spectrum: 2048
>>>>>Begin Spectral Data<<<<<
189.047	-41.22
189.435	-41.22
189.823	-41.22
190.211	397.19
190.599	124.51
190.987	77.77
191.375	154.78
191.763	42.77
192.151	-119.04
192.538	42.01
192.926	11469.35
193.314	95.91
193.702	-152.29
194.089	-1.39
194.477	31.43
194.864	-121.66
195.252	58.79
195.639	92.52
196.027	180.2
196.414	81.08
196.801	224.87
197.189	125.09
197.576	494.73
197.963	-191.88
198.351	-236.32
198.738	-48.07
199.125	77.34
199.512	2.03
199.899	17.43
200.286	52.42
200.673	19.28
201.06	21.68
201.447	-37.94
201.833	-8.63
202.22	38.13
202.607	2.01
202.994	27.41
203.38	30.03
203.767	32.27
204.154	71.08
204.54	34.78
204.927	-35.49
205.313	-13.02
205.699	61.83
206.086	49.07
206.472	12.65
206.858	30.22
207.245	-23.67
207.631	18.78
208.017	10.93
208.403	-3.14
208.789	21.05
209.175	48.54
209.561	-12.26
209.947	9.19
210.333	-71.41
210.719	26.05
211.105	19.38
211.491	-24.82
211.876	25.5
212.262	38.68
212.648	9.24
213.034	45.28
213.419	-14.52
213.805	-5.66
214.19	34.32
214.576	1.22
214.961	-21.73
215.346	-135.01
215.732	-3.71
216.117	25.8
216.502	-52.48
216.888	40.59
217.273	-13.96
217.658	28.59
218.043	-6.55
218.428	-19.29
218.813	-3.56
219.198	-14.24
219.583	16.56
219.968	29.49
220.353	-2.38
220.738	0.95
221.122	8.93
221.507	13.49
221.892	-26.15
222.276	-23.58
222.661	24.63
223.046	19.67
223.43	18.82
223.815	9.09
224.199	-8.84
224.583	8.93
224.968	-3.65
225.352	10.25
225.736	-2.96
226.121	3.05
226.505	7.41
226.889	10.21
227.273	0.74
227.657	5.8
228.041	5.37
228.425	3.45
228.809	2.38
229.193	4.94
229.577	1.5
229.961	3.65
230.344	4.14
230.728	4.05
231.112	4.36
231.495	3.46
231.879	3.43
232.263	4.97
232.646	3.94
233.03	6.01
233.413	4.06
233.797	4.02
234.18	1.07
234.563	1.82
234.946	2.48
235.33	6.07
235.713	4.14
236.096	4.7
236.479	4.14
236.862	1.58
237.245	4.83
237.628	2.85
238.011	4.51
238.394	4.65
238.777	3.69
239.16	3.42
239.543	5.32
239.925	5.57
240.308	5.75
240.691	5.4
241.073	4.89
241.456	3.89
241.838	3.62
242.221	2.48
242.603	4.62
242.986	4.53
243.368	4.81
243.75	4.5
244.133	3.73
244.515	3.92
244.897	4.48
245.279	4.13
245.661	4.54
246.043	2.81
246.425	3.36
246.807	5.01
247.189	5.56
247.571	4.21
247.953	4.37
248.335	3.86
248.717	4.12
249.098	3.7
249.48	4.01
249.862	3.99
250.243	4.02
250.625	3.78
251.006	4.49
251.388	2.88
251.769	3.61
252.151	4.18
252.532	2.85
252.913	4.18
253.295	3.18
253.676	3.66
254.057	3.89
254.438	4
254.819	3.35
255.2	3.17
255.581	3.66
255.962	3.44
256.343	3.82
256.724	4.1
257.105	4.41
257.486	4.72
257.867	4.36
258.247	3.67
258.628	3.32
259.009	4.45
259.389	3.92
259.77	4.21
260.15	3.06
260.531	3.18
260.911	4.78
261.292	3.97
261.672	4.29
262.052	4.07
262.432	4.11
262.813	4.07
263.193	3.91
263.573	4.11
263.953	4.09
264.333	4.66
264.713	4.36
265.093	3.12
265.473	3.7
265.853	2.87
266.233	4.17
266.612	1.65
266.992	3
267.372	4.96
267.752	3.7
268.131	3.81
268.511	4.14
268.89	4.4
269.27	3.63
269.649	3.62
270.029	3.57
270.408	4.63
270.787	4.37
271.167	4.98
271.546	4.52
271.925	4.06
272.304	3.74
272.683	4.43
273.062	3.83
273.441	3.9
273.82	3.23
274.199	4.02
274.578	4.08
274.957	3.51
275.336	3.73
275.715	3.8
276.093	3.59
276.472	3.44
276.851	3.32
277.229	3.36
277.608	3.59
277.986	3.89
278.365	4.19
278.743	3.37
279.122	3.58
279.5	3.58
279.878	4.32
280.257	3.68
280.635	3.5
281.013	3.69
281.391	4.04
281.769	4.09
282.147	4.43
282.525	4.84
282.903	3.25
283.281	4.21
283.659	4.11
284.037	4.17
284.415	4.4
284.792	3.85
285.17	3.44
285.548	3.92
285.925	3.86
286.303	4.45
286.68	4.11
287.058	3.96
287.435	3.82
287.813	4.03
288.19	3.97
288.567	4.22
288.945	4.75
289.322	4.31
289.699	4.04
290.076	4
290.453	4.36
290.83	4.37
291.207	3.81
291.584	4.53
291.961	4.46
292.338	4.23
292.715	4.61
293.092	4.47
293.469	4.62
293.845	4.61
294.222	3.64
294.599	3.87
294.975	4.38
295.352	4.63
295.728	4.2
296.105	4.26
296.481	4.69
296.858	4.34
297.234	4.55
297.61	4.45
297.986	4.26
298.363	4.4
298.739	4.64
299.115	4.56
299.491	4.62
299.867	4.7
300.243	4.64
300.619	4.07
300.995	4.31
301.371	4.88
301.746	4.25
302.122	4.43
302.498	5.33
302.874	5.12
303.249	4.26
303.625	4.27
304	5.09
304.376	5.11
304.751	4.64
305.127	5.42
305.502	4.58
305.878	4
306.253	4.73
306.628	5.01
307.003	5.11
307.378	5.42
307.754	5.4
308.129	4.43
308.504	5.18
308.879	4.62
309.254	5.87
309.629	5.86
310.003	5.13
310.378	5.68
310.753	5.21
311.128	5.22
311.502	5.28
311.877	5.77
312.252	5.24
312.626	5.22
313.001	5.24
313.375	5.59
313.75	5.27
314.124	5.78
314.498	5.26
314.873	5.19
315.247	5.16
315.621	5.6
315.995	5.01
316.369	5.84
316.743	5.61
317.117	6.22
317.491	4.97
317.865	5.3
318.239	5.88
318.613	5.75
318.987	6.01
319.361	5.5
319.734	5.61
320.108	6.32
320.482	5.81
320.855	6.13
321.229	5.63
321.602	5.66
321.976	6.19
322.349	6.06
322.723	5.76
323.096	6.1
323.469	5.21
323.843	5.65
324.216	6.07
324.589	5.86
324.962	5.77
325.335	6.12
325.708	6.15
326.081	6.11
326.454	6.5
326.827	5.79
327.2	6.37
327.573	5.98
327.945	5.76
328.318	5.98
328.691	5.18
329.063	6.59
329.436	5.58
329.809	6.49
330.181	6.4
330.553	6.41
330.926	6.44
331.298	6.59
331.671	6.17
332.043	6.38
332.415	6.52
332.787	7.14
333.159	6.97
333.532	6.89
333.904	6.33
334.276	6.62
334.648	6.25
335.02	6.24
335.391	5.62
335.763	6.83
336.135	6.34
336.507	6.36
336.879	6.42
337.25	6.47
337.622	6.81
337.993	6.96
338.365	6.94
338.736	6.8
339.108	6.86
339.479	7.22
339.851	6.46
340.222	6.7
340.593	6.69
340.964	6.26
341.336	7.79
341.707	6.55
342.078	7.44
342.449	7.34
342.82	6.71
343.191	7.19
343.562	7.16
343.933	7.16
344.303	6.89
344.674	6.96
345.045	7.27
345.416	7.41
345.786	6.98
346.157	7.3
346.527	6.73
346.898	7.18
347.268	7.34
347.639	6.96
348.009	7.27
348.38	7.28
348.75	7.31
349.12	7.46
349.49	7.53
349.861	7.72
350.231	7.55
350.601	7.81
350.971	7.54
351.341	7.42
351.711	7.33
352.081	7.79
352.45	6.89
352.82	7.67
353.19	7.19
353.56	7.46
353.929	7.62
354.299	7.31
354.669	6.92
355.038	7.81
355.408	7.34
355.777	7.77
356.147	7.6
356.516	7.95
356.885	7.77
357.254	7.26
357.624	7.77
357.993	7.79
358.362	7.45
358.731	7.61
359.1	7.89
359.469	7.94
359.838	7.99
360.207	7.66
360.576	7.92
360.945	7.52
361.314	8.19
361.682	7.97
362.051	7.72
362.42	8.3
362.788	7.81
363.157	8.05
363.525	8.14
363.894	7.97
364.262	8.09
364.631	7.97
364.999	8.26
365.367	7.72
365.735	8.59
366.104	8.53
366.472	8.46
366.84	7.96
367.208	8.03
367.576	8.48
367.944	8.25
368.312	8.31
368.68	8.21
369.048	8.25
369.416	8.37
369.783	8.38
370.151	8.41
370.519	8.57
370.886	8.77
371.254	8.31
371.621	8.85
371.989	8.9
372.356	8.39
372.724	8.71
373.091	8.46
373.458	8.45
373.826	8.4
374.193	8.74
374.56	8.96
374.927	8.92
375.294	8.68
375.661	8.74
376.028	8.88
376.395	8.8
376.762	8.57
377.129	8.77
377.496	8.72
377.863	8.83
378.229	8.26
378.596	8.92
378.963	8.91
379.329	8.92
379.696	9.05
380.062	8.97
380.429	8.85
380.795	9.37
381.161	9.03
381.528	9.08
381.894	9.11
382.26	9.14
382.626	9.12
382.993	8.8
383.359	9.6
383.725	9.37
384.091	9.35
384.457	9.42
384.823	9.08
385.188	9.59
385.554	9.33
385.92	9.55
386.286	9.79
386.651	9.56
387.017	9.41
387.383	9.55
387.748	9.59
388.114	9.78
388.479	9.3
388.845	9.92
389.21	9.58
389.575	9.49
389.94	9.77
390.306	9.91
390.671	9.7
391.036	9.61
391.401	9.55
391.766	9.74
392.131	9.55
392.496	9.84
392.861	9.54
393.226	10
393.591	9.93
393.956	9.74
394.32	9.89
394.685	9.88
395.05	9.77
395.414	9.92
395.779	9.82
396.143	9.74
396.508	9.77
396.872	9.96
397.236	10.14
397.601	9.64
397.965	10.08
398.329	10.25
398.694	10.03
399.058	10.15
399.422	9.94
399.786	10.27
400.15	10.34
400.514	10.18
400.878	10.31
401.242	10.29
401.605	10.43
401.969	10.09
402.333	10.22
402.697	10.38
403.06	10.3
403.424	10.38
403.787	10.31
404.151	10.68
404.514	10.75
404.878	10.55
405.241	10.71
405.604	10.69
405.968	10.41
406.331	10.44
406.694	10.62
407.057	10.32
407.42	10.82
407.783	10.31
408.146	10.59
408.509	10.83
408.872	10.75
409.235	10.86
409.598	10.94
409.961	10.76
410.323	11.29
410.686	10.57
411.049	10.76
411.411	10.72
411.774	11.02
412.136	10.85
412.499	10.98
412.861	10.8
413.223	10.66
413.586	11.02
413.948	11.05
414.31	10.96
414.672	10.99
415.035	11.07
415.397	11.27
415.759	10.86
416.121	11.12
416.483	10.98
416.845	11.24
417.206	11.07
417.568	11.29
417.93	10.99
418.292	11.16
418.653	11.24
419.015	11.25
419.377	11.3
419.738	11.2
420.1	11.24
420.461	11.08
420.822	11.38
421.184	11.25
421.545	11.19
421.906	11.06
422.267	11.23
422.629	11.33
422.99	11.37
423.351	11.32
423.712	11.28
424.073	11.3
424.434	11.51
424.795	11.26
425.155	11.48
425.516	11.4
425.877	11.38
426.238	11.33
426.598	11.51
426.959	11.51
427.32	11.61
427.68	11.66
428.041	11.63
428.401	11.84
428.761	11.65
429.122	11.63
429.482	11.78
429.842	12.04
430.202	11.91
430.563	11.8
430.923	11.84
431.283	11.98
431.643	11.81
432.003	12.19
432.363	12.29
432.722	12.11
433.082	12.22
433.442	11.99
433.802	11.86
434.161	12.12
434.521	12.43
434.881	12.29
435.24	12.01
435.6	12.22
435.959	12.19
436.319	12.26
436.678	12.25
437.037	12.33
437.396	12.44
437.756	12.45
438.115	12.31
438.474	12.66
438.833	12.34
439.192	12.5
439.551	12.63
439.91	12.4
440.269	12.65
440.628	12.44
440.987	12.46
441.345	12.55
441.704	12.56
442.063	12.46
442.421	12.65
442.78	12.53
443.138	12.5
443.497	12.76
443.855	12.5
444.214	12.82
444.572	12.98
444.93	12.98
445.288	12.88
445.647	12.98
446.005	12.81
446.363	12.95
446.721	13.06
447.079	12.85
447.437	12.88
447.795	12.9
448.153	12.89
448.51	12.89
448.868	12.88
449.226	13.09
449.584	12.99
449.941	13.11
450.299	13.18
450.656	13.28
451.014	12.94
451.371	13.14
451.729	13.22
452.086	13.38
452.443	13.27
452.801	13.45
453.158	13.66
453.515	13.34
453.872	13.58
454.229	13.48
454.586	13.59
454.943	13.6
455.3	13.67
455.657	13.48
456.014	13.47
456.371	13.7
456.727	13.78
457.084	13.93
457.441	13.75
457.797	13.67
458.154	13.81
458.51	14.02
458.867	13.8
459.223	14.1
459.58	14.06
459.936	14.05
460.292	13.98
460.648	13.93
461.005	13.93
461.361	13.92
461.717	13.97
462.073	13.79
462.429	13.97
462.785	13.94
463.141	14.14
463.496	14.22
463.852	14.36
464.208	14.33
464.564	14.35
464.919	14.26
465.275	14.38
465.631	14.4
465.986	14.62
466.342	14.5
466.697	14.61
467.052	14.58
467.408	14.51
467.763	14.54
468.118	14.63
468.473	14.57
468.829	14.76
469.184	14.67
469.539	14.86
469.894	14.64
470.249	14.94
470.603	14.89
470.958	14.91
471.313	14.95
471.668	14.88
472.023	15.03
472.377	15
472.732	15.2
473.086	15.03
473.441	14.8
473.795	15.12
474.15	15.07
474.504	15.01
474.859	15.38
475.213	15.04
475.567	15.16
475.921	15.24
476.275	15.34
476.63	15.23
476.984	15.41
477.338	15.35
477.692	15.35
478.045	15.37
478.399	15.54
478.753	15.62
479.107	15.5
479.461	15.64
479.814	15.51
480.168	15.49
480.521	15.37
480.875	15.55
481.228	15.6
481.582	15.7
481.935	15.68
482.289	15.78
482.642	15.78
482.995	15.56
483.348	15.69
483.701	15.59
484.055	15.7
484.408	15.7
484.761	15.61
485.114	15.37
485.466	15.17
485.819	15.18
486.172	15.18
486.525	15.34
486.878	15.45
487.23	15.53
487.583	15.68
487.936	15.81
488.288	15.76
488.641	15.78
488.993	15.73
489.345	15.63
489.698	15.68
490.05	15.7
490.402	15.8
490.754	15.95
491.107	16.1
491.459	16.2
491.811	16.33
492.163	16.39
492.515	16.3
492.866	16.25
493.218	16.16
493.57	16.15
493.922	16.02
494.274	16.27
494.625	16.44
494.977	16.53
495.328	16.73
495.68	16.89
496.031	16.83
496.383	16.9
496.734	17.19
497.086	17.14
497.437	17.08
497.788	17.22
498.139	17
498.49	17.22
498.842	16.93
499.193	17.12
499.544	17.29
499.894	17.26
500.245	17.29
500.596	17.3
500.947	17.42
501.298	17.29
501.648	17.45
501.999	17.51
502.35	17.5
502.7	17.77
503.051	17.63
503.401	17.7
503.752	17.84
504.102	17.58
504.452	17.7
504.803	17.81
505.153	17.98
505.503	17.98
505.853	17.93
506.203	17.86
506.553	17.97
506.903	18.1
507.253	18
507.603	18.05
507.953	18.2
508.303	18.33
508.652	18.24
509.002	18.46
509.352	18.39
509.701	18.38
510.051	18.25
510.4	18.32
510.75	18.25
511.099	18.35
511.449	18.39
511.798	18.48
512.147	18.52
512.496	18.54
512.846	18.64
513.195	18.62
513.544	18.69
513.893	18.87
514.242	18.72
514.591	18.89
514.939	18.93
515.288	18.73
515.637	19.05
515.986	19.1
516.334	19.07
516.683	19.11
517.032	19.09
517.38	19.17
517.729	19.17
518.077	19.15
518.426	19.34
518.774	19.24
519.122	19.2
519.47	19.21
519.819	19.21
520.167	19.15
520.515	19.06
520.863	19.19
521.211	19.25
521.559	19.42
521.907	19.36
522.255	19.42
522.602	19.64
522.95	19.67
523.298	19.67
523.645	19.78
523.993	19.77
524.341	19.89
524.688	20.15
525.036	20.14
525.383	20.14
525.73	20.2
526.078	20.02
526.425	20.13
526.772	20.07
527.119	19.97
527.466	19.98
527.814	19.97
528.161	19.96
528.508	20.07
528.854	20.12
529.201	20.23
529.548	19.98
529.895	19.92
530.242	19.75
530.588	19.64
530.935	19.81
531.282	19.85
531.628	19.96
531.975	20.21
532.321	20.26
532.667	20.36
533.014	20.44
533.36	20.56
533.706	20.55
534.052	20.87
534.399	20.65
534.745	20.67
535.091	20.61
535.437	20.62
535.783	20.67
536.129	20.88
536.474	20.97
536.82	21.07
537.166	21.2
537.512	21.28
537.857	21.22
538.203	21.23
538.549	21.12
538.894	21.32
539.239	21.33
539.585	21.43
539.93	21.36
540.276	21.73
540.621	21.86
540.966	21.97
541.311	21.69
541.656	21.91
542.001	21.95
542.346	21.91
542.691	21.77
543.036	21.55
543.381	21.39
543.726	21.45
544.071	21.58
544.415	21.78
544.76	21.91
545.105	21.88
545.449	22.1
545.794	22.2
546.138	22.33
546.483	22.46
546.827	22.49
547.171	22.51
547.516	22.72
547.86	22.54
548.204	22.49
548.548	22.58
548.892	22.51
549.236	22.68
549.58	22.74
549.924	22.96
550.268	23.08
550.612	23.41
550.956	23.13
551.3	23.34
551.643	23.27
551.987	23.42
552.33	23.27
552.674	23.44
553.017	23.3
553.361	23.59
553.704	23.45
554.048	23.66
554.391	23.64
554.734	23.7
555.077	23.71
555.42	23.6
555.764	23.82
556.107	23.9
556.45	23.8
556.793	23.98
557.135	23.91
557.478	24.45
557.821	24.21
558.164	24.18
558.507	24.35
558.849	24.42
559.192	24.57
559.534	24.27
559.877	24.58
560.219	24.45
560.562	24.62
560.904	24.61
561.246	24.84
561.589	24.79
561.931	24.86
562.273	24.82
562.615	24.92
562.957	24.89
563.299	24.72
563.641	24.67
563.983	25.01
564.325	24.89
564.667	25.28
565.008	25.04
565.35	25.17
565.692	25.01
566.033	25.05
566.375	25.38
566.716	25.53
567.058	25.38
567.399	25.25
567.741	25.35
568.082	25.42
568.423	25.35
568.764	25.45
569.105	25.62
569.447	25.66
569.788	25.78
570.129	25.82
570.47	25.77
570.811	26.14
571.151	26.12
571.492	25.98
571.833	25.98
572.174	26.1
572.514	26.17
572.855	26.05
573.195	26.04
573.536	26.06
573.876	26.18
574.217	26.21
574.557	26.49
574.898	26.47
575.238	26.79
575.578	26.37
575.918	26.61
576.258	26.76
576.598	26.72
576.938	26.51
577.278	26.77
577.618	26.77
577.958	27.07
578.298	26.92
578.638	27.01
578.977	27.17
579.317	26.77
579.657	27.26
579.996	27.24
580.336	27.28
580.675	27.29
581.014	27.48
581.354	27.6
581.693	27.6
582.032	27.56
582.372	27.63
582.711	27.73
583.05	27.52
583.389	27.56
583.728	27.83
584.067	28.13
584.406	27.7
584.745	28.08
585.083	28.23
585.422	28.19
585.761	28.25
586.1	28.09
586.438	28.17
586.777	28.66
587.115	28.51
587.454	28.34
587.792	28.53
588.13	28.73
588.469	28.5
588.807	28.88
589.145	28.53
589.483	28.74
589.821	28.62
590.159	28.75
590.497	29.35
590.835	29.07
591.173	28.71
591.511	29.01
591.849	29.17
592.187	28.85
592.524	28.85
592.862	29.23
593.2	29.21
593.537	29.2
593.875	29.42
594.212	29.36
594.55	29.36
594.887	29.44
595.224	29.52
595.561	29.51
595.899	29.97
596.236	29.53
596.573	29.56
596.91	29.23
597.247	29.55
597.584	29.84
597.921	29.87
598.258	29.9
598.594	30.06
598.931	29.95
599.268	29.9
599.604	30.02
599.941	30.25
600.277	30.23
600.614	30.31
600.95	30.31
601.287	30.52
601.623	30.54
601.959	30.67
602.296	30.69
602.632	30.78
602.968	30.85
603.304	30.9
603.64	30.65
603.976	31.17
604.312	30.84
604.648	30.93
604.984	31.11
605.319	30.94
605.655	31.01
605.991	30.95
606.326	31.02
606.662	30.84
606.998	31.15
607.333	31.3
607.668	31.58
608.004	31.57
608.339	31.68
608.674	31.48
609.01	31.62
609.345	31.71
609.68	32.11
610.015	31.67
610.35	31.74
610.685	31.76
611.02	32.01
611.355	32.1
611.689	31.98
612.024	32.01
612.359	31.91
612.694	32.12
613.028	32.28
613.363	32.22
613.697	32.7
614.032	32.44
614.366	32.2
614.7	32.44
615.035	33.09
615.369	32.82
615.703	33.13
616.037	32.7
616.371	32.5
616.705	32.75
617.039	33.11
617.373	32.99
617.707	33.37
618.041	33.35
618.375	33.23
618.709	33.19
619.042	33.27
619.376	33.11
619.71	33.47
620.043	33.24
620.377	33.45
620.71	33.98
621.043	33.42
621.377	33.5
621.71	33.74
622.043	33.37
622.376	33.65
622.709	34.04
623.043	33.87
623.376	34.21
623.709	33.93
624.041	34.63
624.374	34.06
624.707	34.39
625.04	34.66
625.373	34.55
625.705	34.59
626.038	34.35
626.37	34.46
626.703	34.09
627.035	34.83
627.368	34.65
627.7	34.45
628.032	34.42
628.365	35.1
628.697	34.85
629.029	34.6
629.361	34.69
629.693	35.3
630.025	34.86
630.357	35.14
630.689	35.06
631.021	34.75
631.353	35.02
631.684	35.04
632.016	34.86
632.348	35.47
632.679	35.14
633.011	35.88
633.342	35.6
633.674	35.6
634.005	36.19
634.336	35.78
634.668	35.81
634.999	35.61
635.33	36.04
635.661	36.15
635.992	36.11
636.323	36.09
636.654	36.61
636.985	35.84
637.316	36.02
637.647	36.34
637.977	36.41
638.308	36.19
638.639	36.02
638.969	36.05
639.3	36.37
639.63	36.26
639.961	36.44
640.291	36.52
640.622	36.38
640.952	36.73
641.282	37.68
641.612	36.59
641.943	36.74
642.273	36.44
642.603	37.48
642.933	37.28
643.263	37.11
643.592	37.31
643.922	37.16
644.252	37.62
644.582	36.93
644.911	36.78
645.241	37.29
645.571	37.19
645.9	37.3
646.23	37.88
646.559	37.8
646.888	37.69
647.218	37.38
647.547	37.5
647.876	37.84
648.205	38.11
648.534	37.48
648.863	37.86
649.192	37.95
649.521	37.57
649.85	37.67
650.179	38.09
650.508	37.8
650.837	37.97
651.165	38.45
651.494	38.42
651.822	38.13
652.151	38.56
652.479	38.54
652.808	37.96
653.136	38.46
653.465	38.07
653.793	38.68
654.121	38.76
654.449	38.55
654.777	38.65
655.105	38.85
655.433	38.83
655.761	38.61
656.089	38.78
656.417	39.06
656.745	39.11
657.073	39.25
657.4	39.17
657.728	39.28
658.056	39.57
658.383	39.18
658.711	39.63
659.038	39.51
659.365	39.97
659.693	39.5
660.02	39.34
660.347	39.45
660.674	40.09
661.001	39.92
661.329	39.33
661.656	39.91
661.982	39.48
662.309	39.26
662.636	39.55
662.963	40.47
663.29	40.5
663.616	40.31
663.943	39.92
664.27	39.92
664.596	40.6
664.923	41.02
665.249	40.64
665.576	40.22
665.902	40.67
666.228	40.6
666.554	40.75
666.881	40.63
667.207	40.32
667.533	40.9
667.859	40.58
668.185	40.92
668.511	40.52
668.837	40.94
669.162	40.66
669.488	40.49
669.814	41.31
670.139	41.27
670.465	41.29
670.791	41.73
671.116	41.59
671.442	40.66
671.767	41.91
672.092	41.43
672.418	41.28
672.743	41.85
673.068	41.52
673.393	41.24
673.718	40.97
674.043	40.88
674.368	42.28
674.693	42.15
675.018	42.02
675.343	41.93
675.667	41.41
675.992	41.88
676.317	42.01
676.641	42.24
676.966	42.8
677.29	42.17
677.615	42.28
677.939	42.23
678.264	41.95
678.588	42.63
678.912	42.78
679.236	42.22
679.56	41.49
679.885	42.8
680.209	42.59
680.532	41.95
680.856	42.6
681.18	42.56
681.504	42.84
681.828	43.14
682.152	42.83
682.475	42.85
682.799	43.33
683.122	42.79
683.446	43.21
683.769	43.65
684.093	42.75
684.416	43.3
684.739	43.48
685.062	42.91
685.386	43.36
685.709	43.08
686.032	43.74
686.355	43.83
686.678	43.47
687.001	44.77
687.324	44.13
687.646	42.79
687.969	43.92
688.292	44.15
688.614	43.09
688.937	45.47
689.26	44.35
689.582	44.48
689.904	43.93
690.227	44.07
690.549	43.95
690.871	43.9
691.194	43.83
691.516	44.55
691.838	44.71
692.16	44.04
692.482	43.9
692.804	44.19
693.126	44.81
693.448	44.53
693.769	45.22
694.091	44.93
694.413	45.09
694.735	44.62
695.056	44.64
695.378	44.9
695.699	44.83
696.021	44.29
696.342	45.7
696.663	45.99
696.984	45.31
697.306	44.39
697.627	45.39
697.948	45.71
698.269	45.76
698.59	45.1
698.911	44.44
699.232	44.94
699.553	45.56
699.873	45.72
700.194	45.41
700.515	46.22
700.835	45.71
701.156	45.91
701.477	45.36
701.797	45.25
702.117	45.43
702.438	45.95
702.758	45.96
703.078	45.18
703.398	45.82
703.719	45.32
704.039	45.03
704.359	45.67
704.679	45.78
704.999	45.59
705.319	46.21
705.638	47.14
705.958	46.11
706.278	47.42
706.597	46.14
706.917	46.47
707.237	46.05
707.556	47.03
707.876	47.14
708.195	45.86
708.514	46.14
708.834	47.83
709.153	45.26
709.472	46.86
709.791	47.2
710.11	45.57
710.429	48.02
710.748	48.02
711.067	46.75
711.386	47.42
711.705	47.3
712.023	47.22
712.342	47.92
712.661	46.28
712.979	47.22
713.298	47.43
713.616	48.02
713.935	47.57
714.253	46.77
714.572	48.37
714.89	47.61
715.208	48.78
715.526	47.41
715.844	47.49
716.162	48.46
716.48	47.89
716.798	46.73
717.116	48.2
717.434	48.39
717.752	46.8
718.069	48.21
718.387	47.41
718.705	47.44
719.022	47.11
719.34	48.72
719.657	46.76
719.975	48.88
720.292	47.23
720.609	48.18
720.927	47.72
721.244	49.44
721.561	48.82
721.878	48.93
722.195	48.91
722.512	46.8
722.829	48.44
723.146	47.08
723.463	49.45
723.779	49.18
724.096	49.02
724.413	48.45
724.729	50.21
725.046	48.46
725.362	49.03
725.679	48.43
725.995	48.5
726.311	49.04
726.628	49.27
726.944	49.42
727.26	48.23
727.576	50.28
727.892	49.85
728.208	48.46
728.524	51.23
728.84	49.41
729.156	48.42
729.472	50.15
729.787	48.15
730.103	49.62
730.419	49.79
730.734	48.71
731.05	49.24
731.365	49.22
731.681	49.2
731.996	50.22
732.311	49.89
732.626	50.04
732.942	48.93
733.257	50.47
733.572	51.02
733.887	48.73
734.202	51.74
734.517	49.01
734.832	49.36
735.146	49.89
735.461	50.71
735.776	49.47
736.091	50.4
736.405	49.94
736.72	50.89
737.034	50.15
737.349	51.33
737.663	50.76
737.977	52.79
738.292	50.77
738.606	50.3
738.92	50.59
739.234	50.88
739.548	50.19
739.862	50.18
740.176	50.85
740.49	50.4
740.804	51.58
741.117	50.93
741.431	51.38
741.745	51.11
742.058	51.42
742.372	50.5
742.685	50.96
742.999	49.8
743.312	51.84
743.626	51.49
743.939	53.17
744.252	50.07
744.565	50.42
744.878	52.6
745.191	52.06
745.505	51.7
745.817	53.06
746.13	53.34
746.443	52.16
746.756	51.63
747.069	50.68
747.381	54.25
747.694	50.12
748.007	53.57
748.319	52.52
748.632	53.49
748.944	51.87
749.256	52.99
749.569	51.66
749.881	52.37
750.193	50.74
750.505	51.79
750.817	51.79
751.129	53.11
751.441	50.2
751.753	51.95
752.065	53.69
752.377	51.6
752.689	51.51
753	52.22
753.312	50.46
753.624	53.76
753.935	53.28
754.247	52.95
754.558	51.45
754.869	52.11
755.181	52.84
755.492	54.73
755.803	53.42
756.114	52.69
756.425	52.34
756.736	51.65
757.047	53.32
757.358	53.94
757.669	51.67
757.98	52.17
758.291	53.02
758.601	53.48
758.912	51.65
759.223	52.78
759.533	51.55
759.844	53.46
760.154	53.21
760.464	55.33
760.775	55.55
761.085	54.3
761.395	53.48
761.705	52.99
762.016	53.78
762.326	54
762.636	53.59
762.945	53.54
763.255	54.81
763.565	52.52
763.875	54.02
764.185	55.3
764.494	53.99
764.804	56.65
765.113	54.39
765.423	54.72
765.732	54.42
766.042	54.78
766.351	54.3
766.66	53.78
766.97	54.46
767.279	53.12
767.588	56.21
767.897	55.31
768.206	54.06
768.515	53.74
768.824	54.47
769.133	54.32
769.441	53.74
769.75	53.11
770.059	52.06
770.367	53.11
770.676	54.64
770.984	53.86
771.293	53.21
771.601	55.39
771.91	55.58
772.218	55.66
772.526	57.31
772.834	54.04
773.142	55.21
773.45	54.61
773.758	53.83
774.066	54.92
774.374	55.08
774.682	51.78
774.99	57.48
775.298	49.52
775.605	53.4
775.913	51.49
776.22	57.75
776.528	56.94
776.835	59.1
777.143	60.49
777.45	53.77
777.757	54.31
778.065	54.2
778.372	53.75
778.679	52.83
778.986	53.88
779.293	56.34
779.6	57.35
779.907	54.45
780.214	55.8
780.52	55.91
780.827	56.6
781.134	54.96
781.44	54.11
781.747	56.62
782.053	55.22
782.36	55.45
782.666	56.65
782.973	54.36
783.279	51.38
783.585	55.09
783.891	58.65
784.197	56.11
784.503	54.03
784.809	58.85
785.115	53.99
785.421	57.86
785.727	55.96
786.033	55.15
786.339	52.39
786.644	56.7
786.95	56.67
787.255	53.65
787.561	55.98
787.866	56.77
788.172	54.42
788.477	57.61
788.782	56.74
789.088	55.34
789.393	54.38
789.698	54.76
790.003	57.51
790.308	54.92
790.613	54.83
790.918	57.21
791.223	55.13
791.527	51.46
791.832	60.29
792.137	52.58
792.441	59.37
792.746	55.56
793.05	57.88
793.355	54.84
793.659	56.52
793.963	57.81
794.268	58.73
794.572	59.44
794.876	51.6
795.18	55.82
795.484	57.07
795.788	59.02
796.092	59.52
796.396	61.21
796.7	55.51
797.004	53.53
797.307	55.28
797.611	60.71
797.915	55.61
798.218	58.8
798.522	56.51
798.825	55.58
799.128	61.13
799.432	59.73
799.735	59.34
800.038	59.45
800.341	56.49
800.644	53.53
800.947	55.25
801.25	58.08
801.553	53.67
801.856	57.5
802.159	56.57
802.462	60.42
802.764	54.35
803.067	59.22
803.37	51.86
803.672	56.02
803.975	54.05
804.277	57.55
804.579	56.14
804.882	57.51
805.184	53.98
805.486	49.85
805.788	55.1
806.09	57.97
806.392	54.71
806.694	52.74
806.996	64.28
807.298	63.07
807.6	60.11
807.902	63.06
808.203	53.47
808.505	54.04
808.807	57.17
809.108	61.11
809.409	56.2
809.711	58.24
810.012	56.61
810.313	60.3
810.615	58.46
810.916	54.26
811.217	56.15
811.518	59.03
811.819	64.9
812.12	61.9
812.421	53.16
812.722	55.57
813.023	62.2
813.323	59.14
813.624	53.29
813.925	60.82
814.225	55.6
814.526	59.28
814.826	58.49
815.126	56.1
815.427	57.16
815.727	58.87
816.027	57.2
816.327	57.25
816.627	57.45
816.927	59.15
817.227	54.84
817.527	60.38
817.827	61.76
818.127	53.29
818.427	55.96
818.727	60.4
819.026	56.9
819.326	60.68
819.625	55.57
819.925	61.23
820.224	56.16
820.524	58.69
820.823	50.12
821.122	51.72
821.421	53.15
821.72	58.4
822.019	58.43
822.318	58.32
822.617	62.74
822.916	55.68
823.215	58.75
823.514	61.37
823.813	60.39
824.111	62.26
824.41	61.87
824.709	61.79
825.007	61.3
825.306	61.17
825.604	61.01
825.902	60.85
826.201	61.27
826.499	61.64
826.797	60.09
827.095	59.55
827.393	59.39
827.691	59.45
827.989	58.53
828.287	60.53
828.585	60.56
828.882	59.71
829.18	58.57
829.478	60.69
829.775	56.49
830.073	62.99
830.37	61.08
830.668	57.71
830.965	62.38
831.263	60.62
831.56	59.92
831.857	58.59
832.154	59.71
832.451	62.66
832.748	58.75
833.045	58.62
833.342	61.5
833.639	60.26
833.936	61.24
834.232	59.48
834.529	61.61
834.826	56.75
835.122	59.9
835.419	54.51
835.715	63.76
836.012	61.23
836.308	62.85
836.604	59.03
836.901	59.99
837.197	59.65
837.493	59.68
837.789	60.37
838.085	66.06
838.381	59.11
838.677	58.18
838.972	57.87
839.268	60.88
839.564	56.92
839.86	60.09
840.155	56.08
840.451	63.38
840.746	54.46
841.042	59.08
841.337	60.71
841.632	53.68
841.928	60.47
842.223	60
842.518	50.07
842.813	63.05
843.108	55.64
843.403	62.21
843.698	66.77
843.993	61.81
844.287	56.33
844.582	60.45
844.877	58.22
845.171	59.75
845.466	50.17
845.761	42.49
846.055	69.04
846.349	68.12
846.644	50.89
846.938	45.08
847.232	59.08
847.526	60.35
847.82	57.87
848.114	61.18
848.408	69.05
848.702	54.82
848.996	28.46
849.29	53.67
849.584	80.22
849.877	61.06
850.171	79.57
850.465	32.55
850.758	36.74
851.052	52.76
851.345	68.21
851.638	57.15
851.932	77.4
852.225	59.38
852.518	65.56
852.811	53.77
853.104	32.09
853.397	42.8
853.69	64.83
853.983	50.59
854.276	45.44
854.569	68.9
854.861	62.75
855.154	35.7
855.447	44.52
855.739	49.78
856.032	53.11
856.324	47.17
856.616	71.36
856.909	72.26
857.201	90.87
857.493	30.79
857.785	54.73
858.077	73.14
858.369	51.41
858.661	53.93
858.953	50.33
859.245	84.01
859.537	81.49
859.829	71.93
860.12	67.1
860.412	78.85
860.703	72.88
860.995	41.69
861.286	62.46
861.578	63.27
861.869	67.71
862.16	47.35
862.452	49.15
862.743	29.34
863.034	47.91
863.325	26.13
863.616	78.73
863.907	39.17
864.198	38.79
864.488	59.23
864.779	31.71
865.07	42.66
865.36	42.78
865.651	54.13
865.941	49.07
866.232	50.23
866.522	33.96
866.813	45.72
867.103	63.32
867.393	30.29
867.683	73.19
867.973	34.9
868.263	39.16
868.553	58.47
868.843	76
869.133	82.23
869.423	40.76
869.713	70.18
870.002	78.42
870.292	30
870.582	46.47
870.871	51.94
871.161	56.24
871.45	64.14
871.739	39.88
872.029	50.99
872.318	51.04
872.607	65.29
872.896	49.91
873.185	73.53
873.474	32.82
873.763	29.56
874.052	52.58
874.341	63.17
874.63	43.2
874.918	70.49
875.207	83.93
875.496	63.39
875.784	33.69
876.073	36.15
876.361	-20
876.649	58.21
876.938	51.9
877.226	66.78
877.514	60.15
877.802	46.92
878.09	88.89
878.378	84.34
878.666	45.4
878.954	50.88
879.242	29.43
879.53	24.93
879.817	48.33
880.105	75.7
880.392	40.83
880.68	66.65
880.967	100.59
881.255	65.93
881.542	55.09
881.83	22.65
882.117	40.39
882.404	23.51
882.691	61.57
882.978	65.83
883.265	42.42
883.552	79.2
883.839	68.53
884.126	48.85
884.413	66.59
884.699	66.21
884.986	64.71
885.273	72.01
885.559	72.01
885.846	72.01
