Data from 0192_forehead_Reflection__0__386.txt Node

Date: Fri Dec 15 20:17:27 CST 2023
User: ToomeyLab
Spectrometer: FLMS14357
Trigger mode: 0
Integration Time (sec): 1.000000E-2
Scans to average: 100
Electric dark correction enabled: true
Nonlinearity correction enabled: false
Boxcar width: 0
XAxis mode: Wavelengths
Number of Pixels in Spectrum: 2048
>>>>>Begin Spectral Data<<<<<
189.047	52.76
189.435	52.76
189.823	52.76
190.211	-66.7
190.599	-174.43
190.987	19.94
191.375	-436.05
191.763	-606.63
192.151	76.71
192.538	260.64
192.926	18.09
193.314	100.45
193.702	-530.31
194.089	129.23
194.477	168.85
194.864	-867.05
195.252	95.57
195.639	100.63
196.027	93.79
196.414	684.34
196.801	185.57
197.189	280.43
197.576	13.18
197.963	0.97
198.351	-147.01
198.738	55.82
199.125	70.9
199.512	59.6
199.899	85.2
200.286	26.17
200.673	32.34
201.06	52.9
201.447	154.62
201.833	18.93
202.22	30.89
202.607	64.75
202.994	49.22
203.38	1.33
203.767	17.08
204.154	73.1
204.54	32.72
204.927	6.04
205.313	54.62
205.699	21.75
206.086	67.78
206.472	36.12
206.858	5.76
207.245	11.41
207.631	6.63
208.017	29.65
208.403	-16.99
208.789	24.25
209.175	46.52
209.561	61.44
209.947	-0.8
210.333	-53.7
210.719	55.75
211.105	19.57
211.491	44.72
211.876	14.59
212.262	30.99
212.648	7.17
213.034	30.42
213.419	40.99
213.805	-4.79
214.19	-23.22
214.576	-0.31
214.961	67.02
215.346	-115.39
215.732	37.15
216.117	22.84
216.502	33.32
216.888	13.31
217.273	28.79
217.658	1.68
218.043	53.54
218.428	-22.76
218.813	-17.89
219.198	-17.93
219.583	-11.74
219.968	19.66
220.353	0.1
220.738	20.55
221.122	40.56
221.507	30
221.892	-7.7
222.276	-3.35
222.661	6.18
223.046	23.75
223.43	25.45
223.815	35.58
224.199	-8.35
224.583	4.65
224.968	2.27
225.352	9.96
225.736	3.18
226.121	-8.36
226.505	8
226.889	10.37
227.273	2.25
227.657	9.03
228.041	0.34
228.425	2.22
228.809	7.3
229.193	3.68
229.577	4.12
229.961	4.92
230.344	3.11
230.728	3.02
231.112	3.21
231.495	2.89
231.879	1.78
232.263	3.84
232.646	3.29
233.03	4.85
233.413	1.43
233.797	4.37
234.18	4.28
234.563	6.34
234.946	5.81
235.33	4.74
235.713	3.68
236.096	4.9
236.479	4
236.862	2.61
237.245	3.27
237.628	3.91
238.011	2.87
238.394	3.25
238.777	6.99
239.16	2.9
239.543	4.13
239.925	5.81
240.308	3.91
240.691	5.61
241.073	5.98
241.456	4.12
241.838	3.44
242.221	3.05
242.603	3.74
242.986	3.24
243.368	3.95
243.75	3.84
244.133	3.06
244.515	3.26
244.897	3.14
245.279	3.18
245.661	2.86
246.043	1.83
246.425	1.67
246.807	5.63
247.189	3.55
247.571	3.7
247.953	4.03
248.335	3.54
248.717	3.59
249.098	3.17
249.48	3.47
249.862	3.16
250.243	3.13
250.625	3.35
251.006	4.01
251.388	2.53
251.769	3.32
252.151	3.55
252.532	2.96
252.913	3.03
253.295	2.78
253.676	2.51
254.057	4
254.438	3.6
254.819	2.67
255.2	3.22
255.581	2.97
255.962	2.04
256.343	3.36
256.724	3.55
257.105	3.38
257.486	3.96
257.867	4.45
258.247	3.46
258.628	3.24
259.009	3.97
259.389	3.86
259.77	3.51
260.15	2.76
260.531	2.95
260.911	3.91
261.292	3.23
261.672	3.51
262.052	3.39
262.432	3.41
262.813	4.05
263.193	3.87
263.573	3.52
263.953	3.76
264.333	3.51
264.713	3.79
265.093	3.04
265.473	3.32
265.853	2.61
266.233	4.24
266.612	2.24
266.992	2.78
267.372	3.65
267.752	3.21
268.131	3.32
268.511	4.18
268.89	3.68
269.27	3.52
269.649	3.14
270.029	3.6
270.408	4.3
270.787	3.84
271.167	3.89
271.546	3.88
271.925	3.42
272.304	3.61
272.683	3.98
273.062	3.12
273.441	3.81
273.82	3.01
274.199	3.24
274.578	3.71
274.957	3.22
275.336	3.73
275.715	3.22
276.093	3.02
276.472	3.42
276.851	3.37
277.229	3.28
277.608	3.6
277.986	3.16
278.365	3.01
278.743	3.23
279.122	3.45
279.5	3.31
279.878	4.05
280.257	4.53
280.635	2.79
281.013	3.52
281.391	4.08
281.769	3.51
282.147	3.78
282.525	4.02
282.903	4.08
283.281	3.56
283.659	3.88
284.037	3.67
284.415	4.01
284.792	3.64
285.17	2.41
285.548	3.31
285.925	3.94
286.303	3.49
286.68	4.01
287.058	3.86
287.435	3.67
287.813	3.81
288.19	3.77
288.567	3.8
288.945	3.83
289.322	3.45
289.699	3.52
290.076	3.2
290.453	3.99
290.83	4.04
291.207	3.76
291.584	4.07
291.961	4.1
292.338	4.01
292.715	4.21
293.092	4.43
293.469	4.4
293.845	5.11
294.222	3.97
294.599	4.17
294.975	4.15
295.352	4.11
295.728	3.71
296.105	3.85
296.481	4.61
296.858	4.35
297.234	3.88
297.61	4.89
297.986	4.84
298.363	5.16
298.739	4.27
299.115	4.4
299.491	4.72
299.867	4.64
300.243	4.85
300.619	4.39
300.995	5.07
301.371	5.5
301.746	4.85
302.122	5.51
302.498	4.78
302.874	4.84
303.249	5.34
303.625	5.19
304	6.24
304.376	5.51
304.751	5.17
305.127	5.92
305.502	5.37
305.878	5.04
306.253	5.54
306.628	6.19
307.003	5.12
307.378	6.42
307.754	5.69
308.129	5.65
308.504	5.88
308.879	5.91
309.254	6.89
309.629	6.15
310.003	5.94
310.378	6.74
310.753	6.6
311.128	5.94
311.502	6.29
311.877	6.6
312.252	5.94
312.626	6.4
313.001	6.18
313.375	6.81
313.75	6.31
314.124	6.7
314.498	7.04
314.873	6.66
315.247	6.36
315.621	6.88
315.995	6.67
316.369	7.32
316.743	7.35
317.117	7.09
317.491	6.89
317.865	7.15
318.239	7.18
318.613	7.47
318.987	7.59
319.361	7.31
319.734	8.73
320.108	7.57
320.482	7.75
320.855	8.11
321.229	7.93
321.602	8.21
321.976	8.38
322.349	8.19
322.723	7.09
323.096	8.4
323.469	7.85
323.843	7.92
324.216	8.36
324.589	8.36
324.962	8.35
325.335	8.05
325.708	8.35
326.081	8.3
326.454	8.53
326.827	8.78
327.2	8.78
327.573	8.49
327.945	8.15
328.318	8.4
328.691	8.67
329.063	8.91
329.436	8.25
329.809	9.19
330.181	8.7
330.553	9.36
330.926	9.69
331.298	8.8
331.671	9.38
332.043	9.78
332.415	9.65
332.787	9.99
333.159	9.98
333.532	9.43
333.904	9.29
334.276	9.53
334.648	9.73
335.02	9.5
335.391	9.67
335.763	9.62
336.135	10.24
336.507	10.58
336.879	9.92
337.25	9.54
337.622	9.74
337.993	10.17
338.365	10.25
338.736	10.53
339.108	10.77
339.479	9.9
339.851	10.07
340.222	10.13
340.593	10.5
340.964	10.2
341.336	10.98
341.707	10.26
342.078	11.28
342.449	11.12
342.82	11.03
343.191	10.84
343.562	10.94
343.933	11.24
344.303	11.16
344.674	11.01
345.045	10.86
345.416	11.8
345.786	10.87
346.157	11.32
346.527	10.66
346.898	10.86
347.268	11.7
347.639	11.27
348.009	11.27
348.38	11.14
348.75	11.5
349.12	11.65
349.49	11.86
349.861	11.14
350.231	11.2
350.601	11.85
350.971	12.14
351.341	11.76
351.711	11.53
352.081	12.31
352.45	12.24
352.82	12.45
353.19	12.64
353.56	11.85
353.929	12.47
354.299	12.72
354.669	11.84
355.038	12.5
355.408	12.43
355.777	12.75
356.147	12.17
356.516	12.72
356.885	12.35
357.254	12.58
357.624	12.7
357.993	12.51
358.362	12.7
358.731	12.45
359.1	13.06
359.469	12.76
359.838	13.12
360.207	12.72
360.576	12.94
360.945	13.23
361.314	13.85
361.682	13.25
362.051	12.99
362.42	13.56
362.788	13.14
363.157	13.48
363.525	13.66
363.894	13.69
364.262	13.45
364.631	13.56
364.999	13.6
365.367	13.25
365.735	13.94
366.104	13.97
366.472	13.91
366.84	13.77
367.208	13.75
367.576	14.34
367.944	14.05
368.312	14.07
368.68	13.7
369.048	14.25
369.416	14.6
369.783	14.39
370.151	14.29
370.519	14.95
370.886	14.6
371.254	14.32
371.621	14.93
371.989	14.8
372.356	14.38
372.724	14.86
373.091	14.37
373.458	14.9
373.826	14.83
374.193	14.63
374.56	15.04
374.927	15.41
375.294	15.08
375.661	14.94
376.028	15.02
376.395	15.05
376.762	15.49
377.129	15.26
377.496	15.44
377.863	15.55
378.229	15.41
378.596	15.73
378.963	15.61
379.329	15.65
379.696	16.14
380.062	16.02
380.429	15.76
380.795	15.89
381.161	16.11
381.528	16.32
381.894	16.37
382.26	16.15
382.626	16.11
382.993	16.28
383.359	16.69
383.725	16.51
384.091	16.64
384.457	16.69
384.823	16.55
385.188	16.75
385.554	16.72
385.92	16.69
386.286	16.95
386.651	17.11
387.017	17.01
387.383	17.09
387.748	16.67
388.114	17.22
388.479	17.16
388.845	17.38
389.21	17.55
389.575	17.36
389.94	17.71
390.306	17.37
390.671	17.51
391.036	17.26
391.401	17.64
391.766	17.39
392.131	17.89
392.496	17.74
392.861	17.98
393.226	18.01
393.591	17.76
393.956	17.84
394.32	17.93
394.685	17.79
395.05	18.03
395.414	18.29
395.779	18.04
396.143	18.3
396.508	18.55
396.872	18.36
397.236	18.55
397.601	18.51
397.965	18.59
398.329	19.12
398.694	18.96
399.058	18.88
399.422	18.5
399.786	18.71
400.15	19.06
400.514	19.04
400.878	18.91
401.242	19.39
401.605	19.18
401.969	19.13
402.333	19.27
402.697	19.44
403.06	19.54
403.424	19.17
403.787	19.42
404.151	19.56
404.514	19.79
404.878	19.53
405.241	19.87
405.604	19.66
405.968	19.83
406.331	19.58
406.694	20
407.057	20.04
407.42	19.99
407.783	19.96
408.146	20.1
408.509	20.01
408.872	20.26
409.235	20.43
409.598	20.62
409.961	20.64
410.323	20.49
410.686	20.49
411.049	20.49
411.411	20.43
411.774	20.68
412.136	20.5
412.499	20.82
412.861	20.76
413.223	20.91
413.586	21.01
413.948	21.05
414.31	21.29
414.672	21.05
415.035	21.09
415.397	21.47
415.759	20.84
416.121	21.44
416.483	21.13
416.845	21.35
417.206	21.55
417.568	21.62
417.93	21.31
418.292	21.61
418.653	21.5
419.015	21.74
419.377	21.77
419.738	21.52
420.1	21.48
420.461	21.73
420.822	21.87
421.184	21.53
421.545	21.92
421.906	21.67
422.267	21.64
422.629	21.7
422.99	21.8
423.351	21.88
423.712	21.96
424.073	21.96
424.434	22.16
424.795	22.11
425.155	22.11
425.516	22.26
425.877	22.12
426.238	22.12
426.598	22.23
426.959	22.25
427.32	22.3
427.68	22.56
428.041	22.7
428.401	22.73
428.761	22.93
429.122	23.27
429.482	23.12
429.842	23.36
430.202	23.23
430.563	23.45
430.923	23.5
431.283	23.62
431.643	23.29
432.003	23.5
432.363	23.48
432.722	23.7
433.082	23.66
433.442	23.58
433.802	23.56
434.161	23.79
434.521	24.03
434.881	23.82
435.24	23.57
435.6	23.77
435.959	23.87
436.319	23.94
436.678	23.91
437.037	24
437.396	24.34
437.756	24.36
438.115	24.35
438.474	24.48
438.833	24.42
439.192	24.45
439.551	24.56
439.91	24.56
440.269	24.68
440.628	24.59
440.987	24.77
441.345	24.55
441.704	24.62
442.063	24.49
442.421	24.78
442.78	24.95
443.138	24.88
443.497	24.91
443.855	25.11
444.214	25.18
444.572	25.51
444.93	25.45
445.288	25.43
445.647	25.35
446.005	25.47
446.363	25.47
446.721	25.52
447.079	25.34
447.437	25.35
447.795	25.52
448.153	25.22
448.51	25.36
448.868	25.44
449.226	25.53
449.584	25.69
449.941	25.87
450.299	25.88
450.656	26.15
451.014	26.19
451.371	26.11
451.729	26.31
452.086	26.59
452.443	26.63
452.801	26.53
453.158	26.89
453.515	26.74
453.872	26.71
454.229	26.68
454.586	26.65
454.943	26.91
455.3	26.91
455.657	26.95
456.014	27.02
456.371	26.98
456.727	27.2
457.084	27.3
457.441	26.96
457.797	27.36
458.154	27.44
458.51	27.39
458.867	27.54
459.223	27.7
459.58	27.44
459.936	27.69
460.292	27.71
460.648	27.56
461.005	27.29
461.361	27.4
461.717	27.25
462.073	27.32
462.429	27.5
462.785	27.67
463.141	27.88
463.496	27.72
463.852	28.02
464.208	28.22
464.564	28.35
464.919	28.51
465.275	28.42
465.631	28.48
465.986	28.42
466.342	28.53
466.697	28.29
467.052	28.61
467.408	28.96
467.763	28.58
468.118	28.75
468.473	28.83
468.829	28.82
469.184	28.89
469.539	29.02
469.894	28.71
470.249	29.1
470.603	28.98
470.958	29.41
471.313	29.35
471.668	29.37
472.023	29.48
472.377	29.38
472.732	29.53
473.086	29.32
473.441	29.46
473.795	29.41
474.15	29.61
474.504	29.63
474.859	29.62
475.213	29.9
475.567	29.82
475.921	29.93
476.275	30.16
476.63	30.06
476.984	30.12
477.338	29.97
477.692	30.13
478.045	29.96
478.399	30.25
478.753	30.22
479.107	30.33
479.461	30.23
479.814	30.43
480.168	30.45
480.521	30.37
480.875	30.49
481.228	30.57
481.582	30.77
481.935	30.7
482.289	30.57
482.642	30.74
482.995	30.45
483.348	30.54
483.701	30.63
484.055	30.69
484.408	30.6
484.761	30.41
485.114	30.18
485.466	29.66
485.819	29.64
486.172	29.78
486.525	30.03
486.878	30.23
487.23	30.47
487.583	30.56
487.936	30.82
488.288	30.82
488.641	30.72
488.993	30.34
489.345	30.43
489.698	30.5
490.05	30.48
490.402	30.76
490.754	31.01
491.107	31.11
491.459	31.5
491.811	31.61
492.163	31.66
492.515	31.7
492.866	31.48
493.218	31.24
493.57	31.1
493.922	31.18
494.274	31.5
494.625	31.68
494.977	31.93
495.328	32.2
495.68	32.63
496.031	32.66
496.383	32.57
496.734	32.79
497.086	33.04
497.437	32.91
497.788	32.98
498.139	32.81
498.49	32.89
498.842	32.58
499.193	32.97
499.544	32.82
499.894	32.98
500.245	33.11
500.596	33.25
500.947	33.37
501.298	33.22
501.648	33.54
501.999	33.53
502.35	33.69
502.7	33.7
503.051	33.61
503.401	33.72
503.752	33.83
504.102	33.73
504.452	34
504.803	33.94
505.153	33.83
505.503	33.94
505.853	33.94
506.203	34.12
506.553	34.04
506.903	34.27
507.253	34.22
507.603	34.37
507.953	34.34
508.303	34.54
508.652	34.53
509.002	34.66
509.352	34.63
509.701	34.51
510.051	34.51
510.4	34.59
510.75	34.32
511.099	34.56
511.449	34.56
511.798	34.74
512.147	34.93
512.496	34.93
512.846	35.1
513.195	35.14
513.544	35.07
513.893	35.04
514.242	35.16
514.591	35.38
514.939	35.37
515.288	35.21
515.637	35.39
515.986	35.42
516.334	35.56
516.683	35.73
517.032	35.76
517.38	35.93
517.729	35.97
518.077	35.77
518.426	35.9
518.774	35.95
519.122	35.89
519.47	35.99
519.819	35.81
520.167	35.67
520.515	35.63
520.863	35.77
521.211	35.72
521.559	35.8
521.907	36.11
522.255	36.09
522.602	36.4
522.95	36.41
523.298	36.39
523.645	36.65
523.993	36.62
524.341	36.84
524.688	36.82
525.036	36.83
525.383	36.86
525.73	36.97
526.078	37.04
526.425	36.93
526.772	37.04
527.119	36.93
527.466	36.49
527.814	36.57
528.161	36.69
528.508	36.82
528.854	36.86
529.201	36.62
529.548	36.89
529.895	36.65
530.242	36.23
530.588	36.18
530.935	36.3
531.282	36.59
531.628	36.82
531.975	37
532.321	37.18
532.667	37.22
533.014	37.48
533.36	37.6
533.706	37.77
534.052	37.57
534.399	37.45
534.745	37.49
535.091	37.23
535.437	37.24
535.783	37.36
536.129	37.62
536.474	37.94
536.82	38.09
537.166	38.13
537.512	38.44
537.857	38.43
538.203	38.23
538.549	38.02
538.894	38.07
539.239	38.56
539.585	38.48
539.93	38.67
540.276	38.76
540.621	38.75
540.966	39.03
541.311	39
541.656	39.12
542.001	39.32
542.346	38.92
542.691	38.59
543.036	38.37
543.381	38.23
543.726	38.41
544.071	38.64
544.415	38.79
544.76	38.93
545.105	38.88
545.449	39.08
545.794	39.3
546.138	39.56
546.483	39.77
546.827	39.85
547.171	39.86
547.516	39.87
547.86	39.84
548.204	40.14
548.548	39.96
548.892	40.11
549.236	40
549.58	40.05
549.924	40.43
550.268	40.36
550.612	40.43
550.956	40.68
551.3	40.53
551.643	40.85
551.987	40.89
552.33	41.02
552.674	41.19
553.017	41.11
553.361	41.09
553.704	41.12
554.048	40.98
554.391	40.98
554.734	41.11
555.077	41.22
555.42	41.04
555.764	41.5
556.107	41.4
556.45	41.57
556.793	41.68
557.135	41.54
557.478	42.04
557.821	41.85
558.164	41.73
558.507	41.86
558.849	41.75
559.192	42
559.534	42.1
559.877	42.08
560.219	42.16
560.562	42.14
560.904	42.31
561.246	42.46
561.589	42.57
561.931	42.28
562.273	42.58
562.615	42.5
562.957	42.56
563.299	42.34
563.641	42.32
563.983	42.77
564.325	42.76
564.667	42.94
565.008	42.83
565.35	42.71
565.692	42.91
566.033	42.86
566.375	43.25
566.716	43.4
567.058	42.97
567.399	43.19
567.741	42.95
568.082	43.11
568.423	43.36
568.764	43
569.105	43.3
569.447	43.41
569.788	43.46
570.129	43.32
570.47	43.38
570.811	43.83
571.151	43.43
571.492	43.89
571.833	43.85
572.174	43.83
572.514	43.93
572.855	43.92
573.195	43.84
573.536	44.01
573.876	43.68
574.217	43.92
574.557	43.82
574.898	44.15
575.238	44.03
575.578	44.18
575.918	44.46
576.258	44.44
576.598	44.4
576.938	44.48
577.278	44.33
577.618	44.21
577.958	44.37
578.298	44.56
578.638	44.49
578.977	44.65
579.317	44.76
579.657	44.81
579.996	44.83
580.336	44.88
580.675	44.99
581.014	45.09
581.354	45
581.693	45.42
582.032	45.31
582.372	45.5
582.711	45.33
583.05	45.4
583.389	45.74
583.728	45.47
584.067	45.58
584.406	45.68
584.745	45.95
585.083	45.68
585.422	45.73
585.761	45.59
586.1	46.14
586.438	45.87
586.777	46.16
587.115	45.56
587.454	46.08
587.792	45.93
588.13	46.51
588.469	46.01
588.807	46.6
589.145	46.15
589.483	46.45
589.821	46.24
590.159	46.45
590.497	46.73
590.835	46.74
591.173	46.62
591.511	46.49
591.849	46.48
592.187	46.6
592.524	46.74
592.862	46.54
593.2	46.71
593.537	46.73
593.875	46.91
594.212	46.68
594.55	47.17
594.887	47.2
595.224	47
595.561	47.09
595.899	47.27
596.236	47.33
596.573	47.24
596.91	47.33
597.247	47.16
597.584	47.41
597.921	47.65
598.258	47.46
598.594	47.28
598.931	47.06
599.268	47.49
599.604	47.06
599.941	47.6
600.277	47.55
600.614	47.62
600.95	47.42
601.287	47.87
601.623	47.48
601.959	47.73
602.296	47.91
602.632	47.93
602.968	48.26
603.304	48.05
603.64	48.01
603.976	48.41
604.312	48.38
604.648	48.04
604.984	48.64
605.319	48.32
605.655	48.33
605.991	47.99
606.326	48.29
606.662	48.23
606.998	48.37
607.333	48.33
607.668	48.18
608.004	48.54
608.339	49.11
608.674	48.72
609.01	49.08
609.345	48.82
609.68	48.74
610.015	48.67
610.35	49.02
610.685	48.8
611.02	49.33
611.355	49
611.689	49.19
612.024	48.95
612.359	48.97
612.694	48.96
613.028	49.13
613.363	49.31
613.697	49.22
614.032	49.58
614.366	49.63
614.7	50.14
615.035	49.89
615.369	49.61
615.703	49.88
616.037	50
616.371	49.52
616.705	49.91
617.039	50.17
617.373	50.16
617.707	49.94
618.041	50.24
618.375	50.29
618.709	50.26
619.042	49.63
619.376	49.98
619.71	50.28
620.043	50.45
620.377	50.74
620.71	50.04
621.043	49.94
621.377	50.8
621.71	50.38
622.043	50.31
622.376	50.3
622.709	50.63
623.043	50.94
623.376	50.81
623.709	50.54
624.041	51.03
624.374	50.93
624.707	50.7
625.04	50.9
625.373	51.3
625.705	51.12
626.038	51.1
626.37	51.17
626.703	50.88
627.035	51.31
627.368	51.75
627.7	51.06
628.032	51.49
628.365	51.53
628.697	51.63
629.029	51.42
629.361	51.32
629.693	51.6
630.025	51.59
630.357	51.61
630.689	51.35
631.021	51.56
631.353	51.85
631.684	51.64
632.016	51.8
632.348	51.74
632.679	51.97
633.011	51.83
633.342	52.14
633.674	51.72
634.005	52.61
634.336	51.96
634.668	51.93
634.999	52.2
635.33	52.54
635.661	52.8
635.992	51.95
636.323	52.05
636.654	52.82
636.985	52.24
637.316	52.48
637.647	52.24
637.977	52.52
638.308	52.13
638.639	52.93
638.969	52.77
639.3	52.94
639.63	52.32
639.961	52.83
640.291	52.83
640.622	53.2
640.952	53.11
641.282	53.25
641.612	52.98
641.943	52.83
642.273	53.01
642.603	53.04
642.933	52.48
643.263	53.11
643.592	53.92
643.922	52.92
644.252	53.28
644.582	53.48
644.911	53.16
645.241	53.29
645.571	53.49
645.9	53.71
646.23	53.73
646.559	54.02
646.888	53.44
647.218	53.16
647.547	53.79
647.876	53.36
648.205	54.28
648.534	52.79
648.863	53.88
649.192	53.83
649.521	53.84
649.85	53.96
650.179	53.97
650.508	53.55
650.837	54.48
651.165	53.66
651.494	53.77
651.822	53.59
652.151	54.52
652.479	54.06
652.808	53.91
653.136	54.28
653.465	54.36
653.793	54.35
654.121	54.45
654.449	54.43
654.777	54.25
655.105	54.93
655.433	54.16
655.761	54.69
656.089	55.31
656.417	54.77
656.745	54.55
657.073	54.54
657.4	54.58
657.728	55.56
658.056	54.32
658.383	54.61
658.711	55.07
659.038	54.97
659.365	55.66
659.693	55.3
660.02	55.1
660.347	55.56
660.674	55.33
661.001	54.99
661.329	55.24
661.656	55.15
661.982	55.16
662.309	55.14
662.636	55.64
662.963	55.62
663.29	55.32
663.616	55.36
663.943	55.27
664.27	56.01
664.596	56.24
664.923	55.37
665.249	55.54
665.576	56.13
665.902	56.45
666.228	56.11
666.554	55.64
666.881	56.01
667.207	55.94
667.533	56.26
667.859	56.28
668.185	56.37
668.511	56.41
668.837	55.86
669.162	55.78
669.488	56.03
669.814	56.18
670.139	56.56
670.465	55.6
670.791	56.51
671.116	56.9
671.442	56.37
671.767	56.84
672.092	56.94
672.418	55.46
672.743	56.02
673.068	56.82
673.393	56.21
673.718	56.64
674.043	56.58
674.368	57.19
674.693	56.7
675.018	57.86
675.343	56.15
675.667	56.55
675.992	56.85
676.317	57.3
676.641	56.55
676.966	57.18
677.29	57.12
677.615	57
677.939	57.27
678.264	57.3
678.588	57.56
678.912	57.77
679.236	57.34
679.56	57.5
679.885	57.54
680.209	57.27
680.532	57.4
680.856	57.5
681.18	57.2
681.504	58.3
681.828	57.1
682.152	57.93
682.475	58.25
682.799	57.86
683.122	58.24
683.446	57.27
683.769	58.05
684.093	57.25
684.416	58.31
684.739	59.1
685.062	57.34
685.386	58.67
685.709	58.02
686.032	58.31
686.355	57.7
686.678	57.4
687.001	58
687.324	58.28
687.646	58.61
687.969	57.95
688.292	57.8
688.614	57.54
688.937	59.21
689.26	57.79
689.582	58.15
689.904	58.04
690.227	58.35
690.549	58.78
690.871	58.97
691.194	57.55
691.516	59.21
691.838	58.82
692.16	57.81
692.482	58.94
692.804	59.09
693.126	59.59
693.448	58.17
693.769	58.78
694.091	58.53
694.413	59.05
694.735	58.95
695.056	58.61
695.378	58.22
695.699	58.7
696.021	58.82
696.342	58.15
696.663	59.02
696.984	58.64
697.306	58.85
697.627	59.3
697.948	60.48
698.269	59.28
698.59	58.58
698.911	60.18
699.232	59.54
699.553	59.22
699.873	59.58
700.194	59.96
700.515	59.56
700.835	59.16
701.156	59.29
701.477	59.86
701.797	59.5
702.117	60.15
702.438	60.14
702.758	59.66
703.078	59.79
703.398	59.87
703.719	58.84
704.039	60.39
704.359	60.86
704.679	60.03
704.999	59.8
705.319	60.38
705.638	60.47
705.958	60.6
706.278	59.04
706.597	58.61
706.917	60.55
707.237	60.46
707.556	60.23
707.876	61.56
708.195	61.03
708.514	60.55
708.834	60.53
709.153	61.9
709.472	60.6
709.791	61.52
710.11	61.09
710.429	61.22
710.748	62.1
711.067	59.94
711.386	61.54
711.705	60.95
712.023	60.23
712.342	61.3
712.661	61.09
712.979	61.56
713.298	60.42
713.616	61.68
713.935	62.13
714.253	60.54
714.572	62.27
714.89	61.08
715.208	60.56
715.526	60.81
715.844	62.32
716.162	60.77
716.48	61.21
716.798	60.96
717.116	60.44
717.434	62.18
717.752	60.46
718.069	61.39
718.387	61.71
718.705	61.5
719.022	60.66
719.34	61.07
719.657	62.48
719.975	60.68
720.292	60.43
720.609	59.97
720.927	62.6
721.244	62.24
721.561	62.9
721.878	63.07
722.195	61.02
722.512	62.2
722.829	62.19
723.146	63.71
723.463	61.54
723.779	61.3
724.096	61.86
724.413	61.42
724.729	62.56
725.046	62.41
725.362	63.11
725.679	61.64
725.995	60.94
726.311	61.29
726.628	61.87
726.944	62.9
727.26	61.75
727.576	62.44
727.892	62.18
728.208	61.8
728.524	61.41
728.84	61.63
729.156	61.23
729.472	61.11
729.787	62.31
730.103	62.83
730.419	62.17
730.734	62
731.05	62.62
731.365	62.18
731.681	62.71
731.996	63.58
732.311	63.47
732.626	62.93
732.942	62.85
733.257	62.91
733.572	63.5
733.887	62.41
734.202	62.06
734.517	62.5
734.832	63.13
735.146	62.35
735.461	62.16
735.776	62.39
736.091	61.84
736.405	62.71
736.72	62.39
737.034	63.58
737.349	63.5
737.663	62.46
737.977	61.49
738.292	61.76
738.606	63.99
738.92	62.77
739.234	61.96
739.548	63.96
739.862	62.21
740.176	63.24
740.49	60.41
740.804	64.14
741.117	63.79
741.431	64.08
741.745	63.3
742.058	62.43
742.372	63.96
742.685	62.7
742.999	62.04
743.312	62.34
743.626	63.1
743.939	63.67
744.252	63.96
744.565	61.36
744.878	65.72
745.191	63.85
745.505	62.88
745.817	62.99
746.13	63.31
746.443	63.75
746.756	63.88
747.069	62.38
747.381	61.98
747.694	63.37
748.007	63.65
748.319	62.84
748.632	65.47
748.944	65.61
749.256	63.65
749.569	62.75
749.881	65.05
750.193	60.78
750.505	62.43
750.817	62.6
751.129	64.77
751.441	62.53
751.753	64.05
752.065	66.87
752.377	63.62
752.689	63.64
753	63.65
753.312	64.81
753.624	65.87
753.935	64.31
754.247	64.65
754.558	64.39
754.869	63.76
755.181	63.37
755.492	65.57
755.803	63.27
756.114	64.52
756.425	62.71
756.736	65.43
757.047	65.43
757.358	64.9
757.669	65.75
757.98	66.98
758.291	64.88
758.601	64.87
758.912	65.45
759.223	65.02
759.533	63.01
759.844	62.65
760.154	64.62
760.464	65.04
760.775	64.4
761.085	65.7
761.395	64.56
761.705	67.32
762.016	63.82
762.326	64.62
762.636	64.65
762.945	63.99
763.255	68.83
763.565	66.13
763.875	67.2
764.185	64.63
764.494	66.43
764.804	66.58
765.113	64.34
765.423	64.67
765.732	64.98
766.042	65.63
766.351	65.41
766.66	66.32
766.97	65.02
767.279	64.39
767.588	65.58
767.897	67.01
768.206	65.13
768.515	65.47
768.824	64.21
769.133	64.85
769.441	67.29
769.75	63.63
770.059	67.25
770.367	68.18
770.676	66.54
770.984	63.61
771.293	64.85
771.601	67.21
771.91	63.88
772.218	65.62
772.526	66.67
772.834	67.34
773.142	65.36
773.45	67.18
773.758	65.86
774.066	63.59
774.374	64.65
774.682	64.33
774.99	63.72
775.298	63.37
775.605	66.61
775.913	64.39
776.22	66.35
776.528	63.47
776.835	64.3
777.143	63.61
777.45	66.7
777.757	72.14
778.065	71.05
778.372	64.85
778.679	65.96
778.986	66.66
779.293	66.88
779.6	69.77
779.907	69.37
780.214	68.14
780.52	65.7
780.827	67.86
781.134	65.16
781.44	65.02
781.747	67.03
782.053	64.57
782.36	67.03
782.666	68.32
782.973	63.95
783.279	64.15
783.585	66.48
783.891	68.06
784.197	70.34
784.503	67.4
784.809	64.6
785.115	66.03
785.421	67.53
785.727	69.21
786.033	69.46
786.339	69.41
786.644	67.7
786.95	67.81
787.255	62.36
787.561	71.05
787.866	66.21
788.172	69.89
788.477	70.5
788.782	68.55
789.088	64.98
789.393	61.42
789.698	65.31
790.003	65.84
790.308	65.62
790.613	65.53
790.918	62.84
791.223	68.08
791.527	63.97
791.832	70.18
792.137	63.91
792.441	69.38
792.746	67.87
793.05	62.76
793.355	65.06
793.659	71.19
793.963	74.77
794.268	68.65
794.572	67.74
794.876	69.92
795.18	67.17
795.484	67.49
795.788	65.76
796.092	69.18
796.396	64.88
796.7	69.1
797.004	68.19
797.307	65.03
797.611	65.9
797.915	67.02
798.218	67.35
798.522	67.14
798.825	66.29
799.128	70.21
799.432	72.34
799.735	65.89
800.038	67.63
800.341	61.11
800.644	71.48
800.947	68.79
801.25	73.35
801.553	67.19
801.856	65.45
802.159	67.58
802.462	64.6
802.764	62.44
803.067	68.12
803.37	70.43
803.672	61.67
803.975	64.17
804.277	63.99
804.579	66.63
804.882	68.77
805.184	66.22
805.486	68.28
805.788	71.03
806.09	63.87
806.392	70.37
806.694	69.91
806.996	71.32
807.298	67.13
807.6	69.27
807.902	69.88
808.203	67.51
808.505	72.49
808.807	72.29
809.108	68.79
809.409	68.23
809.711	67.09
810.012	70.41
810.313	69.26
810.615	70.33
810.916	74.74
811.217	70.62
811.518	68.52
811.819	67.75
812.12	65.73
812.421	61.09
812.722	74.3
813.023	70.59
813.323	72.38
813.624	63.97
813.925	69.37
814.225	69.56
814.526	66.63
814.826	74.64
815.126	67.25
815.427	63.68
815.727	74.22
816.027	63.06
816.327	63.94
816.627	66.57
816.927	61
817.227	75.12
817.527	66.92
817.827	71.38
818.127	71.2
818.427	67
818.727	71.82
819.026	63.45
819.326	70.5
819.625	65.46
819.925	62.26
820.224	67.43
820.524	65.45
820.823	73.06
821.122	67.35
821.421	62.5
821.72	63.75
822.019	68.83
822.318	64.5
822.617	67.66
822.916	67.94
823.215	69.27
823.514	72.84
823.813	68.03
824.111	71.83
824.41	70.6
824.709	69.19
825.007	69.12
825.306	67.75
825.604	67.62
825.902	69.43
826.201	69.12
826.499	67.64
826.797	68.72
827.095	69.13
827.393	69.46
827.691	70.2
827.989	70.17
828.287	68.96
828.585	67.29
828.882	69.93
829.18	71.09
829.478	71.29
829.775	68.94
830.073	70.03
830.37	68.8
830.668	68.87
830.965	70.04
831.263	70.24
831.56	70.09
831.857	67.32
832.154	70.52
832.451	69.59
832.748	69.27
833.045	72.54
833.342	70.91
833.639	69.67
833.936	69.94
834.232	70.05
834.529	71.41
834.826	70.24
835.122	65.64
835.419	64.11
835.715	61.86
836.012	72.22
836.308	67.9
836.604	67.23
836.901	67.59
837.197	66.39
837.493	72.38
837.789	70.61
838.085	71.93
838.381	76.03
838.677	72.67
838.972	70.68
839.268	66.94
839.564	67.67
839.86	70.45
840.155	65.33
840.451	62.62
840.746	74.07
841.042	73.3
841.337	77.33
841.632	72.08
841.928	73.83
842.223	69.73
842.518	66.41
842.813	71.01
843.108	75.44
843.403	75.84
843.698	72.97
843.993	70.18
844.287	62.73
844.582	72.44
844.877	72.62
845.171	74.02
845.466	55.35
845.761	76.59
846.055	71.65
846.349	72.7
846.644	55.06
846.938	78.01
847.232	76.72
847.526	82.88
847.82	68.72
848.114	70.87
848.408	74.35
848.702	79.05
848.996	97.82
849.29	78.12
849.584	63.39
849.877	74.15
850.171	82.95
850.465	71.34
850.758	90.11
851.052	73.85
851.345	72.1
851.638	56.95
851.932	60.99
852.225	63.16
852.518	70.29
852.811	80.43
853.104	72.92
853.397	64.06
853.69	65.16
853.983	69.75
854.276	80.59
854.569	74.49
854.861	58.99
855.154	98.77
855.447	72.63
855.739	71.5
856.032	76.21
856.324	71.97
856.616	67.4
856.909	102.35
857.201	89.65
857.493	83.19
857.785	67.47
858.077	67.69
858.369	68.98
858.661	74.66
858.953	54.5
859.245	105.37
859.537	84.64
859.829	79.97
860.12	72.64
860.412	60.56
860.703	67.24
860.995	88.46
861.286	66.46
861.578	46.43
861.869	84.57
862.16	57.54
862.452	69.62
862.743	23.94
863.034	56.62
863.325	77.2
863.616	82.12
863.907	57.11
864.198	33.96
864.488	72.74
864.779	57.03
865.07	71.17
865.36	69.07
865.651	112.37
865.941	70.44
866.232	76.64
866.522	72.08
866.813	99.65
867.103	65.29
867.393	60.58
867.683	69.48
867.973	100.16
868.263	72.34
868.553	68.61
868.843	66.43
869.133	34.66
869.423	93.92
869.713	69.68
870.002	78.05
870.292	84.62
870.582	57.48
870.871	52.65
871.161	90.38
871.45	44.42
871.739	38.72
872.029	32.56
872.318	56.31
872.607	64.41
872.896	56.67
873.185	61.42
873.474	78.07
873.763	63.23
874.052	93.08
874.341	61.35
874.63	71.34
874.918	84.97
875.207	56.94
875.496	46.19
875.784	99.85
876.073	38.23
876.361	-10.9
876.649	66.54
876.938	141.52
877.226	70.39
877.514	62.01
877.802	98.99
878.09	59.02
878.378	76.05
878.666	47.96
878.954	80.37
879.242	71.37
879.53	91.74
879.817	74.89
880.105	46.09
880.392	58.89
880.68	59.85
880.967	16.91
881.255	72.76
881.542	36.3
881.83	52.88
882.117	74.46
882.404	66.6
882.691	84.32
882.978	57.94
883.265	42.01
883.552	55.04
883.839	78.33
884.126	58.6
884.413	71.56
884.699	84.63
884.986	73.22
885.273	80.06
885.559	80.06
885.846	80.06
