Data from 0192_chest_Reflection__4__375.txt Node

Date: Fri Dec 15 20:14:23 CST 2023
User: ToomeyLab
Spectrometer: FLMS14357
Trigger mode: 0
Integration Time (sec): 1.000000E-2
Scans to average: 100
Electric dark correction enabled: true
Nonlinearity correction enabled: false
Boxcar width: 0
XAxis mode: Wavelengths
Number of Pixels in Spectrum: 2048
>>>>>Begin Spectral Data<<<<<
189.047	52.64
189.435	52.64
189.823	52.64
190.211	56.32
190.599	20.06
190.987	55.1
191.375	46.2
191.763	236.53
192.151	-27.03
192.538	234.11
192.926	-69.21
193.314	84.12
193.702	-199.13
194.089	-320.71
194.477	52.52
194.864	-176.43
195.252	89.68
195.639	55.94
196.027	3.55
196.414	291.84
196.801	287.38
197.189	74
197.576	86.67
197.963	14.56
198.351	-57.41
198.738	10.74
199.125	52.15
199.512	-51.64
199.899	33.2
200.286	21.21
200.673	-22.2
201.06	5.02
201.447	-149.17
201.833	-6.2
202.22	6.05
202.607	13.85
202.994	-12.91
203.38	-38.9
203.767	26.17
204.154	19.46
204.54	12.07
204.927	-66.46
205.313	-40.48
205.699	34.29
206.086	56.6
206.472	27.54
206.858	25.91
207.245	-16.68
207.631	50.35
208.017	-19.57
208.403	9.64
208.789	49.38
209.175	4.51
209.561	-33.63
209.947	16.9
210.333	-46.38
210.719	7.47
211.105	22.96
211.491	-85.73
211.876	23.9
212.262	-1.57
212.648	4.28
213.034	-1.98
213.419	-30.38
213.805	-13.31
214.19	-53.67
214.576	46.55
214.961	-69.96
215.346	-67.93
215.732	8.06
216.117	12.62
216.502	-33.86
216.888	-9.86
217.273	36.03
217.658	-12.96
218.043	25.21
218.428	-54.23
218.813	-40.17
219.198	-74.62
219.583	16.65
219.968	3.42
220.353	-51.65
220.738	18.63
221.122	7.11
221.507	-18.35
221.892	-81.38
222.276	-23.04
222.661	10.73
223.046	13.85
223.43	15.47
223.815	8.03
224.199	-16.52
224.583	-1.21
224.968	-1.88
225.352	7.09
225.736	-1.85
226.121	-10.45
226.505	0.53
226.889	13.48
227.273	-6.37
227.657	8.83
228.041	2.64
228.425	1.09
228.809	0.84
229.193	4.54
229.577	4.7
229.961	4.64
230.344	3
230.728	4.22
231.112	4.13
231.495	4.75
231.879	4.07
232.263	4.06
232.646	5.95
233.03	3.73
233.413	3.32
233.797	3.42
234.18	5.02
234.563	2.85
234.946	1.39
235.33	3.76
235.713	5.05
236.096	3.04
236.479	4.25
236.862	2.16
237.245	3.57
237.628	3.39
238.011	4.58
238.394	5.09
238.777	2.37
239.16	2.14
239.543	2.92
239.925	4.82
240.308	2.81
240.691	4.64
241.073	4.27
241.456	4.99
241.838	4.57
242.221	3.44
242.603	4.42
242.986	4.88
243.368	4.32
243.75	4.73
244.133	4.16
244.515	4.48
244.897	4.26
245.279	4.53
245.661	3.55
246.043	2.82
246.425	2.44
246.807	4.97
247.189	4.15
247.571	4.57
247.953	3.86
248.335	3.96
248.717	4.37
249.098	3.87
249.48	4.26
249.862	4.2
250.243	3.87
250.625	3.69
251.006	3.95
251.388	3.64
251.769	3.83
252.151	4.29
252.532	4.23
252.913	3.98
253.295	2.76
253.676	4.41
254.057	4.2
254.438	3.96
254.819	3.58
255.2	2.24
255.581	3.8
255.962	3.5
256.343	4.01
256.724	3.17
257.105	3.96
257.486	1.87
257.867	4.78
258.247	3.61
258.628	3.35
259.009	3.96
259.389	3.96
259.77	4
260.15	3.93
260.531	3.51
260.911	4.01
261.292	3.99
261.672	3.98
262.052	4.04
262.432	4.55
262.813	4.4
263.193	3.73
263.573	3.81
263.953	3.25
264.333	3.92
264.713	3.69
265.093	3.87
265.473	3.71
265.853	2.7
266.233	3.98
266.612	2.31
266.992	2.49
267.372	4.38
267.752	3.81
268.131	3.55
268.511	4.36
268.89	4.01
269.27	3.65
269.649	2.75
270.029	3.57
270.408	4.53
270.787	4.52
271.167	4.07
271.546	4.16
271.925	3.35
272.304	3.79
272.683	3.99
273.062	3.37
273.441	3.53
273.82	2.89
274.199	3.95
274.578	3.27
274.957	3.53
275.336	3.92
275.715	3.24
276.093	3.71
276.472	3.1
276.851	2.86
277.229	3.19
277.608	3.18
277.986	3.39
278.365	4.25
278.743	3.15
279.122	3.08
279.5	3.97
279.878	3.89
280.257	3.45
280.635	3.42
281.013	3.86
281.391	3.38
281.769	3.67
282.147	3.98
282.525	4.78
282.903	2.92
283.281	3.98
283.659	3.58
284.037	3.69
284.415	3.91
284.792	4.24
285.17	3.29
285.548	3.44
285.925	3.85
286.303	3.83
286.68	3.61
287.058	3.79
287.435	3.57
287.813	3.62
288.19	3.71
288.567	3.73
288.945	3.63
289.322	3.58
289.699	3.55
290.076	3.72
290.453	3.51
290.83	3.66
291.207	3.23
291.584	3.73
291.961	3.87
292.338	3.6
292.715	4.26
293.092	3.71
293.469	3.84
293.845	3.66
294.222	3.51
294.599	3.76
294.975	3.24
295.352	3.97
295.728	3.83
296.105	3.36
296.481	3.94
296.858	3.57
297.234	3.68
297.61	3.84
297.986	3.36
298.363	4.11
298.739	3.8
299.115	3.3
299.491	3.43
299.867	4.15
300.243	4.05
300.619	3.64
300.995	4.12
301.371	3.93
301.746	3.68
302.122	3.83
302.498	3.65
302.874	4.07
303.249	3.83
303.625	4.1
304	4.26
304.376	4.15
304.751	3.07
305.127	4.52
305.502	3.19
305.878	3.37
306.253	3.44
306.628	4.04
307.003	4.21
307.378	3.93
307.754	3.86
308.129	2.97
308.504	3.49
308.879	3.53
309.254	4.58
309.629	3.55
310.003	3.85
310.378	4.43
310.753	3.8
311.128	4.07
311.502	4.13
311.877	4.2
312.252	3.77
312.626	4.02
313.001	3.76
313.375	4.18
313.75	3.5
314.124	3.94
314.498	3.86
314.873	3.51
315.247	3.54
315.621	3.91
315.995	3.54
316.369	3.72
316.743	3.83
317.117	4.05
317.491	3.92
317.865	3.96
318.239	3.75
318.613	4.61
318.987	3.46
319.361	3.33
319.734	3.76
320.108	4.12
320.482	3.92
320.855	3.75
321.229	3.87
321.602	3.19
321.976	4.11
322.349	4.38
322.723	3.81
323.096	4.24
323.469	3.31
323.843	3.82
324.216	4.18
324.589	4.14
324.962	3.97
325.335	3.23
325.708	3.7
326.081	3.68
326.454	3.34
326.827	4.12
327.2	3.53
327.573	4.14
327.945	3.74
328.318	3.62
328.691	4.12
329.063	3.81
329.436	3.95
329.809	4.15
330.181	3.8
330.553	3.04
330.926	4.28
331.298	3.72
331.671	2.89
332.043	4.37
332.415	4.04
332.787	4.31
333.159	4.66
333.532	4
333.904	4.16
334.276	3.43
334.648	4.38
335.02	3.7
335.391	4.4
335.763	3.54
336.135	4.02
336.507	4.06
336.879	3.7
337.25	4.1
337.622	3.68
337.993	4.24
338.365	4.02
338.736	3.95
339.108	3.72
339.479	3.51
339.851	4.41
340.222	3.63
340.593	4.05
340.964	3.8
341.336	4.77
341.707	3.34
342.078	4.18
342.449	4.2
342.82	4.36
343.191	3.86
343.562	3.78
343.933	3.9
344.303	3.96
344.674	4.16
345.045	4.35
345.416	3.91
345.786	3.4
346.157	4.06
346.527	3.54
346.898	3.81
347.268	4.35
347.639	4.19
348.009	4.22
348.38	3.34
348.75	4.11
349.12	3.7
349.49	4.25
349.861	3.93
350.231	3.6
350.601	4.11
350.971	3.94
351.341	3.98
351.711	4
352.081	4.29
352.45	4.04
352.82	4.16
353.19	4.06
353.56	3.5
353.929	4.26
354.299	3.84
354.669	3.58
355.038	4.43
355.408	3.86
355.777	3.88
356.147	3.87
356.516	3.97
356.885	4
357.254	3.95
357.624	4.16
357.993	3.87
358.362	3.58
358.731	3.82
359.1	3.78
359.469	4.38
359.838	4.34
360.207	4
360.576	3.8
360.945	3.96
361.314	4.17
361.682	3.69
362.051	3.83
362.42	4.2
362.788	3.89
363.157	4.19
363.525	4.67
363.894	4.15
364.262	4.07
364.631	4.13
364.999	4.63
365.367	4.03
365.735	4.39
366.104	4.33
366.472	4.33
366.84	4.07
367.208	4.17
367.576	4.5
367.944	4.58
368.312	4.21
368.68	4.33
369.048	4.19
369.416	4.13
369.783	3.9
370.151	4.38
370.519	4.43
370.886	4.32
371.254	3.9
371.621	4.45
371.989	4.25
372.356	3.79
372.724	3.8
373.091	4.05
373.458	4.44
373.826	4.36
374.193	4.01
374.56	4.41
374.927	4.11
375.294	4.13
375.661	4.19
376.028	4.02
376.395	3.73
376.762	4.58
377.129	4.04
377.496	4.26
377.863	4.15
378.229	3.71
378.596	4.41
378.963	3.87
379.329	4.04
379.696	4.35
380.062	4.36
380.429	4.48
380.795	3.94
381.161	3.91
381.528	4.58
381.894	4.31
382.26	4.51
382.626	4.3
382.993	3.85
383.359	4.28
383.725	4.24
384.091	4.33
384.457	4.51
384.823	4.02
385.188	4.38
385.554	4.04
385.92	4.62
386.286	4.5
386.651	4.49
387.017	4.71
387.383	4.08
387.748	3.96
388.114	4.28
388.479	3.98
388.845	4.65
389.21	4.28
389.575	4.16
389.94	4.39
390.306	4.18
390.671	4.53
391.036	4.1
391.401	3.83
391.766	4.46
392.131	3.96
392.496	4.29
392.861	4.07
393.226	4.45
393.591	4.3
393.956	4.07
394.32	4.34
394.685	4.14
395.05	4.3
395.414	4.47
395.779	4.09
396.143	4.55
396.508	4.37
396.872	4.14
397.236	4.35
397.601	4.07
397.965	4.18
398.329	4.23
398.694	4.18
399.058	4.25
399.422	4.09
399.786	4.35
400.15	4.28
400.514	4.28
400.878	4.55
401.242	4.3
401.605	4.31
401.969	4.51
402.333	4.35
402.697	4.21
403.06	4.46
403.424	4.34
403.787	4.3
404.151	4.6
404.514	4.31
404.878	4.35
405.241	4.19
405.604	4.28
405.968	4.67
406.331	4.52
406.694	4.57
407.057	4.3
407.42	4.48
407.783	4.19
408.146	4.3
408.509	4.44
408.872	4.26
409.235	4.27
409.598	4.54
409.961	4.64
410.323	4.4
410.686	4.49
411.049	4.2
411.411	4.52
411.774	4.32
412.136	4.39
412.499	4.53
412.861	4.13
413.223	4.26
413.586	4.52
413.948	4.43
414.31	4.53
414.672	4.27
415.035	4.43
415.397	4.67
415.759	4.25
416.121	4.78
416.483	4.47
416.845	4.55
417.206	4.37
417.568	4.6
417.93	4.26
418.292	4.45
418.653	4.48
419.015	4.64
419.377	4.39
419.738	4.5
420.1	4.42
420.461	4.47
420.822	4.42
421.184	4.35
421.545	4.52
421.906	4.38
422.267	4.43
422.629	4.4
422.99	4.48
423.351	4.35
423.712	4.37
424.073	4.43
424.434	4.43
424.795	4.42
425.155	4.48
425.516	4.24
425.877	4.45
426.238	4.34
426.598	4.44
426.959	4.41
427.32	4.36
427.68	4.39
428.041	4.46
428.401	4.53
428.761	4.43
429.122	4.54
429.482	4.49
429.842	4.7
430.202	4.53
430.563	4.58
430.923	4.57
431.283	4.53
431.643	4.37
432.003	4.64
432.363	4.6
432.722	4.56
433.082	4.49
433.442	4.49
433.802	4.14
434.161	4.58
434.521	4.77
434.881	4.62
435.24	4.51
435.6	4.43
435.959	4.48
436.319	4.45
436.678	4.55
437.037	4.4
437.396	4.72
437.756	4.6
438.115	4.51
438.474	4.72
438.833	4.41
439.192	4.52
439.551	4.64
439.91	4.42
440.269	4.54
440.628	4.47
440.987	4.6
441.345	4.44
441.704	4.59
442.063	4.53
442.421	4.55
442.78	4.54
443.138	4.48
443.497	4.63
443.855	4.5
444.214	4.47
444.572	4.7
444.93	4.48
445.288	4.53
445.647	4.65
446.005	4.63
446.363	4.69
446.721	4.64
447.079	4.35
447.437	4.54
447.795	4.57
448.153	4.4
448.51	4.36
448.868	4.49
449.226	4.62
449.584	4.57
449.941	4.7
450.299	4.59
450.656	4.55
451.014	4.65
451.371	4.58
451.729	4.54
452.086	4.67
452.443	4.77
452.801	4.62
453.158	4.47
453.515	4.44
453.872	4.79
454.229	4.53
454.586	4.55
454.943	4.68
455.3	4.74
455.657	4.72
456.014	4.57
456.371	4.73
456.727	4.63
457.084	4.78
457.441	4.66
457.797	4.68
458.154	4.88
458.51	4.72
458.867	4.81
459.223	4.69
459.58	4.68
459.936	4.74
460.292	4.72
460.648	4.52
461.005	4.58
461.361	4.72
461.717	4.61
462.073	4.55
462.429	4.61
462.785	4.66
463.141	4.65
463.496	4.77
463.852	4.94
464.208	4.66
464.564	4.74
464.919	4.74
465.275	4.67
465.631	4.85
465.986	4.61
466.342	4.82
466.697	4.61
467.052	4.63
467.408	4.79
467.763	4.79
468.118	4.82
468.473	4.8
468.829	4.77
469.184	4.66
469.539	4.92
469.894	4.61
470.249	4.96
470.603	4.78
470.958	5
471.313	4.98
471.668	4.88
472.023	4.9
472.377	4.95
472.732	4.81
473.086	4.65
473.441	4.69
473.795	5.03
474.15	4.77
474.504	4.86
474.859	4.92
475.213	4.78
475.567	4.67
475.921	4.84
476.275	4.83
476.63	4.96
476.984	4.95
477.338	4.91
477.692	4.57
478.045	4.79
478.399	4.81
478.753	5
479.107	4.74
479.461	4.82
479.814	4.84
480.168	4.72
480.521	4.79
480.875	4.93
481.228	4.76
481.582	4.85
481.935	4.86
482.289	4.7
482.642	4.87
482.995	4.81
483.348	4.78
483.701	4.82
484.055	4.78
484.408	4.9
484.761	4.76
485.114	4.75
485.466	4.61
485.819	4.6
486.172	4.57
486.525	4.63
486.878	4.67
487.23	4.69
487.583	4.77
487.936	4.75
488.288	4.82
488.641	4.82
488.993	4.67
489.345	4.68
489.698	4.72
490.05	4.74
490.402	4.71
490.754	4.73
491.107	4.78
491.459	4.9
491.811	4.91
492.163	4.85
492.515	4.85
492.866	4.9
493.218	4.85
493.57	4.75
493.922	4.77
494.274	4.85
494.625	4.92
494.977	4.91
495.328	5.05
495.68	4.98
496.031	4.93
496.383	5.17
496.734	5.16
497.086	5.04
497.437	4.91
497.788	4.97
498.139	4.89
498.49	5.17
498.842	4.87
499.193	4.99
499.544	5.05
499.894	4.94
500.245	5.07
500.596	4.92
500.947	5.03
501.298	4.93
501.648	5.09
501.999	5.17
502.35	5.09
502.7	5.01
503.051	5.05
503.401	5.11
503.752	5.27
504.102	5.17
504.452	5.18
504.803	5.06
505.153	5.05
505.503	5.06
505.853	5.11
506.203	5.2
506.553	5.07
506.903	5.22
507.253	5.1
507.603	5.16
507.953	5.26
508.303	5.21
508.652	5.16
509.002	5.24
509.352	5.13
509.701	5.24
510.051	5.17
510.4	5.1
510.75	5.12
511.099	5.18
511.449	5.05
511.798	5.13
512.147	5.23
512.496	5.18
512.846	5.3
513.195	5.25
513.544	5.15
513.893	5.28
514.242	5.25
514.591	5.38
514.939	5.2
515.288	5.22
515.637	5.33
515.986	5.37
516.334	5.4
516.683	5.53
517.032	5.22
517.38	5.35
517.729	5.51
518.077	5.17
518.426	5.48
518.774	5.5
519.122	5.35
519.47	5.29
519.819	5.31
520.167	5.25
520.515	5.4
520.863	5.37
521.211	5.31
521.559	5.39
521.907	5.29
522.255	5.34
522.602	5.39
522.95	5.46
523.298	5.39
523.645	5.48
523.993	5.58
524.341	5.55
524.688	5.53
525.036	5.53
525.383	5.58
525.73	5.55
526.078	5.44
526.425	5.51
526.772	5.6
527.119	5.5
527.466	5.46
527.814	5.54
528.161	5.49
528.508	5.56
528.854	5.54
529.201	5.5
529.548	5.45
529.895	5.42
530.242	5.3
530.588	5.35
530.935	5.39
531.282	5.41
531.628	5.42
531.975	5.52
532.321	5.53
532.667	5.58
533.014	5.7
533.36	5.58
533.706	5.63
534.052	5.79
534.399	5.56
534.745	5.6
535.091	5.54
535.437	5.57
535.783	5.66
536.129	5.64
536.474	5.62
536.82	5.78
537.166	5.75
537.512	5.83
537.857	5.74
538.203	5.86
538.549	5.72
538.894	5.81
539.239	5.8
539.585	5.8
539.93	5.81
540.276	6.05
540.621	5.95
540.966	5.84
541.311	5.79
541.656	5.88
542.001	5.95
542.346	6.03
542.691	5.78
543.036	5.85
543.381	5.75
543.726	5.8
544.071	5.84
544.415	5.9
544.76	5.9
545.105	5.95
545.449	5.97
545.794	6.07
546.138	6.12
546.483	6.11
546.827	6.07
547.171	6.01
547.516	6.33
547.86	6.17
548.204	6.13
548.548	6.03
548.892	6.2
549.236	6.31
549.58	6.06
549.924	6.25
550.268	6.41
550.612	6.29
550.956	6.52
551.3	6.34
551.643	6.59
551.987	6.55
552.33	6.28
552.674	6.48
553.017	6.33
553.361	6.52
553.704	6.65
554.048	6.33
554.391	6.44
554.734	6.39
555.077	6.48
555.42	6.36
555.764	6.37
556.107	6.47
556.45	6.31
556.793	6.48
557.135	6.45
557.478	6.73
557.821	6.79
558.164	6.58
558.507	6.59
558.849	6.64
559.192	6.72
559.534	6.66
559.877	6.71
560.219	6.81
560.562	6.8
560.904	6.68
561.246	6.76
561.589	6.73
561.931	6.78
562.273	6.73
562.615	6.94
562.957	6.9
563.299	6.83
563.641	6.86
563.983	6.99
564.325	6.74
564.667	6.71
565.008	6.9
565.35	6.89
565.692	6.67
566.033	6.99
566.375	7.04
566.716	7.19
567.058	7.09
567.399	7.03
567.741	7.02
568.082	6.97
568.423	7.17
568.764	7.12
569.105	7.29
569.447	7.06
569.788	7.15
570.129	7.23
570.47	7.27
570.811	7.3
571.151	7.28
571.492	7.29
571.833	7.44
572.174	7.28
572.514	7.52
572.855	7.5
573.195	7.52
573.536	7.44
573.876	7.35
574.217	7.45
574.557	7.49
574.898	7.57
575.238	7.59
575.578	7.51
575.918	7.76
576.258	7.52
576.598	7.7
576.938	7.41
577.278	7.51
577.618	7.61
577.958	7.73
578.298	7.67
578.638	7.82
578.977	7.69
579.317	7.7
579.657	7.89
579.996	7.91
580.336	7.99
580.675	7.9
581.014	7.78
581.354	7.82
581.693	8.05
582.032	7.94
582.372	7.81
582.711	7.95
583.05	8
583.389	8.08
583.728	7.97
584.067	8.23
584.406	8.21
584.745	7.88
585.083	8.2
585.422	8.29
585.761	8.23
586.1	8.29
586.438	8.3
586.777	8.22
587.115	8.32
587.454	8.33
587.792	8.35
588.13	8.48
588.469	8.39
588.807	8.34
589.145	8.3
589.483	8.38
589.821	8.37
590.159	8.52
590.497	8.71
590.835	9.05
591.173	8.52
591.511	8.68
591.849	8.59
592.187	8.64
592.524	8.8
592.862	8.73
593.2	8.81
593.537	8.86
593.875	8.58
594.212	8.35
594.55	8.89
594.887	9.05
595.224	9.14
595.561	8.75
595.899	8.99
596.236	8.98
596.573	9
596.91	8.65
597.247	8.78
597.584	9.26
597.921	9.14
598.258	9.02
598.594	9.13
598.931	9.18
599.268	9.34
599.604	9.04
599.941	9.22
600.277	9.33
600.614	9.22
600.95	9.17
601.287	9.65
601.623	9.41
601.959	9.42
602.296	9.47
602.632	9.32
602.968	9.64
603.304	9.49
603.64	9.71
603.976	9.4
604.312	9.6
604.648	9.46
604.984	9.73
605.319	9.86
605.655	9.59
605.991	9.6
606.326	9.84
606.662	9.83
606.998	9.72
607.333	9.69
607.668	9.83
608.004	9.95
608.339	10.16
608.674	9.97
609.01	9.82
609.345	9.78
609.68	10.19
610.015	9.99
610.35	9.94
610.685	10.02
611.02	10.09
611.355	10.35
611.689	10.24
612.024	10.14
612.359	10.08
612.694	10.28
613.028	10.22
613.363	10.38
613.697	10.47
614.032	10.5
614.366	10.18
614.7	10.87
615.035	10.56
615.369	10.41
615.703	10.71
616.037	10.76
616.371	10.42
616.705	10.67
617.039	10.81
617.373	10.66
617.707	10.78
618.041	11.02
618.375	10.8
618.709	10.95
619.042	10.67
619.376	11.22
619.71	11.19
620.043	11.16
620.377	11.26
620.71	11.11
621.043	10.74
621.377	11.04
621.71	11.28
622.043	10.79
622.376	10.78
622.709	10.86
623.043	11.17
623.376	11.3
623.709	11.17
624.041	11.82
624.374	11.2
624.707	10.75
625.04	11.48
625.373	11.3
625.705	11.27
626.038	11.29
626.37	11.53
626.703	11.3
627.035	11.79
627.368	11.9
627.7	11.66
628.032	11.61
628.365	11.83
628.697	11.46
629.029	11.42
629.361	11.86
629.693	11.6
630.025	11.63
630.357	11.97
630.689	11.94
631.021	11.64
631.353	11.94
631.684	11.65
632.016	12
632.348	12.08
632.679	12.22
633.011	12.32
633.342	12.31
633.674	12.21
634.005	12.79
634.336	12.38
634.668	12.98
634.999	12.08
635.33	12.82
635.661	12.84
635.992	12.5
636.323	12.4
636.654	12.84
636.985	12.45
637.316	12.8
637.647	12.6
637.977	12.59
638.308	12.81
638.639	12.42
638.969	12.7
639.3	12.64
639.63	12.15
639.961	12.78
640.291	12.82
640.622	12.98
640.952	12.7
641.282	13.22
641.612	13.05
641.943	12.86
642.273	13.16
642.603	13.43
642.933	12.84
643.263	13
643.592	12.7
643.922	13.3
644.252	12.93
644.582	13.26
644.911	13.01
645.241	12.95
645.571	13.19
645.9	12.9
646.23	13.27
646.559	13.1
646.888	13.36
647.218	13.33
647.547	13.81
647.876	13.14
648.205	13.12
648.534	13.54
648.863	13.44
649.192	13.94
649.521	13.17
649.85	13.51
650.179	13.74
650.508	13.51
650.837	13.52
651.165	13.53
651.494	13.38
651.822	14.06
652.151	13.13
652.479	14.11
652.808	13.71
653.136	14.09
653.465	13.84
653.793	13.42
654.121	13.8
654.449	13.78
654.777	13.75
655.105	14.74
655.433	14.17
655.761	13.82
656.089	14.23
656.417	14.47
656.745	14.22
657.073	13.9
657.4	14.7
657.728	14.59
658.056	14.41
658.383	14.01
658.711	14.29
659.038	15.28
659.365	15.18
659.693	14.64
660.02	14.44
660.347	14.97
660.674	14.79
661.001	14.68
661.329	14.3
661.656	14.94
661.982	14.85
662.309	14.76
662.636	14.52
662.963	15.05
663.29	15.33
663.616	15.25
663.943	14.65
664.27	15.13
664.596	15.2
664.923	14.97
665.249	15.37
665.576	14.8
665.902	15.47
666.228	15.66
666.554	15.55
666.881	15.14
667.207	15.55
667.533	15.39
667.859	15.64
668.185	15.65
668.511	15
668.837	14.74
669.162	15.65
669.488	14.98
669.814	15.33
670.139	16.35
670.465	15.95
670.791	15.65
671.116	16.67
671.442	15.36
671.767	16.09
672.092	15.93
672.418	16.18
672.743	16.63
673.068	15.83
673.393	15.85
673.718	16.03
674.043	16.21
674.368	15.68
674.693	17.04
675.018	16.31
675.343	16.11
675.667	16.48
675.992	16.57
676.317	16.63
676.641	16.4
676.966	16.67
677.29	15.95
677.615	16.29
677.939	17.23
678.264	17.01
678.588	16.34
678.912	16.2
679.236	17.05
679.56	16.57
679.885	17.39
680.209	17.11
680.532	16.79
680.856	17.27
681.18	16.65
681.504	16.84
681.828	17.67
682.152	17.47
682.475	16.88
682.799	17.54
683.122	17.09
683.446	17.06
683.769	17.07
684.093	16.78
684.416	17.88
684.739	17.27
685.062	17.18
685.386	17.77
685.709	17.35
686.032	17.08
686.355	17.6
686.678	17.66
687.001	17.39
687.324	18.19
687.646	17.82
687.969	17.28
688.292	17.26
688.614	17.13
688.937	17.82
689.26	17.72
689.582	18.27
689.904	17.48
690.227	17.47
690.549	17.87
690.871	17.88
691.194	17.96
691.516	17.25
691.838	18.21
692.16	17.75
692.482	17.81
692.804	18.45
693.126	18.22
693.448	18.09
693.769	18.54
694.091	18.88
694.413	18.78
694.735	17.94
695.056	18.79
695.378	18.29
695.699	17.6
696.021	16.91
696.342	18.19
696.663	18.87
696.984	19.42
697.306	17.32
697.627	19.13
697.948	18.71
698.269	18.86
698.59	18.38
698.911	18.74
699.232	18.43
699.553	19.53
699.873	18.68
700.194	19.6
700.515	19.38
700.835	18.79
701.156	18.96
701.477	18.88
701.797	19.14
702.117	19.61
702.438	19.26
702.758	19.51
703.078	18.69
703.398	18.77
703.719	18.4
704.039	18.23
704.359	20.29
704.679	18.86
704.999	19.26
705.319	18.65
705.638	19.4
705.958	19.9
706.278	19.18
706.597	18.55
706.917	18.85
707.237	19.24
707.556	19.45
707.876	20.52
708.195	20.37
708.514	20.41
708.834	19.18
709.153	19.99
709.472	20.39
709.791	20.38
710.11	19.92
710.429	20
710.748	20.38
711.067	20
711.386	20.05
711.705	19.21
712.023	19.74
712.342	18.65
712.661	20.03
712.979	19.37
713.298	20.66
713.616	20.34
713.935	20.03
714.253	20.06
714.572	20.74
714.89	20.91
715.208	21.78
715.526	19.91
715.844	21.07
716.162	20.76
716.48	20.84
716.798	21.25
717.116	20.66
717.434	20.81
717.752	19.64
718.069	20.8
718.387	20.07
718.705	20.64
719.022	20.03
719.34	20.2
719.657	20.5
719.975	21.61
720.292	21.02
720.609	21.41
720.927	20.95
721.244	21.65
721.561	21.51
721.878	21.44
722.195	20.04
722.512	21.76
722.829	21.82
723.146	20.41
723.463	21.35
723.779	20.69
724.096	21.51
724.413	20.89
724.729	21.08
725.046	21.4
725.362	22.2
725.679	21.72
725.995	22.82
726.311	21.16
726.628	21.22
726.944	22.13
727.26	22.43
727.576	23
727.892	22.36
728.208	20.81
728.524	20.92
728.84	21.08
729.156	21.66
729.472	21.9
729.787	21.98
730.103	23.09
730.419	20.23
730.734	21.96
731.05	21.59
731.365	21.86
731.681	22.76
731.996	22.71
732.311	23.25
732.626	22.24
732.942	22.3
733.257	23.04
733.572	23.71
733.887	21.95
734.202	22.5
734.517	22.3
734.832	23.12
735.146	22.28
735.461	21.65
735.776	21.86
736.091	22.94
736.405	23.98
736.72	22.12
737.034	23
737.349	26.33
737.663	23.81
737.977	23.07
738.292	22.99
738.606	24.19
738.92	23.19
739.234	22.1
739.548	23.39
739.862	23.62
740.176	22.63
740.49	22.58
740.804	23.85
741.117	24.51
741.431	24.33
741.745	21.69
742.058	23.58
742.372	22.9
742.685	23
742.999	22.79
743.312	22.78
743.626	23.96
743.939	24.32
744.252	23.03
744.565	22.85
744.878	23.1
745.191	21.97
745.505	23.32
745.817	23.63
746.13	23.19
746.443	24.08
746.756	25.34
747.069	22.21
747.381	23.55
747.694	22.85
748.007	23.41
748.319	23.77
748.632	24.99
748.944	22.49
749.256	25.56
749.569	24.69
749.881	25.29
750.193	25.29
750.505	22.62
750.817	23.95
751.129	25.94
751.441	23.71
751.753	25.8
752.065	25.9
752.377	24.06
752.689	25.51
753	24.09
753.312	23.41
753.624	24.07
753.935	26.09
754.247	25.34
754.558	24.11
754.869	25.95
755.181	24.53
755.492	26.42
755.803	24.89
756.114	25.68
756.425	24.05
756.736	23.63
757.047	27.36
757.358	25.22
757.669	26.06
757.98	23.86
758.291	25.38
758.601	25.78
758.912	23.23
759.223	26.2
759.533	24.86
759.844	24.17
760.154	25.43
760.464	25.63
760.775	25.87
761.085	26.25
761.395	26.96
761.705	22.14
762.016	26.5
762.326	23.44
762.636	24.48
762.945	25.99
763.255	28.16
763.565	24.11
763.875	24.91
764.185	25.67
764.494	27.66
764.804	27.18
765.113	26.65
765.423	26.17
765.732	26.33
766.042	26.75
766.351	25.55
766.66	26.54
766.97	27.73
767.279	26.2
767.588	26.44
767.897	26.77
768.206	24.76
768.515	26.56
768.824	26.93
769.133	24.77
769.441	26.9
769.75	26.62
770.059	26.35
770.367	26.96
770.676	24.98
770.984	24.44
771.293	27.63
771.601	26.86
771.91	24.79
772.218	27.96
772.526	28.83
772.834	26.48
773.142	25.11
773.45	27.66
773.758	24.6
774.066	26.31
774.374	24.45
774.682	25.02
774.99	27.35
775.298	23.78
775.605	26.43
775.913	26.91
776.22	27.17
776.528	26.76
776.835	25.82
777.143	28.37
777.45	25.53
777.757	28.47
778.065	28.91
778.372	26.44
778.679	26.33
778.986	27.18
779.293	26.74
779.6	29.95
779.907	27.04
780.214	27.94
780.52	27.06
780.827	31.26
781.134	27.78
781.44	28.68
781.747	25.83
782.053	24.94
782.36	24.12
782.666	28.85
782.973	27.77
783.279	26.51
783.585	27.08
783.891	25.35
784.197	26.95
784.503	26.62
784.809	24.66
785.115	28.73
785.421	29.67
785.727	26.51
786.033	27.22
786.339	27.53
786.644	27.76
786.95	26.63
787.255	27.52
787.561	31.07
787.866	26.35
788.172	28.55
788.477	26.44
788.782	24.11
789.088	28.17
789.393	29.64
789.698	27.35
790.003	27.72
790.308	27.75
790.613	27.42
790.918	32.54
791.223	27.64
791.527	22.89
791.832	31.57
792.137	26.66
792.441	28.67
792.746	27.42
793.05	30.41
793.355	30.77
793.659	29.66
793.963	32.16
794.268	31.61
794.572	33.82
794.876	28.85
795.18	30.41
795.484	30.8
795.788	30.75
796.092	29.88
796.396	31.53
796.7	30.62
797.004	31.52
797.307	25.53
797.611	31.76
797.915	29.87
798.218	26.67
798.522	28.96
798.825	28.77
799.128	28.57
799.432	26.34
799.735	25.57
800.038	31.82
800.341	31.79
800.644	29.99
800.947	26.65
801.25	29.44
801.553	23.9
801.856	27.58
802.159	21.79
802.462	28.91
802.764	31.16
803.067	29.24
803.37	34.37
803.672	24.27
803.975	33.54
804.277	28.39
804.579	24.99
804.882	31.42
805.184	26.46
805.486	29.29
805.788	30.5
806.09	36.25
806.392	25.54
806.694	29.74
806.996	35
807.298	30.26
807.6	29.07
807.902	31.15
808.203	29.71
808.505	30.12
808.807	25.7
809.108	27.54
809.409	27.36
809.711	28.63
810.012	29.07
810.313	26.59
810.615	31.71
810.916	29.09
811.217	32.27
811.518	31.14
811.819	32.41
812.12	30.67
812.421	25.97
812.722	32.04
813.023	32.57
813.323	27.83
813.624	27.38
813.925	38.94
814.225	27.49
814.526	25.79
814.826	30.98
815.126	24.36
815.427	24.37
815.727	32.27
816.027	29.19
816.327	32.98
816.627	29.22
816.927	31.81
817.227	30.86
817.527	32.55
817.827	33.26
818.127	27.62
818.427	28.03
818.727	32.28
819.026	33.23
819.326	40.51
819.625	29.26
819.925	30.37
820.224	27.72
820.524	30.24
820.823	29.89
821.122	25.5
821.421	32.47
821.72	27.28
822.019	27.87
822.318	31.24
822.617	28.68
822.916	30.63
823.215	29.84
823.514	32.86
823.813	32.15
824.111	32.73
824.41	34.93
824.709	34.39
825.007	33.67
825.306	33.88
825.604	34.12
825.902	34.2
826.201	32.23
826.499	34.7
826.797	34.11
827.095	33.76
827.393	33.26
827.691	34.73
827.989	32.13
828.287	35.21
828.585	33.99
828.882	31.63
829.18	32.37
829.478	34.14
829.775	34.4
830.073	34.36
830.37	34.85
830.668	32.49
830.965	34.38
831.263	33.49
831.56	34.55
831.857	30.41
832.154	35.43
832.451	37.12
832.748	37.69
833.045	32.78
833.342	36.95
833.639	28.67
833.936	25.66
834.232	32.83
834.529	32.72
834.826	27.17
835.122	30.39
835.419	33.54
835.715	31.35
836.012	34.76
836.308	36.23
836.604	27.36
836.901	30.73
837.197	32.3
837.493	34.71
837.789	33.88
838.085	34.35
838.381	35.23
838.677	32.5
838.972	35.33
839.268	35.19
839.564	32.66
839.86	34.66
840.155	28.81
840.451	28.64
840.746	25.16
841.042	39.73
841.337	32.27
841.632	30.95
841.928	38.67
842.223	29.8
842.518	32.23
842.813	36.35
843.108	29.38
843.403	40.12
843.698	41.04
843.993	36.35
844.287	38.71
844.582	34.99
844.877	40.67
845.171	40.5
845.466	31.92
845.761	26.35
846.055	26.63
846.349	26.1
846.644	26
846.938	18.03
847.232	36.99
847.526	20.28
847.82	40.14
848.114	34.17
848.408	34.22
848.702	40.16
848.996	34.15
849.29	48.4
849.584	16.93
849.877	21.05
850.171	40.8
850.465	35.75
850.758	18.9
851.052	22.26
851.345	38.82
851.638	46.27
851.932	25.41
852.225	10.04
852.518	26.05
852.811	26.42
853.104	5.35
853.397	25.16
853.69	30.92
853.983	35.22
854.276	33.31
854.569	34.89
854.861	37.99
855.154	29.65
855.447	35.21
855.739	58.93
856.032	50.8
856.324	46.02
856.616	49.36
856.909	43.46
857.201	42.65
857.493	60.55
857.785	41.46
858.077	39.2
858.369	29.44
858.661	9.93
858.953	16.09
859.245	19.53
859.537	24.7
859.829	20.3
860.12	36.49
860.412	-0.16
860.703	26.61
860.995	38.16
861.286	15.94
861.578	31.13
861.869	46.47
862.16	10.13
862.452	25.67
862.743	37.67
863.034	28.99
863.325	-20.57
863.616	18.78
863.907	10.61
864.198	6.25
864.488	42.73
864.779	42.23
865.07	11.6
865.36	16.81
865.651	12.87
865.941	12.8
866.232	2.98
866.522	-6.99
866.813	21.28
867.103	35.94
867.393	14.82
867.683	30.06
867.973	-45.95
868.263	17.77
868.553	30.6
868.843	35.51
869.133	-28.1
869.423	31.49
869.713	42.63
870.002	35.51
870.292	40.86
870.582	53.97
870.871	-21.98
871.161	20.38
871.45	13.5
871.739	15.26
872.029	-3.46
872.318	31.87
872.607	64.64
872.896	28.65
873.185	28.14
873.474	-2.12
873.763	38.98
874.052	17.15
874.341	41.26
874.63	28.69
874.918	31.17
875.207	32.02
875.496	17.15
875.784	35.5
876.073	-11.73
876.361	13.26
876.649	29.41
876.938	-10.06
877.226	-2.32
877.514	19.15
877.802	21.56
878.09	31.25
878.378	28.81
878.666	-9.81
878.954	27.53
879.242	25.53
879.53	26.15
879.817	34.44
880.105	-2.81
880.392	24.25
880.68	13.34
880.967	0.38
881.255	37.72
881.542	21.29
881.83	-54.27
882.117	29.03
882.404	-5.84
882.691	19.11
882.978	42.64
883.265	17.44
883.552	35.2
883.839	22.94
884.126	33.64
884.413	49.79
884.699	44.85
884.986	45.41
885.273	49.05
885.559	49.05
885.846	49.05
