Data from 815644_crown_Reflection__2__36.txt Node

Date: Fri Sep 16 14:34:33 CDT 2022
User: ToomeyLab
Spectrometer: FLMS14357
Trigger mode: 0
Integration Time (sec): 1.000000E-2
Scans to average: 100
Electric dark correction enabled: true
Nonlinearity correction enabled: false
Boxcar width: 0
XAxis mode: Wavelengths
Number of Pixels in Spectrum: 2048
>>>>>Begin Spectral Data<<<<<
189.047	96.3
189.435	96.3
189.823	96.3
190.211	-841.78
190.599	-61.19
190.987	26.4
191.375	198.14
191.763	47.46
192.151	76.7
192.538	4808.82
192.926	-64.3
193.314	-45.08
193.702	114.03
194.089	12.4
194.477	-2.49
194.864	83.75
195.252	44.3
195.639	-591.36
196.027	16.67
196.414	35.11
196.801	27.1
197.189	32.17
197.576	-7.03
197.963	230.89
198.351	-32.6
198.738	-36.59
199.125	33.77
199.512	-59.09
199.899	17.58
200.286	-16.96
200.673	30.69
201.06	34.9
201.447	20.16
201.833	23.46
202.22	15.36
202.607	21.09
202.994	28.36
203.38	11.34
203.767	5.96
204.154	-7.45
204.54	-2.75
204.927	-0.63
205.313	32.3
205.699	38.82
206.086	13.15
206.472	25.56
206.858	46.39
207.245	31.38
207.631	29.6
208.017	19.56
208.403	-8.74
208.789	-10.83
209.175	6.31
209.561	19.63
209.947	17.39
210.333	6.42
210.719	-4.78
211.105	-3.44
211.491	13.29
211.876	27.41
212.262	32.14
212.648	-3.25
213.034	-5.43
213.419	-49.75
213.805	-21.54
214.19	40.4
214.576	21.01
214.961	-6.99
215.346	-15.55
215.732	-21.89
216.117	20.68
216.502	-17.4
216.888	-33.45
217.273	10.59
217.658	12.26
218.043	-37.07
218.428	0.67
218.813	7.16
219.198	10.27
219.583	15.18
219.968	19.19
220.353	-5.39
220.738	18.82
221.122	-18.55
221.507	30.04
221.892	12.35
222.276	10.17
222.661	11.43
223.046	12.12
223.43	-0.84
223.815	-15.52
224.199	14.11
224.583	11.9
224.968	7.79
225.352	-8.96
225.736	6.5
226.121	10.43
226.505	16.25
226.889	7.41
227.273	3.6
227.657	11.94
228.041	9.21
228.425	-2.75
228.809	8.91
229.193	5.06
229.577	6.08
229.961	5.08
230.344	8.26
230.728	7.09
231.112	6.34
231.495	5.67
231.879	4.85
232.263	6.13
232.646	4.37
233.03	6.98
233.413	6.5
233.797	6.45
234.18	7.06
234.563	6.5
234.946	7.68
235.33	6.12
235.713	5.38
236.096	5.75
236.479	6.59
236.862	7.59
237.245	5.66
237.628	8.58
238.011	7.08
238.394	5.83
238.777	5.87
239.16	7.35
239.543	7.38
239.925	7.15
240.308	6.54
240.691	5.71
241.073	6.34
241.456	6.06
241.838	5.47
242.221	6.66
242.603	6.39
242.986	5.95
243.368	5.74
243.75	5.86
244.133	6.17
244.515	5.77
244.897	6.22
245.279	5.54
245.661	6.32
246.043	5.79
246.425	5.69
246.807	5.81
247.189	5.44
247.571	5.68
247.953	5.8
248.335	6.37
248.717	6.14
249.098	5.63
249.48	5.55
249.862	5.64
250.243	6.01
250.625	5.89
251.006	5.69
251.388	5.63
251.769	5.03
252.151	6.16
252.532	5.66
252.913	5.66
253.295	5.8
253.676	5.88
254.057	5.29
254.438	5.05
254.819	4.76
255.2	5.6
255.581	6.56
255.962	4.88
256.343	5.64
256.724	5.35
257.105	4.55
257.486	6.23
257.867	5.49
258.247	5.58
258.628	6.17
259.009	5.93
259.389	5.64
259.77	5.03
260.15	5.87
260.531	5.42
260.911	5.66
261.292	5.55
261.672	5.51
262.052	4.98
262.432	4.92
262.813	5.89
263.193	5.56
263.573	5.35
263.953	5.74
264.333	5
264.713	4.9
265.093	5.54
265.473	5.06
265.853	6.08
266.233	4.93
266.612	6.16
266.992	4.28
267.372	5.28
267.752	5.37
268.131	5.51
268.511	5.65
268.89	5.51
269.27	4.69
269.649	4.67
270.029	5.11
270.408	6.01
270.787	5.37
271.167	5.18
271.546	5.08
271.925	5.35
272.304	5.44
272.683	5.27
273.062	5.03
273.441	4.97
273.82	5.16
274.199	5.3
274.578	5.2
274.957	5.01
275.336	5.45
275.715	5.55
276.093	4.92
276.472	4.98
276.851	5.13
277.229	5.4
277.608	4.98
277.986	5.22
278.365	4.66
278.743	4.57
279.122	5.08
279.5	4.62
279.878	4.93
280.257	5.4
280.635	5.47
281.013	4.63
281.391	5.23
281.769	5.96
282.147	5.73
282.525	4.7
282.903	5.03
283.281	4.62
283.659	4.91
284.037	5.08
284.415	4.7
284.792	5.02
285.17	5.42
285.548	4.88
285.925	4.55
286.303	5.03
286.68	4.84
287.058	4.39
287.435	4.65
287.813	5.03
288.19	4.54
288.567	4.65
288.945	4.32
289.322	5.05
289.699	4.98
290.076	4.43
290.453	4.81
290.83	4.84
291.207	4.6
291.584	4.01
291.961	4.88
292.338	4.9
292.715	4.59
293.092	5
293.469	4.87
293.845	4.73
294.222	4.59
294.599	4.32
294.975	4.68
295.352	4.63
295.728	4.73
296.105	4.79
296.481	4.36
296.858	4.71
297.234	4.76
297.61	5.01
297.986	4.67
298.363	4.76
298.739	4.34
299.115	4.6
299.491	4.41
299.867	4.31
300.243	4.38
300.619	4.63
300.995	4.51
301.371	4.34
301.746	4.18
302.122	4.83
302.498	4.28
302.874	4.14
303.249	4.46
303.625	4.46
304	4.14
304.376	3.93
304.751	4.81
305.127	4.27
305.502	4.25
305.878	4.48
306.253	4.5
306.628	3.76
307.003	4.5
307.378	4.45
307.754	4.7
308.129	4.49
308.504	4.47
308.879	4.99
309.254	4.47
309.629	4.1
310.003	4.7
310.378	3.77
310.753	4.11
311.128	4.05
311.502	3.88
311.877	4.47
312.252	4.26
312.626	4.29
313.001	4.42
313.375	4.43
313.75	3.98
314.124	3.94
314.498	4.36
314.873	4.51
315.247	4.03
315.621	3.91
315.995	4.22
316.369	4.22
316.743	4.24
317.117	3.91
317.491	4.03
317.865	4.45
318.239	4.69
318.613	3.69
318.987	3.4
319.361	3.85
319.734	3.78
320.108	3.93
320.482	4.43
320.855	4.09
321.229	3.78
321.602	4.8
321.976	3.87
322.349	3.85
322.723	3.94
323.096	4.12
323.469	3.79
323.843	4.54
324.216	4.1
324.589	3.9
324.962	3.89
325.335	4.19
325.708	4.11
326.081	4.26
326.454	4.38
326.827	3.93
327.2	3.85
327.573	3.68
327.945	4.46
328.318	4.49
328.691	3.9
329.063	3.59
329.436	4.32
329.809	3.59
330.181	4.09
330.553	4.22
330.926	3.97
331.298	3.84
331.671	3.97
332.043	3.65
332.415	3.92
332.787	3.76
333.159	4.43
333.532	4.78
333.904	3.98
334.276	3.98
334.648	4.16
335.02	4.16
335.391	4.38
335.763	3.86
336.135	3.58
336.507	4.16
336.879	4.1
337.25	3.46
337.622	3.52
337.993	4.26
338.365	4.28
338.736	4.94
339.108	4.29
339.479	4.28
339.851	4.11
340.222	3.78
340.593	4.13
340.964	4.22
341.336	4.35
341.707	4.25
342.078	4.24
342.449	4.4
342.82	3.75
343.191	3.86
343.562	4.1
343.933	4.11
344.303	4.5
344.674	3.78
345.045	4.08
345.416	3.95
345.786	4.23
346.157	4.19
346.527	4.26
346.898	4.07
347.268	4.22
347.639	3.97
348.009	4.02
348.38	4.41
348.75	4.12
349.12	4.13
349.49	4.27
349.861	4.22
350.231	4.15
350.601	4.06
350.971	4.07
351.341	4.47
351.711	4.41
352.081	3.96
352.45	4.65
352.82	4.48
353.19	3.87
353.56	4.28
353.929	4.13
354.299	4.11
354.669	4.07
355.038	4.19
355.408	4.36
355.777	4.09
356.147	4.12
356.516	4.3
356.885	4.1
357.254	4.13
357.624	3.98
357.993	4.28
358.362	3.92
358.731	4.37
359.1	4.33
359.469	3.85
359.838	4.25
360.207	4.24
360.576	4.28
360.945	4.09
361.314	3.99
361.682	3.99
362.051	4.24
362.42	4.48
362.788	4.36
363.157	4.4
363.525	4.09
363.894	4.46
364.262	4.2
364.631	4.14
364.999	4.11
365.367	4.28
365.735	4.29
366.104	4.41
366.472	4.23
366.84	4.32
367.208	4.5
367.576	4.18
367.944	4.26
368.312	4.2
368.68	4.34
369.048	4.39
369.416	4.36
369.783	4.42
370.151	4.58
370.519	4.29
370.886	4.38
371.254	4.22
371.621	4.58
371.989	4.18
372.356	4.47
372.724	4.68
373.091	4.13
373.458	4.42
373.826	4.23
374.193	4.44
374.56	4.22
374.927	4.29
375.294	4.08
375.661	4.19
376.028	4.53
376.395	4.27
376.762	4.79
377.129	4.23
377.496	4.42
377.863	4.23
378.229	4.33
378.596	4.14
378.963	4.52
379.329	4.33
379.696	4.66
380.062	4.38
380.429	4.51
380.795	4.4
381.161	4.67
381.528	4.8
381.894	4.38
382.26	4.52
382.626	4.39
382.993	4.47
383.359	4.48
383.725	4.37
384.091	4.52
384.457	4.44
384.823	4.12
385.188	4.51
385.554	4.39
385.92	4.67
386.286	4.58
386.651	4.59
387.017	4.44
387.383	4.17
387.748	4.22
388.114	4.29
388.479	4.58
388.845	4.52
389.21	4.76
389.575	4.51
389.94	4.77
390.306	4.43
390.671	4.5
391.036	4.45
391.401	4.43
391.766	4.49
392.131	4.52
392.496	4.49
392.861	4.55
393.226	4.46
393.591	4.64
393.956	4.57
394.32	4.79
394.685	4.27
395.05	4.75
395.414	4.48
395.779	4.57
396.143	4.58
396.508	4.48
396.872	4.68
397.236	4.52
397.601	4.59
397.965	4.6
398.329	4.73
398.694	4.72
399.058	4.99
399.422	4.69
399.786	4.87
400.15	4.59
400.514	4.69
400.878	4.77
401.242	4.72
401.605	4.46
401.969	4.43
402.333	4.86
402.697	4.55
403.06	4.85
403.424	4.54
403.787	4.69
404.151	4.89
404.514	4.8
404.878	4.65
405.241	4.49
405.604	4.73
405.968	4.93
406.331	4.54
406.694	4.67
407.057	4.62
407.42	4.5
407.783	4.75
408.146	4.83
408.509	4.73
408.872	4.94
409.235	5.09
409.598	4.79
409.961	4.71
410.323	4.99
410.686	5.02
411.049	4.53
411.411	4.69
411.774	4.69
412.136	4.83
412.499	4.72
412.861	4.86
413.223	4.77
413.586	4.86
413.948	4.88
414.31	4.7
414.672	4.88
415.035	4.94
415.397	4.47
415.759	4.94
416.121	4.69
416.483	4.86
416.845	5.05
417.206	4.86
417.568	4.94
417.93	5.09
418.292	4.75
418.653	4.75
419.015	4.76
419.377	4.94
419.738	4.7
420.1	4.86
420.461	4.97
420.822	4.88
421.184	4.95
421.545	4.83
421.906	4.84
422.267	4.87
422.629	4.76
422.99	4.73
423.351	4.84
423.712	4.73
424.073	4.8
424.434	4.82
424.795	4.8
425.155	4.88
425.516	4.91
425.877	4.79
426.238	4.81
426.598	4.76
426.959	4.79
427.32	4.73
427.68	4.81
428.041	4.79
428.401	4.76
428.761	4.98
429.122	4.99
429.482	4.93
429.842	5.01
430.202	5.12
430.563	5.02
430.923	4.94
431.283	5.28
431.643	5.07
432.003	5
432.363	4.86
432.722	5.2
433.082	5.01
433.442	5.08
433.802	5.02
434.161	5.06
434.521	5.21
434.881	4.96
435.24	5.06
435.6	5.1
435.959	5.07
436.319	4.96
436.678	5.24
437.037	4.99
437.396	4.99
437.756	5.12
438.115	5.09
438.474	4.98
438.833	5.03
439.192	4.95
439.551	5.2
439.91	5.01
440.269	5.11
440.628	5.03
440.987	4.97
441.345	5.1
441.704	5.17
442.063	5.03
442.421	5.07
442.78	4.95
443.138	5.05
443.497	5
443.855	4.94
444.214	5.04
444.572	5.21
444.93	5.16
445.288	5.16
445.647	5.12
446.005	5.2
446.363	5.23
446.721	5.15
447.079	4.99
447.437	5.11
447.795	5.08
448.153	5.12
448.51	5.06
448.868	5.06
449.226	5.04
449.584	5.09
449.941	5.05
450.299	5.05
450.656	5.17
451.014	5.15
451.371	5.2
451.729	5.13
452.086	5.17
452.443	5.04
452.801	5.16
453.158	5.22
453.515	5.22
453.872	5.21
454.229	5.04
454.586	5.18
454.943	5.11
455.3	5.29
455.657	4.97
456.014	5.22
456.371	5.25
456.727	5.15
457.084	5.36
457.441	5.24
457.797	5.3
458.154	5.29
458.51	5.25
458.867	5.06
459.223	5.23
459.58	5.34
459.936	5.38
460.292	5.31
460.648	5.36
461.005	5.33
461.361	5.16
461.717	5.2
462.073	5.09
462.429	5.15
462.785	5.2
463.141	5.1
463.496	5.28
463.852	5.24
464.208	5.15
464.564	5.37
464.919	5.29
465.275	5.25
465.631	5.44
465.986	5.3
466.342	5.32
466.697	5.38
467.052	5.22
467.408	5.29
467.763	5.27
468.118	5.35
468.473	5.09
468.829	5.38
469.184	5.29
469.539	5.37
469.894	5.3
470.249	5.43
470.603	5.41
470.958	5.26
471.313	5.48
471.668	5.23
472.023	5.32
472.377	5.33
472.732	5.41
473.086	5.24
473.441	5.21
473.795	5.23
474.15	5.21
474.504	5.45
474.859	5.42
475.213	5.26
475.567	5.13
475.921	5.36
476.275	5.37
476.63	5.38
476.984	5.33
477.338	5.5
477.692	5.3
478.045	5.44
478.399	5.36
478.753	5.26
479.107	5.22
479.461	5.34
479.814	5.43
480.168	5.37
480.521	5.3
480.875	5.39
481.228	5.24
481.582	5.43
481.935	5.37
482.289	5.47
482.642	5.41
482.995	5.38
483.348	5.42
483.701	5.4
484.055	5.39
484.408	5.37
484.761	5.27
485.114	5.24
485.466	5.19
485.819	5.11
486.172	5.01
486.525	4.97
486.878	5.02
487.23	5.09
487.583	5.17
487.936	5.22
488.288	5.25
488.641	5.26
488.993	5.27
489.345	5.19
489.698	5.15
490.05	5.1
490.402	5.07
490.754	5.15
491.107	5.17
491.459	5.24
491.811	5.23
492.163	5.25
492.515	5.36
492.866	5.25
493.218	5.28
493.57	5.19
493.922	5.14
494.274	5.12
494.625	5.09
494.977	5.17
495.328	5.21
495.68	5.22
496.031	5.38
496.383	5.44
496.734	5.35
497.086	5.35
497.437	5.41
497.788	5.37
498.139	5.37
498.49	5.52
498.842	5.36
499.193	5.3
499.544	5.35
499.894	5.22
500.245	5.37
500.596	5.34
500.947	5.34
501.298	5.23
501.648	5.34
501.999	5.35
502.35	5.45
502.7	5.48
503.051	5.49
503.401	5.32
503.752	5.3
504.102	5.4
504.452	5.4
504.803	5.49
505.153	5.47
505.503	5.46
505.853	5.42
506.203	5.32
506.553	5.36
506.903	5.38
507.253	5.35
507.603	5.51
507.953	5.44
508.303	5.43
508.652	5.27
509.002	5.36
509.352	5.38
509.701	5.39
510.051	5.57
510.4	5.37
510.75	5.35
511.099	5.28
511.449	5.36
511.798	5.38
512.147	5.2
512.496	5.45
512.846	5.36
513.195	5.29
513.544	5.38
513.893	5.34
514.242	5.39
514.591	5.42
514.939	5.35
515.288	5.47
515.637	5.39
515.986	5.33
516.334	5.33
516.683	5.36
517.032	5.42
517.38	5.43
517.729	5.45
518.077	5.48
518.426	5.44
518.774	5.45
519.122	5.52
519.47	5.41
519.819	5.39
520.167	5.36
520.515	5.21
520.863	5.3
521.211	5.34
521.559	5.3
521.907	5.3
522.255	5.26
522.602	5.4
522.95	5.34
523.298	5.36
523.645	5.43
523.993	5.41
524.341	5.42
524.688	5.44
525.036	5.42
525.383	5.51
525.73	5.47
526.078	5.33
526.425	5.36
526.772	5.35
527.119	5.43
527.466	5.3
527.814	5.28
528.161	5.29
528.508	5.3
528.854	5.31
529.201	5.27
529.548	5.31
529.895	5.3
530.242	5.32
530.588	5.21
530.935	5.11
531.282	5.07
531.628	5.05
531.975	5.13
532.321	5.19
532.667	5.22
533.014	5.34
533.36	5.29
533.706	5.41
534.052	5.31
534.399	5.37
534.745	5.35
535.091	5.29
535.437	5.2
535.783	5.15
536.129	5.25
536.474	5.2
536.82	5.17
537.166	5.41
537.512	5.37
537.857	5.41
538.203	5.3
538.549	5.36
538.894	5.17
539.239	5.28
539.585	5.26
539.93	5.29
540.276	5.37
540.621	5.49
540.966	5.43
541.311	5.31
541.656	5.43
542.001	5.31
542.346	5.34
542.691	5.26
543.036	5.2
543.381	5.12
543.726	5.12
544.071	5.1
544.415	5.1
544.76	5.15
545.105	5.28
545.449	5.28
545.794	5.16
546.138	5.19
546.483	5.29
546.827	5.38
547.171	5.28
547.516	5.25
547.86	5.27
548.204	5.28
548.548	5.29
548.892	5.25
549.236	5.2
549.58	5.38
549.924	5.32
550.268	5.2
550.612	5.33
550.956	5.29
551.3	5.37
551.643	5.33
551.987	5.44
552.33	5.33
552.674	5.29
553.017	5.39
553.361	5.37
553.704	5.41
554.048	5.33
554.391	5.48
554.734	5.45
555.077	5.39
555.42	5.38
555.764	5.3
556.107	5.55
556.45	5.29
556.793	5.38
557.135	5.25
557.478	5.29
557.821	5.3
558.164	5.43
558.507	5.31
558.849	5.34
559.192	5.17
559.534	5.53
559.877	5.14
560.219	5.35
560.562	5.47
560.904	5.42
561.246	5.44
561.589	5.39
561.931	5.42
562.273	5.45
562.615	5.33
562.957	5.32
563.299	5.42
563.641	5.43
563.983	5.44
564.325	5.36
564.667	5.26
565.008	5.41
565.35	5.21
565.692	5.24
566.033	5.43
566.375	5.31
566.716	5.3
567.058	5.31
567.399	5.39
567.741	5.24
568.082	5.45
568.423	5.21
568.764	5.13
569.105	5.27
569.447	5.3
569.788	5.37
570.129	5.43
570.47	5.38
570.811	5.36
571.151	5.43
571.492	5.32
571.833	5.39
572.174	5.4
572.514	5.17
572.855	5.38
573.195	5.49
573.536	5.24
573.876	5.39
574.217	5.28
574.557	5.25
574.898	5.32
575.238	5.19
575.578	5.26
575.918	5.3
576.258	5.47
576.598	5.15
576.938	5.23
577.278	5.21
577.618	5.22
577.958	5.41
578.298	5.25
578.638	5.23
578.977	5.32
579.317	5.21
579.657	5.36
579.996	5.26
580.336	5.39
580.675	5.34
581.014	5.45
581.354	5.23
581.693	5.37
582.032	5.23
582.372	5.29
582.711	5.49
583.05	5.37
583.389	5.12
583.728	5.44
584.067	5.27
584.406	5.54
584.745	5.49
585.083	5.57
585.422	5.59
585.761	5.34
586.1	5.13
586.438	5.59
586.777	5.16
587.115	5.33
587.454	5.37
587.792	5.22
588.13	5.48
588.469	5.26
588.807	5.19
589.145	5.23
589.483	5.46
589.821	5.35
590.159	5.14
590.497	5.3
590.835	5.33
591.173	5.34
591.511	5.27
591.849	5.44
592.187	5.3
592.524	5.16
592.862	5.22
593.2	5.18
593.537	5.3
593.875	5.4
594.212	5.45
594.55	5.16
594.887	5.38
595.224	5.16
595.561	5.45
595.899	5.44
596.236	5.36
596.573	5.3
596.91	5.41
597.247	5.41
597.584	5.34
597.921	5.15
598.258	5.27
598.594	5.03
598.931	5.22
599.268	5.21
599.604	5.2
599.941	5.24
600.277	5.2
600.614	5.46
600.95	5.09
601.287	5.12
601.623	5.47
601.959	5.19
602.296	5.15
602.632	5.15
602.968	5.29
603.304	5.34
603.64	5.23
603.976	5.3
604.312	5.19
604.648	5.4
604.984	5.31
605.319	5.46
605.655	5.53
605.991	5.19
606.326	5.12
606.662	5.16
606.998	5.14
607.333	5.18
607.668	5.29
608.004	5.14
608.339	5.19
608.674	5.31
609.01	5.12
609.345	5.42
609.68	5.36
610.015	5.25
610.35	5.19
610.685	5.45
611.02	5.24
611.355	5.43
611.689	5.22
612.024	5.16
612.359	5.34
612.694	5.21
613.028	5.22
613.363	5.18
613.697	5.34
614.032	5.16
614.366	5.14
614.7	5.21
615.035	5.05
615.369	5.03
615.703	5.28
616.037	5.41
616.371	5.38
616.705	5.27
617.039	5.46
617.373	5.17
617.707	5.25
618.041	5.18
618.375	5.2
618.709	4.9
619.042	5.23
619.376	5.21
619.71	5.46
620.043	5.52
620.377	5.19
620.71	5.69
621.043	5.52
621.377	5.26
621.71	5.38
622.043	4.96
622.376	5.34
622.709	5.17
623.043	5.16
623.376	5.24
623.709	5.01
624.041	5.55
624.374	5.29
624.707	5.3
625.04	5.46
625.373	4.95
625.705	5.39
626.038	5.58
626.37	5.25
626.703	5.16
627.035	5.31
627.368	5.53
627.7	5.28
628.032	5.04
628.365	5.29
628.697	5.31
629.029	5.26
629.361	5.06
629.693	5.23
630.025	5.21
630.357	5.59
630.689	5.35
631.021	5.16
631.353	5.38
631.684	5.26
632.016	5.19
632.348	5.58
632.679	4.82
633.011	5.33
633.342	4.85
633.674	5.51
634.005	5.47
634.336	5.16
634.668	5.21
634.999	4.88
635.33	5.17
635.661	5.18
635.992	4.97
636.323	5.08
636.654	5.15
636.985	5.31
637.316	5.27
637.647	5.21
637.977	4.9
638.308	5.23
638.639	5.64
638.969	5.08
639.3	5.45
639.63	5.28
639.961	5.35
640.291	5.24
640.622	5.33
640.952	5.68
641.282	5.27
641.612	5.27
641.943	5.39
642.273	5.45
642.603	5.6
642.933	4.99
643.263	5.31
643.592	4.93
643.922	4.69
644.252	5.56
644.582	5.21
644.911	5.17
645.241	5.65
645.571	5.59
645.9	5.08
646.23	4.95
646.559	4.68
646.888	5.12
647.218	5.45
647.547	5.31
647.876	5.39
648.205	5.42
648.534	4.83
648.863	5.21
649.192	5.59
649.521	5.5
649.85	5.27
650.179	5.07
650.508	5.26
650.837	5.45
651.165	5.17
651.494	5.49
651.822	5.11
652.151	4.94
652.479	5.38
652.808	5.54
653.136	5.36
653.465	4.92
653.793	5.17
654.121	4.93
654.449	5.26
654.777	5.41
655.105	5.27
655.433	5.22
655.761	5.42
656.089	5.13
656.417	5.42
656.745	5.33
657.073	5.6
657.4	4.79
657.728	5.5
658.056	4.89
658.383	5.31
658.711	5.29
659.038	4.98
659.365	5.63
659.693	4.89
660.02	5.15
660.347	4.99
660.674	5
661.001	5.4
661.329	4.83
661.656	4.84
661.982	5.24
662.309	5.18
662.636	5.32
662.963	5.34
663.29	5.2
663.616	5.42
663.943	5.31
664.27	4.89
664.596	5.41
664.923	4.77
665.249	5.81
665.576	5.33
665.902	5.49
666.228	5.1
666.554	5.46
666.881	5.74
667.207	5.44
667.533	5.74
667.859	5.42
668.185	5.32
668.511	5.6
668.837	5.21
669.162	5.44
669.488	5.81
669.814	5.35
670.139	4.92
670.465	5.28
670.791	5.34
671.116	5.2
671.442	5.37
671.767	5.16
672.092	4.81
672.418	5.29
672.743	5.66
673.068	5.8
673.393	5.01
673.718	5.69
674.043	4.76
674.368	5.38
674.693	5.83
675.018	5.48
675.343	5.26
675.667	5.46
675.992	5.08
676.317	5.16
676.641	4.7
676.966	5.54
677.29	5.44
677.615	5.86
677.939	5.14
678.264	5.57
678.588	4.62
678.912	4.73
679.236	5.2
679.56	5.91
679.885	5.33
680.209	4.7
680.532	5.89
680.856	5.03
681.18	5.59
681.504	5.04
681.828	5.15
682.152	5.39
682.475	5.16
682.799	5.14
683.122	5.11
683.446	5.4
683.769	5.38
684.093	5.21
684.416	4.77
684.739	5.1
685.062	5.24
685.386	5.3
685.709	4.96
686.032	5.83
686.355	5.04
686.678	5.57
687.001	5.15
687.324	5.09
687.646	5.85
687.969	5.25
688.292	5.49
688.614	5.12
688.937	5.35
689.26	5.57
689.582	5.55
689.904	5.38
690.227	5.14
690.549	5.32
690.871	5.28
691.194	5.12
691.516	5
691.838	5.61
692.16	5.41
692.482	5.46
692.804	5.7
693.126	5.71
693.448	5.21
693.769	4.94
694.091	5.62
694.413	5.98
694.735	5.45
695.056	5.2
695.378	5.43
695.699	5.32
696.021	5.05
696.342	5.52
696.663	6.09
696.984	5.54
697.306	5.12
697.627	5.87
697.948	5.63
698.269	5.87
698.59	5.21
698.911	5.71
699.232	5.59
699.553	5.09
699.873	5.29
700.194	5.39
700.515	5.2
700.835	5.51
701.156	5.28
701.477	5.64
701.797	5.38
702.117	4.75
702.438	5.2
702.758	4.84
703.078	4.7
703.398	5.16
703.719	5.41
704.039	4.27
704.359	5.73
704.679	6.52
704.999	5.45
705.319	5.61
705.638	5.44
705.958	4.71
706.278	4.63
706.597	6.27
706.917	4.83
707.237	6.66
707.556	5.43
707.876	5.18
708.195	6.04
708.514	5.79
708.834	5.81
709.153	5.31
709.472	5.95
709.791	4.95
710.11	5.17
710.429	5.35
710.748	5.51
711.067	6.33
711.386	4.8
711.705	5.02
712.023	5.76
712.342	4.99
712.661	6.12
712.979	5.2
713.298	5.46
713.616	5.05
713.935	5.54
714.253	5.11
714.572	5.03
714.89	5.45
715.208	5.46
715.526	5.38
715.844	5.86
716.162	6.3
716.48	5.32
716.798	5.05
717.116	6.38
717.434	6.41
717.752	5.69
718.069	5.55
718.387	5.64
718.705	6.03
719.022	4.62
719.34	5.25
719.657	5.4
719.975	5.9
720.292	5.97
720.609	6.62
720.927	5.95
721.244	5.31
721.561	5.76
721.878	4.3
722.195	5.06
722.512	5.59
722.829	5.2
723.146	6.51
723.463	6.46
723.779	4.93
724.096	5.15
724.413	5.27
724.729	3.72
725.046	4.55
725.362	6.05
725.679	4.92
725.995	5.71
726.311	5.41
726.628	5.58
726.944	5.87
727.26	5.34
727.576	5.47
727.892	5.85
728.208	4.95
728.524	6.03
728.84	6.09
729.156	5.51
729.472	6.25
729.787	4.86
730.103	5.33
730.419	4.92
730.734	5.88
731.05	5.38
731.365	5.22
731.681	5.51
731.996	6.13
732.311	5.15
732.626	4.44
732.942	5.42
733.257	5.36
733.572	5.6
733.887	5.05
734.202	5.31
734.517	6.8
734.832	5.61
735.146	6.32
735.461	4.57
735.776	5.52
736.091	5.19
736.405	6.58
736.72	5.86
737.034	5.49
737.349	4.76
737.663	6.61
737.977	4.79
738.292	5.66
738.606	6.78
738.92	4.64
739.234	7.02
739.548	4.83
739.862	5.06
740.176	4.62
740.49	5.32
740.804	6.34
741.117	4.59
741.431	5.98
741.745	6.26
742.058	6.97
742.372	6.15
742.685	4.69
742.999	6.06
743.312	6.86
743.626	6.57
743.939	5.68
744.252	4.72
744.565	5.93
744.878	3.48
745.191	4.54
745.505	3.87
745.817	4.68
746.13	6.42
746.443	7.99
746.756	6.47
747.069	4.54
747.381	5.64
747.694	4.84
748.007	7.33
748.319	6.18
748.632	5.98
748.944	5.15
749.256	5.53
749.569	5.35
749.881	6.02
750.193	5.48
750.505	6.19
750.817	5.65
751.129	6.93
751.441	6.12
751.753	6.15
752.065	5.08
752.377	5.92
752.689	5.68
753	5.74
753.312	5.94
753.624	6.17
753.935	7.3
754.247	5.07
754.558	7.02
754.869	6.97
755.181	5.93
755.492	7.56
755.803	5.25
756.114	4.88
756.425	6.68
756.736	5.2
757.047	6.46
757.358	5.29
757.669	6.44
757.98	6.41
758.291	5.1
758.601	6.11
758.912	6.05
759.223	5.74
759.533	7.06
759.844	6.25
760.154	6.55
760.464	6.11
760.775	6.7
761.085	5.37
761.395	5.99
761.705	7.15
762.016	5.29
762.326	5.39
762.636	4.43
762.945	4.83
763.255	5.73
763.565	6.93
763.875	6.56
764.185	5.83
764.494	6.91
764.804	7.57
765.113	5.91
765.423	5.57
765.732	5.96
766.042	6.08
766.351	6.35
766.66	6.11
766.97	5.4
767.279	7.45
767.588	6.58
767.897	5.54
768.206	3.98
768.515	5.73
768.824	6.69
769.133	7.22
769.441	6.59
769.75	6.95
770.059	7.35
770.367	7.85
770.676	7.91
770.984	6.01
771.293	7.3
771.601	4.96
771.91	8.91
772.218	7.15
772.526	6.4
772.834	5.61
773.142	7.38
773.45	4.34
773.758	3.7
774.066	5.12
774.374	5.29
774.682	8.58
774.99	4.76
775.298	4.98
775.605	5.71
775.913	5.33
776.22	6.71
776.528	7.7
776.835	7.08
777.143	2.63
777.45	6.38
777.757	6
778.065	9.05
778.372	6.44
778.679	7.33
778.986	5.88
779.293	8.01
779.6	3.94
779.907	6.54
780.214	8.62
780.52	7.82
780.827	8.48
781.134	8.53
781.44	10.03
781.747	6.39
782.053	5.26
782.36	8.13
782.666	4.96
782.973	7.05
783.279	6.51
783.585	6.2
783.891	3.68
784.197	5.22
784.503	7.16
784.809	8.4
785.115	1.98
785.421	7.46
785.727	5.54
786.033	3.91
786.339	9.07
786.644	9.04
786.95	6.22
787.255	3.05
787.561	8.17
787.866	8.81
788.172	7.11
788.477	5.58
788.782	7.8
789.088	9.5
789.393	5.49
789.698	1.38
790.003	5.72
790.308	7.44
790.613	8.62
790.918	8.64
791.223	5.64
791.527	6.08
791.832	7.19
792.137	4.69
792.441	10.06
792.746	5.53
793.05	4
793.355	4.89
793.659	6.51
793.963	5.68
794.268	5.74
794.572	4.68
794.876	5.61
795.18	6.7
795.484	5.01
795.788	11.32
796.092	6.48
796.396	8.76
796.7	8.94
797.004	8.29
797.307	7.35
797.611	7.91
797.915	6.92
798.218	7.57
798.522	5.08
798.825	3.93
799.128	6.83
799.432	7.86
799.735	1.93
800.038	4.47
800.341	3.12
800.644	9.84
800.947	9.23
801.25	5.62
801.553	10.84
801.856	7.25
802.159	3.39
802.462	6.02
802.764	5.25
803.067	5.52
803.37	7.93
803.672	6.42
803.975	9.62
804.277	3.64
804.579	6.86
804.882	6.74
805.184	5.6
805.486	7.57
805.788	7.85
806.09	5.38
806.392	7.63
806.694	7.76
806.996	4.79
807.298	3.05
807.6	4.38
807.902	9.94
808.203	7.08
808.505	9.76
808.807	7.26
809.108	13.82
809.409	5.98
809.711	5.83
810.012	4.38
810.313	13.7
810.615	5.25
810.916	9.55
811.217	6.58
811.518	7.54
811.819	5.39
812.12	6
812.421	4.39
812.722	4.8
813.023	4.05
813.323	5.66
813.624	8.88
813.925	3.97
814.225	10.49
814.526	11.64
814.826	8.18
815.126	6.62
815.427	10.59
815.727	5.7
816.027	4.69
816.327	7.33
816.627	1.99
816.927	4.07
817.227	3.09
817.527	7.14
817.827	-1.32
818.127	3
818.427	0.83
818.727	3.13
819.026	7.31
819.326	6.74
819.625	2.06
819.925	2.18
820.224	7.86
820.524	9.58
820.823	5.62
821.122	11.32
821.421	12
821.72	6.61
822.019	7.79
822.318	10.59
822.617	8.09
822.916	5.88
823.215	3.96
823.514	7.77
823.813	7.53
824.111	7.22
824.41	6.62
824.709	7.45
825.007	6.91
825.306	7.52
825.604	6.72
825.902	6.8
826.201	7.32
826.499	7.42
826.797	8.77
827.095	6.91
827.393	7.07
827.691	6.35
827.989	7.83
828.287	8.59
828.585	6.94
828.882	7.44
829.18	7.31
829.478	7.62
829.775	6.47
830.073	7.53
830.37	7.21
830.668	6.95
830.965	6.35
831.263	5.28
831.56	7.52
831.857	11.94
832.154	4.23
832.451	6.13
832.748	6.46
833.045	1.08
833.342	4.05
833.639	5.54
833.936	6.29
834.232	10.47
834.529	2.01
834.826	8.55
835.122	3.64
835.419	8.44
835.715	5.54
836.012	8.36
836.308	4.77
836.604	9.22
836.901	8.06
837.197	7.5
837.493	2.29
837.789	7.27
838.085	3.91
838.381	4.34
838.677	8.19
838.972	5.2
839.268	10.37
839.564	10.65
839.86	7.44
840.155	5.9
840.451	7.98
840.746	3.89
841.042	1.05
841.337	6.55
841.632	18.73
841.928	11.08
842.223	6.97
842.518	10.26
842.813	8.27
843.108	7.18
843.403	14.99
843.698	4.09
843.993	7.34
844.287	5.38
844.582	-0.76
844.877	9.48
845.171	13.34
845.466	6.53
845.761	0.78
846.055	7.73
846.349	-4.16
846.644	-5.53
846.938	-1.96
847.232	6.81
847.526	16.81
847.82	15.67
848.114	4.09
848.408	9.74
848.702	-5.21
848.996	-0.09
849.29	-12.18
849.584	0.62
849.877	9.62
850.171	10.59
850.465	9.39
850.758	2.2
851.052	17.02
851.345	4.08
851.638	7.08
851.932	-4.01
852.225	4.52
852.518	14.78
852.811	-5.71
853.104	8.69
853.397	-14.02
853.69	6.67
853.983	-19.25
854.276	15.77
854.569	5.87
854.861	2.29
855.154	3.94
855.447	8.79
855.739	6.87
856.032	11.26
856.324	-1.31
856.616	6.18
856.909	17.9
857.201	-21.8
857.493	-3.03
857.785	17.09
858.077	-9.75
858.369	1.54
858.661	18.9
858.953	-4.56
859.245	7.74
859.537	18.26
859.829	7.58
860.12	19.06
860.412	-8.81
860.703	0.69
860.995	-5.99
861.286	-5.81
861.578	-9.92
861.869	16.86
862.16	14.06
862.452	19.13
862.743	0.71
863.034	27.56
863.325	-0.22
863.616	14.05
863.907	35.48
864.198	5.35
864.488	7.2
864.779	3.95
865.07	-13.07
865.36	13.44
865.651	10.11
865.941	-15.26
866.232	11.91
866.522	-8.97
866.813	-1.53
867.103	-0.3
867.393	22.3
867.683	-14.61
867.973	1.54
868.263	-8.24
868.553	14.67
868.843	-10.25
869.133	-29.67
869.423	0.01
869.713	-0.76
870.002	13.86
870.292	18.06
870.582	37.07
870.871	4.94
871.161	2.96
871.45	-74.92
871.739	14.77
872.029	-11.62
872.318	0.12
872.607	-26.57
872.896	10.12
873.185	20.58
873.474	9.17
873.763	17.6
874.052	-2.87
874.341	8.87
874.63	-11.06
874.918	3.5
875.207	-3.98
875.496	22.31
875.784	-2.08
876.073	-7.99
876.361	-0.05
876.649	-4.67
876.938	16.74
877.226	29.43
877.514	21.29
877.802	-26.39
878.09	-5.72
878.378	7.04
878.666	12.06
878.954	20.54
879.242	-17.11
879.53	-0.97
879.817	15.15
880.105	7.8
880.392	18.58
880.68	-9.5
880.967	23.58
881.255	-5.49
881.542	6.54
881.83	-6.95
882.117	15.73
882.404	9.88
882.691	1.37
882.978	28.42
883.265	-16.75
883.552	27.58
883.839	-13.02
884.126	-4.6
884.413	15.73
884.699	9.65
884.986	8.54
885.273	10.56
885.559	10.56
885.846	10.56
