Data from 0142_crown_Reflection__1__27.txt Node

Date: Fri Sep 22 20:34:20 CDT 2023
User: ToomeyLab
Spectrometer: FLMS14357
Trigger mode: 0
Integration Time (sec): 1.000000E-2
Scans to average: 100
Electric dark correction enabled: true
Nonlinearity correction enabled: false
Boxcar width: 0
XAxis mode: Wavelengths
Number of Pixels in Spectrum: 2048
>>>>>Begin Spectral Data<<<<<
189.047	2.69
189.435	2.69
189.823	2.69
190.211	770.66
190.599	584.92
190.987	424.89
191.375	70.64
191.763	611.38
192.151	31.23
192.538	97.37
192.926	48.35
193.314	-11956
193.702	398.77
194.089	84.35
194.477	-22214.29
194.864	44.07
195.252	-271.76
195.639	279.12
196.027	-92.14
196.414	-3.53
196.801	143.98
197.189	66.1
197.576	194.71
197.963	899.67
198.351	38.72
198.738	34.28
199.125	84.65
199.512	-12.15
199.899	48.85
200.286	69.13
200.673	11.72
201.06	14.73
201.447	53.58
201.833	6.76
202.22	28.81
202.607	8.87
202.994	34.71
203.38	15.44
203.767	4.64
204.154	36.22
204.54	26.16
204.927	-6.8
205.313	20.6
205.699	36.69
206.086	34.2
206.472	42.75
206.858	26.41
207.245	1.77
207.631	25.28
208.017	4.54
208.403	13.52
208.789	37.61
209.175	35.13
209.561	37.84
209.947	33.19
210.333	18.63
210.719	16.35
211.105	35.8
211.491	3.59
211.876	27.39
212.262	27.68
212.648	29.78
213.034	15.4
213.419	17.67
213.805	1.87
214.19	6.74
214.576	22.67
214.961	6.57
215.346	-2.92
215.732	31.17
216.117	9.3
216.502	28.39
216.888	7.67
217.273	27.96
217.658	-5.2
218.043	3.96
218.428	23.07
218.813	-7.98
219.198	9.72
219.583	7.32
219.968	2.48
220.353	32.63
220.738	-1.98
221.122	6.3
221.507	0.51
221.892	-4.83
222.276	9.64
222.661	-22.16
223.046	16.92
223.43	22.48
223.815	4.78
224.199	5.02
224.583	11.26
224.968	19.54
225.352	10.43
225.736	9.29
226.121	11.08
226.505	12.42
226.889	15.36
227.273	9.14
227.657	8.12
228.041	8.9
228.425	10.3
228.809	6.31
229.193	8.25
229.577	5.55
229.961	7.25
230.344	7.43
230.728	5.69
231.112	6.07
231.495	5.21
231.879	5.66
232.263	5.24
232.646	5.82
233.03	5.9
233.413	6.28
233.797	6.6
234.18	4.83
234.563	6.94
234.946	6.24
235.33	5.15
235.713	4.68
236.096	6.09
236.479	5.55
236.862	7.65
237.245	6.65
237.628	7.46
238.011	7.3
238.394	5.52
238.777	7.2
239.16	7.45
239.543	7.69
239.925	6.75
240.308	6.85
240.691	6.63
241.073	8.06
241.456	6.73
241.838	5.56
242.221	5.29
242.603	5.96
242.986	6.37
243.368	5.05
243.75	5.66
244.133	5.48
244.515	5.23
244.897	5.02
245.279	5.25
245.661	5.44
246.043	4.92
246.425	4.44
246.807	5.56
247.189	3.79
247.571	5.76
247.953	5.79
248.335	5.39
248.717	5.33
249.098	5.32
249.48	5.03
249.862	4.97
250.243	4.94
250.625	5.54
251.006	4.67
251.388	5.44
251.769	5.56
252.151	5.68
252.532	5.78
252.913	5.5
253.295	6.48
253.676	5.31
254.057	4.99
254.438	5.43
254.819	4.7
255.2	5.53
255.581	5.55
255.962	5.41
256.343	4.67
256.724	4.31
257.105	5.44
257.486	4.81
257.867	5.02
258.247	5.49
258.628	5.58
259.009	5.02
259.389	5.24
259.77	5.31
260.15	4.95
260.531	5.21
260.911	4.41
261.292	4.5
261.672	4.55
262.052	4.89
262.432	4.64
262.813	4.83
263.193	4.53
263.573	5.64
263.953	5.05
264.333	4.34
264.713	4.75
265.093	5.33
265.473	4.7
265.853	4.94
266.233	5.76
266.612	4.41
266.992	5.46
267.372	4.79
267.752	4.54
268.131	4.48
268.511	4.28
268.89	4.62
269.27	4.14
269.649	4.63
270.029	4.65
270.408	4.79
270.787	4.73
271.167	4.64
271.546	4.08
271.925	4.95
272.304	3.88
272.683	4.34
273.062	5.02
273.441	4.99
273.82	4.99
274.199	4.85
274.578	4.8
274.957	4.54
275.336	4.28
275.715	4.77
276.093	3.97
276.472	4.17
276.851	4.63
277.229	4.19
277.608	4.35
277.986	4.5
278.365	4.87
278.743	4.5
279.122	4.8
279.5	4.73
279.878	3.97
280.257	5.28
280.635	4.51
281.013	4.59
281.391	4.02
281.769	4.62
282.147	4.02
282.525	4.36
282.903	4.58
283.281	4.61
283.659	4.67
284.037	4.05
284.415	4.64
284.792	4.74
285.17	4.73
285.548	5.19
285.925	3.99
286.303	3.85
286.68	4.15
287.058	4.25
287.435	4.56
287.813	4.18
288.19	3.69
288.567	4.51
288.945	4.19
289.322	4.65
289.699	4.51
290.076	4.05
290.453	3.82
290.83	4.22
291.207	4.44
291.584	3.99
291.961	4.13
292.338	4.39
292.715	4.07
293.092	4.23
293.469	4.1
293.845	4.21
294.222	4.31
294.599	4.04
294.975	4.41
295.352	4.17
295.728	4.1
296.105	4.24
296.481	4.03
296.858	4.27
297.234	4.17
297.61	4.02
297.986	4.07
298.363	4.21
298.739	3.99
299.115	4.36
299.491	4.1
299.867	4.25
300.243	3.93
300.619	4.14
300.995	4
301.371	4.37
301.746	4.57
302.122	3.88
302.498	3.88
302.874	3.75
303.249	3.63
303.625	3.64
304	4.39
304.376	4.15
304.751	4.19
305.127	3.74
305.502	4.52
305.878	3.79
306.253	4.72
306.628	3.87
307.003	3.91
307.378	3.59
307.754	3.84
308.129	4.21
308.504	4.34
308.879	4.42
309.254	4.13
309.629	4.28
310.003	4.75
310.378	4.38
310.753	4.13
311.128	4.44
311.502	3.85
311.877	3.86
312.252	4.06
312.626	3.98
313.001	4.2
313.375	3.76
313.75	4.25
314.124	4.5
314.498	3.42
314.873	4.41
315.247	4.5
315.621	4.5
315.995	4
316.369	4.19
316.743	3.78
317.117	4.08
317.491	4.67
317.865	3.96
318.239	4.1
318.613	3.89
318.987	3.68
319.361	3.6
319.734	3.74
320.108	4.09
320.482	3.75
320.855	3.65
321.229	4.88
321.602	3.92
321.976	4.13
322.349	4.11
322.723	4.24
323.096	4.39
323.469	4
323.843	4.09
324.216	4.28
324.589	3.89
324.962	2.93
325.335	4.58
325.708	3.9
326.081	4.09
326.454	3.72
326.827	4.1
327.2	3.96
327.573	4.4
327.945	4.08
328.318	3.81
328.691	4.25
329.063	3.81
329.436	4.12
329.809	4.32
330.181	4.22
330.553	3.91
330.926	3.95
331.298	4.22
331.671	3.94
332.043	3.35
332.415	3.73
332.787	4.26
333.159	4.07
333.532	3.7
333.904	4.38
334.276	4.08
334.648	3.35
335.02	4.15
335.391	4.28
335.763	4.14
336.135	4.11
336.507	4.06
336.879	4
337.25	3.2
337.622	3.87
337.993	4.27
338.365	4.12
338.736	4.53
339.108	4.04
339.479	3.89
339.851	3.52
340.222	4.35
340.593	4.16
340.964	3.19
341.336	4.18
341.707	3.5
342.078	3.75
342.449	4.15
342.82	3.78
343.191	3.52
343.562	3.88
343.933	4.17
344.303	4.18
344.674	3.88
345.045	4.03
345.416	4.19
345.786	3.76
346.157	3.83
346.527	3.99
346.898	3.35
347.268	3.68
347.639	3.87
348.009	4.2
348.38	4.28
348.75	4.34
349.12	3.84
349.49	4.27
349.861	3.74
350.231	4.5
350.601	3.98
350.971	4.41
351.341	3.63
351.711	3.39
352.081	3.61
352.45	4.05
352.82	3.72
353.19	4.09
353.56	3.33
353.929	4.13
354.299	3.84
354.669	4.09
355.038	3.77
355.408	3.97
355.777	4.31
356.147	4.39
356.516	3.74
356.885	3.8
357.254	4.17
357.624	3.72
357.993	4.17
358.362	4.22
358.731	3.65
359.1	4.07
359.469	4.23
359.838	3.76
360.207	3.53
360.576	3.82
360.945	3.97
361.314	3.65
361.682	4.28
362.051	4.09
362.42	3.99
362.788	3.68
363.157	3.79
363.525	3.79
363.894	3.72
364.262	3.94
364.631	3.9
364.999	3.89
365.367	4.16
365.735	3.86
366.104	3.8
366.472	4.2
366.84	4.02
367.208	4.22
367.576	4.14
367.944	3.82
368.312	4.29
368.68	4
369.048	4.27
369.416	4.1
369.783	3.6
370.151	3.84
370.519	4.18
370.886	4.05
371.254	4.22
371.621	4.03
371.989	4.05
372.356	3.64
372.724	4.08
373.091	4.03
373.458	4.15
373.826	4.18
374.193	4.08
374.56	4.22
374.927	4.25
375.294	4.14
375.661	4.04
376.028	4.12
376.395	4.12
376.762	4.19
377.129	4.2
377.496	4.26
377.863	4.37
378.229	3.96
378.596	3.7
378.963	4.44
379.329	3.97
379.696	4.45
380.062	3.97
380.429	4.16
380.795	4.37
381.161	4.11
381.528	4.23
381.894	3.77
382.26	3.67
382.626	3.9
382.993	4.08
383.359	3.91
383.725	4.17
384.091	4.32
384.457	4.08
384.823	4.09
385.188	4.13
385.554	4.14
385.92	4.25
386.286	4.27
386.651	4.02
387.017	4.06
387.383	3.96
387.748	3.93
388.114	3.84
388.479	4.23
388.845	3.77
389.21	3.94
389.575	4.43
389.94	3.89
390.306	4.16
390.671	4.55
391.036	3.94
391.401	4.25
391.766	3.96
392.131	4.27
392.496	4.35
392.861	4.12
393.226	4.28
393.591	4.39
393.956	4.14
394.32	4.25
394.685	4.01
395.05	4.4
395.414	4.33
395.779	4.22
396.143	4.19
396.508	4.16
396.872	4.13
397.236	4.07
397.601	4.03
397.965	4.37
398.329	4.11
398.694	4.25
399.058	4.36
399.422	4.02
399.786	4.15
400.15	4.02
400.514	4.43
400.878	4.28
401.242	4.42
401.605	4.16
401.969	3.9
402.333	4.35
402.697	4.1
403.06	4.22
403.424	4.4
403.787	4.25
404.151	4.18
404.514	4.31
404.878	4.35
405.241	4.41
405.604	4.49
405.968	4.27
406.331	4.17
406.694	4.3
407.057	4.12
407.42	4.45
407.783	4.29
408.146	4.27
408.509	4.04
408.872	4.27
409.235	4.11
409.598	4.23
409.961	4.41
410.323	4.14
410.686	4.21
411.049	4.49
411.411	4.35
411.774	4.25
412.136	4.12
412.499	4.25
412.861	4.19
413.223	4.43
413.586	4.2
413.948	4.35
414.31	4.18
414.672	4.27
415.035	4.22
415.397	4.56
415.759	4.54
416.121	4.26
416.483	4.33
416.845	4.31
417.206	4.19
417.568	4.27
417.93	4.27
418.292	4.22
418.653	4.14
419.015	4.16
419.377	4.2
419.738	4.35
420.1	4.11
420.461	4.15
420.822	4.27
421.184	4.26
421.545	4.09
421.906	4.17
422.267	4.18
422.629	4.31
422.99	4.12
423.351	4.15
423.712	4.1
424.073	4.09
424.434	4.24
424.795	4.26
425.155	4.24
425.516	4.26
425.877	4.08
426.238	4.08
426.598	4.12
426.959	4.11
427.32	4.26
427.68	4.1
428.041	4.18
428.401	4.38
428.761	4.34
429.122	4.32
429.482	4.26
429.842	4.07
430.202	4.28
430.563	4.39
430.923	4.49
431.283	4.51
431.643	4.28
432.003	4.57
432.363	4.51
432.722	4.41
433.082	4.48
433.442	4.26
433.802	4.5
434.161	4.32
434.521	4.33
434.881	4.28
435.24	4.27
435.6	4.24
435.959	4.17
436.319	4.12
436.678	4.42
437.037	4.32
437.396	4.29
437.756	4.45
438.115	4.32
438.474	4.41
438.833	4.48
439.192	4.42
439.551	4.19
439.91	4.63
440.269	4.39
440.628	4.21
440.987	4.31
441.345	4.41
441.704	4.42
442.063	4.3
442.421	4.29
442.78	4.31
443.138	4.27
443.497	4.18
443.855	4.34
444.214	4.21
444.572	4.48
444.93	4.37
445.288	4.34
445.647	4.45
446.005	4.3
446.363	4.19
446.721	4.41
447.079	4.21
447.437	4.27
447.795	4.36
448.153	4.16
448.51	4.3
448.868	4.27
449.226	4.26
449.584	4.28
449.941	4.24
450.299	4.41
450.656	4.34
451.014	4.37
451.371	4.43
451.729	4.31
452.086	4.35
452.443	4.42
452.801	4.39
453.158	4.52
453.515	4.44
453.872	4.38
454.229	4.45
454.586	4.42
454.943	4.37
455.3	4.45
455.657	4.46
456.014	4.32
456.371	4.48
456.727	4.55
457.084	4.4
457.441	4.3
457.797	4.51
458.154	4.44
458.51	4.45
458.867	4.44
459.223	4.46
459.58	4.45
459.936	4.43
460.292	4.52
460.648	4.56
461.005	4.42
461.361	4.39
461.717	4.15
462.073	4.28
462.429	4.3
462.785	4.37
463.141	4.39
463.496	4.44
463.852	4.53
464.208	4.51
464.564	4.47
464.919	4.32
465.275	4.63
465.631	4.67
465.986	4.54
466.342	4.44
466.697	4.59
467.052	4.39
467.408	4.58
467.763	4.53
468.118	4.61
468.473	4.49
468.829	4.47
469.184	4.63
469.539	4.37
469.894	4.49
470.249	4.5
470.603	4.42
470.958	4.35
471.313	4.5
471.668	4.48
472.023	4.6
472.377	4.53
472.732	4.34
473.086	4.65
473.441	4.32
473.795	4.81
474.15	4.4
474.504	4.34
474.859	4.45
475.213	4.29
475.567	4.37
475.921	4.51
476.275	4.59
476.63	4.48
476.984	4.41
477.338	4.67
477.692	4.42
478.045	4.57
478.399	4.65
478.753	4.53
479.107	4.47
479.461	4.43
479.814	4.56
480.168	4.56
480.521	4.57
480.875	4.54
481.228	4.53
481.582	4.31
481.935	4.43
482.289	4.35
482.642	4.47
482.995	4.44
483.348	4.51
483.701	4.42
484.055	4.51
484.408	4.44
484.761	4.5
485.114	4.35
485.466	4.2
485.819	4.16
486.172	4.1
486.525	4.16
486.878	4.19
487.23	4.25
487.583	4.26
487.936	4.34
488.288	4.39
488.641	4.37
488.993	4.37
489.345	4.2
489.698	4.21
490.05	4.22
490.402	4.25
490.754	4.23
491.107	4.29
491.459	4.38
491.811	4.35
492.163	4.37
492.515	4.37
492.866	4.42
493.218	4.4
493.57	4.34
493.922	4.32
494.274	4.27
494.625	4.34
494.977	4.44
495.328	4.5
495.68	4.5
496.031	4.43
496.383	4.58
496.734	4.51
497.086	4.41
497.437	4.59
497.788	4.52
498.139	4.52
498.49	4.55
498.842	4.43
499.193	4.45
499.544	4.55
499.894	4.49
500.245	4.59
500.596	4.59
500.947	4.61
501.298	4.54
501.648	4.6
501.999	4.53
502.35	4.52
502.7	4.53
503.051	4.55
503.401	4.55
503.752	4.63
504.102	4.54
504.452	4.47
504.803	4.53
505.153	4.64
505.503	4.47
505.853	4.52
506.203	4.55
506.553	4.65
506.903	4.44
507.253	4.53
507.603	4.54
507.953	4.71
508.303	4.55
508.652	4.44
509.002	4.68
509.352	4.54
509.701	4.61
510.051	4.48
510.4	4.49
510.75	4.51
511.099	4.34
511.449	4.53
511.798	4.59
512.147	4.59
512.496	4.59
512.846	4.52
513.195	4.51
513.544	4.53
513.893	4.62
514.242	4.4
514.591	4.57
514.939	4.6
515.288	4.45
515.637	4.48
515.986	4.47
516.334	4.61
516.683	4.56
517.032	4.7
517.38	4.63
517.729	4.53
518.077	4.56
518.426	4.67
518.774	4.65
519.122	4.48
519.47	4.45
519.819	4.5
520.167	4.6
520.515	4.46
520.863	4.39
521.211	4.45
521.559	4.52
521.907	4.51
522.255	4.51
522.602	4.6
522.95	4.52
523.298	4.73
523.645	4.74
523.993	4.63
524.341	4.61
524.688	4.62
525.036	4.55
525.383	4.67
525.73	4.62
526.078	4.52
526.425	4.51
526.772	4.68
527.119	4.58
527.466	4.52
527.814	4.41
528.161	4.43
528.508	4.49
528.854	4.5
529.201	4.6
529.548	4.47
529.895	4.5
530.242	4.4
530.588	4.27
530.935	4.27
531.282	4.28
531.628	4.39
531.975	4.37
532.321	4.38
532.667	4.48
533.014	4.5
533.36	4.54
533.706	4.53
534.052	4.57
534.399	4.6
534.745	4.57
535.091	4.4
535.437	4.34
535.783	4.35
536.129	4.4
536.474	4.52
536.82	4.44
537.166	4.59
537.512	4.55
537.857	4.64
538.203	4.57
538.549	4.44
538.894	4.49
539.239	4.43
539.585	4.42
539.93	4.64
540.276	4.56
540.621	4.68
540.966	4.58
541.311	4.69
541.656	4.54
542.001	4.61
542.346	4.58
542.691	4.66
543.036	4.47
543.381	4.47
543.726	4.38
544.071	4.37
544.415	4.42
544.76	4.44
545.105	4.39
545.449	4.44
545.794	4.51
546.138	4.52
546.483	4.46
546.827	4.47
547.171	4.55
547.516	4.67
547.86	4.67
548.204	4.57
548.548	4.49
548.892	4.61
549.236	4.46
549.58	4.56
549.924	4.64
550.268	4.66
550.612	4.55
550.956	4.65
551.3	4.74
551.643	4.7
551.987	4.68
552.33	4.84
552.674	4.74
553.017	4.71
553.361	4.64
553.704	4.71
554.048	4.84
554.391	4.68
554.734	4.72
555.077	4.61
555.42	4.63
555.764	4.64
556.107	4.67
556.45	4.72
556.793	4.6
557.135	4.56
557.478	4.62
557.821	4.63
558.164	4.82
558.507	4.95
558.849	4.45
559.192	4.81
559.534	4.76
559.877	4.82
560.219	4.73
560.562	4.72
560.904	4.79
561.246	4.81
561.589	4.71
561.931	4.73
562.273	4.55
562.615	4.65
562.957	4.69
563.299	4.6
563.641	4.68
563.983	4.81
564.325	4.71
564.667	4.87
565.008	4.66
565.35	4.77
565.692	4.74
566.033	4.73
566.375	4.64
566.716	4.69
567.058	4.71
567.399	4.79
567.741	4.79
568.082	4.58
568.423	4.76
568.764	4.79
569.105	4.56
569.447	4.69
569.788	4.47
570.129	4.69
570.47	4.73
570.811	4.75
571.151	4.78
571.492	4.58
571.833	4.59
572.174	4.63
572.514	4.63
572.855	4.56
573.195	4.53
573.536	4.7
573.876	4.57
574.217	4.64
574.557	4.56
574.898	4.63
575.238	4.64
575.578	4.75
575.918	4.63
576.258	4.57
576.598	4.6
576.938	4.64
577.278	4.74
577.618	4.52
577.958	4.67
578.298	4.91
578.638	4.54
578.977	4.79
579.317	4.67
579.657	4.62
579.996	4.81
580.336	4.76
580.675	4.94
581.014	4.64
581.354	4.46
581.693	4.66
582.032	4.82
582.372	4.9
582.711	4.82
583.05	4.75
583.389	4.73
583.728	4.65
584.067	4.82
584.406	4.87
584.745	4.48
585.083	4.79
585.422	4.89
585.761	4.57
586.1	4.86
586.438	4.71
586.777	4.75
587.115	4.87
587.454	4.51
587.792	4.82
588.13	4.78
588.469	4.6
588.807	4.78
589.145	4.81
589.483	4.77
589.821	4.77
590.159	4.69
590.497	4.77
590.835	4.69
591.173	4.78
591.511	4.83
591.849	4.94
592.187	4.78
592.524	4.82
592.862	4.81
593.2	4.79
593.537	4.66
593.875	4.77
594.212	4.83
594.55	5.03
594.887	4.91
595.224	4.81
595.561	4.99
595.899	5.09
596.236	4.69
596.573	5.09
596.91	4.7
597.247	4.74
597.584	4.72
597.921	4.92
598.258	4.79
598.594	4.85
598.931	4.76
599.268	4.77
599.604	4.74
599.941	4.82
600.277	4.7
600.614	4.95
600.95	4.96
601.287	4.62
601.623	4.65
601.959	4.76
602.296	4.81
602.632	4.32
602.968	4.87
603.304	4.79
603.64	4.74
603.976	5.06
604.312	4.86
604.648	4.61
604.984	4.72
605.319	4.83
605.655	4.63
605.991	4.75
606.326	4.95
606.662	4.52
606.998	4.56
607.333	4.74
607.668	4.72
608.004	4.82
608.339	4.76
608.674	4.8
609.01	4.67
609.345	4.72
609.68	5
610.015	4.74
610.35	4.74
610.685	4.87
611.02	4.74
611.355	4.81
611.689	4.96
612.024	4.89
612.359	4.65
612.694	4.66
613.028	4.79
613.363	4.57
613.697	5.04
614.032	4.76
614.366	4.59
614.7	4.75
615.035	4.85
615.369	4.62
615.703	4.72
616.037	4.86
616.371	5.17
616.705	4.97
617.039	4.92
617.373	5
617.707	4.8
618.041	4.89
618.375	5.04
618.709	4.93
619.042	4.9
619.376	5.1
619.71	4.94
620.043	4.32
620.377	4.66
620.71	4.82
621.043	4.89
621.377	4.93
621.71	4.72
622.043	4.8
622.376	5.19
622.709	4.8
623.043	4.94
623.376	5.04
623.709	5.03
624.041	4.89
624.374	4.99
624.707	5.04
625.04	5.08
625.373	4.45
625.705	5
626.038	4.64
626.37	4.81
626.703	4.87
627.035	4.67
627.368	4.89
627.7	5.04
628.032	5.22
628.365	4.86
628.697	4.8
629.029	4.98
629.361	4.94
629.693	4.97
630.025	4.74
630.357	4.57
630.689	5.13
631.021	4.72
631.353	4.78
631.684	4.87
632.016	5.09
632.348	4.84
632.679	4.6
633.011	4.93
633.342	5.19
633.674	5.51
634.005	4.68
634.336	5.25
634.668	4.9
634.999	4.91
635.33	5.11
635.661	4.95
635.992	4.83
636.323	4.92
636.654	4.66
636.985	4.69
637.316	4.94
637.647	5.08
637.977	4.68
638.308	5.32
638.639	5.15
638.969	4.86
639.3	4.99
639.63	5.35
639.961	5.06
640.291	5.12
640.622	5.08
640.952	5.02
641.282	5.35
641.612	4.9
641.943	5.29
642.273	5.15
642.603	4.57
642.933	4.57
643.263	4.52
643.592	4.94
643.922	5.22
644.252	4.73
644.582	5.45
644.911	5.13
645.241	4.98
645.571	4.7
645.9	5
646.23	5.16
646.559	5
646.888	5.22
647.218	5.41
647.547	4.63
647.876	4.74
648.205	4.94
648.534	5.39
648.863	5.02
649.192	4.46
649.521	4.94
649.85	5.09
650.179	4.96
650.508	5.01
650.837	5.45
651.165	4.91
651.494	5.3
651.822	5.27
652.151	4.89
652.479	5.27
652.808	4.77
653.136	5.2
653.465	4.97
653.793	4.85
654.121	5.51
654.449	4.66
654.777	5.01
655.105	5.2
655.433	4.98
655.761	5.73
656.089	5.26
656.417	5.2
656.745	5.15
657.073	5.66
657.4	5.75
657.728	5.35
658.056	4.91
658.383	4.94
658.711	4.77
659.038	4.9
659.365	5.01
659.693	4.82
660.02	5.37
660.347	5.19
660.674	4.79
661.001	4.92
661.329	5.11
661.656	5.27
661.982	4.99
662.309	5.22
662.636	5.2
662.963	5.1
663.29	5
663.616	5.14
663.943	5.39
664.27	5.23
664.596	5.08
664.923	5.22
665.249	5.32
665.576	4.6
665.902	5.01
666.228	5.44
666.554	5.05
666.881	5.28
667.207	5.05
667.533	4.7
667.859	5.47
668.185	5.09
668.511	5.54
668.837	4.94
669.162	5.09
669.488	5.45
669.814	4.78
670.139	4.88
670.465	5.74
670.791	5.2
671.116	5.18
671.442	5.75
671.767	4.65
672.092	5.29
672.418	5.84
672.743	5.13
673.068	5.65
673.393	5.33
673.718	5.42
674.043	5.73
674.368	5.47
674.693	5.23
675.018	5.41
675.343	5.36
675.667	5.34
675.992	4.93
676.317	5.74
676.641	5.66
676.966	5.65
677.29	4.99
677.615	5.94
677.939	5.11
678.264	5.67
678.588	5.51
678.912	5.54
679.236	5.49
679.56	5.38
679.885	5.63
680.209	6.02
680.532	5.43
680.856	5.28
681.18	5.39
681.504	5.52
681.828	5.44
682.152	5.17
682.475	5.84
682.799	5.23
683.122	5.18
683.446	5.72
683.769	5.24
684.093	5.52
684.416	5.71
684.739	5.69
685.062	6.28
685.386	5.52
685.709	5.2
686.032	5.18
686.355	5.59
686.678	5.75
687.001	5.96
687.324	5.87
687.646	5.27
687.969	5.57
688.292	5.49
688.614	6.01
688.937	5.54
689.26	4.98
689.582	5.84
689.904	5.72
690.227	6.05
690.549	5.81
690.871	5.1
691.194	6.05
691.516	5.51
691.838	6.13
692.16	5.25
692.482	5.61
692.804	4.89
693.126	5.95
693.448	5.87
693.769	4.78
694.091	5.68
694.413	5.82
694.735	5.51
695.056	6.13
695.378	5.98
695.699	5.46
696.021	5.14
696.342	5.84
696.663	5.73
696.984	5.07
697.306	5.3
697.627	5.6
697.948	6.02
698.269	6.55
698.59	5.08
698.911	5.99
699.232	5.04
699.553	5.83
699.873	5.88
700.194	4.91
700.515	4.54
700.835	6.19
701.156	5.43
701.477	5.62
701.797	5.35
702.117	5.76
702.438	5.17
702.758	5.16
703.078	6.04
703.398	5.46
703.719	5.15
704.039	5.7
704.359	5.6
704.679	5.45
704.999	5.36
705.319	5.92
705.638	5.39
705.958	6.57
706.278	6.78
706.597	5.36
706.917	5.6
707.237	5.99
707.556	5.42
707.876	5.56
708.195	5.74
708.514	5.49
708.834	5.05
709.153	6.52
709.472	5.78
709.791	5.66
710.11	6.12
710.429	6.51
710.748	5.89
711.067	6.12
711.386	6.57
711.705	6.02
712.023	6.09
712.342	6.15
712.661	7.15
712.979	6.26
713.298	6.81
713.616	5.45
713.935	6.45
714.253	6.22
714.572	6.39
714.89	6.02
715.208	5.91
715.526	6.36
715.844	6.31
716.162	5.4
716.48	5.63
716.798	5.31
717.116	6.44
717.434	5.64
717.752	6.09
718.069	4.98
718.387	5.88
718.705	6.12
719.022	6.87
719.34	6.58
719.657	5.3
719.975	5.73
720.292	6.2
720.609	6.13
720.927	6.4
721.244	6.55
721.561	6.04
721.878	5.67
722.195	5.77
722.512	6.92
722.829	7.25
723.146	6.92
723.463	6.07
723.779	6.87
724.096	4.93
724.413	7.24
724.729	6.97
725.046	6.82
725.362	6.86
725.679	5.82
725.995	7.42
726.311	4.76
726.628	5.34
726.944	5.51
727.26	6.23
727.576	6.15
727.892	5.19
728.208	7.33
728.524	6.46
728.84	5.57
729.156	6.48
729.472	7.7
729.787	6.01
730.103	6.36
730.419	7.03
730.734	5.68
731.05	5.64
731.365	6.18
731.681	5.76
731.996	6.66
732.311	6.07
732.626	5.55
732.942	6.47
733.257	6.72
733.572	4.98
733.887	5.11
734.202	7.17
734.517	6.36
734.832	6.43
735.146	7.24
735.461	7.93
735.776	7.05
736.091	6.33
736.405	5.91
736.72	5.53
737.034	4.71
737.349	6.37
737.663	5.89
737.977	6.59
738.292	6.33
738.606	6.01
738.92	5.11
739.234	5.88
739.548	6.42
739.862	4.87
740.176	6.07
740.49	6.28
740.804	6.39
741.117	6.14
741.431	6.28
741.745	7.62
742.058	5.48
742.372	5.49
742.685	6.29
742.999	6.61
743.312	8.25
743.626	5.48
743.939	7.7
744.252	6.59
744.565	5.1
744.878	5.79
745.191	6.66
745.505	8.14
745.817	8.29
746.13	10.53
746.443	9.48
746.756	7.72
747.069	7.23
747.381	4.2
747.694	7.7
748.007	7.71
748.319	6.41
748.632	7.44
748.944	8.7
749.256	7.59
749.569	6.82
749.881	7.93
750.193	7.98
750.505	8.13
750.817	5.93
751.129	8.54
751.441	7.52
751.753	8.14
752.065	8.17
752.377	8.44
752.689	5.49
753	6.69
753.312	7.4
753.624	6.29
753.935	7.55
754.247	6.64
754.558	8.18
754.869	6.56
755.181	7.02
755.492	5.87
755.803	9.15
756.114	7.58
756.425	10.39
756.736	6.92
757.047	6.49
757.358	7.09
757.669	7.05
757.98	7.1
758.291	6.64
758.601	7.06
758.912	7.29
759.223	8.85
759.533	6.44
759.844	7.54
760.154	7.39
760.464	6.98
760.775	6.4
761.085	8.52
761.395	7.31
761.705	6.93
762.016	5.09
762.326	7.87
762.636	7.77
762.945	5.57
763.255	6.52
763.565	6.14
763.875	7.45
764.185	7.63
764.494	7.84
764.804	5.81
765.113	5.64
765.423	7.98
765.732	6.74
766.042	7.36
766.351	6.78
766.66	8.16
766.97	7.01
767.279	6.88
767.588	7.23
767.897	7.46
768.206	8.09
768.515	7.91
768.824	8.86
769.133	7.04
769.441	6.36
769.75	9.18
770.059	11.32
770.367	6.74
770.676	8.44
770.984	5.54
771.293	8.9
771.601	8.81
771.91	8.86
772.218	7.44
772.526	7.08
772.834	9.78
773.142	7.3
773.45	8.58
773.758	5.79
774.066	8.31
774.374	6.74
774.682	10.83
774.99	8.91
775.298	8.28
775.605	8.7
775.913	11.72
776.22	5.72
776.528	7.27
776.835	8.45
777.143	7.59
777.45	9.05
777.757	8.86
778.065	8.99
778.372	9.85
778.679	8.4
778.986	4.24
779.293	5.2
779.6	6.83
779.907	8.88
780.214	12.7
780.52	4.42
780.827	8.67
781.134	10.41
781.44	9.37
781.747	7.06
782.053	7.64
782.36	7.91
782.666	8.91
782.973	8.32
783.279	7.44
783.585	9.96
783.891	7.49
784.197	8.59
784.503	7.38
784.809	7.98
785.115	5.78
785.421	8.72
785.727	7.27
786.033	7.16
786.339	8.54
786.644	8.27
786.95	8.21
787.255	8.68
787.561	10.33
787.866	7.4
788.172	8.73
788.477	9.36
788.782	9.41
789.088	9.55
789.393	6.72
789.698	9.37
790.003	10.03
790.308	7.43
790.613	6.05
790.918	9.62
791.223	5.91
791.527	7.42
791.832	9.88
792.137	8.47
792.441	11.46
792.746	9.07
793.05	7.38
793.355	10.67
793.659	9.31
793.963	9.43
794.268	9.5
794.572	9.57
794.876	5.56
795.18	6.09
795.484	8.8
795.788	8.61
796.092	11.18
796.396	8.89
796.7	8.31
797.004	7.88
797.307	3.07
797.611	10.65
797.915	6.15
798.218	12.14
798.522	10.97
798.825	9.47
799.128	7
799.432	6.81
799.735	8.17
800.038	9.75
800.341	10.87
800.644	11.29
800.947	11.12
801.25	9.03
801.553	9.76
801.856	11.94
802.159	8.54
802.462	8.2
802.764	7.01
803.067	9.13
803.37	10.05
803.672	11.9
803.975	5.32
804.277	13.04
804.579	8.01
804.882	12.45
805.184	8.56
805.486	6.93
805.788	15.87
806.09	14.17
806.392	5.5
806.694	7.86
806.996	7.02
807.298	9.1
807.6	8.43
807.902	8.57
808.203	8.41
808.505	12.49
808.807	11.11
809.108	12.56
809.409	12.79
809.711	11.65
810.012	8.4
810.313	8.23
810.615	5.05
810.916	8.44
811.217	9.76
811.518	11.88
811.819	18.04
812.12	12.79
812.421	8.58
812.722	10.91
813.023	9.53
813.323	5.75
813.624	13.27
813.925	14.4
814.225	15.26
814.526	13.21
814.826	14.42
815.126	10.71
815.427	13.1
815.727	10.49
816.027	5.13
816.327	13.72
816.627	11.67
816.927	16.5
817.227	11.69
817.527	7.94
817.827	8.66
818.127	7.79
818.427	16.88
818.727	12.27
819.026	16.99
819.326	10.57
819.625	6.03
819.925	9.38
820.224	18.37
820.524	4.35
820.823	9.72
821.122	5.21
821.421	15.57
821.72	13
822.019	13.63
822.318	12.49
822.617	10.37
822.916	8.92
823.215	8.77
823.514	8
823.813	12.9
824.111	12.17
824.41	11.12
824.709	9.41
825.007	9.08
825.306	7.42
825.604	8.26
825.902	9.32
826.201	9.2
826.499	8.15
826.797	8.1
827.095	9.83
827.393	9.42
827.691	10.22
827.989	8.41
828.287	7.7
828.585	10.86
828.882	9.49
829.18	11.21
829.478	8.3
829.775	9.19
830.073	5.43
830.37	10.03
830.668	8.17
830.965	9.21
831.263	9.34
831.56	7.88
831.857	8.62
832.154	12
832.451	9.1
832.748	10.1
833.045	13.81
833.342	8.4
833.639	11.57
833.936	15.53
834.232	13.2
834.529	11.78
834.826	8.76
835.122	12.77
835.419	6.53
835.715	13.41
836.012	11.33
836.308	12.67
836.604	9.52
836.901	11.07
837.197	12.95
837.493	11.55
837.789	9.08
838.085	5.42
838.381	7.72
838.677	6.91
838.972	12.95
839.268	12.43
839.564	9.61
839.86	7.56
840.155	6.75
840.451	6.25
840.746	10.83
841.042	13.01
841.337	21.62
841.632	13.3
841.928	23.1
842.223	8.77
842.518	15.35
842.813	16.74
843.108	5.21
843.403	14.02
843.698	15.97
843.993	11.27
844.287	10.68
844.582	9.62
844.877	2.72
845.171	23.81
845.466	12.95
845.761	6.85
846.055	14.96
846.349	10.91
846.644	9.23
846.938	28.31
847.232	10.17
847.526	16.47
847.82	11.33
848.114	25.47
848.408	22.06
848.702	22.58
848.996	17.09
849.29	24.1
849.584	11
849.877	25.17
850.171	3.16
850.465	-0.06
850.758	22.48
851.052	-0.79
851.345	27.62
851.638	9.69
851.932	31.21
852.225	9.89
852.518	22.48
852.811	31.65
853.104	22.79
853.397	20.27
853.69	20.02
853.983	25.52
854.276	9.59
854.569	17.87
854.861	-3.88
855.154	-14.2
855.447	3.8
855.739	-13.99
856.032	1.65
856.324	7.73
856.616	39.49
856.909	8.27
857.201	6.13
857.493	21.53
857.785	11.13
858.077	16.37
858.369	10.62
858.661	30.44
858.953	23.36
859.245	16.53
859.537	1.6
859.829	-3.45
860.12	13.58
860.412	26.24
860.703	-6.51
860.995	12.34
861.286	31.56
861.578	24.52
861.869	5.93
862.16	14.05
862.452	-24.37
862.743	35.32
863.034	25.77
863.325	20.84
863.616	30.26
863.907	0.79
864.198	1.9
864.488	3.84
864.779	13.41
865.07	17.2
865.36	0.92
865.651	21.18
865.941	-39.52
866.232	5.62
866.522	9.39
866.813	25.29
867.103	29.7
867.393	7.78
867.683	-8.19
867.973	18.25
868.263	-12.63
868.553	-21.67
868.843	27.17
869.133	21.51
869.423	18.06
869.713	28.76
870.002	33.61
870.292	8.41
870.582	17.82
870.871	8.87
871.161	22.71
871.45	25.48
871.739	28.02
872.029	14.53
872.318	13.05
872.607	7.48
872.896	18.2
873.185	36.95
873.474	28.25
873.763	-2.7
874.052	22.61
874.341	22.67
874.63	12.42
874.918	8.94
875.207	46.42
875.496	19.53
875.784	17.91
876.073	34.7
876.361	14.93
876.649	-1.54
876.938	36.1
877.226	29.99
877.514	28.6
877.802	18.48
878.09	11.45
878.378	23.88
878.666	32.63
878.954	56.55
879.242	32.42
879.53	10.41
879.817	18.2
880.105	1.93
880.392	12.67
880.68	15.57
880.967	41.71
881.255	34.1
881.542	6.7
881.83	32.25
882.117	25.02
882.404	28.56
882.691	5.56
882.978	-2.7
883.265	12.7
883.552	13.67
883.839	-18.35
884.126	25.09
884.413	2.53
884.699	24.03
884.986	18.34
885.273	16.35
885.559	16.35
885.846	16.35
