Data from 0142_crown_Reflection__2__28.txt Node

Date: Fri Sep 22 20:34:30 CDT 2023
User: ToomeyLab
Spectrometer: FLMS14357
Trigger mode: 0
Integration Time (sec): 1.000000E-2
Scans to average: 100
Electric dark correction enabled: true
Nonlinearity correction enabled: false
Boxcar width: 0
XAxis mode: Wavelengths
Number of Pixels in Spectrum: 2048
>>>>>Begin Spectral Data<<<<<
189.047	26.63
189.435	26.63
189.823	26.63
190.211	76.5
190.599	483.26
190.987	-12.38
191.375	-25.84
191.763	1738.92
192.151	16.91
192.538	-7.58
192.926	97.89
193.314	8480
193.702	377.18
194.089	54.03
194.477	17257.14
194.864	244.68
195.252	-76.66
195.639	130.33
196.027	260.43
196.414	-30.53
196.801	418.34
197.189	-12.2
197.576	73.14
197.963	347.32
198.351	17.11
198.738	17.95
199.125	-21.11
199.512	50.77
199.899	11.48
200.286	-2.09
200.673	-20.09
201.06	3.75
201.447	55.76
201.833	-21.2
202.22	37.95
202.607	16.19
202.994	41.22
203.38	-7.61
203.767	-10.91
204.154	17.28
204.54	-6.35
204.927	-21.16
205.313	1.27
205.699	27.49
206.086	56
206.472	49.98
206.858	8.79
207.245	-37.8
207.631	21.94
208.017	7.77
208.403	-0.04
208.789	19.23
209.175	7.64
209.561	21.11
209.947	5.24
210.333	19.97
210.719	-16.49
211.105	11.84
211.491	-21.97
211.876	26.93
212.262	14.38
212.648	-6.01
213.034	2.64
213.419	3.27
213.805	-1.24
214.19	7.31
214.576	18.49
214.961	12.69
215.346	-1.5
215.732	29.79
216.117	7.67
216.502	37.05
216.888	21.6
217.273	7.05
217.658	-16.74
218.043	14.89
218.428	17.83
218.813	11.08
219.198	22.35
219.583	-0.22
219.968	-5.37
220.353	23.32
220.738	-3.05
221.122	17.01
221.507	15.22
221.892	3.33
222.276	6.65
222.661	-20.05
223.046	18.01
223.43	10.12
223.815	-3.41
224.199	-0.2
224.583	10.64
224.968	6.67
225.352	-3.68
225.736	8.18
226.121	-1.89
226.505	7.64
226.889	3.33
227.273	4.64
227.657	-3.02
228.041	5.53
228.425	5.68
228.809	2.82
229.193	1.34
229.577	4.48
229.961	3.69
230.344	5.29
230.728	2
231.112	3.16
231.495	2.99
231.879	2.77
232.263	2.06
232.646	2.63
233.03	2.38
233.413	3.13
233.797	4.13
234.18	4.13
234.563	4.83
234.946	3.05
235.33	2.14
235.713	1.86
236.096	2.88
236.479	3.19
236.862	3.27
237.245	2.57
237.628	6.33
238.011	5.02
238.394	3.23
238.777	4.55
239.16	3.31
239.543	5.19
239.925	3.28
240.308	2.12
240.691	2.79
241.073	3.14
241.456	3.71
241.838	2.43
242.221	3.13
242.603	3.17
242.986	3.98
243.368	2.98
243.75	3.56
244.133	3.6
244.515	3.41
244.897	3.05
245.279	3.04
245.661	3.5
246.043	2.95
246.425	3.4
246.807	4.02
247.189	1.79
247.571	3.7
247.953	3.3
248.335	3.33
248.717	2.96
249.098	3.1
249.48	2.71
249.862	2.91
250.243	2.72
250.625	2.84
251.006	2.82
251.388	3.1
251.769	3.12
252.151	2.93
252.532	2.92
252.913	3.28
253.295	3.9
253.676	3.83
254.057	3.35
254.438	3.21
254.819	2.77
255.2	3.03
255.581	2.68
255.962	2.93
256.343	1.84
256.724	2.73
257.105	3.12
257.486	2.18
257.867	2.74
258.247	3.58
258.628	3.28
259.009	2.8
259.389	2.57
259.77	2.35
260.15	3.2
260.531	2.39
260.911	2.59
261.292	2.52
261.672	2.62
262.052	2.54
262.432	2.65
262.813	2.68
263.193	2.28
263.573	2.87
263.953	2.76
264.333	2.14
264.713	2.45
265.093	2.41
265.473	2.12
265.853	1.87
266.233	2.5
266.612	2.42
266.992	2.94
267.372	2.88
267.752	3.3
268.131	3.36
268.511	2.43
268.89	3
269.27	2.89
269.649	2.74
270.029	2.79
270.408	2.81
270.787	2.84
271.167	2.73
271.546	2.39
271.925	2.73
272.304	2.68
272.683	2.63
273.062	3.01
273.441	2.49
273.82	3.14
274.199	2.64
274.578	2.75
274.957	1.89
275.336	2.38
275.715	2.42
276.093	2.33
276.472	2.45
276.851	2.61
277.229	2.07
277.608	2.59
277.986	2.54
278.365	2.59
278.743	3.32
279.122	2.44
279.5	3.28
279.878	2.52
280.257	2.96
280.635	2.63
281.013	2.4
281.391	1.94
281.769	2.58
282.147	2.98
282.525	2.23
282.903	3.01
283.281	2.56
283.659	2.59
284.037	2.38
284.415	3.05
284.792	2.47
285.17	2.82
285.548	3.23
285.925	2.55
286.303	2.5
286.68	2.23
287.058	2.25
287.435	2.15
287.813	2.48
288.19	1.78
288.567	2.55
288.945	1.98
289.322	2.65
289.699	2.56
290.076	2.41
290.453	1.97
290.83	1.96
291.207	2.41
291.584	1.93
291.961	2.34
292.338	2.42
292.715	2.89
293.092	2.26
293.469	2.33
293.845	2.22
294.222	2.27
294.599	2.9
294.975	2.36
295.352	2.49
295.728	2.03
296.105	2.28
296.481	2.42
296.858	2.53
297.234	2.4
297.61	2.39
297.986	2.04
298.363	2.33
298.739	2.25
299.115	2.17
299.491	2.46
299.867	2.41
300.243	2.28
300.619	2.59
300.995	2.21
301.371	2.95
301.746	2.51
302.122	2.48
302.498	1.89
302.874	1.87
303.249	1.92
303.625	1.91
304	2.55
304.376	2.73
304.751	2.42
305.127	2.45
305.502	2.58
305.878	2.51
306.253	2.48
306.628	2.25
307.003	2.32
307.378	2.21
307.754	2.4
308.129	2.22
308.504	2.11
308.879	2.36
309.254	2.28
309.629	2.75
310.003	2.72
310.378	2.55
310.753	1.92
311.128	2.6
311.502	2.17
311.877	1.76
312.252	1.84
312.626	2.07
313.001	2.56
313.375	2.26
313.75	2.57
314.124	2.34
314.498	2.2
314.873	2.24
315.247	2.77
315.621	2.49
315.995	2.3
316.369	1.96
316.743	2.26
317.117	2.6
317.491	2.92
317.865	1.76
318.239	2.4
318.613	2.61
318.987	2
319.361	2.42
319.734	2.2
320.108	2.33
320.482	2.33
320.855	2.14
321.229	2.5
321.602	2.42
321.976	1.84
322.349	2.66
322.723	2.69
323.096	2.28
323.469	2.03
323.843	2.05
324.216	2.54
324.589	2.41
324.962	2.24
325.335	2.19
325.708	2.28
326.081	2.19
326.454	1.99
326.827	2.29
327.2	2.36
327.573	2.67
327.945	2.28
328.318	2.11
328.691	2.66
329.063	2.32
329.436	2.64
329.809	2.19
330.181	2.62
330.553	1.79
330.926	1.88
331.298	2.36
331.671	2.24
332.043	1.4
332.415	2.31
332.787	2.62
333.159	2.43
333.532	1.71
333.904	1.98
334.276	2.08
334.648	1.79
335.02	2.11
335.391	2.47
335.763	2.59
336.135	2.2
336.507	2.23
336.879	2.09
337.25	1.96
337.622	2.32
337.993	2.58
338.365	2.68
338.736	2.5
339.108	2.33
339.479	2.23
339.851	2
340.222	1.94
340.593	2.31
340.964	1.71
341.336	2.18
341.707	2.17
342.078	2.4
342.449	2.68
342.82	2.08
343.191	2.14
343.562	2.11
343.933	1.93
344.303	2.23
344.674	2.36
345.045	2.24
345.416	2.39
345.786	1.89
346.157	2.11
346.527	2.26
346.898	2.08
347.268	1.83
347.639	2.16
348.009	2.5
348.38	2.22
348.75	2.73
349.12	2.03
349.49	2.52
349.861	2.13
350.231	2.17
350.601	2.26
350.971	2.23
351.341	2.18
351.711	2
352.081	1.88
352.45	2
352.82	2.51
353.19	2.67
353.56	2.16
353.929	2.44
354.299	2.27
354.669	2.02
355.038	1.99
355.408	2.3
355.777	2.33
356.147	2.34
356.516	2.44
356.885	1.92
357.254	3.03
357.624	2.37
357.993	2.39
358.362	2.09
358.731	2.3
359.1	2.14
359.469	2.34
359.838	1.94
360.207	2.05
360.576	2.34
360.945	2.07
361.314	2.56
361.682	2.22
362.051	2.34
362.42	2.16
362.788	2
363.157	2.35
363.525	2.27
363.894	2.16
364.262	2.19
364.631	2.17
364.999	1.86
365.367	2.51
365.735	2.26
366.104	2.16
366.472	2.6
366.84	2.1
367.208	2.64
367.576	2.5
367.944	2.48
368.312	2.22
368.68	2.21
369.048	2.44
369.416	2.44
369.783	2.38
370.151	2.48
370.519	2.25
370.886	2.57
371.254	2.54
371.621	2.2
371.989	2.65
372.356	2
372.724	2.48
373.091	2.54
373.458	2.32
373.826	2.38
374.193	2.53
374.56	2.37
374.927	2.48
375.294	2.32
375.661	2.13
376.028	2.45
376.395	2.31
376.762	2.1
377.129	2.38
377.496	2.62
377.863	2.7
378.229	2.67
378.596	2.43
378.963	2.55
379.329	2.35
379.696	2.63
380.062	2.01
380.429	2.49
380.795	2.64
381.161	2.21
381.528	2.29
381.894	1.98
382.26	2.38
382.626	2.4
382.993	2.55
383.359	2.2
383.725	2.4
384.091	2.44
384.457	2.28
384.823	2.39
385.188	2.44
385.554	2.56
385.92	2.68
386.286	2.42
386.651	2.22
387.017	2.59
387.383	2.24
387.748	2.39
388.114	2.24
388.479	2.54
388.845	2.01
389.21	2.21
389.575	2.65
389.94	2
390.306	2.56
390.671	2.84
391.036	1.94
391.401	2.23
391.766	2.36
392.131	2.27
392.496	2.49
392.861	2.26
393.226	2.65
393.591	2.55
393.956	2.45
394.32	2.4
394.685	2.28
395.05	2.71
395.414	2.48
395.779	2.49
396.143	2.49
396.508	2.52
396.872	2.36
397.236	2.46
397.601	2.36
397.965	2.75
398.329	2.48
398.694	2.25
399.058	2.44
399.422	2.43
399.786	2.54
400.15	2.6
400.514	2.6
400.878	2.45
401.242	2.27
401.605	2.44
401.969	2.18
402.333	2.58
402.697	2.21
403.06	2.3
403.424	2.44
403.787	2.43
404.151	2.77
404.514	2.65
404.878	2.49
405.241	2.62
405.604	2.59
405.968	2.7
406.331	2.45
406.694	2.44
407.057	2.13
407.42	2.62
407.783	2.51
408.146	2.58
408.509	2.31
408.872	2.29
409.235	2.38
409.598	2.32
409.961	2.5
410.323	2.58
410.686	2.65
411.049	2.47
411.411	2.59
411.774	2.39
412.136	2.43
412.499	2.55
412.861	2.42
413.223	2.81
413.586	2.44
413.948	2.63
414.31	2.49
414.672	2.39
415.035	2.39
415.397	2.66
415.759	2.81
416.121	2.43
416.483	2.48
416.845	2.25
417.206	2.51
417.568	2.36
417.93	2.57
418.292	2.6
418.653	2.31
419.015	2.53
419.377	2.55
419.738	2.6
420.1	2.5
420.461	2.51
420.822	2.33
421.184	2.44
421.545	2.47
421.906	2.51
422.267	2.37
422.629	2.45
422.99	2.44
423.351	2.39
423.712	2.39
424.073	2.44
424.434	2.46
424.795	2.49
425.155	2.54
425.516	2.4
425.877	2.46
426.238	2.3
426.598	2.41
426.959	2.46
427.32	2.54
427.68	2.5
428.041	2.45
428.401	2.45
428.761	2.55
429.122	2.46
429.482	2.52
429.842	2.51
430.202	2.4
430.563	2.63
430.923	2.58
431.283	2.7
431.643	2.66
432.003	2.54
432.363	2.74
432.722	2.48
433.082	2.7
433.442	2.45
433.802	2.67
434.161	2.35
434.521	2.52
434.881	2.46
435.24	2.54
435.6	2.33
435.959	2.35
436.319	2.47
436.678	2.54
437.037	2.5
437.396	2.38
437.756	2.6
438.115	2.48
438.474	2.61
438.833	2.58
439.192	2.5
439.551	2.54
439.91	2.66
440.269	2.57
440.628	2.51
440.987	2.57
441.345	2.62
441.704	2.57
442.063	2.45
442.421	2.6
442.78	2.56
443.138	2.54
443.497	2.43
443.855	2.57
444.214	2.42
444.572	2.69
444.93	2.59
445.288	2.54
445.647	2.6
446.005	2.53
446.363	2.36
446.721	2.58
447.079	2.44
447.437	2.39
447.795	2.53
448.153	2.5
448.51	2.53
448.868	2.46
449.226	2.47
449.584	2.37
449.941	2.41
450.299	2.56
450.656	2.53
451.014	2.61
451.371	2.6
451.729	2.54
452.086	2.54
452.443	2.63
452.801	2.51
453.158	2.55
453.515	2.69
453.872	2.4
454.229	2.59
454.586	2.52
454.943	2.52
455.3	2.44
455.657	2.44
456.014	2.56
456.371	2.65
456.727	2.71
457.084	2.5
457.441	2.51
457.797	2.67
458.154	2.51
458.51	2.46
458.867	2.73
459.223	2.56
459.58	2.62
459.936	2.63
460.292	2.71
460.648	2.8
461.005	2.58
461.361	2.69
461.717	2.37
462.073	2.56
462.429	2.43
462.785	2.53
463.141	2.57
463.496	2.63
463.852	2.7
464.208	2.64
464.564	2.61
464.919	2.53
465.275	2.64
465.631	2.82
465.986	2.67
466.342	2.7
466.697	2.69
467.052	2.61
467.408	2.75
467.763	2.63
468.118	2.77
468.473	2.76
468.829	2.41
469.184	2.61
469.539	2.65
469.894	2.61
470.249	2.59
470.603	2.61
470.958	2.65
471.313	2.67
471.668	2.7
472.023	2.55
472.377	2.53
472.732	2.44
473.086	2.72
473.441	2.37
473.795	2.82
474.15	2.56
474.504	2.67
474.859	2.71
475.213	2.4
475.567	2.65
475.921	2.73
476.275	2.78
476.63	2.49
476.984	2.59
477.338	2.8
477.692	2.76
478.045	2.77
478.399	2.71
478.753	2.64
479.107	2.57
479.461	2.64
479.814	2.77
480.168	2.62
480.521	2.73
480.875	2.86
481.228	2.7
481.582	2.54
481.935	2.56
482.289	2.65
482.642	2.48
482.995	2.59
483.348	2.65
483.701	2.64
484.055	2.54
484.408	2.51
484.761	2.6
485.114	2.5
485.466	2.47
485.819	2.42
486.172	2.42
486.525	2.39
486.878	2.45
487.23	2.48
487.583	2.54
487.936	2.63
488.288	2.57
488.641	2.57
488.993	2.5
489.345	2.51
489.698	2.47
490.05	2.51
490.402	2.49
490.754	2.49
491.107	2.5
491.459	2.52
491.811	2.57
492.163	2.55
492.515	2.59
492.866	2.55
493.218	2.66
493.57	2.62
493.922	2.43
494.274	2.49
494.625	2.55
494.977	2.59
495.328	2.68
495.68	2.62
496.031	2.61
496.383	2.75
496.734	2.72
497.086	2.58
497.437	2.69
497.788	2.7
498.139	2.75
498.49	2.75
498.842	2.44
499.193	2.56
499.544	2.65
499.894	2.63
500.245	2.67
500.596	2.66
500.947	2.74
501.298	2.74
501.648	2.66
501.999	2.79
502.35	2.7
502.7	2.78
503.051	2.74
503.401	2.74
503.752	2.68
504.102	2.69
504.452	2.77
504.803	2.67
505.153	2.66
505.503	2.72
505.853	2.75
506.203	2.56
506.553	2.72
506.903	2.73
507.253	2.61
507.603	2.76
507.953	2.79
508.303	2.74
508.652	2.64
509.002	2.78
509.352	2.54
509.701	2.69
510.051	2.76
510.4	2.62
510.75	2.68
511.099	2.57
511.449	2.7
511.798	2.76
512.147	2.66
512.496	2.65
512.846	2.7
513.195	2.71
513.544	2.68
513.893	2.73
514.242	2.64
514.591	2.68
514.939	2.78
515.288	2.62
515.637	2.66
515.986	2.62
516.334	2.61
516.683	2.72
517.032	2.9
517.38	2.71
517.729	2.72
518.077	2.74
518.426	2.71
518.774	2.78
519.122	2.64
519.47	2.58
519.819	2.71
520.167	2.75
520.515	2.68
520.863	2.64
521.211	2.6
521.559	2.74
521.907	2.67
522.255	2.68
522.602	2.75
522.95	2.64
523.298	2.79
523.645	2.75
523.993	2.72
524.341	2.69
524.688	2.75
525.036	2.72
525.383	2.82
525.73	2.77
526.078	2.69
526.425	2.81
526.772	2.84
527.119	2.66
527.466	2.64
527.814	2.59
528.161	2.58
528.508	2.7
528.854	2.69
529.201	2.66
529.548	2.72
529.895	2.57
530.242	2.61
530.588	2.51
530.935	2.48
531.282	2.52
531.628	2.58
531.975	2.56
532.321	2.61
532.667	2.69
533.014	2.68
533.36	2.74
533.706	2.67
534.052	2.81
534.399	2.7
534.745	2.69
535.091	2.59
535.437	2.59
535.783	2.55
536.129	2.62
536.474	2.69
536.82	2.59
537.166	2.78
537.512	2.7
537.857	2.73
538.203	2.77
538.549	2.67
538.894	2.6
539.239	2.67
539.585	2.63
539.93	2.77
540.276	2.74
540.621	2.69
540.966	2.65
541.311	2.74
541.656	2.66
542.001	2.71
542.346	2.65
542.691	2.73
543.036	2.66
543.381	2.51
543.726	2.6
544.071	2.61
544.415	2.66
544.76	2.61
545.105	2.54
545.449	2.61
545.794	2.69
546.138	2.73
546.483	2.75
546.827	2.61
547.171	2.68
547.516	2.79
547.86	2.75
548.204	2.75
548.548	2.73
548.892	2.76
549.236	2.67
549.58	2.66
549.924	2.82
550.268	2.75
550.612	2.79
550.956	2.83
551.3	2.82
551.643	2.8
551.987	2.75
552.33	2.9
552.674	2.76
553.017	2.62
553.361	2.6
553.704	2.88
554.048	2.85
554.391	2.75
554.734	2.83
555.077	2.66
555.42	2.77
555.764	2.67
556.107	2.81
556.45	2.88
556.793	2.65
557.135	2.85
557.478	2.67
557.821	2.74
558.164	2.88
558.507	2.97
558.849	2.62
559.192	2.86
559.534	2.78
559.877	2.85
560.219	2.84
560.562	2.83
560.904	2.9
561.246	2.93
561.589	3.02
561.931	2.74
562.273	2.66
562.615	2.65
562.957	2.63
563.299	2.85
563.641	2.87
563.983	2.89
564.325	2.91
564.667	2.8
565.008	2.76
565.35	2.81
565.692	2.85
566.033	2.84
566.375	2.95
566.716	2.93
567.058	2.71
567.399	2.91
567.741	2.97
568.082	2.78
568.423	2.93
568.764	2.92
569.105	2.67
569.447	2.75
569.788	2.69
570.129	2.71
570.47	3.04
570.811	2.78
571.151	2.94
571.492	2.75
571.833	2.67
572.174	2.82
572.514	2.81
572.855	2.77
573.195	2.66
573.536	2.8
573.876	2.81
574.217	2.79
574.557	2.7
574.898	2.96
575.238	2.87
575.578	2.84
575.918	2.84
576.258	2.71
576.598	2.94
576.938	2.88
577.278	2.78
577.618	2.73
577.958	2.91
578.298	2.95
578.638	2.75
578.977	2.85
579.317	2.93
579.657	2.77
579.996	3
580.336	2.98
580.675	2.78
581.014	2.64
581.354	2.74
581.693	2.93
582.032	2.7
582.372	3
582.711	2.84
583.05	2.75
583.389	2.76
583.728	2.89
584.067	2.89
584.406	2.87
584.745	2.77
585.083	3.07
585.422	3.19
585.761	2.74
586.1	2.82
586.438	2.92
586.777	3
587.115	2.84
587.454	2.63
587.792	2.79
588.13	2.86
588.469	2.75
588.807	3.06
589.145	3
589.483	2.6
589.821	2.8
590.159	3
590.497	3
590.835	2.92
591.173	2.85
591.511	2.95
591.849	3.01
592.187	2.85
592.524	3.02
592.862	2.79
593.2	2.8
593.537	2.84
593.875	2.69
594.212	2.88
594.55	2.94
594.887	3.08
595.224	2.87
595.561	3.17
595.899	2.87
596.236	3.14
596.573	3.02
596.91	2.92
597.247	2.85
597.584	2.83
597.921	3.14
598.258	3
598.594	3.13
598.931	2.83
599.268	2.76
599.604	2.96
599.941	3
600.277	2.81
600.614	2.81
600.95	2.95
601.287	2.92
601.623	2.92
601.959	3.11
602.296	2.87
602.632	2.74
602.968	2.83
603.304	2.85
603.64	2.94
603.976	3.03
604.312	2.93
604.648	3.07
604.984	2.99
605.319	2.77
605.655	2.9
605.991	2.86
606.326	2.92
606.662	2.75
606.998	2.89
607.333	2.97
607.668	2.83
608.004	2.88
608.339	2.91
608.674	2.98
609.01	2.82
609.345	3.02
609.68	2.9
610.015	2.93
610.35	2.89
610.685	3.1
611.02	3.06
611.355	3.02
611.689	2.86
612.024	2.75
612.359	2.85
612.694	2.77
613.028	2.91
613.363	2.87
613.697	2.9
614.032	2.94
614.366	2.89
614.7	2.8
615.035	2.8
615.369	2.62
615.703	2.93
616.037	2.86
616.371	3.05
616.705	2.9
617.039	2.83
617.373	2.95
617.707	2.86
618.041	3.14
618.375	3.07
618.709	3.11
619.042	3.23
619.376	3.05
619.71	3.22
620.043	2.39
620.377	2.64
620.71	3.04
621.043	2.96
621.377	2.84
621.71	3.09
622.043	2.95
622.376	3.06
622.709	3.12
623.043	3.11
623.376	3.2
623.709	2.99
624.041	3.06
624.374	3.02
624.707	3.13
625.04	3.23
625.373	2.78
625.705	2.98
626.038	2.84
626.37	3.18
626.703	3
627.035	3.09
627.368	3.24
627.7	3.25
628.032	3.17
628.365	3.14
628.697	3.03
629.029	3.03
629.361	2.99
629.693	3.18
630.025	3.02
630.357	2.74
630.689	2.92
631.021	2.88
631.353	2.93
631.684	2.76
632.016	3.29
632.348	2.93
632.679	2.83
633.011	2.89
633.342	3.02
633.674	3.04
634.005	2.93
634.336	3.13
634.668	3.13
634.999	3.2
635.33	3.19
635.661	3.32
635.992	3
636.323	2.69
636.654	3.29
636.985	2.77
637.316	2.95
637.647	3.05
637.977	2.54
638.308	3.18
638.639	3.31
638.969	3.13
639.3	3.17
639.63	3.35
639.961	2.72
640.291	2.53
640.622	3.23
640.952	3.3
641.282	3.19
641.612	3.09
641.943	3.16
642.273	3.26
642.603	2.8
642.933	3.19
643.263	2.75
643.592	3.06
643.922	3.23
644.252	2.71
644.582	3.17
644.911	3.25
645.241	3.19
645.571	3.07
645.9	3.22
646.23	3.26
646.559	3.36
646.888	3.15
647.218	2.69
647.547	3.28
647.876	2.97
648.205	3
648.534	3.34
648.863	2.81
649.192	2.89
649.521	3.48
649.85	3.4
650.179	3.32
650.508	3.16
650.837	3.09
651.165	2.75
651.494	2.93
651.822	3.04
652.151	3.01
652.479	3.08
652.808	3.01
653.136	3.64
653.465	3.31
653.793	2.8
654.121	3.6
654.449	2.68
654.777	3.02
655.105	3.28
655.433	2.94
655.761	3.63
656.089	3.44
656.417	3.16
656.745	3.09
657.073	2.78
657.4	3.59
657.728	3.49
658.056	2.81
658.383	3.52
658.711	3.01
659.038	2.93
659.365	2.97
659.693	2.63
660.02	3.3
660.347	3.34
660.674	2.74
661.001	2.55
661.329	2.73
661.656	3.11
661.982	2.82
662.309	3.15
662.636	3
662.963	3.23
663.29	3.42
663.616	3.24
663.943	3.53
664.27	3.14
664.596	3.08
664.923	3
665.249	3.03
665.576	2.46
665.902	3.06
666.228	3.01
666.554	2.98
666.881	3.25
667.207	2.85
667.533	2.87
667.859	3.16
668.185	3.58
668.511	3.69
668.837	3.35
669.162	2.65
669.488	3.29
669.814	3.1
670.139	3.65
670.465	3.62
670.791	3.5
671.116	2.92
671.442	3.85
671.767	2.81
672.092	3.19
672.418	3.71
672.743	2.84
673.068	3.67
673.393	3.1
673.718	3.34
674.043	3.72
674.368	3.12
674.693	3.38
675.018	3.09
675.343	2.99
675.667	3.25
675.992	3.27
676.317	3.18
676.641	3.06
676.966	3.66
677.29	3.46
677.615	3.11
677.939	3.41
678.264	3.24
678.588	4.04
678.912	3.51
679.236	3.38
679.56	3.41
679.885	3.64
680.209	3.93
680.532	3.13
680.856	3.12
681.18	2.89
681.504	3.79
681.828	3.26
682.152	3.05
682.475	3.48
682.799	3.4
683.122	3.24
683.446	3
683.769	3.52
684.093	3.7
684.416	3.11
684.739	3.61
685.062	3.88
685.386	3.43
685.709	3.18
686.032	3.6
686.355	2.87
686.678	3.31
687.001	2.96
687.324	3.46
687.646	3.49
687.969	3.41
688.292	3.54
688.614	3.41
688.937	3.34
689.26	3.09
689.582	3.56
689.904	3.38
690.227	3.92
690.549	3.45
690.871	2.78
691.194	3.83
691.516	3.81
691.838	3.36
692.16	3.23
692.482	3.43
692.804	2.97
693.126	3.24
693.448	4.07
693.769	3.35
694.091	3.66
694.413	3.76
694.735	3.62
695.056	4.76
695.378	4.43
695.699	3.19
696.021	3.02
696.342	3.82
696.663	2.59
696.984	3.16
697.306	3.73
697.627	2.38
697.948	3.54
698.269	3.82
698.59	3.28
698.911	3.07
699.232	3.73
699.553	3.51
699.873	4.12
700.194	2.85
700.515	3.03
700.835	3.61
701.156	3.76
701.477	3.34
701.797	2.79
702.117	3.62
702.438	3.86
702.758	2.86
703.078	3.96
703.398	3.53
703.719	3.28
704.039	3.96
704.359	3.19
704.679	2.91
704.999	4.57
705.319	3.05
705.638	3.51
705.958	3.78
706.278	4.76
706.597	3.58
706.917	3.94
707.237	3.66
707.556	3.28
707.876	2.97
708.195	3.85
708.514	4.49
708.834	3.1
709.153	4.81
709.472	3.04
709.791	3.59
710.11	3.41
710.429	4.02
710.748	3.71
711.067	3.19
711.386	4.01
711.705	3.35
712.023	3.53
712.342	4.22
712.661	3.87
712.979	4.19
713.298	3.14
713.616	3.13
713.935	3.4
714.253	4.96
714.572	4.21
714.89	4.01
715.208	3.78
715.526	3.55
715.844	3.13
716.162	3.78
716.48	4.35
716.798	3.2
717.116	4.36
717.434	3.6
717.752	3.98
718.069	2.77
718.387	3.27
718.705	3.47
719.022	3.53
719.34	3.96
719.657	3.13
719.975	4.6
720.292	4.1
720.609	4.4
720.927	4.96
721.244	4.75
721.561	4.03
721.878	3.75
722.195	4.63
722.512	4.47
722.829	4.62
723.146	4.7
723.463	3.53
723.779	3.32
724.096	3.05
724.413	4.91
724.729	3.75
725.046	3.16
725.362	4.03
725.679	4.21
725.995	5.45
726.311	3.5
726.628	2.54
726.944	3.57
727.26	2.88
727.576	3.36
727.892	3.02
728.208	4
728.524	4.29
728.84	3.52
729.156	3.73
729.472	4.89
729.787	4.33
730.103	3.35
730.419	3.95
730.734	3.6
731.05	2.62
731.365	3.69
731.681	3.07
731.996	4.28
732.311	3.51
732.626	3.74
732.942	4.57
733.257	3.05
733.572	3.87
733.887	3.44
734.202	5.01
734.517	4.46
734.832	4.65
735.146	4.56
735.461	4.12
735.776	4.62
736.091	4.33
736.405	4.05
736.72	3.76
737.034	2.8
737.349	2.64
737.663	4.33
737.977	4.57
738.292	3.56
738.606	2.92
738.92	4.87
739.234	3.2
739.548	3.94
739.862	2.6
740.176	3.84
740.49	5.14
740.804	4.1
741.117	4.13
741.431	3.62
741.745	3.95
742.058	3.87
742.372	1.75
742.685	3.09
742.999	3.05
743.312	4.4
743.626	1.82
743.939	4.83
744.252	3.27
744.565	3.49
744.878	3.71
745.191	2.68
745.505	2.59
745.817	3.79
746.13	5.88
746.443	6.29
746.756	4.99
747.069	4.86
747.381	2.32
747.694	3.5
748.007	5.77
748.319	4.05
748.632	3.71
748.944	5.56
749.256	4.41
749.569	3.34
749.881	5.82
750.193	5.27
750.505	5.51
750.817	5.18
751.129	3.45
751.441	5.19
751.753	6.18
752.065	6.15
752.377	5.3
752.689	4.41
753	3.28
753.312	3.26
753.624	5.23
753.935	5.08
754.247	2.72
754.558	5.73
754.869	5.47
755.181	4.35
755.492	3.28
755.803	5.7
756.114	5.63
756.425	6.94
756.736	2.9
757.047	3.37
757.358	4.49
757.669	2.9
757.98	4.24
758.291	4.25
758.601	4.67
758.912	4.5
759.223	5.63
759.533	4.71
759.844	5.52
760.154	4.17
760.464	3.13
760.775	3.47
761.085	3.35
761.395	3.92
761.705	3.29
762.016	3.17
762.326	3.97
762.636	4.8
762.945	3.53
763.255	4.32
763.565	3.71
763.875	4.71
764.185	6.57
764.494	6.27
764.804	4.05
765.113	5.07
765.423	5.1
765.732	3.96
766.042	5.7
766.351	4.03
766.66	3.77
766.97	4.28
767.279	4.46
767.588	4.52
767.897	4.15
768.206	4.19
768.515	4.8
768.824	4.97
769.133	6.01
769.441	5.11
769.75	7.76
770.059	4.23
770.367	2.58
770.676	6.71
770.984	3.7
771.293	5.98
771.601	8.61
771.91	6.42
772.218	3.19
772.526	6.12
772.834	6.32
773.142	4.99
773.45	5.98
773.758	7.83
774.066	4.8
774.374	4.13
774.682	4.57
774.99	5.03
775.298	6.86
775.605	5.94
775.913	8.47
776.22	4.69
776.528	3.08
776.835	2.85
777.143	5.2
777.45	5.83
777.757	2.91
778.065	5.86
778.372	6.01
778.679	5.29
778.986	5.4
779.293	4.7
779.6	0.82
779.907	6.24
780.214	9.42
780.52	2.51
780.827	8.02
781.134	6.68
781.44	6.9
781.747	5.88
782.053	7.4
782.36	4.43
782.666	2.54
782.973	5.06
783.279	3.28
783.585	7.25
783.891	5.24
784.197	6.43
784.503	6.2
784.809	3.28
785.115	3.2
785.421	6.87
785.727	6.7
786.033	6.29
786.339	4.81
786.644	6.84
786.95	6.74
787.255	5.73
787.561	7.62
787.866	6.16
788.172	7.46
788.477	3.94
788.782	4.4
789.088	4.56
789.393	3.47
789.698	5.17
790.003	4.84
790.308	2.52
790.613	4.31
790.918	3.08
791.223	2.28
791.527	6.16
791.832	5.13
792.137	3.28
792.441	7.57
792.746	2.69
793.05	5.74
793.355	9.3
793.659	5.07
793.963	9.56
794.268	4.55
794.572	5.04
794.876	4.44
795.18	3.99
795.484	6.04
795.788	7.31
796.092	3.69
796.396	9.37
796.7	5.96
797.004	5.62
797.307	2.43
797.611	1.36
797.915	4.88
798.218	8.3
798.522	7.23
798.825	4.02
799.128	9.54
799.432	4.79
799.735	7.1
800.038	8.12
800.341	5.97
800.644	8.7
800.947	4.98
801.25	5.03
801.553	10.17
801.856	10.44
802.159	3.28
802.462	3.31
802.764	9.47
803.067	3.48
803.37	11.73
803.672	5.1
803.975	3.04
804.277	10.9
804.579	7.59
804.882	7.5
805.184	7.04
805.486	0.94
805.788	6.03
806.09	10.82
806.392	3.28
806.694	4.8
806.996	4.29
807.298	11.26
807.6	8.2
807.902	2.74
808.203	5.42
808.505	6.57
808.807	11.04
809.108	9.48
809.409	11.44
809.711	4.43
810.012	11.44
810.313	6.5
810.615	5.35
810.916	10.45
811.217	5.32
811.518	7.88
811.819	9.97
812.12	3.78
812.421	8.15
812.722	8.51
813.023	8.63
813.323	4.5
813.624	7.18
813.925	9.44
814.225	9.54
814.526	10.21
814.826	6.73
815.126	7.64
815.427	12.49
815.727	3.28
816.027	5.64
816.327	7.42
816.627	3.25
816.927	9.64
817.227	8.02
817.527	6.19
817.827	2.51
818.127	2.09
818.427	15.12
818.727	6.98
819.026	13.17
819.326	4.81
819.625	6.58
819.925	10.89
820.224	8.23
820.524	-0.66
820.823	6.45
821.122	-0.88
821.421	7.28
821.72	12.59
822.019	8.92
822.318	8.33
822.617	7.74
822.916	8.95
823.215	10.02
823.514	3.69
823.813	7.44
824.111	8.98
824.41	7.04
824.709	4.73
825.007	4.78
825.306	6.28
825.604	4.94
825.902	6.09
826.201	5.78
826.499	5.81
826.797	5.64
827.095	7.4
827.393	6.61
827.691	6.72
827.989	5.54
828.287	6.55
828.585	7.05
828.882	6.04
829.18	4.09
829.478	5.63
829.775	6.77
830.073	3.49
830.37	4.88
830.668	5.21
830.965	6.7
831.263	5.06
831.56	6.86
831.857	5.57
832.154	6.09
832.451	3.42
832.748	7.9
833.045	5.98
833.342	7.4
833.639	8.49
833.936	9.2
834.232	5.45
834.529	9.55
834.826	10.29
835.122	6.66
835.419	6.99
835.715	8.51
836.012	6.59
836.308	10.56
836.604	11.57
836.901	5.32
837.197	7.71
837.493	7.14
837.789	7.99
838.085	6.49
838.381	7.19
838.677	8.55
838.972	9.87
839.268	9.56
839.564	10.04
839.86	7.02
840.155	4.77
840.451	5.88
840.746	3.54
841.042	4.62
841.337	11.93
841.632	11.62
841.928	8.76
842.223	10.87
842.518	7.68
842.813	16.03
843.108	11.98
843.403	12.46
843.698	9.12
843.993	4.23
844.287	11.48
844.582	9.13
844.877	-3.13
845.171	8.77
845.466	1.36
845.761	11.25
846.055	2.02
846.349	-4.12
846.644	8.23
846.938	15.97
847.232	11.08
847.526	11.43
847.82	8.43
848.114	2.98
848.408	9.62
848.702	16.15
848.996	15.91
849.29	13
849.584	6.7
849.877	12.34
850.171	1.05
850.465	9.52
850.758	12.41
851.052	-0.02
851.345	18.59
851.638	-4.13
851.932	9.91
852.225	15.64
852.518	22.02
852.811	5.72
853.104	5.17
853.397	14.44
853.69	15.95
853.983	25.66
854.276	3.07
854.569	12.99
854.861	5.07
855.154	-6.51
855.447	1.38
855.739	-3.08
856.032	27.61
856.324	9.77
856.616	18.89
856.909	9.63
857.201	-1.54
857.493	12.51
857.785	8.6
858.077	27.3
858.369	-9.88
858.661	26.61
858.953	19.48
859.245	24.23
859.537	10.27
859.829	8.96
860.12	10.7
860.412	7.31
860.703	10.43
860.995	-4.39
861.286	-1.42
861.578	27.88
861.869	0.57
862.16	-18.82
862.452	-6.77
862.743	24.84
863.034	28.14
863.325	16.25
863.616	-12.13
863.907	-10.38
864.198	8.68
864.488	-13.15
864.779	-2.66
865.07	-4.97
865.36	12.48
865.651	5.06
865.941	-5.46
866.232	5.5
866.522	16.63
866.813	19.9
867.103	26.83
867.393	-24.32
867.683	21.36
867.973	20.77
868.263	-7.44
868.553	-2.31
868.843	14.58
869.133	17.13
869.423	28.95
869.713	25.94
870.002	26.9
870.292	6.43
870.582	14.93
870.871	-8.07
871.161	-7.28
871.45	14.17
871.739	20.79
872.029	-9.84
872.318	19.49
872.607	3.18
872.896	-7.52
873.185	6.94
873.474	66.1
873.763	1.25
874.052	8.72
874.341	12.15
874.63	25.93
874.918	3.98
875.207	47.5
875.496	18.76
875.784	35.95
876.073	2.93
876.361	-17.82
876.649	5.96
876.938	40.2
877.226	11.86
877.514	9.7
877.802	-1.73
878.09	9.16
878.378	13.75
878.666	31.55
878.954	44.04
879.242	17.51
879.53	7.68
879.817	37.08
880.105	-11.53
880.392	13.22
880.68	14.1
880.967	32.93
881.255	27.3
881.542	11.73
881.83	37.43
882.117	2.07
882.404	30.83
882.691	8.84
882.978	7.1
883.265	10.04
883.552	11.83
883.839	-14.64
884.126	21.25
884.413	9.53
884.699	14.34
884.986	11.66
885.273	10.29
885.559	10.29
885.846	10.29
