Data from 0237_crown_Reflection__1__69.txt Node

Date: Fri Oct 20 21:12:12 CDT 2023
User: ToomeyLab
Spectrometer: FLMS14357
Trigger mode: 0
Integration Time (sec): 1.000000E-2
Scans to average: 100
Electric dark correction enabled: true
Nonlinearity correction enabled: false
Boxcar width: 0
XAxis mode: Wavelengths
Number of Pixels in Spectrum: 2048
>>>>>Begin Spectral Data<<<<<
189.047	-104.64
189.435	-104.64
189.823	-104.64
190.211	-457.94
190.599	-604.54
190.987	65.87
191.375	-318.87
191.763	297.58
192.151	-270.06
192.538	899.47
192.926	-192.49
193.314	58.5
193.702	17.77
194.089	27.95
194.477	158.21
194.864	14.39
195.252	262.04
195.639	505.71
196.027	342.83
196.414	221.23
196.801	-5.64
197.189	91.14
197.576	25.69
197.963	3696.41
198.351	57.85
198.738	11.22
199.125	22.98
199.512	54.75
199.899	-3.22
200.286	37.09
200.673	43.33
201.06	55.61
201.447	24.63
201.833	43.43
202.22	9.59
202.607	39.26
202.994	55.03
203.38	60.04
203.767	22.9
204.154	34.57
204.54	52.74
204.927	23.15
205.313	21.88
205.699	46.82
206.086	14.31
206.472	22.61
206.858	34.46
207.245	25.5
207.631	49.55
208.017	29.16
208.403	41.14
208.789	37.74
209.175	44.16
209.561	20.92
209.947	34.34
210.333	14.83
210.719	4.85
211.105	22.45
211.491	59.12
211.876	42.79
212.262	34.09
212.648	54.33
213.034	0.57
213.419	38.92
213.805	12.23
214.19	-8.33
214.576	30.5
214.961	44.35
215.346	52.86
215.732	27.61
216.117	-22.26
216.502	24.65
216.888	20.82
217.273	16.38
217.658	7.44
218.043	13.06
218.428	-4.56
218.813	1.21
219.198	14.81
219.583	-13.03
219.968	-10.07
220.353	32.75
220.738	12.98
221.122	17.53
221.507	20.27
221.892	5.92
222.276	15.63
222.661	18.09
223.046	6.17
223.43	4.25
223.815	17.16
224.199	17.4
224.583	-5.17
224.968	7.85
225.352	13.13
225.736	8.96
226.121	12.9
226.505	3.45
226.889	11.43
227.273	12.46
227.657	12.27
228.041	10.88
228.425	6.38
228.809	9.41
229.193	7.2
229.577	9.74
229.961	6.64
230.344	6.65
230.728	7.39
231.112	7.77
231.495	6.58
231.879	7.26
232.263	8.31
232.646	6.14
233.03	5.11
233.413	6.69
233.797	7.63
234.18	5.53
234.563	8.32
234.946	8.91
235.33	7.33
235.713	6.9
236.096	8.76
236.479	7.87
236.862	8.22
237.245	5.55
237.628	7.22
238.011	7.76
238.394	5.88
238.777	9.64
239.16	7.06
239.543	7.69
239.925	7.79
240.308	8.26
240.691	7.69
241.073	6.94
241.456	7.89
241.838	7.27
242.221	7.58
242.603	7.17
242.986	6.95
243.368	6.62
243.75	6.24
244.133	6.82
244.515	6.51
244.897	6.52
245.279	5.89
245.661	5.99
246.043	6.12
246.425	6.61
246.807	6.59
247.189	6.87
247.571	5.98
247.953	6.12
248.335	6.47
248.717	5.85
249.098	6.04
249.48	6.06
249.862	6.08
250.243	6.34
250.625	6.4
251.006	6.29
251.388	6.01
251.769	6.25
252.151	5.29
252.532	6.22
252.913	6.87
253.295	5.04
253.676	6.27
254.057	5.69
254.438	6.19
254.819	6.16
255.2	6.06
255.581	5.69
255.962	5.43
256.343	6.76
256.724	5.48
257.105	7.04
257.486	6.65
257.867	6.52
258.247	6.91
258.628	5.66
259.009	5.97
259.389	5.25
259.77	5.08
260.15	5.77
260.531	5.64
260.911	5.98
261.292	5.66
261.672	5.74
262.052	5.62
262.432	5.58
262.813	5.59
263.193	5.91
263.573	5.88
263.953	5.48
264.333	5.41
264.713	5.77
265.093	6.15
265.473	5.98
265.853	5.58
266.233	6
266.612	6.18
266.992	5.85
267.372	5.44
267.752	5.62
268.131	5.8
268.511	5.86
268.89	5.87
269.27	5.31
269.649	5.04
270.029	5.67
270.408	5.99
270.787	5.54
271.167	5.6
271.546	5.44
271.925	6.11
272.304	5.1
272.683	5.64
273.062	5.76
273.441	5.67
273.82	5.54
274.199	5.53
274.578	5.33
274.957	5.51
275.336	5.61
275.715	5.73
276.093	5.02
276.472	5.7
276.851	5.92
277.229	5.33
277.608	4.74
277.986	5.23
278.365	5.74
278.743	5.32
279.122	4.9
279.5	5.49
279.878	4.9
280.257	5.53
280.635	5.52
281.013	5.82
281.391	5.57
281.769	5.01
282.147	4.77
282.525	5.29
282.903	5.24
283.281	5.31
283.659	5.11
284.037	5.16
284.415	4.72
284.792	4.75
285.17	5.67
285.548	5.28
285.925	4.99
286.303	4.97
286.68	4.93
287.058	5.56
287.435	4.93
287.813	4.43
288.19	4.98
288.567	5.05
288.945	5.28
289.322	5.02
289.699	4.25
290.076	5.58
290.453	5.1
290.83	4.9
291.207	5.34
291.584	5.02
291.961	4.65
292.338	4.88
292.715	4.77
293.092	4.66
293.469	4.88
293.845	5.13
294.222	4.98
294.599	4.9
294.975	5.46
295.352	5.01
295.728	5.07
296.105	4.63
296.481	4.63
296.858	4.87
297.234	5.03
297.61	4.31
297.986	4.42
298.363	4.81
298.739	4.63
299.115	4.63
299.491	4.97
299.867	4.61
300.243	4.58
300.619	4.54
300.995	4.49
301.371	4.73
301.746	4.5
302.122	5.18
302.498	4.71
302.874	4.24
303.249	4.6
303.625	4.37
304	4.89
304.376	4.66
304.751	3.97
305.127	4.16
305.502	4.5
305.878	4.5
306.253	4.49
306.628	4.66
307.003	4.78
307.378	4.48
307.754	4.59
308.129	4.78
308.504	4.69
308.879	4.09
309.254	4.65
309.629	4.48
310.003	3.96
310.378	4.89
310.753	4.39
311.128	4.83
311.502	4.45
311.877	4.53
312.252	4.11
312.626	4.8
313.001	4.06
313.375	4.52
313.75	4.33
314.124	3.99
314.498	4.3
314.873	4.42
315.247	4.45
315.621	4.2
315.995	4.24
316.369	4.52
316.743	4.35
317.117	4.31
317.491	3.89
317.865	4.48
318.239	4.47
318.613	4.2
318.987	4.48
319.361	4.15
319.734	4
320.108	4.04
320.482	4.68
320.855	4.13
321.229	4.76
321.602	4.36
321.976	4.33
322.349	5.1
322.723	3.87
323.096	4.82
323.469	4.12
323.843	4.13
324.216	4.56
324.589	4.4
324.962	4.63
325.335	4.86
325.708	4.21
326.081	4.26
326.454	4.63
326.827	4.61
327.2	4.63
327.573	4.56
327.945	4.2
328.318	4.2
328.691	4.17
329.063	4.8
329.436	3.83
329.809	4.56
330.181	4.28
330.553	4.61
330.926	3.99
331.298	3.85
331.671	3.96
332.043	4.19
332.415	4.31
332.787	4.28
333.159	4.1
333.532	4.59
333.904	4.3
334.276	4.09
334.648	4.45
335.02	4.97
335.391	3.97
335.763	4.75
336.135	4.59
336.507	4.73
336.879	4.53
337.25	4.84
337.622	4.52
337.993	4.77
338.365	4.72
338.736	4.4
339.108	4.74
339.479	4.46
339.851	4.31
340.222	4.11
340.593	3.67
340.964	4.16
341.336	4.22
341.707	4.23
342.078	4.12
342.449	4.18
342.82	3.97
343.191	4.21
343.562	4.17
343.933	4.73
344.303	4.23
344.674	4.45
345.045	4.76
345.416	4.63
345.786	4.43
346.157	4.32
346.527	3.99
346.898	4.49
347.268	4.38
347.639	4.44
348.009	4.05
348.38	4.59
348.75	4.57
349.12	4.61
349.49	4.4
349.861	4.45
350.231	4.1
350.601	4.16
350.971	4.07
351.341	4.37
351.711	4.77
352.081	4.51
352.45	4.33
352.82	4.58
353.19	4.67
353.56	4.52
353.929	4.31
354.299	4.64
354.669	4.12
355.038	4.57
355.408	4.54
355.777	4.42
356.147	4.32
356.516	4.48
356.885	4.61
357.254	4.68
357.624	4.32
357.993	4
358.362	4.43
358.731	3.8
359.1	3.82
359.469	4.29
359.838	4.47
360.207	4.36
360.576	4.8
360.945	4.02
361.314	4.14
361.682	4.19
362.051	4.48
362.42	4.21
362.788	4.52
363.157	4.42
363.525	4.36
363.894	4.44
364.262	4.17
364.631	4.39
364.999	4.55
365.367	4.37
365.735	4.45
366.104	4.54
366.472	4.5
366.84	4.69
367.208	4.67
367.576	4.3
367.944	4.66
368.312	4.34
368.68	4.67
369.048	4.91
369.416	4.77
369.783	4.69
370.151	4.64
370.519	4.57
370.886	4.86
371.254	4.7
371.621	4.77
371.989	4.33
372.356	4.63
372.724	4.69
373.091	4.63
373.458	4.42
373.826	4.43
374.193	4.61
374.56	4.45
374.927	4.62
375.294	4.58
375.661	4.83
376.028	4.98
376.395	4.82
376.762	4.46
377.129	4.83
377.496	4.67
377.863	4.67
378.229	4.99
378.596	4.87
378.963	4.6
379.329	4.83
379.696	4.78
380.062	4.86
380.429	4.43
380.795	4.62
381.161	4.71
381.528	5.13
381.894	4.56
382.26	4.8
382.626	5.04
382.993	4.74
383.359	4.58
383.725	4.79
384.091	4.9
384.457	5
384.823	4.69
385.188	5.11
385.554	4.63
385.92	4.73
386.286	5.14
386.651	4.6
387.017	5.04
387.383	4.46
387.748	4.36
388.114	4.36
388.479	4.8
388.845	5.09
389.21	4.64
389.575	4.55
389.94	4.65
390.306	4.8
390.671	4.81
391.036	4.7
391.401	4.82
391.766	4.94
392.131	4.84
392.496	4.83
392.861	5.03
393.226	4.74
393.591	4.79
393.956	4.74
394.32	4.91
394.685	4.9
395.05	4.94
395.414	5
395.779	4.97
396.143	4.66
396.508	4.9
396.872	5.05
397.236	4.79
397.601	4.85
397.965	4.74
398.329	4.86
398.694	4.99
399.058	4.57
399.422	4.69
399.786	4.89
400.15	4.93
400.514	4.75
400.878	4.99
401.242	5.09
401.605	4.94
401.969	4.67
402.333	5.02
402.697	5.18
403.06	4.98
403.424	4.88
403.787	4.88
404.151	4.76
404.514	4.82
404.878	5.09
405.241	4.97
405.604	4.75
405.968	5.1
406.331	4.91
406.694	5
407.057	4.91
407.42	5.07
407.783	5.01
408.146	5.14
408.509	4.91
408.872	5.14
409.235	4.89
409.598	5.23
409.961	5.04
410.323	4.96
410.686	4.86
411.049	5.11
411.411	4.76
411.774	4.9
412.136	4.91
412.499	5.1
412.861	5.14
413.223	4.92
413.586	5.27
413.948	5.09
414.31	5.16
414.672	4.93
415.035	5.07
415.397	5.28
415.759	5.29
416.121	5.14
416.483	5.06
416.845	4.93
417.206	5.1
417.568	4.94
417.93	5.19
418.292	4.85
418.653	5.23
419.015	5.02
419.377	5.09
419.738	5.13
420.1	4.95
420.461	5.07
420.822	4.91
421.184	4.98
421.545	5.02
421.906	5.02
422.267	4.89
422.629	4.99
422.99	4.81
423.351	4.91
423.712	4.93
424.073	5.02
424.434	4.89
424.795	4.93
425.155	4.96
425.516	4.95
425.877	5
426.238	4.95
426.598	4.95
426.959	4.92
427.32	4.86
427.68	4.99
428.041	4.98
428.401	5.08
428.761	5.09
429.122	5.05
429.482	5.13
429.842	5.1
430.202	5.06
430.563	5.14
430.923	5.22
431.283	5.03
431.643	5.22
432.003	5.28
432.363	5.19
432.722	5.17
433.082	5.05
433.442	5.11
433.802	5.22
434.161	5.12
434.521	5.31
434.881	5.14
435.24	5.3
435.6	5.06
435.959	5.12
436.319	5.13
436.678	5.15
437.037	5.02
437.396	5.37
437.756	5.21
438.115	5.06
438.474	5.27
438.833	5.23
439.192	5.1
439.551	5.23
439.91	5.16
440.269	5.2
440.628	5.17
440.987	5.04
441.345	5.02
441.704	5.09
442.063	5.07
442.421	5.04
442.78	5
443.138	5.2
443.497	5.13
443.855	5.12
444.214	5.09
444.572	5.11
444.93	5.26
445.288	5.26
445.647	5.26
446.005	4.95
446.363	5.2
446.721	5.19
447.079	5.26
447.437	5.08
447.795	5.01
448.153	4.99
448.51	5.06
448.868	5.07
449.226	5.1
449.584	5.15
449.941	5.05
450.299	5.14
450.656	5.03
451.014	5.09
451.371	5.26
451.729	5.12
452.086	5.21
452.443	5.22
452.801	5.09
453.158	5.33
453.515	5.11
453.872	5.3
454.229	5.28
454.586	5.32
454.943	5.17
455.3	5.11
455.657	5.23
456.014	5.26
456.371	5.23
456.727	5.21
457.084	5.16
457.441	5.27
457.797	5.24
458.154	5.2
458.51	5.32
458.867	5.4
459.223	5.43
459.58	5.27
459.936	5.23
460.292	5.24
460.648	5.13
461.005	5.06
461.361	5.15
461.717	5.03
462.073	5.03
462.429	5.1
462.785	5.08
463.141	5.29
463.496	5.13
463.852	5.23
464.208	5.32
464.564	5.35
464.919	5.26
465.275	5.38
465.631	5.21
465.986	5.28
466.342	5.53
466.697	5.44
467.052	5.39
467.408	5.32
467.763	5.4
468.118	5.46
468.473	5.32
468.829	5.23
469.184	5.33
469.539	5.43
469.894	5.29
470.249	5.31
470.603	5.35
470.958	5.46
471.313	5.48
471.668	5.39
472.023	5.37
472.377	5.31
472.732	5.45
473.086	5.43
473.441	5.45
473.795	5.54
474.15	5.29
474.504	5.19
474.859	5.21
475.213	5.45
475.567	5.32
475.921	5.36
476.275	5.33
476.63	5.53
476.984	5.26
477.338	5.24
477.692	5.25
478.045	5.33
478.399	5.25
478.753	5.39
479.107	5.34
479.461	5.3
479.814	5.5
480.168	5.38
480.521	5.39
480.875	5.18
481.228	5.41
481.582	5.41
481.935	5.34
482.289	5.29
482.642	5.3
482.995	5.3
483.348	5.33
483.701	5.25
484.055	5.31
484.408	5.14
484.761	5.21
485.114	5.06
485.466	5.04
485.819	4.97
486.172	4.92
486.525	4.91
486.878	4.94
487.23	5.07
487.583	5.05
487.936	5.07
488.288	5.09
488.641	5.13
488.993	5.06
489.345	5.03
489.698	5.02
490.05	5.02
490.402	5.03
490.754	5.07
491.107	5.06
491.459	5.13
491.811	5.16
492.163	5.1
492.515	5.15
492.866	5.22
493.218	5.11
493.57	5.08
493.922	5.04
494.274	5.1
494.625	5.09
494.977	5.12
495.328	5.16
495.68	5.24
496.031	5.16
496.383	5.35
496.734	5.35
497.086	5.36
497.437	5.35
497.788	5.21
498.139	5.49
498.49	5.22
498.842	5.19
499.193	5.26
499.544	5.31
499.894	5.34
500.245	5.27
500.596	5.32
500.947	5.32
501.298	5.36
501.648	5.19
501.999	5.34
502.35	5.4
502.7	5.52
503.051	5.36
503.401	5.45
503.752	5.4
504.102	5.44
504.452	5.38
504.803	5.32
505.153	5.43
505.503	5.4
505.853	5.44
506.203	5.29
506.553	5.36
506.903	5.38
507.253	5.35
507.603	5.39
507.953	5.31
508.303	5.36
508.652	5.23
509.002	5.5
509.352	5.36
509.701	5.36
510.051	5.21
510.4	5.43
510.75	5.36
511.099	5.27
511.449	5.31
511.798	5.39
512.147	5.27
512.496	5.36
512.846	5.25
513.195	5.34
513.544	5.25
513.893	5.23
514.242	5.3
514.591	5.36
514.939	5.19
515.288	5.3
515.637	5.34
515.986	5.31
516.334	5.4
516.683	5.36
517.032	5.25
517.38	5.27
517.729	5.32
518.077	5.39
518.426	5.32
518.774	5.26
519.122	5.25
519.47	5.32
519.819	5.17
520.167	5.25
520.515	5.22
520.863	5.29
521.211	5.26
521.559	5.28
521.907	5.28
522.255	5.36
522.602	5.34
522.95	5.3
523.298	5.31
523.645	5.33
523.993	5.39
524.341	5.33
524.688	5.31
525.036	5.29
525.383	5.27
525.73	5.53
526.078	5.29
526.425	5.4
526.772	5.26
527.119	5.29
527.466	5.25
527.814	5.31
528.161	5.27
528.508	5.17
528.854	5.22
529.201	5.17
529.548	5.23
529.895	5.2
530.242	5.1
530.588	5.06
530.935	5.06
531.282	5.08
531.628	5.07
531.975	5.03
532.321	5.06
532.667	5.11
533.014	5.25
533.36	5.22
533.706	5.24
534.052	5.22
534.399	5.21
534.745	5.14
535.091	5.24
535.437	5.11
535.783	5.16
536.129	5.16
536.474	5.17
536.82	5.24
537.166	5.26
537.512	5.27
537.857	5.37
538.203	5.25
538.549	5.34
538.894	5.22
539.239	5.11
539.585	5.25
539.93	5.16
540.276	5.38
540.621	5.29
540.966	5.28
541.311	5.39
541.656	5.44
542.001	5.34
542.346	5.31
542.691	5.27
543.036	5.25
543.381	5.12
543.726	5.08
544.071	5.13
544.415	5.06
544.76	5.18
545.105	5.23
545.449	5.21
545.794	5.28
546.138	5.2
546.483	5.2
546.827	5.17
547.171	5.41
547.516	5.35
547.86	5.37
548.204	5.22
548.548	5.33
548.892	5.13
549.236	5.26
549.58	5.15
549.924	5.16
550.268	5.29
550.612	5.31
550.956	5.45
551.3	5.29
551.643	5.23
551.987	5.44
552.33	5.44
552.674	5.38
553.017	5.47
553.361	5.55
553.704	5.39
554.048	5.33
554.391	5.36
554.734	5.52
555.077	5.52
555.42	5.22
555.764	5.2
556.107	5.5
556.45	5.35
556.793	5.34
557.135	5.32
557.478	5.43
557.821	5.42
558.164	5.41
558.507	5.45
558.849	5.4
559.192	5.47
559.534	5.68
559.877	5.3
560.219	5.65
560.562	5.53
560.904	5.22
561.246	5.41
561.589	5.28
561.931	5.4
562.273	5.5
562.615	5.56
562.957	5.55
563.299	5.49
563.641	5.49
563.983	5.28
564.325	5.24
564.667	5.54
565.008	5.31
565.35	5.44
565.692	5.43
566.033	5.3
566.375	5.39
566.716	5.3
567.058	5.33
567.399	5.41
567.741	5.24
568.082	5.52
568.423	5.35
568.764	5.32
569.105	5.36
569.447	5.23
569.788	5.23
570.129	5.37
570.47	5.37
570.811	5.44
571.151	5.27
571.492	5.47
571.833	5.4
572.174	5.52
572.514	5.4
572.855	5.34
573.195	5.29
573.536	5.21
573.876	5.55
574.217	5.31
574.557	5.21
574.898	5.17
575.238	5.36
575.578	5.34
575.918	5.26
576.258	5.45
576.598	5.38
576.938	5.44
577.278	5.27
577.618	5.13
577.958	5.32
578.298	5.32
578.638	5.32
578.977	5.33
579.317	5.34
579.657	5.46
579.996	5.44
580.336	5.37
580.675	5.39
581.014	5.27
581.354	5.42
581.693	5.25
582.032	5.42
582.372	5.33
582.711	5.46
583.05	5.58
583.389	5.42
583.728	5.43
584.067	5.73
584.406	5.59
584.745	5.54
585.083	5.53
585.422	5.35
585.761	5.45
586.1	5.39
586.438	5.1
586.777	5.35
587.115	5.51
587.454	5.38
587.792	5.34
588.13	5.51
588.469	5.48
588.807	5.13
589.145	5.25
589.483	5.25
589.821	5.49
590.159	5.45
590.497	5.46
590.835	5.23
591.173	5.3
591.511	5.12
591.849	5.34
592.187	5.23
592.524	5.1
592.862	5.34
593.2	5.35
593.537	5.24
593.875	5.24
594.212	5.45
594.55	5.41
594.887	5.68
595.224	5.18
595.561	5.29
595.899	5.29
596.236	5.28
596.573	5.37
596.91	5.31
597.247	5.37
597.584	5.12
597.921	5.36
598.258	5.36
598.594	5.25
598.931	5.12
599.268	5.28
599.604	5.36
599.941	5.23
600.277	5.19
600.614	5.13
600.95	5.17
601.287	5.06
601.623	5.18
601.959	5.36
602.296	5.26
602.632	5.38
602.968	5.23
603.304	5.27
603.64	5.29
603.976	5.33
604.312	5.35
604.648	5.42
604.984	5.44
605.319	5.21
605.655	5.17
605.991	5.24
606.326	5.17
606.662	5.26
606.998	5.07
607.333	5.12
607.668	4.92
608.004	5.17
608.339	5.08
608.674	5.21
609.01	5.25
609.345	5.52
609.68	5.19
610.015	5.08
610.35	5.13
610.685	5.54
611.02	5.24
611.355	5.18
611.689	5.27
612.024	5.43
612.359	5.29
612.694	5.23
613.028	5.09
613.363	5.17
613.697	5.07
614.032	5.19
614.366	5.12
614.7	5.2
615.035	5.3
615.369	5.42
615.703	5.23
616.037	5.35
616.371	5.39
616.705	5.27
617.039	5.15
617.373	5.36
617.707	5.59
618.041	5.12
618.375	5.24
618.709	5.35
619.042	5.28
619.376	5.66
619.71	5.44
620.043	5.42
620.377	5.4
620.71	5.43
621.043	5.33
621.377	5.16
621.71	5.25
622.043	5.29
622.376	5.24
622.709	5.64
623.043	5.32
623.376	5.23
623.709	5.12
624.041	5.16
624.374	5.54
624.707	5.24
625.04	5.45
625.373	5.64
625.705	4.94
626.038	5.34
626.37	4.95
626.703	5.55
627.035	5.07
627.368	5.36
627.7	5.38
628.032	5.14
628.365	5.21
628.697	5.41
629.029	5.45
629.361	5.03
629.693	5.23
630.025	5.31
630.357	5.15
630.689	5.15
631.021	5.41
631.353	5.35
631.684	5.17
632.016	5.58
632.348	4.93
632.679	5
633.011	5.38
633.342	5.14
633.674	5.21
634.005	5.27
634.336	5.48
634.668	5.41
634.999	4.96
635.33	5.04
635.661	5.46
635.992	5.47
636.323	5.39
636.654	5.14
636.985	5.09
637.316	5.1
637.647	5.13
637.977	4.94
638.308	5.12
638.639	5.11
638.969	5.14
639.3	5.25
639.63	5.45
639.961	5.48
640.291	5.15
640.622	5.08
640.952	5.08
641.282	5.13
641.612	5
641.943	5.13
642.273	5.1
642.603	5.4
642.933	5.21
643.263	5.31
643.592	5.14
643.922	5.21
644.252	4.95
644.582	5.31
644.911	5.46
645.241	5.37
645.571	5.78
645.9	5.33
646.23	5.2
646.559	5.01
646.888	5.62
647.218	5.3
647.547	4.78
647.876	5.44
648.205	5.31
648.534	4.95
648.863	5.37
649.192	5.2
649.521	5.02
649.85	5.29
650.179	5.2
650.508	5.24
650.837	5.19
651.165	5.5
651.494	4.85
651.822	5.64
652.151	5.45
652.479	5.23
652.808	5.32
653.136	5.04
653.465	5.74
653.793	5.06
654.121	5.5
654.449	5.26
654.777	5.28
655.105	5.28
655.433	5.65
655.761	5.15
656.089	5.38
656.417	5.23
656.745	5.15
657.073	5.21
657.4	5.66
657.728	5.36
658.056	5.24
658.383	5.35
658.711	4.72
659.038	5.5
659.365	5.48
659.693	5.15
660.02	5.21
660.347	4.82
660.674	5.3
661.001	5.02
661.329	5.28
661.656	5.49
661.982	5.48
662.309	5.21
662.636	5.03
662.963	5.27
663.29	5.1
663.616	5.57
663.943	5.02
664.27	5.32
664.596	5.63
664.923	5.16
665.249	5.09
665.576	5.06
665.902	5.57
666.228	5.72
666.554	5.79
666.881	5.28
667.207	5.43
667.533	5.3
667.859	5.69
668.185	5.13
668.511	5.53
668.837	5.42
669.162	5.48
669.488	5.24
669.814	4.99
670.139	5.15
670.465	5.3
670.791	5.4
671.116	5.43
671.442	5.73
671.767	5.45
672.092	5.84
672.418	5.86
672.743	5.34
673.068	5.5
673.393	5.09
673.718	5.03
674.043	5.6
674.368	5.68
674.693	5.6
675.018	6.12
675.343	5.44
675.667	5.28
675.992	5.88
676.317	5.64
676.641	5.81
676.966	5.74
677.29	5.8
677.615	5.78
677.939	5.54
678.264	5.13
678.588	5.26
678.912	5.72
679.236	5.16
679.56	5.5
679.885	5.83
680.209	5.57
680.532	5.49
680.856	5.23
681.18	5.28
681.504	5.35
681.828	5.59
682.152	5.61
682.475	5.12
682.799	5.47
683.122	5.27
683.446	5.15
683.769	4.99
684.093	5.35
684.416	5.68
684.739	5.12
685.062	4.76
685.386	5.08
685.709	5.14
686.032	5.54
686.355	5.79
686.678	5.4
687.001	6.06
687.324	4.63
687.646	5.11
687.969	6.26
688.292	6.66
688.614	5.91
688.937	5.52
689.26	5.02
689.582	4.87
689.904	4.76
690.227	5.33
690.549	5.65
690.871	5.39
691.194	5.58
691.516	5.49
691.838	6.19
692.16	5.54
692.482	5.15
692.804	5.66
693.126	4.95
693.448	6.01
693.769	5.9
694.091	5.92
694.413	5.83
694.735	5.45
695.056	5.36
695.378	5.53
695.699	6.24
696.021	6.14
696.342	5.87
696.663	5.87
696.984	5.65
697.306	6.13
697.627	5.8
697.948	6.11
698.269	6.01
698.59	5.39
698.911	5.78
699.232	4.34
699.553	5.59
699.873	5.56
700.194	5.94
700.515	5.73
700.835	5.53
701.156	5.39
701.477	5.59
701.797	5.56
702.117	5.18
702.438	5.58
702.758	5.24
703.078	5.77
703.398	5.07
703.719	5.5
704.039	5.93
704.359	6.05
704.679	6.01
704.999	4.67
705.319	6.18
705.638	6.05
705.958	5.14
706.278	5.64
706.597	6.67
706.917	5.63
707.237	6.06
707.556	5.67
707.876	5.25
708.195	6.49
708.514	4.84
708.834	6.16
709.153	6.26
709.472	5.97
709.791	7.18
710.11	6.15
710.429	5.95
710.748	6.15
711.067	5.86
711.386	4.92
711.705	6.95
712.023	5.87
712.342	6.36
712.661	5.81
712.979	5.6
713.298	5.36
713.616	5.67
713.935	5.8
714.253	5.67
714.572	6.31
714.89	6.27
715.208	6.07
715.526	6.38
715.844	6.15
716.162	6.12
716.48	5.94
716.798	5.22
717.116	5.59
717.434	5.24
717.752	5.82
718.069	5.33
718.387	5.61
718.705	4.9
719.022	6.57
719.34	5.7
719.657	6.13
719.975	4.48
720.292	5.28
720.609	5.23
720.927	5.47
721.244	5.37
721.561	6.35
721.878	5.81
722.195	5.61
722.512	7.07
722.829	7.05
723.146	5.52
723.463	4.97
723.779	6.45
724.096	6.62
724.413	5.12
724.729	5.7
725.046	8.21
725.362	7.23
725.679	5.27
725.995	7.45
726.311	7.04
726.628	5.68
726.944	7.79
727.26	5.56
727.576	5.8
727.892	7.44
728.208	6.53
728.524	5.33
728.84	5.18
729.156	7.22
729.472	6.65
729.787	6.37
730.103	7.59
730.419	5.53
730.734	5.16
731.05	5.98
731.365	4.96
731.681	6.26
731.996	7.93
732.311	7.03
732.626	6.44
732.942	5.12
733.257	4.91
733.572	6.79
733.887	5.83
734.202	6.27
734.517	6.43
734.832	7.24
735.146	7.57
735.461	6.05
735.776	5.36
736.091	5.36
736.405	5.59
736.72	7.48
737.034	6.25
737.349	8.07
737.663	6.33
737.977	6.61
738.292	5.39
738.606	5.74
738.92	6.32
739.234	5.43
739.548	5.82
739.862	5.82
740.176	6.33
740.49	5.43
740.804	7.17
741.117	6.36
741.431	6.64
741.745	7.28
742.058	6.46
742.372	7.14
742.685	6.09
742.999	6.22
743.312	6.3
743.626	6.65
743.939	6.32
744.252	5.78
744.565	6.6
744.878	5.8
745.191	6.11
745.505	5.67
745.817	7.73
746.13	7.83
746.443	6.95
746.756	6.25
747.069	5.03
747.381	8.36
747.694	6.96
748.007	6.08
748.319	7.19
748.632	6.15
748.944	7.5
749.256	8.53
749.569	6.46
749.881	7.56
750.193	5.8
750.505	5.88
750.817	7.38
751.129	7.98
751.441	6.02
751.753	5.56
752.065	8.39
752.377	6.82
752.689	6.96
753	6.42
753.312	5.39
753.624	5.06
753.935	6.18
754.247	7.74
754.558	6.86
754.869	8.46
755.181	4.76
755.492	6.83
755.803	5.65
756.114	6.63
756.425	7.12
756.736	6.96
757.047	4.57
757.358	6.99
757.669	6.66
757.98	6.53
758.291	7.54
758.601	8.61
758.912	8.28
759.223	4.75
759.533	8.79
759.844	8.75
760.154	6.97
760.464	7.8
760.775	7.02
761.085	6.98
761.395	7.1
761.705	6.44
762.016	7.85
762.326	8.83
762.636	6.4
762.945	6.22
763.255	7.32
763.565	6.18
763.875	6.44
764.185	6.19
764.494	7.83
764.804	6.62
765.113	6.59
765.423	6.25
765.732	5.92
766.042	6.68
766.351	7.35
766.66	5.53
766.97	7.48
767.279	7.07
767.588	5.51
767.897	7.38
768.206	6.13
768.515	5.87
768.824	6.27
769.133	6.35
769.441	5.54
769.75	8.18
770.059	6.11
770.367	6.78
770.676	9.26
770.984	6.89
771.293	6.4
771.601	7.31
771.91	8.06
772.218	8.64
772.526	7.74
772.834	7.12
773.142	9.37
773.45	5.59
773.758	5.99
774.066	6.64
774.374	5.53
774.682	6.33
774.99	6.85
775.298	4.19
775.605	6.49
775.913	6.62
776.22	4.87
776.528	10.16
776.835	8.86
777.143	4.07
777.45	10.55
777.757	7.96
778.065	10.34
778.372	13.14
778.679	9.02
778.986	6.54
779.293	7.56
779.6	7.81
779.907	6.12
780.214	8.14
780.52	8.85
780.827	5.86
781.134	5.24
781.44	9.1
781.747	5.45
782.053	9.07
782.36	7.11
782.666	7.92
782.973	5.57
783.279	2.92
783.585	7.27
783.891	4.77
784.197	10.54
784.503	7.74
784.809	5.94
785.115	5.3
785.421	8.32
785.727	8.71
786.033	11.76
786.339	4.19
786.644	5.81
786.95	10.02
787.255	6.77
787.561	7.05
787.866	6.54
788.172	12.72
788.477	7.84
788.782	7.08
789.088	10.93
789.393	7.05
789.698	5.94
790.003	6.63
790.308	9.04
790.613	4.68
790.918	8.96
791.223	7.69
791.527	6.76
791.832	9.73
792.137	10.86
792.441	5.67
792.746	7.58
793.05	10.31
793.355	7.97
793.659	8.11
793.963	8.08
794.268	8.56
794.572	7.87
794.876	7.62
795.18	4.54
795.484	9.02
795.788	7.92
796.092	3.19
796.396	10.27
796.7	7.93
797.004	8.59
797.307	4.91
797.611	9.58
797.915	7.95
798.218	5.54
798.522	9.78
798.825	10.09
799.128	9.28
799.432	5.17
799.735	9.17
800.038	9.45
800.341	0.75
800.644	12.46
800.947	7.31
801.25	8.39
801.553	11.79
801.856	8.23
802.159	5.28
802.462	9.54
802.764	7.92
803.067	11.18
803.37	12.55
803.672	10.18
803.975	8.97
804.277	6.81
804.579	3.21
804.882	9.38
805.184	6.78
805.486	10.98
805.788	12.82
806.09	10.4
806.392	10.05
806.694	8.7
806.996	10.46
807.298	12.76
807.6	6.31
807.902	8.68
808.203	15.63
808.505	14.12
808.807	4.43
809.108	3.23
809.409	13.75
809.711	5.12
810.012	13.47
810.313	6.33
810.615	4.59
810.916	8.12
811.217	14.36
811.518	6.5
811.819	11.96
812.12	10.08
812.421	2.9
812.722	5.28
813.023	10.81
813.323	7.98
813.624	10.28
813.925	7.41
814.225	8.23
814.526	10.78
814.826	10.3
815.126	12.81
815.427	10.21
815.727	13.21
816.027	7.86
816.327	14.67
816.627	16.37
816.927	11.96
817.227	8.09
817.527	6.46
817.827	9.34
818.127	9.39
818.427	10.52
818.727	4.67
819.026	5.24
819.326	16.45
819.625	9.41
819.925	12.02
820.224	12.3
820.524	12.68
820.823	7.47
821.122	4.36
821.421	11.73
821.72	16.6
822.019	13.32
822.318	8.64
822.617	8.04
822.916	9.54
823.215	8.29
823.514	11.74
823.813	9.71
824.111	11.23
824.41	8.95
824.709	9.25
825.007	7.23
825.306	7.13
825.604	7.79
825.902	7.42
826.201	8.16
826.499	7.61
826.797	8.2
827.095	8.84
827.393	7.44
827.691	8.47
827.989	7.91
828.287	9.63
828.585	9.7
828.882	8.42
829.18	8.19
829.478	10.3
829.775	10.48
830.073	9.83
830.37	10.66
830.668	8.65
830.965	8.85
831.263	7.53
831.56	12.59
831.857	10.27
832.154	6.31
832.451	8.7
832.748	10.45
833.045	8.17
833.342	15.58
833.639	14.39
833.936	10.42
834.232	12.55
834.529	14.32
834.826	2.31
835.122	13.35
835.419	13.72
835.715	9.43
836.012	11.4
836.308	7.9
836.604	10.49
836.901	6.05
837.197	10.31
837.493	11.45
837.789	8.68
838.085	8.15
838.381	10.49
838.677	11.05
838.972	10.9
839.268	5.28
839.564	10.28
839.86	9.38
840.155	12.3
840.451	7.94
840.746	11.09
841.042	11
841.337	6.15
841.632	15.28
841.928	9.57
842.223	19.11
842.518	9.46
842.813	12.66
843.108	20.48
843.403	9.33
843.698	14.79
843.993	11.51
844.287	3.2
844.582	19.83
844.877	15.03
845.171	15.23
845.466	10.97
845.761	6.79
846.055	3.7
846.349	14.54
846.644	13.36
846.938	19.06
847.232	18.56
847.526	7.33
847.82	6.66
848.114	21.3
848.408	17.54
848.702	2.07
848.996	24.27
849.29	20.43
849.584	5.85
849.877	31.42
850.171	21.78
850.465	9.3
850.758	-2.48
851.052	25.41
851.345	27.88
851.638	9.6
851.932	19.68
852.225	36.01
852.518	33.16
852.811	20.53
853.104	46.24
853.397	34.36
853.69	19.22
853.983	7.89
854.276	24.66
854.569	27.81
854.861	-13.53
855.154	46.2
855.447	25.11
855.739	33.64
856.032	9.57
856.324	6.75
856.616	-1.58
856.909	26.93
857.201	11.92
857.493	8.47
857.785	23.59
858.077	33.2
858.369	18.7
858.661	26.92
858.953	1.98
859.245	20.98
859.537	25.14
859.829	32.51
860.12	13.72
860.412	27.51
860.703	9.64
860.995	32.93
861.286	22.23
861.578	25.88
861.869	-6.68
862.16	24.63
862.452	8.3
862.743	20.86
863.034	9.13
863.325	21.39
863.616	-6.44
863.907	4.78
864.198	18.34
864.488	31.32
864.779	11.48
865.07	29.61
865.36	17.76
865.651	25.48
865.941	42.58
866.232	37.11
866.522	-6.16
866.813	32.08
867.103	24.98
867.393	44.23
867.683	25.55
867.973	52.53
868.263	24.75
868.553	30.39
868.843	25.51
869.133	28.35
869.423	23.53
869.713	31.32
870.002	9.26
870.292	15.3
870.582	34.07
870.871	23.16
871.161	12.62
871.45	19.73
871.739	30.72
872.029	12.21
872.318	30.67
872.607	36.28
872.896	15.73
873.185	30.81
873.474	18.01
873.763	33.76
874.052	18.29
874.341	28.7
874.63	23.75
874.918	-2.29
875.207	40.59
875.496	-2.16
875.784	21.72
876.073	30.92
876.361	26.48
876.649	15.37
876.938	21.45
877.226	9.19
877.514	3.83
877.802	18.07
878.09	36.07
878.378	32.11
878.666	-1.71
878.954	23.96
879.242	26.44
879.53	23.1
879.817	23.43
880.105	-9.54
880.392	25.94
880.68	32.56
880.967	34.53
881.255	37.87
881.542	15.7
881.83	-7.08
882.117	50.64
882.404	19.83
882.691	20.63
882.978	23.33
883.265	3.93
883.552	18.9
883.839	10.86
884.126	33.83
884.413	0.97
884.699	20.94
884.986	26.07
885.273	15.89
885.559	15.89
885.846	15.89
