Data from 20-8_crown_Reflection__2__113.txt Node

Date: Fri Nov 11 21:00:17 CST 2022
User: ToomeyLab
Spectrometer: FLMS14357
Trigger mode: 0
Integration Time (sec): 1.000000E-2
Scans to average: 100
Electric dark correction enabled: true
Nonlinearity correction enabled: false
Boxcar width: 0
XAxis mode: Wavelengths
Number of Pixels in Spectrum: 2048
>>>>>Begin Spectral Data<<<<<
189.047	-285.43
189.435	-285.43
189.823	-285.43
190.211	205.18
190.599	180.93
190.987	39.38
191.375	-11.64
191.763	141.57
192.151	-73.53
192.538	235.51
192.926	62.55
193.314	34.71
193.702	-82.23
194.089	-13.66
194.477	53.07
194.864	90.37
195.252	131.58
195.639	29.94
196.027	-1.93
196.414	-2.84
196.801	111.84
197.189	62.98
197.576	-35.5
197.963	-614.18
198.351	-243.73
198.738	-34.29
199.125	30.46
199.512	16.47
199.899	-64.99
200.286	-15.59
200.673	-10.33
201.06	78.63
201.447	1.67
201.833	2
202.22	-7.3
202.607	60.4
202.994	14.51
203.38	30.12
203.767	17.31
204.154	22.12
204.54	13.23
204.927	16.95
205.313	3.48
205.699	-94.7
206.086	42.26
206.472	0.95
206.858	28.52
207.245	24.68
207.631	-13.51
208.017	0.96
208.403	-6.65
208.789	1.19
209.175	19.73
209.561	41.49
209.947	15.64
210.333	7.66
210.719	17.76
211.105	45.01
211.491	31.73
211.876	31.15
212.262	37.31
212.648	37.62
213.034	-13.49
213.419	-13.14
213.805	-15.24
214.19	-26.09
214.576	4.72
214.961	-45.09
215.346	-5.74
215.732	-8.14
216.117	17.49
216.502	-1.43
216.888	-6.57
217.273	-29.75
217.658	-20.96
218.043	14.03
218.428	-5.51
218.813	-0.06
219.198	17.01
219.583	17.71
219.968	-3.55
220.353	-21.03
220.738	-24.3
221.122	15.5
221.507	-21.02
221.892	-25.06
222.276	19.88
222.661	24.03
223.046	-6.54
223.43	-14.3
223.815	9.71
224.199	11.06
224.583	-10.13
224.968	-7.21
225.352	10.31
225.736	-4.54
226.121	2.5
226.505	6.07
226.889	5.46
227.273	3.56
227.657	-1.74
228.041	-2.81
228.425	-0.37
228.809	1.34
229.193	3.87
229.577	4.46
229.961	2.77
230.344	2.97
230.728	2.67
231.112	2.04
231.495	3.33
231.879	1.45
232.263	2.21
232.646	2.53
233.03	3.1
233.413	3.23
233.797	0.89
234.18	3.45
234.563	3.7
234.946	0.36
235.33	5.09
235.713	2.26
236.096	3.64
236.479	3.53
236.862	4.46
237.245	4.63
237.628	4.23
238.011	2.05
238.394	2.72
238.777	4.05
239.16	3.43
239.543	0.47
239.925	3.69
240.308	2.02
240.691	4.12
241.073	2.45
241.456	2.34
241.838	3.91
242.221	2.72
242.603	3.25
242.986	2.22
243.368	3.06
243.75	2.89
244.133	3.1
244.515	2.78
244.897	3.28
245.279	2.97
245.661	3.14
246.043	2.46
246.425	3.68
246.807	2.36
247.189	2.64
247.571	3.42
247.953	2.73
248.335	2.65
248.717	2.92
249.098	3.07
249.48	2.53
249.862	3.01
250.243	2.37
250.625	2.54
251.006	3.22
251.388	2.78
251.769	3.67
252.151	3.36
252.532	3.01
252.913	2.74
253.295	2.44
253.676	1.41
254.057	2.3
254.438	2.78
254.819	2.64
255.2	2.77
255.581	2.75
255.962	1.14
256.343	2
256.724	2.92
257.105	2.16
257.486	1.72
257.867	3.23
258.247	1.35
258.628	2.45
259.009	2.12
259.389	2.49
259.77	3.57
260.15	2.69
260.531	2.72
260.911	2.45
261.292	2.58
261.672	2.28
262.052	2.43
262.432	2.65
262.813	2.56
263.193	2.48
263.573	2.51
263.953	2.88
264.333	2.3
264.713	2.82
265.093	2.44
265.473	1.71
265.853	2.77
266.233	2.19
266.612	2.67
266.992	1.78
267.372	3.18
267.752	2.67
268.131	1.88
268.511	2.09
268.89	2.28
269.27	2.44
269.649	2.14
270.029	2.8
270.408	1.82
270.787	2.6
271.167	1.77
271.546	2.64
271.925	2.64
272.304	2.1
272.683	2.23
273.062	2.32
273.441	2.26
273.82	2.35
274.199	1.82
274.578	1.95
274.957	2.19
275.336	2.51
275.715	2.11
276.093	2.02
276.472	1.87
276.851	2.37
277.229	2.4
277.608	2.43
277.986	2.92
278.365	1.82
278.743	2.2
279.122	2.33
279.5	2.44
279.878	2.31
280.257	2.37
280.635	2.28
281.013	2.24
281.391	2.05
281.769	2.14
282.147	2.45
282.525	1.32
282.903	2.07
283.281	2.64
283.659	2.55
284.037	2.41
284.415	1.94
284.792	2.16
285.17	2.73
285.548	1.82
285.925	1.98
286.303	1.8
286.68	2.66
287.058	2.65
287.435	2.16
287.813	2.47
288.19	2.04
288.567	2.13
288.945	1.83
289.322	2.52
289.699	1.86
290.076	2.19
290.453	2.29
290.83	1.88
291.207	2.36
291.584	2.49
291.961	2.25
292.338	2.58
292.715	2.29
293.092	2.61
293.469	1.76
293.845	2.11
294.222	2.05
294.599	2.49
294.975	2.11
295.352	2.61
295.728	1.72
296.105	1.75
296.481	2.12
296.858	2.12
297.234	1.91
297.61	2.03
297.986	2.21
298.363	2.25
298.739	2.28
299.115	2.26
299.491	2.54
299.867	1.99
300.243	2.07
300.619	2.08
300.995	2.48
301.371	2.77
301.746	2.25
302.122	1.94
302.498	2.48
302.874	1.96
303.249	2.11
303.625	1.99
304	1.64
304.376	2.24
304.751	2.21
305.127	1.91
305.502	2.33
305.878	2.69
306.253	2.26
306.628	2.11
307.003	2.09
307.378	2.08
307.754	2.54
308.129	1.98
308.504	2.61
308.879	1.91
309.254	2.48
309.629	1.76
310.003	2.6
310.378	2.18
310.753	2.82
311.128	2.42
311.502	2.24
311.877	1.99
312.252	2.51
312.626	2.14
313.001	2.05
313.375	1.98
313.75	2.06
314.124	1.93
314.498	2.07
314.873	1.85
315.247	2.5
315.621	2.09
315.995	2.23
316.369	2.08
316.743	2.2
317.117	2.23
317.491	2.42
317.865	2.02
318.239	2.79
318.613	2.67
318.987	2.36
319.361	2.32
319.734	2.31
320.108	2.08
320.482	2.98
320.855	2.23
321.229	2.54
321.602	2.06
321.976	2.56
322.349	2.83
322.723	2.61
323.096	2.03
323.469	2.58
323.843	2.62
324.216	2.31
324.589	2.92
324.962	3.05
325.335	1.86
325.708	2.37
326.081	2.2
326.454	2.34
326.827	2.25
327.2	3.21
327.573	2.66
327.945	2.36
328.318	2.17
328.691	2.49
329.063	2.68
329.436	2.25
329.809	2.45
330.181	2
330.553	2.12
330.926	2.38
331.298	2.1
331.671	2.13
332.043	1.56
332.415	2.09
332.787	2.71
333.159	2.25
333.532	2.72
333.904	2.75
334.276	2.24
334.648	2.05
335.02	2.15
335.391	2.69
335.763	2.23
336.135	2.12
336.507	2.32
336.879	2.34
337.25	1.88
337.622	2.29
337.993	2.6
338.365	2.63
338.736	2.71
339.108	2.26
339.479	1.9
339.851	2.54
340.222	2.42
340.593	2.6
340.964	2.06
341.336	2.36
341.707	1.79
342.078	2.14
342.449	2.65
342.82	2.47
343.191	2.88
343.562	2.54
343.933	2.55
344.303	2.19
344.674	2.27
345.045	2.32
345.416	2.63
345.786	2.14
346.157	2.46
346.527	2.21
346.898	1.99
347.268	2.36
347.639	2.31
348.009	2.38
348.38	2.91
348.75	2.38
349.12	2.69
349.49	2.67
349.861	2.54
350.231	2.67
350.601	2.45
350.971	2.5
351.341	2.86
351.711	2.66
352.081	2.69
352.45	2.13
352.82	2.33
353.19	2.74
353.56	2.49
353.929	2.25
354.299	2.6
354.669	2.41
355.038	2.46
355.408	2.26
355.777	2.5
356.147	2.33
356.516	2.44
356.885	2.76
357.254	2.35
357.624	2.02
357.993	2.52
358.362	2.46
358.731	2.15
359.1	2.19
359.469	2.07
359.838	2.5
360.207	2.63
360.576	2.64
360.945	2.46
361.314	2.38
361.682	2.36
362.051	2.45
362.42	2.96
362.788	2.53
363.157	2.33
363.525	2.19
363.894	2.56
364.262	2.64
364.631	2.43
364.999	2.55
365.367	2.59
365.735	2.57
366.104	2.52
366.472	2.51
366.84	2.09
367.208	2.56
367.576	2.92
367.944	2.66
368.312	2.14
368.68	2.81
369.048	2.54
369.416	2.46
369.783	2.55
370.151	2.61
370.519	2.79
370.886	2.23
371.254	2.86
371.621	2.44
371.989	2.56
372.356	2.35
372.724	2.7
373.091	2.94
373.458	2.59
373.826	2.42
374.193	2.74
374.56	2.64
374.927	2.72
375.294	2.68
375.661	2.67
376.028	2.17
376.395	2.75
376.762	2.88
377.129	2.56
377.496	2.65
377.863	2.98
378.229	2.67
378.596	2.52
378.963	2.65
379.329	2.63
379.696	2.69
380.062	2.5
380.429	2.64
380.795	2.98
381.161	2.85
381.528	2.93
381.894	2.81
382.26	2.94
382.626	2.69
382.993	2.4
383.359	3.12
383.725	2.6
384.091	2.62
384.457	2.48
384.823	2.28
385.188	2.82
385.554	2.57
385.92	2.59
386.286	2.84
386.651	2.45
387.017	2.51
387.383	2.79
387.748	2.54
388.114	2.71
388.479	2.41
388.845	2.74
389.21	2.4
389.575	2.66
389.94	2.81
390.306	2.74
390.671	2.6
391.036	2.57
391.401	2.58
391.766	2.96
392.131	2.59
392.496	2.72
392.861	2.42
393.226	2.74
393.591	2.48
393.956	2.46
394.32	2.78
394.685	2.62
395.05	3
395.414	2.62
395.779	2.56
396.143	2.36
396.508	2.83
396.872	2.78
397.236	2.61
397.601	2.61
397.965	2.92
398.329	2.63
398.694	2.8
399.058	2.73
399.422	2.89
399.786	2.49
400.15	2.8
400.514	2.68
400.878	2.62
401.242	2.73
401.605	2.76
401.969	2.8
402.333	2.61
402.697	2.79
403.06	3.07
403.424	2.42
403.787	2.72
404.151	2.51
404.514	2.82
404.878	2.65
405.241	2.84
405.604	2.56
405.968	2.75
406.331	2.52
406.694	2.62
407.057	2.74
407.42	2.74
407.783	2.8
408.146	2.79
408.509	2.85
408.872	2.68
409.235	2.95
409.598	2.59
409.961	2.94
410.323	2.55
410.686	2.64
411.049	2.7
411.411	2.65
411.774	2.56
412.136	2.76
412.499	2.7
412.861	2.69
413.223	2.68
413.586	2.68
413.948	2.87
414.31	2.72
414.672	2.78
415.035	2.77
415.397	2.67
415.759	2.43
416.121	2.69
416.483	2.6
416.845	2.95
417.206	2.6
417.568	2.74
417.93	2.73
418.292	2.72
418.653	2.85
419.015	2.86
419.377	2.7
419.738	2.82
420.1	2.77
420.461	2.7
420.822	2.67
421.184	2.63
421.545	2.65
421.906	2.72
422.267	2.63
422.629	2.43
422.99	2.65
423.351	2.6
423.712	2.65
424.073	2.63
424.434	2.74
424.795	2.66
425.155	2.61
425.516	2.69
425.877	2.67
426.238	2.67
426.598	2.68
426.959	2.66
427.32	2.7
427.68	2.74
428.041	2.72
428.401	2.58
428.761	2.89
429.122	2.6
429.482	2.86
429.842	2.79
430.202	2.77
430.563	2.99
430.923	2.77
431.283	2.6
431.643	2.62
432.003	2.85
432.363	2.69
432.722	2.8
433.082	2.85
433.442	2.83
433.802	2.85
434.161	2.73
434.521	2.8
434.881	2.76
435.24	2.8
435.6	2.73
435.959	2.76
436.319	2.61
436.678	2.8
437.037	2.81
437.396	2.98
437.756	2.56
438.115	2.8
438.474	2.67
438.833	2.67
439.192	2.88
439.551	2.76
439.91	2.79
440.269	2.7
440.628	2.9
440.987	2.71
441.345	2.74
441.704	2.79
442.063	2.71
442.421	2.63
442.78	2.59
443.138	2.78
443.497	2.72
443.855	2.77
444.214	2.81
444.572	2.82
444.93	2.71
445.288	2.71
445.647	2.9
446.005	2.95
446.363	2.75
446.721	2.72
447.079	2.86
447.437	2.6
447.795	2.83
448.153	2.67
448.51	2.63
448.868	2.72
449.226	2.75
449.584	2.77
449.941	2.8
450.299	2.69
450.656	2.88
451.014	2.79
451.371	2.77
451.729	2.8
452.086	2.77
452.443	2.79
452.801	2.78
453.158	2.76
453.515	2.67
453.872	2.65
454.229	2.79
454.586	2.76
454.943	2.83
455.3	2.78
455.657	2.77
456.014	2.74
456.371	2.98
456.727	2.94
457.084	2.57
457.441	2.89
457.797	2.77
458.154	2.76
458.51	2.85
458.867	2.82
459.223	2.84
459.58	2.85
459.936	2.79
460.292	2.82
460.648	2.79
461.005	2.69
461.361	2.82
461.717	2.69
462.073	2.73
462.429	2.72
462.785	2.64
463.141	2.69
463.496	2.79
463.852	2.87
464.208	2.78
464.564	2.75
464.919	2.87
465.275	2.74
465.631	2.75
465.986	2.94
466.342	2.9
466.697	2.9
467.052	2.77
467.408	2.77
467.763	2.78
468.118	2.86
468.473	2.82
468.829	2.96
469.184	2.71
469.539	2.76
469.894	2.91
470.249	3.01
470.603	2.8
470.958	2.82
471.313	2.95
471.668	2.95
472.023	2.67
472.377	3.01
472.732	2.73
473.086	2.74
473.441	2.74
473.795	2.79
474.15	2.82
474.504	2.88
474.859	2.77
475.213	2.96
475.567	2.87
475.921	2.86
476.275	2.73
476.63	2.96
476.984	2.9
477.338	2.94
477.692	2.72
478.045	2.75
478.399	2.96
478.753	2.78
479.107	2.82
479.461	2.83
479.814	2.78
480.168	2.83
480.521	2.8
480.875	2.9
481.228	2.62
481.582	2.85
481.935	2.7
482.289	2.67
482.642	2.86
482.995	2.7
483.348	2.76
483.701	2.74
484.055	2.73
484.408	2.72
484.761	2.62
485.114	2.53
485.466	2.5
485.819	2.51
486.172	2.56
486.525	2.66
486.878	2.69
487.23	2.68
487.583	2.73
487.936	2.73
488.288	2.67
488.641	2.62
488.993	2.62
489.345	2.58
489.698	2.61
490.05	2.61
490.402	2.66
490.754	2.74
491.107	2.67
491.459	2.69
491.811	2.78
492.163	2.77
492.515	2.68
492.866	2.68
493.218	2.6
493.57	2.63
493.922	2.63
494.274	2.78
494.625	2.75
494.977	2.88
495.328	2.82
495.68	2.81
496.031	2.69
496.383	2.74
496.734	2.79
497.086	2.8
497.437	2.83
497.788	2.64
498.139	2.82
498.49	2.63
498.842	2.65
499.193	2.75
499.544	2.74
499.894	2.76
500.245	2.77
500.596	2.86
500.947	2.75
501.298	2.82
501.648	2.79
501.999	2.82
502.35	2.99
502.7	2.76
503.051	2.88
503.401	2.9
503.752	2.78
504.102	2.64
504.452	2.8
504.803	2.69
505.153	2.79
505.503	2.77
505.853	2.76
506.203	2.87
506.553	2.61
506.903	2.82
507.253	2.7
507.603	2.87
507.953	2.79
508.303	2.77
508.652	2.77
509.002	2.78
509.352	2.78
509.701	2.86
510.051	2.72
510.4	2.85
510.75	2.72
511.099	2.68
511.449	2.76
511.798	2.72
512.147	2.72
512.496	2.73
512.846	2.89
513.195	2.76
513.544	2.69
513.893	2.65
514.242	2.81
514.591	2.81
514.939	2.72
515.288	2.75
515.637	2.82
515.986	2.77
516.334	2.8
516.683	2.83
517.032	2.79
517.38	2.83
517.729	2.81
518.077	2.73
518.426	2.91
518.774	2.76
519.122	2.81
519.47	2.73
519.819	2.7
520.167	2.63
520.515	2.71
520.863	2.8
521.211	2.72
521.559	2.8
521.907	2.83
522.255	2.77
522.602	2.9
522.95	2.7
523.298	2.76
523.645	2.8
523.993	2.79
524.341	2.83
524.688	2.88
525.036	2.89
525.383	2.68
525.73	2.8
526.078	2.78
526.425	2.71
526.772	2.77
527.119	2.59
527.466	2.74
527.814	2.7
528.161	2.74
528.508	2.71
528.854	2.67
529.201	2.74
529.548	2.67
529.895	2.59
530.242	2.55
530.588	2.56
530.935	2.6
531.282	2.68
531.628	2.7
531.975	2.77
532.321	2.63
532.667	2.7
533.014	2.76
533.36	2.67
533.706	2.79
534.052	2.78
534.399	2.66
534.745	2.66
535.091	2.61
535.437	2.62
535.783	2.59
536.129	2.76
536.474	2.8
536.82	2.72
537.166	2.81
537.512	2.7
537.857	2.69
538.203	2.62
538.549	2.75
538.894	2.7
539.239	2.71
539.585	2.83
539.93	2.8
540.276	2.88
540.621	2.83
540.966	2.91
541.311	2.77
541.656	2.74
542.001	2.71
542.346	2.67
542.691	2.6
543.036	2.52
543.381	2.61
543.726	2.62
544.071	2.73
544.415	2.72
544.76	2.73
545.105	2.69
545.449	2.69
545.794	2.77
546.138	2.8
546.483	2.63
546.827	2.81
547.171	2.81
547.516	2.64
547.86	2.74
548.204	2.71
548.548	2.68
548.892	2.69
549.236	2.71
549.58	2.79
549.924	2.96
550.268	2.8
550.612	2.85
550.956	2.91
551.3	2.86
551.643	2.59
551.987	2.93
552.33	2.79
552.674	2.76
553.017	2.96
553.361	2.92
553.704	2.83
554.048	2.81
554.391	2.75
554.734	2.78
555.077	2.97
555.42	2.82
555.764	2.87
556.107	2.83
556.45	2.93
556.793	2.87
557.135	2.88
557.478	2.88
557.821	3.02
558.164	2.9
558.507	2.83
558.849	2.85
559.192	2.89
559.534	2.8
559.877	2.95
560.219	2.88
560.562	2.79
560.904	3.01
561.246	2.69
561.589	2.91
561.931	2.72
562.273	2.83
562.615	2.79
562.957	2.92
563.299	2.99
563.641	2.64
563.983	2.75
564.325	2.68
564.667	3.03
565.008	3.08
565.35	2.74
565.692	2.58
566.033	2.68
566.375	2.76
566.716	2.8
567.058	2.77
567.399	2.92
567.741	2.78
568.082	2.76
568.423	2.88
568.764	2.81
569.105	2.78
569.447	2.98
569.788	2.76
570.129	2.67
570.47	2.77
570.811	2.92
571.151	3.08
571.492	2.87
571.833	2.83
572.174	2.92
572.514	2.87
572.855	2.88
573.195	2.66
573.536	2.8
573.876	2.85
574.217	2.87
574.557	2.87
574.898	2.76
575.238	2.92
575.578	2.85
575.918	2.91
576.258	2.87
576.598	2.88
576.938	2.78
577.278	2.78
577.618	2.81
577.958	2.81
578.298	2.76
578.638	2.79
578.977	2.86
579.317	2.94
579.657	2.8
579.996	2.88
580.336	2.85
580.675	2.85
581.014	2.95
581.354	2.71
581.693	2.7
582.032	2.79
582.372	2.62
582.711	2.96
583.05	2.85
583.389	3.01
583.728	3.01
584.067	2.77
584.406	2.89
584.745	3.17
585.083	2.76
585.422	3.04
585.761	3.07
586.1	2.85
586.438	2.87
586.777	2.9
587.115	2.9
587.454	2.87
587.792	2.64
588.13	2.74
588.469	2.96
588.807	2.74
589.145	2.91
589.483	2.98
589.821	2.73
590.159	3.05
590.497	2.79
590.835	2.78
591.173	2.81
591.511	2.73
591.849	2.88
592.187	2.7
592.524	2.9
592.862	2.85
593.2	2.76
593.537	3.12
593.875	3.05
594.212	2.93
594.55	2.91
594.887	2.67
595.224	2.74
595.561	2.8
595.899	2.79
596.236	2.81
596.573	2.66
596.91	3.01
597.247	2.64
597.584	2.79
597.921	2.96
598.258	2.92
598.594	2.73
598.931	2.74
599.268	2.77
599.604	2.87
599.941	2.84
600.277	2.81
600.614	2.85
600.95	2.55
601.287	2.75
601.623	3.23
601.959	3.06
602.296	2.76
602.632	2.91
602.968	2.92
603.304	2.95
603.64	2.91
603.976	2.76
604.312	2.91
604.648	2.78
604.984	2.72
605.319	2.84
605.655	2.74
605.991	2.94
606.326	2.98
606.662	2.85
606.998	2.68
607.333	2.86
607.668	2.71
608.004	2.83
608.339	2.74
608.674	2.77
609.01	3.11
609.345	2.88
609.68	2.8
610.015	3.11
610.35	2.54
610.685	2.76
611.02	2.64
611.355	2.81
611.689	2.81
612.024	2.81
612.359	2.72
612.694	2.69
613.028	2.81
613.363	2.81
613.697	3.06
614.032	2.89
614.366	2.73
614.7	2.76
615.035	2.58
615.369	2.81
615.703	3.11
616.037	3.07
616.371	3.11
616.705	3.17
617.039	2.87
617.373	2.59
617.707	2.75
618.041	2.87
618.375	2.76
618.709	2.97
619.042	2.94
619.376	2.89
619.71	3.22
620.043	3.03
620.377	2.73
620.71	3.01
621.043	2.73
621.377	3.02
621.71	2.67
622.043	3.03
622.376	2.97
622.709	2.68
623.043	2.95
623.376	2.87
623.709	2.89
624.041	3.29
624.374	2.47
624.707	2.99
625.04	2.69
625.373	2.54
625.705	3.08
626.038	3.03
626.37	2.84
626.703	2.94
627.035	2.73
627.368	2.77
627.7	2.9
628.032	3.25
628.365	3.04
628.697	2.55
629.029	2.94
629.361	2.95
629.693	2.97
630.025	2.81
630.357	2.56
630.689	2.6
631.021	2.9
631.353	3.31
631.684	2.62
632.016	2.66
632.348	2.85
632.679	2.75
633.011	3.03
633.342	3.07
633.674	2.8
634.005	2.79
634.336	3.16
634.668	3.06
634.999	3.1
635.33	2.65
635.661	2.97
635.992	2.83
636.323	2.76
636.654	3.08
636.985	2.81
637.316	2.69
637.647	3.27
637.977	3.11
638.308	2.86
638.639	2.95
638.969	2.9
639.3	2.93
639.63	3.35
639.961	2.78
640.291	3.22
640.622	3.52
640.952	3.22
641.282	2.5
641.612	2.82
641.943	3.23
642.273	2.98
642.603	3.18
642.933	3.27
643.263	3.06
643.592	2.92
643.922	2.9
644.252	3.11
644.582	2.96
644.911	2.66
645.241	2.69
645.571	3.34
645.9	3.42
646.23	3.28
646.559	3.09
646.888	2.94
647.218	2.79
647.547	3.02
647.876	3.06
648.205	2.97
648.534	2.58
648.863	3.04
649.192	2.81
649.521	2.75
649.85	3.27
650.179	2.84
650.508	3.09
650.837	3.06
651.165	2.81
651.494	3.12
651.822	2.77
652.151	2.89
652.479	2.72
652.808	2.65
653.136	2.55
653.465	3.29
653.793	2.97
654.121	2.85
654.449	2.48
654.777	3.21
655.105	3.08
655.433	2.84
655.761	3.47
656.089	3.15
656.417	2.62
656.745	3.33
657.073	3
657.4	2.75
657.728	3.16
658.056	3.11
658.383	2.91
658.711	2.6
659.038	3.13
659.365	2.67
659.693	3.03
660.02	3.66
660.347	3.11
660.674	2.84
661.001	2.83
661.329	2.7
661.656	2.85
661.982	3.17
662.309	3
662.636	3.27
662.963	3.06
663.29	2.89
663.616	2.61
663.943	2.94
664.27	3.12
664.596	3.56
664.923	3.13
665.249	3.16
665.576	3.1
665.902	3.34
666.228	3.11
666.554	2.96
666.881	3.05
667.207	3.05
667.533	3.45
667.859	3.51
668.185	2.85
668.511	3
668.837	3.41
669.162	3.26
669.488	3.01
669.814	3.23
670.139	3.48
670.465	2.79
670.791	2.7
671.116	2.97
671.442	2.32
671.767	3.54
672.092	2.46
672.418	2.7
672.743	2.4
673.068	3.25
673.393	3.07
673.718	2.84
674.043	2.89
674.368	3.07
674.693	2.7
675.018	3.17
675.343	3.33
675.667	3.43
675.992	3.84
676.317	2.69
676.641	2.35
676.966	3.25
677.29	3.14
677.615	2.81
677.939	2.65
678.264	3.23
678.588	2.97
678.912	2.74
679.236	3.44
679.56	3.41
679.885	3.35
680.209	3.15
680.532	3.33
680.856	3.46
681.18	2.68
681.504	3.09
681.828	2.55
682.152	2.99
682.475	2.88
682.799	2.89
683.122	3.25
683.446	3.13
683.769	2.99
684.093	2.85
684.416	3.12
684.739	3.87
685.062	2.69
685.386	3.56
685.709	3.08
686.032	2.93
686.355	3.57
686.678	3.32
687.001	3.07
687.324	2.85
687.646	2.49
687.969	3.01
688.292	2.96
688.614	2.59
688.937	3.15
689.26	2.13
689.582	3.32
689.904	3.27
690.227	2.98
690.549	3.37
690.871	2.59
691.194	2.95
691.516	3.09
691.838	2.74
692.16	3.29
692.482	3.21
692.804	3.48
693.126	2.92
693.448	2.74
693.769	3.14
694.091	3.47
694.413	3.35
694.735	3.15
695.056	2.54
695.378	3.79
695.699	3.42
696.021	2.55
696.342	2.5
696.663	3.88
696.984	4.17
697.306	2.62
697.627	3.48
697.948	3
698.269	3.43
698.59	3.24
698.911	2.78
699.232	3.17
699.553	3.14
699.873	3.87
700.194	3.58
700.515	2.91
700.835	3.26
701.156	3.39
701.477	3.57
701.797	3.09
702.117	3.47
702.438	3.59
702.758	3.1
703.078	4.73
703.398	4.5
703.719	3.2
704.039	3.42
704.359	3.64
704.679	3.62
704.999	3.12
705.319	2.61
705.638	3.28
705.958	2.77
706.278	2.63
706.597	3.02
706.917	2.48
707.237	3.67
707.556	2.88
707.876	3.37
708.195	2.68
708.514	3.56
708.834	3.25
709.153	3.77
709.472	4.17
709.791	3.63
710.11	3.75
710.429	4.51
710.748	3.84
711.067	2.79
711.386	2.75
711.705	3.07
712.023	3.98
712.342	2.83
712.661	2.83
712.979	3.37
713.298	3.46
713.616	3.07
713.935	2.6
714.253	3.62
714.572	3.22
714.89	4.1
715.208	3.53
715.526	3.17
715.844	3.52
716.162	3.5
716.48	3.05
716.798	3.81
717.116	3.97
717.434	2.18
717.752	2.21
718.069	3.39
718.387	4.23
718.705	3.08
719.022	3.86
719.34	3.66
719.657	3.06
719.975	3.84
720.292	3.03
720.609	2.5
720.927	3.5
721.244	3.89
721.561	3.84
721.878	3.87
722.195	3.81
722.512	2.88
722.829	3.19
723.146	3.31
723.463	2.65
723.779	2.79
724.096	4.19
724.413	2.93
724.729	3.25
725.046	4.87
725.362	3.75
725.679	4
725.995	4.48
726.311	3.67
726.628	1.83
726.944	3.96
727.26	2.93
727.576	2.89
727.892	2.52
728.208	3.14
728.524	3.58
728.84	3.35
729.156	2.9
729.472	3.94
729.787	3.24
730.103	3.55
730.419	3.39
730.734	2.25
731.05	3.26
731.365	3.77
731.681	3.54
731.996	3.5
732.311	3.24
732.626	3.88
732.942	2.7
733.257	2.48
733.572	4.37
733.887	3.81
734.202	3.2
734.517	4.41
734.832	4.32
735.146	2.82
735.461	3.52
735.776	4.52
736.091	3.32
736.405	4.09
736.72	3.3
737.034	2.29
737.349	3.53
737.663	3.94
737.977	4.71
738.292	4.15
738.606	2.49
738.92	2.29
739.234	2.87
739.548	3.15
739.862	1.85
740.176	2.68
740.49	2.2
740.804	3.45
741.117	3.7
741.431	2.51
741.745	4.11
742.058	2
742.372	4.6
742.685	3.47
742.999	5.17
743.312	2.64
743.626	4.88
743.939	5.13
744.252	2.6
744.565	4.91
744.878	2.45
745.191	5.06
745.505	2.25
745.817	3.65
746.13	5.88
746.443	3.05
746.756	2.9
747.069	3.61
747.381	4.16
747.694	4.15
748.007	5.1
748.319	1.96
748.632	3.28
748.944	3.5
749.256	4.93
749.569	3.71
749.881	4.52
750.193	3.83
750.505	4.49
750.817	5.32
751.129	4.22
751.441	4.79
751.753	4.7
752.065	3.77
752.377	1.92
752.689	4.22
753	1.36
753.312	2.79
753.624	2.67
753.935	3.47
754.247	2.35
754.558	3.72
754.869	3.84
755.181	2.16
755.492	3.81
755.803	2.73
756.114	4.05
756.425	4.02
756.736	3.53
757.047	3.57
757.358	3.63
757.669	3.93
757.98	3.78
758.291	2.79
758.601	4.04
758.912	4.04
759.223	4.75
759.533	3.64
759.844	3.31
760.154	4.12
760.464	3.49
760.775	3.36
761.085	3.68
761.395	3.81
761.705	4.81
762.016	4.02
762.326	3.35
762.636	2.63
762.945	2.56
763.255	5.35
763.565	4.03
763.875	3.76
764.185	4.14
764.494	4.45
764.804	5.46
765.113	4.19
765.423	4.01
765.732	4.05
766.042	4.71
766.351	4.46
766.66	1.74
766.97	4.09
767.279	3.78
767.588	4.01
767.897	3.3
768.206	4.55
768.515	3.48
768.824	1.41
769.133	4.31
769.441	3.61
769.75	5.58
770.059	5.39
770.367	2.19
770.676	2.86
770.984	3.19
771.293	1.96
771.601	3.85
771.91	4.8
772.218	0.52
772.526	3.25
772.834	2.78
773.142	1.25
773.45	1.81
773.758	4.25
774.066	6.46
774.374	5.11
774.682	5.37
774.99	6.54
775.298	5.09
775.605	7.26
775.913	4.6
776.22	5.2
776.528	7.44
776.835	4.26
777.143	6.92
777.45	4.69
777.757	5.44
778.065	0.52
778.372	4.47
778.679	4.16
778.986	5.46
779.293	7.56
779.6	4.38
779.907	4.48
780.214	3.96
780.52	4.74
780.827	1.72
781.134	2.73
781.44	4.81
781.747	7.04
782.053	6.16
782.36	8.94
782.666	5.97
782.973	2.17
783.279	3.05
783.585	3.89
783.891	5.13
784.197	4.3
784.503	0.68
784.809	5.1
785.115	4.37
785.421	4.34
785.727	7
786.033	4.25
786.339	0.9
786.644	6.37
786.95	1.07
787.255	5.71
787.561	5.48
787.866	2.13
788.172	4.48
788.477	2.59
788.782	7.22
789.088	2.74
789.393	5.34
789.698	4.1
790.003	6.55
790.308	2.07
790.613	4.28
790.918	3.93
791.223	1.04
791.527	3.63
791.832	4.81
792.137	2.91
792.441	6.34
792.746	-0.5
793.05	1.33
793.355	3.63
793.659	6.44
793.963	2.69
794.268	4.65
794.572	6.78
794.876	0.53
795.18	4.18
795.484	2.64
795.788	-0.59
796.092	3.76
796.396	7.45
796.7	4.2
797.004	2.27
797.307	4.6
797.611	4.94
797.915	5.35
798.218	4.08
798.522	8.4
798.825	3.15
799.128	2.66
799.432	-1.05
799.735	-1.64
800.038	7.49
800.341	-1.5
800.644	7.84
800.947	3.64
801.25	3.33
801.553	2
801.856	8.06
802.159	5.18
802.462	2.54
802.764	4.04
803.067	1.45
803.37	4.97
803.672	3.89
803.975	3.27
804.277	5.98
804.579	5.05
804.882	3.19
805.184	8
805.486	6.86
805.788	6.61
806.09	2.8
806.392	3.91
806.694	2.02
806.996	7.86
807.298	3.46
807.6	3.28
807.902	2.34
808.203	1.52
808.505	0.53
808.807	0.23
809.108	6
809.409	9.14
809.711	8.71
810.012	8.27
810.313	3.65
810.615	1.79
810.916	0.77
811.217	9.47
811.518	3.5
811.819	1.84
812.12	4.53
812.421	9.89
812.722	2.6
813.023	-5.2
813.323	4.25
813.624	7.42
813.925	2.35
814.225	-2.01
814.526	1.25
814.826	-0.58
815.126	1.07
815.427	10
815.727	4.87
816.027	10.19
816.327	3.16
816.627	6.45
816.927	2.52
817.227	3.52
817.527	0.4
817.827	6.79
818.127	8.49
818.427	5.28
818.727	-1.05
819.026	0.38
819.326	-0.87
819.625	4.34
819.925	0.27
820.224	3.62
820.524	5.21
820.823	4.16
821.122	3.17
821.421	4.53
821.72	4.03
822.019	8.14
822.318	6.01
822.617	3.64
822.916	4.87
823.215	3.68
823.514	6.04
823.813	4.3
824.111	3.11
824.41	5.42
824.709	5.09
825.007	4.61
825.306	4.84
825.604	5.15
825.902	6.14
826.201	4.93
826.499	4.67
826.797	5.62
827.095	5.68
827.393	5.99
827.691	5.28
827.989	5.4
828.287	4.53
828.585	3.79
828.882	5.16
829.18	5.92
829.478	6.25
829.775	4.96
830.073	6.62
830.37	5.05
830.668	3.23
830.965	5.71
831.263	4.52
831.56	6.64
831.857	7.92
832.154	2.77
832.451	5.02
832.748	3.6
833.045	2.95
833.342	1.87
833.639	2.77
833.936	-2.82
834.232	3.41
834.529	-0.25
834.826	8.99
835.122	4.58
835.419	3.38
835.715	0.71
836.012	5.78
836.308	-1.65
836.604	3.32
836.901	4.51
837.197	7.79
837.493	4.4
837.789	2.5
838.085	4.47
838.381	10.64
838.677	4.69
838.972	4.84
839.268	7.37
839.564	8.69
839.86	-2.55
840.155	2.04
840.451	-6.17
840.746	3.53
841.042	3.63
841.337	10.91
841.632	4.52
841.928	5.71
842.223	5.98
842.518	-10.15
842.813	-6.83
843.108	6.85
843.403	-1.54
843.698	9.88
843.993	2.93
844.287	8.78
844.582	2.63
844.877	3.55
845.171	-3.29
845.466	6.86
845.761	7.38
846.055	6.85
846.349	-18.75
846.644	9.61
846.938	-0.48
847.232	7.46
847.526	6.83
847.82	0.8
848.114	5.62
848.408	-7.67
848.702	6.74
848.996	9.53
849.29	27.59
849.584	0.15
849.877	-7.42
850.171	2.27
850.465	6.85
850.758	0.32
851.052	3.62
851.345	13.26
851.638	-8.7
851.932	-3.31
852.225	1.17
852.518	-13.48
852.811	-4.77
853.104	9.61
853.397	-1.68
853.69	13.49
853.983	8.23
854.276	8.74
854.569	11.01
854.861	36.51
855.154	10.87
855.447	19.23
855.739	-11.72
856.032	14.89
856.324	14.69
856.616	2.91
856.909	-15.38
857.201	27.38
857.493	29.74
857.785	-0.05
858.077	-0.22
858.369	33.74
858.661	7.85
858.953	13.22
859.245	20.05
859.537	-5.11
859.829	5.06
860.12	11.87
860.412	-0.98
860.703	10.33
860.995	1.18
861.286	-14.14
861.578	-3
861.869	1.46
862.16	-33.26
862.452	17.09
862.743	12.33
863.034	-8.27
863.325	12.53
863.616	5.34
863.907	17.76
864.198	-9.05
864.488	-2.83
864.779	21.23
865.07	-12.18
865.36	15.25
865.651	-14.97
865.941	15.15
866.232	14.79
866.522	26.88
866.813	19.66
867.103	22.41
867.393	18
867.683	-7.02
867.973	17.77
868.263	-4.92
868.553	-9.86
868.843	11.14
869.133	17.75
869.423	22.05
869.713	-1.2
870.002	-28.74
870.292	-45.51
870.582	8.92
870.871	14.46
871.161	-3.79
871.45	10.97
871.739	-34.64
872.029	-11.21
872.318	-6
872.607	0.48
872.896	-3.55
873.185	9.5
873.474	-18.79
873.763	-26.45
874.052	19.18
874.341	-7.69
874.63	37.42
874.918	5.25
875.207	-3.59
875.496	-6.38
875.784	-19.63
876.073	1.85
876.361	14.98
876.649	2.99
876.938	5.55
877.226	-0.27
877.514	-9.2
877.802	6.74
878.09	19.84
878.378	11.3
878.666	-8.94
878.954	-41.88
879.242	-14.57
879.53	-22.74
879.817	16.78
880.105	3.55
880.392	10.37
880.68	6.57
880.967	14.76
881.255	0.92
881.542	1.26
881.83	-10.26
882.117	-17.23
882.404	19.94
882.691	15
882.978	18.11
883.265	21.83
883.552	21.31
883.839	-12.23
884.126	-3.73
884.413	3.06
884.699	-3.23
884.986	2.07
885.273	11.26
885.559	11.26
885.846	11.26
