Data from 0280_crown_Reflection__2__326.txt Node

Date: Fri Sep 22 23:19:54 CDT 2023
User: ToomeyLab
Spectrometer: FLMS14357
Trigger mode: 0
Integration Time (sec): 1.000000E-2
Scans to average: 100
Electric dark correction enabled: true
Nonlinearity correction enabled: false
Boxcar width: 0
XAxis mode: Wavelengths
Number of Pixels in Spectrum: 2048
>>>>>Begin Spectral Data<<<<<
189.047	-57.87
189.435	-57.87
189.823	-57.87
190.211	67.34
190.599	29.93
190.987	188.3
191.375	136.32
191.763	-133.09
192.151	-265.16
192.538	21.68
192.926	245.51
193.314	25.17
193.702	-165.35
194.089	291.55
194.477	-148.74
194.864	-26.23
195.252	62.98
195.639	97.37
196.027	709.46
196.414	88.36
196.801	337.81
197.189	-15.87
197.576	87.41
197.963	-118.61
198.351	-51.6
198.738	-32.2
199.125	20.04
199.512	1.22
199.899	21.58
200.286	5.14
200.673	12.17
201.06	-45.89
201.447	35.79
201.833	-57.04
202.22	51.17
202.607	27.07
202.994	22.76
203.38	32.96
203.767	-22.11
204.154	37.69
204.54	1.46
204.927	-15.42
205.313	-9.96
205.699	36.13
206.086	39.41
206.472	60.32
206.858	14.32
207.245	4.27
207.631	33.59
208.017	3.81
208.403	15.11
208.789	42.7
209.175	28.4
209.561	42.96
209.947	30.77
210.333	22.69
210.719	-11.75
211.105	26.21
211.491	9.36
211.876	38.66
212.262	17.9
212.648	27.16
213.034	11.66
213.419	-16.09
213.805	-1.3
214.19	-7.39
214.576	10.47
214.961	8.62
215.346	-9.82
215.732	0.34
216.117	-13.41
216.502	30.82
216.888	7.47
217.273	23.3
217.658	-3.33
218.043	26.3
218.428	26.01
218.813	-22.01
219.198	-6.33
219.583	8.1
219.968	-23.72
220.353	29.77
220.738	-9.06
221.122	-9.08
221.507	-2.92
221.892	3.96
222.276	0.14
222.661	-34.63
223.046	13.18
223.43	14.31
223.815	3.14
224.199	-7.87
224.583	14.73
224.968	14.27
225.352	3.6
225.736	10.03
226.121	1.89
226.505	4.46
226.889	-0.05
227.273	2.21
227.657	4.45
228.041	4.89
228.425	10.9
228.809	2.26
229.193	1.11
229.577	6.87
229.961	4.93
230.344	5.6
230.728	4.39
231.112	5.7
231.495	5.28
231.879	5.81
232.263	3.71
232.646	4.92
233.03	3.88
233.413	4.1
233.797	5.07
234.18	6.06
234.563	8.11
234.946	5.53
235.33	2.86
235.713	3.42
236.096	2.6
236.479	3.52
236.862	8.48
237.245	5.96
237.628	6.3
238.011	5.43
238.394	2.31
238.777	8.03
239.16	5.21
239.543	5.41
239.925	5.79
240.308	5.52
240.691	3.78
241.073	7.4
241.456	3.23
241.838	2.96
242.221	5.54
242.603	5.13
242.986	4.09
243.368	4.41
243.75	5.19
244.133	5.65
244.515	4.57
244.897	4.61
245.279	5.23
245.661	4.76
246.043	4.46
246.425	4.27
246.807	5.27
247.189	4.2
247.571	5.39
247.953	4.66
248.335	5.33
248.717	5.04
249.098	4.94
249.48	4.66
249.862	4.65
250.243	4.63
250.625	5.03
251.006	4.33
251.388	4.51
251.769	4.76
252.151	4.86
252.532	4.26
252.913	4.37
253.295	5.43
253.676	4.22
254.057	4.43
254.438	4.78
254.819	3.65
255.2	4.36
255.581	4.61
255.962	4.66
256.343	4.66
256.724	3.82
257.105	5
257.486	4.16
257.867	4.8
258.247	4.27
258.628	4.32
259.009	4.51
259.389	4.05
259.77	4.34
260.15	4.33
260.531	4.13
260.911	4.18
261.292	4.61
261.672	3.94
262.052	4.45
262.432	4.39
262.813	4.69
263.193	4.03
263.573	4.6
263.953	4.55
264.333	3.93
264.713	3.83
265.093	3.93
265.473	3.9
265.853	3.64
266.233	4.38
266.612	4.34
266.992	4.7
267.372	4.64
267.752	4.03
268.131	4.09
268.511	4.34
268.89	4.11
269.27	4.41
269.649	3.91
270.029	4.13
270.408	4.01
270.787	3.61
271.167	3.98
271.546	4.01
271.925	4.43
272.304	3.57
272.683	4.23
273.062	4.21
273.441	4.26
273.82	4.28
274.199	4.43
274.578	4.07
274.957	3.7
275.336	3.96
275.715	4.01
276.093	4.02
276.472	4.14
276.851	4.11
277.229	3.24
277.608	4.16
277.986	3.82
278.365	4.01
278.743	4.63
279.122	3.74
279.5	4.64
279.878	3.77
280.257	4.6
280.635	3.83
281.013	4.64
281.391	3.63
281.769	4.59
282.147	3.94
282.525	3.76
282.903	4.12
283.281	4.09
283.659	3.93
284.037	3.62
284.415	3.89
284.792	3.86
285.17	4.38
285.548	4.6
285.925	4.03
286.303	3.73
286.68	3.41
287.058	3.65
287.435	3.84
287.813	3.49
288.19	3.64
288.567	3.86
288.945	3.88
289.322	4.14
289.699	3.92
290.076	4.27
290.453	3.63
290.83	3.22
291.207	3.89
291.584	3.24
291.961	3.57
292.338	3.87
292.715	4.09
293.092	3.8
293.469	3.68
293.845	3.25
294.222	3.88
294.599	3.67
294.975	3.88
295.352	4.1
295.728	3.81
296.105	3.63
296.481	3.32
296.858	3.79
297.234	3.57
297.61	3.21
297.986	3.69
298.363	3.41
298.739	3.42
299.115	3.74
299.491	3.65
299.867	3.5
300.243	3.56
300.619	3.83
300.995	3.48
301.371	3.72
301.746	3.25
302.122	3.76
302.498	3.26
302.874	3.11
303.249	3.54
303.625	3.23
304	3.78
304.376	3.5
304.751	3.79
305.127	3.39
305.502	4.1
305.878	3.59
306.253	3.82
306.628	3.29
307.003	3.7
307.378	3.09
307.754	3.35
308.129	3.88
308.504	3.51
308.879	3.63
309.254	3.64
309.629	3.43
310.003	3.68
310.378	3.93
310.753	3.26
311.128	3.74
311.502	3.65
311.877	3.24
312.252	3.44
312.626	3.38
313.001	3.6
313.375	3.65
313.75	3.9
314.124	3.98
314.498	3.29
314.873	3.68
315.247	3.75
315.621	3.58
315.995	3.34
316.369	3.58
316.743	3.3
317.117	3.71
317.491	3.08
317.865	2.77
318.239	3.64
318.613	3.56
318.987	3.55
319.361	3.61
319.734	3.1
320.108	3.92
320.482	3.76
320.855	3.2
321.229	4.35
321.602	3.69
321.976	2.88
322.349	3.2
322.723	3.21
323.096	3.69
323.469	3.8
323.843	3.71
324.216	3.47
324.589	3.62
324.962	3.7
325.335	3.54
325.708	3.34
326.081	3.6
326.454	3.05
326.827	3.42
327.2	3.58
327.573	3.73
327.945	3.3
328.318	3.52
328.691	3.49
329.063	3.15
329.436	3.25
329.809	3.9
330.181	3.33
330.553	3.52
330.926	3.31
331.298	3.25
331.671	3.1
332.043	2.84
332.415	3.47
332.787	3.82
333.159	2.84
333.532	2.97
333.904	3.03
334.276	3.29
334.648	2.95
335.02	3.38
335.391	3.26
335.763	3.78
336.135	3.79
336.507	3.34
336.879	3.14
337.25	3.46
337.622	3.53
337.993	3.17
338.365	3.59
338.736	3.78
339.108	3.23
339.479	3.15
339.851	3.09
340.222	3.79
340.593	3.02
340.964	3.49
341.336	3.54
341.707	3.08
342.078	3.71
342.449	3.44
342.82	3.46
343.191	3.16
343.562	3.35
343.933	3.65
344.303	3.34
344.674	3.96
345.045	3.44
345.416	3.82
345.786	3.37
346.157	3.34
346.527	3.27
346.898	3.47
347.268	3.42
347.639	3.35
348.009	3.08
348.38	3.56
348.75	3.67
349.12	3.39
349.49	3.48
349.861	3.39
350.231	3.39
350.601	3.33
350.971	3.78
351.341	3.05
351.711	3.27
352.081	2.91
352.45	3.45
352.82	3.58
353.19	3.97
353.56	3.1
353.929	3.44
354.299	3.51
354.669	3.41
355.038	3.39
355.408	3.22
355.777	3.67
356.147	3.58
356.516	3.76
356.885	3.6
357.254	3.73
357.624	3.24
357.993	3.8
358.362	3.57
358.731	3.58
359.1	3.46
359.469	3.79
359.838	3.28
360.207	3.59
360.576	3.73
360.945	3.4
361.314	3.73
361.682	4.08
362.051	3.6
362.42	3.48
362.788	3.22
363.157	3.67
363.525	3.46
363.894	3.42
364.262	3.59
364.631	3.57
364.999	3.5
365.367	3.64
365.735	3.46
366.104	3.44
366.472	4.03
366.84	3.43
367.208	4.09
367.576	3.78
367.944	3.65
368.312	3.9
368.68	3.54
369.048	3.83
369.416	3.74
369.783	3.46
370.151	3.44
370.519	3.45
370.886	4.21
371.254	3.68
371.621	3.45
371.989	3.38
372.356	3.32
372.724	3.77
373.091	3.81
373.458	3.86
373.826	4.02
374.193	3.73
374.56	4
374.927	3.66
375.294	3.64
375.661	3.6
376.028	3.84
376.395	3.85
376.762	3.6
377.129	3.99
377.496	3.87
377.863	3.69
378.229	3.8
378.596	3.78
378.963	3.96
379.329	3.63
379.696	3.89
380.062	3.41
380.429	3.55
380.795	3.69
381.161	3.69
381.528	3.98
381.894	3.42
382.26	3.7
382.626	3.81
382.993	3.76
383.359	3.66
383.725	3.7
384.091	3.89
384.457	3.71
384.823	3.47
385.188	3.81
385.554	3.95
385.92	4.38
386.286	3.87
386.651	3.87
387.017	3.87
387.383	3.71
387.748	3.84
388.114	3.88
388.479	3.95
388.845	3.56
389.21	3.55
389.575	3.9
389.94	3.81
390.306	3.83
390.671	4.17
391.036	3.72
391.401	3.79
391.766	3.64
392.131	3.9
392.496	3.97
392.861	3.62
393.226	4.17
393.591	3.94
393.956	3.85
394.32	3.89
394.685	3.69
395.05	4.25
395.414	4.1
395.779	3.82
396.143	3.89
396.508	3.71
396.872	3.74
397.236	4.04
397.601	3.68
397.965	4.29
398.329	3.9
398.694	3.84
399.058	3.81
399.422	3.77
399.786	3.93
400.15	3.93
400.514	4.1
400.878	3.71
401.242	4.1
401.605	3.84
401.969	3.56
402.333	3.91
402.697	3.72
403.06	3.76
403.424	4.03
403.787	3.99
404.151	4.05
404.514	4.24
404.878	3.97
405.241	4.28
405.604	4.13
405.968	3.93
406.331	4.09
406.694	3.96
407.057	3.88
407.42	4.12
407.783	4.01
408.146	3.92
408.509	3.82
408.872	3.84
409.235	3.94
409.598	3.94
409.961	4.09
410.323	4.18
410.686	3.98
411.049	4.06
411.411	4.17
411.774	3.73
412.136	3.84
412.499	3.87
412.861	4.04
413.223	4.04
413.586	3.94
413.948	4.11
414.31	3.87
414.672	3.97
415.035	3.91
415.397	4.16
415.759	3.99
416.121	3.84
416.483	3.92
416.845	3.9
417.206	4.01
417.568	3.86
417.93	3.9
418.292	3.97
418.653	3.96
419.015	3.97
419.377	3.93
419.738	4.1
420.1	3.91
420.461	3.9
420.822	3.87
421.184	3.89
421.545	3.93
421.906	3.98
422.267	3.94
422.629	3.93
422.99	4
423.351	3.79
423.712	3.87
424.073	3.92
424.434	3.95
424.795	3.91
425.155	4.01
425.516	3.98
425.877	3.93
426.238	3.75
426.598	3.89
426.959	3.88
427.32	3.94
427.68	3.91
428.041	3.86
428.401	3.91
428.761	4.03
429.122	3.92
429.482	4
429.842	3.84
430.202	3.93
430.563	4.04
430.923	4.12
431.283	4.18
431.643	4.04
432.003	4.17
432.363	4.28
432.722	4.12
433.082	4.35
433.442	4.05
433.802	4.23
434.161	3.98
434.521	4.01
434.881	3.98
435.24	3.98
435.6	3.95
435.959	3.9
436.319	3.93
436.678	4.17
437.037	4.12
437.396	3.94
437.756	4.03
438.115	4
438.474	4.06
438.833	4.08
439.192	4.12
439.551	3.99
439.91	4.14
440.269	3.93
440.628	3.77
440.987	4.07
441.345	3.97
441.704	4.09
442.063	4.09
442.421	3.98
442.78	4.02
443.138	4.07
443.497	4.03
443.855	4.08
444.214	3.88
444.572	3.99
444.93	4.12
445.288	4.05
445.647	4.11
446.005	4.05
446.363	4.04
446.721	3.94
447.079	4.09
447.437	4.04
447.795	4.12
448.153	3.87
448.51	3.98
448.868	3.99
449.226	4.04
449.584	3.9
449.941	3.88
450.299	4.14
450.656	4.1
451.014	4.14
451.371	4.05
451.729	4.14
452.086	4.03
452.443	4.2
452.801	4
453.158	4.1
453.515	4.32
453.872	4.16
454.229	3.98
454.586	4.13
454.943	4.05
455.3	4.04
455.657	4.17
456.014	4.04
456.371	4.14
456.727	4.12
457.084	4.07
457.441	3.98
457.797	4.09
458.154	4.23
458.51	4.01
458.867	4.08
459.223	4
459.58	4.2
459.936	4.04
460.292	4.21
460.648	4.23
461.005	4.11
461.361	4.09
461.717	3.85
462.073	4.01
462.429	3.96
462.785	3.96
463.141	4.02
463.496	4.12
463.852	3.98
464.208	4.07
464.564	4.1
464.919	4.1
465.275	4.18
465.631	4.23
465.986	4.21
466.342	4.06
466.697	4.32
467.052	4.03
467.408	4.04
467.763	4.19
468.118	4.3
468.473	4.07
468.829	4.14
469.184	4.12
469.539	4.13
469.894	4.2
470.249	4.1
470.603	4.16
470.958	4.17
471.313	4.15
471.668	4.18
472.023	4.28
472.377	4.23
472.732	3.93
473.086	4.3
473.441	4.01
473.795	4.31
474.15	4.08
474.504	4.07
474.859	4.22
475.213	4.11
475.567	3.97
475.921	4.15
476.275	4.19
476.63	3.98
476.984	4.03
477.338	4.17
477.692	4.07
478.045	4.31
478.399	4.29
478.753	4.07
479.107	4.16
479.461	4.15
479.814	4.15
480.168	4.06
480.521	4.16
480.875	4.26
481.228	4.21
481.582	4.07
481.935	4.03
482.289	4.14
482.642	3.98
482.995	4.09
483.348	4.15
483.701	4.07
484.055	4.05
484.408	3.97
484.761	4.03
485.114	3.91
485.466	3.83
485.819	3.86
486.172	3.78
486.525	3.81
486.878	3.83
487.23	3.91
487.583	3.93
487.936	4
488.288	4.03
488.641	3.95
488.993	3.93
489.345	3.91
489.698	3.86
490.05	3.89
490.402	3.9
490.754	3.83
491.107	3.89
491.459	3.99
491.811	3.97
492.163	4.03
492.515	3.96
492.866	4
493.218	4
493.57	3.92
493.922	3.9
494.274	3.94
494.625	3.92
494.977	4.04
495.328	4.02
495.68	4.14
496.031	4.06
496.383	4.06
496.734	4.14
497.086	3.99
497.437	4.06
497.788	4.24
498.139	4.06
498.49	4.13
498.842	4.03
499.193	4.03
499.544	4.22
499.894	3.99
500.245	4.16
500.596	4.05
500.947	4.07
501.298	4.16
501.648	4.17
501.999	4.15
502.35	4.12
502.7	4.19
503.051	4.21
503.401	4.21
503.752	4.17
504.102	4.06
504.452	4.24
504.803	4.11
505.153	4.09
505.503	4.09
505.853	4.1
506.203	4.02
506.553	4.13
506.903	4.26
507.253	3.92
507.603	4.21
507.953	4.16
508.303	4.17
508.652	4.11
509.002	4.2
509.352	4.02
509.701	4.19
510.051	4.11
510.4	4.1
510.75	4.06
511.099	3.94
511.449	4.23
511.798	4.03
512.147	4.08
512.496	4.1
512.846	4.13
513.195	4.15
513.544	4.07
513.893	4.19
514.242	3.97
514.591	4.15
514.939	4.18
515.288	4.08
515.637	4.07
515.986	3.96
516.334	4.21
516.683	4.06
517.032	4.29
517.38	4.19
517.729	4.12
518.077	4.11
518.426	4.08
518.774	4.22
519.122	4.08
519.47	4.02
519.819	4.16
520.167	4.08
520.515	4.09
520.863	3.95
521.211	3.98
521.559	4.03
521.907	4.11
522.255	4.05
522.602	4.09
522.95	4.01
523.298	4.21
523.645	4.17
523.993	3.99
524.341	4.08
524.688	4.1
525.036	4.18
525.383	3.99
525.73	4.07
526.078	4.1
526.425	4.06
526.772	4.16
527.119	4.1
527.466	3.97
527.814	4
528.161	3.93
528.508	3.99
528.854	4.07
529.201	4.1
529.548	3.99
529.895	3.96
530.242	3.91
530.588	3.84
530.935	3.8
531.282	3.83
531.628	3.87
531.975	3.91
532.321	3.93
532.667	3.97
533.014	3.97
533.36	4.05
533.706	4.03
534.052	4.11
534.399	4.03
534.745	3.95
535.091	3.86
535.437	3.91
535.783	3.84
536.129	3.92
536.474	4.04
536.82	3.94
537.166	4.08
537.512	4.01
537.857	4.07
538.203	4.1
538.549	4.01
538.894	3.92
539.239	3.97
539.585	3.93
539.93	4.12
540.276	4.04
540.621	4.01
540.966	4.08
541.311	4.07
541.656	4.04
542.001	4.04
542.346	4.09
542.691	4
543.036	4.02
543.381	3.91
543.726	3.91
544.071	3.88
544.415	3.87
544.76	3.87
545.105	3.89
545.449	3.89
545.794	3.96
546.138	4
546.483	4
546.827	3.99
547.171	4.11
547.516	4.05
547.86	4.04
548.204	3.96
548.548	4.07
548.892	3.97
549.236	3.98
549.58	3.99
549.924	4.09
550.268	4.14
550.612	4.11
550.956	4
551.3	4.21
551.643	4.04
551.987	4.11
552.33	4.26
552.674	4.06
553.017	3.97
553.361	4.03
553.704	4.25
554.048	4.23
554.391	4.12
554.734	4.11
555.077	3.99
555.42	4.1
555.764	3.98
556.107	4.14
556.45	4.02
556.793	4.08
557.135	4.09
557.478	4.01
557.821	4.2
558.164	4.16
558.507	4.21
558.849	3.95
559.192	4.11
559.534	4.2
559.877	4.13
560.219	4
560.562	4.23
560.904	4.17
561.246	4.44
561.589	4.24
561.931	3.9
562.273	4.16
562.615	3.88
562.957	4.12
563.299	4.11
563.641	4.23
563.983	4.19
564.325	4.31
564.667	4.1
565.008	4
565.35	4.25
565.692	4.13
566.033	4.08
566.375	4.16
566.716	4.17
567.058	3.9
567.399	3.92
567.741	4.2
568.082	4.12
568.423	4.11
568.764	4.12
569.105	3.95
569.447	3.94
569.788	3.97
570.129	4.02
570.47	4.22
570.811	4.07
571.151	4.19
571.492	4.1
571.833	3.92
572.174	4.1
572.514	4
572.855	4.01
573.195	3.87
573.536	4.08
573.876	3.97
574.217	3.98
574.557	3.91
574.898	4.11
575.238	3.92
575.578	4.1
575.918	4.09
576.258	3.89
576.598	3.92
576.938	4.02
577.278	4.08
577.618	3.96
577.958	3.98
578.298	4.11
578.638	4.04
578.977	4.11
579.317	4.01
579.657	4.05
579.996	4.03
580.336	4.16
580.675	3.96
581.014	3.97
581.354	3.92
581.693	4.05
582.032	4.01
582.372	4.05
582.711	4.08
583.05	3.91
583.389	4.18
583.728	3.97
584.067	4.09
584.406	4.06
584.745	3.8
585.083	3.99
585.422	4.11
585.761	4.14
586.1	3.91
586.438	3.97
586.777	4.26
587.115	4.25
587.454	4.09
587.792	4.13
588.13	4.02
588.469	3.97
588.807	4.51
589.145	3.98
589.483	3.95
589.821	3.91
590.159	4.01
590.497	4.27
590.835	4.01
591.173	3.98
591.511	4.2
591.849	4.17
592.187	4.25
592.524	4.05
592.862	4.06
593.2	4.08
593.537	3.84
593.875	3.89
594.212	4.19
594.55	4.46
594.887	3.84
595.224	4.02
595.561	4.03
595.899	4.23
596.236	4.34
596.573	4.26
596.91	4.1
597.247	4.03
597.584	4.42
597.921	4.18
598.258	4.38
598.594	4.2
598.931	3.99
599.268	4.09
599.604	4.17
599.941	3.86
600.277	3.89
600.614	3.85
600.95	4.02
601.287	3.82
601.623	3.94
601.959	4.12
602.296	4.06
602.632	3.97
602.968	4.09
603.304	4.03
603.64	3.93
603.976	4.38
604.312	4.13
604.648	3.81
604.984	4.17
605.319	3.98
605.655	3.94
605.991	4.08
606.326	4.26
606.662	3.92
606.998	4.03
607.333	4.09
607.668	3.99
608.004	4.23
608.339	3.72
608.674	4.19
609.01	3.84
609.345	4.21
609.68	4.19
610.015	3.96
610.35	4.18
610.685	3.93
611.02	3.97
611.355	4.06
611.689	4.15
612.024	4.01
612.359	3.93
612.694	3.87
613.028	4.01
613.363	3.82
613.697	3.88
614.032	4.2
614.366	3.91
614.7	4.04
615.035	4.13
615.369	4.03
615.703	4.1
616.037	4.16
616.371	4.27
616.705	4.32
617.039	4.35
617.373	3.96
617.707	4.09
618.041	4.16
618.375	4.09
618.709	4.19
619.042	4.43
619.376	4.07
619.71	3.95
620.043	3.86
620.377	3.84
620.71	3.88
621.043	4.09
621.377	3.95
621.71	4.01
622.043	4
622.376	4.17
622.709	4.14
623.043	3.89
623.376	3.92
623.709	4.14
624.041	3.84
624.374	3.96
624.707	4.36
625.04	3.99
625.373	3.62
625.705	4.01
626.038	3.7
626.37	4.37
626.703	4
627.035	3.79
627.368	4.16
627.7	4.56
628.032	4.33
628.365	4.16
628.697	3.96
629.029	4.16
629.361	3.89
629.693	4.17
630.025	4
630.357	3.84
630.689	4.03
631.021	4.06
631.353	4.15
631.684	4.1
632.016	4.23
632.348	3.76
632.679	4.1
633.011	3.98
633.342	4.2
633.674	4.33
634.005	3.72
634.336	4.07
634.668	4.21
634.999	4.46
635.33	4.29
635.661	3.94
635.992	4.18
636.323	4.07
636.654	4.12
636.985	3.95
637.316	3.79
637.647	4.03
637.977	3.6
638.308	4.24
638.639	3.93
638.969	4.38
639.3	4.28
639.63	4.19
639.961	3.7
640.291	3.75
640.622	4.61
640.952	4.21
641.282	4.2
641.612	3.96
641.943	4.34
642.273	4.18
642.603	4.12
642.933	4.2
643.263	3.75
643.592	3.82
643.922	4.33
644.252	4.01
644.582	4.04
644.911	3.92
645.241	4
645.571	3.74
645.9	4.27
646.23	4.54
646.559	4.22
646.888	4.15
647.218	3.77
647.547	3.91
647.876	3.92
648.205	3.75
648.534	4.48
648.863	3.94
649.192	3.84
649.521	4.08
649.85	4.53
650.179	4.14
650.508	3.62
650.837	4.25
651.165	3.91
651.494	3.74
651.822	3.59
652.151	3.71
652.479	4.01
652.808	4.39
653.136	4.45
653.465	4.21
653.793	3.68
654.121	4.32
654.449	3.52
654.777	3.97
655.105	4.39
655.433	4
655.761	4.38
656.089	4.23
656.417	3.75
656.745	3.86
657.073	4.25
657.4	5.06
657.728	4.25
658.056	3.45
658.383	4.08
658.711	4.06
659.038	3.89
659.365	4.42
659.693	3.78
660.02	4.21
660.347	4.44
660.674	4.31
661.001	3.91
661.329	3.94
661.656	4.2
661.982	3.67
662.309	4.15
662.636	4.18
662.963	3.91
663.29	4.21
663.616	4.2
663.943	4.07
664.27	4.18
664.596	4.31
664.923	3.93
665.249	3.88
665.576	4.11
665.902	4.21
666.228	3.74
666.554	3.63
666.881	4.71
667.207	4.29
667.533	4.02
667.859	4.24
668.185	4.29
668.511	4.41
668.837	4.03
669.162	4.33
669.488	4.13
669.814	4.22
670.139	3.9
670.465	4.28
670.791	4.28
671.116	3.98
671.442	4.31
671.767	3.9
672.092	4.52
672.418	4.83
672.743	4.19
673.068	4.15
673.393	3.99
673.718	4.36
674.043	4.72
674.368	4.21
674.693	3.67
675.018	4.1
675.343	4.22
675.667	4.3
675.992	4.4
676.317	4.44
676.641	3.63
676.966	4.81
677.29	3.85
677.615	3.9
677.939	4.7
678.264	3.91
678.588	4.42
678.912	4.49
679.236	3.94
679.56	4.4
679.885	4.26
680.209	4.51
680.532	4.2
680.856	4.26
681.18	4.56
681.504	4.27
681.828	4.48
682.152	4.08
682.475	4.47
682.799	4.48
683.122	4.16
683.446	4.34
683.769	3.87
684.093	3.99
684.416	4.59
684.739	4.34
685.062	4.77
685.386	3.98
685.709	4.28
686.032	3.8
686.355	4.19
686.678	4.52
687.001	4.28
687.324	4.89
687.646	4.36
687.969	4.93
688.292	4.57
688.614	4.96
688.937	3.84
689.26	3.79
689.582	4.48
689.904	4.05
690.227	5.09
690.549	4.44
690.871	4.14
691.194	4.58
691.516	4.13
691.838	4.32
692.16	4.08
692.482	4.48
692.804	3.79
693.126	3.63
693.448	4.46
693.769	4.2
694.091	4.5
694.413	4.48
694.735	3.74
695.056	4.38
695.378	4.31
695.699	4.54
696.021	3.81
696.342	4.11
696.663	4.18
696.984	3.51
697.306	4.22
697.627	3.56
697.948	4.35
698.269	4.66
698.59	4.22
698.911	3.82
699.232	4.3
699.553	4.26
699.873	4.26
700.194	4.15
700.515	3.42
700.835	4.78
701.156	4.48
701.477	4.12
701.797	4.18
702.117	4.29
702.438	4.04
702.758	3.24
703.078	4.74
703.398	4.36
703.719	4.05
704.039	4.51
704.359	4.48
704.679	3.64
704.999	5.44
705.319	4.26
705.638	4.43
705.958	4.72
706.278	5.07
706.597	4.06
706.917	4.27
707.237	4.66
707.556	4.54
707.876	3.66
708.195	5.48
708.514	3.88
708.834	3.99
709.153	4.91
709.472	3.88
709.791	4
710.11	4.07
710.429	4.45
710.748	4.22
711.067	4.08
711.386	4.73
711.705	4.91
712.023	4.79
712.342	4.44
712.661	4.35
712.979	4.12
713.298	5.05
713.616	4.61
713.935	4.59
714.253	5.4
714.572	5.48
714.89	5.48
715.208	4.65
715.526	4.29
715.844	5.45
716.162	3.51
716.48	4.77
716.798	3.98
717.116	4.72
717.434	4.98
717.752	4.4
718.069	3.88
718.387	4.57
718.705	3.53
719.022	5.16
719.34	4.16
719.657	3.77
719.975	5.42
720.292	5.32
720.609	5.04
720.927	4.54
721.244	3.87
721.561	5.49
721.878	4.51
722.195	4.48
722.512	5.48
722.829	4.56
723.146	5.81
723.463	4.61
723.779	4.09
724.096	2.54
724.413	6.15
724.729	5.34
725.046	4.37
725.362	3.55
725.679	3.19
725.995	5.41
726.311	2.82
726.628	3.92
726.944	4.33
727.26	4.18
727.576	4.28
727.892	3.95
728.208	4.65
728.524	5.67
728.84	3.43
729.156	4.83
729.472	5.89
729.787	4.3
730.103	4.22
730.419	5.54
730.734	4.69
731.05	4.11
731.365	4.68
731.681	4.5
731.996	4.62
732.311	5.04
732.626	4.29
732.942	4.59
733.257	4.55
733.572	3.87
733.887	3.58
734.202	4.83
734.517	4.83
734.832	4.92
735.146	5.11
735.461	5.49
735.776	4.64
736.091	4.42
736.405	4.09
736.72	5.07
737.034	4.73
737.349	3.88
737.663	3.05
737.977	4.46
738.292	5.39
738.606	3.99
738.92	5.49
739.234	5.7
739.548	4.87
739.862	3.92
740.176	5.3
740.49	5.11
740.804	4.19
741.117	5.29
741.431	4.72
741.745	5.45
742.058	4.94
742.372	2.67
742.685	5.55
742.999	5.88
743.312	4.74
743.626	3.62
743.939	4.29
744.252	4.93
744.565	2.74
744.878	4.94
745.191	3.73
745.505	5.96
745.817	4.03
746.13	5.86
746.443	6
746.756	4.68
747.069	5.22
747.381	3.35
747.694	3.38
748.007	5.18
748.319	5.78
748.632	4.88
748.944	4.5
749.256	6.02
749.569	4.52
749.881	5.97
750.193	6.45
750.505	6.26
750.817	6.2
751.129	5.71
751.441	6.14
751.753	5.4
752.065	5.68
752.377	5.72
752.689	3.65
753	5.12
753.312	5.75
753.624	4.97
753.935	6.33
754.247	5.7
754.558	6.22
754.869	3.97
755.181	5.6
755.492	5.13
755.803	7.73
756.114	4.78
756.425	7.79
756.736	3.18
757.047	5.98
757.358	5.75
757.669	4.71
757.98	5.06
758.291	4.59
758.601	5.54
758.912	4.5
759.223	5.23
759.533	4.09
759.844	6.11
760.154	5.02
760.464	4.89
760.775	6.04
761.085	6.27
761.395	6.33
761.705	5.16
762.016	3.41
762.326	4.75
762.636	6.45
762.945	4.13
763.255	5.02
763.565	4.26
763.875	4.37
764.185	5.56
764.494	5.81
764.804	4.82
765.113	4.55
765.423	5.67
765.732	5.54
766.042	4.83
766.351	5.58
766.66	5.67
766.97	5.11
767.279	5.75
767.588	5.62
767.897	4.35
768.206	4.95
768.515	4.98
768.824	6.52
769.133	6.57
769.441	5.53
769.75	6.65
770.059	8.5
770.367	2.95
770.676	6.96
770.984	2.99
771.293	4.52
771.601	5.85
771.91	6.4
772.218	2.77
772.526	8.47
772.834	5.5
773.142	4.87
773.45	6.93
773.758	2.26
774.066	4.73
774.374	3.12
774.682	4.78
774.99	7.06
775.298	4.55
775.605	5.71
775.913	6.3
776.22	3.52
776.528	5.93
776.835	4.16
777.143	4.47
777.45	5.87
777.757	4.06
778.065	4.93
778.372	6.41
778.679	6.78
778.986	4.87
779.293	3.39
779.6	2.99
779.907	6.69
780.214	10.98
780.52	4.88
780.827	7.84
781.134	5.03
781.44	7.52
781.747	6.23
782.053	4.72
782.36	4.87
782.666	4.99
782.973	8.51
783.279	4.83
783.585	8.29
783.891	5.8
784.197	4.72
784.503	2.02
784.809	6.25
785.115	6.06
785.421	7.45
785.727	4.57
786.033	5.17
786.339	6.62
786.644	7.82
786.95	1.04
787.255	8.16
787.561	10.19
787.866	8.48
788.172	4.97
788.477	5.73
788.782	2.75
789.088	5.74
789.393	4.06
789.698	5.95
790.003	3.34
790.308	1.62
790.613	5.92
790.918	6.9
791.223	5.79
791.527	2.34
791.832	4.76
792.137	6.67
792.441	7.24
792.746	5.17
793.05	7.09
793.355	4.82
793.659	7.14
793.963	9.94
794.268	3.83
794.572	3.6
794.876	2.57
795.18	3.71
795.484	3.36
795.788	2.41
796.092	3.32
796.396	8.71
796.7	7.93
797.004	7.47
797.307	1.89
797.611	4.06
797.915	8.5
798.218	8.59
798.522	2.2
798.825	7.67
799.128	11.32
799.432	4.76
799.735	5.42
800.038	4.42
800.341	4.88
800.644	7.51
800.947	3.98
801.25	6.26
801.553	11.51
801.856	9.38
802.159	5.62
802.462	7.51
802.764	6.75
803.067	6.54
803.37	6.99
803.672	4.15
803.975	4.23
804.277	8.82
804.579	7.03
804.882	4.43
805.184	6.35
805.486	3.46
805.788	7.49
806.09	7.09
806.392	3.32
806.694	6.86
806.996	6.61
807.298	7.01
807.6	10
807.902	7.62
808.203	4.39
808.505	8.8
808.807	7.25
809.108	7.35
809.409	7.28
809.711	6.94
810.012	5.67
810.313	3.68
810.615	7.85
810.916	3.92
811.217	6.73
811.518	8.45
811.819	7.78
812.12	12.41
812.421	7.47
812.722	3.99
813.023	2.69
813.323	5.29
813.624	4.25
813.925	11.15
814.225	10.67
814.526	6.46
814.826	11.01
815.126	7.26
815.427	10.2
815.727	5.32
816.027	2.99
816.327	2.33
816.627	11
816.927	9.71
817.227	7.7
817.527	0.63
817.827	6.3
818.127	2.08
818.427	10.8
818.727	1.87
819.026	9.44
819.326	5.63
819.625	3.48
819.925	6.64
820.224	7.3
820.524	6.22
820.823	5.17
821.122	-3.19
821.421	6.45
821.72	10.53
822.019	6.05
822.318	3.85
822.617	6.58
822.916	7.83
823.215	3.63
823.514	6.29
823.813	8.7
824.111	10.54
824.41	7.52
824.709	5.88
825.007	6.69
825.306	6.61
825.604	6.2
825.902	6.85
826.201	6.66
826.499	6.53
826.797	7.01
827.095	8.53
827.393	7.52
827.691	5.98
827.989	4.99
828.287	5.64
828.585	6.72
828.882	5.8
829.18	7.83
829.478	5.4
829.775	5.29
830.073	6.61
830.37	6.28
830.668	6.61
830.965	8.38
831.263	6.32
831.56	5.81
831.857	6.04
832.154	8.95
832.451	4.58
832.748	6.32
833.045	8.25
833.342	9.26
833.639	7.5
833.936	7.93
834.232	9.13
834.529	11.6
834.826	3.64
835.122	5.74
835.419	4.07
835.715	2.51
836.012	8.24
836.308	4.01
836.604	8.97
836.901	3.87
837.197	11.11
837.493	9.8
837.789	5.48
838.085	6.32
838.381	6.12
838.677	5.27
838.972	11.5
839.268	10.14
839.564	10.82
839.86	7.49
840.155	6.83
840.451	8.87
840.746	11.6
841.042	2.06
841.337	14.27
841.632	14.32
841.928	7.22
842.223	23.32
842.518	5.6
842.813	8.38
843.108	2.1
843.403	7.45
843.698	10.44
843.993	5.24
844.287	6.77
844.582	3.31
844.877	2.16
845.171	7.89
845.466	4.5
845.761	-2.46
846.055	16.69
846.349	-6.61
846.644	5.14
846.938	7.92
847.232	0.49
847.526	7.64
847.82	11.48
848.114	8
848.408	6.54
848.702	13.87
848.996	5.52
849.29	1.9
849.584	8.42
849.877	5.6
850.171	9.95
850.465	-14.57
850.758	12.54
851.052	2.93
851.345	13.54
851.638	3.93
851.932	26.07
852.225	11.33
852.518	9.26
852.811	13.83
853.104	9.41
853.397	18.68
853.69	-2.11
853.983	6.69
854.276	-10.76
854.569	5.64
854.861	-10.84
855.154	3.72
855.447	12.85
855.739	-31.15
856.032	-7.83
856.324	6.21
856.616	9.78
856.909	4.06
857.201	8.31
857.493	-3.08
857.785	16.83
858.077	9.94
858.369	15.45
858.661	29.98
858.953	8.2
859.245	10.81
859.537	2.7
859.829	4.22
860.12	16.97
860.412	2.22
860.703	-16.36
860.995	5.13
861.286	3.29
861.578	12.39
861.869	1.6
862.16	-0.15
862.452	-37.29
862.743	18.79
863.034	30.32
863.325	36.55
863.616	-9.09
863.907	19.82
864.198	10.82
864.488	-5.47
864.779	-0.64
865.07	17.47
865.36	-23.71
865.651	12.55
865.941	-29.93
866.232	-0.31
866.522	31.69
866.813	6.55
867.103	4.14
867.393	-11.18
867.683	6.08
867.973	-3.76
868.263	-0.42
868.553	8.26
868.843	-14.33
869.133	14.53
869.423	15.75
869.713	-8.49
870.002	23.35
870.292	22.9
870.582	-2.77
870.871	7.79
871.161	-2.44
871.45	2.35
871.739	30.56
872.029	3.64
872.318	12.94
872.607	22.81
872.896	-2.04
873.185	20.35
873.474	18.06
873.763	0.01
874.052	3.39
874.341	15.19
874.63	10.93
874.918	-19.69
875.207	22.75
875.496	21.32
875.784	-20.72
876.073	17.35
876.361	23.75
876.649	-8.73
876.938	28.58
877.226	2.29
877.514	24.3
877.802	-14.17
878.09	20.24
878.378	7.13
878.666	30.61
878.954	26.21
879.242	16.28
879.53	7.07
879.817	14.68
880.105	-4.13
880.392	-20.99
880.68	-2.97
880.967	13.3
881.255	13.89
881.542	10.6
881.83	33.73
882.117	-35.92
882.404	1.49
882.691	13.38
882.978	3.21
883.265	-23.97
883.552	12.6
883.839	-49.94
884.126	9.4
884.413	-9.09
884.699	4.44
884.986	13.47
885.273	4.09
885.559	4.09
885.846	4.09
