Data from 0280_forehead_Reflection__0__329.txt Node

Date: Fri Sep 22 23:20:49 CDT 2023
User: ToomeyLab
Spectrometer: FLMS14357
Trigger mode: 0
Integration Time (sec): 1.000000E-2
Scans to average: 100
Electric dark correction enabled: true
Nonlinearity correction enabled: false
Boxcar width: 0
XAxis mode: Wavelengths
Number of Pixels in Spectrum: 2048
>>>>>Begin Spectral Data<<<<<
189.047	-133.7
189.435	-133.7
189.823	-133.7
190.211	30.9
190.599	-1.22
190.987	3.7
191.375	248.02
191.763	550.18
192.151	-320.22
192.538	6.57
192.926	119.39
193.314	25.86
193.702	-121.75
194.089	218.14
194.477	-861.94
194.864	-21.4
195.252	-5.55
195.639	137.09
196.027	582.78
196.414	-67.13
196.801	97.92
197.189	84.72
197.576	18.99
197.963	-30.79
198.351	48.56
198.738	11.59
199.125	20.11
199.512	32.5
199.899	34.68
200.286	23.68
200.673	24.1
201.06	28.25
201.447	61.09
201.833	8.33
202.22	73.5
202.607	16.02
202.994	76.63
203.38	26.87
203.767	32.6
204.154	72.13
204.54	32.9
204.927	2.2
205.313	75.59
205.699	67.16
206.086	36.02
206.472	46.88
206.858	43.86
207.245	10.58
207.631	34.64
208.017	17.17
208.403	29.29
208.789	70.1
209.175	48.68
209.561	56
209.947	65.33
210.333	53.57
210.719	23.62
211.105	43.86
211.491	39.89
211.876	62.53
212.262	34.32
212.648	44.06
213.034	41.49
213.419	41.3
213.805	30.9
214.19	31.71
214.576	32.98
214.961	9.89
215.346	45.75
215.732	71.72
216.117	13.71
216.502	40.84
216.888	33.43
217.273	11.39
217.658	52.89
218.043	33.88
218.428	34.39
218.813	-2.99
219.198	37.16
219.583	27.02
219.968	20.22
220.353	32.14
220.738	9.44
221.122	15.86
221.507	6.8
221.892	24.07
222.276	12.22
222.661	-3.81
223.046	24.1
223.43	26.21
223.815	26.37
224.199	13.23
224.583	15.48
224.968	16.01
225.352	5.4
225.736	18.21
226.121	9.89
226.505	12.62
226.889	1.32
227.273	12.34
227.657	8.2
228.041	3.26
228.425	9.82
228.809	3.42
229.193	3.85
229.577	7.65
229.961	4.58
230.344	4.33
230.728	2.52
231.112	3.84
231.495	2.89
231.879	3.86
232.263	3.13
232.646	2.17
233.03	2.87
233.413	4.4
233.797	4.06
234.18	4.4
234.563	5.15
234.946	5.76
235.33	4.27
235.713	2.6
236.096	3.13
236.479	4.74
236.862	5.7
237.245	5.5
237.628	4.9
238.011	4.91
238.394	4.17
238.777	5.47
239.16	5.28
239.543	5
239.925	4.64
240.308	3.26
240.691	5.02
241.073	3.72
241.456	3.41
241.838	4.37
242.221	3.92
242.603	2.97
242.986	3.36
243.368	3.29
243.75	3.96
244.133	4.09
244.515	3.24
244.897	3.05
245.279	3.34
245.661	3.33
246.043	3.73
246.425	3.92
246.807	4.38
247.189	3.52
247.571	4.61
247.953	3.68
248.335	3.76
248.717	3.85
249.098	3.17
249.48	3.15
249.862	3.39
250.243	3.42
250.625	3.39
251.006	3.13
251.388	3.7
251.769	3.91
252.151	3.24
252.532	3.58
252.913	4.16
253.295	5.46
253.676	3.8
254.057	3.81
254.438	4.07
254.819	3.51
255.2	3.74
255.581	4.27
255.962	4.24
256.343	3.04
256.724	3.52
257.105	4.98
257.486	4.22
257.867	3.51
258.247	4.39
258.628	3.86
259.009	3.49
259.389	4.04
259.77	3.6
260.15	4.6
260.531	4
260.911	3.51
261.292	3.6
261.672	3.08
262.052	3.48
262.432	3.41
262.813	3.79
263.193	2.88
263.573	4.16
263.953	3.8
264.333	3.79
264.713	3.45
265.093	3.67
265.473	4.01
265.853	3.85
266.233	3.75
266.612	4.39
266.992	4.95
267.372	3.82
267.752	3.73
268.131	3.53
268.511	3.43
268.89	3.75
269.27	3.38
269.649	3.75
270.029	3.3
270.408	3.63
270.787	3.61
271.167	3.49
271.546	3.19
271.925	3.93
272.304	3.79
272.683	3.7
273.062	3.96
273.441	3.65
273.82	3.66
274.199	3.75
274.578	3.78
274.957	3.41
275.336	3.68
275.715	3.75
276.093	3.7
276.472	3.71
276.851	4.01
277.229	3.71
277.608	3.81
277.986	3.77
278.365	4.02
278.743	3.81
279.122	3.81
279.5	3.84
279.878	3.4
280.257	4.48
280.635	4.19
281.013	3.79
281.391	4.08
281.769	3.54
282.147	3.77
282.525	3.21
282.903	3.73
283.281	4.02
283.659	3.71
284.037	3.64
284.415	3.96
284.792	3.76
285.17	4.15
285.548	4.13
285.925	3.99
286.303	3.73
286.68	3.64
287.058	3.48
287.435	3.56
287.813	3.44
288.19	3.28
288.567	3.84
288.945	3.51
289.322	3.73
289.699	4.07
290.076	4.16
290.453	4.23
290.83	3.83
291.207	3.48
291.584	3.61
291.961	4.15
292.338	4.12
292.715	4.28
293.092	3.65
293.469	3.97
293.845	3.91
294.222	4.01
294.599	4.66
294.975	4.52
295.352	4.76
295.728	4.77
296.105	4.94
296.481	4.37
296.858	4.61
297.234	4.68
297.61	4.64
297.986	4.62
298.363	4.67
298.739	4.54
299.115	4.61
299.491	4.94
299.867	4.62
300.243	4.48
300.619	4.79
300.995	4.45
301.371	5.35
301.746	5.49
302.122	5.13
302.498	4.6
302.874	5.05
303.249	5.33
303.625	5.36
304	6.08
304.376	5.37
304.751	5.85
305.127	5.58
305.502	6.19
305.878	6.06
306.253	6.54
306.628	6.06
307.003	5.92
307.378	6.07
307.754	6.07
308.129	6.24
308.504	6.13
308.879	6.28
309.254	6.35
309.629	6.25
310.003	6.83
310.378	6.43
310.753	6.76
311.128	6.92
311.502	6.85
311.877	6.32
312.252	6.73
312.626	6.77
313.001	7.32
313.375	7.33
313.75	7.26
314.124	7.67
314.498	6.94
314.873	7.4
315.247	7.58
315.621	7.58
315.995	7.8
316.369	7.62
316.743	7.77
317.117	8.03
317.491	8.25
317.865	7.37
318.239	8.22
318.613	8.59
318.987	7.92
319.361	8.36
319.734	8.51
320.108	8.51
320.482	8.26
320.855	8.74
321.229	8.97
321.602	8.64
321.976	8.24
322.349	9.16
322.723	9.22
323.096	9.1
323.469	9.41
323.843	8.77
324.216	9.79
324.589	9.17
324.962	9.22
325.335	9.07
325.708	9.17
326.081	9.54
326.454	8.92
326.827	9.12
327.2	9.13
327.573	9.67
327.945	9.66
328.318	9.71
328.691	9.81
329.063	9.43
329.436	10
329.809	9.98
330.181	9.85
330.553	10.15
330.926	10.51
331.298	10.35
331.671	10.54
332.043	9.79
332.415	10.67
332.787	10.73
333.159	10.29
333.532	10.63
333.904	10.6
334.276	10.34
334.648	10.06
335.02	10.44
335.391	10.76
335.763	11.18
336.135	10.98
336.507	10.54
336.879	10.25
337.25	10.9
337.622	11.06
337.993	10.83
338.365	10.97
338.736	11.09
339.108	11.38
339.479	11.1
339.851	10.62
340.222	11.01
340.593	11.44
340.964	10.94
341.336	11.6
341.707	10.97
342.078	11.56
342.449	11.88
342.82	11.3
343.191	11.39
343.562	11.54
343.933	11.95
344.303	11.79
344.674	12.1
345.045	12.17
345.416	12.14
345.786	11.89
346.157	12.18
346.527	11.82
346.898	12.01
347.268	11.89
347.639	12.04
348.009	12.33
348.38	12.22
348.75	12.44
349.12	12.24
349.49	13.01
349.861	12.49
350.231	12.22
350.601	12.73
350.971	12.88
351.341	13.09
351.711	12.71
352.081	12.75
352.45	13.04
352.82	13
353.19	13.44
353.56	12.89
353.929	12.95
354.299	13.37
354.669	12.93
355.038	13.43
355.408	13.09
355.777	13.58
356.147	13.79
356.516	13.55
356.885	13.68
357.254	13.75
357.624	13.34
357.993	13.72
358.362	14.06
358.731	13.85
359.1	13.63
359.469	13.68
359.838	13.59
360.207	13.45
360.576	13.96
360.945	14.07
361.314	13.97
361.682	14.06
362.051	14.16
362.42	14.19
362.788	14.01
363.157	14.25
363.525	13.87
363.894	14.26
364.262	14.12
364.631	14.24
364.999	14.24
365.367	14.71
365.735	14.57
366.104	14.56
366.472	14.87
366.84	14.53
367.208	15.21
367.576	14.91
367.944	15.09
368.312	15.17
368.68	14.75
369.048	15.25
369.416	15.1
369.783	15.43
370.151	15.02
370.519	15.53
370.886	15.27
371.254	15.57
371.621	15.04
371.989	15.62
372.356	15.73
372.724	15.87
373.091	15.8
373.458	15.57
373.826	15.65
374.193	16.22
374.56	15.9
374.927	15.91
375.294	15.93
375.661	16.07
376.028	16.38
376.395	16.39
376.762	16.05
377.129	16.33
377.496	16.56
377.863	16.32
378.229	16.32
378.596	16.37
378.963	16.78
379.329	16.77
379.696	16.65
380.062	16.43
380.429	16.5
380.795	16.74
381.161	16.75
381.528	16.89
381.894	16.36
382.26	16.9
382.626	17.05
382.993	17.11
383.359	16.77
383.725	17.11
384.091	17.3
384.457	17.41
384.823	16.97
385.188	17.4
385.554	17.57
385.92	17.71
386.286	17.33
386.651	17.25
387.017	17.78
387.383	17.35
387.748	17.92
388.114	17.56
388.479	17.96
388.845	17.87
389.21	17.92
389.575	18.14
389.94	17.94
390.306	18.09
390.671	18.19
391.036	17.82
391.401	18.12
391.766	18.02
392.131	17.98
392.496	18.41
392.861	18.28
393.226	18.44
393.591	18.47
393.956	18.37
394.32	18.23
394.685	18.49
395.05	18.92
395.414	18.62
395.779	18.72
396.143	18.75
396.508	18.78
396.872	18.99
397.236	18.87
397.601	18.88
397.965	19.09
398.329	19.14
398.694	19.29
399.058	18.98
399.422	19.2
399.786	19.39
400.15	19.56
400.514	19.42
400.878	19.43
401.242	19.66
401.605	19.42
401.969	19.38
402.333	19.76
402.697	19.61
403.06	19.6
403.424	19.82
403.787	20.19
404.151	19.89
404.514	20.25
404.878	20.34
405.241	20.34
405.604	20.12
405.968	20.01
406.331	20.09
406.694	20.11
407.057	20.06
407.42	20.37
407.783	20.32
408.146	20.57
408.509	20.37
408.872	20.39
409.235	20.42
409.598	20.68
409.961	20.97
410.323	20.98
410.686	20.65
411.049	20.95
411.411	20.98
411.774	20.77
412.136	20.76
412.499	21.08
412.861	21.01
413.223	21.37
413.586	21.27
413.948	21.25
414.31	21.25
414.672	21.2
415.035	21.26
415.397	21.6
415.759	21.75
416.121	21.41
416.483	21.55
416.845	21.41
417.206	21.5
417.568	21.62
417.93	21.57
418.292	21.63
418.653	21.56
419.015	21.67
419.377	21.51
419.738	21.77
420.1	21.8
420.461	21.7
420.822	21.72
421.184	21.51
421.545	21.51
421.906	21.61
422.267	21.52
422.629	21.78
422.99	21.68
423.351	21.57
423.712	21.5
424.073	21.78
424.434	21.9
424.795	21.84
425.155	22.18
425.516	21.97
425.877	22.07
426.238	22.05
426.598	22.07
426.959	22.23
427.32	22.15
427.68	22.21
428.041	22.33
428.401	22.57
428.761	22.68
429.122	22.73
429.482	22.67
429.842	22.9
430.202	22.9
430.563	23.24
430.923	23.33
431.283	23.3
431.643	23.41
432.003	23.42
432.363	23.55
432.722	23.54
433.082	23.78
433.442	23.64
433.802	23.46
434.161	23.42
434.521	23.6
434.881	23.47
435.24	23.71
435.6	23.42
435.959	23.48
436.319	23.61
436.678	24
437.037	23.79
437.396	23.86
437.756	23.88
438.115	24.27
438.474	24.18
438.833	24.2
439.192	24.09
439.551	24.15
439.91	24.3
440.269	24.38
440.628	24.31
440.987	24.18
441.345	24.32
441.704	24.52
442.063	24.36
442.421	24.22
442.78	24.24
443.138	24.42
443.497	24.44
443.855	24.6
444.214	24.48
444.572	24.81
444.93	24.84
445.288	24.91
445.647	24.9
446.005	24.92
446.363	24.97
446.721	25.06
447.079	24.89
447.437	24.92
447.795	25.09
448.153	24.82
448.51	24.78
448.868	24.83
449.226	24.92
449.584	24.9
449.941	24.9
450.299	25.13
450.656	25.31
451.014	25.44
451.371	25.56
451.729	25.68
452.086	25.77
452.443	26.05
452.801	26.01
453.158	25.86
453.515	26.17
453.872	26.03
454.229	26.05
454.586	26.13
454.943	26.22
455.3	25.93
455.657	26.09
456.014	26.15
456.371	26.52
456.727	26.5
457.084	26.51
457.441	26.31
457.797	26.54
458.154	26.62
458.51	26.54
458.867	26.98
459.223	26.85
459.58	27.11
459.936	26.89
460.292	26.91
460.648	26.69
461.005	27.07
461.361	26.72
461.717	26.61
462.073	26.34
462.429	26.34
462.785	26.56
463.141	26.81
463.496	27
463.852	27.21
464.208	27.13
464.564	27.5
464.919	27.37
465.275	27.65
465.631	27.69
465.986	27.76
466.342	27.79
466.697	28.01
467.052	27.66
467.408	27.89
467.763	28
468.118	28.25
468.473	28.03
468.829	28.03
469.184	28.2
469.539	28.15
469.894	27.97
470.249	28.46
470.603	28.33
470.958	28.41
471.313	28.45
471.668	28.32
472.023	28.45
472.377	28.81
472.732	28.7
473.086	28.66
473.441	28.42
473.795	28.84
474.15	28.66
474.504	28.74
474.859	28.86
475.213	28.66
475.567	28.65
475.921	29.15
476.275	29.11
476.63	28.74
476.984	29.15
477.338	29.37
477.692	29.32
478.045	29.44
478.399	29.29
478.753	29.3
479.107	29.19
479.461	29.14
479.814	29.4
480.168	29.44
480.521	29.57
480.875	29.63
481.228	29.44
481.582	29.45
481.935	29.51
482.289	29.6
482.642	29.44
482.995	29.65
483.348	29.74
483.701	29.44
484.055	29.49
484.408	29.41
484.761	29.51
485.114	29.19
485.466	28.74
485.819	28.63
486.172	28.52
486.525	28.73
486.878	28.9
487.23	29.06
487.583	29.24
487.936	29.44
488.288	29.46
488.641	29.55
488.993	29.52
489.345	29.37
489.698	29.22
490.05	29.28
490.402	29.44
490.754	29.55
491.107	29.59
491.459	29.91
491.811	30.19
492.163	30.25
492.515	30.35
492.866	30.39
493.218	30.46
493.57	30.08
493.922	29.91
494.274	29.97
494.625	30.22
494.977	30.53
495.328	30.52
495.68	30.8
496.031	31.05
496.383	31.4
496.734	31.38
497.086	31.37
497.437	31.69
497.788	31.63
498.139	31.77
498.49	31.71
498.842	31.45
499.193	31.47
499.544	31.5
499.894	31.45
500.245	31.5
500.596	31.68
500.947	31.9
501.298	31.8
501.648	32
501.999	32.29
502.35	32.11
502.7	32.35
503.051	32.26
503.401	32.46
503.752	32.55
504.102	32.58
504.452	32.86
504.803	32.49
505.153	32.64
505.503	32.57
505.853	32.76
506.203	32.66
506.553	32.9
506.903	32.77
507.253	32.8
507.603	33.03
507.953	33.14
508.303	33.04
508.652	33.15
509.002	33.26
509.352	33.1
509.701	33.26
510.051	33.24
510.4	33.22
510.75	33.07
511.099	33.07
511.449	33.31
511.798	33.26
512.147	33.14
512.496	33.19
512.846	33.23
513.195	33.5
513.544	33.55
513.893	33.74
514.242	33.38
514.591	33.68
514.939	33.67
515.288	33.74
515.637	33.94
515.986	33.81
516.334	34.15
516.683	34.02
517.032	34.11
517.38	34.32
517.729	34.16
518.077	34.4
518.426	34.43
518.774	34.46
519.122	34.41
519.47	34.24
519.819	34.33
520.167	34.35
520.515	34.1
520.863	33.78
521.211	34
521.559	34.04
521.907	34.23
522.255	34.53
522.602	34.36
522.95	34.69
523.298	34.82
523.645	34.83
523.993	34.9
524.341	35.09
524.688	35.18
525.036	35.15
525.383	35.33
525.73	35.32
526.078	35.15
526.425	35.19
526.772	35.23
527.119	35.19
527.466	35.07
527.814	34.91
528.161	34.83
528.508	34.93
528.854	34.97
529.201	35
529.548	35.12
529.895	35.02
530.242	34.83
530.588	34.64
530.935	34.53
531.282	34.68
531.628	34.73
531.975	34.83
532.321	34.98
532.667	35.3
533.014	35.48
533.36	35.63
533.706	35.49
534.052	35.75
534.399	35.77
534.745	35.7
535.091	35.61
535.437	35.36
535.783	35.28
536.129	35.65
536.474	35.86
536.82	35.99
537.166	36.21
537.512	36.13
537.857	36.42
538.203	36.58
538.549	36.38
538.894	36.15
539.239	36.27
539.585	36.28
539.93	36.68
540.276	36.8
540.621	36.87
540.966	37.01
541.311	37.24
541.656	37.28
542.001	37.17
542.346	37.19
542.691	37.12
543.036	36.73
543.381	36.58
543.726	36.39
544.071	36.41
544.415	36.67
544.76	36.78
545.105	36.89
545.449	36.92
545.794	37.26
546.138	37.39
546.483	37.38
546.827	37.71
547.171	37.68
547.516	37.84
547.86	37.96
548.204	37.87
548.548	38.02
548.892	37.81
549.236	37.97
549.58	37.89
549.924	38.36
550.268	38.24
550.612	38.58
550.956	38.51
551.3	38.76
551.643	39.06
551.987	39.07
552.33	38.97
552.674	39.28
553.017	39.26
553.361	39.25
553.704	39.45
554.048	39.3
554.391	39.27
554.734	39.14
555.077	39.13
555.42	39.26
555.764	39.11
556.107	39.49
556.45	39.38
556.793	39.44
557.135	39.71
557.478	39.88
557.821	39.73
558.164	39.76
558.507	39.94
558.849	39.65
559.192	39.98
559.534	40.2
559.877	40.35
560.219	40.4
560.562	40.28
560.904	40.14
561.246	40.31
561.589	40.46
561.931	40.28
562.273	40.4
562.615	40.57
562.957	40.54
563.299	40.43
563.641	40.68
563.983	40.48
564.325	40.91
564.667	40.58
565.008	40.58
565.35	41.01
565.692	40.95
566.033	40.94
566.375	40.88
566.716	41.02
567.058	41.09
567.399	40.83
567.741	41.18
568.082	40.73
568.423	40.86
568.764	41.03
569.105	40.89
569.447	41.04
569.788	41.02
570.129	41.3
570.47	41.34
570.811	41.58
571.151	41.53
571.492	41.5
571.833	41.43
572.174	41.59
572.514	41.9
572.855	41.53
573.195	41.73
573.536	41.66
573.876	41.46
574.217	41.61
574.557	41.57
574.898	41.99
575.238	41.77
575.578	41.9
575.918	41.76
576.258	42.08
576.598	42.08
576.938	41.93
577.278	42.2
577.618	41.94
577.958	42.29
578.298	42.52
578.638	42.39
578.977	42.74
579.317	42.69
579.657	42.68
579.996	42.9
580.336	43
580.675	42.84
581.014	42.8
581.354	43.24
581.693	42.98
582.032	43.01
582.372	43.55
582.711	43.27
583.05	43.3
583.389	43.45
583.728	43.41
584.067	43.38
584.406	43.79
584.745	43.47
585.083	43.34
585.422	43.84
585.761	43.82
586.1	43.7
586.438	43.86
586.777	44.08
587.115	43.96
587.454	43.8
587.792	44.1
588.13	44.36
588.469	43.99
588.807	44.34
589.145	44.31
589.483	44.25
589.821	44.4
590.159	44.21
590.497	44.56
590.835	44.18
591.173	44.77
591.511	44.56
591.849	44.45
592.187	44.35
592.524	44.36
592.862	44.51
593.2	44.68
593.537	44.87
593.875	44.71
594.212	44.92
594.55	45
594.887	44.61
595.224	44.96
595.561	44.89
595.899	44.83
596.236	45.33
596.573	45.08
596.91	44.97
597.247	45
597.584	45.15
597.921	45.11
598.258	45.59
598.594	45.13
598.931	45
599.268	44.83
599.604	44.97
599.941	45.01
600.277	45.06
600.614	45.43
600.95	45.63
601.287	45.46
601.623	45.71
601.959	45.83
602.296	46.08
602.632	45.84
602.968	46.11
603.304	46.24
603.64	45.97
603.976	45.91
604.312	46.14
604.648	45.96
604.984	46.15
605.319	46.01
605.655	45.93
605.991	46.09
606.326	46.16
606.662	45.82
606.998	45.9
607.333	45.83
607.668	46.15
608.004	45.74
608.339	46.23
608.674	46.27
609.01	46.57
609.345	46.61
609.68	46.82
610.015	47.08
610.35	46.83
610.685	46.75
611.02	46.73
611.355	46.8
611.689	46.9
612.024	46.58
612.359	46.64
612.694	46.81
613.028	46.68
613.363	46.86
613.697	47.29
614.032	47.01
614.366	47.51
614.7	47.1
615.035	47.55
615.369	47.39
615.703	47.55
616.037	47.75
616.371	47.72
616.705	47.69
617.039	47.39
617.373	47.94
617.707	48.3
618.041	48.07
618.375	48.17
618.709	47.93
619.042	48.06
619.376	48.13
619.71	48.03
620.043	48.28
620.377	48.62
620.71	48.21
621.043	48.58
621.377	48.41
621.71	48.18
622.043	48.31
622.376	48.81
622.709	48.03
623.043	48.62
623.376	49.07
623.709	48.85
624.041	49.03
624.374	48.76
624.707	49.05
625.04	48.58
625.373	48.55
625.705	48.7
626.038	48.74
626.37	49.07
626.703	49.03
627.035	49.44
627.368	49.23
627.7	49.81
628.032	49.06
628.365	48.53
628.697	48.57
629.029	49.12
629.361	49.02
629.693	49.43
630.025	49.36
630.357	48.98
630.689	49.4
631.021	49.31
631.353	49.74
631.684	49.63
632.016	49.63
632.348	49.56
632.679	49.69
633.011	49.97
633.342	50.04
633.674	50.07
634.005	49.89
634.336	50.07
634.668	49.76
634.999	50.33
635.33	50.26
635.661	50.02
635.992	49.88
636.323	50.24
636.654	50.23
636.985	50.14
637.316	50.27
637.647	50.43
637.977	49.99
638.308	50.42
638.639	50.4
638.969	50.66
639.3	50.24
639.63	50.75
639.961	50.24
640.291	50.5
640.622	51.11
640.952	50.5
641.282	51.11
641.612	50.75
641.943	51.13
642.273	50.99
642.603	51.38
642.933	51.67
643.263	50.88
643.592	51.18
643.922	51.5
644.252	51.26
644.582	51.29
644.911	51.39
645.241	51.19
645.571	51.65
645.9	51.1
646.23	51.4
646.559	51.36
646.888	51.89
647.218	51.56
647.547	51.65
647.876	51.16
648.205	51.7
648.534	51.68
648.863	51.81
649.192	51.22
649.521	51.91
649.85	52.2
650.179	51.62
650.508	51.79
650.837	52.15
651.165	52.25
651.494	52.11
651.822	52.04
652.151	52.5
652.479	52.51
652.808	52.16
653.136	52.04
653.465	51.91
653.793	52.09
654.121	52.07
654.449	52.02
654.777	52.09
655.105	52.13
655.433	52.39
655.761	52.43
656.089	51.97
656.417	52.58
656.745	52.92
657.073	52.74
657.4	52.95
657.728	52.88
658.056	52.46
658.383	53
658.711	52.72
659.038	52.74
659.365	53.06
659.693	52.01
660.02	52.8
660.347	52.86
660.674	52.39
661.001	52.52
661.329	53.02
661.656	53.03
661.982	52.7
662.309	52.95
662.636	53.13
662.963	53.46
663.29	52.74
663.616	53.34
663.943	53.24
664.27	53.08
664.596	53.06
664.923	52.95
665.249	53.42
665.576	53.51
665.902	53.26
666.228	53.25
666.554	53.52
666.881	53.98
667.207	53.56
667.533	53.71
667.859	53.8
668.185	53.95
668.511	54.17
668.837	53.39
669.162	53.68
669.488	54.14
669.814	53.98
670.139	54.35
670.465	54.47
670.791	53.69
671.116	53.8
671.442	54.36
671.767	54
672.092	54.67
672.418	54.32
672.743	54.66
673.068	54.16
673.393	54.22
673.718	54.51
674.043	54.5
674.368	54.79
674.693	54.42
675.018	53.81
675.343	54.86
675.667	54.64
675.992	54.24
676.317	54.92
676.641	55.01
676.966	55.43
677.29	56.13
677.615	55.35
677.939	55.26
678.264	54.86
678.588	55.53
678.912	55.33
679.236	54.85
679.56	55.25
679.885	54.94
680.209	55.79
680.532	55.52
680.856	54.98
681.18	55.01
681.504	55.99
681.828	55.19
682.152	54.99
682.475	55.63
682.799	54.96
683.122	55.79
683.446	55.19
683.769	55.62
684.093	54.72
684.416	55.64
684.739	55.39
685.062	56.39
685.386	55.48
685.709	55.34
686.032	55.62
686.355	55.95
686.678	56.15
687.001	55.29
687.324	56.34
687.646	55.81
687.969	55.8
688.292	56.12
688.614	56.1
688.937	55.76
689.26	56.34
689.582	55.41
689.904	56.42
690.227	56.93
690.549	56.72
690.871	56.22
691.194	56.7
691.516	55.81
691.838	57
692.16	56
692.482	56.97
692.804	56.02
693.126	56.53
693.448	56.41
693.769	56.23
694.091	56.82
694.413	57.12
694.735	56.41
695.056	57.79
695.378	56.51
695.699	57.5
696.021	56.18
696.342	57.05
696.663	56.23
696.984	57.15
697.306	57.41
697.627	57.07
697.948	56.65
698.269	57.04
698.59	56.06
698.911	57.08
699.232	57.54
699.553	56.62
699.873	57.4
700.194	57.18
700.515	56.88
700.835	56.8
701.156	56.94
701.477	56.62
701.797	57.14
702.117	57.18
702.438	57.09
702.758	56.33
703.078	57.79
703.398	57.54
703.719	57.89
704.039	57.74
704.359	57.13
704.679	57.35
704.999	58.11
705.319	57.17
705.638	58.19
705.958	58.55
706.278	57.06
706.597	56.87
706.917	57.63
707.237	57.91
707.556	56.85
707.876	58.43
708.195	58.49
708.514	57.64
708.834	57.12
709.153	58.42
709.472	57.42
709.791	58.37
710.11	56.86
710.429	58.39
710.748	58.69
711.067	59.55
711.386	58.26
711.705	57.67
712.023	58.47
712.342	59.01
712.661	58.52
712.979	58.58
713.298	60.04
713.616	58.62
713.935	58.73
714.253	59.84
714.572	59.4
714.89	59.32
715.208	58.84
715.526	58.75
715.844	59.36
716.162	58.25
716.48	59.33
716.798	58.48
717.116	59.27
717.434	58.53
717.752	58.66
718.069	59.12
718.387	58.91
718.705	59.48
719.022	58.88
719.34	59.9
719.657	57.94
719.975	60
720.292	59.44
720.609	61.15
720.927	58.73
721.244	59.91
721.561	59.78
721.878	59.15
722.195	60
722.512	59.38
722.829	60.13
723.146	60.41
723.463	58.69
723.779	58.54
724.096	59.12
724.413	60.95
724.729	60.39
725.046	59.51
725.362	60.7
725.679	58.8
725.995	60
726.311	60.61
726.628	59.67
726.944	59.44
727.26	59.84
727.576	59.65
727.892	59.34
728.208	59.64
728.524	61.22
728.84	59.78
729.156	59.26
729.472	60.04
729.787	60.38
730.103	60.44
730.419	59.92
730.734	60.44
731.05	60.05
731.365	59.82
731.681	60.82
731.996	61.11
732.311	61.44
732.626	60.67
732.942	61
733.257	59.53
733.572	60.54
733.887	59.8
734.202	59.95
734.517	59.99
734.832	61.67
735.146	61.24
735.461	60.3
735.776	61.02
736.091	61.23
736.405	59.52
736.72	60.01
737.034	61.57
737.349	60.66
737.663	61.33
737.977	60.46
738.292	60.38
738.606	61.37
738.92	61.75
739.234	63.53
739.548	62
739.862	60.09
740.176	61.01
740.49	61.41
740.804	60.64
741.117	59.72
741.431	61.46
741.745	61.58
742.058	60.8
742.372	61.27
742.685	60.12
742.999	62.88
743.312	61.25
743.626	59.73
743.939	59.49
744.252	60.34
744.565	61
744.878	61.92
745.191	62.65
745.505	59.89
745.817	59.61
746.13	61.76
746.443	63.83
746.756	63.24
747.069	62.18
747.381	61.54
747.694	62.83
748.007	63.48
748.319	61.81
748.632	63.35
748.944	59.93
749.256	60.62
749.569	62.03
749.881	63.72
750.193	62.59
750.505	61.27
750.817	62.44
751.129	62.75
751.441	62.33
751.753	62.97
752.065	62.9
752.377	62.98
752.689	61.4
753	60.59
753.312	61.01
753.624	61.27
753.935	61.96
754.247	61.92
754.558	63.38
754.869	61.83
755.181	62.6
755.492	61.82
755.803	62.41
756.114	61.39
756.425	62.95
756.736	61.98
757.047	63.63
757.358	61.49
757.669	60.45
757.98	61.67
758.291	61.94
758.601	63.43
758.912	62.59
759.223	62.92
759.533	62.4
759.844	62.49
760.154	61.15
760.464	62.61
760.775	61.9
761.085	61.64
761.395	62.94
761.705	63.5
762.016	61.84
762.326	63.94
762.636	62.65
762.945	62.23
763.255	62.77
763.565	63.55
763.875	64.93
764.185	62.03
764.494	62.51
764.804	63.91
765.113	62.33
765.423	62.66
765.732	62.1
766.042	64.43
766.351	63.1
766.66	63.58
766.97	62.93
767.279	64.18
767.588	62.2
767.897	63.65
768.206	64.3
768.515	62.79
768.824	64.74
769.133	64.4
769.441	63.66
769.75	63.89
770.059	63.78
770.367	65.63
770.676	63.18
770.984	64.5
771.293	64.61
771.601	64.38
771.91	67.33
772.218	64.91
772.526	64.07
772.834	62.99
773.142	62.18
773.45	63.95
773.758	64.94
774.066	64.09
774.374	63.43
774.682	63.08
774.99	62.86
775.298	64.16
775.605	65.7
775.913	66.89
776.22	62.94
776.528	65.1
776.835	65.88
777.143	63.15
777.45	61.45
777.757	64.67
778.065	64.72
778.372	63.97
778.679	62.2
778.986	65.41
779.293	67.21
779.6	65.68
779.907	66.22
780.214	64.66
780.52	62.83
780.827	63.71
781.134	61.28
781.44	66.23
781.747	67.2
782.053	70.1
782.36	61.63
782.666	65.64
782.973	65.73
783.279	64.09
783.585	67.18
783.891	62.49
784.197	65.63
784.503	61.69
784.809	65.48
785.115	65.67
785.421	66.21
785.727	59.68
786.033	64.41
786.339	66.99
786.644	67.62
786.95	66.38
787.255	65.51
787.561	64.77
787.866	65.15
788.172	69.97
788.477	64.86
788.782	63.32
789.088	63.96
789.393	61.56
789.698	62.49
790.003	69.51
790.308	65.89
790.613	62.61
790.918	70.17
791.223	65.14
791.527	67.35
791.832	66.75
792.137	64.68
792.441	64.21
792.746	66.92
793.05	65.59
793.355	66.85
793.659	66.63
793.963	70.35
794.268	63.83
794.572	68.55
794.876	65.2
795.18	68.89
795.484	60.66
795.788	64.24
796.092	65.54
796.396	64.41
796.7	63.57
797.004	67.93
797.307	61.15
797.611	66.8
797.915	66.73
798.218	68.93
798.522	66.08
798.825	67.71
799.128	66.62
799.432	63.98
799.735	67.4
800.038	68.71
800.341	69.15
800.644	68.05
800.947	68.83
801.25	69.41
801.553	61.3
801.856	73.07
802.159	65.12
802.462	64.05
802.764	64.48
803.067	64.28
803.37	66.56
803.672	67.46
803.975	68.62
804.277	68.62
804.579	68.55
804.882	63.49
805.184	64.04
805.486	70.33
805.788	67.76
806.09	64.78
806.392	69.92
806.694	61.65
806.996	63.3
807.298	69.89
807.6	69.26
807.902	67.94
808.203	72.37
808.505	68.01
808.807	68.98
809.108	68.2
809.409	68.16
809.711	70.17
810.012	66.04
810.313	67.76
810.615	68.94
810.916	66.55
811.217	70.1
811.518	60.5
811.819	60.59
812.12	68.15
812.421	67.85
812.722	62.1
813.023	64.58
813.323	67.01
813.624	70.71
813.925	67.45
814.225	69.93
814.526	65.96
814.826	71.27
815.126	64.63
815.427	68.6
815.727	66.99
816.027	61.57
816.327	70.09
816.627	73.99
816.927	65.52
817.227	67.61
817.527	64.14
817.827	65.66
818.127	68.32
818.427	65.18
818.727	70.5
819.026	69.39
819.326	65.19
819.625	66.6
819.925	62.08
820.224	63.79
820.524	63.59
820.823	63.79
821.122	60.67
821.421	66.4
821.72	68.46
822.019	65.71
822.318	68.88
822.617	68.62
822.916	64.81
823.215	63.63
823.514	68.41
823.813	69.08
824.111	67.01
824.41	66.13
824.709	67.73
825.007	66.49
825.306	69.3
825.604	68.35
825.902	67.96
826.201	67.55
826.499	67.1
826.797	68.03
827.095	68.17
827.393	67.61
827.691	67.11
827.989	67.92
828.287	65.91
828.585	65.25
828.882	67.2
829.18	66.26
829.478	68.38
829.775	67.65
830.073	66.82
830.37	66.82
830.668	69.65
830.965	67.75
831.263	64.93
831.56	67.07
831.857	67.92
832.154	67.26
832.451	67.8
832.748	70.1
833.045	64.83
833.342	66.83
833.639	64.99
833.936	64.44
834.232	72.13
834.529	67.74
834.826	70.03
835.122	69.08
835.419	68.78
835.715	68.11
836.012	60.21
836.308	68.55
836.604	71.66
836.901	67.75
837.197	71.53
837.493	68.9
837.789	65.58
838.085	71.5
838.381	65.09
838.677	63.41
838.972	65.8
839.268	68.42
839.564	68.6
839.86	67.76
840.155	69.8
840.451	66.56
840.746	64.38
841.042	68.74
841.337	71.18
841.632	73.13
841.928	66.38
842.223	69.65
842.518	68.11
842.813	61.97
843.108	69.19
843.403	72.17
843.698	72.81
843.993	72.32
844.287	66.14
844.582	63.91
844.877	72.41
845.171	86.79
845.466	72.55
845.761	83.52
846.055	64.73
846.349	74.44
846.644	65.37
846.938	70.65
847.232	62.21
847.526	72.25
847.82	71.65
848.114	83.61
848.408	96.56
848.702	70.41
848.996	68.52
849.29	74.77
849.584	80.55
849.877	78.43
850.171	69.92
850.465	67.14
850.758	63.88
851.052	80.27
851.345	88.95
851.638	72.83
851.932	74.71
852.225	60.06
852.518	71.49
852.811	56.2
853.104	55.28
853.397	78.83
853.69	71.19
853.983	76.94
854.276	64.78
854.569	88.57
854.861	45.46
855.154	64.2
855.447	60.02
855.739	75.28
856.032	64.02
856.324	57.76
856.616	73.93
856.909	71.44
857.201	65.98
857.493	80.69
857.785	53.08
858.077	80.22
858.369	93.1
858.661	86.59
858.953	67.05
859.245	76.4
859.537	74.29
859.829	62.06
860.12	84.1
860.412	66.53
860.703	57.92
860.995	63.58
861.286	71.79
861.578	75.95
861.869	56.12
862.16	66.54
862.452	43.8
862.743	63.81
863.034	68.78
863.325	80.46
863.616	63.69
863.907	84.27
864.198	81.67
864.488	89.15
864.779	73
865.07	99.49
865.36	52.89
865.651	72.15
865.941	50.65
866.232	78.3
866.522	89.81
866.813	61.08
867.103	53.33
867.393	81.31
867.683	71.45
867.973	49.04
868.263	58
868.553	61.59
868.843	55.22
869.133	70.59
869.423	81
869.713	71.03
870.002	70.56
870.292	60.27
870.582	63.02
870.871	50.51
871.161	95.26
871.45	34.75
871.739	47.69
872.029	106.79
872.318	65.56
872.607	79.93
872.896	62.96
873.185	87.58
873.474	76.41
873.763	74.66
874.052	82.24
874.341	105.47
874.63	81.49
874.918	58.39
875.207	90.64
875.496	78.47
875.784	41.43
876.073	74.39
876.361	87.54
876.649	57.52
876.938	86.98
877.226	83.11
877.514	65.28
877.802	39.97
878.09	85.32
878.378	79.92
878.666	87.4
878.954	87.66
879.242	69.21
879.53	69.59
879.817	71.06
880.105	46.03
880.392	60.54
880.68	58.18
880.967	63.87
881.255	75.44
881.542	73.07
881.83	64.09
882.117	76.81
882.404	55.5
882.691	90.16
882.978	64.24
883.265	65.29
883.552	64.68
883.839	57.1
884.126	95.48
884.413	66.4
884.699	75.52
884.986	74.34
885.273	66
885.559	66
885.846	66
