Data from 0014_crown_Reflection__1__26.txt Node

Date: Mon Oct 17 14:37:31 CDT 2022
User: ToomeyLab
Spectrometer: FLMS14357
Trigger mode: 0
Integration Time (sec): 1.000000E-2
Scans to average: 100
Electric dark correction enabled: true
Nonlinearity correction enabled: false
Boxcar width: 0
XAxis mode: Wavelengths
Number of Pixels in Spectrum: 2048
>>>>>Begin Spectral Data<<<<<
189.047	12.68
189.435	12.68
189.823	12.68
190.211	-199.39
190.599	77.95
190.987	-79.9
191.375	-17.28
191.763	-867.41
192.151	1792.97
192.538	141.94
192.926	20.66
193.314	25.91
193.702	0.58
194.089	-4.26
194.477	343.49
194.864	-29.65
195.252	125.19
195.639	88.94
196.027	54.4
196.414	-38.21
196.801	-513.88
197.189	512.1
197.576	154.05
197.963	0.78
198.351	-192.89
198.738	21.17
199.125	1.94
199.512	-61.56
199.899	27.35
200.286	44.79
200.673	-23.94
201.06	7.3
201.447	20.38
201.833	38.31
202.22	5.87
202.607	-35.66
202.994	28.18
203.38	20.89
203.767	-4.16
204.154	27.42
204.54	-4.59
204.927	-6.71
205.313	-11.66
205.699	6.76
206.086	-31.65
206.472	-3.52
206.858	-21.36
207.245	21.78
207.631	-0.11
208.017	23.35
208.403	33.34
208.789	9.98
209.175	-16.08
209.561	-49.01
209.947	-59.27
210.333	45.84
210.719	19.2
211.105	13.63
211.491	-10.95
211.876	-6.29
212.262	33.42
212.648	17.34
213.034	25.66
213.419	27.46
213.805	-3.9
214.19	3.96
214.576	37.61
214.961	-22.91
215.346	3.66
215.732	-18.59
216.117	-13.95
216.502	7.48
216.888	-13.36
217.273	7.39
217.658	16.9
218.043	-22.62
218.428	0.32
218.813	12.08
219.198	8.86
219.583	-7.24
219.968	-3.33
220.353	13.5
220.738	1.08
221.122	9.68
221.507	-4.28
221.892	18.31
222.276	-4.19
222.661	3.45
223.046	1.49
223.43	2.74
223.815	2.99
224.199	13.39
224.583	-1.75
224.968	-4.4
225.352	-5.71
225.736	4.23
226.121	-3.94
226.505	1.73
226.889	1.12
227.273	5.97
227.657	5.9
228.041	4.4
228.425	4.79
228.809	3.34
229.193	0.85
229.577	3.58
229.961	5.29
230.344	3.88
230.728	3.97
231.112	4.27
231.495	3.5
231.879	4.15
232.263	5.04
232.646	4.33
233.03	3.77
233.413	2.32
233.797	4.22
234.18	3.52
234.563	4.1
234.946	5.1
235.33	4.01
235.713	3.85
236.096	4.94
236.479	2.17
236.862	3.63
237.245	1.76
237.628	2.72
238.011	3.24
238.394	3.95
238.777	5.59
239.16	5.47
239.543	2.42
239.925	5.31
240.308	3.87
240.691	3.55
241.073	5.15
241.456	4.09
241.838	4.35
242.221	2.85
242.603	3.29
242.986	3.25
243.368	3.73
243.75	3.61
244.133	3.62
244.515	3.99
244.897	3.96
245.279	4.64
245.661	4.12
246.043	4
246.425	2.94
246.807	4.33
247.189	3.16
247.571	3.57
247.953	3.36
248.335	3.54
248.717	3.49
249.098	3.67
249.48	3.79
249.862	3.77
250.243	3.47
250.625	3.89
251.006	3.65
251.388	3.88
251.769	3.06
252.151	3.72
252.532	2.98
252.913	3.01
253.295	2.81
253.676	3.5
254.057	3.86
254.438	4.17
254.819	4.41
255.2	3.98
255.581	4.25
255.962	2.74
256.343	2.31
256.724	2.65
257.105	4.13
257.486	2.95
257.867	3.37
258.247	3.1
258.628	3.34
259.009	3.69
259.389	3.13
259.77	4.05
260.15	3.55
260.531	2.78
260.911	3.36
261.292	3.45
261.672	3.25
262.052	3.44
262.432	3.3
262.813	3.36
263.193	3.4
263.573	3.68
263.953	2.91
264.333	3.42
264.713	2.82
265.093	2.82
265.473	3.43
265.853	3.73
266.233	4.25
266.612	2.71
266.992	3.85
267.372	3.42
267.752	3.6
268.131	3.5
268.511	3.29
268.89	3.73
269.27	3.33
269.649	3.09
270.029	3.11
270.408	3.25
270.787	3.15
271.167	3.08
271.546	3.19
271.925	2.84
272.304	3.12
272.683	3
273.062	3.04
273.441	3.12
273.82	3.54
274.199	3.46
274.578	2.9
274.957	2.99
275.336	3.12
275.715	3.25
276.093	3.07
276.472	2.83
276.851	3.55
277.229	2.37
277.608	2.99
277.986	3.37
278.365	3.35
278.743	3.39
279.122	2.98
279.5	3.29
279.878	3.45
280.257	2.71
280.635	2.99
281.013	3.39
281.391	2.97
281.769	3.34
282.147	3.45
282.525	2.75
282.903	2.36
283.281	2.8
283.659	3.12
284.037	3.2
284.415	2.89
284.792	3.24
285.17	2.85
285.548	2.84
285.925	3.07
286.303	3.26
286.68	3.46
287.058	3.18
287.435	2.94
287.813	2.92
288.19	2.97
288.567	2.84
288.945	2.93
289.322	3.24
289.699	3.04
290.076	2.92
290.453	2.72
290.83	2.56
291.207	2.98
291.584	2.53
291.961	2.65
292.338	2.93
292.715	3.11
293.092	2.92
293.469	2.74
293.845	2.87
294.222	2.82
294.599	2.88
294.975	2.62
295.352	2.83
295.728	2.62
296.105	2.42
296.481	2.71
296.858	3.1
297.234	2.64
297.61	2.48
297.986	2.68
298.363	2.89
298.739	3.02
299.115	2.76
299.491	2.66
299.867	2.56
300.243	2.77
300.619	2.44
300.995	2.96
301.371	2.7
301.746	2.61
302.122	2.76
302.498	2.5
302.874	2.99
303.249	2.87
303.625	2.67
304	2.9
304.376	3.16
304.751	2.88
305.127	3.3
305.502	2.52
305.878	2.92
306.253	2.46
306.628	3
307.003	2.65
307.378	2.83
307.754	2.73
308.129	2.67
308.504	2.94
308.879	2.81
309.254	2.99
309.629	2.62
310.003	2.97
310.378	2.95
310.753	2.56
311.128	2.62
311.502	2.89
311.877	2.75
312.252	2.93
312.626	2.82
313.001	2.52
313.375	2.42
313.75	2.83
314.124	2.77
314.498	2.68
314.873	2.6
315.247	2.63
315.621	3.45
315.995	2.51
316.369	2.41
316.743	2.52
317.117	2.97
317.491	2.73
317.865	2.95
318.239	3.2
318.613	2.82
318.987	1.96
319.361	2.8
319.734	2.53
320.108	2.56
320.482	2.98
320.855	2.15
321.229	2.58
321.602	2.97
321.976	2.25
322.349	2.84
322.723	2.71
323.096	2.64
323.469	2.82
323.843	2.94
324.216	2.52
324.589	2.72
324.962	2.57
325.335	2.6
325.708	3.3
326.081	2.63
326.454	2.96
326.827	2.81
327.2	2.3
327.573	2.94
327.945	2.52
328.318	2.93
328.691	2.33
329.063	2.48
329.436	2.42
329.809	2.98
330.181	3.1
330.553	2.28
330.926	2.81
331.298	2.74
331.671	2.99
332.043	2.99
332.415	2.87
332.787	2.54
333.159	2.96
333.532	2.52
333.904	2.35
334.276	2.92
334.648	2.72
335.02	2.85
335.391	2.96
335.763	2.6
336.135	2.59
336.507	2.64
336.879	2.66
337.25	3.13
337.622	2.65
337.993	2.59
338.365	2.73
338.736	2.87
339.108	3.01
339.479	2.48
339.851	2.9
340.222	2.7
340.593	2.91
340.964	2.85
341.336	2.6
341.707	2.81
342.078	3.15
342.449	3.06
342.82	2.72
343.191	2.72
343.562	2.82
343.933	2.7
344.303	2.94
344.674	3.18
345.045	2.72
345.416	2.95
345.786	2.88
346.157	2.8
346.527	2.63
346.898	2.96
347.268	2.95
347.639	2.68
348.009	3.01
348.38	2.84
348.75	2.74
349.12	2.81
349.49	2.83
349.861	2.85
350.231	3.01
350.601	2.73
350.971	2.93
351.341	2.88
351.711	2.8
352.081	2.57
352.45	3.06
352.82	3.13
353.19	2.63
353.56	2.63
353.929	2.96
354.299	2.62
354.669	2.9
355.038	3.15
355.408	2.86
355.777	2.7
356.147	2.97
356.516	3.31
356.885	3.08
357.254	2.89
357.624	3.34
357.993	3.04
358.362	2.84
358.731	2.44
359.1	2.94
359.469	2.74
359.838	2.96
360.207	3
360.576	2.61
360.945	3.1
361.314	3.16
361.682	2.84
362.051	2.91
362.42	2.8
362.788	2.99
363.157	3.11
363.525	3.04
363.894	3.04
364.262	3.14
364.631	3.08
364.999	2.69
365.367	2.95
365.735	3.07
366.104	2.77
366.472	2.83
366.84	2.99
367.208	3.11
367.576	2.95
367.944	3
368.312	2.91
368.68	3.05
369.048	3.18
369.416	3.24
369.783	2.99
370.151	3.09
370.519	3.15
370.886	3.13
371.254	2.97
371.621	2.85
371.989	3.25
372.356	3.11
372.724	3.24
373.091	3.51
373.458	3.01
373.826	3.17
374.193	3.56
374.56	2.83
374.927	3.09
375.294	3.03
375.661	3.27
376.028	3.19
376.395	3.28
376.762	3.36
377.129	3.02
377.496	3.12
377.863	2.69
378.229	3.08
378.596	3.08
378.963	3.17
379.329	3.03
379.696	2.99
380.062	3.51
380.429	2.9
380.795	3.23
381.161	2.98
381.528	3.16
381.894	3
382.26	3.02
382.626	3.09
382.993	2.99
383.359	3.15
383.725	3.13
384.091	2.98
384.457	3.03
384.823	3.01
385.188	2.85
385.554	3.13
385.92	3.22
386.286	3.05
386.651	3.27
387.017	3.13
387.383	3.3
387.748	3.07
388.114	2.89
388.479	3.23
388.845	3.31
389.21	3.08
389.575	3.33
389.94	3.34
390.306	3.46
390.671	3.46
391.036	3.25
391.401	3.24
391.766	3.05
392.131	3.25
392.496	3.35
392.861	3.2
393.226	3.25
393.591	3.14
393.956	3.42
394.32	3.41
394.685	3.2
395.05	3.39
395.414	3.53
395.779	3.28
396.143	3.41
396.508	3.26
396.872	3.26
397.236	3.25
397.601	3.15
397.965	3.26
398.329	3.43
398.694	3.33
399.058	3.28
399.422	3.3
399.786	3.35
400.15	3.36
400.514	3.23
400.878	3.19
401.242	3.41
401.605	3.54
401.969	3.25
402.333	3.38
402.697	3.2
403.06	3.33
403.424	3.43
403.787	3.31
404.151	3.48
404.514	3.32
404.878	3.27
405.241	3.28
405.604	3.34
405.968	3.48
406.331	3.12
406.694	3.19
407.057	3.3
407.42	3.27
407.783	3.42
408.146	3.39
408.509	3.48
408.872	3.18
409.235	3.34
409.598	3.25
409.961	3.24
410.323	3.42
410.686	3.47
411.049	3.43
411.411	3.45
411.774	3.33
412.136	3.31
412.499	3.48
412.861	3.41
413.223	3.28
413.586	3.44
413.948	3.66
414.31	3.36
414.672	3.56
415.035	3.51
415.397	3.65
415.759	3.55
416.121	3.39
416.483	3.3
416.845	3.34
417.206	3.33
417.568	3.38
417.93	3.36
418.292	3.47
418.653	3.44
419.015	3.31
419.377	3.42
419.738	3.18
420.1	3.44
420.461	3.22
420.822	3.48
421.184	3.42
421.545	3.41
421.906	3.38
422.267	3.45
422.629	3.27
422.99	3.3
423.351	3.34
423.712	3.38
424.073	3.36
424.434	3.4
424.795	3.5
425.155	3.5
425.516	3.26
425.877	3.27
426.238	3.35
426.598	3.36
426.959	3.36
427.32	3.3
427.68	3.41
428.041	3.4
428.401	3.52
428.761	3.43
429.122	3.5
429.482	3.39
429.842	3.43
430.202	3.51
430.563	3.49
430.923	3.46
431.283	3.53
431.643	3.52
432.003	3.64
432.363	3.43
432.722	3.55
433.082	3.37
433.442	3.5
433.802	3.43
434.161	3.26
434.521	3.55
434.881	3.42
435.24	3.32
435.6	3.48
435.959	3.42
436.319	3.4
436.678	3.45
437.037	3.61
437.396	3.4
437.756	3.52
438.115	3.34
438.474	3.57
438.833	3.42
439.192	3.39
439.551	3.36
439.91	3.5
440.269	3.54
440.628	3.3
440.987	3.38
441.345	3.35
441.704	3.42
442.063	3.32
442.421	3.38
442.78	3.41
443.138	3.49
443.497	3.48
443.855	3.64
444.214	3.63
444.572	3.55
444.93	3.64
445.288	3.51
445.647	3.44
446.005	3.66
446.363	3.51
446.721	3.43
447.079	3.49
447.437	3.46
447.795	3.46
448.153	3.38
448.51	3.46
448.868	3.65
449.226	3.44
449.584	3.47
449.941	3.54
450.299	3.63
450.656	3.41
451.014	3.45
451.371	3.72
451.729	3.42
452.086	3.57
452.443	3.61
452.801	3.52
453.158	3.7
453.515	3.44
453.872	3.43
454.229	3.5
454.586	3.42
454.943	3.6
455.3	3.51
455.657	3.65
456.014	3.78
456.371	3.6
456.727	3.61
457.084	3.47
457.441	3.53
457.797	3.61
458.154	3.61
458.51	3.66
458.867	3.6
459.223	3.49
459.58	3.53
459.936	3.5
460.292	3.61
460.648	3.6
461.005	3.53
461.361	3.42
461.717	3.3
462.073	3.45
462.429	3.61
462.785	3.58
463.141	3.76
463.496	3.52
463.852	3.64
464.208	3.66
464.564	3.68
464.919	3.6
465.275	3.6
465.631	3.71
465.986	3.67
466.342	3.5
466.697	3.64
467.052	3.59
467.408	3.66
467.763	3.5
468.118	3.7
468.473	3.6
468.829	3.5
469.184	3.74
469.539	3.5
469.894	3.73
470.249	3.61
470.603	3.73
470.958	3.67
471.313	3.73
471.668	3.66
472.023	3.47
472.377	3.76
472.732	3.4
473.086	3.76
473.441	3.74
473.795	3.63
474.15	3.62
474.504	3.75
474.859	3.7
475.213	3.53
475.567	3.76
475.921	3.61
476.275	3.66
476.63	3.68
476.984	3.89
477.338	3.62
477.692	3.65
478.045	3.77
478.399	3.69
478.753	3.64
479.107	3.62
479.461	3.7
479.814	3.64
480.168	3.7
480.521	3.62
480.875	3.63
481.228	3.56
481.582	3.63
481.935	3.61
482.289	3.54
482.642	3.6
482.995	3.72
483.348	3.64
483.701	3.51
484.055	3.55
484.408	3.59
484.761	3.45
485.114	3.34
485.466	3.25
485.819	3.27
486.172	3.4
486.525	3.54
486.878	3.65
487.23	3.63
487.583	3.72
487.936	3.61
488.288	3.53
488.641	3.48
488.993	3.39
489.345	3.4
489.698	3.46
490.05	3.45
490.402	3.5
490.754	3.57
491.107	3.6
491.459	3.73
491.811	3.73
492.163	3.58
492.515	3.54
492.866	3.45
493.218	3.39
493.57	3.46
493.922	3.52
494.274	3.63
494.625	3.75
494.977	3.74
495.328	3.68
495.68	3.69
496.031	3.64
496.383	3.76
496.734	3.71
497.086	3.62
497.437	3.7
497.788	3.63
498.139	3.53
498.49	3.7
498.842	3.59
499.193	3.61
499.544	3.65
499.894	3.65
500.245	3.67
500.596	3.73
500.947	3.75
501.298	3.68
501.648	3.81
501.999	3.61
502.35	3.66
502.7	3.74
503.051	3.77
503.401	3.72
503.752	3.75
504.102	3.62
504.452	3.61
504.803	3.69
505.153	3.68
505.503	3.62
505.853	3.6
506.203	3.62
506.553	3.73
506.903	3.62
507.253	3.67
507.603	3.71
507.953	3.71
508.303	3.66
508.652	3.68
509.002	3.71
509.352	3.6
509.701	3.67
510.051	3.64
510.4	3.52
510.75	3.59
511.099	3.67
511.449	3.68
511.798	3.72
512.147	3.73
512.496	3.69
512.846	3.68
513.195	3.67
513.544	3.53
513.893	3.61
514.242	3.68
514.591	3.63
514.939	3.72
515.288	3.64
515.637	3.72
515.986	3.61
516.334	3.71
516.683	3.71
517.032	3.73
517.38	3.61
517.729	3.64
518.077	3.75
518.426	3.62
518.774	3.54
519.122	3.52
519.47	3.56
519.819	3.71
520.167	3.57
520.515	3.51
520.863	3.66
521.211	3.7
521.559	3.75
521.907	3.71
522.255	3.64
522.602	3.63
522.95	3.72
523.298	3.71
523.645	3.67
523.993	3.66
524.341	3.76
524.688	3.64
525.036	3.66
525.383	3.71
525.73	3.68
526.078	3.59
526.425	3.65
526.772	3.6
527.119	3.56
527.466	3.5
527.814	3.51
528.161	3.55
528.508	3.65
528.854	3.63
529.201	3.59
529.548	3.54
529.895	3.47
530.242	3.37
530.588	3.37
530.935	3.48
531.282	3.55
531.628	3.64
531.975	3.65
532.321	3.67
532.667	3.68
533.014	3.67
533.36	3.59
533.706	3.67
534.052	3.62
534.399	3.59
534.745	3.44
535.091	3.47
535.437	3.54
535.783	3.67
536.129	3.76
536.474	3.74
536.82	3.78
537.166	3.74
537.512	3.69
537.857	3.68
538.203	3.57
538.549	3.54
538.894	3.63
539.239	3.73
539.585	3.66
539.93	3.73
540.276	3.65
540.621	3.69
540.966	3.64
541.311	3.47
541.656	3.64
542.001	3.58
542.346	3.54
542.691	3.47
543.036	3.38
543.381	3.42
543.726	3.53
544.071	3.61
544.415	3.67
544.76	3.71
545.105	3.61
545.449	3.63
545.794	3.6
546.138	3.65
546.483	3.63
546.827	3.68
547.171	3.68
547.516	3.7
547.86	3.72
548.204	3.56
548.548	3.62
548.892	3.59
549.236	3.67
549.58	3.72
549.924	3.57
550.268	3.73
550.612	3.75
550.956	3.95
551.3	3.56
551.643	3.76
551.987	3.69
552.33	3.65
552.674	3.66
553.017	3.69
553.361	3.67
553.704	3.56
554.048	3.47
554.391	3.61
554.734	3.55
555.077	3.8
555.42	3.7
555.764	3.69
556.107	3.62
556.45	3.73
556.793	3.73
557.135	3.7
557.478	3.61
557.821	3.8
558.164	3.64
558.507	3.68
558.849	3.64
559.192	3.57
559.534	3.84
559.877	3.78
560.219	3.57
560.562	3.63
560.904	3.67
561.246	3.7
561.589	3.7
561.931	3.62
562.273	3.68
562.615	3.56
562.957	3.63
563.299	3.5
563.641	3.55
563.983	3.7
564.325	3.78
564.667	3.81
565.008	3.7
565.35	3.7
565.692	3.74
566.033	3.6
566.375	3.59
566.716	3.53
567.058	3.6
567.399	3.5
567.741	3.56
568.082	3.61
568.423	3.54
568.764	3.74
569.105	3.66
569.447	3.61
569.788	3.6
570.129	3.66
570.47	3.59
570.811	3.69
571.151	3.57
571.492	3.57
571.833	3.61
572.174	3.74
572.514	3.74
572.855	3.55
573.195	3.6
573.536	3.63
573.876	3.51
574.217	3.53
574.557	3.45
574.898	3.59
575.238	3.74
575.578	3.84
575.918	3.6
576.258	3.77
576.598	3.65
576.938	3.65
577.278	3.61
577.618	3.76
577.958	3.55
578.298	3.6
578.638	3.67
578.977	3.86
579.317	3.43
579.657	3.45
579.996	3.62
580.336	3.68
580.675	3.55
581.014	3.52
581.354	3.57
581.693	3.59
582.032	3.54
582.372	3.49
582.711	3.62
583.05	3.47
583.389	3.76
583.728	3.66
584.067	3.61
584.406	3.46
584.745	3.72
585.083	3.74
585.422	3.66
585.761	3.82
586.1	3.65
586.438	3.64
586.777	3.74
587.115	3.5
587.454	3.46
587.792	3.49
588.13	3.47
588.469	3.62
588.807	3.81
589.145	3.53
589.483	3.61
589.821	3.45
590.159	3.43
590.497	3.63
590.835	3.61
591.173	3.65
591.511	3.74
591.849	3.64
592.187	3.5
592.524	3.52
592.862	3.5
593.2	3.67
593.537	3.76
593.875	3.78
594.212	3.65
594.55	3.54
594.887	3.63
595.224	3.72
595.561	3.59
595.899	3.66
596.236	3.76
596.573	3.42
596.91	3.5
597.247	3.66
597.584	3.39
597.921	3.66
598.258	3.56
598.594	3.44
598.931	3.38
599.268	3.67
599.604	3.53
599.941	3.53
600.277	3.75
600.614	3.76
600.95	3.66
601.287	3.48
601.623	3.61
601.959	3.62
602.296	3.52
602.632	3.59
602.968	3.58
603.304	3.55
603.64	3.53
603.976	3.31
604.312	3.59
604.648	3.56
604.984	3.38
605.319	3.26
605.655	3.45
605.991	3.58
606.326	3.42
606.662	3.55
606.998	3.45
607.333	3.71
607.668	3.57
608.004	3.56
608.339	3.65
608.674	3.77
609.01	3.43
609.345	3.69
609.68	3.66
610.015	3.75
610.35	3.35
610.685	3.47
611.02	3.39
611.355	3.53
611.689	3.36
612.024	3.59
612.359	3.43
612.694	3.68
613.028	3.59
613.363	3.79
613.697	3.5
614.032	3.61
614.366	3.68
614.7	3.58
615.035	3.44
615.369	3.58
615.703	3.37
616.037	3.76
616.371	3.5
616.705	3.6
617.039	3.9
617.373	3.56
617.707	3.69
618.041	3.57
618.375	3.35
618.709	3.82
619.042	3.67
619.376	3.49
619.71	3.55
620.043	3.44
620.377	3.97
620.71	3.63
621.043	3.85
621.377	3.74
621.71	3.82
622.043	3.7
622.376	3.5
622.709	3.69
623.043	3.55
623.376	3.59
623.709	3.53
624.041	3.58
624.374	3.92
624.707	3.56
625.04	3.39
625.373	3.65
625.705	3.38
626.038	3.4
626.37	3.58
626.703	3.9
627.035	3.25
627.368	3.29
627.7	3.65
628.032	3.32
628.365	3.6
628.697	3.49
629.029	3.51
629.361	3.63
629.693	3.5
630.025	3.68
630.357	3.69
630.689	3.31
631.021	3.48
631.353	3.3
631.684	3.48
632.016	3.39
632.348	3.76
632.679	3.49
633.011	3.61
633.342	3.65
633.674	3.68
634.005	3.54
634.336	3.19
634.668	3.77
634.999	3.71
635.33	3.46
635.661	3.59
635.992	3.47
636.323	3.59
636.654	3.6
636.985	3.42
637.316	3.51
637.647	3.51
637.977	3.46
638.308	3.41
638.639	3.5
638.969	3.5
639.3	3.52
639.63	3.73
639.961	3.72
640.291	3.55
640.622	3.44
640.952	3.5
641.282	3.67
641.612	3.59
641.943	3.29
642.273	3.4
642.603	3.51
642.933	3.91
643.263	3.6
643.592	3.64
643.922	3.62
644.252	3.42
644.582	3.9
644.911	3.63
645.241	3.99
645.571	3.62
645.9	3.86
646.23	3.62
646.559	3.37
646.888	3.33
647.218	3.51
647.547	3.4
647.876	3.76
648.205	3.08
648.534	3.89
648.863	3.64
649.192	3.78
649.521	3.37
649.85	3.64
650.179	3.89
650.508	3.24
650.837	3.63
651.165	4.12
651.494	3.66
651.822	3.82
652.151	3.42
652.479	3.79
652.808	3.42
653.136	3.98
653.465	3.28
653.793	3.67
654.121	3.35
654.449	3.37
654.777	3.87
655.105	3.65
655.433	4.01
655.761	3.62
656.089	3.6
656.417	3.73
656.745	3.47
657.073	3.98
657.4	3.65
657.728	3.59
658.056	3.3
658.383	3.81
658.711	3.2
659.038	3.36
659.365	3.26
659.693	3.41
660.02	3.26
660.347	4.12
660.674	3.33
661.001	3.6
661.329	3.62
661.656	3.46
661.982	3.49
662.309	3.83
662.636	3.57
662.963	3.63
663.29	3.76
663.616	3.33
663.943	3.38
664.27	3.92
664.596	3.47
664.923	3.68
665.249	3.29
665.576	3.59
665.902	3.9
666.228	3.59
666.554	3.86
666.881	4.28
667.207	3.8
667.533	4.39
667.859	3.2
668.185	3.93
668.511	3.44
668.837	3.62
669.162	3.48
669.488	3.41
669.814	3.97
670.139	3.66
670.465	3.43
670.791	3.64
671.116	3.47
671.442	3.83
671.767	3.2
672.092	3.36
672.418	3.76
672.743	3.95
673.068	3.72
673.393	3.91
673.718	3.22
674.043	3.5
674.368	3.48
674.693	3.72
675.018	3.95
675.343	4.28
675.667	3.88
675.992	3.44
676.317	3.55
676.641	3.42
676.966	3.99
677.29	3.66
677.615	2.59
677.939	3.69
678.264	3.82
678.588	3.24
678.912	3.42
679.236	4.15
679.56	3.55
679.885	3.67
680.209	3.99
680.532	3.58
680.856	3.93
681.18	3.38
681.504	4.23
681.828	3.89
682.152	3.38
682.475	3.78
682.799	3.62
683.122	3.57
683.446	4.45
683.769	3.85
684.093	3.42
684.416	3.84
684.739	3.78
685.062	3.79
685.386	3.85
685.709	3.45
686.032	4.14
686.355	3.79
686.678	3.01
687.001	2.64
687.324	3.28
687.646	3.37
687.969	3.34
688.292	3.96
688.614	3.97
688.937	4.24
689.26	4.33
689.582	3.71
689.904	3.88
690.227	4.45
690.549	4.22
690.871	3.65
691.194	4.16
691.516	3.96
691.838	4.31
692.16	3.46
692.482	3.88
692.804	3.81
693.126	3.86
693.448	3.82
693.769	3.91
694.091	3.29
694.413	4.28
694.735	3.09
695.056	4.47
695.378	4.24
695.699	3.99
696.021	3.5
696.342	3.12
696.663	4.73
696.984	3.09
697.306	3.94
697.627	3.53
697.948	3.38
698.269	4.64
698.59	4.04
698.911	3.83
699.232	4.36
699.553	4.04
699.873	4.04
700.194	3.36
700.515	4.42
700.835	3.73
701.156	3.43
701.477	3.5
701.797	3.71
702.117	3.63
702.438	4.3
702.758	4.08
703.078	3.58
703.398	4.29
703.719	3.31
704.039	3.67
704.359	4.04
704.679	3.47
704.999	4.24
705.319	4.09
705.638	2.98
705.958	3.57
706.278	3.3
706.597	3.92
706.917	3.75
707.237	3.53
707.556	3.86
707.876	2.3
708.195	4.21
708.514	3.9
708.834	3.69
709.153	3.15
709.472	3.56
709.791	4.51
710.11	3.91
710.429	4.12
710.748	4.06
711.067	3.36
711.386	4.54
711.705	5.12
712.023	3.29
712.342	4.42
712.661	4.29
712.979	3.72
713.298	3.57
713.616	3.34
713.935	3.56
714.253	3.61
714.572	4.43
714.89	3.38
715.208	4.4
715.526	3.98
715.844	4.69
716.162	5.37
716.48	4.03
716.798	3.29
717.116	5.15
717.434	4.25
717.752	3.31
718.069	4
718.387	4.25
718.705	3.51
719.022	5.02
719.34	3.9
719.657	4.19
719.975	3.68
720.292	3.2
720.609	4.39
720.927	4.42
721.244	3.64
721.561	4.23
721.878	4.14
722.195	4.81
722.512	3.68
722.829	4.31
723.146	4.49
723.463	4.64
723.779	3.61
724.096	4.5
724.413	4.12
724.729	2.7
725.046	2.3
725.362	3.91
725.679	4.03
725.995	3.78
726.311	3.48
726.628	4.03
726.944	3.31
727.26	5.32
727.576	4.67
727.892	4.25
728.208	4.16
728.524	2.38
728.84	4.13
729.156	4.92
729.472	3.72
729.787	4.62
730.103	4.01
730.419	4.96
730.734	4.69
731.05	4.2
731.365	4.38
731.681	4.15
731.996	2.83
732.311	3.91
732.626	2.82
732.942	3.48
733.257	4.81
733.572	5.27
733.887	3.94
734.202	3.85
734.517	4.79
734.832	3.94
735.146	3.29
735.461	4.39
735.776	4.75
736.091	4.93
736.405	4.13
736.72	3.68
737.034	3.78
737.349	2.85
737.663	4.65
737.977	4.24
738.292	6.79
738.606	4.77
738.92	5.71
739.234	2.55
739.548	3.49
739.862	5.32
740.176	3.57
740.49	5.09
740.804	4.17
741.117	4.2
741.431	4.11
741.745	4.72
742.058	3.82
742.372	3.85
742.685	2.71
742.999	3.53
743.312	5.24
743.626	5.81
743.939	2.42
744.252	5.32
744.565	1.91
744.878	3.23
745.191	3.15
745.505	3.93
745.817	5.97
746.13	4.79
746.443	2.42
746.756	3.95
747.069	4.47
747.381	3.77
747.694	0.51
748.007	5.24
748.319	2.62
748.632	4.75
748.944	4.27
749.256	4.69
749.569	1.96
749.881	2.68
750.193	3.81
750.505	4.11
750.817	3.07
751.129	3.05
751.441	5.45
751.753	5.89
752.065	4.11
752.377	4.71
752.689	4.69
753	4.87
753.312	5.37
753.624	4.21
753.935	6.33
754.247	4.5
754.558	5.73
754.869	4.89
755.181	4.7
755.492	5.48
755.803	4.74
756.114	3.8
756.425	3.42
756.736	4.39
757.047	5.22
757.358	4.13
757.669	3.07
757.98	2.12
758.291	3.18
758.601	6.57
758.912	3.69
759.223	4.04
759.533	4.81
759.844	6.3
760.154	5.04
760.464	3.86
760.775	3.58
761.085	5.49
761.395	5.09
761.705	5.04
762.016	5.27
762.326	4.54
762.636	5.26
762.945	5.03
763.255	5.37
763.565	5.68
763.875	2.98
764.185	6.06
764.494	7.05
764.804	5.17
765.113	4.24
765.423	4.06
765.732	4.25
766.042	4.9
766.351	5.05
766.66	4.9
766.97	4.6
767.279	6.52
767.588	4.45
767.897	5.46
768.206	3.95
768.515	6.5
768.824	4.32
769.133	4.06
769.441	4.44
769.75	4.51
770.059	4.54
770.367	3.73
770.676	2.67
770.984	4.59
771.293	3.95
771.601	5.41
771.91	6.42
772.218	5.11
772.526	4.23
772.834	3.91
773.142	4.05
773.45	6.26
773.758	4.99
774.066	2.39
774.374	4.13
774.682	5.19
774.99	3.25
775.298	5.21
775.605	2.46
775.913	6.47
776.22	6.92
776.528	1.89
776.835	2.92
777.143	5.81
777.45	5.99
777.757	4.8
778.065	5.95
778.372	2.43
778.679	2.69
778.986	3.29
779.293	9.3
779.6	2.68
779.907	1.61
780.214	3.14
780.52	1.29
780.827	4.96
781.134	2.04
781.44	2.57
781.747	4.25
782.053	3.62
782.36	2.38
782.666	9.05
782.973	1.51
783.279	3.57
783.585	1.66
783.891	1.73
784.197	4.38
784.503	3.62
784.809	2.52
785.115	2.66
785.421	4.64
785.727	7.14
786.033	3.9
786.339	6.02
786.644	8.79
786.95	4.87
787.255	4.58
787.561	8.07
787.866	4.45
788.172	1.22
788.477	8.08
788.782	5.08
789.088	3.13
789.393	7.31
789.698	4.88
790.003	3.56
790.308	1.63
790.613	4.72
790.918	1.08
791.223	1.85
791.527	3.33
791.832	5.4
792.137	4.36
792.441	6.87
792.746	6.46
793.05	4.81
793.355	4.56
793.659	0.28
793.963	3.05
794.268	7.19
794.572	4.21
794.876	4.44
795.18	6.65
795.484	6.85
795.788	-0.8
796.092	2.99
796.396	-1.02
796.7	7.87
797.004	5.86
797.307	2.75
797.611	2.03
797.915	7.39
798.218	6.63
798.522	5.95
798.825	1.18
799.128	6.61
799.432	2.6
799.735	6.04
800.038	4.22
800.341	1.79
800.644	8.9
800.947	4.68
801.25	1.67
801.553	3.87
801.856	-0.35
802.159	6.87
802.462	1.9
802.764	7.74
803.067	6.22
803.37	5.35
803.672	0.79
803.975	6.64
804.277	4.55
804.579	3.15
804.882	1.32
805.184	4.9
805.486	3.25
805.788	4.82
806.09	9.52
806.392	4.08
806.694	9.38
806.996	5.93
807.298	6.2
807.6	7.86
807.902	6.33
808.203	7.37
808.505	3.63
808.807	2.08
809.108	6.29
809.409	4.85
809.711	7.61
810.012	10.53
810.313	3.27
810.615	11.54
810.916	3.18
811.217	6.52
811.518	0.42
811.819	10.91
812.12	8.38
812.421	1.91
812.722	8.33
813.023	3.21
813.323	4.77
813.624	0.3
813.925	4.14
814.225	3.61
814.526	8.35
814.826	9.67
815.126	2.02
815.427	6.34
815.727	8.77
816.027	3.15
816.327	5.92
816.627	1.92
816.927	5.82
817.227	1.16
817.527	4.63
817.827	11.15
818.127	12.79
818.427	4.16
818.727	3.1
819.026	4.77
819.326	6.87
819.625	15.5
819.925	4.02
820.224	3.73
820.524	6.61
820.823	5.15
821.122	7.97
821.421	5.39
821.72	11.83
822.019	9.55
822.318	4.46
822.617	3.76
822.916	3.53
823.215	6.1
823.514	5.74
823.813	5.35
824.111	2.36
824.41	6.55
824.709	6.77
825.007	6.69
825.306	5.69
825.604	5.41
825.902	6.7
826.201	6.34
826.499	5.61
826.797	6.35
827.095	6.31
827.393	5.8
827.691	4.78
827.989	5.53
828.287	5.6
828.585	8.08
828.882	6.79
829.18	5.46
829.478	5.54
829.775	7.76
830.073	6.37
830.37	7.53
830.668	8.19
830.965	7.04
831.263	6.7
831.56	7.92
831.857	5.57
832.154	3.49
832.451	4.58
832.748	6.69
833.045	5.96
833.342	6.54
833.639	0.63
833.936	3.02
834.232	10.78
834.529	5.47
834.826	5.82
835.122	8.28
835.419	7.25
835.715	4.73
836.012	7.79
836.308	4.46
836.604	7.77
836.901	6.74
837.197	6.04
837.493	7.37
837.789	7.01
838.085	7.21
838.381	7.83
838.677	9.19
838.972	3.85
839.268	10.53
839.564	-0.26
839.86	5.24
840.155	9.95
840.451	-1.41
840.746	5.42
841.042	10.72
841.337	-3.66
841.632	9.03
841.928	4.36
842.223	-3
842.518	3.83
842.813	4.97
843.108	6.48
843.403	2.82
843.698	12.12
843.993	5.66
844.287	7.66
844.582	5.47
844.877	-1.39
845.171	3.15
845.466	10.84
845.761	8.83
846.055	0.31
846.349	-1.13
846.644	0.17
846.938	4.65
847.232	-6.59
847.526	12.97
847.82	0.14
848.114	2.8
848.408	-0.31
848.702	-19.74
848.996	-6.11
849.29	-3.9
849.584	-2.51
849.877	-6.46
850.171	-9.59
850.465	14.26
850.758	4.8
851.052	5.34
851.345	29.83
851.638	24.42
851.932	-3.2
852.225	19.49
852.518	8.88
852.811	18.39
853.104	2.19
853.397	-4.2
853.69	16.86
853.983	-4.44
854.276	16.67
854.569	9.14
854.861	11.42
855.154	12.48
855.447	14.41
855.739	21.31
856.032	8.6
856.324	-2.44
856.616	16.46
856.909	19.5
857.201	4.72
857.493	17.17
857.785	18.43
858.077	-3.7
858.369	13.1
858.661	-14.38
858.953	-3.54
859.245	5.35
859.537	-18.34
859.829	-17.85
860.12	24.88
860.412	12.95
860.703	5.71
860.995	5.8
861.286	16.93
861.578	1.24
861.869	16.52
862.16	19.1
862.452	16.37
862.743	3.7
863.034	5.32
863.325	16.7
863.616	27.2
863.907	5.84
864.198	-2.2
864.488	1.85
864.779	-5.94
865.07	12.68
865.36	6.65
865.651	17.89
865.941	21.53
866.232	0.5
866.522	-16.64
866.813	28.52
867.103	4.15
867.393	3.31
867.683	12.41
867.973	-14.3
868.263	25.84
868.553	1.91
868.843	15.01
869.133	8.99
869.423	19.36
869.713	7.6
870.002	4.94
870.292	-12.79
870.582	23.01
870.871	10.23
871.161	-3.81
871.45	-2.97
871.739	31.7
872.029	-12.84
872.318	12.6
872.607	2.18
872.896	-10.3
873.185	-7.32
873.474	35.66
873.763	-7.03
874.052	-5.36
874.341	34.16
874.63	-11.72
874.918	12.08
875.207	8.81
875.496	-18.72
875.784	4.57
876.073	2.81
876.361	13.57
876.649	18.5
876.938	5.23
877.226	14
877.514	5.96
877.802	10.53
878.09	10.03
878.378	18.49
878.666	17.9
878.954	28.39
879.242	-7.53
879.53	-1.08
879.817	-8.06
880.105	0.08
880.392	36.7
880.68	-9.9
880.967	26.61
881.255	7.66
881.542	3
881.83	16.79
882.117	9.02
882.404	17.05
882.691	-1.78
882.978	20.91
883.265	-10.18
883.552	9.07
883.839	15.02
884.126	7.55
884.413	10.37
884.699	5.91
884.986	4.19
885.273	9.09
885.559	9.09
885.846	9.09
