Data from 0014_chest_Reflection__0__20.txt Node

Date: Mon Oct 17 14:35:22 CDT 2022
User: ToomeyLab
Spectrometer: FLMS14357
Trigger mode: 0
Integration Time (sec): 1.000000E-2
Scans to average: 100
Electric dark correction enabled: true
Nonlinearity correction enabled: false
Boxcar width: 0
XAxis mode: Wavelengths
Number of Pixels in Spectrum: 2048
>>>>>Begin Spectral Data<<<<<
189.047	-62.72
189.435	-62.72
189.823	-62.72
190.211	-103.94
190.599	33.58
190.987	-219.93
191.375	90.31
191.763	-575.89
192.151	395.31
192.538	39.74
192.926	-178.82
193.314	39.79
193.702	-72.81
194.089	-13.95
194.477	715.1
194.864	527.24
195.252	42.46
195.639	-8.54
196.027	103.78
196.414	-135.42
196.801	193.2
197.189	212.34
197.576	85.6
197.963	40.07
198.351	-188.79
198.738	15.02
199.125	-42.87
199.512	-28.89
199.899	12.8
200.286	21.02
200.673	71.38
201.06	-20.44
201.447	23.59
201.833	38.86
202.22	33.16
202.607	-12.53
202.994	0.38
203.38	40.16
203.767	5.99
204.154	47.86
204.54	-55.9
204.927	-5.23
205.313	21.86
205.699	19.37
206.086	-50.35
206.472	-9.47
206.858	-5.46
207.245	41.99
207.631	13.57
208.017	27.03
208.403	38.91
208.789	27.87
209.175	1.09
209.561	-15.64
209.947	-49.64
210.333	19.08
210.719	46.7
211.105	23.47
211.491	40.01
211.876	4.09
212.262	30.35
212.648	16.54
213.034	-2.71
213.419	3.77
213.805	0.43
214.19	16.66
214.576	5.99
214.961	17.94
215.346	-6.48
215.732	-19.71
216.117	15.91
216.502	11.9
216.888	11.42
217.273	27.99
217.658	27.07
218.043	-12.08
218.428	21.45
218.813	-5.43
219.198	1.71
219.583	-7.39
219.968	7.74
220.353	6.56
220.738	-20.83
221.122	7.64
221.507	-6.84
221.892	11.14
222.276	8.26
222.661	9.15
223.046	3.87
223.43	8.4
223.815	4.12
224.199	10.27
224.583	-1.51
224.968	-4.01
225.352	-16.27
225.736	5.95
226.121	-5.94
226.505	0.35
226.889	3.51
227.273	2.87
227.657	6.11
228.041	6.95
228.425	2.83
228.809	2.88
229.193	2.77
229.577	3.89
229.961	4.59
230.344	2.7
230.728	2.62
231.112	3.23
231.495	3.68
231.879	3.83
232.263	3.15
232.646	3.83
233.03	3.39
233.413	2.52
233.797	3.88
234.18	4.16
234.563	1.64
234.946	3.1
235.33	3.77
235.713	1.98
236.096	3.25
236.479	2.52
236.862	4.29
237.245	2.01
237.628	2.04
238.011	3.5
238.394	4.28
238.777	3.85
239.16	4.29
239.543	2.2
239.925	4.47
240.308	2.94
240.691	3.16
241.073	3.6
241.456	3.07
241.838	3.48
242.221	2.34
242.603	2.93
242.986	2.59
243.368	3.67
243.75	2.82
244.133	3.25
244.515	3.21
244.897	3.49
245.279	3.91
245.661	3.77
246.043	4.03
246.425	1.9
246.807	2.98
247.189	3.29
247.571	2.82
247.953	2.97
248.335	3.15
248.717	2.99
249.098	3.06
249.48	3.05
249.862	2.94
250.243	2.78
250.625	3.22
251.006	3.05
251.388	3.68
251.769	3.75
252.151	3.57
252.532	3.12
252.913	3.31
253.295	2.38
253.676	3.36
254.057	3.54
254.438	3.49
254.819	3.69
255.2	3.55
255.581	3.28
255.962	2.56
256.343	2.75
256.724	2.84
257.105	2.15
257.486	2.08
257.867	2.57
258.247	2.29
258.628	3.41
259.009	2.81
259.389	3.03
259.77	2.8
260.15	3.58
260.531	2.44
260.911	2.96
261.292	3.03
261.672	3.06
262.052	3.01
262.432	2.76
262.813	3.01
263.193	3.55
263.573	3.48
263.953	2.69
264.333	2.89
264.713	3.07
265.093	2.98
265.473	2.71
265.853	2.76
266.233	3.99
266.612	2.77
266.992	3.59
267.372	2.87
267.752	4
268.131	3.52
268.511	2.93
268.89	3.5
269.27	2.89
269.649	3.03
270.029	3
270.408	3.12
270.787	3.03
271.167	2.88
271.546	3.24
271.925	2.65
272.304	2.79
272.683	3.35
273.062	2.6
273.441	2.58
273.82	2.92
274.199	3.29
274.578	2.69
274.957	2.78
275.336	3.12
275.715	2.56
276.093	2.71
276.472	2.88
276.851	3.42
277.229	2.67
277.608	3.09
277.986	3.23
278.365	2.92
278.743	2.95
279.122	2.8
279.5	3.15
279.878	2.98
280.257	2.5
280.635	2.67
281.013	3.28
281.391	3.06
281.769	2.87
282.147	3.01
282.525	2.84
282.903	2.66
283.281	2.95
283.659	2.59
284.037	2.36
284.415	2.91
284.792	2.45
285.17	2.66
285.548	2.67
285.925	3.16
286.303	2.87
286.68	2.94
287.058	2.97
287.435	3.07
287.813	2.87
288.19	2.88
288.567	2.73
288.945	2.57
289.322	3.12
289.699	3.09
290.076	3.11
290.453	2.66
290.83	2.83
291.207	2.97
291.584	2.69
291.961	3.04
292.338	3.04
292.715	2.92
293.092	2.8
293.469	3.02
293.845	3.06
294.222	3.21
294.599	3.38
294.975	2.79
295.352	2.74
295.728	2.8
296.105	3.02
296.481	2.7
296.858	3.37
297.234	3.07
297.61	3
297.986	2.94
298.363	2.78
298.739	3.47
299.115	2.88
299.491	2.79
299.867	3.03
300.243	2.89
300.619	2.28
300.995	2.98
301.371	2.98
301.746	3.09
302.122	2.95
302.498	3.32
302.874	3.29
303.249	3.1
303.625	3.36
304	3.41
304.376	3.07
304.751	3.37
305.127	3.03
305.502	3.13
305.878	3.18
306.253	3.04
306.628	3.26
307.003	2.77
307.378	3.16
307.754	3.18
308.129	2.89
308.504	3.19
308.879	3.24
309.254	2.68
309.629	3.15
310.003	3.46
310.378	2.82
310.753	2.85
311.128	3.05
311.502	3.41
311.877	2.96
312.252	3.09
312.626	2.99
313.001	2.79
313.375	2.95
313.75	3
314.124	3.31
314.498	2.71
314.873	3.07
315.247	3.2
315.621	3.55
315.995	3.17
316.369	2.93
316.743	2.83
317.117	3.62
317.491	3.11
317.865	3.21
318.239	3.45
318.613	3.02
318.987	2.93
319.361	2.74
319.734	3.41
320.108	2.99
320.482	3.43
320.855	2.37
321.229	3.3
321.602	3.21
321.976	2.49
322.349	2.39
322.723	2.35
323.096	3.19
323.469	3.06
323.843	2.86
324.216	3.26
324.589	2.83
324.962	3.21
325.335	2.85
325.708	3.18
326.081	3.03
326.454	3.06
326.827	2.97
327.2	2.69
327.573	3.06
327.945	2.93
328.318	3.25
328.691	2.52
329.063	3.06
329.436	2.81
329.809	3.26
330.181	3.42
330.553	2.71
330.926	3.03
331.298	2.87
331.671	3.36
332.043	3.19
332.415	2.96
332.787	2.93
333.159	3.49
333.532	2.93
333.904	2.83
334.276	3.26
334.648	2.73
335.02	2.93
335.391	3.17
335.763	3.39
336.135	2.67
336.507	2.97
336.879	3.12
337.25	3.54
337.622	2.74
337.993	2.95
338.365	3.09
338.736	2.91
339.108	3.41
339.479	3.01
339.851	3.28
340.222	3.05
340.593	3.38
340.964	3.04
341.336	2.53
341.707	3.06
342.078	3.32
342.449	3.23
342.82	3.18
343.191	3.16
343.562	3.09
343.933	3.1
344.303	2.74
344.674	3.6
345.045	3.47
345.416	3.03
345.786	3.35
346.157	3.29
346.527	2.99
346.898	3.21
347.268	3.49
347.639	2.79
348.009	2.92
348.38	3.09
348.75	3.19
349.12	3.25
349.49	3.07
349.861	3.52
350.231	3.18
350.601	2.97
350.971	2.66
351.341	2.94
351.711	2.93
352.081	3.16
352.45	3.06
352.82	3.25
353.19	2.69
353.56	2.92
353.929	3.38
354.299	3.14
354.669	3.25
355.038	3.22
355.408	3.4
355.777	2.72
356.147	3.27
356.516	3.08
356.885	3.07
357.254	3.31
357.624	3.3
357.993	2.97
358.362	2.9
358.731	3.24
359.1	3.1
359.469	3.18
359.838	3.21
360.207	3.08
360.576	2.93
360.945	3.43
361.314	3.22
361.682	3.16
362.051	3.06
362.42	2.85
362.788	3.05
363.157	3.17
363.525	3.1
363.894	3.17
364.262	3.08
364.631	3.13
364.999	3.15
365.367	3.1
365.735	3.1
366.104	3.07
366.472	2.84
366.84	2.88
367.208	3.05
367.576	2.98
367.944	2.97
368.312	3.24
368.68	3.23
369.048	3.22
369.416	3.06
369.783	3.05
370.151	3.25
370.519	3.48
370.886	3.11
371.254	2.81
371.621	3.08
371.989	3.19
372.356	3.25
372.724	3.4
373.091	3.16
373.458	2.9
373.826	3.15
374.193	3.3
374.56	3.2
374.927	3.26
375.294	3.09
375.661	2.88
376.028	3.22
376.395	3.2
376.762	2.99
377.129	3.14
377.496	2.92
377.863	2.75
378.229	3.22
378.596	3.1
378.963	3.09
379.329	3.14
379.696	3.26
380.062	3.21
380.429	2.71
380.795	3.26
381.161	3.41
381.528	3.08
381.894	3.06
382.26	3.28
382.626	3.11
382.993	3.15
383.359	3.25
383.725	3.15
384.091	3.07
384.457	3.35
384.823	2.9
385.188	2.87
385.554	3.32
385.92	3.09
386.286	2.89
386.651	3.01
387.017	2.84
387.383	3.24
387.748	3.06
388.114	3.19
388.479	3.35
388.845	3.29
389.21	2.99
389.575	3.13
389.94	3.29
390.306	3.38
390.671	3.36
391.036	3.12
391.401	3.33
391.766	3.3
392.131	3.21
392.496	3.31
392.861	3.1
393.226	3.15
393.591	2.97
393.956	3.11
394.32	3.2
394.685	2.93
395.05	3.22
395.414	3.4
395.779	3.17
396.143	3.18
396.508	3.16
396.872	3.04
397.236	2.97
397.601	3.26
397.965	3.14
398.329	3.26
398.694	3.34
399.058	3.25
399.422	3.42
399.786	3.27
400.15	3.3
400.514	3.19
400.878	3.31
401.242	3.09
401.605	3.32
401.969	3.1
402.333	3.26
402.697	3.06
403.06	3.06
403.424	3.13
403.787	2.98
404.151	3.34
404.514	3.26
404.878	3.05
405.241	3.32
405.604	3.19
405.968	3.32
406.331	3.2
406.694	3.15
407.057	3.06
407.42	3.17
407.783	3.43
408.146	3.37
408.509	3.34
408.872	3.08
409.235	3.09
409.598	3.2
409.961	3.17
410.323	3.36
410.686	3.19
411.049	3.22
411.411	3.34
411.774	3.19
412.136	3.28
412.499	3.34
412.861	3.22
413.223	3.14
413.586	3.28
413.948	3.27
414.31	3.17
414.672	3.29
415.035	3.34
415.397	3.28
415.759	3.31
416.121	3.2
416.483	3.35
416.845	3.32
417.206	3.06
417.568	3.35
417.93	3.23
418.292	3.32
418.653	3.25
419.015	3.25
419.377	3.28
419.738	3.11
420.1	3.4
420.461	3.01
420.822	3.31
421.184	3.19
421.545	3.15
421.906	3.28
422.267	3.21
422.629	3.03
422.99	3.17
423.351	3.19
423.712	3.13
424.073	3.14
424.434	3.18
424.795	3.25
425.155	3.28
425.516	3.17
425.877	3.12
426.238	3.16
426.598	3.22
426.959	3.21
427.32	3.23
427.68	3.27
428.041	3.13
428.401	3.33
428.761	3.24
429.122	3.24
429.482	3.19
429.842	3.31
430.202	3.43
430.563	3.22
430.923	3.29
431.283	3.41
431.643	3.26
432.003	3.24
432.363	3.51
432.722	3.26
433.082	3.36
433.442	3.38
433.802	3.25
434.161	3.31
434.521	3.47
434.881	3.24
435.24	3.2
435.6	3.36
435.959	3.23
436.319	3.34
436.678	3.26
437.037	3.2
437.396	3.19
437.756	3.4
438.115	3.18
438.474	3.18
438.833	3.2
439.192	3.26
439.551	3.28
439.91	3.25
440.269	3.21
440.628	3.17
440.987	3.23
441.345	3.32
441.704	3.2
442.063	3.17
442.421	3.32
442.78	3.2
443.138	3.31
443.497	3.27
443.855	3.33
444.214	3.32
444.572	3.25
444.93	3.34
445.288	3.2
445.647	3.29
446.005	3.34
446.363	3.41
446.721	3.24
447.079	3.19
447.437	3.3
447.795	3.3
448.153	3.27
448.51	3.25
448.868	3.3
449.226	3.29
449.584	3.28
449.941	3.22
450.299	3.45
450.656	3.14
451.014	3.33
451.371	3.42
451.729	3.37
452.086	3.42
452.443	3.47
452.801	3.47
453.158	3.44
453.515	3.25
453.872	3.21
454.229	3.33
454.586	3.32
454.943	3.37
455.3	3.41
455.657	3.36
456.014	3.47
456.371	3.48
456.727	3.42
457.084	3.42
457.441	3.44
457.797	3.46
458.154	3.37
458.51	3.42
458.867	3.53
459.223	3.42
459.58	3.3
459.936	3.29
460.292	3.5
460.648	3.33
461.005	3.43
461.361	3.36
461.717	3.28
462.073	3.36
462.429	3.36
462.785	3.44
463.141	3.48
463.496	3.44
463.852	3.41
464.208	3.67
464.564	3.36
464.919	3.46
465.275	3.35
465.631	3.6
465.986	3.47
466.342	3.48
466.697	3.65
467.052	3.47
467.408	3.4
467.763	3.29
468.118	3.44
468.473	3.58
468.829	3.47
469.184	3.5
469.539	3.47
469.894	3.47
470.249	3.52
470.603	3.55
470.958	3.58
471.313	3.51
471.668	3.59
472.023	3.41
472.377	3.61
472.732	3.29
473.086	3.52
473.441	3.57
473.795	3.62
474.15	3.49
474.504	3.56
474.859	3.6
475.213	3.59
475.567	3.55
475.921	3.42
476.275	3.39
476.63	3.6
476.984	3.58
477.338	3.4
477.692	3.58
478.045	3.68
478.399	3.62
478.753	3.64
479.107	3.66
479.461	3.57
479.814	3.55
480.168	3.41
480.521	3.58
480.875	3.61
481.228	3.46
481.582	3.55
481.935	3.58
482.289	3.42
482.642	3.54
482.995	3.67
483.348	3.58
483.701	3.53
484.055	3.48
484.408	3.53
484.761	3.44
485.114	3.34
485.466	3.34
485.819	3.33
486.172	3.37
486.525	3.38
486.878	3.4
487.23	3.43
487.583	3.51
487.936	3.5
488.288	3.48
488.641	3.39
488.993	3.4
489.345	3.42
489.698	3.45
490.05	3.41
490.402	3.37
490.754	3.39
491.107	3.47
491.459	3.47
491.811	3.54
492.163	3.54
492.515	3.58
492.866	3.49
493.218	3.49
493.57	3.49
493.922	3.45
494.274	3.57
494.625	3.58
494.977	3.58
495.328	3.54
495.68	3.63
496.031	3.74
496.383	3.74
496.734	3.66
497.086	3.64
497.437	3.67
497.788	3.67
498.139	3.6
498.49	3.6
498.842	3.59
499.193	3.48
499.544	3.64
499.894	3.65
500.245	3.72
500.596	3.58
500.947	3.7
501.298	3.82
501.648	3.7
501.999	3.59
502.35	3.67
502.7	3.76
503.051	3.83
503.401	3.88
503.752	3.78
504.102	3.72
504.452	3.8
504.803	3.69
505.153	3.81
505.503	3.8
505.853	3.74
506.203	3.71
506.553	3.74
506.903	3.72
507.253	3.67
507.603	3.68
507.953	3.82
508.303	3.78
508.652	3.94
509.002	3.86
509.352	3.75
509.701	3.84
510.051	3.88
510.4	3.74
510.75	3.84
511.099	3.78
511.449	3.87
511.798	3.86
512.147	3.83
512.496	3.81
512.846	3.8
513.195	3.8
513.544	3.81
513.893	3.86
514.242	4.02
514.591	3.83
514.939	3.92
515.288	3.8
515.637	3.82
515.986	3.92
516.334	3.92
516.683	4.04
517.032	3.75
517.38	3.87
517.729	3.98
518.077	3.96
518.426	3.85
518.774	3.94
519.122	3.91
519.47	3.94
519.819	3.99
520.167	3.93
520.515	3.9
520.863	3.9
521.211	3.92
521.559	3.95
521.907	3.97
522.255	3.96
522.602	4
522.95	4.05
523.298	4.01
523.645	3.97
523.993	4.05
524.341	4.14
524.688	4.12
525.036	4.08
525.383	4.1
525.73	4.12
526.078	4.09
526.425	4.05
526.772	4.08
527.119	4.02
527.466	3.99
527.814	4.03
528.161	4.12
528.508	4.1
528.854	4.07
529.201	4.05
529.548	4.11
529.895	4.03
530.242	4
530.588	3.98
530.935	3.96
531.282	4.01
531.628	3.97
531.975	4.06
532.321	4
532.667	4.19
533.014	4.27
533.36	4.3
533.706	4.22
534.052	4.18
534.399	4.17
534.745	4.18
535.091	4.13
535.437	4.21
535.783	4.21
536.129	4.19
536.474	4.33
536.82	4.32
537.166	4.33
537.512	4.31
537.857	4.36
538.203	4.34
538.549	4.31
538.894	4.33
539.239	4.41
539.585	4.34
539.93	4.41
540.276	4.38
540.621	4.46
540.966	4.47
541.311	4.46
541.656	4.48
542.001	4.6
542.346	4.5
542.691	4.43
543.036	4.35
543.381	4.39
543.726	4.4
544.071	4.4
544.415	4.46
544.76	4.44
545.105	4.39
545.449	4.6
545.794	4.55
546.138	4.59
546.483	4.59
546.827	4.72
547.171	4.55
547.516	4.63
547.86	4.63
548.204	4.59
548.548	4.64
548.892	4.71
549.236	4.69
549.58	4.67
549.924	4.7
550.268	4.83
550.612	4.85
550.956	4.85
551.3	4.82
551.643	4.99
551.987	5
552.33	4.9
552.674	4.87
553.017	4.89
553.361	4.97
553.704	4.95
554.048	4.81
554.391	4.89
554.734	4.99
555.077	4.99
555.42	5.02
555.764	4.97
556.107	5.04
556.45	4.97
556.793	5.1
557.135	5.17
557.478	5.14
557.821	5.35
558.164	5.14
558.507	5.12
558.849	5.1
559.192	5.1
559.534	5.16
559.877	5.27
560.219	5.08
560.562	4.97
560.904	5.17
561.246	5.3
561.589	5.34
561.931	5.35
562.273	5.36
562.615	5.21
562.957	5.42
563.299	5.47
563.641	5.43
563.983	5.47
564.325	5.54
564.667	5.45
565.008	5.54
565.35	5.5
565.692	5.77
566.033	5.59
566.375	5.47
566.716	5.36
567.058	5.56
567.399	5.41
567.741	5.48
568.082	5.51
568.423	5.57
568.764	5.68
569.105	5.62
569.447	5.65
569.788	5.77
570.129	5.75
570.47	5.75
570.811	5.83
571.151	5.82
571.492	5.9
571.833	5.76
572.174	5.84
572.514	5.87
572.855	5.7
573.195	5.87
573.536	5.88
573.876	5.89
574.217	5.83
574.557	5.86
574.898	6.02
575.238	5.93
575.578	6.12
575.918	5.97
576.258	6.03
576.598	6.08
576.938	6.02
577.278	6.13
577.618	6.08
577.958	5.97
578.298	6.04
578.638	6.24
578.977	6.33
579.317	6.03
579.657	6.17
579.996	6.15
580.336	6.41
580.675	6.27
581.014	6.04
581.354	6.24
581.693	6.14
582.032	6.24
582.372	6.5
582.711	6.45
583.05	6.62
583.389	6.3
583.728	6.34
584.067	6.54
584.406	6.36
584.745	6.79
585.083	6.66
585.422	6.74
585.761	6.7
586.1	6.64
586.438	6.91
586.777	6.94
587.115	6.67
587.454	6.83
587.792	6.92
588.13	6.75
588.469	6.97
588.807	6.94
589.145	7
589.483	6.81
589.821	6.79
590.159	7.17
590.497	7.01
590.835	6.94
591.173	7.12
591.511	7.18
591.849	7.03
592.187	7.21
592.524	7.03
592.862	6.94
593.2	7.09
593.537	7.38
593.875	7.09
594.212	7.4
594.55	7.43
594.887	7.56
595.224	7.41
595.561	7.24
595.899	7.43
596.236	7.72
596.573	7.48
596.91	7.4
597.247	7.63
597.584	7.26
597.921	7.48
598.258	7.54
598.594	7.53
598.931	7.71
599.268	7.53
599.604	7.56
599.941	7.76
600.277	7.6
600.614	7.68
600.95	7.58
601.287	7.68
601.623	7.85
601.959	7.81
602.296	7.94
602.632	7.9
602.968	7.98
603.304	8.06
603.64	7.76
603.976	8.01
604.312	8
604.648	7.9
604.984	8.09
605.319	7.91
605.655	8.13
605.991	8.12
606.326	8.04
606.662	8.05
606.998	8.21
607.333	8.29
607.668	8.07
608.004	8.33
608.339	8.13
608.674	8.58
609.01	8.44
609.345	8.52
609.68	8.63
610.015	8.58
610.35	8.54
610.685	8.43
611.02	8.64
611.355	8.58
611.689	8.41
612.024	8.8
612.359	8.56
612.694	8.58
613.028	8.52
613.363	8.86
613.697	8.48
614.032	8.94
614.366	9.03
614.7	8.96
615.035	9.01
615.369	9.14
615.703	8.92
616.037	9.03
616.371	9.22
616.705	9.19
617.039	9.68
617.373	9.23
617.707	9.41
618.041	9.25
618.375	9.2
618.709	9.49
619.042	9.28
619.376	9.11
619.71	9.59
620.043	9.36
620.377	9.57
620.71	9.69
621.043	9.76
621.377	9.51
621.71	9.88
622.043	9.61
622.376	9.69
622.709	9.46
623.043	9.51
623.376	9.48
623.709	9.26
624.041	9.55
624.374	9.87
624.707	9.48
625.04	10.17
625.373	9.95
625.705	9.79
626.038	9.54
626.37	9.97
626.703	9.97
627.035	10.17
627.368	10.34
627.7	10.19
628.032	9.95
628.365	10.17
628.697	10.03
629.029	10.34
629.361	10.17
629.693	10.25
630.025	10.19
630.357	10.24
630.689	10.16
631.021	10.24
631.353	10.12
631.684	10.22
632.016	10.22
632.348	10.62
632.679	10.63
633.011	10.59
633.342	10.58
633.674	11.09
634.005	10.81
634.336	10.63
634.668	10.65
634.999	10.62
635.33	11.12
635.661	10.99
635.992	10.69
636.323	11.15
636.654	11.26
636.985	10.66
637.316	10.88
637.647	11.11
637.977	10.93
638.308	11.33
638.639	11.03
638.969	11.24
639.3	11.09
639.63	11.33
639.961	11.37
640.291	11.18
640.622	11.6
640.952	11.62
641.282	11.43
641.612	11.17
641.943	11.37
642.273	11.39
642.603	11.59
642.933	11.9
643.263	11.79
643.592	11.64
643.922	11.59
644.252	11.79
644.582	11.77
644.911	12.01
645.241	12.16
645.571	11.68
645.9	12.01
646.23	11.82
646.559	11.99
646.888	11.93
647.218	11.93
647.547	11.91
647.876	11.74
648.205	12.32
648.534	12.14
648.863	12.27
649.192	12.61
649.521	12.44
649.85	11.81
650.179	12.69
650.508	11.94
650.837	12.56
651.165	12.78
651.494	12.72
651.822	12.57
652.151	12.52
652.479	12.66
652.808	12.57
653.136	12.72
653.465	12.84
653.793	12.62
654.121	12.67
654.449	12.8
654.777	12.96
655.105	12.65
655.433	12.74
655.761	12.46
656.089	12.83
656.417	13.14
656.745	12.47
657.073	13.14
657.4	13.24
657.728	13.18
658.056	13.12
658.383	13.63
658.711	13.59
659.038	13.37
659.365	12.69
659.693	12.87
660.02	13.18
660.347	13.51
660.674	13.4
661.001	13.42
661.329	13.85
661.656	13.42
661.982	13.59
662.309	13.66
662.636	13.79
662.963	13.57
663.29	13.53
663.616	13.96
663.943	13.96
664.27	13.76
664.596	13.79
664.923	13.73
665.249	13.74
665.576	14.13
665.902	13.67
666.228	14.06
666.554	14.31
666.881	14.44
667.207	14.27
667.533	14.9
667.859	14.08
668.185	14.14
668.511	14.15
668.837	14.47
669.162	14.29
669.488	14.04
669.814	14.92
670.139	14.89
670.465	14.37
670.791	14.74
671.116	14.8
671.442	14.84
671.767	14.42
672.092	14.66
672.418	14.75
672.743	14.45
673.068	14.93
673.393	15.02
673.718	14.89
674.043	15.2
674.368	15.12
674.693	15.6
675.018	15.28
675.343	15.5
675.667	15.05
675.992	14.96
676.317	15.02
676.641	15.16
676.966	15.55
677.29	15.09
677.615	14.7
677.939	15.34
678.264	15.11
678.588	15.61
678.912	15.62
679.236	16.1
679.56	15.2
679.885	15.63
680.209	15.54
680.532	15.9
680.856	15.87
681.18	15.53
681.504	16.08
681.828	15.77
682.152	15.54
682.475	15.98
682.799	16.13
683.122	15.79
683.446	15.77
683.769	15.8
684.093	15.68
684.416	16.55
684.739	16.59
685.062	16.22
685.386	16.63
685.709	16.1
686.032	16.79
686.355	15.85
686.678	16.36
687.001	16.13
687.324	16.39
687.646	15.96
687.969	16.49
688.292	16.63
688.614	16.83
688.937	17.05
689.26	16.89
689.582	16.16
689.904	17.19
690.227	17.46
690.549	16.99
690.871	16.52
691.194	16.72
691.516	17.04
691.838	17.42
692.16	17.16
692.482	17.13
692.804	16.9
693.126	17.28
693.448	17.28
693.769	17.08
694.091	17.49
694.413	16.96
694.735	17.17
695.056	17.54
695.378	16.89
695.699	17.17
696.021	16.9
696.342	17.58
696.663	17.7
696.984	17.49
697.306	17.6
697.627	17.71
697.948	17.52
698.269	17.52
698.59	18.07
698.911	18.5
699.232	18.08
699.553	17.71
699.873	17.98
700.194	17.72
700.515	18.61
700.835	17.54
701.156	17.93
701.477	18.13
701.797	18.01
702.117	18.31
702.438	18.21
702.758	18.66
703.078	17.8
703.398	18.56
703.719	18.09
704.039	18.01
704.359	18.53
704.679	18.3
704.999	19.08
705.319	19.27
705.638	18.34
705.958	19.22
706.278	17.98
706.597	17.9
706.917	19.26
707.237	19.32
707.556	18.9
707.876	17.66
708.195	18.98
708.514	18.74
708.834	18.57
709.153	18.86
709.472	18.13
709.791	19.04
710.11	19.26
710.429	18.83
710.748	19.19
711.067	19.19
711.386	18.18
711.705	20.12
712.023	19.8
712.342	20.22
712.661	19.07
712.979	19.32
713.298	19.92
713.616	19.53
713.935	19.2
714.253	19.32
714.572	20.42
714.89	19.02
715.208	19.4
715.526	19.88
715.844	19.63
716.162	20.47
716.48	20.32
716.798	20.04
717.116	20.1
717.434	19.35
717.752	19.65
718.069	20.87
718.387	19.8
718.705	19.86
719.022	20.98
719.34	20.96
719.657	19.11
719.975	19.55
720.292	20.23
720.609	20.77
720.927	19.92
721.244	20.18
721.561	20.94
721.878	20.73
722.195	21.13
722.512	20.18
722.829	20.71
723.146	20.25
723.463	20.93
723.779	20.12
724.096	21.49
724.413	21.37
724.729	20.14
725.046	20.45
725.362	21.69
725.679	20.19
725.995	19.89
726.311	21.08
726.628	19.92
726.944	20.25
727.26	22.66
727.576	21.29
727.892	21.77
728.208	21.81
728.524	20.84
728.84	21.87
729.156	22.57
729.472	20.85
729.787	22.5
730.103	21.45
730.419	22.69
730.734	22.88
731.05	21.63
731.365	21.41
731.681	22.92
731.996	21.31
732.311	21.28
732.626	21.55
732.942	22.31
733.257	22.05
733.572	22.43
733.887	22.24
734.202	22.47
734.517	21.87
734.832	21.98
735.146	22.59
735.461	21.68
735.776	22.29
736.091	23.03
736.405	22.54
736.72	22.16
737.034	22.59
737.349	22.42
737.663	22.64
737.977	22.74
738.292	24.09
738.606	22.65
738.92	23.22
739.234	22.63
739.548	23.54
739.862	23.74
740.176	23.03
740.49	23.37
740.804	23.76
741.117	23.03
741.431	21.51
741.745	22.09
742.058	21.66
742.372	24.68
742.685	22.73
742.999	23.21
743.312	25.01
743.626	24.53
743.939	23.75
744.252	25.41
744.565	23.07
744.878	22.82
745.191	22.63
745.505	23.34
745.817	24.3
746.13	23.52
746.443	22.5
746.756	22.67
747.069	24.2
747.381	24.6
747.694	23.29
748.007	24.36
748.319	24.01
748.632	22.96
748.944	23.81
749.256	24.13
749.569	23.63
749.881	22.34
750.193	23.78
750.505	24.41
750.817	23.63
751.129	22.37
751.441	25.3
751.753	24.22
752.065	26.7
752.377	24.1
752.689	25.82
753	23.92
753.312	26.27
753.624	26.23
753.935	25.68
754.247	24.64
754.558	26.06
754.869	25.82
755.181	25.05
755.492	25.56
755.803	24.53
756.114	24.71
756.425	23.92
756.736	26.49
757.047	25.77
757.358	25.51
757.669	23.09
757.98	25.03
758.291	25.17
758.601	25.59
758.912	26.06
759.223	24.22
759.533	25.74
759.844	26.9
760.154	25.46
760.464	26.86
760.775	23.74
761.085	25.93
761.395	26.16
761.705	25.26
762.016	25.19
762.326	25.48
762.636	26.04
762.945	25.88
763.255	25.98
763.565	26.86
763.875	26.2
764.185	25.68
764.494	27.53
764.804	25.32
765.113	26.13
765.423	25.56
765.732	25.72
766.042	25.84
766.351	26.77
766.66	26.59
766.97	27.29
767.279	26.37
767.588	25.49
767.897	27.5
768.206	26.3
768.515	27.32
768.824	25.89
769.133	26.79
769.441	27.54
769.75	26.49
770.059	26.42
770.367	25.22
770.676	27.08
770.984	27.12
771.293	26.85
771.601	25.52
771.91	28.51
772.218	26.16
772.526	28.18
772.834	27.19
773.142	27.4
773.45	28.98
773.758	26.78
774.066	26.88
774.374	28.88
774.682	27.85
774.99	28.34
775.298	28.72
775.605	24.47
775.913	28.75
776.22	31.36
776.528	27.68
776.835	25.61
777.143	26.31
777.45	30.45
777.757	27.74
778.065	27.31
778.372	28.09
778.679	29.39
778.986	28.26
779.293	30.19
779.6	25.96
779.907	26.78
780.214	28.1
780.52	26.58
780.827	26.34
781.134	24.37
781.44	28.68
781.747	26.94
782.053	27.12
782.36	26.45
782.666	31.18
782.973	28.7
783.279	27.54
783.585	26.66
783.891	29.68
784.197	26.92
784.503	29.49
784.809	26.25
785.115	25.69
785.421	28.48
785.727	31.25
786.033	27.07
786.339	31.64
786.644	32.85
786.95	29.87
787.255	31.34
787.561	30.14
787.866	28.37
788.172	28.34
788.477	31.4
788.782	29.8
789.088	31.58
789.393	27.86
789.698	27.4
790.003	28.87
790.308	30.17
790.613	28.62
790.918	29.91
791.223	30.29
791.527	28.14
791.832	26.96
792.137	28.9
792.441	30.5
792.746	32.41
793.05	32.35
793.355	29.42
793.659	28.57
793.963	27.62
794.268	32.89
794.572	27.16
794.876	28.96
795.18	31.94
795.484	31.8
795.788	25.5
796.092	28.15
796.396	29.54
796.7	30.58
797.004	28.27
797.307	31.86
797.611	27.63
797.915	32.94
798.218	30.8
798.522	31.3
798.825	29.31
799.128	29.69
799.432	28.17
799.735	29.3
800.038	28.6
800.341	28.55
800.644	31
800.947	30.44
801.25	32.42
801.553	32.48
801.856	29.71
802.159	29.89
802.462	29.61
802.764	28.76
803.067	30.84
803.37	33.15
803.672	30.78
803.975	33.54
804.277	27.71
804.579	30.62
804.882	30.32
805.184	32.28
805.486	26.32
805.788	32.63
806.09	33.72
806.392	28.14
806.694	32.1
806.996	35.2
807.298	31.49
807.6	28.13
807.902	30.35
808.203	30.02
808.505	33.82
808.807	33.54
809.108	36.88
809.409	31.03
809.711	30.88
810.012	33.84
810.313	30.26
810.615	33.65
810.916	30.79
811.217	28.34
811.518	25.45
811.819	36.35
812.12	33
812.421	27.28
812.722	32.92
813.023	33.66
813.323	31.45
813.624	31.51
813.925	28.75
814.225	28.44
814.526	30.52
814.826	36.1
815.126	31.69
815.427	33.85
815.727	31.7
816.027	32.96
816.327	34.86
816.627	34.5
816.927	32.88
817.227	31.39
817.527	33.1
817.827	34.43
818.127	37.72
818.427	31.48
818.727	30.44
819.026	31.86
819.326	29.21
819.625	34.62
819.925	36.51
820.224	32.3
820.524	34.53
820.823	33.38
821.122	32.93
821.421	32.37
821.72	36.38
822.019	32.96
822.318	36.89
822.617	30.5
822.916	33.92
823.215	36.07
823.514	32.82
823.813	33.57
824.111	32.1
824.41	34.89
824.709	34.63
825.007	33.87
825.306	33.47
825.604	34.97
825.902	33.79
826.201	34.84
826.499	35.39
826.797	34.29
827.095	35.44
827.393	36.16
827.691	33.43
827.989	34.7
828.287	34.35
828.585	36.68
828.882	33.04
829.18	35.94
829.478	35.45
829.775	34.38
830.073	35.29
830.37	34.47
830.668	35.17
830.965	35.71
831.263	37
831.56	35.19
831.857	39.02
832.154	33.48
832.451	34.81
832.748	35.15
833.045	37.12
833.342	35.7
833.639	28.24
833.936	33.34
834.232	33.34
834.529	34.95
834.826	37.91
835.122	30.8
835.419	33.99
835.715	36.66
836.012	37.4
836.308	39.37
836.604	38.39
836.901	35.79
837.197	37.6
837.493	37.31
837.789	36.27
838.085	35.28
838.381	36
838.677	35.14
838.972	38.37
839.268	39.69
839.564	33.93
839.86	38.7
840.155	42.46
840.451	31.34
840.746	36.43
841.042	39
841.337	29.55
841.632	34.66
841.928	33.93
842.223	30.28
842.518	31.57
842.813	35.63
843.108	33.71
843.403	34.47
843.698	44.11
843.993	43.92
844.287	35.73
844.582	37.25
844.877	30.02
845.171	34.54
845.466	36.29
845.761	28.03
846.055	45.46
846.349	30.91
846.644	35.83
846.938	37.72
847.232	39.91
847.526	31.22
847.82	33.08
848.114	32.78
848.408	33.63
848.702	26.71
848.996	40.44
849.29	21.56
849.584	12.38
849.877	44.28
850.171	35.15
850.465	34.19
850.758	38.51
851.052	31.94
851.345	56.62
851.638	49.45
851.932	24.44
852.225	42.22
852.518	38.66
852.811	47.8
853.104	21.24
853.397	47.32
853.69	43.62
853.983	36.91
854.276	45.77
854.569	43.45
854.861	14.82
855.154	36.75
855.447	42.88
855.739	52.83
856.032	32.36
856.324	17.31
856.616	33.69
856.909	44.12
857.201	32.2
857.493	27.41
857.785	35.19
858.077	29.08
858.369	32.46
858.661	24.68
858.953	13.19
859.245	42.15
859.537	21.78
859.829	31.02
860.12	54.4
860.412	45.38
860.703	27.06
860.995	46.15
861.286	29.93
861.578	47.01
861.869	25.65
862.16	35.09
862.452	35.1
862.743	42.65
863.034	35.23
863.325	40.22
863.616	40.02
863.907	47.77
864.198	12.58
864.488	36.09
864.779	35.53
865.07	44.16
865.36	38.02
865.651	53.06
865.941	49.08
866.232	21.96
866.522	20.6
866.813	50.96
867.103	24.46
867.393	44.31
867.683	23.01
867.973	38.71
868.263	38.4
868.553	30.98
868.843	48.35
869.133	36.65
869.423	41.39
869.713	28.78
870.002	33.39
870.292	51.27
870.582	44.84
870.871	41.94
871.161	46.68
871.45	65.99
871.739	58.25
872.029	15.5
872.318	15.31
872.607	23.22
872.896	28.76
873.185	38.18
873.474	62.97
873.763	40.71
874.052	50.35
874.341	34.9
874.63	18.1
874.918	53.15
875.207	47.25
875.496	55.18
875.784	46.24
876.073	30.92
876.361	24.72
876.649	31.61
876.938	47.66
877.226	39.82
877.514	38.37
877.802	17.96
878.09	36.69
878.378	40.6
878.666	34.74
878.954	31.49
879.242	42.1
879.53	25.23
879.817	23.62
880.105	31.64
880.392	45.78
880.68	47.25
880.967	40.23
881.255	34.17
881.542	24.18
881.83	46.69
882.117	53.45
882.404	37.09
882.691	35.08
882.978	55.74
883.265	37.32
883.552	43.96
883.839	42.07
884.126	35.12
884.413	40.09
884.699	38.02
884.986	41.74
885.273	37.02
885.559	37.02
885.846	37.02
