Data from 0223_chest_Reflection__1__48.txt Node

Date: Fri Oct 20 21:03:40 CDT 2023
User: ToomeyLab
Spectrometer: FLMS14357
Trigger mode: 0
Integration Time (sec): 1.000000E-2
Scans to average: 100
Electric dark correction enabled: true
Nonlinearity correction enabled: false
Boxcar width: 0
XAxis mode: Wavelengths
Number of Pixels in Spectrum: 2048
>>>>>Begin Spectral Data<<<<<
189.047	83.13
189.435	83.13
189.823	83.13
190.211	161.31
190.599	-13.92
190.987	61.92
191.375	-1201.06
191.763	-1063.66
192.151	930.99
192.538	371.54
192.926	196.13
193.314	34.42
193.702	124.07
194.089	34.24
194.477	-405.6
194.864	114.5
195.252	149.15
195.639	206.05
196.027	309.49
196.414	-78.46
196.801	814.45
197.189	54.11
197.576	-674.51
197.963	-39.19
198.351	47.98
198.738	-4.44
199.125	41.57
199.512	45.04
199.899	39.14
200.286	-1.06
200.673	8.64
201.06	17.36
201.447	-8.87
201.833	63.58
202.22	35.52
202.607	21.75
202.994	30.55
203.38	34.12
203.767	3.47
204.154	40.68
204.54	46.9
204.927	28.47
205.313	22.53
205.699	33.77
206.086	34.46
206.472	37.29
206.858	44.15
207.245	21.79
207.631	36.22
208.017	16.12
208.403	8.56
208.789	22.45
209.175	17.33
209.561	36.49
209.947	1.29
210.333	14.54
210.719	34.93
211.105	8.9
211.491	25.09
211.876	2.96
212.262	31.56
212.648	46
213.034	8.29
213.419	13.2
213.805	-4.51
214.19	27.32
214.576	29.95
214.961	22.5
215.346	35.95
215.732	43.19
216.117	-15.15
216.502	33.89
216.888	-0.47
217.273	21.82
217.658	11.69
218.043	26.79
218.428	12.92
218.813	28.57
219.198	12.32
219.583	-18.95
219.968	-8.99
220.353	-0.86
220.738	30.27
221.122	17.34
221.507	7.86
221.892	-2.89
222.276	11.6
222.661	12.15
223.046	16.16
223.43	16.11
223.815	18.17
224.199	27.61
224.583	3.21
224.968	-4.09
225.352	8.89
225.736	5.84
226.121	13.83
226.505	6.35
226.889	3.06
227.273	8.03
227.657	12.43
228.041	12.84
228.425	6.46
228.809	5.22
229.193	4.74
229.577	8.15
229.961	4.54
230.344	4.07
230.728	3.86
231.112	5.36
231.495	4.83
231.879	5.21
232.263	5.45
232.646	3.87
233.03	5.34
233.413	5.27
233.797	4.41
234.18	6.52
234.563	5.97
234.946	7.32
235.33	5.91
235.713	5.73
236.096	5.03
236.479	5.85
236.862	5.47
237.245	4.23
237.628	5.23
238.011	6.33
238.394	5.23
238.777	6.8
239.16	6.5
239.543	7.51
239.925	7.14
240.308	6.16
240.691	5.57
241.073	7.09
241.456	4.18
241.838	5.36
242.221	6.39
242.603	5.88
242.986	4.77
243.368	5.37
243.75	4.84
244.133	4.5
244.515	4.97
244.897	5
245.279	5.04
245.661	5.1
246.043	4.96
246.425	5.43
246.807	4.49
247.189	5.79
247.571	5.33
247.953	5.35
248.335	5.52
248.717	4.79
249.098	4.74
249.48	4.79
249.862	5.22
250.243	5.27
250.625	5.23
251.006	5.52
251.388	5.05
251.769	5.27
252.151	4.96
252.532	4.82
252.913	5.24
253.295	3.91
253.676	5.46
254.057	4.86
254.438	5.18
254.819	5.29
255.2	4.71
255.581	4.87
255.962	4.97
256.343	5.11
256.724	3.88
257.105	4.61
257.486	5.73
257.867	5.81
258.247	5.23
258.628	5.52
259.009	4.54
259.389	5.4
259.77	4.94
260.15	5.45
260.531	4.88
260.911	5.23
261.292	4.62
261.672	4.79
262.052	4.87
262.432	4.55
262.813	4.54
263.193	5.2
263.573	4.67
263.953	5.04
264.333	5.5
264.713	5.56
265.093	5.36
265.473	4.82
265.853	4.8
266.233	4.83
266.612	4.71
266.992	4.71
267.372	4.64
267.752	4.73
268.131	4.78
268.511	5.08
268.89	4.58
269.27	4.55
269.649	4.1
270.029	4.89
270.408	5.17
270.787	4.84
271.167	4.86
271.546	5.04
271.925	5.64
272.304	4.79
272.683	4.96
273.062	5.11
273.441	4.44
273.82	4.46
274.199	4.66
274.578	4.83
274.957	4.39
275.336	4.6
275.715	4.57
276.093	4.91
276.472	4.27
276.851	4.52
277.229	4.58
277.608	4.16
277.986	4.29
278.365	4.47
278.743	4.15
279.122	4.14
279.5	4.65
279.878	4.61
280.257	4.33
280.635	4.48
281.013	4.76
281.391	4.79
281.769	4.16
282.147	4.34
282.525	4.22
282.903	4.89
283.281	4.77
283.659	4.57
284.037	4.69
284.415	4.14
284.792	4.24
285.17	4.4
285.548	4.76
285.925	4.46
286.303	4.26
286.68	4.61
287.058	4.73
287.435	4.84
287.813	3.99
288.19	4.46
288.567	4.43
288.945	4.75
289.322	5.06
289.699	4.23
290.076	4.92
290.453	4.72
290.83	4.36
291.207	4.96
291.584	4.3
291.961	4.91
292.338	4.3
292.715	4.52
293.092	4.35
293.469	4.72
293.845	4.48
294.222	4.63
294.599	4.84
294.975	5.34
295.352	5.2
295.728	4.99
296.105	5.04
296.481	4.74
296.858	5.14
297.234	5.04
297.61	4.71
297.986	4.91
298.363	4.82
298.739	5.1
299.115	5.19
299.491	5.14
299.867	5.02
300.243	5.12
300.619	4.64
300.995	5.06
301.371	5.38
301.746	4.86
302.122	5.62
302.498	4.79
302.874	5.36
303.249	5.03
303.625	5.64
304	5.83
304.376	5.31
304.751	5.06
305.127	5.3
305.502	5.68
305.878	5.45
306.253	6.04
306.628	5.51
307.003	5.26
307.378	5.64
307.754	5.79
308.129	5.95
308.504	5.74
308.879	5.5
309.254	6.24
309.629	5.12
310.003	4.9
310.378	5.71
310.753	5.29
311.128	5.97
311.502	5.08
311.877	5.57
312.252	5.37
312.626	5.75
313.001	5.56
313.375	5.5
313.75	5.64
314.124	5.53
314.498	5.84
314.873	5.39
315.247	5.68
315.621	5.97
315.995	6.18
316.369	4.97
316.743	6.2
317.117	6.05
317.491	5.48
317.865	6.31
318.239	6.05
318.613	5.76
318.987	5.57
319.361	5.03
319.734	5.38
320.108	5.38
320.482	5.55
320.855	6.1
321.229	5.72
321.602	5.67
321.976	5.63
322.349	6.36
322.723	5.58
323.096	5.99
323.469	6.26
323.843	5.93
324.216	5.54
324.589	5.91
324.962	5.78
325.335	5.92
325.708	5.63
326.081	5.79
326.454	6.04
326.827	6.12
327.2	6.4
327.573	6.44
327.945	5.98
328.318	5.78
328.691	5.64
329.063	5.96
329.436	5.8
329.809	5.94
330.181	6.02
330.553	5.97
330.926	5.8
331.298	5.95
331.671	5.54
332.043	6.01
332.415	6.1
332.787	6.07
333.159	5.95
333.532	6.1
333.904	6.2
334.276	6.14
334.648	6.22
335.02	6.13
335.391	5.75
335.763	6.44
336.135	5.7
336.507	5.96
336.879	5.78
337.25	5.74
337.622	6.26
337.993	6.25
338.365	5.88
338.736	6.26
339.108	6.14
339.479	5.96
339.851	5.89
340.222	5.98
340.593	5.94
340.964	5.93
341.336	6.33
341.707	6.39
342.078	6.33
342.449	5.4
342.82	5.56
343.191	5.71
343.562	5.92
343.933	6.11
344.303	5.98
344.674	5.96
345.045	6.51
345.416	6.3
345.786	5.47
346.157	6.24
346.527	5.82
346.898	6.32
347.268	6.05
347.639	6.28
348.009	6.12
348.38	6.23
348.75	6.34
349.12	6.29
349.49	6.09
349.861	6.39
350.231	5.97
350.601	5.99
350.971	6.12
351.341	6.26
351.711	6.6
352.081	5.98
352.45	6.06
352.82	6.63
353.19	6.48
353.56	5.91
353.929	6
354.299	5.85
354.669	5.85
355.038	6.45
355.408	6.27
355.777	6.22
356.147	6.26
356.516	5.7
356.885	6.04
357.254	6.21
357.624	6.16
357.993	5.93
358.362	6.01
358.731	5.51
359.1	5.44
359.469	5.8
359.838	6.15
360.207	5.96
360.576	6.47
360.945	5.94
361.314	6.06
361.682	6.01
362.051	5.83
362.42	6.2
362.788	6.14
363.157	6.04
363.525	6.08
363.894	5.99
364.262	5.9
364.631	6.18
364.999	6.07
365.367	6.53
365.735	6.22
366.104	6.17
366.472	6.31
366.84	6.45
367.208	6.35
367.576	5.94
367.944	6.09
368.312	6.05
368.68	6.56
369.048	6.24
369.416	6.41
369.783	6.5
370.151	6.13
370.519	6.04
370.886	6.18
371.254	6.38
371.621	6.59
371.989	6.21
372.356	6.38
372.724	6.28
373.091	6.21
373.458	6.2
373.826	6.23
374.193	6.15
374.56	6.17
374.927	6.2
375.294	6.59
375.661	6.21
376.028	6.53
376.395	6.7
376.762	6.14
377.129	6.56
377.496	6.48
377.863	6.59
378.229	6.64
378.596	6.46
378.963	6.07
379.329	6.28
379.696	6.36
380.062	6.36
380.429	5.97
380.795	6.28
381.161	6.33
381.528	6.56
381.894	6.45
382.26	6.43
382.626	6.61
382.993	6.37
383.359	6.57
383.725	6.63
384.091	6.48
384.457	6.54
384.823	6.51
385.188	6.56
385.554	6.5
385.92	6.55
386.286	6.73
386.651	6.17
387.017	6.66
387.383	6.37
387.748	6.06
388.114	6.39
388.479	6.38
388.845	6.58
389.21	6.28
389.575	6.02
389.94	6.41
390.306	6.31
390.671	6.35
391.036	6.56
391.401	6.5
391.766	6.35
392.131	6.14
392.496	6.49
392.861	6.31
393.226	6.44
393.591	6.37
393.956	6.31
394.32	6.53
394.685	6.37
395.05	6.47
395.414	6.42
395.779	6.32
396.143	6.48
396.508	6.34
396.872	6.41
397.236	6.54
397.601	6.23
397.965	6.44
398.329	6.17
398.694	6.6
399.058	6.2
399.422	6.63
399.786	6.45
400.15	6.49
400.514	6.43
400.878	6.71
401.242	6.88
401.605	6.42
401.969	6.24
402.333	6.56
402.697	6.62
403.06	6.57
403.424	6.67
403.787	6.33
404.151	6.6
404.514	6.47
404.878	6.64
405.241	6.63
405.604	6.41
405.968	6.6
406.331	6.49
406.694	6.47
407.057	6.54
407.42	6.68
407.783	6.65
408.146	6.48
408.509	6.56
408.872	6.84
409.235	6.72
409.598	6.49
409.961	6.7
410.323	6.63
410.686	6.53
411.049	6.65
411.411	6.54
411.774	6.7
412.136	6.48
412.499	6.79
412.861	6.68
413.223	6.69
413.586	6.56
413.948	6.92
414.31	6.88
414.672	6.59
415.035	6.8
415.397	6.85
415.759	6.81
416.121	6.68
416.483	6.71
416.845	6.88
417.206	6.83
417.568	6.73
417.93	6.61
418.292	6.48
418.653	6.63
419.015	6.6
419.377	6.49
419.738	6.5
420.1	6.46
420.461	6.62
420.822	6.56
421.184	6.6
421.545	6.55
421.906	6.53
422.267	6.48
422.629	6.49
422.99	6.26
423.351	6.47
423.712	6.56
424.073	6.53
424.434	6.51
424.795	6.55
425.155	6.61
425.516	6.51
425.877	6.58
426.238	6.39
426.598	6.49
426.959	6.51
427.32	6.5
427.68	6.63
428.041	6.57
428.401	6.67
428.761	6.8
429.122	6.54
429.482	6.72
429.842	6.81
430.202	6.7
430.563	6.65
430.923	6.7
431.283	6.81
431.643	6.79
432.003	7.01
432.363	6.81
432.722	6.84
433.082	6.88
433.442	6.86
433.802	6.96
434.161	6.61
434.521	6.72
434.881	6.71
435.24	6.79
435.6	6.68
435.959	6.66
436.319	6.9
436.678	6.84
437.037	6.74
437.396	6.86
437.756	6.89
438.115	6.69
438.474	7.03
438.833	7
439.192	6.65
439.551	6.93
439.91	6.84
440.269	6.91
440.628	6.82
440.987	6.8
441.345	6.75
441.704	6.84
442.063	6.75
442.421	6.85
442.78	6.87
443.138	6.94
443.497	6.91
443.855	6.88
444.214	6.84
444.572	6.87
444.93	6.98
445.288	6.96
445.647	7
446.005	6.81
446.363	6.9
446.721	6.97
447.079	6.92
447.437	6.87
447.795	6.79
448.153	6.74
448.51	6.88
448.868	6.87
449.226	6.84
449.584	6.89
449.941	6.86
450.299	6.95
450.656	6.85
451.014	6.95
451.371	7.02
451.729	6.85
452.086	7.05
452.443	6.96
452.801	6.88
453.158	7.07
453.515	7.09
453.872	7.06
454.229	7.18
454.586	7.14
454.943	7.01
455.3	6.99
455.657	7.05
456.014	7
456.371	7.09
456.727	7.2
457.084	7.25
457.441	7.17
457.797	7.2
458.154	7.19
458.51	7.3
458.867	7.04
459.223	7.14
459.58	7.1
459.936	7.16
460.292	7.09
460.648	6.96
461.005	7.03
461.361	7.05
461.717	6.89
462.073	7.06
462.429	7.01
462.785	6.93
463.141	7.09
463.496	7.12
463.852	7.17
464.208	7.19
464.564	7.29
464.919	7.23
465.275	7.42
465.631	7.3
465.986	7.33
466.342	7.23
466.697	7.34
467.052	7.31
467.408	7.21
467.763	7.34
468.118	7.57
468.473	7.24
468.829	7.35
469.184	7.33
469.539	7.39
469.894	7.27
470.249	7.21
470.603	7.16
470.958	7.41
471.313	7.49
471.668	7.42
472.023	7.34
472.377	7.5
472.732	7.28
473.086	7.39
473.441	7.55
473.795	7.72
474.15	7.46
474.504	7.2
474.859	7.52
475.213	7.44
475.567	7.4
475.921	7.41
476.275	7.49
476.63	7.67
476.984	7.61
477.338	7.41
477.692	7.36
478.045	7.62
478.399	7.45
478.753	7.4
479.107	7.43
479.461	7.46
479.814	7.42
480.168	7.6
480.521	7.5
480.875	7.52
481.228	7.48
481.582	7.53
481.935	7.45
482.289	7.43
482.642	7.49
482.995	7.48
483.348	7.46
483.701	7.44
484.055	7.48
484.408	7.36
484.761	7.32
485.114	7.25
485.466	7.15
485.819	7.11
486.172	7.08
486.525	7.07
486.878	7.08
487.23	7.15
487.583	7.23
487.936	7.28
488.288	7.33
488.641	7.42
488.993	7.3
489.345	7.28
489.698	7.29
490.05	7.26
490.402	7.22
490.754	7.22
491.107	7.31
491.459	7.34
491.811	7.48
492.163	7.46
492.515	7.55
492.866	7.6
493.218	7.48
493.57	7.38
493.922	7.42
494.274	7.38
494.625	7.38
494.977	7.4
495.328	7.61
495.68	7.65
496.031	7.61
496.383	7.81
496.734	7.75
497.086	7.8
497.437	7.83
497.788	7.71
498.139	7.95
498.49	7.83
498.842	7.78
499.193	7.69
499.544	7.83
499.894	7.77
500.245	7.71
500.596	7.93
500.947	7.9
501.298	7.8
501.648	7.75
501.999	7.83
502.35	7.86
502.7	8.01
503.051	7.87
503.401	8.1
503.752	7.9
504.102	7.93
504.452	7.95
504.803	7.99
505.153	8.1
505.503	8.03
505.853	8.19
506.203	7.97
506.553	7.88
506.903	8.03
507.253	8.04
507.603	7.93
507.953	8.1
508.303	8.1
508.652	8.06
509.002	8.07
509.352	8.12
509.701	8.16
510.051	8.06
510.4	7.94
510.75	8.12
511.099	8.07
511.449	8.06
511.798	8.08
512.147	8.04
512.496	8.14
512.846	8.15
513.195	8.14
513.544	8.18
513.893	8.04
514.242	8.15
514.591	8.19
514.939	8.19
515.288	8.19
515.637	8.33
515.986	8.29
516.334	8.29
516.683	8.23
517.032	8.11
517.38	8.23
517.729	8.43
518.077	8.27
518.426	8.35
518.774	8.3
519.122	8.38
519.47	8.34
519.819	8.28
520.167	8.23
520.515	8.34
520.863	8.29
521.211	8.25
521.559	8.21
521.907	8.27
522.255	8.38
522.602	8.49
522.95	8.41
523.298	8.6
523.645	8.57
523.993	8.56
524.341	8.58
524.688	8.56
525.036	8.58
525.383	8.51
525.73	8.61
526.078	8.51
526.425	8.59
526.772	8.58
527.119	8.51
527.466	8.53
527.814	8.61
528.161	8.54
528.508	8.45
528.854	8.58
529.201	8.47
529.548	8.53
529.895	8.47
530.242	8.43
530.588	8.26
530.935	8.29
531.282	8.37
531.628	8.38
531.975	8.27
532.321	8.46
532.667	8.56
533.014	8.61
533.36	8.7
533.706	8.75
534.052	8.76
534.399	8.63
534.745	8.62
535.091	8.68
535.437	8.72
535.783	8.62
536.129	8.7
536.474	8.71
536.82	8.81
537.166	8.87
537.512	8.97
537.857	8.93
538.203	9
538.549	9.04
538.894	8.94
539.239	8.91
539.585	8.98
539.93	9.05
540.276	9.08
540.621	9.18
540.966	9.13
541.311	9.21
541.656	9.14
542.001	9.3
542.346	9.25
542.691	9.03
543.036	9.07
543.381	8.95
543.726	8.94
544.071	8.95
544.415	9.02
544.76	8.98
545.105	9.15
545.449	9.18
545.794	9.29
546.138	9.17
546.483	9.27
546.827	9.34
547.171	9.46
547.516	9.38
547.86	9.47
548.204	9.43
548.548	9.46
548.892	9.31
549.236	9.52
549.58	9.42
549.924	9.48
550.268	9.56
550.612	9.57
550.956	9.85
551.3	9.58
551.643	9.71
551.987	10.04
552.33	9.78
552.674	9.97
553.017	9.94
553.361	10.02
553.704	9.91
554.048	10.11
554.391	9.98
554.734	10.08
555.077	9.91
555.42	9.89
555.764	9.83
556.107	10.06
556.45	10.05
556.793	10.09
557.135	9.99
557.478	10.1
557.821	10.3
558.164	10.22
558.507	10.26
558.849	10.33
559.192	10.41
559.534	10.54
559.877	10.3
560.219	10.48
560.562	10.48
560.904	10.23
561.246	10.44
561.589	10.43
561.931	10.53
562.273	10.7
562.615	10.58
562.957	10.63
563.299	10.65
563.641	10.58
563.983	10.54
564.325	10.47
564.667	10.63
565.008	10.68
565.35	10.53
565.692	10.73
566.033	10.78
566.375	10.86
566.716	10.89
567.058	10.74
567.399	10.95
567.741	10.91
568.082	10.75
568.423	10.78
568.764	10.78
569.105	10.89
569.447	10.82
569.788	10.88
570.129	11.08
570.47	10.91
570.811	11.17
571.151	11.02
571.492	11.18
571.833	11.18
572.174	11.32
572.514	11.23
572.855	11.29
573.195	11.14
573.536	11.09
573.876	11.31
574.217	11.13
574.557	11.23
574.898	11.22
575.238	11.21
575.578	11.37
575.918	11.18
576.258	11.41
576.598	11.41
576.938	11.55
577.278	11.53
577.618	11.3
577.958	11.42
578.298	11.61
578.638	11.78
578.977	11.68
579.317	11.77
579.657	11.73
579.996	11.87
580.336	11.87
580.675	11.57
581.014	11.81
581.354	11.79
581.693	12.06
582.032	11.95
582.372	11.98
582.711	11.95
583.05	12.1
583.389	12.12
583.728	12.02
584.067	12.13
584.406	12.33
584.745	12.49
585.083	12.1
585.422	12.22
585.761	12.3
586.1	12.51
586.438	12.24
586.777	12.42
587.115	12.46
587.454	12.56
587.792	12.4
588.13	12.55
588.469	12.45
588.807	12.31
589.145	12.46
589.483	12.45
589.821	12.71
590.159	12.66
590.497	12.71
590.835	12.84
591.173	12.77
591.511	12.77
591.849	12.76
592.187	12.75
592.524	12.84
592.862	12.97
593.2	12.93
593.537	12.91
593.875	12.94
594.212	13.13
594.55	13.09
594.887	13.13
595.224	13.23
595.561	13.09
595.899	12.87
596.236	13.17
596.573	13.38
596.91	13.28
597.247	13.29
597.584	13.09
597.921	13.32
598.258	13.46
598.594	13.54
598.931	13.29
599.268	13.3
599.604	13.41
599.941	13.3
600.277	13.3
600.614	13.59
600.95	13.64
601.287	13.57
601.623	13.66
601.959	13.74
602.296	13.82
602.632	13.79
602.968	13.56
603.304	14.15
603.64	13.88
603.976	13.92
604.312	14.27
604.648	14.14
604.984	13.9
605.319	14.01
605.655	14.2
605.991	14.07
606.326	13.95
606.662	13.78
606.998	13.89
607.333	13.9
607.668	13.83
608.004	14.13
608.339	14.07
608.674	14.41
609.01	14.56
609.345	14.76
609.68	14.42
610.015	14.22
610.35	14.54
610.685	14.67
611.02	14.67
611.355	14.41
611.689	14.31
612.024	14.7
612.359	14.56
612.694	14.59
613.028	14.64
613.363	14.8
613.697	14.61
614.032	14.73
614.366	14.79
614.7	14.69
615.035	14.84
615.369	15.04
615.703	14.71
616.037	15.16
616.371	15.09
616.705	15.14
617.039	15.37
617.373	15.33
617.707	15.76
618.041	15.25
618.375	15.1
618.709	15.47
619.042	15.53
619.376	15.88
619.71	15.69
620.043	15.43
620.377	15.38
620.71	15.64
621.043	15.63
621.377	15.6
621.71	15.47
622.043	15.58
622.376	15.62
622.709	15.71
623.043	15.97
623.376	15.65
623.709	15.69
624.041	15.9
624.374	16.06
624.707	15.75
625.04	15.87
625.373	16.26
625.705	15.86
626.038	16.17
626.37	15.84
626.703	16.3
627.035	16.15
627.368	16.27
627.7	16.39
628.032	16.17
628.365	16.37
628.697	16.37
629.029	16.39
629.361	16.21
629.693	16.28
630.025	16.25
630.357	16.5
630.689	16.61
631.021	16.65
631.353	16.43
631.684	16.38
632.016	17.03
632.348	16.85
632.679	16.74
633.011	16.69
633.342	16.49
633.674	16.64
634.005	16.75
634.336	17.21
634.668	16.65
634.999	16.98
635.33	16.76
635.661	17.18
635.992	17.01
636.323	17.5
636.654	17.43
636.985	17.02
637.316	17.34
637.647	16.94
637.977	16.72
638.308	17.34
638.639	17.34
638.969	17.46
639.3	17.21
639.63	17.5
639.961	17.72
640.291	17.76
640.622	17.8
640.952	17.91
641.282	17.44
641.612	17.52
641.943	17.44
642.273	17.33
642.603	17.84
642.933	17.64
643.263	17.93
643.592	18.04
643.922	18.22
644.252	17.87
644.582	17.93
644.911	18.03
645.241	18.53
645.571	18.26
645.9	17.79
646.23	18.06
646.559	17.82
646.888	18.15
647.218	18.63
647.547	17.72
647.876	18.04
648.205	18.49
648.534	18.17
648.863	18.44
649.192	17.92
649.521	18.15
649.85	18.31
650.179	18.37
650.508	18.65
650.837	18.56
651.165	18.77
651.494	18.41
651.822	18.38
652.151	18.5
652.479	18.03
652.808	19.07
653.136	18.67
653.465	18.87
653.793	19.21
654.121	18.74
654.449	18.67
654.777	18.75
655.105	18.87
655.433	19.2
655.761	19.38
656.089	19.24
656.417	19.04
656.745	19.3
657.073	18.88
657.4	19.75
657.728	19.67
658.056	19.07
658.383	19.17
658.711	19.36
659.038	19.22
659.365	19.65
659.693	19.5
660.02	19.62
660.347	19.56
660.674	19.4
661.001	19.04
661.329	19.55
661.656	19.81
661.982	19.11
662.309	19.75
662.636	19.94
662.963	19.61
663.29	19.77
663.616	20.04
663.943	19.55
664.27	19.49
664.596	19.84
664.923	19.74
665.249	19.5
665.576	19.58
665.902	19.84
666.228	20.46
666.554	20.16
666.881	19.98
667.207	19.92
667.533	19.94
667.859	20.41
668.185	19.96
668.511	20.7
668.837	20.1
669.162	20.65
669.488	20.29
669.814	19.42
670.139	20.58
670.465	20.84
670.791	20.82
671.116	20.48
671.442	20.2
671.767	20.04
672.092	20.37
672.418	20.55
672.743	20.28
673.068	21.1
673.393	20.79
673.718	20.9
674.043	20.72
674.368	21.24
674.693	21.09
675.018	21.37
675.343	21.07
675.667	20.32
675.992	21.88
676.317	21.65
676.641	21.03
676.966	21.72
677.29	21.01
677.615	21.32
677.939	20.87
678.264	20.95
678.588	20.92
678.912	20.78
679.236	21.41
679.56	21.16
679.885	21.38
680.209	21.44
680.532	21.21
680.856	21.46
681.18	21.9
681.504	21.62
681.828	21.47
682.152	21.97
682.475	21.59
682.799	21.5
683.122	21.87
683.446	21.85
683.769	21.95
684.093	21.36
684.416	21.51
684.739	22.04
685.062	21.62
685.386	22.27
685.709	22.23
686.032	21.97
686.355	22.55
686.678	22.46
687.001	22.48
687.324	22.22
687.646	22.75
687.969	22.67
688.292	22.77
688.614	22.41
688.937	21.66
689.26	22.95
689.582	22.82
689.904	21.54
690.227	22.7
690.549	22.79
690.871	22.7
691.194	23.41
691.516	22.43
691.838	22.93
692.16	22.71
692.482	22.78
692.804	23.14
693.126	22.32
693.448	23.82
693.769	23.57
694.091	22.45
694.413	22.22
694.735	22.98
695.056	22.86
695.378	23.26
695.699	23.33
696.021	22.73
696.342	23.26
696.663	23.63
696.984	22.65
697.306	22.97
697.627	22.96
697.948	23.32
698.269	22.61
698.59	22.94
698.911	23.43
699.232	22.98
699.553	23.94
699.873	23.2
700.194	23.88
700.515	23.18
700.835	23.65
701.156	23.53
701.477	23.78
701.797	23.23
702.117	23.6
702.438	23.89
702.758	23.5
703.078	24.18
703.398	23.54
703.719	23.66
704.039	23.9
704.359	23.51
704.679	23.98
704.999	24.07
705.319	24.17
705.638	23.49
705.958	23.81
706.278	24.25
706.597	24.46
706.917	24.27
707.237	24.74
707.556	22.62
707.876	23.99
708.195	25.47
708.514	23.78
708.834	25.07
709.153	23.86
709.472	24.4
709.791	25.59
710.11	24.74
710.429	24.83
710.748	24.75
711.067	24.87
711.386	24.74
711.705	24.92
712.023	25.22
712.342	24.36
712.661	24.45
712.979	24.48
713.298	24.68
713.616	24.71
713.935	24.96
714.253	24.95
714.572	26.21
714.89	24.99
715.208	24.7
715.526	25.75
715.844	25.85
716.162	25.72
716.48	26.19
716.798	24.98
717.116	24.49
717.434	25.13
717.752	25.65
718.069	25.51
718.387	25.81
718.705	24.94
719.022	25.71
719.34	25.67
719.657	25.57
719.975	25.53
720.292	24.29
720.609	25.26
720.927	25.85
721.244	26.55
721.561	26.84
721.878	26.03
722.195	26.29
722.512	27.09
722.829	26.74
723.146	26.78
723.463	25.93
723.779	26.63
724.096	25.81
724.413	25.56
724.729	27.92
725.046	27.39
725.362	27.05
725.679	26.46
725.995	28.15
726.311	28.26
726.628	26.43
726.944	25.94
727.26	25.98
727.576	26.61
727.892	26.48
728.208	27.38
728.524	27.05
728.84	25.1
729.156	28.07
729.472	26.32
729.787	25.79
730.103	26.62
730.419	26.63
730.734	26.52
731.05	25.88
731.365	26.16
731.681	26.85
731.996	27.41
732.311	27.52
732.626	26.85
732.942	25.26
733.257	27.06
733.572	27.33
733.887	26.85
734.202	26.92
734.517	27.09
734.832	28.23
735.146	28.13
735.461	28.42
735.776	26.96
736.091	27.54
736.405	27.41
736.72	27.56
737.034	28.02
737.349	28.16
737.663	27.7
737.977	28.86
738.292	28.13
738.606	27.3
738.92	28.18
739.234	27.73
739.548	29.02
739.862	28.41
740.176	28.29
740.49	28.4
740.804	28.91
741.117	27.96
741.431	27.21
741.745	27.71
742.058	28.59
742.372	28.5
742.685	26.91
742.999	27.11
743.312	28.16
743.626	27.93
743.939	29.84
744.252	27.83
744.565	29.78
744.878	28.9
745.191	30.03
745.505	27.26
745.817	29.99
746.13	27.3
746.443	29.88
746.756	27.62
747.069	27.36
747.381	28.21
747.694	26.72
748.007	27.28
748.319	29.14
748.632	27.83
748.944	28.94
749.256	29.88
749.569	27.11
749.881	29.93
750.193	26.49
750.505	27.91
750.817	28.97
751.129	29.54
751.441	28.47
751.753	28.64
752.065	30.43
752.377	29.06
752.689	29.51
753	29.58
753.312	28.02
753.624	26.34
753.935	30.7
754.247	29.39
754.558	30.53
754.869	30.02
755.181	28.03
755.492	28.69
755.803	29.11
756.114	29.04
756.425	29.22
756.736	30.23
757.047	28.68
757.358	30.56
757.669	29.41
757.98	28.26
758.291	29.98
758.601	29.74
758.912	29.49
759.223	26.76
759.533	29.76
759.844	31.46
760.154	30.68
760.464	29.76
760.775	31.15
761.085	30.48
761.395	30.83
761.705	30.31
762.016	31.97
762.326	30.91
762.636	30.68
762.945	28.69
763.255	31.36
763.565	29.44
763.875	29.83
764.185	31.39
764.494	30.26
764.804	31.3
765.113	31.18
765.423	29.14
765.732	29.68
766.042	30.99
766.351	31.12
766.66	29.85
766.97	31.12
767.279	29.66
767.588	29.13
767.897	29.88
768.206	30.43
768.515	31.8
768.824	28.91
769.133	29.53
769.441	28.6
769.75	31.65
770.059	31.49
770.367	33.31
770.676	32.95
770.984	28.61
771.293	30.76
771.601	31.15
771.91	29.53
772.218	30.47
772.526	32.3
772.834	30.85
773.142	30.1
773.45	26.7
773.758	30.25
774.066	32.66
774.374	29.27
774.682	34.58
774.99	29.39
775.298	29.76
775.605	33
775.913	33.65
776.22	29.83
776.528	32.76
776.835	32.66
777.143	30.07
777.45	32.98
777.757	31.04
778.065	33.95
778.372	33.94
778.679	33.23
778.986	30.97
779.293	33.21
779.6	32.35
779.907	32.07
780.214	32.29
780.52	34
780.827	30.25
781.134	29.33
781.44	32.43
781.747	32.75
782.053	35.52
782.36	33.02
782.666	30.75
782.973	30.39
783.279	30.56
783.585	32.99
783.891	32.98
784.197	30.34
784.503	31.58
784.809	32.06
785.115	31.48
785.421	31.15
785.727	34.36
786.033	36.45
786.339	32.76
786.644	29.95
786.95	34.06
787.255	34.76
787.561	32.85
787.866	32.22
788.172	35
788.477	30.94
788.782	30.52
789.088	37.36
789.393	29.98
789.698	30.73
790.003	28.83
790.308	34.63
790.613	29.34
790.918	32.64
791.223	31.82
791.527	33.27
791.832	36.68
792.137	34.98
792.441	30.11
792.746	34.04
793.05	33.36
793.355	33.76
793.659	36.3
793.963	35.61
794.268	30.99
794.572	33.02
794.876	32.7
795.18	32.2
795.484	32.92
795.788	35
796.092	32.94
796.396	28.68
796.7	33.84
797.004	34.33
797.307	33.91
797.611	34.45
797.915	32.42
798.218	35.77
798.522	34.98
798.825	36.7
799.128	33.54
799.432	31.46
799.735	37.14
800.038	34.79
800.341	31.71
800.644	37.58
800.947	34.25
801.25	31.29
801.553	32.64
801.856	33.57
802.159	28.49
802.462	35.7
802.764	33.99
803.067	36.47
803.37	35.36
803.672	32.28
803.975	36.07
804.277	35.27
804.579	34.34
804.882	35.72
805.184	35.37
805.486	37.03
805.788	36.79
806.09	32.12
806.392	36.04
806.694	36.83
806.996	30.87
807.298	37.15
807.6	35.65
807.902	34.1
808.203	37.93
808.505	38.01
808.807	34
809.108	31.46
809.409	37.77
809.711	29.92
810.012	34.48
810.313	32.71
810.615	31.73
810.916	35.61
811.217	33.84
811.518	36.5
811.819	33.16
812.12	36.62
812.421	28.61
812.722	38
813.023	34.39
813.323	33.89
813.624	32.12
813.925	42.48
814.225	31.88
814.526	41.3
814.826	39.23
815.126	37.56
815.427	30.5
815.727	41.56
816.027	29.06
816.327	35.61
816.627	39.5
816.927	32.24
817.227	31.09
817.527	36.54
817.827	38.24
818.127	30.48
818.427	39.23
818.727	35.02
819.026	31.09
819.326	34.06
819.625	37.5
819.925	36.55
820.224	43.34
820.524	32.1
820.823	29.58
821.122	32.7
821.421	35.31
821.72	39.68
822.019	34.39
822.318	36.63
822.617	35.58
822.916	38.42
823.215	38.08
823.514	39.01
823.813	39.88
824.111	39.11
824.41	36.36
824.709	37.94
825.007	37.64
825.306	37.32
825.604	37.27
825.902	36.47
826.201	37.39
826.499	36.82
826.797	35.91
827.095	37.25
827.393	35.17
827.691	37.39
827.989	36.26
828.287	35.26
828.585	36.7
828.882	37.18
829.18	35.66
829.478	38.49
829.775	38.15
830.073	38.66
830.37	37.11
830.668	37.24
830.965	36.12
831.263	35.78
831.56	38.59
831.857	35.92
832.154	39.09
832.451	35.85
832.748	37.43
833.045	36.26
833.342	39.79
833.639	33.94
833.936	38.05
834.232	38.43
834.529	39
834.826	38.06
835.122	38.36
835.419	38
835.715	37.88
836.012	33.48
836.308	38.46
836.604	36.29
836.901	43.34
837.197	38
837.493	39.71
837.789	38.73
838.085	37.22
838.381	40.04
838.677	38.14
838.972	43.6
839.268	38.49
839.564	37.38
839.86	37.02
840.155	37.34
840.451	41.36
840.746	36.28
841.042	49.24
841.337	36
841.632	42.93
841.928	45.59
842.223	42.77
842.518	27.73
842.813	41.16
843.108	26.56
843.403	39.96
843.698	38.5
843.993	36.81
844.287	36.87
844.582	41.02
844.877	48.23
845.171	41.57
845.466	35.33
845.761	46.63
846.055	46.43
846.349	47.32
846.644	41.67
846.938	43.45
847.232	37.35
847.526	39.81
847.82	21.11
848.114	43.68
848.408	49.09
848.702	31.55
848.996	62.93
849.29	35.28
849.584	27.36
849.877	41.66
850.171	34.01
850.465	42.69
850.758	46.12
851.052	37.33
851.345	54.32
851.638	39.2
851.932	50.35
852.225	49.21
852.518	50.49
852.811	31
853.104	34.29
853.397	46.9
853.69	48.67
853.983	40.1
854.276	28.39
854.569	43.42
854.861	29.36
855.154	50.97
855.447	34.97
855.739	51.4
856.032	40.2
856.324	39.49
856.616	37.27
856.909	32.93
857.201	28.48
857.493	28.96
857.785	41.47
858.077	64.67
858.369	49.35
858.661	57.16
858.953	49.16
859.245	49.75
859.537	25.7
859.829	36.14
860.12	50.1
860.412	50.51
860.703	60.49
860.995	44.26
861.286	33.48
861.578	33.01
861.869	37.35
862.16	57.12
862.452	35.04
862.743	26.18
863.034	34.98
863.325	49
863.616	25.45
863.907	34.33
864.198	36.78
864.488	69.63
864.779	35.71
865.07	49.93
865.36	44.03
865.651	39.95
865.941	37.02
866.232	48.97
866.522	51.78
866.813	37.32
867.103	36.39
867.393	41.87
867.683	43.79
867.973	38.6
868.263	51.9
868.553	22.08
868.843	59.08
869.133	59.5
869.423	43.45
869.713	43.62
870.002	52.26
870.292	59.04
870.582	45.49
870.871	39.67
871.161	35.52
871.45	48.08
871.739	25.98
872.029	52.51
872.318	58.19
872.607	50.68
872.896	70.45
873.185	56.03
873.474	31.91
873.763	66.81
874.052	44.88
874.341	42.46
874.63	46.65
874.918	27.17
875.207	52.74
875.496	54.68
875.784	26.56
876.073	49.1
876.361	40.14
876.649	13.21
876.938	38.77
877.226	40.68
877.514	28.54
877.802	40.3
878.09	36.09
878.378	68.35
878.666	26.83
878.954	42.56
879.242	61.68
879.53	49.2
879.817	31.79
880.105	34.8
880.392	49.02
880.68	20.38
880.967	60.96
881.255	51.29
881.542	52.73
881.83	42.39
882.117	60.33
882.404	47.57
882.691	55.16
882.978	74.78
883.265	34.42
883.552	57.85
883.839	29.22
884.126	55.03
884.413	50.28
884.699	44.57
884.986	51.9
885.273	49.37
885.559	49.37
885.846	49.37
