Data from 0223_chest_Reflection__2__49.txt Node

Date: Fri Oct 20 21:03:54 CDT 2023
User: ToomeyLab
Spectrometer: FLMS14357
Trigger mode: 0
Integration Time (sec): 1.000000E-2
Scans to average: 100
Electric dark correction enabled: true
Nonlinearity correction enabled: false
Boxcar width: 0
XAxis mode: Wavelengths
Number of Pixels in Spectrum: 2048
>>>>>Begin Spectral Data<<<<<
189.047	-393.36
189.435	-393.36
189.823	-393.36
190.211	31.67
190.599	-506.16
190.987	170.65
191.375	142.22
191.763	-586.23
192.151	1756.14
192.538	-24.87
192.926	15.02
193.314	103.84
193.702	105.34
194.089	56.61
194.477	-926.33
194.864	9.36
195.252	37.54
195.639	212.18
196.027	715.09
196.414	-26.66
196.801	320.32
197.189	60.72
197.576	364.43
197.963	-1.44
198.351	41.8
198.738	35.46
199.125	58.65
199.512	15.6
199.899	34.74
200.286	-50.66
200.673	25.81
201.06	52.05
201.447	-25.43
201.833	28.29
202.22	47.67
202.607	44.48
202.994	19.31
203.38	14.37
203.767	27.11
204.154	40.83
204.54	52.21
204.927	8.17
205.313	23.2
205.699	38.26
206.086	56.89
206.472	55.08
206.858	54.74
207.245	9.84
207.631	43.93
208.017	58.11
208.403	33.25
208.789	78.23
209.175	15.24
209.561	32.03
209.947	35.08
210.333	42.93
210.719	22.38
211.105	18.6
211.491	11.89
211.876	0.85
212.262	27.49
212.648	50.46
213.034	14.67
213.419	12.11
213.805	15.96
214.19	13.7
214.576	6.35
214.961	32.39
215.346	25.12
215.732	51.08
216.117	-8.45
216.502	42.82
216.888	18.3
217.273	17.48
217.658	21.72
218.043	20.19
218.428	-5.26
218.813	16.71
219.198	4.7
219.583	18.36
219.968	-1.05
220.353	36.66
220.738	27.34
221.122	6.68
221.507	3.52
221.892	17.17
222.276	9.32
222.661	36.48
223.046	15.75
223.43	14.87
223.815	11.35
224.199	19.59
224.583	-1.02
224.968	5.29
225.352	4.76
225.736	12.1
226.121	7.43
226.505	-2.66
226.889	9.02
227.273	8.03
227.657	6.54
228.041	9.15
228.425	5.69
228.809	4.37
229.193	3.52
229.577	6.89
229.961	1.59
230.344	3.44
230.728	1.86
231.112	3.19
231.495	2.42
231.879	2.59
232.263	3.98
232.646	1.23
233.03	2.86
233.413	0.89
233.797	2.92
234.18	3.73
234.563	6.32
234.946	6.02
235.33	3.35
235.713	3.21
236.096	3.7
236.479	3.49
236.862	2.52
237.245	3.04
237.628	2.99
238.011	4.43
238.394	3.47
238.777	4.57
239.16	3.88
239.543	5.97
239.925	4.91
240.308	3.82
240.691	1.2
241.073	3.75
241.456	3.26
241.838	1.91
242.221	3.61
242.603	2.87
242.986	2.71
243.368	3.98
243.75	2.53
244.133	2.08
244.515	2.12
244.897	2.27
245.279	2.76
245.661	1.92
246.043	2.42
246.425	2.38
246.807	1.42
247.189	2.18
247.571	2.23
247.953	2.93
248.335	2.84
248.717	2.07
249.098	2.03
249.48	2.01
249.862	2.33
250.243	2.37
250.625	2.39
251.006	2.6
251.388	2.61
251.769	2.77
252.151	2.92
252.532	3.06
252.913	3.27
253.295	1.63
253.676	2.21
254.057	2.89
254.438	2.51
254.819	2.42
255.2	2.58
255.581	2.32
255.962	2.25
256.343	3.3
256.724	2.2
257.105	2.57
257.486	2.93
257.867	2.85
258.247	3.55
258.628	2.66
259.009	1.97
259.389	2.81
259.77	1.93
260.15	2.71
260.531	2.47
260.911	2.67
261.292	2.13
261.672	2.42
262.052	2.4
262.432	2.23
262.813	2.2
263.193	2.38
263.573	2.95
263.953	2.63
264.333	2.52
264.713	3.1
265.093	2.71
265.473	2.65
265.853	2.07
266.233	2.53
266.612	2.49
266.992	3.17
267.372	2.76
267.752	1.93
268.131	2.58
268.511	2.24
268.89	2.55
269.27	1.83
269.649	1.35
270.029	2.52
270.408	2.33
270.787	2.78
271.167	1.98
271.546	2.54
271.925	3.34
272.304	2.41
272.683	2.54
273.062	2.16
273.441	2.65
273.82	2.33
274.199	2.47
274.578	2.38
274.957	2.69
275.336	2.47
275.715	2.4
276.093	2.25
276.472	2.64
276.851	2.62
277.229	2.28
277.608	1.71
277.986	2.51
278.365	2.99
278.743	2.36
279.122	2.41
279.5	2.51
279.878	1.52
280.257	2.42
280.635	2.49
281.013	3.03
281.391	2.96
281.769	2.2
282.147	1.76
282.525	1.99
282.903	2.5
283.281	3.03
283.659	2.33
284.037	2.59
284.415	1.46
284.792	2.28
285.17	2.2
285.548	2.05
285.925	2.08
286.303	1.88
286.68	1.58
287.058	2.85
287.435	2.74
287.813	1.81
288.19	2.5
288.567	2.04
288.945	2.12
289.322	2.43
289.699	1.71
290.076	2.68
290.453	2.19
290.83	1.93
291.207	2.52
291.584	2.15
291.961	2.44
292.338	1.96
292.715	2.22
293.092	2.08
293.469	2.66
293.845	2.44
294.222	2.4
294.599	1.82
294.975	3.22
295.352	2.54
295.728	2.09
296.105	1.9
296.481	2.22
296.858	2.45
297.234	2.37
297.61	2.06
297.986	1.92
298.363	2.22
298.739	2.33
299.115	2.06
299.491	2.1
299.867	2.2
300.243	2.31
300.619	2.4
300.995	2.11
301.371	2.87
301.746	2.36
302.122	2.42
302.498	2.26
302.874	2.16
303.249	1.95
303.625	2.61
304	2.91
304.376	2.09
304.751	2.13
305.127	2.09
305.502	3.16
305.878	2.6
306.253	2.6
306.628	2.72
307.003	2.68
307.378	2.57
307.754	2.25
308.129	3.32
308.504	2.92
308.879	2.59
309.254	2.71
309.629	2.36
310.003	2.47
310.378	2.66
310.753	2.63
311.128	3.11
311.502	2.38
311.877	2.66
312.252	2.29
312.626	3
313.001	2.56
313.375	2.41
313.75	2.69
314.124	2.53
314.498	2.6
314.873	2.33
315.247	2.44
315.621	2.33
315.995	2.63
316.369	2.25
316.743	2.67
317.117	2.46
317.491	1.88
317.865	2.69
318.239	3.22
318.613	2.93
318.987	2.38
319.361	2.15
319.734	2.46
320.108	2.11
320.482	3.16
320.855	2.55
321.229	2.97
321.602	2.52
321.976	2.62
322.349	2.91
322.723	2.36
323.096	2.66
323.469	2.56
323.843	2.65
324.216	2.39
324.589	2.46
324.962	2.61
325.335	2.71
325.708	2.33
326.081	2.73
326.454	2.5
326.827	2.39
327.2	2.78
327.573	2.65
327.945	2.5
328.318	2.5
328.691	2.33
329.063	2.97
329.436	2.52
329.809	3
330.181	2.58
330.553	2.49
330.926	2.74
331.298	2.3
331.671	2.49
332.043	2.71
332.415	2.72
332.787	2.88
333.159	2.27
333.532	2.66
333.904	2.73
334.276	2.65
334.648	2.66
335.02	2.94
335.391	2.33
335.763	2.94
336.135	2.72
336.507	2.76
336.879	2.07
337.25	2.23
337.622	2.86
337.993	2.65
338.365	2.52
338.736	2.86
339.108	2.99
339.479	2.21
339.851	2.84
340.222	2.63
340.593	2.58
340.964	2.61
341.336	2.66
341.707	2.57
342.078	2.58
342.449	2.02
342.82	2.91
343.191	2.64
343.562	2.69
343.933	2.3
344.303	3
344.674	3.36
345.045	2.99
345.416	2.97
345.786	2.64
346.157	2.7
346.527	2.62
346.898	2.61
347.268	2.69
347.639	2.85
348.009	2.34
348.38	2.93
348.75	2.76
349.12	2.62
349.49	2.74
349.861	2.9
350.231	2.39
350.601	2.65
350.971	3.14
351.341	2.92
351.711	3.41
352.081	2.76
352.45	2.47
352.82	2.65
353.19	2.78
353.56	3.09
353.929	3.04
354.299	2.57
354.669	2.68
355.038	2.72
355.408	2.91
355.777	3.09
356.147	2.6
356.516	2.6
356.885	2.87
357.254	2.92
357.624	2.44
357.993	2.49
358.362	2.85
358.731	2.35
359.1	2.39
359.469	2.36
359.838	2.52
360.207	2.93
360.576	2.84
360.945	2.63
361.314	2.48
361.682	2.79
362.051	2.38
362.42	2.46
362.788	2.73
363.157	2.88
363.525	2.24
363.894	2.54
364.262	2.64
364.631	2.59
364.999	2.67
365.367	2.71
365.735	2.47
366.104	2.69
366.472	2.7
366.84	2.81
367.208	2.41
367.576	2.68
367.944	2.69
368.312	2.9
368.68	2.8
369.048	2.62
369.416	2.92
369.783	2.75
370.151	2.41
370.519	2.5
370.886	2.64
371.254	3.05
371.621	3.07
371.989	2.56
372.356	3.1
372.724	2.48
373.091	2.79
373.458	2.4
373.826	2.76
374.193	2.59
374.56	2.72
374.927	2.73
375.294	2.97
375.661	2.87
376.028	3.21
376.395	2.86
376.762	2.49
377.129	2.55
377.496	2.76
377.863	3.2
378.229	3.07
378.596	2.97
378.963	2.76
379.329	3.14
379.696	2.98
380.062	2.95
380.429	2.5
380.795	2.73
381.161	2.58
381.528	3
381.894	2.87
382.26	2.73
382.626	2.99
382.993	2.99
383.359	2.76
383.725	3
384.091	2.76
384.457	2.92
384.823	3.12
385.188	3.11
385.554	2.55
385.92	2.76
386.286	2.94
386.651	2.54
387.017	2.83
387.383	2.67
387.748	2.49
388.114	2.59
388.479	2.71
388.845	3.07
389.21	2.57
389.575	2.37
389.94	2.85
390.306	2.98
390.671	2.45
391.036	2.75
391.401	3.04
391.766	2.75
392.131	2.95
392.496	2.7
392.861	2.83
393.226	3.1
393.591	2.77
393.956	2.96
394.32	3.05
394.685	2.78
395.05	2.88
395.414	2.94
395.779	2.6
396.143	2.53
396.508	2.78
396.872	3.11
397.236	2.67
397.601	2.57
397.965	2.83
398.329	2.67
398.694	3.05
399.058	2.62
399.422	2.79
399.786	2.94
400.15	2.75
400.514	2.78
400.878	3.08
401.242	3.11
401.605	2.85
401.969	2.72
402.333	2.74
402.697	2.92
403.06	2.78
403.424	2.97
403.787	2.88
404.151	2.98
404.514	2.98
404.878	2.74
405.241	2.82
405.604	2.66
405.968	2.83
406.331	2.79
406.694	2.73
407.057	2.77
407.42	3.11
407.783	2.94
408.146	2.89
408.509	2.87
408.872	3
409.235	2.88
409.598	3.06
409.961	2.86
410.323	2.94
410.686	2.7
411.049	3.05
411.411	2.74
411.774	3.1
412.136	2.91
412.499	2.85
412.861	3.07
413.223	2.92
413.586	2.87
413.948	2.97
414.31	2.88
414.672	2.92
415.035	2.87
415.397	3.11
415.759	3.29
416.121	2.89
416.483	3.36
416.845	2.91
417.206	3.02
417.568	2.98
417.93	3.04
418.292	2.71
418.653	3.07
419.015	2.89
419.377	2.85
419.738	2.8
420.1	2.76
420.461	2.75
420.822	2.84
421.184	2.74
421.545	2.86
421.906	2.77
422.267	2.74
422.629	2.87
422.99	2.78
423.351	2.84
423.712	2.84
424.073	2.82
424.434	2.75
424.795	2.81
425.155	2.81
425.516	2.92
425.877	2.91
426.238	2.74
426.598	2.79
426.959	2.84
427.32	2.89
427.68	2.98
428.041	2.82
428.401	2.86
428.761	2.88
429.122	2.84
429.482	2.85
429.842	2.92
430.202	3.1
430.563	2.91
430.923	2.89
431.283	2.9
431.643	2.98
432.003	3.25
432.363	2.86
432.722	3.08
433.082	3.05
433.442	2.95
433.802	3.22
434.161	2.91
434.521	3.02
434.881	3
435.24	3.01
435.6	2.85
435.959	2.96
436.319	2.88
436.678	3.06
437.037	2.98
437.396	3.07
437.756	3.06
438.115	2.95
438.474	3.07
438.833	3.2
439.192	2.96
439.551	2.91
439.91	2.96
440.269	3.03
440.628	3.17
440.987	2.98
441.345	3.01
441.704	2.9
442.063	2.93
442.421	2.97
442.78	2.86
443.138	3.06
443.497	2.98
443.855	3
444.214	3.05
444.572	2.99
444.93	3.07
445.288	3.15
445.647	3.28
446.005	2.87
446.363	3.01
446.721	2.96
447.079	3.04
447.437	3
447.795	2.95
448.153	2.87
448.51	2.96
448.868	2.97
449.226	2.95
449.584	2.96
449.941	2.9
450.299	3.03
450.656	3.02
451.014	3.19
451.371	3.07
451.729	3.04
452.086	3.14
452.443	3.13
452.801	2.98
453.158	3.18
453.515	3.04
453.872	3.07
454.229	3.28
454.586	3.15
454.943	3.17
455.3	2.94
455.657	3.17
456.014	3
456.371	3.15
456.727	3.12
457.084	3.11
457.441	3.1
457.797	3.15
458.154	3.06
458.51	3.21
458.867	3.08
459.223	3.15
459.58	3.15
459.936	3.14
460.292	3.06
460.648	2.99
461.005	3.07
461.361	3.11
461.717	2.9
462.073	3.1
462.429	3.07
462.785	3.08
463.141	3.23
463.496	3.15
463.852	3.16
464.208	3.36
464.564	3.18
464.919	3.18
465.275	3.31
465.631	3.28
465.986	3.23
466.342	3.41
466.697	3.25
467.052	3.23
467.408	3.36
467.763	3.23
468.118	3.47
468.473	3.37
468.829	3.23
469.184	3.28
469.539	3.32
469.894	3.22
470.249	3.27
470.603	3.22
470.958	3.33
471.313	3.28
471.668	3.2
472.023	3.33
472.377	3.3
472.732	3.23
473.086	3.35
473.441	3.34
473.795	3.42
474.15	3.22
474.504	3.3
474.859	3.33
475.213	3.37
475.567	3.33
475.921	3.34
476.275	3.17
476.63	3.5
476.984	3.49
477.338	3.42
477.692	3.3
478.045	3.33
478.399	3.25
478.753	3.28
479.107	3.25
479.461	3.34
479.814	3.5
480.168	3.44
480.521	3.31
480.875	3.47
481.228	3.26
481.582	3.44
481.935	3.41
482.289	3.35
482.642	3.33
482.995	3.26
483.348	3.38
483.701	3.24
484.055	3.33
484.408	3.21
484.761	3.23
485.114	3.11
485.466	3.14
485.819	3.1
486.172	3.03
486.525	3.08
486.878	3.09
487.23	3.14
487.583	3.18
487.936	3.2
488.288	3.21
488.641	3.27
488.993	3.22
489.345	3.2
489.698	3.16
490.05	3.15
490.402	3.13
490.754	3.2
491.107	3.22
491.459	3.26
491.811	3.28
492.163	3.28
492.515	3.36
492.866	3.34
493.218	3.29
493.57	3.22
493.922	3.16
494.274	3.24
494.625	3.22
494.977	3.3
495.328	3.37
495.68	3.49
496.031	3.4
496.383	3.53
496.734	3.49
497.086	3.56
497.437	3.49
497.788	3.43
498.139	3.61
498.49	3.49
498.842	3.32
499.193	3.4
499.544	3.44
499.894	3.55
500.245	3.43
500.596	3.57
500.947	3.56
501.298	3.45
501.648	3.53
501.999	3.49
502.35	3.48
502.7	3.61
503.051	3.43
503.401	3.58
503.752	3.65
504.102	3.54
504.452	3.55
504.803	3.39
505.153	3.7
505.503	3.5
505.853	3.64
506.203	3.57
506.553	3.56
506.903	3.43
507.253	3.65
507.603	3.66
507.953	3.64
508.303	3.5
508.652	3.64
509.002	3.67
509.352	3.72
509.701	3.75
510.051	3.5
510.4	3.55
510.75	3.58
511.099	3.53
511.449	3.62
511.798	3.75
512.147	3.62
512.496	3.63
512.846	3.66
513.195	3.71
513.544	3.75
513.893	3.62
514.242	3.53
514.591	3.69
514.939	3.58
515.288	3.67
515.637	3.63
515.986	3.67
516.334	3.68
516.683	3.65
517.032	3.68
517.38	3.65
517.729	3.82
518.077	3.7
518.426	3.7
518.774	3.68
519.122	3.74
519.47	3.79
519.819	3.69
520.167	3.63
520.515	3.6
520.863	3.69
521.211	3.71
521.559	3.79
521.907	3.72
522.255	3.74
522.602	3.92
522.95	3.86
523.298	3.75
523.645	3.81
523.993	3.78
524.341	3.86
524.688	3.91
525.036	3.83
525.383	3.74
525.73	3.98
526.078	3.89
526.425	3.9
526.772	3.84
527.119	3.89
527.466	3.86
527.814	3.89
528.161	3.87
528.508	3.78
528.854	3.74
529.201	3.81
529.548	3.82
529.895	3.87
530.242	3.76
530.588	3.7
530.935	3.71
531.282	3.79
531.628	3.8
531.975	3.73
532.321	3.84
532.667	3.82
533.014	3.95
533.36	3.96
533.706	3.89
534.052	3.98
534.399	3.9
534.745	3.89
535.091	3.81
535.437	3.94
535.783	3.94
536.129	3.97
536.474	3.96
536.82	4.01
537.166	3.97
537.512	4.11
537.857	4.08
538.203	4.11
538.549	4.18
538.894	4.04
539.239	4.08
539.585	4.01
539.93	4.14
540.276	4.22
540.621	4.19
540.966	4.24
541.311	4.21
541.656	4.27
542.001	4.33
542.346	4.34
542.691	4.17
543.036	4.13
543.381	4.07
543.726	4.07
544.071	4.09
544.415	4.11
544.76	4.1
545.105	4.19
545.449	4.28
545.794	4.3
546.138	4.2
546.483	4.29
546.827	4.26
547.171	4.31
547.516	4.34
547.86	4.44
548.204	4.34
548.548	4.37
548.892	4.47
549.236	4.4
549.58	4.35
549.924	4.34
550.268	4.46
550.612	4.53
550.956	4.57
551.3	4.57
551.643	4.67
551.987	4.63
552.33	4.58
552.674	4.58
553.017	4.51
553.361	4.58
553.704	4.79
554.048	4.56
554.391	4.7
554.734	4.66
555.077	4.59
555.42	4.56
555.764	4.57
556.107	4.82
556.45	4.66
556.793	4.73
557.135	4.58
557.478	4.81
557.821	4.83
558.164	4.74
558.507	4.88
558.849	5.1
559.192	4.97
559.534	5.04
559.877	4.76
560.219	5.02
560.562	5.02
560.904	4.84
561.246	4.9
561.589	4.83
561.931	5.08
562.273	5.05
562.615	5.27
562.957	5.05
563.299	5.05
563.641	5.04
563.983	4.97
564.325	4.98
564.667	4.96
565.008	4.98
565.35	4.96
565.692	5.08
566.033	5.17
566.375	5.19
566.716	5.19
567.058	5.22
567.399	5.26
567.741	5.13
568.082	5.2
568.423	5.04
568.764	5.01
569.105	5.28
569.447	5.02
569.788	5.19
570.129	5.11
570.47	5.37
570.811	5.36
571.151	5.38
571.492	5.41
571.833	5.4
572.174	5.43
572.514	5.4
572.855	5.34
573.195	5.48
573.536	5.38
573.876	5.5
574.217	5.54
574.557	5.32
574.898	5.23
575.238	5.31
575.578	5.59
575.918	5.39
576.258	5.55
576.598	5.51
576.938	5.62
577.278	5.58
577.618	5.44
577.958	5.47
578.298	5.55
578.638	5.74
578.977	5.71
579.317	5.67
579.657	5.61
579.996	5.8
580.336	5.89
580.675	5.7
581.014	5.74
581.354	5.5
581.693	5.9
582.032	6.05
582.372	5.96
582.711	5.9
583.05	6.14
583.389	6.06
583.728	5.83
584.067	5.73
584.406	5.75
584.745	6.15
585.083	5.9
585.422	5.75
585.761	6.08
586.1	6.11
586.438	5.73
586.777	6.14
587.115	6.31
587.454	6.1
587.792	6.09
588.13	6.26
588.469	6.14
588.807	5.77
589.145	6.28
589.483	6.23
589.821	6.27
590.159	6.27
590.497	6.36
590.835	6.36
591.173	6.29
591.511	6.4
591.849	6.03
592.187	6.28
592.524	6.13
592.862	6.5
593.2	6.46
593.537	6.11
593.875	6.31
594.212	6.49
594.55	6.62
594.887	6.26
595.224	6.3
595.561	6.19
595.899	6.38
596.236	6.49
596.573	6.6
596.91	6.67
597.247	6.6
597.584	6.4
597.921	6.56
598.258	6.93
598.594	6.76
598.931	6.6
599.268	6.53
599.604	6.7
599.941	6.64
600.277	6.77
600.614	6.72
600.95	6.84
601.287	6.72
601.623	6.75
601.959	6.9
602.296	7.07
602.632	6.83
602.968	6.73
603.304	7.37
603.64	6.81
603.976	7.01
604.312	6.99
604.648	7.12
604.984	7.35
605.319	7.01
605.655	6.99
605.991	7.07
606.326	7.01
606.662	6.87
606.998	6.98
607.333	6.93
607.668	7.06
608.004	6.99
608.339	6.92
608.674	7.07
609.01	7.38
609.345	7.22
609.68	7.35
610.015	7.3
610.35	7.29
610.685	7.65
611.02	7.33
611.355	7.27
611.689	7.18
612.024	7.54
612.359	7.35
612.694	7.25
613.028	7.67
613.363	7.55
613.697	7.62
614.032	7.59
614.366	7.68
614.7	7.73
615.035	7.41
615.369	7.82
615.703	7.25
616.037	7.72
616.371	7.91
616.705	7.77
617.039	7.82
617.373	7.87
617.707	8.01
618.041	7.85
618.375	7.82
618.709	8.1
619.042	7.86
619.376	8.29
619.71	8.14
620.043	8.3
620.377	7.63
620.71	8.25
621.043	8.5
621.377	8.13
621.71	8.11
622.043	8.46
622.376	8.38
622.709	8.22
623.043	7.8
623.376	8.23
623.709	8.12
624.041	8.35
624.374	8.78
624.707	8.29
625.04	8.66
625.373	8.54
625.705	8.5
626.038	8.69
626.37	8.02
626.703	8.43
627.035	8.19
627.368	8.54
627.7	8.68
628.032	8.28
628.365	8.79
628.697	8.56
629.029	8.68
629.361	8.63
629.693	8.34
630.025	8.5
630.357	8.6
630.689	8.62
631.021	9.01
631.353	8.72
631.684	8.6
632.016	9.21
632.348	8.74
632.679	8.68
633.011	8.89
633.342	8.6
633.674	8.99
634.005	8.95
634.336	9.07
634.668	8.83
634.999	8.84
635.33	8.71
635.661	9.17
635.992	9.2
636.323	9.41
636.654	9.23
636.985	9.21
637.316	9.21
637.647	9.1
637.977	8.93
638.308	9.44
638.639	9.56
638.969	9.28
639.3	9.44
639.63	9.53
639.961	9.44
640.291	9.05
640.622	9.45
640.952	9.59
641.282	9.22
641.612	9.55
641.943	9.77
642.273	9.55
642.603	9.75
642.933	9.55
643.263	9.74
643.592	9.32
643.922	9.94
644.252	9.72
644.582	9.8
644.911	9.31
645.241	10.19
645.571	10.03
645.9	9.63
646.23	9.91
646.559	9.81
646.888	10.4
647.218	10.49
647.547	9.78
647.876	9.94
648.205	9.78
648.534	10.01
648.863	10.15
649.192	10.23
649.521	10.19
649.85	10.37
650.179	9.9
650.508	10.24
650.837	10.72
651.165	10.52
651.494	10.18
651.822	10.62
652.151	10.57
652.479	10.14
652.808	10.37
653.136	10.41
653.465	10.97
653.793	10.79
654.121	10.37
654.449	10.75
654.777	10.74
655.105	10.37
655.433	10.6
655.761	10.7
656.089	11.11
656.417	10.65
656.745	11.07
657.073	10.43
657.4	11.28
657.728	11.08
658.056	10.98
658.383	10.79
658.711	10.39
659.038	11.22
659.365	10.84
659.693	11.03
660.02	10.82
660.347	11.31
660.674	10.63
661.001	10.76
661.329	10.99
661.656	11.41
661.982	11.17
662.309	11.03
662.636	11.16
662.963	10.9
663.29	11.25
663.616	11.02
663.943	10.9
664.27	11.21
664.596	11.34
664.923	11.44
665.249	11.23
665.576	10.98
665.902	11.09
666.228	11.78
666.554	11.46
666.881	11.12
667.207	11.42
667.533	11.04
667.859	11.97
668.185	12.22
668.511	11.71
668.837	12.26
669.162	11.81
669.488	11.79
669.814	11.62
670.139	11.74
670.465	11.96
670.791	11.81
671.116	12.17
671.442	11.95
671.767	12.42
672.092	12.35
672.418	11.81
672.743	12.03
673.068	12.13
673.393	11.89
673.718	11.71
674.043	12.2
674.368	12.41
674.693	12.15
675.018	12.7
675.343	12.23
675.667	12.03
675.992	12.46
676.317	12.67
676.641	12.64
676.966	12.69
677.29	12.28
677.615	12.46
677.939	12.17
678.264	13.05
678.588	11.72
678.912	12.29
679.236	12.22
679.56	12.56
679.885	12.66
680.209	12.13
680.532	12.58
680.856	12.65
681.18	12.41
681.504	13.03
681.828	12.88
682.152	13.13
682.475	12.51
682.799	13.12
683.122	13.17
683.446	13.42
683.769	12.64
684.093	13.15
684.416	13.36
684.739	12.39
685.062	12.54
685.386	12.75
685.709	13.31
686.032	13.17
686.355	13.52
686.678	12.73
687.001	13.07
687.324	12.84
687.646	13.8
687.969	13.4
688.292	13.42
688.614	13.26
688.937	13.44
689.26	13.04
689.582	13.48
689.904	13.14
690.227	13.66
690.549	13.53
690.871	14.25
691.194	14.5
691.516	13.24
691.838	13.97
692.16	12.94
692.482	13.02
692.804	13.5
693.126	13.54
693.448	14.58
693.769	13.89
694.091	14.66
694.413	13.75
694.735	13.89
695.056	14.15
695.378	14.19
695.699	14.55
696.021	14.02
696.342	14.33
696.663	14.49
696.984	13.69
697.306	14.85
697.627	14.03
697.948	14.31
698.269	13.67
698.59	14.16
698.911	14.47
699.232	13.31
699.553	14.09
699.873	14.43
700.194	15.22
700.515	14.75
700.835	14.78
701.156	14.1
701.477	14.49
701.797	14.1
702.117	13.98
702.438	14.39
702.758	13.96
703.078	14.8
703.398	14.57
703.719	14.19
704.039	15.21
704.359	14.46
704.679	15.28
704.999	14.44
705.319	15.24
705.638	14.99
705.958	14.95
706.278	14.91
706.597	15.07
706.917	14.63
707.237	14.68
707.556	14.24
707.876	14.73
708.195	16.23
708.514	15.79
708.834	15.84
709.153	14.98
709.472	15.67
709.791	16.43
710.11	16.05
710.429	14.75
710.748	16.24
711.067	15.81
711.386	15.18
711.705	15.75
712.023	15.81
712.342	15.16
712.661	15.2
712.979	15.39
713.298	15.46
713.616	15.64
713.935	15.54
714.253	16.18
714.572	16.47
714.89	15.94
715.208	15.5
715.526	16.14
715.844	15.35
716.162	15.9
716.48	15.7
716.798	15.84
717.116	15.12
717.434	16.27
717.752	16.34
718.069	15.84
718.387	15.25
718.705	15.55
719.022	16.02
719.34	15.95
719.657	15.77
719.975	15.86
720.292	16
720.609	16.33
720.927	15.68
721.244	16.95
721.561	17.52
721.878	16.24
722.195	16.3
722.512	17.18
722.829	16.62
723.146	17.78
723.463	16.36
723.779	17.4
724.096	16.07
724.413	15.53
724.729	16.62
725.046	17.48
725.362	17.26
725.679	17.07
725.995	17.96
726.311	17.94
726.628	18.11
726.944	17.83
727.26	16.13
727.576	16.91
727.892	17.51
728.208	17.73
728.524	16.79
728.84	16.56
729.156	18
729.472	14.98
729.787	16.39
730.103	17.55
730.419	18.16
730.734	16.95
731.05	17.26
731.365	15.81
731.681	17.85
731.996	18.19
732.311	18.49
732.626	17.84
732.942	17.66
733.257	18.08
733.572	17.38
733.887	17.44
734.202	18.14
734.517	18.78
734.832	17.84
735.146	18.25
735.461	17.46
735.776	16.88
736.091	17.34
736.405	18.71
736.72	17.98
737.034	18.25
737.349	18.08
737.663	18.38
737.977	18.14
738.292	18.08
738.606	18.09
738.92	17.01
739.234	16.88
739.548	17.32
739.862	16.53
740.176	19.29
740.49	18.15
740.804	19.2
741.117	19.63
741.431	18.19
741.745	17.02
742.058	18.21
742.372	18.04
742.685	17.13
742.999	17.88
743.312	18.63
743.626	16.93
743.939	18.37
744.252	17.86
744.565	18.99
744.878	17.95
745.191	19.66
745.505	17.38
745.817	21.35
746.13	19.37
746.443	20.05
746.756	19.06
747.069	17.79
747.381	18.35
747.694	18.11
748.007	18.98
748.319	18.31
748.632	20.26
748.944	19.21
749.256	18.91
749.569	19.11
749.881	18.91
750.193	18.62
750.505	18.94
750.817	20.27
751.129	20.18
751.441	17.99
751.753	19.63
752.065	21.08
752.377	21
752.689	19.61
753	20.11
753.312	17.96
753.624	18.64
753.935	19.29
754.247	20.51
754.558	19.95
754.869	21.36
755.181	19.39
755.492	18.17
755.803	19.46
756.114	19.4
756.425	19.93
756.736	19.97
757.047	18.9
757.358	19.9
757.669	18.37
757.98	18.15
758.291	20.87
758.601	20.48
758.912	22.02
759.223	18.42
759.533	21.56
759.844	20.94
760.154	20.6
760.464	19.28
760.775	20.64
761.085	20.04
761.395	20.75
761.705	19.27
762.016	21.06
762.326	22.12
762.636	20.81
762.945	20.35
763.255	20.31
763.565	22.3
763.875	19.92
764.185	21.39
764.494	21.54
764.804	20.97
765.113	19.69
765.423	19.82
765.732	21.23
766.042	20.58
766.351	20.6
766.66	19.97
766.97	20.86
767.279	20.89
767.588	20.19
767.897	21.46
768.206	19.68
768.515	22.01
768.824	20.9
769.133	21.94
769.441	20.13
769.75	20.56
770.059	19.4
770.367	22.34
770.676	23.86
770.984	20.04
771.293	22.81
771.601	21.82
771.91	21.24
772.218	22.11
772.526	22.57
772.834	22.53
773.142	22.73
773.45	20.69
773.758	21.44
774.066	18.63
774.374	18.58
774.682	22.04
774.99	21.02
775.298	20.32
775.605	21.81
775.913	21.61
776.22	20.67
776.528	22.37
776.835	19.69
777.143	20.88
777.45	22.3
777.757	23.69
778.065	22.74
778.372	25.04
778.679	25.22
778.986	21.57
779.293	24.06
779.6	22.58
779.907	22.48
780.214	24.64
780.52	21.38
780.827	20.87
781.134	23.44
781.44	23.86
781.747	26.88
782.053	25.76
782.36	20.38
782.666	23.92
782.973	21.88
783.279	19.81
783.585	25.31
783.891	21.44
784.197	22.03
784.503	23.96
784.809	17.75
785.115	22.65
785.421	23.62
785.727	24.05
786.033	27.08
786.339	21.02
786.644	21.19
786.95	26.53
787.255	25.48
787.561	22.17
787.866	22.84
788.172	27.25
788.477	22.29
788.782	22.04
789.088	24.62
789.393	21.51
789.698	21.56
790.003	22.41
790.308	25.55
790.613	20.11
790.918	25.05
791.223	21.29
791.527	21.16
791.832	25.49
792.137	25.96
792.441	24.46
792.746	24.69
793.05	24.09
793.355	24.99
793.659	25.32
793.963	26.35
794.268	23.7
794.572	25.66
794.876	21.85
795.18	22.84
795.484	23.52
795.788	25.91
796.092	23.01
796.396	19.84
796.7	23.53
797.004	22.43
797.307	25.36
797.611	27.15
797.915	20.87
798.218	18.27
798.522	19.03
798.825	27.18
799.128	26.48
799.432	22.81
799.735	24.3
800.038	26.84
800.341	22.22
800.644	28.67
800.947	24.07
801.25	25.85
801.553	23.72
801.856	23.76
802.159	22.82
802.462	24.47
802.764	24.34
803.067	26.75
803.37	25.21
803.672	22.92
803.975	26.22
804.277	21.29
804.579	23.9
804.882	28.1
805.184	25.38
805.486	22.97
805.788	27.9
806.09	28.01
806.392	28.53
806.694	25.32
806.996	28.08
807.298	27.07
807.6	28.33
807.902	23.5
808.203	29.67
808.505	26.78
808.807	23.92
809.108	25.86
809.409	27.04
809.711	20.1
810.012	25.82
810.313	22.07
810.615	22.76
810.916	27.13
811.217	26.62
811.518	27.65
811.819	26.27
812.12	22.46
812.421	22.32
812.722	27.51
813.023	28.01
813.323	20.83
813.624	27.87
813.925	32.39
814.225	25.58
814.526	24.41
814.826	26.74
815.126	32.04
815.427	28.26
815.727	28.12
816.027	27.62
816.327	31.23
816.627	34.17
816.927	28.25
817.227	27.01
817.527	19.23
817.827	26.84
818.127	28.51
818.427	25.1
818.727	22.52
819.026	21.83
819.326	31.94
819.625	23.15
819.925	31.36
820.224	26.56
820.524	25.82
820.823	22.11
821.122	25.09
821.421	26.96
821.72	29.51
822.019	28.12
822.318	21.96
822.617	21.82
822.916	26.17
823.215	26.78
823.514	28.09
823.813	24.63
824.111	24.49
824.41	26.51
824.709	27.52
825.007	26.89
825.306	26.39
825.604	25.76
825.902	26.21
826.201	25.49
826.499	25.73
826.797	25.08
827.095	25.38
827.393	24.71
827.691	25.6
827.989	25.92
828.287	26.87
828.585	25.53
828.882	24.67
829.18	26.27
829.478	28.29
829.775	26.53
830.073	26.14
830.37	26.94
830.668	27.39
830.965	26.11
831.263	26.54
831.56	27.16
831.857	26.86
832.154	28.9
832.451	26.65
832.748	27.75
833.045	26.64
833.342	31.48
833.639	29.97
833.936	31.22
834.232	25
834.529	31.25
834.826	28.6
835.122	29.27
835.419	33.26
835.715	29.17
836.012	29.19
836.308	27.93
836.604	28.44
836.901	28.25
837.197	28.99
837.493	29.13
837.789	26.68
838.085	24.99
838.381	31.5
838.677	29.17
838.972	31.71
839.268	25.9
839.564	26.51
839.86	29.24
840.155	25.75
840.451	27.87
840.746	32.31
841.042	33.51
841.337	26.68
841.632	30.9
841.928	37.62
842.223	36.42
842.518	33.25
842.813	30.39
843.108	22.35
843.403	23.7
843.698	34.47
843.993	31.77
844.287	31.2
844.582	34.9
844.877	34.02
845.171	35.83
845.466	21.04
845.761	36.54
846.055	40.29
846.349	38.75
846.644	27.51
846.938	45.13
847.232	31.23
847.526	28.05
847.82	29.63
848.114	24.81
848.408	33.37
848.702	31.13
848.996	37.38
849.29	23.35
849.584	32.62
849.877	40.71
850.171	26.83
850.465	24.81
850.758	39.05
851.052	26.3
851.345	27.14
851.638	48.64
851.932	38.16
852.225	50.96
852.518	45.85
852.811	32.79
853.104	36.04
853.397	19.61
853.69	42.83
853.983	39
854.276	48.91
854.569	44.3
854.861	20.45
855.154	54.29
855.447	36.62
855.739	35.84
856.032	29.21
856.324	29.39
856.616	27.73
856.909	43.87
857.201	23.8
857.493	32.63
857.785	47.6
858.077	37.49
858.369	58.2
858.661	43.1
858.953	32.19
859.245	28.59
859.537	25.54
859.829	27.59
860.12	40.74
860.412	55.4
860.703	41.44
860.995	43.32
861.286	32.12
861.578	53.86
861.869	-13.12
862.16	33.47
862.452	20.11
862.743	36.87
863.034	18.36
863.325	38.59
863.616	13.79
863.907	20.88
864.198	23.17
864.488	74.29
864.779	34.96
865.07	45.4
865.36	35.76
865.651	52.13
865.941	46.2
866.232	40.28
866.522	30.41
866.813	75.58
867.103	47.25
867.393	47.75
867.683	40.02
867.973	65.98
868.263	51.19
868.553	39.45
868.843	46.61
869.133	55.88
869.423	30.46
869.713	53.29
870.002	44.44
870.292	29.88
870.582	60.19
870.871	28.31
871.161	50.39
871.45	55.2
871.739	49.4
872.029	34.47
872.318	49.37
872.607	51.71
872.896	35.71
873.185	49.11
873.474	55.77
873.763	68.93
874.052	16.42
874.341	53.91
874.63	36.39
874.918	43.53
875.207	34.62
875.496	34.77
875.784	21.05
876.073	42.51
876.361	37.38
876.649	18.63
876.938	24.26
877.226	51.71
877.514	43.2
877.802	23.16
878.09	49.54
878.378	59.21
878.666	33.2
878.954	25.87
879.242	52.02
879.53	62.38
879.817	28.85
880.105	46.9
880.392	40.47
880.68	33.06
880.967	51.94
881.255	41.71
881.542	25.55
881.83	27.03
882.117	80.79
882.404	48.57
882.691	61.96
882.978	66.1
883.265	22.04
883.552	50.3
883.839	40.16
884.126	58.16
884.413	24.33
884.699	36.32
884.986	43.51
885.273	37.25
885.559	37.25
885.846	37.25
