Data from 0223_forehead_Reflection__1__58.txt Node

Date: Fri Oct 20 21:07:54 CDT 2023
User: ToomeyLab
Spectrometer: FLMS14357
Trigger mode: 0
Integration Time (sec): 1.000000E-2
Scans to average: 100
Electric dark correction enabled: true
Nonlinearity correction enabled: false
Boxcar width: 0
XAxis mode: Wavelengths
Number of Pixels in Spectrum: 2048
>>>>>Begin Spectral Data<<<<<
189.047	-819.76
189.435	-819.76
189.823	-819.76
190.211	110.36
190.599	-993.31
190.987	264.94
191.375	148.81
191.763	-443.34
192.151	264.33
192.538	-190.67
192.926	37.28
193.314	75.49
193.702	102.5
194.089	98.93
194.477	-1278.43
194.864	4.72
195.252	-91.83
195.639	275.42
196.027	-1349.88
196.414	368.81
196.801	351.24
197.189	134.03
197.576	568.07
197.963	559.08
198.351	66.19
198.738	65.33
199.125	51.9
199.512	47.4
199.899	39.06
200.286	12.39
200.673	61.68
201.06	44.8
201.447	59.5
201.833	61.91
202.22	40.03
202.607	53.53
202.994	61.18
203.38	32.39
203.767	10.04
204.154	57.4
204.54	42.18
204.927	40.36
205.313	48.63
205.699	51.79
206.086	37.15
206.472	34.92
206.858	52.56
207.245	41.21
207.631	55.14
208.017	59.01
208.403	58.62
208.789	70.22
209.175	35.78
209.561	16.71
209.947	35
210.333	34.37
210.719	37.57
211.105	21.43
211.491	42.8
211.876	24.06
212.262	42.88
212.648	44.39
213.034	35.66
213.419	45.88
213.805	33.46
214.19	12.97
214.576	-13.17
214.961	30.95
215.346	31.12
215.732	40.82
216.117	-21.84
216.502	39
216.888	18.08
217.273	14.91
217.658	20.68
218.043	23.69
218.428	18.41
218.813	39.28
219.198	15.88
219.583	3.85
219.968	0.59
220.353	24.51
220.738	30.34
221.122	26.97
221.507	22.6
221.892	29.17
222.276	28.08
222.661	32.07
223.046	14.49
223.43	24.57
223.815	26.23
224.199	24.6
224.583	13.87
224.968	9.66
225.352	3.04
225.736	16.01
226.121	13.4
226.505	14.61
226.889	14.45
227.273	11.83
227.657	17.04
228.041	13.36
228.425	7.24
228.809	7.03
229.193	8.81
229.577	8.48
229.961	4.06
230.344	4.55
230.728	3.71
231.112	4.45
231.495	3.65
231.879	5.08
232.263	5.43
232.646	4.04
233.03	4.26
233.413	5
233.797	6.47
234.18	4.43
234.563	6.6
234.946	8.17
235.33	6.59
235.713	6.28
236.096	5.57
236.479	5.85
236.862	5.43
237.245	4.07
237.628	5.37
238.011	5.49
238.394	5.2
238.777	7.8
239.16	4.73
239.543	6.83
239.925	7.62
240.308	5.07
240.691	5.86
241.073	7.79
241.456	7.09
241.838	5.6
242.221	5.45
242.603	5.76
242.986	4.82
243.368	5.53
243.75	4.55
244.133	4.68
244.515	4.02
244.897	4.16
245.279	4.62
245.661	4.36
246.043	4.17
246.425	4.33
246.807	5.66
247.189	4.15
247.571	4.87
247.953	4.53
248.335	4.59
248.717	4.1
249.098	3.82
249.48	3.86
249.862	4.38
250.243	4.39
250.625	4.39
251.006	4.71
251.388	4.36
251.769	5.06
252.151	4.12
252.532	5.25
252.913	4.21
253.295	4.37
253.676	4.61
254.057	4.27
254.438	4.6
254.819	4.51
255.2	4.73
255.581	5.07
255.962	5.63
256.343	6.43
256.724	4.12
257.105	4.3
257.486	5.1
257.867	4.57
258.247	5.31
258.628	4.05
259.009	4.23
259.389	4.33
259.77	3.88
260.15	4.38
260.531	4.57
260.911	4.76
261.292	4.02
261.672	4.01
262.052	4.15
262.432	4.02
262.813	4.08
263.193	4.47
263.573	4.25
263.953	3.84
264.333	5.04
264.713	4.8
265.093	4.74
265.473	4.97
265.853	4.23
266.233	5.03
266.612	5.29
266.992	4.44
267.372	4.55
267.752	4.39
268.131	4.84
268.511	4.7
268.89	4.51
269.27	4.51
269.649	3.97
270.029	4.13
270.408	4.46
270.787	4.26
271.167	4.7
271.546	4.86
271.925	4.78
272.304	4.61
272.683	4.14
273.062	4.48
273.441	4.22
273.82	4.35
274.199	4.19
274.578	4.15
274.957	4.16
275.336	4.42
275.715	4.43
276.093	4.32
276.472	4.64
276.851	4.77
277.229	4.45
277.608	3.87
277.986	3.92
278.365	4.44
278.743	4.11
279.122	3.69
279.5	4.07
279.878	4.18
280.257	4.38
280.635	4.63
281.013	4.56
281.391	5.01
281.769	4.78
282.147	3.78
282.525	4.18
282.903	4.43
283.281	4.65
283.659	4.21
284.037	4.13
284.415	3.74
284.792	4.06
285.17	4.17
285.548	4.15
285.925	4.09
286.303	3.99
286.68	3.95
287.058	4.67
287.435	4.21
287.813	3.7
288.19	3.88
288.567	4.01
288.945	4.21
289.322	4.65
289.699	4.16
290.076	4.76
290.453	4.14
290.83	4.42
291.207	4.61
291.584	3.59
291.961	4.19
292.338	4.31
292.715	4.45
293.092	4.22
293.469	4.62
293.845	4.57
294.222	4.36
294.599	4.47
294.975	4.9
295.352	5.06
295.728	4.44
296.105	4.57
296.481	4.43
296.858	4.67
297.234	4.32
297.61	4.13
297.986	4.55
298.363	4.5
298.739	4.69
299.115	4.44
299.491	4.42
299.867	4.45
300.243	4.52
300.619	4.54
300.995	4.53
301.371	4.99
301.746	4.89
302.122	4.68
302.498	4.73
302.874	4.9
303.249	4.62
303.625	5
304	5.08
304.376	4.24
304.751	4.76
305.127	4.59
305.502	5.44
305.878	4.2
306.253	4.9
306.628	5.22
307.003	4.81
307.378	5.25
307.754	5.05
308.129	5.44
308.504	5.62
308.879	5.54
309.254	5.49
309.629	4.69
310.003	4.41
310.378	5.69
310.753	5.47
311.128	5.73
311.502	5.2
311.877	5.17
312.252	4.9
312.626	5.47
313.001	5.31
313.375	5.21
313.75	5.48
314.124	5.11
314.498	5.45
314.873	5.53
315.247	5.31
315.621	5.72
315.995	5.68
316.369	5.14
316.743	5.93
317.117	5.73
317.491	5.4
317.865	6.17
318.239	6.31
318.613	5.97
318.987	5.9
319.361	5.59
319.734	5.85
320.108	5.75
320.482	6.53
320.855	5.88
321.229	6.88
321.602	6.05
321.976	6.24
322.349	6.56
322.723	6.06
323.096	6.93
323.469	6.16
323.843	6.42
324.216	6.74
324.589	6.49
324.962	6.72
325.335	6.61
325.708	6.24
326.081	6.23
326.454	6.44
326.827	6.93
327.2	6.78
327.573	6.83
327.945	6.85
328.318	6.59
328.691	6.83
329.063	7.41
329.436	6.16
329.809	6.92
330.181	7.04
330.553	7.36
330.926	6.99
331.298	6.61
331.671	6.63
332.043	6.8
332.415	7.33
332.787	7.42
333.159	6.47
333.532	6.93
333.904	7.37
334.276	6.77
334.648	6.7
335.02	7.45
335.391	6.47
335.763	7.38
336.135	7.52
336.507	7.3
336.879	6.71
337.25	7.13
337.622	7.43
337.993	7.91
338.365	7.22
338.736	7.31
339.108	7.7
339.479	7.08
339.851	7.13
340.222	7.21
340.593	6.8
340.964	7.15
341.336	7.66
341.707	7.4
342.078	7.22
342.449	7.07
342.82	7.23
343.191	7.59
343.562	7.54
343.933	7.36
344.303	7.56
344.674	8.04
345.045	8.09
345.416	7.54
345.786	7.49
346.157	7.78
346.527	8.01
346.898	7.81
347.268	7.62
347.639	7.81
348.009	7.7
348.38	8.2
348.75	8.12
349.12	8.01
349.49	8.01
349.861	8.03
350.231	7.86
350.601	7.77
350.971	8.43
351.341	8.44
351.711	8.81
352.081	8.13
352.45	8.17
352.82	8.33
353.19	8.14
353.56	8
353.929	8.32
354.299	8.55
354.669	8.29
355.038	8.65
355.408	8.72
355.777	8.38
356.147	8.36
356.516	8.31
356.885	8.49
357.254	8.63
357.624	8.71
357.993	8.16
358.362	8.37
358.731	7.91
359.1	8.03
359.469	8.28
359.838	8.49
360.207	8.52
360.576	8.68
360.945	8.48
361.314	8.75
361.682	8.36
362.051	8.63
362.42	8.37
362.788	8.59
363.157	8.67
363.525	8.5
363.894	8.57
364.262	8.52
364.631	8.72
364.999	9.04
365.367	9.07
365.735	8.47
366.104	9.09
366.472	8.76
366.84	9.13
367.208	8.81
367.576	9.08
367.944	9.26
368.312	9.2
368.68	9.48
369.048	9.44
369.416	9.41
369.783	9.61
370.151	9.1
370.519	9.5
370.886	9.59
371.254	9.58
371.621	9.76
371.989	9.69
372.356	9.4
372.724	9.65
373.091	9.34
373.458	9.38
373.826	9.67
374.193	9.36
374.56	9.59
374.927	9.42
375.294	10.06
375.661	9.86
376.028	10.23
376.395	9.92
376.762	9.84
377.129	9.8
377.496	10.24
377.863	10.26
378.229	10.1
378.596	10.07
378.963	9.95
379.329	9.99
379.696	9.76
380.062	10.06
380.429	9.82
380.795	9.91
381.161	9.86
381.528	10.28
381.894	10.11
382.26	10.27
382.626	10.46
382.993	10.17
383.359	10.55
383.725	10.08
384.091	10.3
384.457	10.59
384.823	10.38
385.188	10.75
385.554	10.39
385.92	10.27
386.286	10.65
386.651	10.36
387.017	10.81
387.383	10.53
387.748	10.53
388.114	10.67
388.479	10.56
388.845	10.78
389.21	10.88
389.575	10.44
389.94	11
390.306	10.9
390.671	11.05
391.036	10.79
391.401	11.01
391.766	10.94
392.131	10.91
392.496	10.96
392.861	11.02
393.226	11.05
393.591	11.13
393.956	11.07
394.32	11.29
394.685	10.97
395.05	11.25
395.414	11.31
395.779	10.99
396.143	11.01
396.508	11.39
396.872	11.15
397.236	11.11
397.601	11.47
397.965	11.37
398.329	11.18
398.694	11.68
399.058	11.55
399.422	11.54
399.786	11.55
400.15	11.48
400.514	11.45
400.878	11.64
401.242	11.83
401.605	11.68
401.969	11.59
402.333	11.66
402.697	11.95
403.06	11.62
403.424	11.76
403.787	11.95
404.151	11.86
404.514	12.04
404.878	11.96
405.241	11.93
405.604	11.77
405.968	12.05
406.331	11.69
406.694	11.92
407.057	11.89
407.42	12.35
407.783	12.02
408.146	12.12
408.509	12.07
408.872	12.15
409.235	12.12
409.598	12.61
409.961	12.39
410.323	12.21
410.686	12.2
411.049	12.19
411.411	12.6
411.774	12.35
412.136	12.43
412.499	12.49
412.861	12.39
413.223	12.48
413.586	12.42
413.948	12.75
414.31	12.83
414.672	12.61
415.035	12.68
415.397	12.8
415.759	12.84
416.121	12.91
416.483	12.85
416.845	12.8
417.206	12.88
417.568	12.91
417.93	12.94
418.292	12.69
418.653	12.82
419.015	12.76
419.377	12.96
419.738	12.95
420.1	12.65
420.461	12.8
420.822	12.8
421.184	12.87
421.545	12.98
421.906	12.84
422.267	12.94
422.629	12.84
422.99	12.74
423.351	12.87
423.712	12.87
424.073	13.21
424.434	12.97
424.795	13.1
425.155	13.22
425.516	13.1
425.877	13.19
426.238	13.14
426.598	13.25
426.959	13.21
427.32	13.41
427.68	13.43
428.041	13.5
428.401	13.5
428.761	13.69
429.122	13.63
429.482	13.82
429.842	13.99
430.202	13.83
430.563	14.05
430.923	13.96
431.283	13.92
431.643	14.03
432.003	14.27
432.363	14.17
432.722	14.29
433.082	14.25
433.442	14.2
433.802	14.16
434.161	14.2
434.521	14.38
434.881	14.28
435.24	14.35
435.6	14.32
435.959	14.3
436.319	14.37
436.678	14.61
437.037	14.27
437.396	14.65
437.756	14.61
438.115	14.45
438.474	14.75
438.833	14.96
439.192	14.56
439.551	14.77
439.91	14.83
440.269	14.85
440.628	15.05
440.987	14.89
441.345	14.75
441.704	14.94
442.063	14.9
442.421	14.82
442.78	14.91
443.138	14.99
443.497	15.01
443.855	15.11
444.214	15.16
444.572	15.18
444.93	15.27
445.288	15.3
445.647	15.39
446.005	15.41
446.363	15.5
446.721	15.41
447.079	15.71
447.437	15.39
447.795	15.34
448.153	15.28
448.51	15.3
448.868	15.31
449.226	15.43
449.584	15.55
449.941	15.6
450.299	15.69
450.656	15.7
451.014	15.86
451.371	16.02
451.729	15.85
452.086	16.15
452.443	16.1
452.801	16.07
453.158	16.03
453.515	16.3
453.872	16.24
454.229	16.35
454.586	16.19
454.943	16.21
455.3	16.3
455.657	16.38
456.014	16.34
456.371	16.51
456.727	16.66
457.084	16.66
457.441	16.73
457.797	16.77
458.154	16.68
458.51	16.79
458.867	16.95
459.223	16.65
459.58	16.86
459.936	16.97
460.292	17.04
460.648	16.77
461.005	16.73
461.361	16.85
461.717	16.62
462.073	16.67
462.429	16.7
462.785	16.82
463.141	17.01
463.496	17.1
463.852	17.12
464.208	17.42
464.564	17.4
464.919	17.41
465.275	17.61
465.631	17.77
465.986	17.67
466.342	17.82
466.697	17.6
467.052	17.7
467.408	17.69
467.763	18.02
468.118	18.12
468.473	17.74
468.829	17.78
469.184	17.85
469.539	17.64
469.894	17.92
470.249	17.98
470.603	17.82
470.958	18.15
471.313	18.3
471.668	18.05
472.023	18.31
472.377	18.28
472.732	18.14
473.086	18.51
473.441	18.56
473.795	18.55
474.15	18.51
474.504	18.48
474.859	18.63
475.213	18.62
475.567	18.53
475.921	18.79
476.275	18.66
476.63	18.94
476.984	18.96
477.338	19.03
477.692	18.91
478.045	18.97
478.399	18.85
478.753	18.97
479.107	19
479.461	18.85
479.814	19.05
480.168	18.96
480.521	19.05
480.875	19.12
481.228	19.22
481.582	19.16
481.935	19.27
482.289	19.35
482.642	19.28
482.995	19.22
483.348	19.25
483.701	19.18
484.055	19.16
484.408	19.1
484.761	19.01
485.114	18.87
485.466	18.69
485.819	18.48
486.172	18.49
486.525	18.62
486.878	18.76
487.23	18.92
487.583	19.04
487.936	19.18
488.288	19.17
488.641	19.38
488.993	19.25
489.345	19.09
489.698	19.07
490.05	19.12
490.402	19.2
490.754	19.24
491.107	19.57
491.459	19.7
491.811	19.94
492.163	20.04
492.515	20.04
492.866	20.03
493.218	19.78
493.57	19.61
493.922	19.62
494.274	19.72
494.625	19.91
494.977	20.11
495.328	20.24
495.68	20.57
496.031	20.67
496.383	20.88
496.734	20.92
497.086	20.98
497.437	21.1
497.788	21.09
498.139	21.03
498.49	21.08
498.842	20.89
499.193	21
499.544	21.08
499.894	21.02
500.245	21.18
500.596	21.28
500.947	21.3
501.298	21.48
501.648	21.53
501.999	21.44
502.35	21.54
502.7	21.77
503.051	21.66
503.401	21.8
503.752	21.84
504.102	21.79
504.452	21.85
504.803	21.92
505.153	22.06
505.503	21.99
505.853	22.15
506.203	22.08
506.553	21.92
506.903	22.23
507.253	22.17
507.603	22.29
507.953	22.35
508.303	22.3
508.652	22.35
509.002	22.54
509.352	22.49
509.701	22.66
510.051	22.38
510.4	22.5
510.75	22.6
511.099	22.5
511.449	22.55
511.798	22.72
512.147	22.63
512.496	22.77
512.846	22.83
513.195	22.95
513.544	23.06
513.893	22.78
514.242	22.9
514.591	23.04
514.939	22.98
515.288	22.93
515.637	23.14
515.986	23.2
516.334	23.48
516.683	23.5
517.032	23.36
517.38	23.42
517.729	23.61
518.077	23.43
518.426	23.7
518.774	23.68
519.122	23.71
519.47	23.62
519.819	23.53
520.167	23.55
520.515	23.39
520.863	23.4
521.211	23.56
521.559	23.61
521.907	23.74
522.255	23.91
522.602	24.03
522.95	24.16
523.298	24.19
523.645	24.26
523.993	24.46
524.341	24.33
524.688	24.52
525.036	24.58
525.383	24.4
525.73	24.74
526.078	24.5
526.425	24.6
526.772	24.52
527.119	24.47
527.466	24.45
527.814	24.25
528.161	24.36
528.508	24.43
528.854	24.45
529.201	24.52
529.548	24.53
529.895	24.34
530.242	24.15
530.588	23.95
530.935	24.03
531.282	24.34
531.628	24.43
531.975	24.51
532.321	24.65
532.667	24.71
533.014	24.99
533.36	25.16
533.706	25.23
534.052	25.23
534.399	25.21
534.745	25.2
535.091	25.14
535.437	24.97
535.783	25.1
536.129	25.25
536.474	25.34
536.82	25.58
537.166	25.69
537.512	25.92
537.857	25.92
538.203	25.85
538.549	25.79
538.894	25.58
539.239	25.88
539.585	25.97
539.93	26.1
540.276	26.39
540.621	26.54
540.966	26.49
541.311	26.77
541.656	26.62
542.001	26.7
542.346	26.68
542.691	26.38
543.036	26.05
543.381	25.94
543.726	25.99
544.071	26.24
544.415	26.31
544.76	26.41
545.105	26.49
545.449	26.45
545.794	26.79
546.138	26.95
546.483	27.02
546.827	27.22
547.171	27.43
547.516	27.17
547.86	27.51
548.204	27.18
548.548	27.48
548.892	27.45
549.236	27.43
549.58	27.49
549.924	27.72
550.268	27.96
550.612	27.99
550.956	28.18
551.3	28.05
551.643	28.24
551.987	28.47
552.33	28.29
552.674	28.33
553.017	28.5
553.361	28.7
553.704	28.63
554.048	28.64
554.391	28.7
554.734	28.69
555.077	28.62
555.42	28.57
555.764	28.74
556.107	29.03
556.45	28.96
556.793	29.1
557.135	29.15
557.478	29.26
557.821	29.51
558.164	29.29
558.507	29.39
558.849	29.42
559.192	29.46
559.534	29.8
559.877	29.47
560.219	29.74
560.562	29.76
560.904	29.69
561.246	29.74
561.589	29.81
561.931	30.08
562.273	30.19
562.615	30.12
562.957	30.17
563.299	30.07
563.641	30.24
563.983	30.26
564.325	30.07
564.667	30.26
565.008	30.49
565.35	30.53
565.692	30.46
566.033	30.6
566.375	30.7
566.716	30.82
567.058	30.49
567.399	30.69
567.741	30.53
568.082	30.74
568.423	30.72
568.764	30.67
569.105	30.83
569.447	30.99
569.788	30.83
570.129	31.01
570.47	31.11
570.811	31.26
571.151	31.08
571.492	31.32
571.833	31.48
572.174	31.51
572.514	31.63
572.855	31.36
573.195	31.46
573.536	31.43
573.876	31.65
574.217	31.5
574.557	31.47
574.898	31.45
575.238	31.52
575.578	31.77
575.918	31.6
576.258	31.92
576.598	32.25
576.938	32.04
577.278	31.78
577.618	31.84
577.958	31.92
578.298	32.28
578.638	32.27
578.977	32.36
579.317	32.47
579.657	32.38
579.996	32.79
580.336	32.58
580.675	32.79
581.014	32.74
581.354	32.87
581.693	32.9
582.032	33.37
582.372	33.27
582.711	33.21
583.05	33.11
583.389	33.27
583.728	33.2
584.067	33.64
584.406	33.68
584.745	33.66
585.083	33.88
585.422	33.4
585.761	33.94
586.1	33.8
586.438	33.84
586.777	34.09
587.115	34.24
587.454	34.17
587.792	34.01
588.13	34.18
588.469	34.03
588.807	33.9
589.145	34.36
589.483	34.27
589.821	34.41
590.159	34.36
590.497	34.5
590.835	34.41
591.173	34.39
591.511	34.58
591.849	34.22
592.187	34.34
592.524	34.77
592.862	34.95
593.2	34.81
593.537	34.79
593.875	34.55
594.212	35.24
594.55	34.99
594.887	35.22
595.224	34.78
595.561	34.93
595.899	35.13
596.236	35.36
596.573	35.21
596.91	35.51
597.247	35.32
597.584	35.12
597.921	35.31
598.258	35.43
598.594	35.45
598.931	35.07
599.268	35.15
599.604	35.45
599.941	35.32
600.277	35.47
600.614	35.92
600.95	35.83
601.287	35.69
601.623	36.17
601.959	36.01
602.296	36.29
602.632	35.9
602.968	35.94
603.304	36.58
603.64	36.63
603.976	36.39
604.312	36.58
604.648	36.37
604.984	36.41
605.319	36.2
605.655	36.34
605.991	36.35
606.326	36.44
606.662	36.2
606.998	36.28
607.333	36.2
607.668	36.44
608.004	36.66
608.339	36.82
608.674	36.83
609.01	37.12
609.345	37.47
609.68	37.15
610.015	37
610.35	37.17
610.685	37.42
611.02	37.66
611.355	37.03
611.689	37.23
612.024	37.42
612.359	37.32
612.694	37.42
613.028	37.6
613.363	37.72
613.697	37.8
614.032	37.72
614.366	37.95
614.7	37.93
615.035	38.4
615.369	38.55
615.703	38.64
616.037	38.52
616.371	38.37
616.705	38.44
617.039	38.42
617.373	38.89
617.707	38.98
618.041	38.7
618.375	38.9
618.709	38.61
619.042	38.9
619.376	39.11
619.71	38.92
620.043	39.17
620.377	38.85
620.71	39.11
621.043	38.88
621.377	39.33
621.71	39.19
622.043	39.41
622.376	39.85
622.709	39.6
623.043	38.95
623.376	39.52
623.709	39.01
624.041	39.55
624.374	39.73
624.707	39.26
625.04	39.88
625.373	39.91
625.705	39.71
626.038	39.45
626.37	39.78
626.703	40.27
627.035	39.84
627.368	39.74
627.7	40.34
628.032	39.91
628.365	40.14
628.697	40.56
629.029	39.96
629.361	39.96
629.693	40.28
630.025	40.07
630.357	40.24
630.689	40.36
631.021	40.46
631.353	40.6
631.684	40.3
632.016	40.81
632.348	40.91
632.679	40.6
633.011	41
633.342	41.17
633.674	41.18
634.005	40.86
634.336	41.2
634.668	40.97
634.999	40.95
635.33	41.17
635.661	41.27
635.992	41.56
636.323	41.33
636.654	41.1
636.985	41.18
637.316	41.42
637.647	41.36
637.977	41.27
638.308	41.26
638.639	41.75
638.969	41.47
639.3	41.5
639.63	41.85
639.961	42.51
640.291	41.71
640.622	41.91
640.952	42.33
641.282	42.96
641.612	42.38
641.943	42.34
642.273	41.7
642.603	42.58
642.933	42.13
643.263	42.61
643.592	42.38
643.922	42.36
644.252	42.49
644.582	42.27
644.911	42.57
645.241	42.93
645.571	42.86
645.9	42.31
646.23	42.84
646.559	42.86
646.888	42.63
647.218	43.15
647.547	42.83
647.876	42.98
648.205	43.01
648.534	43.18
648.863	43.61
649.192	42.66
649.521	43.33
649.85	43.53
650.179	43.31
650.508	43.92
650.837	43.07
651.165	43.34
651.494	43.76
651.822	43.55
652.151	43.76
652.479	43.93
652.808	43.39
653.136	43.36
653.465	43.97
653.793	44.81
654.121	44.1
654.449	44.24
654.777	44.08
655.105	44.18
655.433	43.93
655.761	44.72
656.089	44.33
656.417	44.43
656.745	44.63
657.073	44
657.4	44.85
657.728	44.87
658.056	44.51
658.383	44.54
658.711	44.54
659.038	44.34
659.365	44.88
659.693	44.62
660.02	44.33
660.347	44.54
660.674	44.19
661.001	44.44
661.329	45.02
661.656	44.76
661.982	44.84
662.309	44.64
662.636	45.12
662.963	44.91
663.29	45.32
663.616	45
663.943	44.53
664.27	45.59
664.596	45.33
664.923	45.62
665.249	44.89
665.576	45.47
665.902	45.23
666.228	46.16
666.554	46.02
666.881	46.12
667.207	46.02
667.533	45.69
667.859	45.55
668.185	45.78
668.511	45.85
668.837	45.63
669.162	46.11
669.488	46.13
669.814	46.1
670.139	46.25
670.465	46.5
670.791	46.37
671.116	47
671.442	46.54
671.767	46.13
672.092	46.89
672.418	46.67
672.743	46.11
673.068	47.38
673.393	46.8
673.718	47.21
674.043	46.87
674.368	46.95
674.693	47.26
675.018	47.36
675.343	46.91
675.667	47.2
675.992	46.84
676.317	46.74
676.641	47.38
676.966	46.45
677.29	46.94
677.615	47.57
677.939	46.64
678.264	47.44
678.588	47.33
678.912	47.61
679.236	46.94
679.56	47.65
679.885	47.39
680.209	47.6
680.532	48.06
680.856	47.84
681.18	48.61
681.504	47.55
681.828	48.09
682.152	47.45
682.475	47.57
682.799	47.85
683.122	47.9
683.446	47.66
683.769	48.23
684.093	48.67
684.416	48.46
684.739	48.22
685.062	47.66
685.386	48.14
685.709	48.59
686.032	48.77
686.355	48.84
686.678	47.78
687.001	48.64
687.324	48.54
687.646	48.25
687.969	49.19
688.292	49.11
688.614	48.67
688.937	48.56
689.26	48.84
689.582	49.12
689.904	48.46
690.227	49.02
690.549	48.72
690.871	50.35
691.194	50.08
691.516	48.89
691.838	49.18
692.16	49.6
692.482	49.35
692.804	49.4
693.126	48.31
693.448	49.92
693.769	49.61
694.091	48.71
694.413	49.19
694.735	49.1
695.056	49.07
695.378	49.27
695.699	49.94
696.021	48.62
696.342	49.64
696.663	50.56
696.984	49.41
697.306	50.4
697.627	49.45
697.948	49.8
698.269	50.02
698.59	50.52
698.911	50.6
699.232	49.16
699.553	50.39
699.873	50.24
700.194	50.32
700.515	49.98
700.835	50.43
701.156	49.47
701.477	50.24
701.797	50.54
702.117	50.38
702.438	50.59
702.758	50.39
703.078	50.59
703.398	50.25
703.719	50.64
704.039	51.4
704.359	50.66
704.679	50.01
704.999	49.82
705.319	50.9
705.638	51.51
705.958	51.04
706.278	51.41
706.597	51.71
706.917	51.3
707.237	52.25
707.556	51.01
707.876	50.62
708.195	51.65
708.514	51.91
708.834	51.83
709.153	52.15
709.472	51.03
709.791	51.88
710.11	51.23
710.429	52.18
710.748	50.91
711.067	51.49
711.386	51.71
711.705	52.3
712.023	52.09
712.342	51.49
712.661	51.64
712.979	51.1
713.298	52.45
713.616	52.12
713.935	51.28
714.253	51.9
714.572	52.88
714.89	52.24
715.208	52.01
715.526	51.97
715.844	53.08
716.162	52.37
716.48	52.69
716.798	52.72
717.116	51.98
717.434	51.85
717.752	51.33
718.069	53.38
718.387	52.65
718.705	51.52
719.022	53.51
719.34	53.45
719.657	53.83
719.975	52.71
720.292	52.34
720.609	53.11
720.927	52.92
721.244	52.93
721.561	53.76
721.878	53.09
722.195	52.91
722.512	54.29
722.829	53.75
723.146	52.32
723.463	54.53
723.779	53.65
724.096	54.37
724.413	52.66
724.729	54.35
725.046	53.02
725.362	53.07
725.679	52.95
725.995	55.37
726.311	54.98
726.628	54.31
726.944	52.86
727.26	53.92
727.576	54.65
727.892	53.46
728.208	54.61
728.524	55.73
728.84	54.2
729.156	53.6
729.472	52.48
729.787	54.03
730.103	54.4
730.419	55.07
730.734	52.97
731.05	53.82
731.365	53.04
731.681	54.65
731.996	55.02
732.311	54.98
732.626	54.45
732.942	53.69
733.257	54.02
733.572	55.66
733.887	54.87
734.202	55.78
734.517	53.86
734.832	54.96
735.146	56.69
735.461	54.2
735.776	55.11
736.091	55.57
736.405	54.46
736.72	54.1
737.034	54.39
737.349	53.95
737.663	53.86
737.977	53.94
738.292	55.83
738.606	54.83
738.92	53.53
739.234	53.76
739.548	56.57
739.862	54.21
740.176	56.77
740.49	55.04
740.804	54.6
741.117	54.77
741.431	53.68
741.745	55.61
742.058	54.99
742.372	56.46
742.685	54.35
742.999	55.09
743.312	55.82
743.626	55.67
743.939	56.39
744.252	56.72
744.565	57.63
744.878	55.11
745.191	56.48
745.505	54.87
745.817	55.36
746.13	55.63
746.443	58.52
746.756	54.27
747.069	55.48
747.381	55.66
747.694	56.21
748.007	56
748.319	56.62
748.632	52.39
748.944	54.09
749.256	54.65
749.569	57.38
749.881	57.56
750.193	55.23
750.505	56.59
750.817	57.83
751.129	56.76
751.441	56.73
751.753	54.95
752.065	56.85
752.377	56.57
752.689	58.1
753	57.48
753.312	55.34
753.624	55.52
753.935	58.72
754.247	56.21
754.558	57.23
754.869	58.44
755.181	55.91
755.492	56.86
755.803	55.83
756.114	56.18
756.425	58.16
756.736	56.57
757.047	56.64
757.358	58.23
757.669	56.2
757.98	55.87
758.291	56.53
758.601	56.19
758.912	57
759.223	56.89
759.533	58.25
759.844	57.55
760.154	55.86
760.464	55.86
760.775	57.6
761.085	58.39
761.395	58.15
761.705	58.19
762.016	58.72
762.326	56.74
762.636	56.97
762.945	57.46
763.255	57.72
763.565	59.09
763.875	56.61
764.185	56.3
764.494	58.42
764.804	58.44
765.113	57.76
765.423	58.15
765.732	57.91
766.042	56.74
766.351	57.34
766.66	57.64
766.97	58.87
767.279	58.55
767.588	58.36
767.897	57.21
768.206	58.74
768.515	58.73
768.824	60.09
769.133	57.34
769.441	58.19
769.75	57.43
770.059	59.03
770.367	60.17
770.676	62.25
770.984	58.48
771.293	60.1
771.601	58.16
771.91	57.63
772.218	58.21
772.526	57.61
772.834	59.88
773.142	60.09
773.45	56.68
773.758	60.37
774.066	60.12
774.374	57.37
774.682	57.88
774.99	58.38
775.298	58.62
775.605	59.61
775.913	57.55
776.22	56.38
776.528	59.34
776.835	59.22
777.143	58.37
777.45	60.86
777.757	59.02
778.065	61.67
778.372	62.32
778.679	62.62
778.986	61.22
779.293	62.08
779.6	58.91
779.907	59.92
780.214	60.69
780.52	58.29
780.827	60.46
781.134	56.55
781.44	59.08
781.747	61.57
782.053	61.66
782.36	60.59
782.666	57.85
782.973	61.33
783.279	62.19
783.585	58.51
783.891	59.83
784.197	57.93
784.503	58.59
784.809	60.22
785.115	58.38
785.421	59.57
785.727	61.23
786.033	62.97
786.339	60.72
786.644	60.16
786.95	64.44
787.255	61.43
787.561	63.13
787.866	57.87
788.172	62.61
788.477	64.77
788.782	62.26
789.088	64.6
789.393	60.27
789.698	57.16
790.003	58.96
790.308	60.57
790.613	58.76
790.918	62.78
791.223	58.59
791.527	60.26
791.832	59.79
792.137	63.03
792.441	59.97
792.746	61.51
793.05	66.2
793.355	62.92
793.659	63.58
793.963	60.95
794.268	64.37
794.572	63.71
794.876	57.78
795.18	60.31
795.484	58.12
795.788	56.76
796.092	58.26
796.396	63.16
796.7	61.87
797.004	61.37
797.307	58.93
797.611	60.27
797.915	61.05
798.218	61.49
798.522	61.72
798.825	63.17
799.128	60.26
799.432	62.35
799.735	58.19
800.038	58.08
800.341	60.44
800.644	64.81
800.947	60.85
801.25	61.92
801.553	65.42
801.856	61.83
802.159	59.43
802.462	61.86
802.764	61.9
803.067	65.52
803.37	64.11
803.672	61.09
803.975	63.64
804.277	60.33
804.579	61.23
804.882	60.77
805.184	62.4
805.486	66.74
805.788	65.93
806.09	64.7
806.392	62.19
806.694	61.84
806.996	64.92
807.298	62.68
807.6	65.29
807.902	61.91
808.203	60.75
808.505	66.32
808.807	62.16
809.108	58.43
809.409	62.78
809.711	62.08
810.012	63.95
810.313	61.16
810.615	59.59
810.916	64.39
811.217	64.53
811.518	61.38
811.819	63.76
812.12	65.36
812.421	62.2
812.722	65.05
813.023	61.52
813.323	60.12
813.624	60.21
813.925	66.5
814.225	63.87
814.526	66.1
814.826	63.37
815.126	66.57
815.427	64.75
815.727	67.51
816.027	59.77
816.327	67.66
816.627	65.18
816.927	60.92
817.227	61.92
817.527	61.62
817.827	62.92
818.127	66.53
818.427	66.99
818.727	60.83
819.026	63.28
819.326	64.86
819.625	67.79
819.925	63.06
820.224	69.01
820.524	62.22
820.823	60.61
821.122	60.98
821.421	59.57
821.72	73.02
822.019	67.73
822.318	67.51
822.617	65.05
822.916	63.58
823.215	62.11
823.514	64.88
823.813	60.56
824.111	64.26
824.41	66.14
824.709	65.3
825.007	63.42
825.306	63.13
825.604	63.44
825.902	63.62
826.201	64.71
826.499	62.68
826.797	63
827.095	63.64
827.393	62.85
827.691	63.14
827.989	65.08
828.287	62.58
828.585	65.74
828.882	64.24
829.18	60.8
829.478	65.44
829.775	64.66
830.073	63.97
830.37	63.74
830.668	65.93
830.965	61.65
831.263	64
831.56	65.29
831.857	62.2
832.154	66.39
832.451	64.8
832.748	65.87
833.045	60.96
833.342	67.03
833.639	60.28
833.936	67.97
834.232	65.22
834.529	69.77
834.826	59.55
835.122	68.54
835.419	66.3
835.715	64.89
836.012	64.29
836.308	66.87
836.604	68.24
836.901	64.43
837.197	65.54
837.493	66.2
837.789	65.11
838.085	64.33
838.381	66.86
838.677	65.37
838.972	70.69
839.268	60.33
839.564	70.85
839.86	62.71
840.155	67.48
840.451	69.25
840.746	64.76
841.042	71.11
841.337	58.92
841.632	63.44
841.928	69.55
842.223	72.24
842.518	70.64
842.813	63.22
843.108	50.52
843.403	62.64
843.698	63.04
843.993	67.85
844.287	64.32
844.582	75.55
844.877	70.17
845.171	63.85
845.466	63.13
845.761	65.96
846.055	68.32
846.349	57.89
846.644	67.69
846.938	71.52
847.232	69.23
847.526	68.99
847.82	57.96
848.114	73.48
848.408	74.79
848.702	67.21
848.996	70.51
849.29	64.39
849.584	70.19
849.877	77.33
850.171	80.75
850.465	82.21
850.758	70.55
851.052	56.36
851.345	61.14
851.638	60.31
851.932	68.54
852.225	76.38
852.518	69.66
852.811	64.92
853.104	78.73
853.397	70.82
853.69	69.45
853.983	81.85
854.276	54.42
854.569	82.73
854.861	65.11
855.154	86.58
855.447	43.82
855.739	66.54
856.032	51.18
856.324	72.43
856.616	83.86
856.909	75.59
857.201	63.89
857.493	72.11
857.785	68.17
858.077	73.45
858.369	92.72
858.661	85.91
858.953	73.51
859.245	82.14
859.537	63.16
859.829	80.06
860.12	66.64
860.412	87.12
860.703	88.95
860.995	107.08
861.286	67.92
861.578	65.41
861.869	65.76
862.16	80.2
862.452	68.84
862.743	70.67
863.034	46.67
863.325	79.55
863.616	60.23
863.907	76.39
864.198	69.51
864.488	82.79
864.779	97.54
865.07	57.81
865.36	62.92
865.651	64.48
865.941	78.39
866.232	92.44
866.522	54.93
866.813	79.35
867.103	77.9
867.393	72.41
867.683	60.08
867.973	74.67
868.263	69.44
868.553	75.28
868.843	110.77
869.133	75.07
869.423	65.22
869.713	83.59
870.002	92.32
870.292	65.61
870.582	77.51
870.871	78.92
871.161	68.05
871.45	62
871.739	68.61
872.029	64.86
872.318	72.78
872.607	87.09
872.896	70.39
873.185	93.39
873.474	88.68
873.763	60.53
874.052	55.54
874.341	70.37
874.63	68.49
874.918	61.44
875.207	73.17
875.496	87.42
875.784	62.77
876.073	73.04
876.361	72.2
876.649	51.19
876.938	79.65
877.226	78.24
877.514	66.54
877.802	73.14
878.09	72.68
878.378	97.01
878.666	76.09
878.954	47.23
879.242	74.83
879.53	78.54
879.817	65.42
880.105	54.23
880.392	68.13
880.68	60.88
880.967	80.43
881.255	80.2
881.542	80.88
881.83	84.85
882.117	81.22
882.404	73.52
882.691	80.37
882.978	107.84
883.265	65.31
883.552	75.75
883.839	58.16
884.126	66.94
884.413	75
884.699	72.48
884.986	85.91
885.273	71.15
885.559	71.15
885.846	71.15
