Data from 21-4_forehead_Reflection__4__149.txt Node

Date: Thu Dec 15 17:38:29 CST 2022
User: ToomeyLab
Spectrometer: FLMS14357
Trigger mode: 0
Integration Time (sec): 1.000000E-2
Scans to average: 100
Electric dark correction enabled: true
Nonlinearity correction enabled: false
Boxcar width: 0
XAxis mode: Wavelengths
Number of Pixels in Spectrum: 2048
>>>>>Begin Spectral Data<<<<<
189.047	-39.16
189.435	-39.16
189.823	-39.16
190.211	-100.39
190.599	159
190.987	73.67
191.375	39.04
191.763	54.45
192.151	94.84
192.538	37.8
192.926	64.78
193.314	9.74
193.702	339.35
194.089	116.17
194.477	240
194.864	-276.49
195.252	40.14
195.639	79.78
196.027	59.18
196.414	-67.71
196.801	685.16
197.189	398.64
197.576	-173.35
197.963	-723.34
198.351	-14.98
198.738	-31.71
199.125	14.02
199.512	16.16
199.899	-4.14
200.286	-33.21
200.673	55.05
201.06	-42.35
201.447	-37.29
201.833	53.04
202.22	-23.68
202.607	-32.78
202.994	18.48
203.38	17.83
203.767	27.02
204.154	40.98
204.54	53.33
204.927	43.81
205.313	11.52
205.699	-11.71
206.086	71.75
206.472	24.38
206.858	27.86
207.245	15.83
207.631	4.51
208.017	29.34
208.403	-35.08
208.789	25.51
209.175	-9.36
209.561	-91.03
209.947	-0.29
210.333	-12.41
210.719	25.84
211.105	10.58
211.491	17.3
211.876	-36.61
212.262	4.41
212.648	-9.65
213.034	-6.45
213.419	11.2
213.805	-27.05
214.19	-12.6
214.576	12.59
214.961	37.68
215.346	-9.69
215.732	16.35
216.117	2.71
216.502	12.49
216.888	9.94
217.273	23.4
217.658	0.66
218.043	-36.28
218.428	-3.61
218.813	-6.37
219.198	-8.4
219.583	7.74
219.968	17.92
220.353	-5.52
220.738	-4.35
221.122	0.48
221.507	-3.86
221.892	-13.89
222.276	-13.81
222.661	-20.28
223.046	-6.41
223.43	8.75
223.815	-2.78
224.199	-3.34
224.583	11.89
224.968	4.72
225.352	-6.22
225.736	4.6
226.121	-1.9
226.505	-2.93
226.889	7.12
227.273	-1.23
227.657	6.95
228.041	0
228.425	2.59
228.809	3.77
229.193	1.33
229.577	4.23
229.961	3.27
230.344	4.28
230.728	4
231.112	4.73
231.495	3
231.879	3.81
232.263	3.14
232.646	3.37
233.03	4.77
233.413	4.32
233.797	2.32
234.18	3.67
234.563	3.83
234.946	1.07
235.33	3.56
235.713	3.29
236.096	5.38
236.479	4.51
236.862	3.26
237.245	2.93
237.628	4.21
238.011	3.04
238.394	1.92
238.777	5.09
239.16	5.63
239.543	5.31
239.925	3.05
240.308	4.88
240.691	4.45
241.073	2.8
241.456	3.55
241.838	3.39
242.221	3.43
242.603	3.8
242.986	4.02
243.368	4.49
243.75	4.05
244.133	4.33
244.515	3.85
244.897	4.33
245.279	4.61
245.661	4.1
246.043	4.25
246.425	4.84
246.807	4.09
247.189	4.48
247.571	4.22
247.953	3.78
248.335	4.17
248.717	4.08
249.098	4.39
249.48	4.15
249.862	4.46
250.243	4.18
250.625	4.56
251.006	4.68
251.388	4.25
251.769	4.46
252.151	4.3
252.532	4.55
252.913	3.92
253.295	4.07
253.676	4.55
254.057	4.11
254.438	4.77
254.819	4.85
255.2	4.7
255.581	6.78
255.962	5.28
256.343	4.06
256.724	4.52
257.105	3.81
257.486	3.25
257.867	3.84
258.247	4.64
258.628	4.15
259.009	4.08
259.389	3.61
259.77	3.68
260.15	4.93
260.531	4.3
260.911	4.36
261.292	4.37
261.672	4.16
262.052	4.2
262.432	4.12
262.813	4.44
263.193	4.61
263.573	4.66
263.953	3.75
264.333	4.67
264.713	4.13
265.093	4.07
265.473	2.78
265.853	3.86
266.233	4.73
266.612	4.41
266.992	4.15
267.372	3.91
267.752	4.99
268.131	3.81
268.511	4.48
268.89	4.93
269.27	3.97
269.649	3.47
270.029	3.78
270.408	4.45
270.787	3.86
271.167	4.73
271.546	5.04
271.925	4.8
272.304	4.27
272.683	4.11
273.062	4.06
273.441	3.4
273.82	4.35
274.199	3.89
274.578	4.5
274.957	4.03
275.336	4
275.715	4.63
276.093	4.33
276.472	3.9
276.851	4.86
277.229	4.35
277.608	3.98
277.986	4.38
278.365	4.23
278.743	4
279.122	3.85
279.5	4.42
279.878	3.81
280.257	4.01
280.635	3.86
281.013	3.79
281.391	4.14
281.769	4.65
282.147	4.02
282.525	4.36
282.903	4.06
283.281	4.66
283.659	4.61
284.037	4.05
284.415	3.82
284.792	4.43
285.17	3.64
285.548	4.03
285.925	4.06
286.303	4.5
286.68	4.45
287.058	4.48
287.435	4.35
287.813	4.5
288.19	4.1
288.567	4.2
288.945	4.45
289.322	4.36
289.699	4.25
290.076	4.52
290.453	4.63
290.83	4.78
291.207	4.35
291.584	4.91
291.961	4.96
292.338	4.52
292.715	4.85
293.092	5.13
293.469	5.03
293.845	5.38
294.222	5.39
294.599	4.54
294.975	4.33
295.352	5.15
295.728	5.19
296.105	5.27
296.481	5.04
296.858	5.19
297.234	4.88
297.61	5.55
297.986	5.65
298.363	5.6
298.739	5.4
299.115	5.42
299.491	5.81
299.867	5.5
300.243	5.6
300.619	5.31
300.995	5.87
301.371	5.89
301.746	5.86
302.122	5.36
302.498	5.55
302.874	5.74
303.249	5.75
303.625	5.2
304	5.92
304.376	6.22
304.751	6.18
305.127	5.49
305.502	6.23
305.878	6.26
306.253	5.67
306.628	6.14
307.003	5.84
307.378	6.14
307.754	6.12
308.129	6.29
308.504	6.4
308.879	6.54
309.254	6.72
309.629	6.35
310.003	6.22
310.378	6.96
310.753	6.14
311.128	6.28
311.502	6.59
311.877	6.8
312.252	6.7
312.626	7.29
313.001	7.06
313.375	6.89
313.75	7.03
314.124	7.42
314.498	7.43
314.873	6.84
315.247	6.99
315.621	6.69
315.995	6.92
316.369	6.76
316.743	6.78
317.117	6.74
317.491	7.76
317.865	6.97
318.239	8.07
318.613	7.19
318.987	7.4
319.361	7.46
319.734	7.74
320.108	7.33
320.482	7.94
320.855	7.96
321.229	7.93
321.602	8.05
321.976	7.97
322.349	8.34
322.723	8.02
323.096	7.83
323.469	7.68
323.843	7.52
324.216	7.65
324.589	8.43
324.962	7.49
325.335	8.03
325.708	8.45
326.081	8.25
326.454	8.66
326.827	8.13
327.2	8.06
327.573	8.7
327.945	8.38
328.318	8.32
328.691	8.61
329.063	8.09
329.436	8.28
329.809	8.88
330.181	8.65
330.553	8.7
330.926	8.68
331.298	8.16
331.671	9.04
332.043	8.18
332.415	8.76
332.787	9.16
333.159	8.26
333.532	8.99
333.904	8.71
334.276	9.1
334.648	8.93
335.02	8.67
335.391	8.69
335.763	8.99
336.135	9.06
336.507	8.49
336.879	9.08
337.25	9.29
337.622	9.48
337.993	9.2
338.365	9.13
338.736	9.01
339.108	9.4
339.479	9.18
339.851	9.46
340.222	9.61
340.593	9.15
340.964	9.45
341.336	8.8
341.707	9.3
342.078	9.77
342.449	9.19
342.82	9.01
343.191	9.67
343.562	9.73
343.933	9.03
344.303	9.89
344.674	9.71
345.045	9.48
345.416	9.84
345.786	9.5
346.157	10.09
346.527	9.76
346.898	9.65
347.268	9.84
347.639	9.9
348.009	10.31
348.38	10.1
348.75	10.07
349.12	10.15
349.49	10.22
349.861	9.88
350.231	9.81
350.601	9.9
350.971	10.09
351.341	10.5
351.711	10.12
352.081	9.88
352.45	10.04
352.82	9.69
353.19	10.09
353.56	10.21
353.929	9.94
354.299	10.39
354.669	10.75
355.038	10.37
355.408	10.48
355.777	10.4
356.147	10.72
356.516	10.57
356.885	10.56
357.254	10.2
357.624	10.27
357.993	10.27
358.362	10.65
358.731	10.72
359.1	10.75
359.469	10.82
359.838	10.76
360.207	10.97
360.576	10.69
360.945	10.87
361.314	10.89
361.682	10.56
362.051	10.79
362.42	10.8
362.788	10.84
363.157	10.79
363.525	10.87
363.894	10.74
364.262	11.07
364.631	11.11
364.999	10.95
365.367	10.89
365.735	11.03
366.104	10.72
366.472	10.98
366.84	10.87
367.208	11.15
367.576	10.96
367.944	11.21
368.312	11.56
368.68	11.59
369.048	11.12
369.416	11.35
369.783	11.3
370.151	11.8
370.519	11.76
370.886	11.57
371.254	12.04
371.621	11.66
371.989	12.1
372.356	11.84
372.724	11.6
373.091	11.69
373.458	11.86
373.826	12.02
374.193	11.83
374.56	12.02
374.927	11.77
375.294	12.11
375.661	12.15
376.028	11.92
376.395	11.97
376.762	11.98
377.129	11.89
377.496	11.88
377.863	12.24
378.229	12.2
378.596	12.63
378.963	11.99
379.329	12.03
379.696	12.06
380.062	12.46
380.429	11.77
380.795	12.45
381.161	12.07
381.528	12.14
381.894	12.21
382.26	12.43
382.626	12.53
382.993	12.67
383.359	12.37
383.725	12.2
384.091	12.7
384.457	12.41
384.823	12.6
385.188	12.84
385.554	12.87
385.92	12.47
386.286	12.47
386.651	12.48
387.017	12.71
387.383	12.9
387.748	12.78
388.114	12.9
388.479	12.85
388.845	12.59
389.21	13.05
389.575	12.89
389.94	12.93
390.306	12.95
390.671	13.03
391.036	12.95
391.401	12.99
391.766	12.86
392.131	13.43
392.496	13.07
392.861	13.08
393.226	13.06
393.591	13.25
393.956	13.09
394.32	13.36
394.685	13.07
395.05	13.33
395.414	13.39
395.779	13.34
396.143	13.1
396.508	12.99
396.872	13.42
397.236	13.61
397.601	13.46
397.965	13.42
398.329	13.68
398.694	13.29
399.058	13.29
399.422	13.4
399.786	13.39
400.15	13.63
400.514	13.63
400.878	13.48
401.242	13.55
401.605	13.65
401.969	13.56
402.333	13.61
402.697	14.03
403.06	13.81
403.424	13.79
403.787	13.9
404.151	13.82
404.514	13.82
404.878	13.87
405.241	13.92
405.604	13.8
405.968	13.78
406.331	13.96
406.694	14.04
407.057	14.06
407.42	14.05
407.783	14.1
408.146	13.96
408.509	14.24
408.872	14.12
409.235	14.39
409.598	14.11
409.961	14.2
410.323	14.04
410.686	14.1
411.049	14.32
411.411	14.45
411.774	14.29
412.136	14.25
412.499	14.35
412.861	13.99
413.223	14.29
413.586	14.69
413.948	14.44
414.31	14.54
414.672	14.39
415.035	14.94
415.397	14.52
415.759	14.37
416.121	14.76
416.483	14.79
416.845	14.78
417.206	14.58
417.568	14.66
417.93	14.49
418.292	14.65
418.653	14.51
419.015	14.71
419.377	14.64
419.738	14.76
420.1	14.61
420.461	14.61
420.822	14.69
421.184	14.66
421.545	14.81
421.906	14.77
422.267	14.64
422.629	14.66
422.99	14.52
423.351	14.63
423.712	14.83
424.073	14.99
424.434	14.95
424.795	14.78
425.155	14.84
425.516	14.75
425.877	14.75
426.238	14.87
426.598	14.93
426.959	15.19
427.32	15.18
427.68	15.3
428.041	15.33
428.401	15.24
428.761	15.43
429.122	15.42
429.482	15.52
429.842	15.32
430.202	15.69
430.563	15.6
430.923	15.55
431.283	15.74
431.643	15.83
432.003	15.79
432.363	15.76
432.722	15.69
433.082	15.74
433.442	15.74
433.802	15.81
434.161	15.76
434.521	15.77
434.881	15.82
435.24	15.88
435.6	15.98
435.959	15.89
436.319	15.97
436.678	16.09
437.037	16.15
437.396	16.07
437.756	16.06
438.115	16.14
438.474	16.14
438.833	16.07
439.192	16.23
439.551	16.13
439.91	16.3
440.269	16.2
440.628	16.14
440.987	16.19
441.345	16.35
441.704	16.18
442.063	16.27
442.421	16.27
442.78	16.24
443.138	16.38
443.497	16.45
443.855	16.6
444.214	16.38
444.572	16.8
444.93	16.36
445.288	16.61
445.647	16.5
446.005	16.65
446.363	16.62
446.721	16.68
447.079	16.52
447.437	16.51
447.795	16.49
448.153	16.54
448.51	16.69
448.868	16.53
449.226	16.72
449.584	16.73
449.941	16.98
450.299	16.88
450.656	17.05
451.014	17.09
451.371	17.22
451.729	17.12
452.086	17.36
452.443	17.3
452.801	17.22
453.158	17.5
453.515	17.14
453.872	17.12
454.229	17.23
454.586	17.21
454.943	17.43
455.3	17.54
455.657	17.46
456.014	17.46
456.371	17.44
456.727	17.68
457.084	17.63
457.441	17.71
457.797	17.8
458.154	17.63
458.51	17.6
458.867	17.71
459.223	17.58
459.58	17.83
459.936	17.77
460.292	17.59
460.648	17.52
461.005	17.46
461.361	17.46
461.717	17.48
462.073	17.76
462.429	17.83
462.785	18.2
463.141	18
463.496	18.24
463.852	18.13
464.208	18.18
464.564	18.27
464.919	18.06
465.275	18.28
465.631	18.6
465.986	18.37
466.342	18.13
466.697	18.23
467.052	18.46
467.408	18.42
467.763	18.49
468.118	18.32
468.473	18.4
468.829	18.39
469.184	18.67
469.539	18.54
469.894	18.66
470.249	18.78
470.603	18.89
470.958	18.72
471.313	18.63
471.668	18.91
472.023	18.76
472.377	18.82
472.732	19.07
473.086	18.64
473.441	18.89
473.795	19.11
474.15	18.78
474.504	18.95
474.859	18.86
475.213	19.09
475.567	18.86
475.921	19.12
476.275	19.32
476.63	19.18
476.984	19.14
477.338	19.23
477.692	19.18
478.045	19.34
478.399	19.17
478.753	19.14
479.107	19.31
479.461	19.22
479.814	19.24
480.168	19.31
480.521	19.42
480.875	19.35
481.228	19.6
481.582	19.5
481.935	19.5
482.289	19.51
482.642	19.64
482.995	19.5
483.348	19.24
483.701	19.47
484.055	19.28
484.408	19.1
484.761	18.8
485.114	18.61
485.466	18.46
485.819	18.6
486.172	18.93
486.525	19.27
486.878	19.5
487.23	19.57
487.583	19.54
487.936	19.57
488.288	19.29
488.641	19.14
488.993	19
489.345	19.11
489.698	19.23
490.05	19.37
490.402	19.56
490.754	19.89
491.107	19.98
491.459	20.04
491.811	20.06
492.163	19.99
492.515	19.84
492.866	19.48
493.218	19.31
493.57	19.54
493.922	19.89
494.274	20.21
494.625	20.33
494.977	20.34
495.328	20.56
495.68	20.74
496.031	20.68
496.383	20.57
496.734	20.7
497.086	20.81
497.437	20.71
497.788	20.75
498.139	20.6
498.49	20.61
498.842	20.72
499.193	20.73
499.544	20.96
499.894	20.83
500.245	21.02
500.596	21.03
500.947	21.14
501.298	21.19
501.648	21.19
501.999	21.45
502.35	21.22
502.7	21.54
503.051	21.37
503.401	21.33
503.752	21.45
504.102	21.26
504.452	21.35
504.803	21.35
505.153	21.54
505.503	21.57
505.853	21.54
506.203	21.57
506.553	21.57
506.903	21.56
507.253	21.81
507.603	21.79
507.953	21.65
508.303	21.73
508.652	21.64
509.002	21.77
509.352	21.75
509.701	21.6
510.051	21.79
510.4	21.78
510.75	21.62
511.099	21.69
511.449	21.85
511.798	21.83
512.147	21.87
512.496	22.03
512.846	22.08
513.195	22.14
513.544	22.15
513.893	22.02
514.242	22.09
514.591	22.21
514.939	22.32
515.288	22.33
515.637	22.26
515.986	22.34
516.334	22.5
516.683	22.48
517.032	22.59
517.38	22.49
517.729	22.53
518.077	22.66
518.426	22.46
518.774	22.43
519.122	22.35
519.47	22.33
519.819	22.24
520.167	22.22
520.515	22.33
520.863	22.32
521.211	22.57
521.559	22.7
521.907	22.82
522.255	22.82
522.602	22.94
522.95	23.12
523.298	23.04
523.645	23.15
523.993	23.09
524.341	23.02
524.688	23.12
525.036	23.19
525.383	23.07
525.73	23.13
526.078	23.15
526.425	22.99
526.772	22.82
527.119	22.84
527.466	22.78
527.814	22.89
528.161	23.19
528.508	23.12
528.854	23.03
529.201	22.92
529.548	22.72
529.895	22.42
530.242	22.19
530.588	22.49
530.935	22.86
531.282	23.1
531.628	23.38
531.975	23.41
532.321	23.49
532.667	23.62
533.014	23.71
533.36	23.56
533.706	23.51
534.052	23.54
534.399	23.26
534.745	22.97
535.091	22.95
535.437	23.28
535.783	23.66
536.129	23.86
536.474	24.11
536.82	24.14
537.166	24.04
537.512	24
537.857	23.73
538.203	23.59
538.549	23.69
538.894	23.97
539.239	24.3
539.585	24.42
539.93	24.43
540.276	24.55
540.621	24.8
540.966	24.74
541.311	24.42
541.656	24.49
542.001	24.16
542.346	23.97
542.691	23.65
543.036	23.63
543.381	23.79
543.726	24.14
544.071	24.42
544.415	24.52
544.76	24.54
545.105	24.52
545.449	24.76
545.794	24.81
546.138	24.81
546.483	25
546.827	25.09
547.171	25.04
547.516	24.96
547.86	24.95
548.204	25.07
548.548	24.88
548.892	25.04
549.236	25.31
549.58	25.38
549.924	25.68
550.268	25.63
550.612	25.68
550.956	26.02
551.3	25.92
551.643	25.68
551.987	25.79
552.33	25.98
552.674	25.8
553.017	25.97
553.361	25.95
553.704	26.02
554.048	25.85
554.391	25.72
554.734	25.89
555.077	25.99
555.42	26.05
555.764	26.19
556.107	26.36
556.45	26.52
556.793	26.48
557.135	26.25
557.478	26.54
557.821	26.44
558.164	26.52
558.507	26.32
558.849	26.64
559.192	26.41
559.534	26.56
559.877	26.6
560.219	26.38
560.562	26.63
560.904	26.65
561.246	26.69
561.589	27.03
561.931	27.1
562.273	26.83
562.615	26.58
562.957	26.74
563.299	26.96
563.641	27.01
563.983	27.09
564.325	27.09
564.667	27.18
565.008	27.06
565.35	26.97
565.692	27.18
566.033	27.29
566.375	27.2
566.716	27.01
567.058	27.24
567.399	27.18
567.741	26.84
568.082	27.1
568.423	27.05
568.764	27.18
569.105	27.63
569.447	27.67
569.788	27.68
570.129	27.78
570.47	27.55
570.811	27.56
571.151	27.55
571.492	27.9
571.833	27.55
572.174	27.81
572.514	27.64
572.855	27.72
573.195	27.59
573.536	27.6
573.876	27.53
574.217	27.53
574.557	27.84
574.898	27.84
575.238	28.16
575.578	28.02
575.918	27.91
576.258	28.03
576.598	27.93
576.938	28.03
577.278	28.22
577.618	27.99
577.958	28.35
578.298	28.28
578.638	28.25
578.977	28.41
579.317	28.52
579.657	28.47
579.996	28.61
580.336	28.55
580.675	28.52
581.014	28.78
581.354	28.84
581.693	28.78
582.032	28.87
582.372	28.95
582.711	28.83
583.05	28.94
583.389	28.94
583.728	29.18
584.067	29.03
584.406	29.12
584.745	29.2
585.083	29.05
585.422	29.34
585.761	29.11
586.1	29.45
586.438	29.05
586.777	29.24
587.115	29.17
587.454	29.04
587.792	29.23
588.13	29.33
588.469	29.14
588.807	29.71
589.145	29.52
589.483	29.11
589.821	29.62
590.159	29.64
590.497	29.89
590.835	29.42
591.173	29.71
591.511	29.74
591.849	29.77
592.187	29.64
592.524	29.74
592.862	29.93
593.2	29.6
593.537	29.71
593.875	29.74
594.212	30.04
594.55	30.02
594.887	30.15
595.224	30.03
595.561	30.11
595.899	30.11
596.236	30.04
596.573	29.93
596.91	29.99
597.247	30.33
597.584	30.38
597.921	30.03
598.258	29.7
598.594	29.87
598.931	29.81
599.268	29.91
599.604	30.28
599.941	30.32
600.277	30.43
600.614	30.86
600.95	30.52
601.287	30.2
601.623	30.49
601.959	30.52
602.296	30.45
602.632	30.41
602.968	30.54
603.304	30.29
603.64	30.69
603.976	30.58
604.312	30.52
604.648	30.69
604.984	30.62
605.319	30.53
605.655	30.54
605.991	30.58
606.326	30.37
606.662	30.5
606.998	30.86
607.333	30.81
607.668	31.08
608.004	30.99
608.339	31.23
608.674	31.21
609.01	31.04
609.345	31.06
609.68	31.25
610.015	31.25
610.35	31.2
610.685	30.93
611.02	30.71
611.355	30.99
611.689	31.02
612.024	31.37
612.359	31.32
612.694	31.47
613.028	31.37
613.363	31.55
613.697	31.79
614.032	31.52
614.366	31.57
614.7	31.67
615.035	31.88
615.369	31.96
615.703	31.82
616.037	32.06
616.371	31.74
616.705	32.03
617.039	31.76
617.373	32.03
617.707	32
618.041	32.11
618.375	31.42
618.709	32.68
619.042	31.98
619.376	32.18
619.71	32.19
620.043	32.24
620.377	32.14
620.71	32.38
621.043	32.21
621.377	32.18
621.71	32.63
622.043	32.39
622.376	32.29
622.709	32.6
623.043	32.54
623.376	32.55
623.709	32.29
624.041	32.14
624.374	32.43
624.707	32.33
625.04	32.55
625.373	32.45
625.705	32.57
626.038	32.92
626.37	32.59
626.703	32.6
627.035	32.52
627.368	32.75
627.7	32.61
628.032	32.48
628.365	32.3
628.697	32.85
629.029	32.62
629.361	32.93
629.693	32.89
630.025	32.73
630.357	33.06
630.689	33.01
631.021	33.08
631.353	33.32
631.684	32.73
632.016	32.94
632.348	32.65
632.679	33.42
633.011	33.24
633.342	33.29
633.674	33.39
634.005	33.44
634.336	33.41
634.668	33.01
634.999	33.05
635.33	33.46
635.661	33.26
635.992	33.49
636.323	33.36
636.654	33.3
636.985	33.59
637.316	33.58
637.647	33.74
637.977	33.52
638.308	34.03
638.639	33.6
638.969	33.56
639.3	33.76
639.63	33.97
639.961	33.84
640.291	33.71
640.622	34
640.952	34.39
641.282	33.95
641.612	33.83
641.943	33.42
642.273	33.8
642.603	34.03
642.933	34.32
643.263	34.14
643.592	34.23
643.922	34.33
644.252	34.24
644.582	34.39
644.911	34.01
645.241	33.95
645.571	34.98
645.9	34.36
646.23	34.47
646.559	34.35
646.888	35.02
647.218	34.32
647.547	34.52
647.876	34.1
648.205	34.33
648.534	34.58
648.863	34.68
649.192	34.39
649.521	34.9
649.85	34.88
650.179	34.96
650.508	34.35
650.837	35.3
651.165	34.61
651.494	34.67
651.822	35.18
652.151	34.5
652.479	34.81
652.808	34.47
653.136	34.29
653.465	34.73
653.793	35.24
654.121	35.1
654.449	34.88
654.777	34.44
655.105	34.43
655.433	35.14
655.761	35.31
656.089	35.22
656.417	35.81
656.745	35
657.073	34.82
657.4	35.04
657.728	34.68
658.056	34.81
658.383	35.23
658.711	35.18
659.038	35.62
659.365	35.44
659.693	35.23
660.02	35.17
660.347	35.32
660.674	34.98
661.001	35.26
661.329	35.24
661.656	35.16
661.982	35.17
662.309	35.67
662.636	35.69
662.963	35.62
663.29	35.94
663.616	35.95
663.943	36.12
664.27	36.02
664.596	36.23
664.923	36.22
665.249	35.55
665.576	36.03
665.902	35.76
666.228	35.71
666.554	36.89
666.881	35.93
667.207	35.54
667.533	35.67
667.859	36.62
668.185	35.97
668.511	35.5
668.837	35.97
669.162	36.35
669.488	36.09
669.814	35.78
670.139	35.96
670.465	36.42
670.791	36.73
671.116	36.19
671.442	35.94
671.767	36.66
672.092	35.88
672.418	36.68
672.743	36.74
673.068	35.37
673.393	36.29
673.718	36.44
674.043	36.71
674.368	36.35
674.693	36.87
675.018	36.62
675.343	36.77
675.667	35.97
675.992	36.53
676.317	35.61
676.641	37.11
676.966	36.49
677.29	36.09
677.615	37.06
677.939	36.42
678.264	36.43
678.588	36.62
678.912	36.67
679.236	36.85
679.56	36.48
679.885	36.69
680.209	36.74
680.532	36.99
680.856	36.7
681.18	37.15
681.504	36.26
681.828	36.26
682.152	36.45
682.475	36.7
682.799	37.35
683.122	37.03
683.446	36.68
683.769	37.22
684.093	37.16
684.416	37.39
684.739	36.7
685.062	36.92
685.386	38.01
685.709	37.25
686.032	37.05
686.355	37.11
686.678	37.26
687.001	37.76
687.324	37.06
687.646	37.1
687.969	37.26
688.292	37.37
688.614	37.55
688.937	37.35
689.26	37.44
689.582	38.05
689.904	37.28
690.227	38.03
690.549	37.82
690.871	37.32
691.194	37.26
691.516	37.19
691.838	37.55
692.16	37.42
692.482	37.15
692.804	36.97
693.126	37.05
693.448	37.85
693.769	38.07
694.091	37.74
694.413	37.93
694.735	37.74
695.056	36.97
695.378	37.96
695.699	37.5
696.021	38.06
696.342	37.93
696.663	38.28
696.984	37.46
697.306	37.44
697.627	38.77
697.948	38.14
698.269	38.19
698.59	37.21
698.911	37.48
699.232	38.05
699.553	38.7
699.873	38.17
700.194	37.31
700.515	38.09
700.835	37.44
701.156	38.74
701.477	38.01
701.797	38.27
702.117	38.5
702.438	38.74
702.758	38.69
703.078	38.58
703.398	38.22
703.719	38.16
704.039	38.16
704.359	37.49
704.679	39.28
704.999	38.74
705.319	37.64
705.638	38.07
705.958	38.27
706.278	39.5
706.597	39.06
706.917	38.33
707.237	38.34
707.556	39.02
707.876	40.15
708.195	39.21
708.514	39.94
708.834	38.77
709.153	39.28
709.472	38.84
709.791	38.03
710.11	38.52
710.429	39
710.748	39.3
711.067	38.8
711.386	38.85
711.705	40.35
712.023	39.91
712.342	38.82
712.661	39.39
712.979	39.81
713.298	38.88
713.616	39.3
713.935	38.19
714.253	38.48
714.572	39.93
714.89	39.4
715.208	40.18
715.526	40.35
715.844	39.63
716.162	38.4
716.48	38.5
716.798	39.37
717.116	39.22
717.434	39.61
717.752	40.44
718.069	39.56
718.387	39.41
718.705	38.79
719.022	39.3
719.34	38.32
719.657	40.06
719.975	38.3
720.292	39.19
720.609	38.07
720.927	38.21
721.244	39.48
721.561	38.8
721.878	39.4
722.195	40.83
722.512	40.93
722.829	38.65
723.146	39.54
723.463	39.28
723.779	38.94
724.096	38.13
724.413	40.01
724.729	40
725.046	40.51
725.362	40.21
725.679	39.32
725.995	39.56
726.311	39.63
726.628	38.9
726.944	39.9
727.26	39.27
727.576	39.19
727.892	39.53
728.208	39.48
728.524	37.96
728.84	41.17
729.156	39.51
729.472	39.18
729.787	40.72
730.103	40.19
730.419	40.05
730.734	39.78
731.05	40.07
731.365	40.54
731.681	40.88
731.996	40.42
732.311	40.38
732.626	40.52
732.942	39.22
733.257	39.16
733.572	40.35
733.887	40.55
734.202	40.87
734.517	40.46
734.832	39.72
735.146	40.41
735.461	40.46
735.776	40.85
736.091	42.02
736.405	41
736.72	39.44
737.034	41.32
737.349	40.65
737.663	41.83
737.977	41.54
738.292	39.83
738.606	42.12
738.92	40.6
739.234	39.4
739.548	40.77
739.862	42.51
740.176	40.5
740.49	40.61
740.804	41.59
741.117	41.5
741.431	40.84
741.745	41.27
742.058	40.63
742.372	41.43
742.685	42.6
742.999	40
743.312	41.59
743.626	40.23
743.939	42.09
744.252	39.02
744.565	41.05
744.878	39.64
745.191	41.95
745.505	40.29
745.817	39.57
746.13	41.14
746.443	40.44
746.756	42.03
747.069	40.94
747.381	40.8
747.694	39.44
748.007	42.01
748.319	41.41
748.632	39.27
748.944	39.97
749.256	41.19
749.569	39.57
749.881	39.34
750.193	40.52
750.505	39.77
750.817	41.33
751.129	40.28
751.441	41.83
751.753	43.05
752.065	42.72
752.377	42.35
752.689	39.91
753	41.52
753.312	40.31
753.624	41.28
753.935	41.79
754.247	41.29
754.558	41.83
754.869	40.77
755.181	40.02
755.492	40.5
755.803	42.48
756.114	41.49
756.425	41.17
756.736	43.59
757.047	42.54
757.358	42.47
757.669	42.5
757.98	41.85
758.291	41.4
758.601	43.64
758.912	43.21
759.223	41.36
759.533	40.77
759.844	40.29
760.154	42.57
760.464	42.24
760.775	42.67
761.085	42.45
761.395	41.79
761.705	42.43
762.016	43.61
762.326	44.2
762.636	42.76
762.945	42.45
763.255	41.39
763.565	40.45
763.875	41.22
764.185	43.35
764.494	41.73
764.804	40.5
765.113	41.65
765.423	41.5
765.732	42.23
766.042	43.46
766.351	43.99
766.66	43.35
766.97	43.19
767.279	42.7
767.588	42.03
767.897	41.82
768.206	42.5
768.515	42.14
768.824	44.59
769.133	41.81
769.441	42.63
769.75	42.26
770.059	43.07
770.367	45.16
770.676	41.47
770.984	40.58
771.293	41.75
771.601	40.46
771.91	42.06
772.218	41.16
772.526	43.55
772.834	40.59
773.142	42.51
773.45	43.18
773.758	42.56
774.066	46.08
774.374	42.54
774.682	39.7
774.99	39.96
775.298	42.28
775.605	40.7
775.913	43.67
776.22	40.87
776.528	40.7
776.835	41.98
777.143	45.38
777.45	43.28
777.757	45.48
778.065	41.33
778.372	40.59
778.679	45.87
778.986	43.5
779.293	42.62
779.6	45.67
779.907	45.93
780.214	44.09
780.52	43.25
780.827	43.99
781.134	44.56
781.44	46.22
781.747	42.55
782.053	42.02
782.36	42.87
782.666	41.51
782.973	37.04
783.279	41.25
783.585	42.53
783.891	44.05
784.197	40.75
784.503	43.03
784.809	44.08
785.115	43.62
785.421	45.12
785.727	41.54
786.033	43.06
786.339	42.55
786.644	40.98
786.95	41.86
787.255	43.53
787.561	39.88
787.866	43.37
788.172	41.17
788.477	42.01
788.782	40.65
789.088	39.19
789.393	46.16
789.698	39.71
790.003	45.5
790.308	41.92
790.613	39.81
790.918	43.66
791.223	45.42
791.527	41.89
791.832	45.34
792.137	46.68
792.441	43.74
792.746	44.25
793.05	45.28
793.355	47.37
793.659	45.44
793.963	44.03
794.268	43.26
794.572	41.85
794.876	45.01
795.18	43.76
795.484	45.59
795.788	46.95
796.092	40.61
796.396	44.6
796.7	43.13
797.004	40.34
797.307	40.13
797.611	45.99
797.915	45.11
798.218	42.45
798.522	45.39
798.825	44.96
799.128	44.99
799.432	41.01
799.735	45.01
800.038	43.26
800.341	44.79
800.644	41.6
800.947	38.89
801.25	39.65
801.553	42.2
801.856	47.62
802.159	42.93
802.462	42.43
802.764	41.44
803.067	43.21
803.37	45.01
803.672	44.07
803.975	44.12
804.277	41.93
804.579	44.13
804.882	46.97
805.184	46.67
805.486	47.63
805.788	48.87
806.09	44.98
806.392	44.67
806.694	44.87
806.996	47.65
807.298	44.38
807.6	42.73
807.902	46.82
808.203	42.01
808.505	47
808.807	45.99
809.108	46.9
809.409	44.8
809.711	45.11
810.012	47.69
810.313	43.84
810.615	43.25
810.916	40.75
811.217	41.14
811.518	44.56
811.819	45.29
812.12	46.6
812.421	44.93
812.722	46.28
813.023	44.88
813.323	45.7
813.624	46.74
813.925	41.11
814.225	46.29
814.526	45.43
814.826	43.75
815.126	46.98
815.427	40.23
815.727	43.83
816.027	46.13
816.327	44.88
816.627	41.97
816.927	40.84
817.227	48.16
817.527	49.52
817.827	44.83
818.127	43.67
818.427	44.86
818.727	44.25
819.026	45.64
819.326	41.14
819.625	46.02
819.925	44.44
820.224	44.81
820.524	45.89
820.823	46.83
821.122	43.47
821.421	43.48
821.72	42.9
822.019	45.04
822.318	44.14
822.617	47.12
822.916	40.84
823.215	46.48
823.514	47.18
823.813	45.14
824.111	44.54
824.41	44.19
824.709	44.6
825.007	47.38
825.306	46.55
825.604	46.91
825.902	47.51
826.201	48.18
826.499	49.54
826.797	48.47
827.095	49.75
827.393	50.02
827.691	49.1
827.989	48.62
828.287	48.12
828.585	48.42
828.882	46.84
829.18	47.29
829.478	46.81
829.775	45.88
830.073	47.18
830.37	45.57
830.668	48.76
830.965	49.39
831.263	47.58
831.56	49.3
831.857	50.53
832.154	50.16
832.451	48.83
832.748	47.54
833.045	51.76
833.342	44.35
833.639	45.48
833.936	41.18
834.232	44.19
834.529	43.13
834.826	48.35
835.122	46.38
835.419	45.78
835.715	47.25
836.012	44.02
836.308	46.14
836.604	48.8
836.901	47.2
837.197	48.71
837.493	45.97
837.789	49.86
838.085	43.74
838.381	46.25
838.677	46.06
838.972	42.06
839.268	49.04
839.564	51.33
839.86	42.39
840.155	45.13
840.451	52.02
840.746	51.03
841.042	40.33
841.337	42.68
841.632	37.71
841.928	44.74
842.223	41.51
842.518	41.29
842.813	39.89
843.108	47.47
843.403	44.93
843.698	50.9
843.993	57.48
844.287	44.43
844.582	48.09
844.877	42.96
845.171	44.57
845.466	45.89
845.761	42.8
846.055	48.87
846.349	45.49
846.644	43.64
846.938	45.69
847.232	46.51
847.526	42.5
847.82	45.71
848.114	34.47
848.408	37.05
848.702	47.97
848.996	44.38
849.29	58.85
849.584	51.19
849.877	42.33
850.171	39.87
850.465	47.55
850.758	36.02
851.052	38.08
851.345	35.8
851.638	30.41
851.932	29.14
852.225	43.44
852.518	51.07
852.811	30.54
853.104	42.67
853.397	60.99
853.69	59.84
853.983	38.09
854.276	50.93
854.569	47.75
854.861	41.47
855.154	42.37
855.447	43.75
855.739	28.04
856.032	39.98
856.324	57.5
856.616	36.77
856.909	29
857.201	24
857.493	38.16
857.785	39.97
858.077	40.15
858.369	34.6
858.661	26.13
858.953	40.25
859.245	47.45
859.537	37.62
859.829	62.51
860.12	26.38
860.412	29.53
860.703	53.63
860.995	35.09
861.286	18.88
861.578	59.62
861.869	55.94
862.16	45.41
862.452	46.33
862.743	44.28
863.034	41.13
863.325	58.07
863.616	37.12
863.907	55.08
864.198	51.79
864.488	38.1
864.779	43.36
865.07	39.45
865.36	61.03
865.651	43.63
865.941	31.96
866.232	62.43
866.522	47.43
866.813	39.7
867.103	22.97
867.393	46.21
867.683	31.23
867.973	58.18
868.263	32.16
868.553	34.57
868.843	51.03
869.133	40.17
869.423	43.9
869.713	20.43
870.002	44.66
870.292	36.3
870.582	36.22
870.871	45.39
871.161	32.58
871.45	35.1
871.739	45.53
872.029	51.57
872.318	53.52
872.607	60.19
872.896	25.89
873.185	44.5
873.474	29.99
873.763	57.54
874.052	42.2
874.341	39.07
874.63	38.7
874.918	35.34
875.207	12.17
875.496	44.23
875.784	24.79
876.073	1.57
876.361	60.69
876.649	33.93
876.938	36.88
877.226	58.58
877.514	54.6
877.802	43.97
878.09	32.76
878.378	50.46
878.666	37.09
878.954	60.19
879.242	63.5
879.53	38.57
879.817	1.18
880.105	66.2
880.392	55.52
880.68	35.79
880.967	19.23
881.255	61.34
881.542	28.39
881.83	44.21
882.117	28.1
882.404	49.47
882.691	48.64
882.978	57.6
883.265	51.55
883.552	44.95
883.839	47.12
884.126	54.43
884.413	49.11
884.699	56.11
884.986	50.41
885.273	46.76
885.559	46.76
885.846	46.76
