Data from 0057_forehead_Reflection__4__92.txt Node

Date: Fri Dec 16 14:36:42 CST 2022
User: ToomeyLab
Spectrometer: FLMS14357
Trigger mode: 0
Integration Time (sec): 1.000000E-2
Scans to average: 100
Electric dark correction enabled: true
Nonlinearity correction enabled: false
Boxcar width: 0
XAxis mode: Wavelengths
Number of Pixels in Spectrum: 2048
>>>>>Begin Spectral Data<<<<<
189.047	-23.06
189.435	-23.06
189.823	-23.06
190.211	62.34
190.599	-205.96
190.987	134.98
191.375	334.36
191.763	-46.74
192.151	-2933.33
192.538	137.46
192.926	863.83
193.314	76.04
193.702	29.43
194.089	111.8
194.477	-449.52
194.864	60.4
195.252	-106.88
195.639	120.22
196.027	-440
196.414	10.11
196.801	-353.42
197.189	187.9
197.576	-122.47
197.963	-10360
198.351	9.29
198.738	-3.93
199.125	30.05
199.512	-37.86
199.899	-10.9
200.286	-3.87
200.673	38.82
201.06	30.59
201.447	42.77
201.833	-5.66
202.22	83.7
202.607	7.6
202.994	15.16
203.38	5.66
203.767	5.18
204.154	21.55
204.54	18.92
204.927	36.14
205.313	36.63
205.699	17.02
206.086	-1.75
206.472	-2.01
206.858	17.03
207.245	4.78
207.631	-8.48
208.017	19.5
208.403	18.6
208.789	26.54
209.175	35.83
209.561	11.83
209.947	8.38
210.333	8.06
210.719	-0.26
211.105	7.16
211.491	29.32
211.876	2.72
212.262	36.6
212.648	19.47
213.034	-19.38
213.419	41.17
213.805	9.95
214.19	-15.54
214.576	6.67
214.961	-6.19
215.346	8.8
215.732	-0.54
216.117	-25.7
216.502	-0.54
216.888	-10.55
217.273	23.71
217.658	-14.35
218.043	22.42
218.428	-8.39
218.813	15.05
219.198	-5.23
219.583	8.19
219.968	23.52
220.353	19.29
220.738	10.15
221.122	7.83
221.507	-2.45
221.892	5.92
222.276	5.1
222.661	8.24
223.046	8.62
223.43	1.72
223.815	5.69
224.199	2.46
224.583	8.01
224.968	5.84
225.352	6.24
225.736	6.2
226.121	11.77
226.505	6.36
226.889	10.18
227.273	4.89
227.657	3.41
228.041	2.43
228.425	6.84
228.809	3.29
229.193	1.18
229.577	2.93
229.961	3.83
230.344	3.1
230.728	3.62
231.112	2.79
231.495	3.02
231.879	2.92
232.263	2.26
232.646	1.23
233.03	1.45
233.413	3.79
233.797	5.26
234.18	1.48
234.563	2.47
234.946	4.03
235.33	4.04
235.713	3.19
236.096	3.02
236.479	3.73
236.862	3.89
237.245	4.16
237.628	4.83
238.011	4.91
238.394	4.5
238.777	2.6
239.16	1.58
239.543	2.08
239.925	3.41
240.308	3.9
240.691	2.85
241.073	4.63
241.456	1.81
241.838	3.51
242.221	3.37
242.603	3.67
242.986	3.94
243.368	3.31
243.75	2.96
244.133	3.45
244.515	3.4
244.897	3.7
245.279	2.62
245.661	2.93
246.043	3.59
246.425	2.27
246.807	3.78
247.189	3.37
247.571	3.75
247.953	3.07
248.335	3.48
248.717	3.22
249.098	3.36
249.48	3.17
249.862	3.31
250.243	3.28
250.625	3.06
251.006	3.04
251.388	3.93
251.769	2.62
252.151	3.36
252.532	3.53
252.913	3.54
253.295	3.57
253.676	3.24
254.057	3.29
254.438	3.2
254.819	3.58
255.2	2.61
255.581	3.49
255.962	4.67
256.343	4.09
256.724	2.63
257.105	3.14
257.486	3.14
257.867	2.4
258.247	3.83
258.628	4.03
259.009	3.38
259.389	3.48
259.77	3.43
260.15	3.95
260.531	3.66
260.911	3.08
261.292	3.14
261.672	3.26
262.052	3.29
262.432	3.05
262.813	3.5
263.193	3.26
263.573	3.18
263.953	3.23
264.333	3.6
264.713	3.04
265.093	3.39
265.473	4.05
265.853	3.3
266.233	2.83
266.612	3.15
266.992	2.98
267.372	3.82
267.752	3.25
268.131	3.25
268.511	3.17
268.89	3.49
269.27	3.79
269.649	3.36
270.029	2.58
270.408	2.82
270.787	2.84
271.167	3.55
271.546	2.75
271.925	3.25
272.304	2.98
272.683	3.18
273.062	3.78
273.441	3.38
273.82	3.14
274.199	3.38
274.578	2.86
274.957	3.29
275.336	3.17
275.715	3.32
276.093	3.94
276.472	3.82
276.851	3.58
277.229	3.54
277.608	3.48
277.986	3.2
278.365	2.66
278.743	3.24
279.122	2.99
279.5	2.55
279.878	2.92
280.257	3.59
280.635	2.52
281.013	3.65
281.391	3.28
281.769	2.68
282.147	3.7
282.525	3.13
282.903	3.33
283.281	2.83
283.659	2.82
284.037	3.03
284.415	2.85
284.792	2.99
285.17	2.99
285.548	2.97
285.925	3.09
286.303	3.02
286.68	3.23
287.058	2.99
287.435	3.19
287.813	3.22
288.19	3.53
288.567	3.18
288.945	3.38
289.322	2.92
289.699	3.15
290.076	3.59
290.453	2.99
290.83	3.35
291.207	3.38
291.584	3.36
291.961	3.54
292.338	3.27
292.715	3.61
293.092	3.82
293.469	3.49
293.845	3.51
294.222	3.51
294.599	3.57
294.975	3.44
295.352	3.14
295.728	3.73
296.105	3.59
296.481	4
296.858	3.61
297.234	3.86
297.61	3.93
297.986	3.49
298.363	3.52
298.739	3.79
299.115	3.47
299.491	3.76
299.867	3.77
300.243	3.58
300.619	3.87
300.995	3.82
301.371	3.87
301.746	3.77
302.122	3.84
302.498	3.98
302.874	3.89
303.249	3.86
303.625	3.69
304	3.6
304.376	3.81
304.751	3.79
305.127	4.24
305.502	3.77
305.878	3.93
306.253	4.18
306.628	4.43
307.003	4.48
307.378	3.86
307.754	4.15
308.129	3.7
308.504	3.8
308.879	4.34
309.254	4.15
309.629	4.35
310.003	4.4
310.378	4.37
310.753	4.14
311.128	4.07
311.502	4.01
311.877	4.17
312.252	4.07
312.626	3.83
313.001	4.32
313.375	4.33
313.75	4.26
314.124	4.81
314.498	3.96
314.873	3.9
315.247	4.25
315.621	4.3
315.995	4.28
316.369	4.29
316.743	5.15
317.117	4.77
317.491	4.89
317.865	3.82
318.239	4.86
318.613	5.2
318.987	4.46
319.361	4.85
319.734	4.57
320.108	4.75
320.482	5.05
320.855	4.65
321.229	5.62
321.602	4.56
321.976	4.91
322.349	4.27
322.723	4.51
323.096	5.03
323.469	4.44
323.843	5.14
324.216	4.64
324.589	5.41
324.962	4.91
325.335	4.88
325.708	5.35
326.081	5.49
326.454	5.1
326.827	5.15
327.2	5.38
327.573	5.28
327.945	5.41
328.318	5.53
328.691	5.33
329.063	5.33
329.436	5.22
329.809	4.83
330.181	5.32
330.553	5.49
330.926	5.02
331.298	5.4
331.671	5.7
332.043	5
332.415	5.52
332.787	6.23
333.159	5.12
333.532	5.32
333.904	5.63
334.276	5.64
334.648	5.64
335.02	5.48
335.391	5.54
335.763	5.14
336.135	5.81
336.507	5.73
336.879	5.65
337.25	5.45
337.622	5.64
337.993	5.82
338.365	5.64
338.736	5.82
339.108	5.48
339.479	5.45
339.851	6.04
340.222	5.62
340.593	5.51
340.964	5.7
341.336	5.39
341.707	5.66
342.078	5.39
342.449	6.54
342.82	6.15
343.191	5.69
343.562	6.14
343.933	5.92
344.303	6.35
344.674	6.1
345.045	6.09
345.416	5.95
345.786	5.66
346.157	6.12
346.527	5.81
346.898	6.06
347.268	6.13
347.639	5.92
348.009	6.22
348.38	6.25
348.75	6.79
349.12	6.05
349.49	6.28
349.861	6.47
350.231	6.59
350.601	6.88
350.971	6.27
351.341	6.58
351.711	6.28
352.081	6.32
352.45	6.68
352.82	6.43
353.19	6.24
353.56	6.45
353.929	6.41
354.299	6.61
354.669	6.85
355.038	6.74
355.408	6.94
355.777	6.75
356.147	6.99
356.516	6.75
356.885	6.47
357.254	6.76
357.624	6.89
357.993	6.94
358.362	6.99
358.731	6.72
359.1	6.87
359.469	6.87
359.838	6.78
360.207	6.48
360.576	6.82
360.945	6.87
361.314	6.81
361.682	6.81
362.051	6.87
362.42	7.21
362.788	7.05
363.157	6.95
363.525	7.06
363.894	6.67
364.262	6.91
364.631	7.73
364.999	6.66
365.367	7.34
365.735	7.05
366.104	7.36
366.472	7.55
366.84	7.44
367.208	7.04
367.576	7.3
367.944	7.6
368.312	7.22
368.68	7.69
369.048	7.43
369.416	7.36
369.783	7.36
370.151	7.41
370.519	7.38
370.886	7.74
371.254	7.9
371.621	7.4
371.989	7.73
372.356	7.59
372.724	7.74
373.091	7.81
373.458	7.77
373.826	7.64
374.193	7.95
374.56	7.63
374.927	7.69
375.294	8.06
375.661	8.12
376.028	8.03
376.395	7.98
376.762	7.96
377.129	8.35
377.496	8.06
377.863	8.09
378.229	7.95
378.596	8.2
378.963	7.68
379.329	8.03
379.696	7.96
380.062	8.57
380.429	8.07
380.795	8.21
381.161	7.97
381.528	7.8
381.894	8.37
382.26	8.2
382.626	8.17
382.993	8.24
383.359	8.36
383.725	8.66
384.091	8.23
384.457	8.36
384.823	8.64
385.188	8.84
385.554	8.62
385.92	8.89
386.286	8.84
386.651	8.69
387.017	8.86
387.383	8.65
387.748	8.63
388.114	8.92
388.479	8.68
388.845	8.85
389.21	8.92
389.575	8.91
389.94	8.97
390.306	8.87
390.671	8.93
391.036	8.71
391.401	9.2
391.766	8.76
392.131	8.7
392.496	8.7
392.861	8.81
393.226	9.16
393.591	9.22
393.956	9.07
394.32	9.16
394.685	9.39
395.05	9.13
395.414	9.29
395.779	9.33
396.143	9.4
396.508	9.34
396.872	9.44
397.236	9.03
397.601	9.5
397.965	9.31
398.329	9.68
398.694	9.41
399.058	9.48
399.422	9.42
399.786	9.81
400.15	9.73
400.514	9.69
400.878	9.52
401.242	9.73
401.605	9.79
401.969	9.61
402.333	9.67
402.697	9.83
403.06	10.05
403.424	9.63
403.787	10.06
404.151	9.79
404.514	9.92
404.878	10.08
405.241	10.07
405.604	10.08
405.968	10.15
406.331	9.97
406.694	9.99
407.057	10.16
407.42	10.23
407.783	9.96
408.146	10.02
408.509	10
408.872	10.26
409.235	10.3
409.598	10.41
409.961	10.44
410.323	10.35
410.686	10.26
411.049	10.11
411.411	10.39
411.774	10.17
412.136	10.38
412.499	10.3
412.861	10.46
413.223	10.59
413.586	10.32
413.948	10.64
414.31	10.6
414.672	10.47
415.035	10.75
415.397	10.91
415.759	10.48
416.121	10.78
416.483	10.76
416.845	10.73
417.206	10.68
417.568	10.74
417.93	10.6
418.292	10.9
418.653	10.82
419.015	10.68
419.377	10.82
419.738	10.68
420.1	10.8
420.461	10.68
420.822	10.82
421.184	10.77
421.545	10.75
421.906	10.82
422.267	10.59
422.629	10.72
422.99	10.83
423.351	10.77
423.712	10.88
424.073	11.11
424.434	10.95
424.795	10.93
425.155	10.96
425.516	10.91
425.877	11.04
426.238	10.98
426.598	11.21
426.959	11.17
427.32	11.28
427.68	11.3
428.041	11.45
428.401	11.4
428.761	11.36
429.122	11.62
429.482	11.39
429.842	11.55
430.202	11.78
430.563	11.62
430.923	11.73
431.283	11.79
431.643	11.76
432.003	11.77
432.363	11.86
432.722	11.69
433.082	11.79
433.442	11.76
433.802	11.88
434.161	11.82
434.521	11.85
434.881	12.01
435.24	11.81
435.6	11.93
435.959	11.87
436.319	11.85
436.678	12.02
437.037	12.17
437.396	12.17
437.756	12.12
438.115	12.08
438.474	12.29
438.833	12.24
439.192	12.3
439.551	12.33
439.91	12.34
440.269	12.25
440.628	12.22
440.987	12.15
441.345	12.34
441.704	12.37
442.063	12.31
442.421	12.22
442.78	12.28
443.138	12.38
443.497	12.4
443.855	12.64
444.214	12.61
444.572	12.62
444.93	12.89
445.288	12.75
445.647	12.64
446.005	12.56
446.363	12.75
446.721	12.69
447.079	12.64
447.437	12.6
447.795	12.55
448.153	12.79
448.51	12.61
448.868	12.84
449.226	12.83
449.584	12.87
449.941	13.07
450.299	13.02
450.656	13.14
451.014	13.17
451.371	13.31
451.729	13.12
452.086	13.26
452.443	13.19
452.801	13.23
453.158	13.39
453.515	13.2
453.872	13.43
454.229	13.23
454.586	13.34
454.943	13.36
455.3	13.7
455.657	13.45
456.014	13.7
456.371	13.8
456.727	13.55
457.084	13.71
457.441	13.59
457.797	13.79
458.154	13.79
458.51	13.7
458.867	13.76
459.223	13.75
459.58	13.79
459.936	13.8
460.292	13.73
460.648	13.73
461.005	13.66
461.361	13.64
461.717	13.78
462.073	13.93
462.429	13.92
462.785	14.06
463.141	14.18
463.496	14.08
463.852	14.39
464.208	14.3
464.564	14.38
464.919	14.34
465.275	14.57
465.631	14.53
465.986	14.47
466.342	14.46
466.697	14.6
467.052	14.93
467.408	14.72
467.763	14.59
468.118	14.68
468.473	14.77
468.829	14.66
469.184	14.94
469.539	14.96
469.894	14.84
470.249	14.9
470.603	14.9
470.958	14.96
471.313	14.99
471.668	15.09
472.023	15.18
472.377	15.12
472.732	15.16
473.086	15.21
473.441	15.17
473.795	15.26
474.15	15.2
474.504	15.24
474.859	15.38
475.213	15.43
475.567	15.49
475.921	15.61
476.275	15.55
476.63	15.47
476.984	15.56
477.338	15.73
477.692	15.49
478.045	15.5
478.399	15.64
478.753	15.58
479.107	15.65
479.461	15.71
479.814	15.65
480.168	15.73
480.521	15.78
480.875	16.09
481.228	15.96
481.582	15.9
481.935	15.93
482.289	15.92
482.642	15.9
482.995	15.86
483.348	15.68
483.701	15.74
484.055	15.64
484.408	15.51
484.761	15.25
485.114	15.01
485.466	15.08
485.819	15.21
486.172	15.46
486.525	15.57
486.878	15.67
487.23	15.94
487.583	15.88
487.936	15.88
488.288	15.7
488.641	15.66
488.993	15.63
489.345	15.73
489.698	15.85
490.05	15.91
490.402	16.11
490.754	16.32
491.107	16.34
491.459	16.41
491.811	16.44
492.163	16.39
492.515	16.32
492.866	16
493.218	16.08
493.57	16.31
493.922	16.45
494.274	16.68
494.625	16.74
494.977	16.92
495.328	17.22
495.68	17.31
496.031	17.24
496.383	17.34
496.734	17.47
497.086	17.41
497.437	17.37
497.788	17.25
498.139	17.17
498.49	17.31
498.842	17.37
499.193	17.49
499.544	17.67
499.894	17.6
500.245	17.6
500.596	17.58
500.947	17.67
501.298	17.66
501.648	17.87
501.999	18.1
502.35	18.08
502.7	18.07
503.051	18.25
503.401	18.13
503.752	18.02
504.102	18.25
504.452	18.3
504.803	18.29
505.153	18.19
505.503	18.21
505.853	18.28
506.203	18.3
506.553	18.35
506.903	18.46
507.253	18.46
507.603	18.61
507.953	18.66
508.303	18.61
508.652	18.67
509.002	18.55
509.352	18.53
509.701	18.58
510.051	18.7
510.4	18.58
510.75	18.73
511.099	18.7
511.449	18.81
511.798	18.78
512.147	18.72
512.496	19
512.846	18.84
513.195	19.01
513.544	18.84
513.893	18.89
514.242	19.13
514.591	19.18
514.939	19.14
515.288	19.27
515.637	19.37
515.986	19.26
516.334	19.5
516.683	19.44
517.032	19.51
517.38	19.49
517.729	19.69
518.077	19.54
518.426	19.39
518.774	19.39
519.122	19.38
519.47	19.3
519.819	19.22
520.167	19.33
520.515	19.39
520.863	19.58
521.211	19.7
521.559	19.76
521.907	19.77
522.255	19.87
522.602	19.97
522.95	20
523.298	20.07
523.645	20.11
523.993	20.19
524.341	20.25
524.688	20.25
525.036	20.36
525.383	20.44
525.73	20.3
526.078	20.14
526.425	20.1
526.772	19.99
527.119	19.97
527.466	20.03
527.814	20.17
528.161	20.12
528.508	20.24
528.854	20.19
529.201	20.1
529.548	19.82
529.895	19.63
530.242	19.68
530.588	19.85
530.935	19.99
531.282	20.21
531.628	20.34
531.975	20.5
532.321	20.66
532.667	20.71
533.014	20.81
533.36	20.81
533.706	20.9
534.052	20.72
534.399	20.43
534.745	20.39
535.091	20.52
535.437	20.79
535.783	20.92
536.129	21.18
536.474	21.24
536.82	21.4
537.166	21.42
537.512	21.29
537.857	21.29
538.203	21.26
538.549	21.43
538.894	21.43
539.239	21.71
539.585	21.69
539.93	21.86
540.276	21.91
540.621	21.95
540.966	22
541.311	22.05
541.656	21.81
542.001	21.8
542.346	21.42
542.691	21.26
543.036	21.31
543.381	21.48
543.726	21.73
544.071	21.76
544.415	21.88
544.76	21.97
545.105	22.09
545.449	22.12
545.794	22.34
546.138	22.48
546.483	22.48
546.827	22.51
547.171	22.47
547.516	22.6
547.86	22.51
548.204	22.54
548.548	22.62
548.892	22.8
549.236	22.96
549.58	23.16
549.924	23.12
550.268	23.23
550.612	23.44
550.956	23.32
551.3	23.43
551.643	23.61
551.987	23.47
552.33	23.63
552.674	23.89
553.017	23.73
553.361	23.78
553.704	23.7
554.048	23.72
554.391	23.57
554.734	23.69
555.077	23.74
555.42	23.95
555.764	24.1
556.107	24.08
556.45	24.02
556.793	24.31
557.135	24.41
557.478	24.32
557.821	24.32
558.164	24.39
558.507	24.59
558.849	24.41
559.192	24.75
559.534	24.38
559.877	24.81
560.219	24.8
560.562	24.59
560.904	24.85
561.246	24.77
561.589	24.99
561.931	25.01
562.273	24.85
562.615	24.93
562.957	24.9
563.299	25.01
563.641	25.17
563.983	25.16
564.325	25.26
564.667	25.29
565.008	25.31
565.35	25.17
565.692	25.22
566.033	25.26
566.375	25.29
566.716	25.33
567.058	25.57
567.399	25.45
567.741	25.31
568.082	25.2
568.423	25.46
568.764	25.5
569.105	25.66
569.447	25.66
569.788	25.72
570.129	25.74
570.47	25.97
570.811	25.81
571.151	25.83
571.492	25.94
571.833	26.09
572.174	25.98
572.514	25.79
572.855	25.93
573.195	25.78
573.536	25.97
573.876	26.13
574.217	25.92
574.557	26.07
574.898	26.06
575.238	26.11
575.578	26.41
575.918	26.1
576.258	26.26
576.598	26.4
576.938	26.42
577.278	26.37
577.618	26.52
577.958	26.56
578.298	26.76
578.638	26.7
578.977	26.73
579.317	27.05
579.657	27.07
579.996	27.17
580.336	26.99
580.675	27.11
581.014	27.5
581.354	27.47
581.693	27.39
582.032	27.3
582.372	27.61
582.711	27.37
583.05	27.6
583.389	27.64
583.728	27.79
584.067	27.56
584.406	28.04
584.745	27.97
585.083	27.8
585.422	27.9
585.761	27.9
586.1	28.27
586.438	28.1
586.777	28.05
587.115	28.39
587.454	28.21
587.792	28
588.13	28.29
588.469	28.37
588.807	28.11
589.145	28.34
589.483	28.29
589.821	28.45
590.159	28.1
590.497	28.17
590.835	28.39
591.173	28.53
591.511	28.43
591.849	28.55
592.187	28.57
592.524	28.62
592.862	28.68
593.2	28.73
593.537	28.82
593.875	28.81
594.212	28.77
594.55	28.67
594.887	29.14
595.224	29.02
595.561	28.82
595.899	28.83
596.236	29.24
596.573	29.07
596.91	28.97
597.247	29.01
597.584	29.35
597.921	29.05
598.258	29.09
598.594	28.91
598.931	28.96
599.268	29
599.604	29.15
599.941	29.17
600.277	29.49
600.614	29.49
600.95	29.79
601.287	29.73
601.623	29.76
601.959	29.69
602.296	29.93
602.632	30.42
602.968	29.67
603.304	29.85
603.64	29.81
603.976	29.93
604.312	30.14
604.648	30.1
604.984	30.03
605.319	29.83
605.655	29.86
605.991	29.87
606.326	29.74
606.662	29.81
606.998	30.14
607.333	30.18
607.668	29.97
608.004	30.38
608.339	30.33
608.674	30.45
609.01	30.46
609.345	30.94
609.68	30.53
610.015	30.36
610.35	30.78
610.685	30.45
611.02	30.57
611.355	30.56
611.689	30.44
612.024	31.14
612.359	30.91
612.694	30.93
613.028	31.09
613.363	30.95
613.697	31.18
614.032	31.33
614.366	31.32
614.7	31.45
615.035	31.06
615.369	31.42
615.703	31.83
616.037	31.73
616.371	31.34
616.705	31.77
617.039	31.76
617.373	31.29
617.707	31.62
618.041	31.62
618.375	31.71
618.709	31.96
619.042	31.76
619.376	31.89
619.71	31.81
620.043	31.89
620.377	32.24
620.71	31.94
621.043	32.17
621.377	32.29
621.71	32.41
622.043	32.78
622.376	32.11
622.709	32.77
623.043	32.49
623.376	32.38
623.709	33.08
624.041	32.37
624.374	32.47
624.707	32.35
625.04	32.96
625.373	32.45
625.705	32.53
626.038	32.65
626.37	32.55
626.703	33.21
627.035	32.92
627.368	33.17
627.7	32.84
628.032	32.46
628.365	32.82
628.697	32.98
629.029	33.39
629.361	33.24
629.693	33.28
630.025	33.24
630.357	33.17
630.689	33.52
631.021	33.31
631.353	33.44
631.684	33.54
632.016	33.23
632.348	33.33
632.679	33.65
633.011	33.55
633.342	33.69
633.674	33.5
634.005	33.59
634.336	33.51
634.668	33.42
634.999	33.5
635.33	33.77
635.661	34.13
635.992	33.86
636.323	33.81
636.654	34.11
636.985	33.34
637.316	34.08
637.647	33.52
637.977	34.16
638.308	33.96
638.639	33.88
638.969	33.73
639.3	34.09
639.63	34.28
639.961	34.2
640.291	34.24
640.622	34.22
640.952	34.56
641.282	34.05
641.612	34.31
641.943	34.4
642.273	34.72
642.603	34.92
642.933	34.86
643.263	34.96
643.592	34.65
643.922	35.31
644.252	35.24
644.582	34.99
644.911	34.57
645.241	34.75
645.571	34.75
645.9	34.74
646.23	35.51
646.559	35.14
646.888	34.98
647.218	35.03
647.547	35.59
647.876	35.84
648.205	35.9
648.534	35.26
648.863	35.73
649.192	35.4
649.521	35.34
649.85	35.68
650.179	35.32
650.508	35.75
650.837	36.15
651.165	35.73
651.494	35.69
651.822	35.79
652.151	35.95
652.479	36.15
652.808	35.46
653.136	35.65
653.465	35.99
653.793	36.11
654.121	36.54
654.449	36.29
654.777	36.45
655.105	36.09
655.433	36.56
655.761	35.76
656.089	36.23
656.417	36.02
656.745	36.75
657.073	36.83
657.4	36.46
657.728	36.5
658.056	36.29
658.383	36.62
658.711	35.95
659.038	36.89
659.365	36.21
659.693	36.63
660.02	36.61
660.347	36.47
660.674	36.19
661.001	36.22
661.329	36.37
661.656	36.76
661.982	36.61
662.309	36.59
662.636	36.58
662.963	37.03
663.29	37.09
663.616	37.13
663.943	37.4
664.27	36.88
664.596	36.9
664.923	37.02
665.249	37.22
665.576	37.05
665.902	36.8
666.228	36.86
666.554	37.45
666.881	37.19
667.207	36.86
667.533	37.68
667.859	37.46
668.185	38.13
668.511	37.8
668.837	37.53
669.162	37.45
669.488	37.54
669.814	38.27
670.139	37.94
670.465	37.96
670.791	37.66
671.116	37.48
671.442	37.89
671.767	37.85
672.092	38.04
672.418	38.14
672.743	37.84
673.068	37.66
673.393	38.48
673.718	37.6
674.043	38.35
674.368	38.54
674.693	37.46
675.018	37.63
675.343	37.96
675.667	38.6
675.992	37.9
676.317	38.11
676.641	38.07
676.966	38.57
677.29	38.39
677.615	38.66
677.939	38.69
678.264	38.39
678.588	38.33
678.912	38.55
679.236	38.66
679.56	38.96
679.885	39.05
680.209	38.82
680.532	38.69
680.856	39.09
681.18	38.67
681.504	38.68
681.828	38.85
682.152	38.59
682.475	38.69
682.799	39.43
683.122	38.79
683.446	38.54
683.769	39.29
684.093	39.14
684.416	39.29
684.739	39.25
685.062	39.36
685.386	38.87
685.709	38.89
686.032	38.73
686.355	39.39
686.678	39.34
687.001	39.07
687.324	39.18
687.646	39.65
687.969	39.67
688.292	40.04
688.614	39.68
688.937	38.52
689.26	39.56
689.582	39.02
689.904	39.35
690.227	39.88
690.549	39.42
690.871	39.37
691.194	40.18
691.516	39.91
691.838	39.56
692.16	39.82
692.482	39.49
692.804	39.42
693.126	39.49
693.448	40.05
693.769	40.34
694.091	39.94
694.413	39.37
694.735	40.39
695.056	40.02
695.378	40.14
695.699	40.52
696.021	41.18
696.342	40.4
696.663	40.82
696.984	40.22
697.306	40.14
697.627	40.02
697.948	40.51
698.269	40.65
698.59	40.93
698.911	40.86
699.232	40.69
699.553	40.98
699.873	40.45
700.194	40.93
700.515	40.28
700.835	40.72
701.156	40.38
701.477	40.32
701.797	40.73
702.117	40.22
702.438	40.66
702.758	40.84
703.078	41.04
703.398	41.09
703.719	40.8
704.039	41.33
704.359	41
704.679	40.82
704.999	40.33
705.319	41.21
705.638	41.59
705.958	41.55
706.278	41.57
706.597	41.36
706.917	42.51
707.237	42.13
707.556	41.61
707.876	43.11
708.195	41.83
708.514	40.95
708.834	41.9
709.153	41.57
709.472	41.58
709.791	41.58
710.11	41.63
710.429	41.92
710.748	41.63
711.067	42.47
711.386	41.71
711.705	41.49
712.023	41.58
712.342	40.98
712.661	41.73
712.979	42.8
713.298	41.48
713.616	42.62
713.935	41.77
714.253	42.76
714.572	42.13
714.89	41.44
715.208	42.5
715.526	41.59
715.844	42.78
716.162	41.9
716.48	42.55
716.798	42.61
717.116	43.58
717.434	42.76
717.752	42.96
718.069	42.35
718.387	42.49
718.705	42.6
719.022	42.4
719.34	42.27
719.657	42.99
719.975	42.39
720.292	43.48
720.609	41.15
720.927	42.97
721.244	42.93
721.561	43.14
721.878	42.98
722.195	43.03
722.512	42.35
722.829	43.3
723.146	42.62
723.463	42.51
723.779	41.8
724.096	42.04
724.413	42.63
724.729	43.15
725.046	43.17
725.362	42.17
725.679	43.68
725.995	43.08
726.311	43.39
726.628	42.88
726.944	42.95
727.26	43.32
727.576	44.16
727.892	43.54
728.208	44.36
728.524	44.27
728.84	43.99
729.156	43.44
729.472	45.06
729.787	44.2
730.103	42.25
730.419	43.68
730.734	43.27
731.05	44.53
731.365	43.24
731.681	43.63
731.996	42.89
732.311	42.05
732.626	44.25
732.942	44.83
733.257	44.26
733.572	43.58
733.887	44.48
734.202	44.51
734.517	43.93
734.832	43.37
735.146	44.16
735.461	44.72
735.776	44.63
736.091	45.67
736.405	43
736.72	43.96
737.034	43.11
737.349	43.9
737.663	43.56
737.977	46.36
738.292	45.6
738.606	44.96
738.92	46.22
739.234	45.42
739.548	45.53
739.862	45.1
740.176	44.97
740.49	44.52
740.804	44.06
741.117	44.57
741.431	43.76
741.745	44.75
742.058	44.58
742.372	44.61
742.685	44.4
742.999	44.62
743.312	44.65
743.626	45.44
743.939	44.22
744.252	45.56
744.565	45.4
744.878	46.35
745.191	46.54
745.505	43.37
745.817	45.9
746.13	46.84
746.443	44.65
746.756	44.5
747.069	44.67
747.381	44.68
747.694	43.62
748.007	44.88
748.319	45.14
748.632	44.98
748.944	44.46
749.256	46.97
749.569	42.71
749.881	44.56
750.193	44.62
750.505	46.54
750.817	43.27
751.129	45.47
751.441	45.19
751.753	45.49
752.065	44.5
752.377	45.73
752.689	47.01
753	43.31
753.312	46.27
753.624	45.42
753.935	46.46
754.247	46.22
754.558	47.55
754.869	45.8
755.181	45.07
755.492	45.24
755.803	45.33
756.114	45.11
756.425	46.3
756.736	45.79
757.047	46.45
757.358	45.78
757.669	46.21
757.98	46.34
758.291	47
758.601	45.22
758.912	45.75
759.223	46.28
759.533	45.14
759.844	44.75
760.154	45.72
760.464	46.34
760.775	47.56
761.085	45.8
761.395	48.73
761.705	47.14
762.016	46.32
762.326	46.29
762.636	47.12
762.945	46.71
763.255	46.23
763.565	47.37
763.875	46.12
764.185	47.3
764.494	45.13
764.804	47.49
765.113	47.04
765.423	47.07
765.732	46.87
766.042	47.23
766.351	47.25
766.66	46.67
766.97	48.46
767.279	47.27
767.588	46.58
767.897	45.98
768.206	47.71
768.515	46
768.824	45.68
769.133	45.09
769.441	48.55
769.75	46.04
770.059	45.68
770.367	47.53
770.676	47.03
770.984	47.9
771.293	48.2
771.601	45.36
771.91	48.64
772.218	47.04
772.526	49.08
772.834	46.83
773.142	45.95
773.45	47.83
773.758	46.01
774.066	47.21
774.374	47.23
774.682	47.8
774.99	44.71
775.298	46.42
775.605	45.52
775.913	46.1
776.22	47.34
776.528	45.58
776.835	49.33
777.143	49.96
777.45	47.69
777.757	45.13
778.065	49.08
778.372	44.13
778.679	49
778.986	48.51
779.293	44.33
779.6	46.47
779.907	48.03
780.214	48.83
780.52	46.05
780.827	47.89
781.134	51.56
781.44	44.78
781.747	46.56
782.053	47.24
782.36	47.13
782.666	49.25
782.973	44.79
783.279	48.85
783.585	46.19
783.891	47.18
784.197	45.53
784.503	49.96
784.809	50.31
785.115	44.97
785.421	45.37
785.727	48.8
786.033	48.15
786.339	48.97
786.644	45.21
786.95	48.4
787.255	50.11
787.561	48.02
787.866	46.75
788.172	48.29
788.477	47.72
788.782	47.41
789.088	49.07
789.393	44.82
789.698	45.36
790.003	47.64
790.308	50.61
790.613	49.93
790.918	48.24
791.223	48.06
791.527	47.04
791.832	47.89
792.137	48.53
792.441	46.28
792.746	46.92
793.05	49.47
793.355	47.44
793.659	47.87
793.963	48.41
794.268	47
794.572	53.27
794.876	48.35
795.18	50.1
795.484	48.12
795.788	45.01
796.092	50.97
796.396	46.01
796.7	50.52
797.004	48.51
797.307	47.91
797.611	46.64
797.915	50.93
798.218	50.15
798.522	48.14
798.825	49.75
799.128	50.14
799.432	49.45
799.735	44.12
800.038	43.01
800.341	51.9
800.644	46.49
800.947	48.96
801.25	47.59
801.553	48.6
801.856	48.72
802.159	45.49
802.462	49.31
802.764	46.17
803.067	48.15
803.37	48.67
803.672	46.89
803.975	48.55
804.277	52.72
804.579	48.73
804.882	46.39
805.184	47.74
805.486	48.02
805.788	48.04
806.09	47.02
806.392	49.14
806.694	48.69
806.996	46.08
807.298	51.12
807.6	51.13
807.902	49.81
808.203	48.33
808.505	45.77
808.807	49.62
809.108	49.15
809.409	51.5
809.711	49.29
810.012	47.3
810.313	51.64
810.615	49.28
810.916	43.36
811.217	54.78
811.518	54.55
811.819	49.55
812.12	48.04
812.421	52.24
812.722	49
813.023	46.34
813.323	51.98
813.624	52.34
813.925	47.99
814.225	49.93
814.526	51.21
814.826	48.69
815.126	41.8
815.427	51.64
815.727	47.06
816.027	43.91
816.327	49.89
816.627	42.99
816.927	44.15
817.227	48.42
817.527	46.43
817.827	42.81
818.127	54.64
818.427	44.77
818.727	49.78
819.026	54.74
819.326	51.01
819.625	50.82
819.925	49.85
820.224	46.58
820.524	48.41
820.823	45.19
821.122	43.16
821.421	49.89
821.72	54.69
822.019	49.86
822.318	49.59
822.617	51.7
822.916	51.93
823.215	51.09
823.514	50.13
823.813	51.27
824.111	52.73
824.41	50.67
824.709	52.9
825.007	52.8
825.306	51.96
825.604	53.12
825.902	52
826.201	51.84
826.499	50.67
826.797	50.83
827.095	48.13
827.393	50.78
827.691	51.39
827.989	52.85
828.287	51.03
828.585	50.48
828.882	50.69
829.18	51.63
829.478	50.47
829.775	52.23
830.073	52.7
830.37	52.14
830.668	53.44
830.965	49.45
831.263	52.48
831.56	50.17
831.857	47.42
832.154	49.19
832.451	50.75
832.748	53.34
833.045	47.98
833.342	46.51
833.639	50.19
833.936	49.08
834.232	54.42
834.529	48.79
834.826	52.97
835.122	50.01
835.419	53.01
835.715	51.32
836.012	49.2
836.308	50.76
836.604	50.92
836.901	52.78
837.197	53.74
837.493	52.5
837.789	54.15
838.085	50.68
838.381	51.25
838.677	54.05
838.972	49.78
839.268	48.34
839.564	51.81
839.86	50.23
840.155	44.13
840.451	52.58
840.746	48.68
841.042	49.64
841.337	43.92
841.632	51.24
841.928	49.65
842.223	42.25
842.518	52.6
842.813	42.71
843.108	49.45
843.403	51.06
843.698	51.28
843.993	45.58
844.287	49.24
844.582	55
844.877	63.8
845.171	54.26
845.466	52.32
845.761	40.69
846.055	55.04
846.349	37.67
846.644	62.27
846.938	64.98
847.232	38.16
847.526	60.99
847.82	45.02
848.114	42.48
848.408	47.24
848.702	42.72
848.996	58.93
849.29	43.36
849.584	71.51
849.877	64.41
850.171	55.8
850.465	44.86
850.758	46.59
851.052	43.4
851.345	48.32
851.638	47.98
851.932	38.03
852.225	59.77
852.518	50.17
852.811	48.83
853.104	52.15
853.397	40.01
853.69	52.58
853.983	67.36
854.276	70.48
854.569	27.64
854.861	49.43
855.154	44.07
855.447	40.51
855.739	37.22
856.032	60.48
856.324	40.36
856.616	57.3
856.909	53.73
857.201	38.56
857.493	34.98
857.785	55.32
858.077	46.51
858.369	50.24
858.661	65.32
858.953	31.35
859.245	51.76
859.537	51.72
859.829	48.36
860.12	47.5
860.412	36.98
860.703	64.98
860.995	33.24
861.286	48.09
861.578	26.89
861.869	36.73
862.16	57.3
862.452	44.17
862.743	46.63
863.034	46.13
863.325	37.78
863.616	58.93
863.907	52.77
864.198	50.62
864.488	41.93
864.779	75.21
865.07	47.43
865.36	61.17
865.651	32.52
865.941	51.69
866.232	53.71
866.522	53.7
866.813	50.37
867.103	35.46
867.393	22.18
867.683	40.12
867.973	47.49
868.263	42.65
868.553	42.04
868.843	37.82
869.133	44.6
869.423	56.83
869.713	58.8
870.002	70.19
870.292	44.36
870.582	67.87
870.871	40.74
871.161	36.78
871.45	36.42
871.739	18.6
872.029	31.22
872.318	35.24
872.607	47.49
872.896	33.7
873.185	57.43
873.474	39.42
873.763	51.01
874.052	67.54
874.341	6.85
874.63	50.28
874.918	37.13
875.207	44.84
875.496	69.44
875.784	46.63
876.073	35.26
876.361	61.2
876.649	40
876.938	38.84
877.226	47.52
877.514	53.04
877.802	43.67
878.09	45.42
878.378	47.69
878.666	39.6
878.954	41.81
879.242	57.41
879.53	23.67
879.817	37.41
880.105	31.62
880.392	41.05
880.68	57.49
880.967	34.95
881.255	48.29
881.542	47.3
881.83	44.64
882.117	70.5
882.404	44.44
882.691	46.52
882.978	48.68
883.265	61.04
883.552	49.43
883.839	52.82
884.126	53.08
884.413	57.93
884.699	59.31
884.986	55.25
885.273	50.17
885.559	50.17
885.846	50.17
