Data from 0057_crown_Reflection__0__83.txt Node

Date: Fri Dec 16 14:34:55 CST 2022
User: ToomeyLab
Spectrometer: FLMS14357
Trigger mode: 0
Integration Time (sec): 1.000000E-2
Scans to average: 100
Electric dark correction enabled: true
Nonlinearity correction enabled: false
Boxcar width: 0
XAxis mode: Wavelengths
Number of Pixels in Spectrum: 2048
>>>>>Begin Spectral Data<<<<<
189.047	21.55
189.435	21.55
189.823	21.55
190.211	134.76
190.599	14.63
190.987	164.76
191.375	37.12
191.763	-68.23
192.151	10454.17
192.538	98.9
192.926	502.93
193.314	72.99
193.702	-86.18
194.089	-199.77
194.477	522.26
194.864	-8.31
195.252	-30.92
195.639	157.86
196.027	513.5
196.414	-14.34
196.801	16.95
197.189	177.09
197.576	-10.41
197.963	-13352.5
198.351	-14.2
198.738	-12.94
199.125	16.95
199.512	-2.78
199.899	-10.73
200.286	-26.31
200.673	39.35
201.06	22.07
201.447	46.43
201.833	9.46
202.22	9.67
202.607	-9.1
202.994	10.15
203.38	-13.77
203.767	-18.73
204.154	-19.5
204.54	41.39
204.927	23.7
205.313	5.87
205.699	-2.47
206.086	18.94
206.472	-38.18
206.858	-18.79
207.245	-2.38
207.631	-19.15
208.017	6.03
208.403	-3.51
208.789	13.14
209.175	28.15
209.561	-8.46
209.947	-11.16
210.333	-4.68
210.719	-37.06
211.105	-64.61
211.491	8.67
211.876	12.99
212.262	5.16
212.648	-27.63
213.034	-1.95
213.419	33.53
213.805	-13.66
214.19	-12.27
214.576	-21.38
214.961	-7.54
215.346	-8.39
215.732	7.63
216.117	-16.7
216.502	-6.89
216.888	-12.84
217.273	31.38
217.658	-8.12
218.043	-2.02
218.428	-3.34
218.813	-14.69
219.198	-54.74
219.583	-1.7
219.968	-0.74
220.353	0.08
220.738	3.94
221.122	-17.17
221.507	4.48
221.892	7.73
222.276	6.57
222.661	-11.27
223.046	-5.26
223.43	-1.6
223.815	10.12
224.199	3.84
224.583	-8.31
224.968	6.71
225.352	-2
225.736	3.77
226.121	1.22
226.505	4.36
226.889	8.05
227.273	6.3
227.657	4.44
228.041	5.94
228.425	8.02
228.809	7.48
229.193	4.63
229.577	5.37
229.961	6.36
230.344	5.74
230.728	6.02
231.112	6.15
231.495	4.79
231.879	5.27
232.263	4.33
232.646	7.02
233.03	4.68
233.413	3.58
233.797	8.43
234.18	4.01
234.563	6.34
234.946	3.65
235.33	7.39
235.713	5.78
236.096	5
236.479	6.03
236.862	7.05
237.245	5.57
237.628	5.49
238.011	5.72
238.394	7.79
238.777	5.22
239.16	4.47
239.543	7
239.925	5.68
240.308	6.75
240.691	5.33
241.073	5.83
241.456	5.86
241.838	5.24
242.221	6.32
242.603	5.44
242.986	6.18
243.368	5.74
243.75	5.94
244.133	5.89
244.515	5.85
244.897	5.53
245.279	5.4
245.661	6.21
246.043	5.78
246.425	4.73
246.807	6.06
247.189	5.63
247.571	5.72
247.953	5.51
248.335	5.7
248.717	5.56
249.098	5.57
249.48	5.22
249.862	5.53
250.243	5.25
250.625	5.4
251.006	5.57
251.388	5.56
251.769	5.36
252.151	5.51
252.532	5.35
252.913	5.94
253.295	5.56
253.676	5.65
254.057	5.08
254.438	5.01
254.819	5.13
255.2	4.43
255.581	5.14
255.962	4.97
256.343	5.82
256.724	5.2
257.105	5.01
257.486	6.22
257.867	3.92
258.247	5.97
258.628	5.97
259.009	4.94
259.389	5.17
259.77	4.8
260.15	5.59
260.531	5.15
260.911	5.18
261.292	5.04
261.672	5.23
262.052	5.17
262.432	4.87
262.813	5.12
263.193	4.69
263.573	5.34
263.953	4.88
264.333	5.26
264.713	4.84
265.093	4.2
265.473	5.61
265.853	4.41
266.233	4.89
266.612	4.79
266.992	4.05
267.372	5.03
267.752	5.13
268.131	4.61
268.511	5.08
268.89	4.93
269.27	5.33
269.649	4.89
270.029	4.94
270.408	4.75
270.787	4.76
271.167	4.91
271.546	4.25
271.925	4.75
272.304	5.37
272.683	4.73
273.062	5.27
273.441	5.2
273.82	4.82
274.199	5.04
274.578	4.88
274.957	4.8
275.336	4.58
275.715	5.03
276.093	5.29
276.472	4.75
276.851	5.1
277.229	5.42
277.608	4.5
277.986	5.21
278.365	5.13
278.743	5.27
279.122	4.32
279.5	4.48
279.878	4.6
280.257	5.21
280.635	4.58
281.013	4.88
281.391	4.61
281.769	4.63
282.147	4.83
282.525	4.38
282.903	4.6
283.281	4.7
283.659	4.67
284.037	4.73
284.415	4.84
284.792	4.88
285.17	4.34
285.548	4.87
285.925	4.72
286.303	4.49
286.68	4.77
287.058	4.63
287.435	4.52
287.813	4.67
288.19	4.88
288.567	4.46
288.945	4.54
289.322	4.79
289.699	4.77
290.076	4.75
290.453	4.54
290.83	4.44
291.207	4.52
291.584	4.38
291.961	4.78
292.338	4.38
292.715	4.75
293.092	4.53
293.469	4.46
293.845	4.73
294.222	4.8
294.599	4.53
294.975	4.59
295.352	4.39
295.728	4.43
296.105	3.94
296.481	4.65
296.858	4.8
297.234	4.29
297.61	4.34
297.986	4.62
298.363	4.11
298.739	4.49
299.115	4.15
299.491	4.24
299.867	4.45
300.243	4.57
300.619	4.18
300.995	4.29
301.371	4.9
301.746	3.98
302.122	4.52
302.498	3.87
302.874	4.75
303.249	4.16
303.625	4.44
304	4.39
304.376	4.11
304.751	4.49
305.127	4.3
305.502	4.63
305.878	4.27
306.253	4.39
306.628	4.42
307.003	4.55
307.378	4.12
307.754	4.63
308.129	3.94
308.504	3.83
308.879	4.54
309.254	4.76
309.629	4.46
310.003	4.71
310.378	4.69
310.753	4.39
311.128	4.49
311.502	3.92
311.877	4.26
312.252	4.05
312.626	4.02
313.001	4.43
313.375	4.51
313.75	4.14
314.124	4.44
314.498	3.85
314.873	4.23
315.247	3.9
315.621	4.54
315.995	4.04
316.369	4.24
316.743	4.29
317.117	4.29
317.491	3.99
317.865	3.97
318.239	4.56
318.613	4.36
318.987	4.1
319.361	4.32
319.734	3.96
320.108	4.85
320.482	4.73
320.855	3.88
321.229	4.68
321.602	4.85
321.976	3.96
322.349	3.53
322.723	3.68
323.096	4.33
323.469	4.07
323.843	4.33
324.216	3.93
324.589	4.53
324.962	4.18
325.335	4.35
325.708	4.22
326.081	5.29
326.454	4.04
326.827	4.29
327.2	4.74
327.573	4.28
327.945	4.04
328.318	3.98
328.691	4.22
329.063	3.97
329.436	4.06
329.809	4.29
330.181	4.28
330.553	4.57
330.926	4.52
331.298	3.51
331.671	4.74
332.043	4.76
332.415	4.23
332.787	4.84
333.159	4.25
333.532	4.14
333.904	4.06
334.276	4.03
334.648	4.45
335.02	4.07
335.391	4.47
335.763	4.29
336.135	4.45
336.507	4.73
336.879	4.42
337.25	4.53
337.622	4.45
337.993	4.35
338.365	4.18
338.736	4.42
339.108	4
339.479	4.42
339.851	4.6
340.222	4.63
340.593	4.38
340.964	4.36
341.336	4.1
341.707	4.46
342.078	3.8
342.449	4.28
342.82	4.39
343.191	4.13
343.562	4.13
343.933	4.03
344.303	4.65
344.674	4.36
345.045	4.64
345.416	4.47
345.786	4.2
346.157	4.47
346.527	4.28
346.898	4.29
347.268	4.34
347.639	4.28
348.009	4.53
348.38	4.47
348.75	4.36
349.12	4.43
349.49	4.17
349.861	4.64
350.231	4.44
350.601	4.29
350.971	4.12
351.341	4.37
351.711	4.69
352.081	4.58
352.45	4.4
352.82	4.5
353.19	4.28
353.56	4.22
353.929	4.84
354.299	4.45
354.669	4.68
355.038	4.43
355.408	4.62
355.777	4.44
356.147	4.45
356.516	4.64
356.885	4.41
357.254	4.46
357.624	4.48
357.993	4.38
358.362	4.31
358.731	4.37
359.1	4.7
359.469	4.42
359.838	4.3
360.207	4.37
360.576	4.62
360.945	4.61
361.314	4.48
361.682	4.42
362.051	4.46
362.42	4.47
362.788	4.58
363.157	4.33
363.525	4.28
363.894	4.19
364.262	4.27
364.631	5.13
364.999	4.51
365.367	4.64
365.735	4.33
366.104	4.49
366.472	4.72
366.84	4.39
367.208	4.36
367.576	4.59
367.944	4.66
368.312	4.33
368.68	4.81
369.048	4.59
369.416	4.34
369.783	4.59
370.151	4.77
370.519	4.01
370.886	4.52
371.254	4.87
371.621	4.53
371.989	4.63
372.356	4.61
372.724	4.57
373.091	4.41
373.458	4.47
373.826	4.36
374.193	4.88
374.56	4.25
374.927	4.61
375.294	4.88
375.661	4.98
376.028	4.56
376.395	4.47
376.762	4.89
377.129	4.6
377.496	4.32
377.863	4.65
378.229	4.52
378.596	4.59
378.963	4.34
379.329	4.53
379.696	4.7
380.062	4.85
380.429	4.75
380.795	4.4
381.161	4.52
381.528	4.45
381.894	4.97
382.26	4.44
382.626	4.48
382.993	4.54
383.359	4.33
383.725	4.85
384.091	4.41
384.457	4.78
384.823	4.69
385.188	4.67
385.554	4.68
385.92	4.89
386.286	4.97
386.651	4.76
387.017	4.86
387.383	4.66
387.748	4.52
388.114	4.69
388.479	4.8
388.845	4.63
389.21	4.89
389.575	4.86
389.94	4.48
390.306	5.05
390.671	4.86
391.036	4.88
391.401	4.96
391.766	4.78
392.131	4.49
392.496	4.84
392.861	4.51
393.226	4.73
393.591	4.88
393.956	4.78
394.32	5.02
394.685	4.74
395.05	4.4
395.414	4.83
395.779	4.74
396.143	4.71
396.508	4.99
396.872	4.66
397.236	4.52
397.601	4.85
397.965	4.45
398.329	4.87
398.694	4.51
399.058	4.95
399.422	4.94
399.786	4.42
400.15	4.68
400.514	4.81
400.878	4.92
401.242	5
401.605	4.71
401.969	4.83
402.333	4.8
402.697	5.05
403.06	4.9
403.424	4.98
403.787	5.13
404.151	4.87
404.514	4.76
404.878	4.91
405.241	4.84
405.604	4.99
405.968	4.87
406.331	4.92
406.694	4.72
407.057	5.1
407.42	4.69
407.783	4.78
408.146	4.82
408.509	4.8
408.872	4.73
409.235	5.02
409.598	4.91
409.961	4.94
410.323	4.9
410.686	4.84
411.049	4.73
411.411	4.83
411.774	4.86
412.136	5
412.499	4.62
412.861	4.91
413.223	4.99
413.586	4.72
413.948	4.95
414.31	5.1
414.672	4.72
415.035	4.93
415.397	5.15
415.759	4.99
416.121	5.06
416.483	5.27
416.845	5.04
417.206	5.03
417.568	4.9
417.93	4.93
418.292	4.87
418.653	4.86
419.015	4.89
419.377	4.99
419.738	4.8
420.1	4.91
420.461	4.83
420.822	4.91
421.184	4.84
421.545	4.88
421.906	4.89
422.267	4.76
422.629	4.84
422.99	4.89
423.351	4.86
423.712	4.83
424.073	4.91
424.434	4.88
424.795	4.83
425.155	4.86
425.516	4.79
425.877	4.86
426.238	4.75
426.598	4.86
426.959	4.76
427.32	4.98
427.68	5.01
428.041	4.97
428.401	4.88
428.761	4.94
429.122	5.05
429.482	4.86
429.842	5.07
430.202	4.98
430.563	4.83
430.923	4.97
431.283	4.98
431.643	5.04
432.003	4.9
432.363	5.06
432.722	4.99
433.082	5
433.442	4.9
433.802	4.97
434.161	4.86
434.521	5.01
434.881	5.1
435.24	4.97
435.6	5.09
435.959	5.06
436.319	4.87
436.678	5.01
437.037	5.11
437.396	5.08
437.756	4.91
438.115	5.07
438.474	5.11
438.833	5.13
439.192	5.18
439.551	5.06
439.91	5.12
440.269	5.02
440.628	5.07
440.987	5
441.345	4.99
441.704	5.01
442.063	4.94
442.421	5.07
442.78	4.95
443.138	4.92
443.497	5.01
443.855	5.06
444.214	5.04
444.572	5.05
444.93	5.07
445.288	5.16
445.647	5.08
446.005	4.92
446.363	5.01
446.721	4.86
447.079	4.97
447.437	5.01
447.795	4.95
448.153	4.96
448.51	4.94
448.868	5.07
449.226	5.01
449.584	4.99
449.941	4.96
450.299	4.91
450.656	5.12
451.014	5.13
451.371	5.08
451.729	5.2
452.086	4.99
452.443	4.98
452.801	5.14
453.158	5.05
453.515	4.97
453.872	5.25
454.229	4.99
454.586	5.01
454.943	5.11
455.3	5.19
455.657	5.04
456.014	5.14
456.371	5.08
456.727	5.03
457.084	5.12
457.441	5.11
457.797	5.19
458.154	5.13
458.51	5.06
458.867	5.09
459.223	5.06
459.58	5.04
459.936	4.95
460.292	5.05
460.648	4.99
461.005	4.95
461.361	4.94
461.717	5.01
462.073	5.06
462.429	4.99
462.785	5.15
463.141	5.27
463.496	5.02
463.852	5.35
464.208	5.07
464.564	4.96
464.919	5.16
465.275	5.23
465.631	5.18
465.986	4.96
466.342	5.1
466.697	5.03
467.052	5.29
467.408	5.12
467.763	5.06
468.118	5.11
468.473	5.31
468.829	5.04
469.184	5.2
469.539	5.06
469.894	5.08
470.249	5.22
470.603	5.1
470.958	5.23
471.313	5.09
471.668	5.16
472.023	5.38
472.377	5.1
472.732	5.24
473.086	4.92
473.441	5.12
473.795	5.21
474.15	5.15
474.504	5.1
474.859	5.25
475.213	5.15
475.567	5.09
475.921	5.16
476.275	5.24
476.63	5.08
476.984	5.16
477.338	5.34
477.692	5.18
478.045	5.12
478.399	5.12
478.753	5.11
479.107	5.05
479.461	5.1
479.814	5.12
480.168	5.27
480.521	5.01
480.875	5.33
481.228	5.17
481.582	5.04
481.935	5.09
482.289	5.14
482.642	5.13
482.995	5.04
483.348	5.05
483.701	5
484.055	4.97
484.408	4.96
484.761	4.85
485.114	4.73
485.466	4.79
485.819	4.81
486.172	4.9
486.525	5
486.878	4.92
487.23	4.99
487.583	4.97
487.936	4.99
488.288	4.95
488.641	4.91
488.993	4.83
489.345	4.87
489.698	4.95
490.05	4.9
490.402	5.03
490.754	5.12
491.107	5.02
491.459	5.14
491.811	5.05
492.163	5.12
492.515	5
492.866	4.87
493.218	4.89
493.57	5
493.922	5.02
494.274	5.01
494.625	5.15
494.977	5.05
495.328	5.18
495.68	5.29
496.031	5.25
496.383	5.23
496.734	5.21
497.086	5.11
497.437	5.2
497.788	5.12
498.139	5.11
498.49	5.18
498.842	5.11
499.193	5.09
499.544	5.23
499.894	5.22
500.245	5.17
500.596	5.23
500.947	5.11
501.298	5.12
501.648	5.12
501.999	5.32
502.35	5.29
502.7	5.24
503.051	5.23
503.401	5.18
503.752	5.24
504.102	5.03
504.452	5.1
504.803	5.06
505.153	5.17
505.503	5.13
505.853	5.22
506.203	5.14
506.553	5.19
506.903	5.15
507.253	5.28
507.603	5.2
507.953	5.25
508.303	5.25
508.652	5.19
509.002	5.23
509.352	5.15
509.701	5.12
510.051	5.15
510.4	5.21
510.75	5.11
511.099	5.15
511.449	5.19
511.798	5.29
512.147	5.16
512.496	5.2
512.846	5.21
513.195	5.27
513.544	5.1
513.893	5.05
514.242	5.25
514.591	5.19
514.939	5.2
515.288	5.3
515.637	5.26
515.986	5.19
516.334	5.3
516.683	5.21
517.032	5.07
517.38	5.23
517.729	5.22
518.077	5.27
518.426	5.11
518.774	5.09
519.122	5.17
519.47	5.17
519.819	5.11
520.167	5.13
520.515	5.02
520.863	5.15
521.211	5.17
521.559	5.21
521.907	5.24
522.255	5.26
522.602	5.35
522.95	5.24
523.298	5.16
523.645	5.16
523.993	5.3
524.341	5.2
524.688	5.29
525.036	5.34
525.383	5.22
525.73	5.22
526.078	5.28
526.425	5.07
526.772	4.97
527.119	5.06
527.466	5.08
527.814	5.15
528.161	5.2
528.508	5.03
528.854	4.99
529.201	4.98
529.548	4.96
529.895	4.92
530.242	4.9
530.588	4.94
530.935	4.99
531.282	5.09
531.628	5.09
531.975	5.12
532.321	5.13
532.667	5.16
533.014	5.15
533.36	5.08
533.706	5.16
534.052	5.07
534.399	5.04
534.745	5.01
535.091	5.06
535.437	5.11
535.783	5.14
536.129	5.13
536.474	5.22
536.82	5.15
537.166	5.22
537.512	5.24
537.857	5.2
538.203	5.05
538.549	5.25
538.894	5.18
539.239	5.33
539.585	5.24
539.93	5.36
540.276	5.16
540.621	5.13
540.966	5.25
541.311	5.27
541.656	5.08
542.001	5.12
542.346	5.1
542.691	4.97
543.036	5.01
543.381	5.07
543.726	5.07
544.071	5.14
544.415	5.15
544.76	5.11
545.105	5.17
545.449	5.15
545.794	5.23
546.138	5.15
546.483	5.3
546.827	5.17
547.171	5.2
547.516	5.35
547.86	5.12
548.204	5.14
548.548	5.25
548.892	5.24
549.236	5.24
549.58	5.23
549.924	5.3
550.268	5.34
550.612	5.34
550.956	5.23
551.3	5.3
551.643	5.22
551.987	5.24
552.33	5.25
552.674	5.39
553.017	5.41
553.361	5.39
553.704	5.1
554.048	5.31
554.391	5.23
554.734	5.17
555.077	5.25
555.42	5.32
555.764	5.32
556.107	5.31
556.45	5.22
556.793	5.5
557.135	5.47
557.478	5.47
557.821	5.3
558.164	5.36
558.507	5.22
558.849	5.21
559.192	5.34
559.534	5.28
559.877	5.35
560.219	5.53
560.562	5.34
560.904	5.26
561.246	5.48
561.589	5.34
561.931	5.54
562.273	5.29
562.615	5.4
562.957	5.36
563.299	5.3
563.641	5.33
563.983	5.32
564.325	5.23
564.667	5.32
565.008	5.3
565.35	5.43
565.692	5.47
566.033	5.29
566.375	5.3
566.716	5.37
567.058	5.35
567.399	5.41
567.741	5.32
568.082	5.4
568.423	5.44
568.764	5.37
569.105	5.47
569.447	5.32
569.788	5.32
570.129	5.31
570.47	5.42
570.811	5.39
571.151	5.42
571.492	5.34
571.833	5.29
572.174	5.36
572.514	5.37
572.855	5.39
573.195	5.07
573.536	5.32
573.876	5.26
574.217	5.28
574.557	5.28
574.898	5.39
575.238	5.2
575.578	5.32
575.918	5.24
576.258	5.31
576.598	5.2
576.938	5.33
577.278	5.4
577.618	5.3
577.958	5.39
578.298	5.42
578.638	5.32
578.977	5.32
579.317	5.31
579.657	5.23
579.996	5.23
580.336	5.25
580.675	5.49
581.014	5.41
581.354	5.46
581.693	5.26
582.032	5.42
582.372	5.49
582.711	5.38
583.05	5.5
583.389	5.54
583.728	5.39
584.067	5.34
584.406	5.38
584.745	5.21
585.083	5.55
585.422	5.45
585.761	5.62
586.1	5.49
586.438	5.48
586.777	5.46
587.115	5.44
587.454	5.48
587.792	5.38
588.13	5.81
588.469	5.43
588.807	5.64
589.145	5.49
589.483	5.31
589.821	5.2
590.159	5.34
590.497	5.17
590.835	5.41
591.173	5.48
591.511	5.54
591.849	5.35
592.187	5.37
592.524	5.37
592.862	5.57
593.2	5.37
593.537	5.43
593.875	5.32
594.212	5.28
594.55	5.53
594.887	5.73
595.224	5.35
595.561	5.43
595.899	5.3
596.236	5.55
596.573	5.12
596.91	5.49
597.247	5.23
597.584	5.43
597.921	5.26
598.258	5.31
598.594	5.21
598.931	5.35
599.268	5.37
599.604	5.55
599.941	5.59
600.277	5.47
600.614	5.29
600.95	5.29
601.287	5.4
601.623	5.33
601.959	5.22
602.296	5.6
602.632	5.64
602.968	5.38
603.304	5.31
603.64	5.35
603.976	5.47
604.312	5.26
604.648	5.45
604.984	5.38
605.319	5.3
605.655	5.41
605.991	5.42
606.326	5.2
606.662	5.24
606.998	5.27
607.333	5.47
607.668	5.64
608.004	5.34
608.339	5.29
608.674	5.36
609.01	5.6
609.345	5.47
609.68	5.19
610.015	5.55
610.35	5.2
610.685	5.38
611.02	5.5
611.355	5.49
611.689	5.16
612.024	5.57
612.359	5.3
612.694	5.62
613.028	5.67
613.363	5.22
613.697	5.45
614.032	5.44
614.366	5.55
614.7	5.71
615.035	5.2
615.369	5.9
615.703	5.86
616.037	5.31
616.371	5.68
616.705	5.25
617.039	5.62
617.373	5.3
617.707	5.56
618.041	5.6
618.375	5.45
618.709	5.34
619.042	5.47
619.376	5.49
619.71	5.58
620.043	5.32
620.377	5.39
620.71	5.59
621.043	5.24
621.377	5.39
621.71	5.52
622.043	5.55
622.376	5.58
622.709	5.59
623.043	5.21
623.376	5.61
623.709	5.74
624.041	5.24
624.374	5.34
624.707	5.58
625.04	5.79
625.373	5.5
625.705	5.73
626.038	5.46
626.37	5.32
626.703	5.25
627.035	5.78
627.368	5.54
627.7	5.46
628.032	5.26
628.365	5.23
628.697	5.33
629.029	5.81
629.361	5.41
629.693	5.78
630.025	5.42
630.357	5.47
630.689	5.79
631.021	5.53
631.353	5.55
631.684	5.59
632.016	5.28
632.348	5.7
632.679	5.39
633.011	5.67
633.342	5.55
633.674	5.53
634.005	5.72
634.336	5.54
634.668	5.69
634.999	5.54
635.33	5.47
635.661	5.54
635.992	5.49
636.323	5.91
636.654	5.35
636.985	5.65
637.316	5.82
637.647	5.51
637.977	5.74
638.308	5.49
638.639	5.07
638.969	5.57
639.3	5.59
639.63	5.16
639.961	5.78
640.291	6.03
640.622	5.74
640.952	5.19
641.282	5.22
641.612	5.17
641.943	5.55
642.273	5.44
642.603	5.65
642.933	5.44
643.263	5.7
643.592	5.79
643.922	6.07
644.252	5.51
644.582	5.55
644.911	5.54
645.241	5.32
645.571	5.42
645.9	5.91
646.23	5.69
646.559	5.86
646.888	5.51
647.218	6.17
647.547	5.81
647.876	6.09
648.205	6.02
648.534	5.52
648.863	6.04
649.192	5.21
649.521	5.16
649.85	5.85
650.179	5.56
650.508	5.74
650.837	5.86
651.165	5.75
651.494	5.34
651.822	5.83
652.151	6.09
652.479	6.05
652.808	5.34
653.136	5.75
653.465	5.82
653.793	5.78
654.121	6.06
654.449	5.95
654.777	5.5
655.105	6.32
655.433	5.94
655.761	5.38
656.089	5.68
656.417	5.29
656.745	6.16
657.073	5.62
657.4	5.58
657.728	5.88
658.056	5.65
658.383	6.2
658.711	5.37
659.038	5.9
659.365	5.81
659.693	5.96
660.02	5.32
660.347	5.72
660.674	5.16
661.001	5.17
661.329	5.81
661.656	5.64
661.982	5.81
662.309	5.7
662.636	5.71
662.963	5.65
663.29	5.79
663.616	5.86
663.943	6.02
664.27	5.66
664.596	6
664.923	6.27
665.249	5.29
665.576	6.36
665.902	5.76
666.228	5.43
666.554	5.53
666.881	6.03
667.207	5.44
667.533	6.27
667.859	5.58
668.185	5.68
668.511	5.14
668.837	5.34
669.162	5.75
669.488	5.74
669.814	5.95
670.139	6.33
670.465	6.27
670.791	5.7
671.116	5.76
671.442	5.81
671.767	5.85
672.092	6.29
672.418	5.74
672.743	5.5
673.068	5.46
673.393	6.04
673.718	5.79
674.043	5.54
674.368	6.09
674.693	5.8
675.018	5.98
675.343	6.5
675.667	5.33
675.992	5.41
676.317	6.13
676.641	5.72
676.966	6.06
677.29	6.18
677.615	6.02
677.939	5.6
678.264	5.96
678.588	6.28
678.912	6.36
679.236	6.72
679.56	5.98
679.885	5.7
680.209	5.21
680.532	6.06
680.856	6.06
681.18	5.57
681.504	5.48
681.828	5.02
682.152	6.13
682.475	5.93
682.799	6.06
683.122	5.72
683.446	5.37
683.769	5.67
684.093	5.86
684.416	5.95
684.739	5.56
685.062	6.33
685.386	5.99
685.709	5.95
686.032	5.71
686.355	6.15
686.678	5.48
687.001	5.35
687.324	5.39
687.646	5.55
687.969	5.67
688.292	6.14
688.614	6.42
688.937	6.05
689.26	5.28
689.582	5.66
689.904	5.72
690.227	6.12
690.549	5.84
690.871	6.23
691.194	6.09
691.516	5.59
691.838	5.85
692.16	6.16
692.482	5.4
692.804	5.55
693.126	6.07
693.448	6.39
693.769	6.23
694.091	6.61
694.413	5.69
694.735	6.45
695.056	6.1
695.378	6.04
695.699	7.02
696.021	6.49
696.342	6.07
696.663	5.3
696.984	6.09
697.306	6.13
697.627	5.97
697.948	6.03
698.269	5.25
698.59	6.03
698.911	6.25
699.232	6.45
699.553	6.5
699.873	6.27
700.194	6.21
700.515	5.83
700.835	6.51
701.156	6.08
701.477	6.11
701.797	6.26
702.117	6.14
702.438	6.17
702.758	6.08
703.078	5.22
703.398	6.06
703.719	5.45
704.039	6.81
704.359	5.46
704.679	5.4
704.999	5.37
705.319	6.71
705.638	6.71
705.958	5.89
706.278	6.34
706.597	5.8
706.917	6.59
707.237	5.56
707.556	6.8
707.876	5.79
708.195	5.6
708.514	5.67
708.834	5.9
709.153	7.55
709.472	6.89
709.791	7.39
710.11	6.15
710.429	5.97
710.748	6.26
711.067	6.74
711.386	7.44
711.705	5.83
712.023	6.31
712.342	6.15
712.661	6.46
712.979	6.47
713.298	6.53
713.616	6.71
713.935	6.24
714.253	6.58
714.572	5.84
714.89	6.38
715.208	6.51
715.526	6.53
715.844	5.88
716.162	5.89
716.48	6.34
716.798	7.41
717.116	7.51
717.434	6.93
717.752	5.6
718.069	5.85
718.387	5.99
718.705	6.13
719.022	6.4
719.34	6.16
719.657	7.24
719.975	5.93
720.292	6.56
720.609	6.2
720.927	7.25
721.244	7.12
721.561	6.4
721.878	6.84
722.195	6.94
722.512	6.81
722.829	6.21
723.146	6.12
723.463	5.26
723.779	5.76
724.096	6.55
724.413	6.29
724.729	6.78
725.046	6.26
725.362	5.8
725.679	7.66
725.995	7.54
726.311	6.91
726.628	5.65
726.944	7.56
727.26	5.32
727.576	5.99
727.892	6.33
728.208	6.62
728.524	6.36
728.84	6.26
729.156	7.34
729.472	8.7
729.787	7
730.103	5.91
730.419	6.73
730.734	6.43
731.05	7
731.365	7.26
731.681	6.55
731.996	5.58
732.311	6.31
732.626	7.63
732.942	7.16
733.257	7.6
733.572	7.78
733.887	7.38
734.202	7.12
734.517	6.28
734.832	5.25
735.146	6.58
735.461	6.95
735.776	8.23
736.091	7.22
736.405	5.95
736.72	6.68
737.034	5.73
737.349	5.9
737.663	6.12
737.977	7.61
738.292	5.92
738.606	7.37
738.92	7.76
739.234	6.9
739.548	6.13
739.862	7.09
740.176	6.71
740.49	6.3
740.804	7.06
741.117	7.87
741.431	5.5
741.745	6.71
742.058	6.14
742.372	5.19
742.685	5.38
742.999	6.41
743.312	6.72
743.626	6.64
743.939	5.36
744.252	6.54
744.565	8.42
744.878	5.54
745.191	6.25
745.505	5.59
745.817	8.31
746.13	8.18
746.443	6.28
746.756	6.56
747.069	7.02
747.381	8.04
747.694	4.4
748.007	6.08
748.319	7.66
748.632	6.84
748.944	6.43
749.256	8.57
749.569	7.04
749.881	5.89
750.193	8.79
750.505	8.68
750.817	6.44
751.129	6.59
751.441	5.02
751.753	7.34
752.065	7.47
752.377	6.53
752.689	8.06
753	7.22
753.312	6
753.624	8.24
753.935	4.41
754.247	7.89
754.558	8.63
754.869	8.38
755.181	6.73
755.492	7.83
755.803	6.18
756.114	6.89
756.425	7.49
756.736	6.18
757.047	8.06
757.358	5.08
757.669	8.74
757.98	7.27
758.291	8.19
758.601	6.76
758.912	6.34
759.223	7.58
759.533	7.63
759.844	5.96
760.154	8.26
760.464	7.23
760.775	7.73
761.085	4.9
761.395	9.04
761.705	5.94
762.016	7.75
762.326	7.3
762.636	7.84
762.945	6.46
763.255	8.86
763.565	7.15
763.875	7.77
764.185	8.51
764.494	6.71
764.804	8.1
765.113	7.85
765.423	7.83
765.732	8.03
766.042	8.05
766.351	7.34
766.66	8.52
766.97	8.48
767.279	7.64
767.588	7.55
767.897	8.81
768.206	7.24
768.515	6.95
768.824	8.32
769.133	7.05
769.441	7.75
769.75	7.75
770.059	7.31
770.367	5.4
770.676	5.59
770.984	7.79
771.293	7.46
771.601	6.63
771.91	7.91
772.218	6.23
772.526	8.25
772.834	8.94
773.142	5.5
773.45	6.8
773.758	8.46
774.066	7.3
774.374	4.22
774.682	6.16
774.99	5.76
775.298	8.2
775.605	7.04
775.913	5.65
776.22	5.41
776.528	5.16
776.835	6.64
777.143	8.64
777.45	5.91
777.757	6.27
778.065	9.17
778.372	5.01
778.679	9.5
778.986	6.39
779.293	6.16
779.6	7.66
779.907	6.69
780.214	10.95
780.52	11.67
780.827	9.77
781.134	10.42
781.44	2.64
781.747	8.32
782.053	5.08
782.36	5.86
782.666	5.07
782.973	4.25
783.279	10.58
783.585	9.5
783.891	8.13
784.197	6.57
784.503	8.61
784.809	11.47
785.115	4.12
785.421	5.59
785.727	5.89
786.033	7.41
786.339	8.96
786.644	6.75
786.95	10.29
787.255	9.48
787.561	9.98
787.866	5.64
788.172	7.74
788.477	6.24
788.782	5.76
789.088	6.53
789.393	4.89
789.698	6.28
790.003	7.81
790.308	9.76
790.613	6.97
790.918	8.66
791.223	6.42
791.527	10.91
791.832	9.36
792.137	8.65
792.441	13.44
792.746	7.91
793.05	8.97
793.355	8.14
793.659	8.56
793.963	7.47
794.268	3.86
794.572	12.91
794.876	7.21
795.18	2.95
795.484	6.59
795.788	8.7
796.092	7.63
796.396	5.64
796.7	6.61
797.004	8.02
797.307	1.99
797.611	8.75
797.915	6.22
798.218	8.87
798.522	5.81
798.825	5.9
799.128	9.8
799.432	10.49
799.735	7.46
800.038	4.24
800.341	9.37
800.644	10.48
800.947	7.16
801.25	1.9
801.553	6.45
801.856	4.84
802.159	6.66
802.462	6.77
802.764	7.58
803.067	5.13
803.37	5.13
803.672	6.25
803.975	11.22
804.277	10.66
804.579	9.3
804.882	6.35
805.184	2.18
805.486	4.7
805.788	10.7
806.09	9.6
806.392	9.75
806.694	7.54
806.996	8.53
807.298	-0.91
807.6	12.29
807.902	11.14
808.203	6.58
808.505	7.19
808.807	12.6
809.108	10.74
809.409	10.95
809.711	7.25
810.012	7.37
810.313	8.18
810.615	9.01
810.916	8.26
811.217	13.17
811.518	13.83
811.819	4.84
812.12	7.09
812.421	8.05
812.722	3.33
813.023	13.63
813.323	12.65
813.624	12.51
813.925	7.05
814.225	4.25
814.526	17.65
814.826	9.64
815.126	7.19
815.427	7.89
815.727	9.97
816.027	11.51
816.327	0.8
816.627	5.8
816.927	8.52
817.227	4.55
817.527	5.81
817.827	11.29
818.127	14.23
818.427	1.49
818.727	7.2
819.026	12.18
819.326	13.94
819.625	10.06
819.925	8.2
820.224	3.2
820.524	4.73
820.823	7.25
821.122	9.47
821.421	5.93
821.72	12.43
822.019	7.98
822.318	9.9
822.617	8.62
822.916	10.02
823.215	10.07
823.514	6.45
823.813	8.39
824.111	9.87
824.41	8.72
824.709	10.16
825.007	10.26
825.306	10.46
825.604	10.46
825.902	9.45
826.201	9.44
826.499	9.62
826.797	10.1
827.095	8.12
827.393	8.88
827.691	11.07
827.989	9.98
828.287	10.33
828.585	10.08
828.882	9.16
829.18	9.38
829.478	7.83
829.775	10.53
830.073	8.91
830.37	8.48
830.668	8.32
830.965	6.3
831.263	6.76
831.56	10.6
831.857	12.91
832.154	12.35
832.451	12.71
832.748	12.32
833.045	13.4
833.342	7.85
833.639	10.07
833.936	9.03
834.232	14.66
834.529	7.88
834.826	9.28
835.122	8.99
835.419	8.56
835.715	5.56
836.012	9.41
836.308	10.96
836.604	9.74
836.901	14.08
837.197	11.01
837.493	7.18
837.789	11.48
838.085	7.58
838.381	11.76
838.677	8.06
838.972	5.32
839.268	9.36
839.564	12.92
839.86	5.94
840.155	9.2
840.451	0.06
840.746	7.17
841.042	8.92
841.337	6.64
841.632	11.13
841.928	6.99
842.223	6.5
842.518	13.82
842.813	13.91
843.108	0.11
843.403	19.03
843.698	8.02
843.993	4.21
844.287	15.35
844.582	11.34
844.877	11.41
845.171	6.5
845.466	-0.1
845.761	3.19
846.055	19.03
846.349	-2.97
846.644	13.01
846.938	8.73
847.232	8.13
847.526	7.4
847.82	1.15
848.114	7.76
848.408	17.72
848.702	9.58
848.996	15.6
849.29	21.13
849.584	4.04
849.877	16.17
850.171	2.75
850.465	-3.57
850.758	21.82
851.052	13.54
851.345	8.28
851.638	26.1
851.932	12.4
852.225	4.7
852.518	4.9
852.811	-1.45
853.104	13.77
853.397	13.63
853.69	-1.79
853.983	0.15
854.276	0.6
854.569	7.23
854.861	4.5
855.154	20.94
855.447	8.42
855.739	4.08
856.032	9.56
856.324	0.19
856.616	15.08
856.909	17.29
857.201	23.78
857.493	-2.36
857.785	25.06
858.077	13.72
858.369	2.16
858.661	18.06
858.953	-3.94
859.245	1.34
859.537	20.94
859.829	12.83
860.12	1.62
860.412	-11.61
860.703	7.43
860.995	-0.9
861.286	18.28
861.578	0.68
861.869	-7.76
862.16	-3.96
862.452	5.76
862.743	17.47
863.034	12.29
863.325	10.47
863.616	1
863.907	-14.92
864.198	22.66
864.488	-10.27
864.779	-0.67
865.07	19.14
865.36	21.69
865.651	7.47
865.941	34.18
866.232	-2.99
866.522	25.96
866.813	27.54
867.103	14.04
867.393	2.47
867.683	17.31
867.973	-7.8
868.263	-3.19
868.553	20.52
868.843	-19.34
869.133	21.41
869.423	31.39
869.713	23.84
870.002	-20.39
870.292	-1.41
870.582	29.48
870.871	-0.33
871.161	3.12
871.45	9.37
871.739	-19.22
872.029	7.21
872.318	24.64
872.607	13.67
872.896	12.8
873.185	13.83
873.474	26.43
873.763	15.36
874.052	6.28
874.341	-20.29
874.63	14.16
874.918	23.63
875.207	7.2
875.496	27.86
875.784	10.44
876.073	-11.61
876.361	11.1
876.649	19.44
876.938	17.65
877.226	4.81
877.514	-6.74
877.802	15.3
878.09	-0.59
878.378	8.95
878.666	-14.04
878.954	27.31
879.242	20.56
879.53	3.28
879.817	9.07
880.105	-24.25
880.392	8.41
880.68	-6.99
880.967	26.88
881.255	1.78
881.542	43.62
881.83	19.8
882.117	-0.53
882.404	-1.5
882.691	20.4
882.978	-11.73
883.265	19.67
883.552	4.68
883.839	14.33
884.126	5.49
884.413	5.47
884.699	10.18
884.986	7.84
885.273	10.98
885.559	10.98
885.846	10.98
