Data from 0057_chest_Reflection__1__79.txt Node

Date: Fri Dec 16 14:30:43 CST 2022
User: ToomeyLab
Spectrometer: FLMS14357
Trigger mode: 0
Integration Time (sec): 1.000000E-2
Scans to average: 100
Electric dark correction enabled: true
Nonlinearity correction enabled: false
Boxcar width: 0
XAxis mode: Wavelengths
Number of Pixels in Spectrum: 2048
>>>>>Begin Spectral Data<<<<<
189.047	-9.34
189.435	-9.34
189.823	-9.34
190.211	-105.99
190.599	-90.64
190.987	332.92
191.375	122.56
191.763	95.96
192.151	19566.67
192.538	119.54
192.926	48.94
193.314	69.96
193.702	55.47
194.089	-194.41
194.477	-94.29
194.864	24.83
195.252	-29.55
195.639	154.75
196.027	-236
196.414	-66.44
196.801	393.15
197.189	201.78
197.576	164.32
197.963	-8340
198.351	-16.4
198.738	-5.83
199.125	-9.14
199.512	-15.72
199.899	-15.7
200.286	-25.95
200.673	17.58
201.06	-1.39
201.447	41.49
201.833	2.67
202.22	41.09
202.607	-49.59
202.994	-6.8
203.38	-1.53
203.767	-27.19
204.154	-41.82
204.54	24.32
204.927	-2.46
205.313	11.34
205.699	-4.03
206.086	-19.71
206.472	-46.95
206.858	5.18
207.245	-2.27
207.631	-13.65
208.017	29.14
208.403	23.03
208.789	-17.22
209.175	38.13
209.561	-0.5
209.947	5
210.333	-26.12
210.719	5.14
211.105	-34.8
211.491	-15.48
211.876	3.65
212.262	-17.71
212.648	-44.06
213.034	-20.27
213.419	14.64
213.805	3.56
214.19	6.1
214.576	-21.26
214.961	-24.06
215.346	-30.37
215.732	-19.98
216.117	-15.05
216.502	-6.95
216.888	-47.34
217.273	11.69
217.658	-34.24
218.043	-16.72
218.428	-4.41
218.813	-10.02
219.198	-58.74
219.583	20.15
219.968	-11.8
220.353	17.4
220.738	-18.04
221.122	-19.31
221.507	-9.97
221.892	4.3
222.276	-4.2
222.661	-6.98
223.046	4.36
223.43	-2.66
223.815	-2.16
224.199	6.17
224.583	-7.06
224.968	3.67
225.352	1.07
225.736	3.46
226.121	-4.91
226.505	1.97
226.889	5.27
227.273	1.43
227.657	-0.52
228.041	1.58
228.425	-1.29
228.809	-0.56
229.193	-0.92
229.577	0.18
229.961	0.65
230.344	1.65
230.728	0.98
231.112	0.65
231.495	0.19
231.879	-0.77
232.263	0.24
232.646	-0.51
233.03	-0.54
233.413	-0.48
233.797	0.72
234.18	-1.19
234.563	0.11
234.946	0.39
235.33	2.16
235.713	1.28
236.096	0.16
236.479	0.72
236.862	1.45
237.245	3.74
237.628	0.54
238.011	1.11
238.394	2.64
238.777	0.09
239.16	-0.29
239.543	-1.5
239.925	1.15
240.308	2.2
240.691	0.75
241.073	1.31
241.456	1.29
241.838	1.45
242.221	1.56
242.603	1.18
242.986	2.04
243.368	0.78
243.75	0.71
244.133	0.93
244.515	0.9
244.897	0.65
245.279	0.71
245.661	1.26
246.043	0.96
246.425	0.36
246.807	0.95
247.189	0.56
247.571	1.56
247.953	0.79
248.335	1.06
248.717	1.31
249.098	1.28
249.48	0.7
249.862	1.14
250.243	1
250.625	1.12
251.006	1.02
251.388	1.29
251.769	0.65
252.151	0.17
252.532	1.13
252.913	1
253.295	1.03
253.676	1.07
254.057	0.63
254.438	0.16
254.819	0.59
255.2	0.93
255.581	0.2
255.962	1.75
256.343	1.42
256.724	0.63
257.105	1.02
257.486	1.25
257.867	-0.87
258.247	1.27
258.628	1.45
259.009	0.42
259.389	1.37
259.77	0.6
260.15	1.72
260.531	1.17
260.911	1.12
261.292	1
261.672	1.08
262.052	0.88
262.432	0.72
262.813	1.03
263.193	0.64
263.573	1
263.953	1.06
264.333	0.61
264.713	1.06
265.093	0.68
265.473	1.45
265.853	1.06
266.233	0.73
266.612	0.99
266.992	0.32
267.372	0.55
267.752	0.59
268.131	1.28
268.511	1.64
268.89	1.46
269.27	1.37
269.649	1.7
270.029	0.36
270.408	0.74
270.787	0.98
271.167	1.18
271.546	0.34
271.925	1.38
272.304	1.02
272.683	0.93
273.062	1.4
273.441	1.06
273.82	0.92
274.199	1
274.578	0.31
274.957	0.99
275.336	0.94
275.715	1.62
276.093	1.81
276.472	1.43
276.851	1.18
277.229	1.68
277.608	0.67
277.986	0.83
278.365	0.64
278.743	1.22
279.122	0.74
279.5	1
279.878	0.54
280.257	1.36
280.635	0.53
281.013	1.32
281.391	1.24
281.769	0.79
282.147	1.62
282.525	1.03
282.903	1.17
283.281	0.72
283.659	1.15
284.037	0.94
284.415	0.74
284.792	0.85
285.17	0.81
285.548	0.7
285.925	0.79
286.303	1.24
286.68	1.06
287.058	0.97
287.435	0.83
287.813	0.59
288.19	1.41
288.567	1.06
288.945	0.72
289.322	0.69
289.699	0.97
290.076	1.37
290.453	1.03
290.83	1.15
291.207	0.75
291.584	0.82
291.961	1.41
292.338	1.02
292.715	1.22
293.092	0.89
293.469	1.28
293.845	1.51
294.222	1.02
294.599	1.29
294.975	1.36
295.352	0.68
295.728	1.29
296.105	1
296.481	1.53
296.858	1.2
297.234	1.32
297.61	1.02
297.986	1.09
298.363	1
298.739	1.2
299.115	0.99
299.491	1.14
299.867	1.22
300.243	0.83
300.619	1.2
300.995	1.19
301.371	1.14
301.746	1.11
302.122	1.22
302.498	1.36
302.874	1.33
303.249	1.26
303.625	0.98
304	0.75
304.376	1.72
304.751	1.16
305.127	1.43
305.502	1.49
305.878	1.16
306.253	1.09
306.628	1.19
307.003	0.74
307.378	0.82
307.754	1.49
308.129	0.66
308.504	1.18
308.879	1.74
309.254	1.48
309.629	1
310.003	1.82
310.378	1.29
310.753	1.08
311.128	1.02
311.502	1.17
311.877	0.94
312.252	1.05
312.626	1.16
313.001	1.18
313.375	1.2
313.75	1.18
314.124	1.74
314.498	1.1
314.873	1.42
315.247	1.12
315.621	1.38
315.995	1.38
316.369	0.98
316.743	1.54
317.117	1.44
317.491	1.1
317.865	0.6
318.239	1.68
318.613	1.19
318.987	1.25
319.361	1.07
319.734	1.43
320.108	1.61
320.482	1.26
320.855	0.9
321.229	1.51
321.602	1.11
321.976	0.85
322.349	0.71
322.723	0.91
323.096	0.82
323.469	1.41
323.843	1.54
324.216	0.77
324.589	1.58
324.962	1.63
325.335	1.06
325.708	1.4
326.081	1.73
326.454	1.32
326.827	1.48
327.2	1.54
327.573	1.58
327.945	1.48
328.318	1.69
328.691	1.89
329.063	1.09
329.436	1.04
329.809	0.9
330.181	1.16
330.553	1.23
330.926	1.38
331.298	1.32
331.671	1.38
332.043	1.44
332.415	1.48
332.787	2.11
333.159	1.64
333.532	1.27
333.904	1.49
334.276	1.43
334.648	1.52
335.02	1.49
335.391	1.68
335.763	1.22
336.135	1.88
336.507	1.77
336.879	1.36
337.25	1.45
337.622	1.66
337.993	1.46
338.365	1.54
338.736	1.48
339.108	1.35
339.479	0.96
339.851	1.96
340.222	1.49
340.593	0.96
340.964	1.26
341.336	1.45
341.707	1.47
342.078	1.39
342.449	1.77
342.82	1.46
343.191	1.27
343.562	1.18
343.933	1.77
344.303	1.52
344.674	1.48
345.045	1.59
345.416	1.25
345.786	0.99
346.157	1.41
346.527	1.38
346.898	1.44
347.268	1.2
347.639	1.26
348.009	1.93
348.38	1.31
348.75	1.51
349.12	1.32
349.49	1.47
349.861	1.57
350.231	1.6
350.601	1.61
350.971	1.32
351.341	1.51
351.711	1.44
352.081	1.28
352.45	1.65
352.82	1.38
353.19	1.29
353.56	1.28
353.929	1.56
354.299	1.65
354.669	1.39
355.038	1.63
355.408	1.62
355.777	1.61
356.147	1.59
356.516	1.7
356.885	1.59
357.254	1.62
357.624	1.63
357.993	1.17
358.362	1.75
358.731	1.53
359.1	1.62
359.469	1.33
359.838	1.52
360.207	1.3
360.576	1.54
360.945	1.44
361.314	1.88
361.682	1.28
362.051	1.29
362.42	1.72
362.788	1.59
363.157	1.47
363.525	1.46
363.894	1.36
364.262	1.47
364.631	2.05
364.999	1.28
365.367	1.85
365.735	1.11
366.104	1.35
366.472	1.7
366.84	1.75
367.208	1.26
367.576	1.79
367.944	1.83
368.312	1.53
368.68	1.45
369.048	1.66
369.416	1.53
369.783	1.39
370.151	1.44
370.519	1.44
370.886	1.37
371.254	1.41
371.621	1.46
371.989	1.55
372.356	1.29
372.724	1.67
373.091	1.32
373.458	1.56
373.826	1.32
374.193	1.89
374.56	1.43
374.927	1.52
375.294	1.72
375.661	1.46
376.028	1.94
376.395	1.6
376.762	1.7
377.129	1.59
377.496	1.6
377.863	1.65
378.229	1.6
378.596	1.63
378.963	1.54
379.329	1.63
379.696	1.25
380.062	1.87
380.429	1.7
380.795	1.55
381.161	1.79
381.528	1.44
381.894	1.94
382.26	1.52
382.626	1.5
382.993	1.28
383.359	1.46
383.725	1.61
384.091	1.44
384.457	1.48
384.823	1.48
385.188	1.64
385.554	1.34
385.92	1.85
386.286	1.67
386.651	1.63
387.017	1.83
387.383	1.69
387.748	1.44
388.114	1.7
388.479	1.75
388.845	1.65
389.21	1.75
389.575	1.76
389.94	1.6
390.306	1.49
390.671	1.68
391.036	1.78
391.401	2.18
391.766	1.59
392.131	1.87
392.496	1.58
392.861	1.81
393.226	1.74
393.591	1.82
393.956	1.64
394.32	1.68
394.685	1.8
395.05	1.38
395.414	1.53
395.779	1.69
396.143	1.81
396.508	1.73
396.872	1.91
397.236	1.33
397.601	1.79
397.965	1.37
398.329	2
398.694	1.39
399.058	1.69
399.422	1.83
399.786	1.83
400.15	1.8
400.514	1.9
400.878	1.65
401.242	1.83
401.605	1.85
401.969	1.81
402.333	1.46
402.697	1.73
403.06	1.89
403.424	1.63
403.787	2.02
404.151	1.69
404.514	1.73
404.878	1.8
405.241	1.77
405.604	1.66
405.968	1.84
406.331	1.86
406.694	1.74
407.057	1.98
407.42	1.97
407.783	1.67
408.146	1.88
408.509	1.74
408.872	1.64
409.235	1.96
409.598	2
409.961	1.92
410.323	1.79
410.686	1.75
411.049	1.69
411.411	1.74
411.774	1.55
412.136	1.8
412.499	1.68
412.861	1.5
413.223	1.93
413.586	1.78
413.948	1.87
414.31	1.89
414.672	1.59
415.035	1.97
415.397	1.74
415.759	1.93
416.121	1.9
416.483	2.01
416.845	2.05
417.206	1.94
417.568	1.89
417.93	1.7
418.292	1.91
418.653	1.89
419.015	1.91
419.377	2
419.738	1.81
420.1	1.91
420.461	1.75
420.822	1.85
421.184	1.83
421.545	1.84
421.906	1.77
422.267	1.78
422.629	1.89
422.99	1.83
423.351	1.94
423.712	1.87
424.073	1.97
424.434	1.74
424.795	1.74
425.155	1.84
425.516	1.81
425.877	1.9
426.238	1.87
426.598	1.94
426.959	1.86
427.32	1.87
427.68	2
428.041	1.86
428.401	1.91
428.761	1.91
429.122	1.87
429.482	1.7
429.842	1.99
430.202	1.87
430.563	1.75
430.923	1.98
431.283	1.84
431.643	1.85
432.003	1.97
432.363	2.07
432.722	1.99
433.082	1.88
433.442	1.89
433.802	1.94
434.161	1.9
434.521	1.85
434.881	2.09
435.24	1.83
435.6	1.93
435.959	1.87
436.319	1.94
436.678	1.94
437.037	1.93
437.396	1.92
437.756	1.76
438.115	1.91
438.474	2.02
438.833	2.01
439.192	2.11
439.551	2.07
439.91	2.14
440.269	2.04
440.628	1.86
440.987	1.84
441.345	1.88
441.704	1.9
442.063	2.07
442.421	1.91
442.78	2
443.138	2.01
443.497	1.96
443.855	1.93
444.214	1.93
444.572	1.91
444.93	2.12
445.288	1.98
445.647	2.02
446.005	1.9
446.363	2.04
446.721	1.89
447.079	1.9
447.437	1.96
447.795	1.98
448.153	1.92
448.51	1.96
448.868	2.06
449.226	2.06
449.584	2.02
449.941	2.04
450.299	2.05
450.656	1.9
451.014	1.96
451.371	2.06
451.729	2.03
452.086	1.92
452.443	2.07
452.801	1.99
453.158	1.96
453.515	2.01
453.872	2.02
454.229	1.91
454.586	1.91
454.943	1.91
455.3	2.08
455.657	1.92
456.014	2.01
456.371	2.05
456.727	2.07
457.084	1.87
457.441	2
457.797	2.09
458.154	2.19
458.51	2
458.867	1.98
459.223	2.05
459.58	2.05
459.936	2.01
460.292	2.1
460.648	2.03
461.005	2.01
461.361	1.99
461.717	1.91
462.073	2.07
462.429	2.06
462.785	2.03
463.141	2.26
463.496	2.07
463.852	2.06
464.208	1.92
464.564	2.07
464.919	2.11
465.275	1.95
465.631	2.06
465.986	2.12
466.342	2.11
466.697	2.11
467.052	2.27
467.408	2.18
467.763	1.92
468.118	2.08
468.473	2.18
468.829	2.02
469.184	2.27
469.539	1.91
469.894	2.05
470.249	2.15
470.603	2.18
470.958	2.22
471.313	2
471.668	2.31
472.023	2.26
472.377	1.98
472.732	2.09
473.086	2.14
473.441	2.15
473.795	2.14
474.15	2.13
474.504	2.07
474.859	2.01
475.213	2.11
475.567	2.07
475.921	2.27
476.275	2.15
476.63	2.19
476.984	2
477.338	2.29
477.692	2.19
478.045	2.15
478.399	2.2
478.753	2.02
479.107	2.1
479.461	2.26
479.814	2.21
480.168	2.12
480.521	2.2
480.875	2.26
481.228	2.34
481.582	2.09
481.935	2.16
482.289	2.05
482.642	2.17
482.995	2.19
483.348	2.18
483.701	2.22
484.055	2.09
484.408	2.09
484.761	2.05
485.114	2.02
485.466	2.04
485.819	2.08
486.172	2.09
486.525	2.14
486.878	2.1
487.23	2.13
487.583	2.16
487.936	2.2
488.288	2.16
488.641	2.11
488.993	2.08
489.345	2.13
489.698	2.18
490.05	2.12
490.402	2.18
490.754	2.27
491.107	2.26
491.459	2.22
491.811	2.22
492.163	2.23
492.515	2.18
492.866	2.08
493.218	2.16
493.57	2.14
493.922	2.16
494.274	2.26
494.625	2.22
494.977	2.18
495.328	2.39
495.68	2.41
496.031	2.31
496.383	2.26
496.734	2.37
497.086	2.25
497.437	2.34
497.788	2.3
498.139	2.25
498.49	2.31
498.842	2.23
499.193	2.32
499.544	2.42
499.894	2.31
500.245	2.31
500.596	2.35
500.947	2.22
501.298	2.31
501.648	2.24
501.999	2.47
502.35	2.37
502.7	2.42
503.051	2.5
503.401	2.45
503.752	2.41
504.102	2.34
504.452	2.35
504.803	2.29
505.153	2.31
505.503	2.31
505.853	2.32
506.203	2.39
506.553	2.47
506.903	2.35
507.253	2.44
507.603	2.42
507.953	2.4
508.303	2.6
508.652	2.43
509.002	2.47
509.352	2.38
509.701	2.45
510.051	2.5
510.4	2.43
510.75	2.43
511.099	2.34
511.449	2.48
511.798	2.56
512.147	2.49
512.496	2.44
512.846	2.38
513.195	2.49
513.544	2.44
513.893	2.42
514.242	2.55
514.591	2.51
514.939	2.49
515.288	2.62
515.637	2.58
515.986	2.52
516.334	2.53
516.683	2.53
517.032	2.44
517.38	2.58
517.729	2.57
518.077	2.55
518.426	2.46
518.774	2.5
519.122	2.59
519.47	2.47
519.819	2.51
520.167	2.58
520.515	2.51
520.863	2.58
521.211	2.51
521.559	2.57
521.907	2.55
522.255	2.61
522.602	2.7
522.95	2.61
523.298	2.55
523.645	2.69
523.993	2.75
524.341	2.66
524.688	2.62
525.036	2.76
525.383	2.71
525.73	2.71
526.078	2.6
526.425	2.59
526.772	2.59
527.119	2.6
527.466	2.6
527.814	2.56
528.161	2.62
528.508	2.66
528.854	2.59
529.201	2.59
529.548	2.56
529.895	2.58
530.242	2.55
530.588	2.58
530.935	2.63
531.282	2.67
531.628	2.66
531.975	2.72
532.321	2.65
532.667	2.72
533.014	2.8
533.36	2.75
533.706	2.74
534.052	2.63
534.399	2.62
534.745	2.67
535.091	2.7
535.437	2.73
535.783	2.77
536.129	2.8
536.474	2.84
536.82	2.79
537.166	2.8
537.512	2.85
537.857	2.78
538.203	2.76
538.549	2.91
538.894	2.88
539.239	2.97
539.585	2.94
539.93	2.93
540.276	2.84
540.621	2.87
540.966	2.83
541.311	2.9
541.656	2.78
542.001	3
542.346	2.85
542.691	2.83
543.036	2.86
543.381	2.91
543.726	2.91
544.071	2.94
544.415	2.94
544.76	2.87
545.105	3.02
545.449	2.96
545.794	3.02
546.138	3.13
546.483	3
546.827	3.13
547.171	3.06
547.516	3.17
547.86	3.07
548.204	2.94
548.548	3.13
548.892	3.2
549.236	3.07
549.58	3.1
549.924	3.26
550.268	3.34
550.612	3.21
550.956	3.12
551.3	3.22
551.643	3.26
551.987	3.22
552.33	3.21
552.674	3.35
553.017	3.21
553.361	3.18
553.704	3.29
554.048	3.31
554.391	3.22
554.734	3.37
555.077	3.3
555.42	3.28
555.764	3.39
556.107	3.46
556.45	3.24
556.793	3.62
557.135	3.41
557.478	3.44
557.821	3.23
558.164	3.57
558.507	3.43
558.849	3.4
559.192	3.49
559.534	3.2
559.877	3.59
560.219	3.7
560.562	3.68
560.904	3.63
561.246	3.67
561.589	3.69
561.931	3.75
562.273	3.52
562.615	3.76
562.957	3.66
563.299	3.64
563.641	3.72
563.983	3.59
564.325	3.51
564.667	3.69
565.008	3.65
565.35	3.88
565.692	3.9
566.033	3.72
566.375	3.64
566.716	3.74
567.058	3.81
567.399	3.85
567.741	3.87
568.082	3.74
568.423	3.68
568.764	4.01
569.105	3.93
569.447	3.75
569.788	3.84
570.129	3.77
570.47	3.88
570.811	3.78
571.151	4.03
571.492	3.95
571.833	3.97
572.174	3.86
572.514	3.92
572.855	4
573.195	3.84
573.536	3.86
573.876	3.96
574.217	3.92
574.557	4.08
574.898	3.96
575.238	3.94
575.578	4.29
575.918	4.01
576.258	3.96
576.598	4.03
576.938	4.32
577.278	4.12
577.618	4.13
577.958	4.31
578.298	4.22
578.638	4.23
578.977	4.21
579.317	4.39
579.657	4.31
579.996	4.24
580.336	4.35
580.675	4.48
581.014	4.43
581.354	4.53
581.693	4.33
582.032	4.19
582.372	4.5
582.711	4.32
583.05	4.59
583.389	4.69
583.728	4.56
584.067	4.68
584.406	4.58
584.745	4.54
585.083	4.88
585.422	4.56
585.761	4.68
586.1	4.79
586.438	4.5
586.777	4.55
587.115	4.8
587.454	4.76
587.792	4.56
588.13	4.93
588.469	4.94
588.807	4.89
589.145	4.89
589.483	4.65
589.821	4.76
590.159	4.74
590.497	4.74
590.835	4.86
591.173	4.83
591.511	4.79
591.849	5.03
592.187	5
592.524	4.85
592.862	5
593.2	4.99
593.537	4.99
593.875	4.81
594.212	4.9
594.55	4.84
594.887	5.15
595.224	5
595.561	5.02
595.899	5.19
596.236	5.16
596.573	5.02
596.91	5.16
597.247	5.09
597.584	5.4
597.921	5.29
598.258	5.15
598.594	5.04
598.931	5.22
599.268	5.28
599.604	5.54
599.941	5.26
600.277	5.33
600.614	5.39
600.95	5.58
601.287	5.39
601.623	5.79
601.959	5.28
602.296	5.35
602.632	5.64
602.968	5.64
603.304	5.2
603.64	5.69
603.976	5.49
604.312	5.71
604.648	5.67
604.984	5.56
605.319	5.56
605.655	5.6
605.991	5.55
606.326	5.59
606.662	5.57
606.998	5.63
607.333	5.74
607.668	5.79
608.004	5.74
608.339	5.8
608.674	5.71
609.01	5.95
609.345	6.02
609.68	5.74
610.015	5.95
610.35	5.86
610.685	5.96
611.02	5.9
611.355	5.91
611.689	5.85
612.024	6.27
612.359	6.06
612.694	6.11
613.028	6.23
613.363	5.79
613.697	6.3
614.032	6.3
614.366	5.96
614.7	6.5
615.035	6.19
615.369	6.23
615.703	6.61
616.037	6.06
616.371	6.04
616.705	6.47
617.039	6.63
617.373	6.37
617.707	6.48
618.041	6.41
618.375	6.28
618.709	6.68
619.042	6.54
619.376	6.54
619.71	6.88
620.043	6.42
620.377	6.66
620.71	6.67
621.043	6.32
621.377	6.52
621.71	7.31
622.043	6.97
622.376	6.51
622.709	6.96
623.043	6.9
623.376	7.03
623.709	6.68
624.041	6.75
624.374	6.9
624.707	6.9
625.04	7.23
625.373	6.67
625.705	6.86
626.038	7.04
626.37	6.99
626.703	6.91
627.035	7.3
627.368	7
627.7	7.14
628.032	7.08
628.365	6.96
628.697	7.04
629.029	7.43
629.361	7.2
629.693	7.4
630.025	7.2
630.357	7.31
630.689	7.7
631.021	7.27
631.353	7.45
631.684	7.44
632.016	7.34
632.348	7.23
632.679	7.01
633.011	7.5
633.342	7.55
633.674	7.31
634.005	7.35
634.336	7.44
634.668	7.19
634.999	7.31
635.33	7.7
635.661	7.81
635.992	7.39
636.323	7.72
636.654	7.7
636.985	7.93
637.316	7.76
637.647	8.02
637.977	7.89
638.308	7.7
638.639	7.63
638.969	7.68
639.3	8.14
639.63	7.85
639.961	7.87
640.291	8.13
640.622	8.19
640.952	7.95
641.282	7.83
641.612	7.99
641.943	8.48
642.273	8.41
642.603	8.01
642.933	8.16
643.263	8.49
643.592	8.34
643.922	8.47
644.252	8.42
644.582	8.14
644.911	8.03
645.241	8.24
645.571	8.03
645.9	8.57
646.23	8.32
646.559	8.35
646.888	8.26
647.218	9.11
647.547	8.75
647.876	8.6
648.205	8.43
648.534	8.59
648.863	9.15
649.192	8.61
649.521	8.48
649.85	8.79
650.179	8.52
650.508	8.86
650.837	8.79
651.165	8.82
651.494	8.88
651.822	8.73
652.151	8.7
652.479	8.92
652.808	8.55
653.136	8.57
653.465	9.18
653.793	9.36
654.121	9.12
654.449	9.3
654.777	9.25
655.105	9.62
655.433	9.6
655.761	8.84
656.089	9.19
656.417	9.05
656.745	9.26
657.073	9.29
657.4	9.32
657.728	9.3
658.056	8.97
658.383	9.94
658.711	8.89
659.038	9.63
659.365	9.41
659.693	9.21
660.02	9.13
660.347	9.74
660.674	9.14
661.001	8.97
661.329	9.58
661.656	9.44
661.982	9.47
662.309	9.49
662.636	9.44
662.963	9.95
663.29	9.68
663.616	9.69
663.943	10.25
664.27	9.1
664.596	9.58
664.923	10.37
665.249	10.11
665.576	9.3
665.902	9.89
666.228	9.77
666.554	9.68
666.881	9.95
667.207	9.88
667.533	10.1
667.859	9.56
668.185	10.23
668.511	9.76
668.837	9.97
669.162	9.45
669.488	10.04
669.814	10.3
670.139	10.36
670.465	9.97
670.791	10.34
671.116	10.49
671.442	9.76
671.767	10.38
672.092	10.4
672.418	10.47
672.743	10.32
673.068	9.89
673.393	10.38
673.718	9.98
674.043	10.24
674.368	10.4
674.693	10.14
675.018	10.66
675.343	10.34
675.667	10.64
675.992	10.46
676.317	10.14
676.641	10.52
676.966	11.02
677.29	10.61
677.615	10.41
677.939	10.86
678.264	10.58
678.588	10.76
678.912	10.9
679.236	10.76
679.56	10.53
679.885	10.58
680.209	10.68
680.532	10.89
680.856	11.2
681.18	10.62
681.504	10.32
681.828	10.56
682.152	10.71
682.475	11.4
682.799	11.2
683.122	10.8
683.446	10.91
683.769	11.34
684.093	11.23
684.416	10.97
684.739	11.69
685.062	11.26
685.386	11.16
685.709	11.26
686.032	11.07
686.355	11.96
686.678	10.88
687.001	10.87
687.324	11.18
687.646	11.11
687.969	11.94
688.292	11.8
688.614	11.43
688.937	11.06
689.26	11.4
689.582	10.95
689.904	11.65
690.227	11.59
690.549	11.36
690.871	11.61
691.194	11.7
691.516	11.58
691.838	11.49
692.16	11.7
692.482	11.96
692.804	11.39
693.126	12.06
693.448	11.9
693.769	11.65
694.091	12.41
694.413	12.79
694.735	12.44
695.056	11.72
695.378	11.6
695.699	13.32
696.021	13.05
696.342	11.95
696.663	12.18
696.984	12.87
697.306	12.32
697.627	12.18
697.948	12.03
698.269	12.12
698.59	12.47
698.911	11.62
699.232	12.43
699.553	11.95
699.873	12.12
700.194	12.3
700.515	12.26
700.835	12.43
701.156	12.85
701.477	12.13
701.797	12.89
702.117	12.79
702.438	13.31
702.758	13.26
703.078	12.42
703.398	13.49
703.719	12.84
704.039	12.25
704.359	13.68
704.679	12.34
704.999	12.24
705.319	13.01
705.638	13.54
705.958	12.85
706.278	13.43
706.597	13.7
706.917	12.99
707.237	13.52
707.556	13.57
707.876	12.92
708.195	13.45
708.514	13.25
708.834	12.61
709.153	13.81
709.472	13.07
709.791	13.87
710.11	13.66
710.429	12.62
710.748	13.33
711.067	13.52
711.386	14.26
711.705	14.07
712.023	13.19
712.342	13.54
712.661	13.85
712.979	14.04
713.298	13.67
713.616	14.55
713.935	13.69
714.253	14.18
714.572	13.71
714.89	13.51
715.208	14.48
715.526	15.28
715.844	13.6
716.162	13.4
716.48	13.35
716.798	14.18
717.116	14.22
717.434	14.82
717.752	14.08
718.069	12.97
718.387	14.15
718.705	12.98
719.022	14.79
719.34	13.62
719.657	14.44
719.975	14.2
720.292	13.78
720.609	14.3
720.927	14.83
721.244	13.78
721.561	15.14
721.878	13.63
722.195	15.26
722.512	14.49
722.829	15.82
723.146	14.29
723.463	14.85
723.779	13.82
724.096	14.42
724.413	14.85
724.729	15.26
725.046	15.35
725.362	13.03
725.679	15.39
725.995	14.54
726.311	14.82
726.628	14.18
726.944	14.18
727.26	15.25
727.576	14.54
727.892	14.81
728.208	15.17
728.524	16.26
728.84	15.87
729.156	15.44
729.472	16.25
729.787	15.56
730.103	15.15
730.419	15.38
730.734	14.74
731.05	16.17
731.365	15.37
731.681	14.76
731.996	14.22
732.311	15.61
732.626	16.72
732.942	16.28
733.257	16.55
733.572	14.66
733.887	16.95
734.202	15.24
734.517	15.08
734.832	15.08
735.146	15.62
735.461	15.64
735.776	16.35
736.091	17.05
736.405	15.84
736.72	16.35
737.034	14.34
737.349	15.08
737.663	15.31
737.977	15.77
738.292	16.86
738.606	18.38
738.92	17.05
739.234	17.02
739.548	16.79
739.862	15.69
740.176	15.65
740.49	15.91
740.804	16.47
741.117	16.24
741.431	15.69
741.745	16.24
742.058	16.46
742.372	16.8
742.685	13.92
742.999	16.27
743.312	15.15
743.626	16.74
743.939	14.92
744.252	16.88
744.565	18.52
744.878	16.27
745.191	16.72
745.505	16
745.817	17.78
746.13	15.86
746.443	17.11
746.756	17.37
747.069	16.56
747.381	16.18
747.694	15.84
748.007	17.18
748.319	17.88
748.632	16.6
748.944	16.32
749.256	18.42
749.569	15.33
749.881	16.65
750.193	17.4
750.505	17.84
750.817	16.67
751.129	18.26
751.441	16.72
751.753	15.9
752.065	18.31
752.377	16.1
752.689	16.32
753	14.91
753.312	17.92
753.624	16.67
753.935	16.74
754.247	18.72
754.558	18.77
754.869	18.08
755.181	17.43
755.492	18.4
755.803	15.65
756.114	17.46
756.425	18.25
756.736	15.71
757.047	18.64
757.358	17.46
757.669	17.69
757.98	18.3
758.291	16.87
758.601	17.5
758.912	17.89
759.223	18.62
759.533	16.69
759.844	16.41
760.154	17.66
760.464	18.77
760.775	19.35
761.085	17.32
761.395	18.5
761.705	18.4
762.016	19.58
762.326	17.81
762.636	17.9
762.945	17.8
763.255	19.31
763.565	18.68
763.875	18.05
764.185	19.37
764.494	17.86
764.804	18.34
765.113	17.95
765.423	18.49
765.732	19.22
766.042	18.82
766.351	19.1
766.66	19.39
766.97	19.41
767.279	20.29
767.588	18.5
767.897	19.15
768.206	20.17
768.515	17.56
768.824	19.56
769.133	18.56
769.441	21.56
769.75	17.57
770.059	19.04
770.367	19.88
770.676	19.76
770.984	18.67
771.293	18.4
771.601	17.45
771.91	20.09
772.218	19.55
772.526	17.74
772.834	20.11
773.142	17.12
773.45	16.98
773.758	20.14
774.066	14.92
774.374	19.36
774.682	18.56
774.99	17.93
775.298	17.9
775.605	18.49
775.913	19.32
776.22	15.78
776.528	17
776.835	21.1
777.143	19.84
777.45	18.43
777.757	17.67
778.065	20.21
778.372	16.81
778.679	20.4
778.986	20.97
779.293	18.14
779.6	18.88
779.907	17.06
780.214	19.06
780.52	21.97
780.827	17.74
781.134	22.13
781.44	17.93
781.747	17.86
782.053	18.13
782.36	18.96
782.666	20
782.973	18.86
783.279	21.65
783.585	19.01
783.891	19.8
784.197	18.7
784.503	21.35
784.809	21.28
785.115	14.66
785.421	19.51
785.727	22.18
786.033	17.89
786.339	20.61
786.644	19.55
786.95	19.02
787.255	18.23
787.561	22.55
787.866	18.2
788.172	20.03
788.477	22.11
788.782	16.38
789.088	22.04
789.393	20.17
789.698	17.75
790.003	22.4
790.308	19.64
790.613	20.25
790.918	23.86
791.223	21.49
791.527	21.85
791.832	19.7
792.137	20.9
792.441	20.24
792.746	16.75
793.05	20.28
793.355	25.17
793.659	20.47
793.963	20.5
794.268	19.41
794.572	27.36
794.876	22.07
795.18	18.19
795.484	21.19
795.788	17.87
796.092	17.37
796.396	19.08
796.7	21.33
797.004	22.42
797.307	21.09
797.611	18.72
797.915	21.05
798.218	20.01
798.522	23.08
798.825	21.92
799.128	18.73
799.432	20.56
799.735	19.94
800.038	16.68
800.341	18.38
800.644	21.81
800.947	23.08
801.25	21.37
801.553	21.17
801.856	22.57
802.159	17.42
802.462	20.99
802.764	16.01
803.067	17.11
803.37	28.88
803.672	19.49
803.975	21.49
804.277	24.85
804.579	20.41
804.882	24.08
805.184	20.32
805.486	22.15
805.788	23.11
806.09	19.53
806.392	20.58
806.694	21.89
806.996	18.6
807.298	21.03
807.6	23.9
807.902	20.07
808.203	21.07
808.505	16.54
808.807	25.68
809.108	22.13
809.409	22.78
809.711	22.81
810.012	22.67
810.313	25.14
810.615	21.97
810.916	24.32
811.217	24.49
811.518	23.93
811.819	19.81
812.12	26.27
812.421	23.22
812.722	16.64
813.023	21.02
813.323	30.18
813.624	22.56
813.925	21.96
814.225	25.88
814.526	26.09
814.826	19.74
815.126	30.83
815.427	23.84
815.727	22.76
816.027	19.15
816.327	17.96
816.627	21.15
816.927	22.5
817.227	22.77
817.527	23.63
817.827	19.38
818.127	26.68
818.427	17.95
818.727	23.28
819.026	26.34
819.326	24.43
819.625	20.22
819.925	18.46
820.224	22.14
820.524	19.82
820.823	21.62
821.122	22.33
821.421	24.97
821.72	24.9
822.019	20.45
822.318	24.47
822.617	23.87
822.916	21.74
823.215	23.38
823.514	25.39
823.813	23.99
824.111	24.46
824.41	24.02
824.709	26.52
825.007	25.11
825.306	25.64
825.604	26.06
825.902	25.27
826.201	26.43
826.499	26.31
826.797	25.96
827.095	24
827.393	26.32
827.691	26.5
827.989	27.23
828.287	26.27
828.585	23.26
828.882	24.12
829.18	24.64
829.478	23.33
829.775	26.34
830.073	26.81
830.37	26.93
830.668	25.46
830.965	25.13
831.263	24.73
831.56	27.57
831.857	26.94
832.154	27.27
832.451	26.25
832.748	22.06
833.045	26.81
833.342	22.82
833.639	24.8
833.936	24.85
834.232	26.89
834.529	23.61
834.826	27.29
835.122	23.87
835.419	25.62
835.715	23.6
836.012	27.47
836.308	26.78
836.604	26.37
836.901	30.1
837.197	25.33
837.493	27.28
837.789	27.7
838.085	22.84
838.381	24.94
838.677	22.58
838.972	20.41
839.268	19.8
839.564	24.13
839.86	22.2
840.155	25.66
840.451	22.81
840.746	27.02
841.042	17.62
841.337	12.11
841.632	25.36
841.928	22.93
842.223	27.71
842.518	28.12
842.813	21.43
843.108	27.3
843.403	27.21
843.698	27.98
843.993	20.36
844.287	22.85
844.582	23.62
844.877	41.55
845.171	20.13
845.466	25.31
845.761	25.48
846.055	28.89
846.349	11.19
846.644	22.03
846.938	13.3
847.232	9.04
847.526	31.44
847.82	17.44
848.114	15.92
848.408	32.6
848.702	31.19
848.996	32.89
849.29	33.65
849.584	21.71
849.877	26.44
850.171	29.17
850.465	32.18
850.758	21.03
851.052	19.3
851.345	30.9
851.638	20.73
851.932	17.26
852.225	17.76
852.518	20.06
852.811	10.12
853.104	19.29
853.397	15.33
853.69	20.36
853.983	25.31
854.276	31.79
854.569	20.15
854.861	22.78
855.154	38.61
855.447	-0.33
855.739	26.98
856.032	10.58
856.324	15.69
856.616	12.81
856.909	35.04
857.201	24.78
857.493	11.8
857.785	8.82
858.077	28.83
858.369	4
858.661	27.41
858.953	15.07
859.245	20.56
859.537	35.06
859.829	29.25
860.12	26.61
860.412	7.76
860.703	25.83
860.995	23.57
861.286	30.81
861.578	26.93
861.869	34.24
862.16	6.78
862.452	41.2
862.743	44.23
863.034	32.36
863.325	20.94
863.616	21.51
863.907	16.81
864.198	33.27
864.488	11.88
864.779	15.01
865.07	17.97
865.36	28.48
865.651	0.91
865.941	36.24
866.232	6.59
866.522	39.69
866.813	28.69
867.103	14.49
867.393	4.71
867.683	31.93
867.973	15.67
868.263	10.9
868.553	16.75
868.843	-24.19
869.133	34.9
869.423	29.67
869.713	-1.23
870.002	-10.39
870.292	19.58
870.582	51.33
870.871	25.25
871.161	4.36
871.45	37.4
871.739	-29.13
872.029	-0.28
872.318	28.76
872.607	19.88
872.896	24.28
873.185	33.86
873.474	41.88
873.763	30.16
874.052	21.54
874.341	-16.42
874.63	34.38
874.918	19.61
875.207	11.43
875.496	37.47
875.784	10.9
876.073	20.6
876.361	39.82
876.649	40.75
876.938	-0.33
877.226	-0.03
877.514	14.27
877.802	7.61
878.09	28.45
878.378	31.86
878.666	16.08
878.954	16.72
879.242	7.81
879.53	3.7
879.817	11.44
880.105	-1.48
880.392	26.22
880.68	13.39
880.967	56.36
881.255	6.26
881.542	18.09
881.83	1.47
882.117	36.21
882.404	17.58
882.691	6.7
882.978	12.15
883.265	32.7
883.552	38.75
883.839	24.88
884.126	29.02
884.413	25.77
884.699	40.62
884.986	34.2
885.273	24.17
885.559	24.17
885.846	24.17
