Data from 0057_forehead_Reflection__1__89.txt Node

Date: Fri Dec 16 14:36:11 CST 2022
User: ToomeyLab
Spectrometer: FLMS14357
Trigger mode: 0
Integration Time (sec): 1.000000E-2
Scans to average: 100
Electric dark correction enabled: true
Nonlinearity correction enabled: false
Boxcar width: 0
XAxis mode: Wavelengths
Number of Pixels in Spectrum: 2048
>>>>>Begin Spectral Data<<<<<
189.047	37.18
189.435	37.18
189.823	37.18
190.211	75.06
190.599	74.47
190.987	-17.7
191.375	172.82
191.763	34.38
192.151	-2433.33
192.538	101.95
192.926	265.96
193.314	120.74
193.702	-120.38
194.089	-245.34
194.477	75.24
194.864	98.66
195.252	156.68
195.639	149.52
196.027	700
196.414	128.97
196.801	902.74
197.189	213.88
197.576	-106.17
197.963	-3940
198.351	-0.07
198.738	0.2
199.125	46.82
199.512	-7.69
199.899	-13.98
200.286	-5.34
200.673	24.91
201.06	22.94
201.447	92.6
201.833	21.66
202.22	27.31
202.607	35.53
202.994	19.41
203.38	24.62
203.767	-1.93
204.154	-16.23
204.54	22.61
204.927	27.4
205.313	37.92
205.699	-1.99
206.086	24.51
206.472	24.52
206.858	27.88
207.245	19.17
207.631	11.91
208.017	19.16
208.403	3.96
208.789	28.47
209.175	39.06
209.561	14.92
209.947	7.04
210.333	10.28
210.719	-22.97
211.105	-2.85
211.491	16.95
211.876	41.8
212.262	-5.73
212.648	-46.42
213.034	-13.27
213.419	4.53
213.805	-10.12
214.19	10.26
214.576	-2.45
214.961	0.3
215.346	-19.76
215.732	-7.02
216.117	-17.92
216.502	16.82
216.888	20.67
217.273	31.16
217.658	-38.14
218.043	23.74
218.428	9.02
218.813	-5.56
219.198	-2.99
219.583	10.84
219.968	22.28
220.353	-2.86
220.738	9.78
221.122	13.33
221.507	-8.08
221.892	-0.79
222.276	8.89
222.661	-4.34
223.046	5.67
223.43	4.06
223.815	17.52
224.199	8.28
224.583	-1.22
224.968	14.11
225.352	-0.99
225.736	1.78
226.121	-5.38
226.505	3.95
226.889	8.57
227.273	2.84
227.657	1.35
228.041	5.91
228.425	6.28
228.809	2.03
229.193	3.55
229.577	3.46
229.961	4.25
230.344	3.81
230.728	4.17
231.112	2.82
231.495	2.55
231.879	2.71
232.263	2.34
232.646	4.19
233.03	3.03
233.413	3.64
233.797	6.28
234.18	3.47
234.563	3.47
234.946	4.31
235.33	3.13
235.713	3.83
236.096	4.15
236.479	4.32
236.862	4.45
237.245	4.44
237.628	4.8
238.011	3.16
238.394	6.68
238.777	4.52
239.16	1.91
239.543	4.41
239.925	3.79
240.308	4.62
240.691	3.56
241.073	3.93
241.456	2.6
241.838	2.15
242.221	2.77
242.603	3.43
242.986	4.48
243.368	3.46
243.75	3.34
244.133	3.62
244.515	3.17
244.897	3.36
245.279	4.17
245.661	2.54
246.043	3.7
246.425	4.11
246.807	3.53
247.189	3.38
247.571	3.89
247.953	3.36
248.335	3.44
248.717	3.16
249.098	3.36
249.48	3
249.862	3.32
250.243	2.95
250.625	3.4
251.006	3.48
251.388	3.94
251.769	2.43
252.151	3.6
252.532	2.72
252.913	3.78
253.295	3.23
253.676	3.39
254.057	3.02
254.438	3.42
254.819	3.5
255.2	3.79
255.581	2.85
255.962	2.76
256.343	4.47
256.724	3.8
257.105	3.88
257.486	4.53
257.867	2.15
258.247	3.73
258.628	4.14
259.009	3.75
259.389	3.93
259.77	3.31
260.15	4.16
260.531	3.46
260.911	3.36
261.292	3.34
261.672	3.26
262.052	3.16
262.432	3.24
262.813	3.83
263.193	2.88
263.573	3.67
263.953	3.42
264.333	3.09
264.713	3.16
265.093	3.32
265.473	3.36
265.853	3.27
266.233	2.99
266.612	3.55
266.992	3.19
267.372	3.61
267.752	2.94
268.131	3.09
268.511	3.31
268.89	3.79
269.27	3.27
269.649	3.18
270.029	3.16
270.408	2.99
270.787	3.11
271.167	3.57
271.546	2.52
271.925	3.09
272.304	3.37
272.683	3.11
273.062	3.46
273.441	3.09
273.82	3.11
274.199	3.28
274.578	3.13
274.957	3.34
275.336	2.74
275.715	3.21
276.093	3.53
276.472	3.09
276.851	3.45
277.229	3.25
277.608	3.03
277.986	3.68
278.365	3.18
278.743	3.13
279.122	2.77
279.5	3.03
279.878	2.39
280.257	3.73
280.635	2.81
281.013	3.38
281.391	2.93
281.769	2.95
282.147	3.48
282.525	3.2
282.903	3.36
283.281	3.63
283.659	2.93
284.037	3.03
284.415	3.27
284.792	3.37
285.17	2.92
285.548	3.06
285.925	3.04
286.303	3.19
286.68	3.22
287.058	3.1
287.435	2.86
287.813	3.17
288.19	3.45
288.567	2.64
288.945	3.26
289.322	3.15
289.699	3.28
290.076	3.4
290.453	3.34
290.83	3.15
291.207	3.09
291.584	3
291.961	3.35
292.338	3.22
292.715	3.47
293.092	3.25
293.469	3.96
293.845	3.66
294.222	3.69
294.599	3.82
294.975	3.33
295.352	2.65
295.728	3.3
296.105	3.24
296.481	4.17
296.858	3.6
297.234	3.37
297.61	3.8
297.986	3.47
298.363	3.23
298.739	3.6
299.115	3.08
299.491	3.46
299.867	3.2
300.243	3.17
300.619	3.37
300.995	3.64
301.371	3.53
301.746	3.81
302.122	3.97
302.498	3.7
302.874	3.98
303.249	4.08
303.625	3.6
304	3.25
304.376	3.76
304.751	4.03
305.127	3.66
305.502	3.78
305.878	3.77
306.253	3.68
306.628	3.8
307.003	3.77
307.378	3.45
307.754	4.33
308.129	3.4
308.504	3.66
308.879	4.12
309.254	4.01
309.629	3.94
310.003	3.99
310.378	4.18
310.753	4
311.128	3.8
311.502	3.63
311.877	4.16
312.252	3.8
312.626	4.01
313.001	4.15
313.375	3.81
313.75	4.05
314.124	4.62
314.498	4.39
314.873	3.98
315.247	4.04
315.621	4.49
315.995	4.17
316.369	4.65
316.743	4.64
317.117	4.63
317.491	4.46
317.865	3.78
318.239	4.62
318.613	4.59
318.987	4.71
319.361	4.29
319.734	4.99
320.108	4.89
320.482	4.53
320.855	4.82
321.229	5.22
321.602	4.92
321.976	4.8
322.349	4.26
322.723	3.84
323.096	5.16
323.469	4.09
323.843	4.51
324.216	4.82
324.589	5.4
324.962	4.88
325.335	4.66
325.708	4.79
326.081	5.03
326.454	5.12
326.827	5.41
327.2	5.61
327.573	5.38
327.945	5.03
328.318	5.21
328.691	4.73
329.063	5.23
329.436	4.71
329.809	4.72
330.181	4.9
330.553	5.25
330.926	4.93
331.298	5.13
331.671	5.79
332.043	5.19
332.415	5.95
332.787	5.8
333.159	4.68
333.532	5.32
333.904	5.59
334.276	4.99
334.648	5.45
335.02	5
335.391	5.52
335.763	5.26
336.135	6.11
336.507	5.6
336.879	5.64
337.25	5.64
337.622	5.58
337.993	5.89
338.365	5.98
338.736	5.64
339.108	5.68
339.479	5.52
339.851	5.92
340.222	5.94
340.593	5.75
340.964	5.69
341.336	5.64
341.707	5.81
342.078	5.37
342.449	6.25
342.82	6.02
343.191	5.67
343.562	6.12
343.933	6.02
344.303	6
344.674	5.81
345.045	6.28
345.416	6
345.786	5.62
346.157	6.17
346.527	6.09
346.898	6.04
347.268	5.99
347.639	5.97
348.009	6.32
348.38	5.91
348.75	6.18
349.12	6.12
349.49	5.91
349.861	6.61
350.231	6.69
350.601	6.31
350.971	6.53
351.341	6.11
351.711	6.43
352.081	6.49
352.45	6.62
352.82	6.62
353.19	6.51
353.56	6.06
353.929	6.97
354.299	6.69
354.669	6.87
355.038	6.41
355.408	7.45
355.777	6.92
356.147	6.98
356.516	7.09
356.885	6.76
357.254	6.92
357.624	6.84
357.993	6.94
358.362	7.04
358.731	6.63
359.1	7.23
359.469	6.91
359.838	6.83
360.207	6.76
360.576	6.96
360.945	6.99
361.314	7.25
361.682	6.94
362.051	7.11
362.42	7.37
362.788	7.33
363.157	7.01
363.525	7.26
363.894	6.96
364.262	6.95
364.631	7.7
364.999	7.06
365.367	7.62
365.735	7.33
366.104	7.35
366.472	7.91
366.84	7.86
367.208	7.28
367.576	7.56
367.944	7.8
368.312	7.63
368.68	7.49
369.048	8.09
369.416	7.52
369.783	7.92
370.151	7.78
370.519	7.7
370.886	8.19
371.254	8.03
371.621	8.18
371.989	8.48
372.356	8.37
372.724	8.17
373.091	8
373.458	8.14
373.826	7.93
374.193	8.58
374.56	8.29
374.927	8.2
375.294	8.6
375.661	8.57
376.028	8.32
376.395	8.09
376.762	8.71
377.129	8.8
377.496	8.71
377.863	8.73
378.229	8.67
378.596	8.89
378.963	8.77
379.329	8.83
379.696	8.87
380.062	9.02
380.429	9.15
380.795	8.92
381.161	8.58
381.528	8.67
381.894	9.07
382.26	9.17
382.626	9.01
382.993	9.01
383.359	9.45
383.725	9.28
384.091	9.34
384.457	9.23
384.823	9.57
385.188	9.48
385.554	9.58
385.92	9.94
386.286	9.58
386.651	9.71
387.017	9.52
387.383	9.82
387.748	9.72
388.114	9.74
388.479	9.71
388.845	9.6
389.21	9.88
389.575	9.85
389.94	9.93
390.306	10.03
390.671	9.98
391.036	10.15
391.401	10.3
391.766	10.08
392.131	9.96
392.496	10.05
392.861	10.23
393.226	10.27
393.591	10.23
393.956	10.3
394.32	10.41
394.685	10.49
395.05	10.42
395.414	10.37
395.779	10.49
396.143	10.4
396.508	10.69
396.872	10.7
397.236	10.38
397.601	10.84
397.965	10.52
398.329	10.66
398.694	10.65
399.058	10.84
399.422	10.96
399.786	10.98
400.15	11.01
400.514	11.1
400.878	11
401.242	10.95
401.605	11.03
401.969	11.31
402.333	10.96
402.697	11.41
403.06	11.51
403.424	11.38
403.787	11.42
404.151	11.29
404.514	11.27
404.878	11.48
405.241	11.54
405.604	11.48
405.968	11.44
406.331	11.53
406.694	11.57
407.057	11.83
407.42	11.62
407.783	11.47
408.146	11.62
408.509	11.63
408.872	11.76
409.235	11.94
409.598	12.02
409.961	12.03
410.323	12.17
410.686	12.07
411.049	12
411.411	12.09
411.774	12.14
412.136	12.08
412.499	12.24
412.861	12.14
413.223	12.42
413.586	12.1
413.948	12.37
414.31	12.61
414.672	12.33
415.035	12.72
415.397	12.57
415.759	12.72
416.121	12.72
416.483	12.75
416.845	12.65
417.206	12.76
417.568	12.63
417.93	12.63
418.292	12.66
418.653	12.79
419.015	13.04
419.377	12.8
419.738	12.6
420.1	12.71
420.461	12.74
420.822	12.83
421.184	12.84
421.545	12.74
421.906	12.93
422.267	12.8
422.629	12.8
422.99	12.83
423.351	12.82
423.712	12.91
424.073	13.06
424.434	13.1
424.795	13.03
425.155	13.08
425.516	13.09
425.877	13.16
426.238	13.19
426.598	13.16
426.959	13.2
427.32	13.43
427.68	13.39
428.041	13.57
428.401	13.54
428.761	13.86
429.122	13.66
429.482	13.78
429.842	13.97
430.202	14.02
430.563	13.92
430.923	14.02
431.283	14.04
431.643	14.01
432.003	14.04
432.363	14.4
432.722	14.18
433.082	14.38
433.442	14.19
433.802	14.27
434.161	14.27
434.521	14.33
434.881	14.26
435.24	14.37
435.6	14.35
435.959	14.41
436.319	14.34
436.678	14.5
437.037	14.57
437.396	14.72
437.756	14.77
438.115	14.76
438.474	14.88
438.833	14.87
439.192	14.81
439.551	14.82
439.91	14.91
440.269	15.06
440.628	14.88
440.987	14.94
441.345	14.94
441.704	15.03
442.063	15
442.421	15.01
442.78	14.92
443.138	14.97
443.497	15.04
443.855	15.09
444.214	15.31
444.572	15.31
444.93	15.35
445.288	15.52
445.647	15.53
446.005	15.48
446.363	15.58
446.721	15.5
447.079	15.57
447.437	15.46
447.795	15.38
448.153	15.41
448.51	15.32
448.868	15.41
449.226	15.57
449.584	15.61
449.941	15.78
450.299	15.79
450.656	15.96
451.014	16.01
451.371	16.09
451.729	16.07
452.086	16.1
452.443	16.12
452.801	16.24
453.158	16.37
453.515	16.27
453.872	16.49
454.229	16.35
454.586	16.35
454.943	16.31
455.3	16.62
455.657	16.53
456.014	16.82
456.371	16.59
456.727	16.73
457.084	16.77
457.441	16.69
457.797	16.83
458.154	16.85
458.51	17.02
458.867	16.88
459.223	17.18
459.58	17.08
459.936	17.13
460.292	17.13
460.648	16.99
461.005	16.86
461.361	16.75
461.717	16.58
462.073	16.81
462.429	16.81
462.785	17.11
463.141	17.25
463.496	17.34
463.852	17.37
464.208	17.51
464.564	17.26
464.919	17.64
465.275	17.62
465.631	17.74
465.986	17.84
466.342	17.85
466.697	17.9
467.052	17.81
467.408	18.04
467.763	17.74
468.118	18.12
468.473	18.27
468.829	18.03
469.184	18.19
469.539	18.11
469.894	17.92
470.249	18.2
470.603	18.2
470.958	18.65
471.313	18.31
471.668	18.5
472.023	18.71
472.377	18.48
472.732	18.47
473.086	18.57
473.441	18.69
473.795	18.67
474.15	18.63
474.504	18.67
474.859	18.7
475.213	18.82
475.567	18.82
475.921	18.86
476.275	19.24
476.63	19.04
476.984	18.98
477.338	19.41
477.692	19.19
478.045	19.08
478.399	19
478.753	19.04
479.107	19.04
479.461	19.29
479.814	19.23
480.168	19.29
480.521	19.26
480.875	19.41
481.228	19.5
481.582	19.53
481.935	19.52
482.289	19.4
482.642	19.52
482.995	19.52
483.348	19.33
483.701	19.32
484.055	19.33
484.408	19.1
484.761	18.99
485.114	18.99
485.466	18.69
485.819	18.36
486.172	18.33
486.525	18.37
486.878	18.59
487.23	18.84
487.583	19.12
487.936	19.28
488.288	19.42
488.641	19.31
488.993	19.08
489.345	19.1
489.698	19.1
490.05	19.06
490.402	19.15
490.754	19.42
491.107	19.58
491.459	19.78
491.811	20.07
492.163	20.18
492.515	20.09
492.866	19.83
493.218	19.75
493.57	19.55
493.922	19.58
494.274	19.74
494.625	20
494.977	20.22
495.328	20.65
495.68	20.9
496.031	20.95
496.383	20.97
496.734	21.1
497.086	21.19
497.437	21.13
497.788	21.24
498.139	21.07
498.49	21.02
498.842	20.99
499.193	20.89
499.544	21.19
499.894	21.2
500.245	21.35
500.596	21.31
500.947	21.27
501.298	21.49
501.648	21.59
501.999	21.76
502.35	21.69
502.7	22.01
503.051	22.01
503.401	22.01
503.752	21.86
504.102	22.04
504.452	22.06
504.803	22.04
505.153	22.13
505.503	22.03
505.853	22.14
506.203	22.05
506.553	22.14
506.903	22.31
507.253	22.49
507.603	22.3
507.953	22.33
508.303	22.46
508.652	22.55
509.002	22.59
509.352	22.42
509.701	22.46
510.051	22.62
510.4	22.42
510.75	22.43
511.099	22.51
511.449	22.35
511.798	22.62
512.147	22.72
512.496	22.87
512.846	22.7
513.195	22.86
513.544	22.81
513.893	22.74
514.242	22.85
514.591	22.82
514.939	22.87
515.288	23.11
515.637	23.2
515.986	23.28
516.334	23.4
516.683	23.39
517.032	23.28
517.38	23.35
517.729	23.57
518.077	23.42
518.426	23.54
518.774	23.46
519.122	23.5
519.47	23.34
519.819	23.32
520.167	23.18
520.515	23.07
520.863	23.08
521.211	23.18
521.559	23.41
521.907	23.51
522.255	23.63
522.602	23.72
522.95	23.73
523.298	23.9
523.645	23.92
523.993	24.09
524.341	24.17
524.688	24.06
525.036	24.31
525.383	24.37
525.73	24.33
526.078	24.38
526.425	24.2
526.772	24.03
527.119	24.08
527.466	23.9
527.814	23.83
528.161	23.77
528.508	23.77
528.854	24.02
529.201	23.99
529.548	23.91
529.895	23.9
530.242	23.63
530.588	23.34
530.935	23.12
531.282	23.27
531.628	23.39
531.975	23.62
532.321	23.99
532.667	24.21
533.014	24.31
533.36	24.48
533.706	24.67
534.052	24.56
534.399	24.39
534.745	24.48
535.091	24.26
535.437	24.32
535.783	24.17
536.129	24.35
536.474	24.55
536.82	24.79
537.166	25.08
537.512	25.08
537.857	25.21
538.203	25.08
538.549	25.07
538.894	25
539.239	25.04
539.585	25.18
539.93	25.41
540.276	25.53
540.621	25.81
540.966	25.76
541.311	25.91
541.656	25.66
542.001	25.8
542.346	25.6
542.691	25.35
543.036	25.15
543.381	24.96
543.726	24.82
544.071	25.09
544.415	25.13
544.76	25.3
545.105	25.47
545.449	25.71
545.794	25.69
546.138	25.85
546.483	25.93
546.827	26.2
547.171	26.14
547.516	26.51
547.86	26.34
548.204	26.31
548.548	26.24
548.892	26.33
549.236	26.31
549.58	26.44
549.924	26.61
550.268	26.82
550.612	26.89
550.956	27.07
551.3	27.03
551.643	27.28
551.987	27.34
552.33	27.2
552.674	27.47
553.017	27.73
553.361	27.45
553.704	27.46
554.048	27.51
554.391	27.51
554.734	27.21
555.077	27.23
555.42	27.38
555.764	27.49
556.107	27.66
556.45	27.61
556.793	28.07
557.135	27.95
557.478	28.16
557.821	28.18
558.164	28.15
558.507	27.98
558.849	28.27
559.192	28.05
559.534	28.18
559.877	28.55
560.219	28.65
560.562	28.49
560.904	28.55
561.246	28.45
561.589	28.44
561.931	28.83
562.273	28.61
562.615	28.71
562.957	28.57
563.299	28.7
563.641	28.68
563.983	28.77
564.325	28.66
564.667	28.69
565.008	28.93
565.35	29.04
565.692	28.96
566.033	29.07
566.375	28.82
566.716	28.86
567.058	29.2
567.399	28.94
567.741	29.08
568.082	28.63
568.423	28.82
568.764	29.18
569.105	28.85
569.447	29.07
569.788	29.09
570.129	29.17
570.47	29.39
570.811	29.48
571.151	29.42
571.492	29.46
571.833	29.25
572.174	29.5
572.514	29.49
572.855	29.68
573.195	29.55
573.536	29.49
573.876	29.34
574.217	29.39
574.557	29.47
574.898	29.48
575.238	29.55
575.578	29.76
575.918	29.74
576.258	29.62
576.598	29.75
576.938	29.92
577.278	29.8
577.618	29.68
577.958	30.01
578.298	29.93
578.638	29.86
578.977	30.19
579.317	30.22
579.657	30.24
579.996	30.14
580.336	30.29
580.675	30.46
581.014	30.74
581.354	30.79
581.693	30.69
582.032	30.73
582.372	30.99
582.711	30.93
583.05	30.76
583.389	30.97
583.728	30.87
584.067	31.24
584.406	31.26
584.745	31.45
585.083	31.21
585.422	31.08
585.761	31.39
586.1	31.6
586.438	31.31
586.777	31.54
587.115	31.52
587.454	31.84
587.792	31.23
588.13	31.65
588.469	31.44
588.807	31.63
589.145	31.56
589.483	31.51
589.821	31.79
590.159	31.73
590.497	31.36
590.835	32.01
591.173	31.74
591.511	31.85
591.849	31.59
592.187	31.88
592.524	31.73
592.862	31.89
593.2	31.87
593.537	32.03
593.875	32.06
594.212	32.12
594.55	32.13
594.887	32.27
595.224	32.27
595.561	32.06
595.899	32.4
596.236	32.09
596.573	32.11
596.91	32.26
597.247	32.11
597.584	32.27
597.921	32.15
598.258	32.35
598.594	32.08
598.931	32.06
599.268	32.09
599.604	32.12
599.941	32.06
600.277	32.43
600.614	32.46
600.95	32.87
601.287	32.69
601.623	33
601.959	32.98
602.296	32.84
602.632	33.25
602.968	32.94
603.304	32.98
603.64	33.23
603.976	33.03
604.312	33.24
604.648	33.07
604.984	32.82
605.319	32.8
605.655	32.92
605.991	32.73
606.326	32.74
606.662	32.68
606.998	32.7
607.333	32.99
607.668	32.94
608.004	32.91
608.339	33
608.674	33.24
609.01	33.48
609.345	33.68
609.68	33.29
610.015	33.72
610.35	33.84
610.685	33.58
611.02	33.45
611.355	33.45
611.689	33.28
612.024	33.43
612.359	33.58
612.694	33.7
613.028	33.88
613.363	33.81
613.697	34.06
614.032	34.09
614.366	34.09
614.7	34.46
615.035	34.32
615.369	34.36
615.703	34.56
616.037	34.42
616.371	34.09
616.705	34.53
617.039	34.39
617.373	34.17
617.707	34.08
618.041	34.28
618.375	34.3
618.709	35.03
619.042	34.5
619.376	34.44
619.71	34.4
620.043	34.98
620.377	34.8
620.71	34.71
621.043	34.51
621.377	34.86
621.71	34.62
622.043	35.04
622.376	34.97
622.709	35.21
623.043	34.9
623.376	35.04
623.709	35.29
624.041	34.88
624.374	34.88
624.707	35.2
625.04	35.59
625.373	35.19
625.705	34.92
626.038	35
626.37	35.42
626.703	35.67
627.035	35.6
627.368	35.76
627.7	35.51
628.032	35.48
628.365	35.58
628.697	35.42
629.029	35.56
629.361	35.46
629.693	35.48
630.025	35.65
630.357	35.52
630.689	36.1
631.021	36.11
631.353	36.12
631.684	35.79
632.016	35.64
632.348	35.56
632.679	35.99
633.011	35.91
633.342	36.27
633.674	36.03
634.005	35.81
634.336	36.25
634.668	36.22
634.999	36.13
635.33	36.21
635.661	36.39
635.992	36.4
636.323	36.12
636.654	36.43
636.985	35.85
637.316	36.14
637.647	36.41
637.977	36.51
638.308	36.06
638.639	36.33
638.969	36.73
639.3	36.45
639.63	36.62
639.961	36.85
640.291	36.92
640.622	36.99
640.952	36.63
641.282	36.54
641.612	37.01
641.943	36.97
642.273	37.17
642.603	36.93
642.933	36.97
643.263	37.26
643.592	36.7
643.922	37.62
644.252	37.17
644.582	36.84
644.911	36.92
645.241	37.13
645.571	37.37
645.9	37.22
646.23	37.23
646.559	37.4
646.888	37.2
647.218	37.5
647.547	38.43
647.876	38.06
648.205	37.73
648.534	37.77
648.863	37.71
649.192	37.53
649.521	37.85
649.85	37.92
650.179	37.26
650.508	37.91
650.837	37.49
651.165	37.53
651.494	37.86
651.822	37.83
652.151	38.28
652.479	37.8
652.808	37.54
653.136	37.61
653.465	38.06
653.793	38.29
654.121	37.9
654.449	37.83
654.777	38.13
655.105	38.4
655.433	38.11
655.761	38.05
656.089	38.37
656.417	37.67
656.745	38.49
657.073	38.28
657.4	38.29
657.728	38.55
658.056	38.84
658.383	38.56
658.711	38.34
659.038	38.89
659.365	38.26
659.693	38.98
660.02	38.68
660.347	38.63
660.674	38.43
661.001	38.28
661.329	38.44
661.656	38.52
661.982	38.01
662.309	38.59
662.636	38.69
662.963	38.91
663.29	38.99
663.616	38.69
663.943	39.29
664.27	39.27
664.596	39.04
664.923	38.93
665.249	38.86
665.576	38.92
665.902	38.94
666.228	38.92
666.554	38.84
666.881	39.69
667.207	38.61
667.533	39.53
667.859	39.14
668.185	39.64
668.511	39.34
668.837	39.53
669.162	39.72
669.488	39.48
669.814	39.52
670.139	39.16
670.465	39.75
670.791	39.95
671.116	39.34
671.442	39.17
671.767	39.48
672.092	39.88
672.418	39.69
672.743	39.72
673.068	39.58
673.393	40.28
673.718	38.92
674.043	40.56
674.368	40.14
674.693	39.53
675.018	39.45
675.343	39.58
675.667	40.48
675.992	39.67
676.317	40.02
676.641	40.08
676.966	39.55
677.29	39.77
677.615	40.31
677.939	40.01
678.264	39.9
678.588	40.53
678.912	40.82
679.236	41.04
679.56	39.84
679.885	40.52
680.209	40.54
680.532	40.42
680.856	40.81
681.18	40.34
681.504	40.68
681.828	40.23
682.152	40.47
682.475	40.34
682.799	40.55
683.122	40.95
683.446	39.84
683.769	40.82
684.093	41.25
684.416	41.03
684.739	40.74
685.062	40.28
685.386	40.19
685.709	41.04
686.032	40.7
686.355	41.07
686.678	41.36
687.001	40.37
687.324	41.5
687.646	40.83
687.969	41.92
688.292	40.72
688.614	41.1
688.937	40.94
689.26	40.95
689.582	41.17
689.904	41.36
690.227	41.32
690.549	41.61
690.871	41.31
691.194	41.83
691.516	40.97
691.838	41.21
692.16	41.1
692.482	40.88
692.804	41.04
693.126	41.85
693.448	41.04
693.769	41.82
694.091	41.9
694.413	41.81
694.735	41.26
695.056	41.49
695.378	41.41
695.699	41.98
696.021	42.51
696.342	41.99
696.663	41.74
696.984	42.24
697.306	41.69
697.627	41.19
697.948	42.17
698.269	41.86
698.59	41.59
698.911	41.09
699.232	42.85
699.553	42.28
699.873	42.39
700.194	42.27
700.515	41.84
700.835	41.73
701.156	41.68
701.477	41.99
701.797	41.68
702.117	41.12
702.438	42.03
702.758	41.41
703.078	41.98
703.398	41.75
703.719	41.31
704.039	41.66
704.359	43.04
704.679	42.01
704.999	41.04
705.319	42.46
705.638	42.42
705.958	43.38
706.278	43.81
706.597	43.72
706.917	43.15
707.237	42.66
707.556	43.44
707.876	42.77
708.195	42.16
708.514	42.54
708.834	43.61
709.153	42.71
709.472	43.01
709.791	42.97
710.11	42.01
710.429	42.55
710.748	42.72
711.067	42.47
711.386	43.15
711.705	42.9
712.023	42.03
712.342	42.36
712.661	43.24
712.979	42.94
713.298	44.5
713.616	43.91
713.935	43.88
714.253	42.8
714.572	43.76
714.89	43.71
715.208	43.09
715.526	43.26
715.844	43.59
716.162	42.94
716.48	43.35
716.798	44.24
717.116	43.11
717.434	43.4
717.752	43.41
718.069	43.05
718.387	43.95
718.705	42.66
719.022	43.74
719.34	44.47
719.657	42.84
719.975	44.02
720.292	44.13
720.609	42.91
720.927	44.24
721.244	44
721.561	44.43
721.878	42.59
722.195	43.75
722.512	43.95
722.829	43.33
723.146	42.74
723.463	43.45
723.779	44.85
724.096	43.04
724.413	44.19
724.729	44.48
725.046	44.13
725.362	42.78
725.679	43.81
725.995	44.29
726.311	43.86
726.628	43.44
726.944	43.91
727.26	44.11
727.576	45.08
727.892	44.76
728.208	45.15
728.524	44.56
728.84	44.7
729.156	44.21
729.472	45.44
729.787	45.06
730.103	45.52
730.419	45.03
730.734	44.3
731.05	45.46
731.365	45.04
731.681	43.99
731.996	43.35
732.311	44.55
732.626	46.04
732.942	45.13
733.257	45.92
733.572	44.87
733.887	46.04
734.202	44.81
734.517	43.87
734.832	43.56
735.146	44.02
735.461	45.68
735.776	44.19
736.091	44.57
736.405	42.7
736.72	45.12
737.034	45.43
737.349	44.62
737.663	44.53
737.977	46.01
738.292	46.09
738.606	44.25
738.92	44.75
739.234	45.27
739.548	45.68
739.862	45.18
740.176	44.22
740.49	45.65
740.804	45.49
741.117	45.36
741.431	44.31
741.745	43.87
742.058	43.66
742.372	45.08
742.685	44.14
742.999	44.16
743.312	45.39
743.626	45.43
743.939	44.36
744.252	44.51
744.565	46.36
744.878	45.19
745.191	46.61
745.505	45.39
745.817	46.3
746.13	45.79
746.443	45.94
746.756	44.84
747.069	46.42
747.381	44.34
747.694	45.11
748.007	46.68
748.319	46.04
748.632	46.01
748.944	46.72
749.256	46.46
749.569	42.93
749.881	46.32
750.193	46.14
750.505	45.81
750.817	46.24
751.129	45.04
751.441	44.15
751.753	45.38
752.065	45.36
752.377	45.12
752.689	46.75
753	44.83
753.312	45.71
753.624	46.06
753.935	45.2
754.247	46.05
754.558	46.68
754.869	46.79
755.181	46.68
755.492	46.73
755.803	44.97
756.114	44.76
756.425	47.4
756.736	44.56
757.047	45.81
757.358	45.25
757.669	45.95
757.98	48.53
758.291	47.12
758.601	45.33
758.912	45.66
759.223	46.56
759.533	47.75
759.844	45.12
760.154	46.87
760.464	45.83
760.775	47.12
761.085	48.27
761.395	47.97
761.705	48.67
762.016	47.32
762.326	47.78
762.636	46.84
762.945	44.89
763.255	47.18
763.565	46.99
763.875	46.69
764.185	47.15
764.494	46.67
764.804	47.52
765.113	47.15
765.423	47.68
765.732	47.17
766.042	47.83
766.351	47.2
766.66	45.67
766.97	47.27
767.279	47.02
767.588	46
767.897	46.35
768.206	47.48
768.515	46.81
768.824	46.17
769.133	44.77
769.441	46.63
769.75	47.14
770.059	46.81
770.367	46.3
770.676	45.9
770.984	45.84
771.293	48.35
771.601	46.34
771.91	47.75
772.218	44.58
772.526	48.11
772.834	49.52
773.142	45.26
773.45	45.78
773.758	45.79
774.066	47.36
774.374	47.06
774.682	46.05
774.99	45.48
775.298	46.55
775.605	45.59
775.913	46.22
776.22	49.57
776.528	46.18
776.835	48.51
777.143	47.97
777.45	45.02
777.757	43.68
778.065	49.38
778.372	47.34
778.679	48.73
778.986	47.81
779.293	46.76
779.6	45.48
779.907	42.45
780.214	45.73
780.52	45.74
780.827	45.69
781.134	48.74
781.44	43.11
781.747	47.92
782.053	48.71
782.36	46.58
782.666	44.66
782.973	47.27
783.279	48.25
783.585	47.23
783.891	49.58
784.197	45.76
784.503	54.16
784.809	46.94
785.115	44.87
785.421	46.55
785.727	46.92
786.033	48.86
786.339	46.51
786.644	46.24
786.95	46.05
787.255	48.31
787.561	47.63
787.866	45.11
788.172	48.07
788.477	45.97
788.782	47.3
789.088	49.53
789.393	45.74
789.698	44.28
790.003	46.39
790.308	46.88
790.613	48.69
790.918	50.4
791.223	46.99
791.527	47.73
791.832	45.42
792.137	45.92
792.441	48.82
792.746	46.7
793.05	47.84
793.355	49.55
793.659	46.27
793.963	47.12
794.268	45
794.572	53.03
794.876	46.11
795.18	48.23
795.484	45.52
795.788	48.04
796.092	48.58
796.396	46.76
796.7	46.7
797.004	45.06
797.307	43.99
797.611	49.1
797.915	45.89
798.218	49.8
798.522	44.82
798.825	49.15
799.128	52.73
799.432	47.97
799.735	44.65
800.038	45.04
800.341	44.72
800.644	47.25
800.947	49.49
801.25	45.4
801.553	46.03
801.856	42.55
802.159	43.04
802.462	47.84
802.764	43.56
803.067	42.29
803.37	48.4
803.672	44.25
803.975	46.97
804.277	50.11
804.579	50.6
804.882	48.84
805.184	47.18
805.486	45.66
805.788	53.17
806.09	44.96
806.392	50.56
806.694	47.28
806.996	45.88
807.298	48.89
807.6	43.64
807.902	51.49
808.203	49.38
808.505	47.53
808.807	52.57
809.108	49.91
809.409	43.29
809.711	47.77
810.012	45.17
810.313	50.25
810.615	47.19
810.916	43.79
811.217	48.37
811.518	52.15
811.819	42.73
812.12	49.59
812.421	47.83
812.722	43.44
813.023	46.66
813.323	57.81
813.624	46.59
813.925	44.6
814.225	46.24
814.526	48.02
814.826	50.72
815.126	44.91
815.427	43.18
815.727	41.94
816.027	54.49
816.327	47.69
816.627	44.46
816.927	43.81
817.227	42.55
817.527	47.25
817.827	47.09
818.127	46.92
818.427	42.46
818.727	49.41
819.026	52.6
819.326	49.98
819.625	50.64
819.925	44.42
820.224	43.61
820.524	47.27
820.823	44.68
821.122	42.66
821.421	51.18
821.72	49.37
822.019	48.89
822.318	49.72
822.617	48.3
822.916	49.95
823.215	49.79
823.514	51.75
823.813	50.79
824.111	50.09
824.41	51.37
824.709	50.66
825.007	50.57
825.306	49.75
825.604	50.23
825.902	49.27
826.201	49.47
826.499	48.56
826.797	47.99
827.095	45.61
827.393	48.07
827.691	48.44
827.989	48.96
828.287	49.07
828.585	48
828.882	47.79
829.18	47.51
829.478	50.39
829.775	50.47
830.073	49.39
830.37	51.34
830.668	45.95
830.965	46.15
831.263	48.76
831.56	47.97
831.857	48.76
832.154	46.1
832.451	52.24
832.748	45.61
833.045	47.3
833.342	48.97
833.639	44.77
833.936	41.82
834.232	48.08
834.529	46.84
834.826	46.53
835.122	49.89
835.419	54.19
835.715	50.19
836.012	48.38
836.308	51.32
836.604	47.39
836.901	47.66
837.197	50.55
837.493	51.91
837.789	50.92
838.085	48.58
838.381	50.47
838.677	49.65
838.972	49.65
839.268	52.58
839.564	51.26
839.86	46.42
840.155	44.3
840.451	48.17
840.746	48.62
841.042	50.59
841.337	37.43
841.632	51.94
841.928	51.49
842.223	44.02
842.518	56.88
842.813	47.58
843.108	40.34
843.403	48.28
843.698	44.52
843.993	34.39
844.287	50.3
844.582	46.12
844.877	43.3
845.171	50.2
845.466	42.98
845.761	43.16
846.055	42.07
846.349	37.38
846.644	40.48
846.938	46.11
847.232	43.16
847.526	43.36
847.82	44.02
848.114	37.39
848.408	52.26
848.702	41.59
848.996	42.86
849.29	46.63
849.584	53.83
849.877	57.67
850.171	53.29
850.465	65.4
850.758	47.67
851.052	65.65
851.345	54.08
851.638	48.72
851.932	45.55
852.225	45.98
852.518	44.83
852.811	76.63
853.104	48.55
853.397	42.78
853.69	58.95
853.983	51.19
854.276	51.23
854.569	16.23
854.861	44.91
855.154	50.95
855.447	40.66
855.739	38.87
856.032	39.14
856.324	28.07
856.616	59.88
856.909	24.22
857.201	57.38
857.493	48.92
857.785	31.4
858.077	21.61
858.369	39.08
858.661	48.11
858.953	21.74
859.245	50.65
859.537	47.44
859.829	35.74
860.12	62.43
860.412	30.22
860.703	46.5
860.995	25.62
861.286	43.68
861.578	42.79
861.869	41.15
862.16	42.58
862.452	47.49
862.743	49.68
863.034	45.22
863.325	36.32
863.616	44.09
863.907	56.41
864.198	38.3
864.488	40.05
864.779	61.17
865.07	40.96
865.36	55.06
865.651	45.52
865.941	47.18
866.232	27.3
866.522	47.2
866.813	47.85
867.103	32.72
867.393	24.73
867.683	41.4
867.973	39.64
868.263	39.49
868.553	27.97
868.843	32.36
869.133	41.94
869.423	42.57
869.713	57.02
870.002	51.46
870.292	27.55
870.582	61.26
870.871	38.72
871.161	52.29
871.45	41.68
871.739	43.13
872.029	32.55
872.318	17.17
872.607	51.98
872.896	28.19
873.185	32.85
873.474	53.25
873.763	48.35
874.052	47.02
874.341	23.62
874.63	41.34
874.918	38.17
875.207	27.53
875.496	35.66
875.784	50.15
876.073	48.61
876.361	40.1
876.649	46.65
876.938	45.34
877.226	36.18
877.514	40.3
877.802	32.6
878.09	41.36
878.378	48.25
878.666	31.96
878.954	49.82
879.242	40.75
879.53	30.09
879.817	36.43
880.105	49.92
880.392	20.14
880.68	28.16
880.967	53.62
881.255	16.3
881.542	27.71
881.83	69.94
882.117	13.15
882.404	38.15
882.691	34.28
882.978	45.96
883.265	57.84
883.552	41.57
883.839	49.97
884.126	49.51
884.413	50.73
884.699	59.41
884.986	51.91
885.273	48.97
885.559	48.97
885.846	48.97
