Data from 22-1_crown_Reflection__1__217.txt Node

Date: Thu Dec 15 18:11:29 CST 2022
User: ToomeyLab
Spectrometer: FLMS14357
Trigger mode: 0
Integration Time (sec): 1.000000E-2
Scans to average: 100
Electric dark correction enabled: true
Nonlinearity correction enabled: false
Boxcar width: 0
XAxis mode: Wavelengths
Number of Pixels in Spectrum: 2048
>>>>>Begin Spectral Data<<<<<
189.047	-64.48
189.435	-64.48
189.823	-64.48
190.211	-4.27
190.599	29.21
190.987	206.32
191.375	-61.01
191.763	-55.34
192.151	72.41
192.538	74.66
192.926	271.9
193.314	-559.37
193.702	-253.37
194.089	62.42
194.477	107.28
194.864	129.09
195.252	-65.02
195.639	85.41
196.027	25.38
196.414	128.04
196.801	-56.29
197.189	105.35
197.576	54.73
197.963	250.94
198.351	-19.63
198.738	-30.93
199.125	-300.28
199.512	45
199.899	-35.41
200.286	-99.49
200.673	25.99
201.06	-44.83
201.447	-17.23
201.833	-57.17
202.22	-17.98
202.607	-188.19
202.994	-32.32
203.38	3.45
203.767	-11.58
204.154	-40.41
204.54	-9.85
204.927	-6
205.313	14.4
205.699	20.38
206.086	20.92
206.472	31.16
206.858	-31.35
207.245	-53.73
207.631	10.7
208.017	23.37
208.403	-114.92
208.789	-12.6
209.175	10.86
209.561	-190.27
209.947	9.73
210.333	14.44
210.719	-6.38
211.105	8.14
211.491	-51.07
211.876	-23.24
212.262	-10.66
212.648	-10.68
213.034	-40.6
213.419	-11.55
213.805	-60.24
214.19	-47.31
214.576	-22.32
214.961	12.4
215.346	-49.34
215.732	-25.71
216.117	6.47
216.502	-37.46
216.888	-10.29
217.273	29.59
217.658	-49.5
218.043	-22.6
218.428	-39.73
218.813	15.27
219.198	-47.9
219.583	-25.6
219.968	-10.89
220.353	-20.67
220.738	-0.09
221.122	-16.05
221.507	-23.31
221.892	-14.12
222.276	-34.85
222.661	-16.43
223.046	-12.5
223.43	9.3
223.815	-14.26
224.199	-11.91
224.583	-1.04
224.968	-5.51
225.352	-15.35
225.736	10
226.121	-16.84
226.505	-6.01
226.889	-3.54
227.273	-2.83
227.657	2.82
228.041	1.57
228.425	-7.48
228.809	0.4
229.193	3.62
229.577	0.41
229.961	1.87
230.344	2.34
230.728	3.22
231.112	3.19
231.495	0.91
231.879	1.63
232.263	1.84
232.646	1.38
233.03	3.05
233.413	0.76
233.797	1.35
234.18	0.9
234.563	3.88
234.946	0.64
235.33	1.1
235.713	2.05
236.096	1.55
236.479	3.89
236.862	0.32
237.245	-0.24
237.628	3.18
238.011	2.23
238.394	0.82
238.777	1.51
239.16	3.04
239.543	2.7
239.925	2.87
240.308	0.94
240.691	0.73
241.073	0.77
241.456	0.78
241.838	1.49
242.221	2.77
242.603	2.92
242.986	2.34
243.368	2.43
243.75	2.18
244.133	3
244.515	2.51
244.897	1.65
245.279	1.39
245.661	2.09
246.043	3.01
246.425	2.48
246.807	2.23
247.189	1.77
247.571	1.78
247.953	2.25
248.335	2.61
248.717	2.3
249.098	2.24
249.48	2.28
249.862	2.36
250.243	2.83
250.625	2.26
251.006	2.46
251.388	1.23
251.769	1.23
252.151	1.64
252.532	1.77
252.913	1.83
253.295	1.96
253.676	2.26
254.057	2.09
254.438	2.08
254.819	1.73
255.2	1.91
255.581	3.1
255.962	2.16
256.343	1.33
256.724	2.01
257.105	2.66
257.486	-0.2
257.867	2.12
258.247	2.75
258.628	2.75
259.009	1.02
259.389	1.26
259.77	1.89
260.15	3.13
260.531	2.33
260.911	2.12
261.292	2.28
261.672	2.17
262.052	2.36
262.432	2.15
262.813	2.03
263.193	1.68
263.573	1.78
263.953	1.61
264.333	2.01
264.713	2
265.093	1.13
265.473	0.8
265.853	2.72
266.233	2.13
266.612	1.68
266.992	2.4
267.372	2.49
267.752	2.55
268.131	1.49
268.511	1.63
268.89	2.63
269.27	1.53
269.649	1.64
270.029	1.79
270.408	1.93
270.787	1.93
271.167	1.65
271.546	2.35
271.925	2.01
272.304	2.17
272.683	2.04
273.062	1.8
273.441	1.73
273.82	1.84
274.199	1.74
274.578	2.4
274.957	1.99
275.336	2.31
275.715	2.24
276.093	1.63
276.472	1.86
276.851	1.97
277.229	1.4
277.608	1.47
277.986	1.73
278.365	2.26
278.743	1.91
279.122	1.59
279.5	2.14
279.878	1.49
280.257	1.77
280.635	1.72
281.013	1.41
281.391	1.58
281.769	2.07
282.147	1.76
282.525	1.79
282.903	1.86
283.281	2.17
283.659	2.13
284.037	1.87
284.415	1.48
284.792	1.71
285.17	1.44
285.548	2.01
285.925	2.13
286.303	2.1
286.68	1.92
287.058	2.09
287.435	1.82
287.813	1.93
288.19	1.65
288.567	1.87
288.945	1.98
289.322	1.93
289.699	1.91
290.076	1.14
290.453	1.19
290.83	2.19
291.207	1.87
291.584	2.18
291.961	1.96
292.338	1.81
292.715	1.54
293.092	2.17
293.469	1.54
293.845	2.1
294.222	2.18
294.599	1.49
294.975	1.12
295.352	1.7
295.728	1.56
296.105	1.81
296.481	1.56
296.858	1.68
297.234	1.74
297.61	1.85
297.986	2.23
298.363	1.89
298.739	2.07
299.115	2.08
299.491	2.14
299.867	1.86
300.243	1.7
300.619	1.45
300.995	1.93
301.371	2.21
301.746	2.21
302.122	1.8
302.498	1.73
302.874	2.47
303.249	2.02
303.625	1.24
304	2.22
304.376	2.01
304.751	1.68
305.127	1.42
305.502	2.13
305.878	1.81
306.253	1.6
306.628	1.63
307.003	1.67
307.378	1.46
307.754	1.85
308.129	1.5
308.504	1.37
308.879	1.39
309.254	2.16
309.629	1.69
310.003	1.67
310.378	2.11
310.753	2.23
311.128	1.84
311.502	1.76
311.877	2.04
312.252	2.01
312.626	2.12
313.001	2.27
313.375	2.04
313.75	1.89
314.124	2.35
314.498	1.82
314.873	1.38
315.247	1.4
315.621	1.89
315.995	1.83
316.369	0.87
316.743	1.25
317.117	1.8
317.491	2.02
317.865	1.4
318.239	2.22
318.613	1.59
318.987	1.58
319.361	1.54
319.734	1.42
320.108	1.88
320.482	2.48
320.855	2.13
321.229	1.95
321.602	1.6
321.976	0.92
322.349	1.72
322.723	1.77
323.096	1.44
323.469	0.8
323.843	1.15
324.216	1.61
324.589	1.93
324.962	2.25
325.335	1.45
325.708	1.76
326.081	1.7
326.454	2.22
326.827	2.21
327.2	1.17
327.573	2.42
327.945	1.4
328.318	1.77
328.691	2.04
329.063	1.39
329.436	1.46
329.809	1.88
330.181	2.61
330.553	1.92
330.926	2.26
331.298	1.65
331.671	1.81
332.043	1.79
332.415	1.85
332.787	2.53
333.159	1.38
333.532	2.02
333.904	2.32
334.276	2.27
334.648	1.63
335.02	1.77
335.391	1.38
335.763	1.66
336.135	2.18
336.507	1.62
336.879	1.91
337.25	1.15
337.622	2.12
337.993	1.34
338.365	1.62
338.736	1.98
339.108	1.85
339.479	1.81
339.851	2.34
340.222	2.33
340.593	1.41
340.964	2.31
341.336	1.69
341.707	2.05
342.078	1.95
342.449	1.93
342.82	2.12
343.191	1.84
343.562	1.87
343.933	1.8
344.303	2.13
344.674	2.01
345.045	1.82
345.416	2.29
345.786	1.87
346.157	2.44
346.527	1.89
346.898	1.81
347.268	2.07
347.639	2.18
348.009	2.18
348.38	1.56
348.75	2.29
349.12	2.16
349.49	2.13
349.861	1.89
350.231	1.8
350.601	2.08
350.971	1.86
351.341	2.34
351.711	2.26
352.081	1.62
352.45	1.61
352.82	1.75
353.19	1.79
353.56	1.82
353.929	1.82
354.299	2.03
354.669	2.17
355.038	2.43
355.408	1.64
355.777	2.28
356.147	1.92
356.516	1.78
356.885	2.14
357.254	1.67
357.624	1.6
357.993	2.09
358.362	2.11
358.731	2.63
359.1	1.89
359.469	2.25
359.838	2.19
360.207	2.25
360.576	2.4
360.945	2.07
361.314	1.85
361.682	1.73
362.051	2.25
362.42	2.18
362.788	2.19
363.157	1.84
363.525	2.19
363.894	1.92
364.262	2.08
364.631	1.92
364.999	2.12
365.367	1.96
365.735	1.74
366.104	2.02
366.472	2.07
366.84	1.77
367.208	2.22
367.576	2.35
367.944	2.43
368.312	2.32
368.68	2.43
369.048	1.99
369.416	2.01
369.783	1.87
370.151	2.46
370.519	2.33
370.886	2.25
371.254	2.49
371.621	2.38
371.989	2.08
372.356	2.13
372.724	1.99
373.091	1.94
373.458	1.96
373.826	2.4
374.193	2.31
374.56	2.4
374.927	1.86
375.294	2.31
375.661	2.34
376.028	2.05
376.395	2.04
376.762	1.47
377.129	2.03
377.496	2.16
377.863	2.28
378.229	2.21
378.596	2.42
378.963	2.06
379.329	2.2
379.696	2.14
380.062	2.15
380.429	1.89
380.795	2.16
381.161	1.73
381.528	1.96
381.894	2.14
382.26	2.3
382.626	2.29
382.993	2.34
383.359	2.05
383.725	2.1
384.091	2.46
384.457	2
384.823	2.23
385.188	2.24
385.554	2.32
385.92	1.96
386.286	2.17
386.651	2.15
387.017	2.33
387.383	2.13
387.748	2.42
388.114	2.52
388.479	2.13
388.845	2.23
389.21	2.41
389.575	2.6
389.94	2.36
390.306	2.45
390.671	2.1
391.036	2.06
391.401	2.17
391.766	2.25
392.131	2.45
392.496	2.59
392.861	2.28
393.226	2
393.591	2.42
393.956	2.53
394.32	2.52
394.685	2.26
395.05	2.13
395.414	2.23
395.779	2.46
396.143	2.21
396.508	2.06
396.872	2.21
397.236	2.61
397.601	2.49
397.965	2.37
398.329	2.37
398.694	2.18
399.058	2.32
399.422	2.27
399.786	2.15
400.15	2.34
400.514	2.55
400.878	2.22
401.242	2.35
401.605	2.28
401.969	2.26
402.333	2.11
402.697	2.7
403.06	2.39
403.424	2.46
403.787	2.34
404.151	2.18
404.514	2.28
404.878	2
405.241	2.53
405.604	2.39
405.968	2.33
406.331	2.38
406.694	2.4
407.057	2.21
407.42	2.3
407.783	2.53
408.146	2.36
408.509	2.36
408.872	2.39
409.235	2.5
409.598	2.26
409.961	2.49
410.323	2.27
410.686	2.39
411.049	2.41
411.411	2.15
411.774	2.56
412.136	2.4
412.499	2.56
412.861	2.23
413.223	2.35
413.586	2.36
413.948	2.71
414.31	2.43
414.672	2.36
415.035	2.63
415.397	2.4
415.759	2.03
416.121	2.66
416.483	2.18
416.845	2.38
417.206	2.38
417.568	2.4
417.93	2.42
418.292	2.15
418.653	2.18
419.015	2.33
419.377	2.37
419.738	2.45
420.1	2.43
420.461	2.35
420.822	2.4
421.184	2.36
421.545	2.49
421.906	2.4
422.267	2.4
422.629	2.41
422.99	2.41
423.351	2.37
423.712	2.44
424.073	2.46
424.434	2.53
424.795	2.35
425.155	2.35
425.516	2.31
425.877	2.46
426.238	2.41
426.598	2.42
426.959	2.46
427.32	2.49
427.68	2.49
428.041	2.47
428.401	2.36
428.761	2.44
429.122	2.46
429.482	2.34
429.842	2.29
430.202	2.56
430.563	2.46
430.923	2.43
431.283	2.47
431.643	2.61
432.003	2.57
432.363	2.51
432.722	2.59
433.082	2.42
433.442	2.61
433.802	2.48
434.161	2.36
434.521	2.41
434.881	2.45
435.24	2.51
435.6	2.44
435.959	2.48
436.319	2.45
436.678	2.66
437.037	2.45
437.396	2.47
437.756	2.35
438.115	2.53
438.474	2.63
438.833	2.52
439.192	2.3
439.551	2.33
439.91	2.37
440.269	2.41
440.628	2.42
440.987	2.45
441.345	2.51
441.704	2.4
442.063	2.46
442.421	2.52
442.78	2.47
443.138	2.37
443.497	2.41
443.855	2.53
444.214	2.3
444.572	2.62
444.93	2.51
445.288	2.5
445.647	2.32
446.005	2.43
446.363	2.46
446.721	2.46
447.079	2.41
447.437	2.55
447.795	2.53
448.153	2.44
448.51	2.54
448.868	2.36
449.226	2.5
449.584	2.49
449.941	2.49
450.299	2.52
450.656	2.58
451.014	2.68
451.371	2.55
451.729	2.56
452.086	2.6
452.443	2.69
452.801	2.53
453.158	2.71
453.515	2.43
453.872	2.43
454.229	2.42
454.586	2.42
454.943	2.58
455.3	2.59
455.657	2.51
456.014	2.52
456.371	2.51
456.727	2.77
457.084	2.53
457.441	2.62
457.797	2.51
458.154	2.6
458.51	2.43
458.867	2.53
459.223	2.41
459.58	2.5
459.936	2.54
460.292	2.55
460.648	2.49
461.005	2.53
461.361	2.5
461.717	2.47
462.073	2.57
462.429	2.53
462.785	2.58
463.141	2.56
463.496	2.65
463.852	2.7
464.208	2.5
464.564	2.63
464.919	2.56
465.275	2.63
465.631	2.62
465.986	2.74
466.342	2.48
466.697	2.64
467.052	2.83
467.408	2.65
467.763	2.51
468.118	2.33
468.473	2.67
468.829	2.4
469.184	2.59
469.539	2.37
469.894	2.56
470.249	2.51
470.603	2.68
470.958	2.56
471.313	2.66
471.668	2.68
472.023	2.7
472.377	2.64
472.732	2.61
473.086	2.51
473.441	2.56
473.795	2.78
474.15	2.65
474.504	2.53
474.859	2.39
475.213	2.68
475.567	2.42
475.921	2.66
476.275	2.68
476.63	2.64
476.984	2.52
477.338	2.56
477.692	2.51
478.045	2.68
478.399	2.56
478.753	2.45
479.107	2.65
479.461	2.53
479.814	2.6
480.168	2.54
480.521	2.52
480.875	2.69
481.228	2.62
481.582	2.57
481.935	2.73
482.289	2.6
482.642	2.64
482.995	2.61
483.348	2.48
483.701	2.52
484.055	2.5
484.408	2.58
484.761	2.46
485.114	2.36
485.466	2.38
485.819	2.42
486.172	2.47
486.525	2.5
486.878	2.56
487.23	2.55
487.583	2.55
487.936	2.53
488.288	2.51
488.641	2.47
488.993	2.47
489.345	2.44
489.698	2.44
490.05	2.5
490.402	2.53
490.754	2.51
491.107	2.52
491.459	2.66
491.811	2.54
492.163	2.58
492.515	2.48
492.866	2.46
493.218	2.46
493.57	2.56
493.922	2.54
494.274	2.65
494.625	2.68
494.977	2.6
495.328	2.62
495.68	2.51
496.031	2.62
496.383	2.61
496.734	2.51
497.086	2.75
497.437	2.63
497.788	2.66
498.139	2.56
498.49	2.66
498.842	2.71
499.193	2.54
499.544	2.6
499.894	2.61
500.245	2.56
500.596	2.67
500.947	2.55
501.298	2.58
501.648	2.61
501.999	2.62
502.35	2.48
502.7	2.7
503.051	2.65
503.401	2.69
503.752	2.54
504.102	2.4
504.452	2.47
504.803	2.52
505.153	2.72
505.503	2.55
505.853	2.67
506.203	2.77
506.553	2.68
506.903	2.68
507.253	2.63
507.603	2.6
507.953	2.6
508.303	2.62
508.652	2.6
509.002	2.71
509.352	2.68
509.701	2.41
510.051	2.64
510.4	2.67
510.75	2.59
511.099	2.48
511.449	2.65
511.798	2.55
512.147	2.63
512.496	2.66
512.846	2.54
513.195	2.59
513.544	2.64
513.893	2.67
514.242	2.52
514.591	2.63
514.939	2.74
515.288	2.71
515.637	2.55
515.986	2.57
516.334	2.68
516.683	2.65
517.032	2.55
517.38	2.48
517.729	2.54
518.077	2.62
518.426	2.68
518.774	2.44
519.122	2.68
519.47	2.6
519.819	2.67
520.167	2.53
520.515	2.57
520.863	2.59
521.211	2.57
521.559	2.56
521.907	2.71
522.255	2.59
522.602	2.62
522.95	2.67
523.298	2.62
523.645	2.75
523.993	2.54
524.341	2.64
524.688	2.6
525.036	2.54
525.383	2.6
525.73	2.47
526.078	2.62
526.425	2.57
526.772	2.5
527.119	2.63
527.466	2.66
527.814	2.54
528.161	2.65
528.508	2.62
528.854	2.59
529.201	2.48
529.548	2.52
529.895	2.45
530.242	2.43
530.588	2.43
530.935	2.55
531.282	2.54
531.628	2.62
531.975	2.49
532.321	2.56
532.667	2.62
533.014	2.69
533.36	2.58
533.706	2.64
534.052	2.56
534.399	2.51
534.745	2.46
535.091	2.45
535.437	2.51
535.783	2.6
536.129	2.64
536.474	2.61
536.82	2.58
537.166	2.47
537.512	2.6
537.857	2.67
538.203	2.51
538.549	2.53
538.894	2.66
539.239	2.61
539.585	2.7
539.93	2.67
540.276	2.57
540.621	2.67
540.966	2.69
541.311	2.6
541.656	2.54
542.001	2.45
542.346	2.53
542.691	2.47
543.036	2.44
543.381	2.51
543.726	2.6
544.071	2.51
544.415	2.62
544.76	2.58
545.105	2.57
545.449	2.61
545.794	2.54
546.138	2.65
546.483	2.62
546.827	2.51
547.171	2.6
547.516	2.67
547.86	2.55
548.204	2.64
548.548	2.51
548.892	2.64
549.236	2.6
549.58	2.7
549.924	2.66
550.268	2.68
550.612	2.6
550.956	2.77
551.3	2.73
551.643	2.6
551.987	2.74
552.33	2.86
552.674	2.61
553.017	2.69
553.361	2.69
553.704	2.69
554.048	2.68
554.391	2.78
554.734	2.54
555.077	2.56
555.42	2.66
555.764	2.54
556.107	2.76
556.45	2.69
556.793	2.78
557.135	2.62
557.478	2.68
557.821	2.62
558.164	2.67
558.507	2.54
558.849	2.73
559.192	2.62
559.534	2.64
559.877	2.55
560.219	2.66
560.562	2.62
560.904	2.89
561.246	2.64
561.589	2.99
561.931	2.71
562.273	2.58
562.615	2.64
562.957	2.59
563.299	2.59
563.641	2.51
563.983	2.47
564.325	2.69
564.667	2.71
565.008	2.52
565.35	2.6
565.692	2.52
566.033	2.52
566.375	2.67
566.716	2.46
567.058	2.62
567.399	2.61
567.741	2.59
568.082	2.54
568.423	2.54
568.764	2.58
569.105	2.72
569.447	2.58
569.788	2.6
570.129	2.51
570.47	2.58
570.811	2.44
571.151	2.59
571.492	2.57
571.833	2.59
572.174	2.82
572.514	2.57
572.855	2.68
573.195	2.54
573.536	2.79
573.876	2.63
574.217	2.61
574.557	2.59
574.898	2.56
575.238	2.71
575.578	2.7
575.918	2.47
576.258	2.71
576.598	2.54
576.938	2.6
577.278	2.59
577.618	2.57
577.958	2.77
578.298	2.69
578.638	2.63
578.977	2.62
579.317	2.62
579.657	2.66
579.996	2.77
580.336	2.61
580.675	2.44
581.014	2.75
581.354	2.5
581.693	2.67
582.032	2.85
582.372	2.56
582.711	2.61
583.05	2.59
583.389	2.52
583.728	2.87
584.067	2.61
584.406	2.65
584.745	2.54
585.083	2.61
585.422	2.9
585.761	2.58
586.1	2.61
586.438	2.49
586.777	2.63
587.115	2.87
587.454	2.53
587.792	2.51
588.13	2.71
588.469	2.65
588.807	2.73
589.145	2.62
589.483	2.34
589.821	2.45
590.159	2.54
590.497	2.65
590.835	2.72
591.173	2.81
591.511	2.63
591.849	2.81
592.187	2.43
592.524	2.7
592.862	2.56
593.2	2.67
593.537	2.47
593.875	2.54
594.212	2.72
594.55	2.66
594.887	2.77
595.224	2.72
595.561	2.67
595.899	2.59
596.236	2.77
596.573	2.41
596.91	2.52
597.247	2.77
597.584	2.74
597.921	2.64
598.258	2.74
598.594	2.55
598.931	2.41
599.268	2.51
599.604	2.74
599.941	2.51
600.277	2.88
600.614	2.55
600.95	2.63
601.287	2.08
601.623	2.49
601.959	2.89
602.296	2.69
602.632	2.55
602.968	2.63
603.304	2.38
603.64	2.59
603.976	2.45
604.312	2.4
604.648	2.58
604.984	2.7
605.319	2.59
605.655	2.61
605.991	2.46
606.326	2.62
606.662	2.46
606.998	2.66
607.333	2.57
607.668	2.57
608.004	2.48
608.339	2.63
608.674	2.6
609.01	2.87
609.345	2.57
609.68	2.59
610.015	2.81
610.35	2.56
610.685	2.35
611.02	2.48
611.355	2.55
611.689	2.61
612.024	2.75
612.359	2.61
612.694	2.71
613.028	2.5
613.363	2.65
613.697	2.65
614.032	2.44
614.366	2.36
614.7	2.57
615.035	2.37
615.369	2.74
615.703	2.66
616.037	2.63
616.371	2.4
616.705	2.64
617.039	2.49
617.373	2.84
617.707	2.65
618.041	2.58
618.375	1.86
618.709	2.76
619.042	2.74
619.376	2.76
619.71	2.35
620.043	3
620.377	2.68
620.71	2.39
621.043	2.75
621.377	2.77
621.71	2.79
622.043	2.83
622.376	2.73
622.709	3.02
623.043	2.46
623.376	2.26
623.709	2.79
624.041	2.46
624.374	2.55
624.707	2.62
625.04	2.67
625.373	2.76
625.705	2.92
626.038	2.73
626.37	2.71
626.703	2.58
627.035	2.62
627.368	3.08
627.7	2.66
628.032	2.55
628.365	2.88
628.697	2.88
629.029	2.83
629.361	2.94
629.693	2.6
630.025	2.68
630.357	2.84
630.689	2.75
631.021	2.73
631.353	2.39
631.684	2.63
632.016	2.53
632.348	2.49
632.679	2.4
633.011	2.72
633.342	2.71
633.674	2.28
634.005	2.58
634.336	2.91
634.668	2.67
634.999	2.27
635.33	3.16
635.661	2.43
635.992	2.62
636.323	2.51
636.654	2.52
636.985	2.34
637.316	2.54
637.647	2.4
637.977	2.67
638.308	2.85
638.639	2.37
638.969	2.54
639.3	2.65
639.63	2.36
639.961	2.73
640.291	2.25
640.622	2.89
640.952	2.91
641.282	2
641.612	2.6
641.943	2.47
642.273	2.4
642.603	2.69
642.933	2.88
643.263	2.81
643.592	2.88
643.922	3.2
644.252	2.56
644.582	2.96
644.911	2.43
645.241	2.36
645.571	2.38
645.9	2.9
646.23	2.78
646.559	2.15
646.888	2.64
647.218	2.57
647.547	2.72
647.876	2.59
648.205	2.31
648.534	2.37
648.863	2.38
649.192	2.26
649.521	2.57
649.85	3
650.179	2.79
650.508	2.56
650.837	2.87
651.165	2.51
651.494	2.81
651.822	2.82
652.151	2.44
652.479	2.46
652.808	2.39
653.136	2.63
653.465	2.61
653.793	2.65
654.121	2.57
654.449	2.43
654.777	2.23
655.105	2.42
655.433	3.11
655.761	2.61
656.089	2.6
656.417	3.11
656.745	2.48
657.073	2.57
657.4	2.81
657.728	2.4
658.056	2.23
658.383	2.56
658.711	2.55
659.038	3.4
659.365	2.74
659.693	2.34
660.02	2.42
660.347	2.88
660.674	2.73
661.001	2.72
661.329	2.22
661.656	2.41
661.982	2.29
662.309	2.46
662.636	2.81
662.963	2.74
663.29	2.65
663.616	2.26
663.943	2.83
664.27	2.47
664.596	2.39
664.923	2.78
665.249	2.88
665.576	2.02
665.902	2.27
666.228	2.6
666.554	3.09
666.881	2.1
667.207	2.42
667.533	2.6
667.859	2.18
668.185	2.69
668.511	3.15
668.837	2.72
669.162	2.44
669.488	2.28
669.814	2.63
670.139	2.08
670.465	3.25
670.791	2.06
671.116	2.33
671.442	2.11
671.767	2.72
672.092	2.5
672.418	2.77
672.743	2.32
673.068	2.03
673.393	2.83
673.718	1.94
674.043	2.08
674.368	2.5
674.693	3.16
675.018	2.99
675.343	2.33
675.667	2.11
675.992	2.61
676.317	2.12
676.641	3.33
676.966	2.78
677.29	2.2
677.615	2.47
677.939	2.46
678.264	2.41
678.588	2.69
678.912	2.53
679.236	2.59
679.56	2.26
679.885	2.59
680.209	2.8
680.532	2.77
680.856	3.01
681.18	3.14
681.504	2.16
681.828	2.12
682.152	2.49
682.475	2.43
682.799	2.74
683.122	2.58
683.446	2.38
683.769	2.57
684.093	3.18
684.416	2.1
684.739	2.09
685.062	2.89
685.386	3.02
685.709	2.58
686.032	2.71
686.355	2.81
686.678	3.28
687.001	2.85
687.324	2.6
687.646	2.75
687.969	2.7
688.292	2.29
688.614	2.74
688.937	2.89
689.26	2.8
689.582	2.32
689.904	2.29
690.227	2.77
690.549	3.01
690.871	2.23
691.194	1.88
691.516	2.02
691.838	2.72
692.16	2.43
692.482	1.89
692.804	2.56
693.126	2.33
693.448	2.84
693.769	2.73
694.091	3.11
694.413	2.12
694.735	2.57
695.056	2.46
695.378	2.47
695.699	2.95
696.021	2.31
696.342	2.24
696.663	2.59
696.984	1.53
697.306	2.81
697.627	2.5
697.948	2.24
698.269	2.94
698.59	2.68
698.911	1.89
699.232	2.97
699.553	2.67
699.873	2.42
700.194	2.32
700.515	2.33
700.835	2.76
701.156	3.01
701.477	2.39
701.797	2.07
702.117	1.87
702.438	1.98
702.758	2.28
703.078	2.25
703.398	2.27
703.719	2.72
704.039	2.51
704.359	2.52
704.679	2.2
704.999	2.41
705.319	1.85
705.638	3.11
705.958	1.73
706.278	1.73
706.597	2.19
706.917	3.44
707.237	1.49
707.556	1.92
707.876	2.8
708.195	2.66
708.514	3.08
708.834	1.47
709.153	2.21
709.472	2.73
709.791	1.87
710.11	1.77
710.429	2.74
710.748	3.64
711.067	3.17
711.386	3.12
711.705	2.5
712.023	3.97
712.342	2.24
712.661	3
712.979	3.31
713.298	2.89
713.616	3.16
713.935	2.8
714.253	1.98
714.572	2.4
714.89	2.52
715.208	2.69
715.526	2.74
715.844	2.33
716.162	2.91
716.48	1.62
716.798	2.64
717.116	1.25
717.434	2.31
717.752	2.72
718.069	2.03
718.387	2.25
718.705	2.38
719.022	2.52
719.34	1.26
719.657	1.88
719.975	1.77
720.292	1.72
720.609	1.34
720.927	1.98
721.244	2.5
721.561	1.09
721.878	3.69
722.195	3.23
722.512	2.84
722.829	3.48
723.146	2.99
723.463	3.08
723.779	1.03
724.096	1.13
724.413	2.3
724.729	3.15
725.046	2.8
725.362	2.68
725.679	2.45
725.995	0.18
726.311	2.29
726.628	2.38
726.944	1.63
727.26	2.82
727.576	3.01
727.892	1.67
728.208	1.87
728.524	0.34
728.84	1.55
729.156	0.34
729.472	1.16
729.787	2.46
730.103	2.56
730.419	1.39
730.734	0.82
731.05	2.28
731.365	2.74
731.681	1.73
731.996	3.27
732.311	1.64
732.626	3.47
732.942	2.07
733.257	3.22
733.572	1.95
733.887	3.81
734.202	2.23
734.517	2.93
734.832	2.67
735.146	3.2
735.461	3.09
735.776	2.8
736.091	3.05
736.405	2.17
736.72	0.5
737.034	2.99
737.349	2.59
737.663	4.09
737.977	3.32
738.292	0.33
738.606	2.79
738.92	2.09
739.234	2.31
739.548	3.16
739.862	3.04
740.176	2.28
740.49	2.31
740.804	3.47
741.117	1.68
741.431	2.38
741.745	1.87
742.058	0.27
742.372	-1.29
742.685	3.38
742.999	0.97
743.312	2.27
743.626	3.13
743.939	2
744.252	1.58
744.565	2.91
744.878	0.76
745.191	2.66
745.505	0.35
745.817	4.05
746.13	1.49
746.443	0.9
746.756	1.11
747.069	3.51
747.381	2.81
747.694	4.03
748.007	2.39
748.319	3.51
748.632	1.6
748.944	1.88
749.256	3.3
749.569	1.88
749.881	1.87
750.193	3.06
750.505	2.07
750.817	3.63
751.129	1.17
751.441	2.24
751.753	3.48
752.065	1.9
752.377	3.55
752.689	0.53
753	3.35
753.312	3.53
753.624	0.39
753.935	1.62
754.247	1.13
754.558	2.17
754.869	3.5
755.181	2.52
755.492	2.07
755.803	2.75
756.114	1.51
756.425	-0.09
756.736	3.32
757.047	2.55
757.358	1.92
757.669	0.84
757.98	1.95
758.291	2.02
758.601	2.07
758.912	2.9
759.223	1.3
759.533	3.19
759.844	1.76
760.154	3.14
760.464	3.94
760.775	3.07
761.085	2.94
761.395	2.12
761.705	2
762.016	2.19
762.326	3.96
762.636	3.77
762.945	2.8
763.255	2.33
763.565	3.45
763.875	1.72
764.185	3.35
764.494	1.1
764.804	1.44
765.113	2.07
765.423	3.05
765.732	2.92
766.042	3.65
766.351	2.79
766.66	2.68
766.97	1.93
767.279	2.47
767.588	0.95
767.897	1.36
768.206	2.03
768.515	2.87
768.824	3.46
769.133	-0.63
769.441	-1.18
769.75	-0.94
770.059	1.8
770.367	4.77
770.676	2.37
770.984	0.68
771.293	3.12
771.601	-0.65
771.91	0.72
772.218	1.32
772.526	-0.7
772.834	0.75
773.142	1.06
773.45	2.93
773.758	3.16
774.066	1.93
774.374	4.01
774.682	1.23
774.99	2.05
775.298	0.5
775.605	0.01
775.913	0.39
776.22	-2.98
776.528	1.67
776.835	3.77
777.143	4.56
777.45	-1.08
777.757	2.96
778.065	0.42
778.372	0.77
778.679	3.98
778.986	4.27
779.293	-0.53
779.6	3.32
779.907	5.06
780.214	1.15
780.52	2.08
780.827	1.43
781.134	2.99
781.44	2.56
781.747	0.4
782.053	-0.39
782.36	-0.75
782.666	1.1
782.973	2.16
783.279	2.69
783.585	4.5
783.891	1.84
784.197	0.53
784.503	0.85
784.809	2.96
785.115	1.73
785.421	3.85
785.727	2.3
786.033	-3.06
786.339	4.05
786.644	0.98
786.95	-0.62
787.255	-0.44
787.561	-1.69
787.866	1.59
788.172	1.3
788.477	3.61
788.782	-1.69
789.088	-4.71
789.393	0.37
789.698	-0.73
790.003	-0.43
790.308	0.54
790.613	1.91
790.918	1.03
791.223	4.36
791.527	2.67
791.832	4.03
792.137	3.91
792.441	2.28
792.746	3.48
793.05	-0.19
793.355	1.82
793.659	4.7
793.963	0.33
794.268	0.49
794.572	0.63
794.876	2.01
795.18	4.14
795.484	8.03
795.788	3.85
796.092	-1.7
796.396	-7.65
796.7	-1.45
797.004	0.26
797.307	-1.65
797.611	3.58
797.915	-3.59
798.218	1.05
798.522	0.43
798.825	2.93
799.128	5.04
799.432	-2.35
799.735	-0.55
800.038	1.91
800.341	0.54
800.644	0.01
800.947	3.3
801.25	4.8
801.553	5.88
801.856	3.78
802.159	-2.85
802.462	3.18
802.764	4.07
803.067	3.15
803.37	-0.66
803.672	-1.16
803.975	-0.05
804.277	-0.14
804.579	1.46
804.882	3.59
805.184	0.12
805.486	4.09
805.788	2.07
806.09	-3.78
806.392	-0.16
806.694	0.12
806.996	3.56
807.298	-1.6
807.6	2.21
807.902	2.38
808.203	-3.55
808.505	-5.18
808.807	5.17
809.108	4.31
809.409	7.31
809.711	2.69
810.012	-2.15
810.313	0.54
810.615	2.71
810.916	6.18
811.217	-3.41
811.518	-0.01
811.819	-0.4
812.12	4.32
812.421	-5.01
812.722	-3.18
813.023	4.25
813.323	-2.55
813.624	-1.52
813.925	2.01
814.225	3.6
814.526	-9
814.826	-3.19
815.126	5.76
815.427	-4.48
815.727	-1.8
816.027	4.27
816.327	1.82
816.627	0.65
816.927	1.48
817.227	-4.04
817.527	3.7
817.827	-0.52
818.127	2.58
818.427	-8.49
818.727	-4.36
819.026	-3.73
819.326	-2.88
819.625	-0.82
819.925	4.06
820.224	4.57
820.524	-4.32
820.823	4.11
821.122	-0.31
821.421	-3.77
821.72	-4.08
822.019	-4.91
822.318	5.52
822.617	1.89
822.916	-1.75
823.215	-0.18
823.514	0.36
823.813	2.87
824.111	0.88
824.41	3.6
824.709	2.55
825.007	2.49
825.306	3.95
825.604	3.28
825.902	4.43
826.201	4.18
826.499	3.28
826.797	2.76
827.095	4.99
827.393	4.49
827.691	5.21
827.989	3.83
828.287	4.79
828.585	3.18
828.882	1.94
829.18	3.21
829.478	3.66
829.775	2.79
830.073	3.86
830.37	1.86
830.668	1.43
830.965	3.43
831.263	1.92
831.56	3.28
831.857	6.26
832.154	2.11
832.451	3.38
832.748	2.68
833.045	0.15
833.342	1.16
833.639	1.76
833.936	-6.57
834.232	-2.6
834.529	0.33
834.826	3.58
835.122	-1.8
835.419	2.79
835.715	1.71
836.012	1.47
836.308	4.51
836.604	-1.86
836.901	-0.43
837.197	1.41
837.493	2.75
837.789	4.06
838.085	0.72
838.381	4.55
838.677	0.75
838.972	-0.83
839.268	0.42
839.564	-2.05
839.86	4.36
840.155	6.29
840.451	5.89
840.746	3.43
841.042	-0.9
841.337	-8.12
841.632	-3.6
841.928	1.11
842.223	-4.15
842.518	1.45
842.813	-4.69
843.108	-2.35
843.403	-0.08
843.698	-0.74
843.993	3.45
844.287	-4.87
844.582	-0.88
844.877	1.35
845.171	-3.9
845.466	-9.48
845.761	-5.23
846.055	2.21
846.349	-1.34
846.644	-13.75
846.938	7.34
847.232	-11.83
847.526	-8.93
847.82	6.88
848.114	-2.21
848.408	-7.25
848.702	2.44
848.996	15.51
849.29	9
849.584	-12.04
849.877	8.96
850.171	11.34
850.465	4.86
850.758	-31.82
851.052	-13.81
851.345	-0.48
851.638	-12.26
851.932	-1.77
852.225	6.38
852.518	-4.95
852.811	-35.34
853.104	-32.99
853.397	-10.81
853.69	-0.25
853.983	-31.78
854.276	0.99
854.569	-15.67
854.861	-4.91
855.154	-5.1
855.447	-19.96
855.739	-48.25
856.032	13.13
856.324	10.07
856.616	1.86
856.909	-20.49
857.201	-37.74
857.493	-23.6
857.785	-9.8
858.077	-17.37
858.369	3.53
858.661	-6.63
858.953	-5.7
859.245	2.43
859.537	-40.93
859.829	1.04
860.12	-1.4
860.412	-13.78
860.703	-7.73
860.995	-6.44
861.286	-18.05
861.578	-14.53
861.869	13.85
862.16	-6.34
862.452	-21.39
862.743	-16.15
863.034	9.77
863.325	14.48
863.616	-11.23
863.907	5.06
864.198	-43.89
864.488	-5.76
864.779	-11.6
865.07	2.18
865.36	21.81
865.651	12.55
865.941	-4
866.232	8.4
866.522	-10.83
866.813	-3.33
867.103	-23.46
867.393	5.22
867.683	-12.49
867.973	-20.13
868.263	-36.64
868.553	1.57
868.843	-39.13
869.133	-7.48
869.423	-6.77
869.713	-41.04
870.002	-18.43
870.292	-12.79
870.582	-30.87
870.871	-20.14
871.161	-23.27
871.45	-21.91
871.739	5.97
872.029	8.93
872.318	-2.57
872.607	21.43
872.896	-4.55
873.185	-1.04
873.474	-48.06
873.763	-9.15
874.052	-5.02
874.341	-7.77
874.63	-16.71
874.918	-4.76
875.207	-35.18
875.496	0.24
875.784	-40.24
876.073	-24.35
876.361	-15.03
876.649	-20.52
876.938	-10.8
877.226	18.21
877.514	12.12
877.802	-26.51
878.09	-4.41
878.378	-17.61
878.666	10.27
878.954	-10.38
879.242	2.04
879.53	-4.72
879.817	-17.02
880.105	0.54
880.392	5.44
880.68	-11.98
880.967	-28.16
881.255	14.02
881.542	-24.68
881.83	-4.8
882.117	-5.86
882.404	-11.65
882.691	-34.6
882.978	-3.65
883.265	8.15
883.552	-4.13
883.839	6.19
884.126	2.37
884.413	-1.89
884.699	-1.96
884.986	0.15
885.273	3.63
885.559	3.63
885.846	3.63
