Data from 22-1_crown_Reflection__2__218.txt Node

Date: Thu Dec 15 18:11:40 CST 2022
User: ToomeyLab
Spectrometer: FLMS14357
Trigger mode: 0
Integration Time (sec): 1.000000E-2
Scans to average: 100
Electric dark correction enabled: true
Nonlinearity correction enabled: false
Boxcar width: 0
XAxis mode: Wavelengths
Number of Pixels in Spectrum: 2048
>>>>>Begin Spectral Data<<<<<
189.047	-127.68
189.435	-127.68
189.823	-127.68
190.211	-163.93
190.599	53.9
190.987	88.86
191.375	115.31
191.763	-236.67
192.151	35.5
192.538	61.73
192.926	211.32
193.314	599.86
193.702	-980.67
194.089	-48.97
194.477	123.06
194.864	169.06
195.252	48.07
195.639	156.76
196.027	104.27
196.414	-14.63
196.801	-100.87
197.189	211.78
197.576	-44.75
197.963	99.81
198.351	-19.97
198.738	-24.96
199.125	-31.63
199.512	38.08
199.899	-98.76
200.286	-6.21
200.673	15.24
201.06	-13.32
201.447	4.76
201.833	-7.38
202.22	11.86
202.607	-138.47
202.994	7.83
203.38	1.51
203.767	-42.65
204.154	56.88
204.54	15.16
204.927	8.84
205.313	17.37
205.699	20.4
206.086	31.87
206.472	-10.38
206.858	-45.71
207.245	-9.82
207.631	13.71
208.017	26.64
208.403	-87.72
208.789	-44.8
209.175	-20.44
209.561	-138.92
209.947	0.26
210.333	-20.07
210.719	18.39
211.105	22.33
211.491	-33.37
211.876	-48.64
212.262	-2.03
212.648	-7.38
213.034	-5.72
213.419	-5.47
213.805	-34.71
214.19	-32.96
214.576	-14.84
214.961	-22.95
215.346	1.17
215.732	-11.43
216.117	-11.65
216.502	-30.93
216.888	-7.68
217.273	-7.96
217.658	-44.41
218.043	-21.06
218.428	-34.49
218.813	-19.42
219.198	-21.79
219.583	-20.67
219.968	-19.6
220.353	-35.03
220.738	4.6
221.122	-12.24
221.507	-12.52
221.892	-24.1
222.276	-17.79
222.661	-4.06
223.046	-19.1
223.43	4.01
223.815	-8.33
224.199	-9.09
224.583	-11.31
224.968	-5.97
225.352	-6.04
225.736	9.46
226.121	1.34
226.505	-6.56
226.889	-0.67
227.273	-11.92
227.657	2.85
228.041	-3.76
228.425	-6.62
228.809	-5.52
229.193	-0.52
229.577	-0.3
229.961	0.31
230.344	1.29
230.728	3.22
231.112	1.85
231.495	-0.11
231.879	-0.51
232.263	1.96
232.646	0.46
233.03	3.29
233.413	-0.12
233.797	-0.05
234.18	-0.06
234.563	1.59
234.946	0.12
235.33	1.43
235.713	0.91
236.096	2.07
236.479	4.3
236.862	0.95
237.245	-1.11
237.628	2.14
238.011	0.51
238.394	0.38
238.777	1.71
239.16	1.44
239.543	1.82
239.925	0.65
240.308	0.91
240.691	2.04
241.073	-0.03
241.456	2.43
241.838	-0.39
242.221	1.33
242.603	1.51
242.986	1.2
243.368	2.05
243.75	1.73
244.133	2.16
244.515	1.47
244.897	0.75
245.279	0.66
245.661	0.65
246.043	1.44
246.425	1.06
246.807	0.31
247.189	1.05
247.571	1.33
247.953	1.61
248.335	1.69
248.717	1.58
249.098	1.52
249.48	1.49
249.862	1.91
250.243	1.82
250.625	1.58
251.006	2.03
251.388	0.89
251.769	-0.27
252.151	1.38
252.532	0.47
252.913	1.1
253.295	0.96
253.676	1.23
254.057	1.23
254.438	0.95
254.819	1.33
255.2	1.96
255.581	2.02
255.962	1.12
256.343	1.17
256.724	0.55
257.105	1.95
257.486	0.58
257.867	0.37
258.247	1.11
258.628	1.63
259.009	1.42
259.389	0.87
259.77	0.43
260.15	1.93
260.531	1.55
260.911	1.27
261.292	1.71
261.672	1.51
262.052	1.67
262.432	1.07
262.813	1.4
263.193	1.02
263.573	1.21
263.953	1.03
264.333	1.4
264.713	2.08
265.093	1.59
265.473	0.71
265.853	1.4
266.233	0.68
266.612	0.37
266.992	0.76
267.372	1.34
267.752	1
268.131	0.69
268.511	1.76
268.89	1.73
269.27	0.47
269.649	0.81
270.029	1.31
270.408	1.01
270.787	1.53
271.167	1.58
271.546	1.83
271.925	1.98
272.304	1.33
272.683	1.11
273.062	1.19
273.441	0.78
273.82	1.39
274.199	1.4
274.578	1.77
274.957	1.39
275.336	1.7
275.715	1.86
276.093	0.94
276.472	0.54
276.851	1.01
277.229	1.13
277.608	0.68
277.986	1.3
278.365	1.78
278.743	1.28
279.122	1.3
279.5	1.19
279.878	0.78
280.257	1.08
280.635	1.3
281.013	0.5
281.391	1.26
281.769	2.16
282.147	1.37
282.525	0.87
282.903	0.83
283.281	1.49
283.659	1.28
284.037	1.25
284.415	0.77
284.792	1.25
285.17	0.92
285.548	1.21
285.925	1.31
286.303	1.42
286.68	1.43
287.058	1.62
287.435	1.08
287.813	1.46
288.19	1.02
288.567	1.35
288.945	1.15
289.322	1.08
289.699	1.8
290.076	1.07
290.453	1.04
290.83	1.33
291.207	1.01
291.584	1.43
291.961	1.53
292.338	1.42
292.715	0.82
293.092	1.82
293.469	1.04
293.845	1.1
294.222	1.84
294.599	0.75
294.975	0.56
295.352	1.68
295.728	0.85
296.105	1.31
296.481	1.46
296.858	1.2
297.234	0.72
297.61	1.57
297.986	1.54
298.363	1.42
298.739	1.63
299.115	1.41
299.491	1.8
299.867	1.19
300.243	1.43
300.619	1.1
300.995	1.39
301.371	1.61
301.746	1.62
302.122	1.02
302.498	1.36
302.874	1.68
303.249	1.44
303.625	0.77
304	1.28
304.376	1.88
304.751	1.83
305.127	1.23
305.502	1.27
305.878	1.57
306.253	1
306.628	1.74
307.003	1.18
307.378	1
307.754	1.19
308.129	1.01
308.504	1.26
308.879	1.32
309.254	1.79
309.629	1.59
310.003	1.31
310.378	1.87
310.753	1.48
311.128	1.18
311.502	1.43
311.877	1.35
312.252	1.37
312.626	2.02
313.001	1.51
313.375	1.74
313.75	1.86
314.124	1.55
314.498	1.7
314.873	0.85
315.247	1.39
315.621	1.47
315.995	1.54
316.369	1.08
316.743	1.11
317.117	1.44
317.491	1.58
317.865	0.78
318.239	1.65
318.613	1.44
318.987	1.31
319.361	1.65
319.734	1.16
320.108	1.05
320.482	1.54
320.855	1.32
321.229	1.24
321.602	1.31
321.976	0.8
322.349	1.8
322.723	1.69
323.096	1.15
323.469	1.24
323.843	1.35
324.216	1.19
324.589	1.42
324.962	1.6
325.335	1.78
325.708	1.57
326.081	1.57
326.454	1.26
326.827	1.67
327.2	0.86
327.573	1.73
327.945	1.28
328.318	0.98
328.691	1.44
329.063	1.58
329.436	1.06
329.809	1.65
330.181	1.8
330.553	1.89
330.926	1.52
331.298	0.92
331.671	1.11
332.043	1.14
332.415	1.45
332.787	1.63
333.159	1.01
333.532	1.82
333.904	1.75
334.276	1.52
334.648	1.56
335.02	1.3
335.391	1.77
335.763	1.54
336.135	2.25
336.507	1.39
336.879	1.22
337.25	1.4
337.622	1.87
337.993	1.49
338.365	1.24
338.736	1.71
339.108	1.72
339.479	1.55
339.851	1.79
340.222	2.41
340.593	1.67
340.964	1.42
341.336	1.36
341.707	1.12
342.078	1.59
342.449	1.76
342.82	1.9
343.191	1.59
343.562	1.76
343.933	1.67
344.303	1.71
344.674	1.59
345.045	1.78
345.416	2.03
345.786	1.66
346.157	1.94
346.527	1.39
346.898	1.17
347.268	1.68
347.639	1.34
348.009	2.03
348.38	1.44
348.75	1.43
349.12	2.17
349.49	1.45
349.861	1.87
350.231	1.71
350.601	1.51
350.971	1.46
351.341	1.45
351.711	1.4
352.081	1.22
352.45	1.29
352.82	1.2
353.19	1.69
353.56	1.48
353.929	1.64
354.299	1.61
354.669	1.49
355.038	2.28
355.408	1.31
355.777	1.88
356.147	1.55
356.516	1.6
356.885	1.3
357.254	1.41
357.624	1.29
357.993	1.65
358.362	1.6
358.731	1.74
359.1	1.76
359.469	1.84
359.838	1.78
360.207	1.72
360.576	1.7
360.945	1.66
361.314	1.64
361.682	1.66
362.051	1.91
362.42	1.73
362.788	1.88
363.157	1.46
363.525	1.66
363.894	1.48
364.262	1.82
364.631	1.85
364.999	1.66
365.367	1.62
365.735	1.44
366.104	1.66
366.472	1.7
366.84	1.78
367.208	1.81
367.576	1.8
367.944	1.77
368.312	1.6
368.68	1.91
369.048	1.69
369.416	1.61
369.783	1.6
370.151	1.87
370.519	1.9
370.886	1.8
371.254	1.98
371.621	1.71
371.989	1.75
372.356	1.34
372.724	1.47
373.091	1.46
373.458	1.65
373.826	1.95
374.193	1.53
374.56	1.59
374.927	1.47
375.294	1.88
375.661	1.86
376.028	1.62
376.395	1.63
376.762	1.75
377.129	1.65
377.496	1.74
377.863	1.98
378.229	2.03
378.596	1.94
378.963	2.08
379.329	1.97
379.696	1.78
380.062	1.62
380.429	1.49
380.795	2.01
381.161	1.44
381.528	1.54
381.894	1.97
382.26	1.91
382.626	1.63
382.993	1.83
383.359	1.59
383.725	1.48
384.091	1.78
384.457	1.61
384.823	1.75
385.188	1.61
385.554	1.84
385.92	1.77
386.286	1.62
386.651	1.7
387.017	1.97
387.383	1.54
387.748	1.81
388.114	1.84
388.479	1.77
388.845	1.54
389.21	1.92
389.575	1.93
389.94	2.05
390.306	2.02
390.671	2
391.036	1.8
391.401	2.02
391.766	1.86
392.131	2.03
392.496	1.94
392.861	1.94
393.226	1.69
393.591	1.96
393.956	1.94
394.32	1.94
394.685	1.87
395.05	1.81
395.414	1.92
395.779	1.94
396.143	1.69
396.508	1.81
396.872	1.99
397.236	2.02
397.601	1.87
397.965	1.71
398.329	1.94
398.694	1.68
399.058	2.03
399.422	1.82
399.786	1.54
400.15	1.85
400.514	1.77
400.878	1.89
401.242	2.01
401.605	1.64
401.969	1.84
402.333	1.46
402.697	2.07
403.06	1.97
403.424	1.78
403.787	1.96
404.151	1.99
404.514	2.17
404.878	1.69
405.241	1.71
405.604	1.8
405.968	1.83
406.331	1.93
406.694	1.99
407.057	1.75
407.42	1.7
407.783	1.88
408.146	1.97
408.509	1.85
408.872	1.81
409.235	2
409.598	1.98
409.961	2.01
410.323	1.84
410.686	1.55
411.049	1.85
411.411	1.79
411.774	1.84
412.136	1.76
412.499	2.07
412.861	1.62
413.223	1.71
413.586	1.84
413.948	2.02
414.31	1.94
414.672	1.65
415.035	2.03
415.397	1.72
415.759	1.68
416.121	1.92
416.483	1.87
416.845	1.9
417.206	1.82
417.568	1.74
417.93	1.98
418.292	1.77
418.653	1.73
419.015	1.85
419.377	1.79
419.738	1.96
420.1	1.86
420.461	1.87
420.822	1.92
421.184	1.83
421.545	1.97
421.906	1.84
422.267	1.73
422.629	1.87
422.99	1.89
423.351	1.89
423.712	1.9
424.073	1.96
424.434	1.96
424.795	1.77
425.155	1.84
425.516	1.88
425.877	1.95
426.238	1.87
426.598	1.93
426.959	1.94
427.32	1.78
427.68	1.81
428.041	1.95
428.401	1.94
428.761	2.07
429.122	1.94
429.482	1.86
429.842	1.97
430.202	1.93
430.563	1.94
430.923	1.74
431.283	1.96
431.643	2.06
432.003	1.89
432.363	2.1
432.722	1.91
433.082	1.84
433.442	1.89
433.802	1.9
434.161	1.93
434.521	1.87
434.881	2.02
435.24	1.81
435.6	1.97
435.959	1.95
436.319	1.92
436.678	1.97
437.037	1.96
437.396	2.01
437.756	1.84
438.115	1.77
438.474	1.89
438.833	1.93
439.192	1.91
439.551	1.86
439.91	1.93
440.269	2.01
440.628	1.94
440.987	1.88
441.345	1.98
441.704	1.9
442.063	1.95
442.421	1.96
442.78	1.92
443.138	1.87
443.497	1.9
443.855	2.09
444.214	1.75
444.572	1.94
444.93	2
445.288	1.87
445.647	1.81
446.005	1.82
446.363	1.9
446.721	1.97
447.079	1.82
447.437	1.94
447.795	2.05
448.153	1.95
448.51	1.96
448.868	1.86
449.226	1.92
449.584	1.89
449.941	1.97
450.299	1.88
450.656	1.89
451.014	1.9
451.371	2.03
451.729	2.02
452.086	1.9
452.443	2.1
452.801	2.03
453.158	2.04
453.515	1.71
453.872	1.98
454.229	1.91
454.586	1.95
454.943	1.9
455.3	2.01
455.657	1.94
456.014	1.93
456.371	1.88
456.727	2.01
457.084	2.06
457.441	2.13
457.797	1.89
458.154	2.11
458.51	1.91
458.867	2.04
459.223	1.7
459.58	1.87
459.936	1.89
460.292	1.92
460.648	1.86
461.005	1.86
461.361	1.94
461.717	1.98
462.073	2.03
462.429	2.04
462.785	2.14
463.141	1.98
463.496	1.95
463.852	2.14
464.208	1.96
464.564	1.86
464.919	1.92
465.275	1.94
465.631	2.33
465.986	2.05
466.342	1.93
466.697	2.03
467.052	2.03
467.408	2.06
467.763	2.07
468.118	1.82
468.473	2.03
468.829	1.87
469.184	1.98
469.539	1.88
469.894	1.98
470.249	2.11
470.603	2.17
470.958	2.09
471.313	2.03
471.668	1.95
472.023	2.05
472.377	1.79
472.732	2.18
473.086	1.96
473.441	1.95
473.795	1.95
474.15	1.99
474.504	1.96
474.859	1.76
475.213	1.97
475.567	1.97
475.921	2.1
476.275	2.01
476.63	2.12
476.984	1.89
477.338	2.1
477.692	1.99
478.045	1.97
478.399	2.03
478.753	1.96
479.107	2.11
479.461	2.02
479.814	2.01
480.168	1.97
480.521	2.1
480.875	1.98
481.228	2.02
481.582	1.96
481.935	2.16
482.289	1.9
482.642	2.2
482.995	2.01
483.348	1.97
483.701	2.02
484.055	1.94
484.408	2
484.761	1.95
485.114	1.89
485.466	1.87
485.819	1.87
486.172	1.95
486.525	1.93
486.878	1.96
487.23	1.98
487.583	2.03
487.936	1.9
488.288	1.94
488.641	1.9
488.993	1.91
489.345	1.95
489.698	1.9
490.05	1.96
490.402	1.99
490.754	1.93
491.107	1.85
491.459	2
491.811	1.98
492.163	1.88
492.515	1.88
492.866	1.91
493.218	1.95
493.57	2.04
493.922	1.99
494.274	2
494.625	2.07
494.977	2.01
495.328	2.06
495.68	2.02
496.031	1.93
496.383	1.86
496.734	1.97
497.086	2.04
497.437	2.14
497.788	2.06
498.139	2
498.49	2.06
498.842	2.03
499.193	1.98
499.544	2.03
499.894	2
500.245	2.13
500.596	2.09
500.947	1.99
501.298	1.96
501.648	2.01
501.999	2.02
502.35	2.09
502.7	2.17
503.051	1.98
503.401	2.17
503.752	1.9
504.102	1.89
504.452	1.95
504.803	1.88
505.153	2.18
505.503	1.98
505.853	2.03
506.203	2.15
506.553	1.94
506.903	2.11
507.253	2.03
507.603	2.09
507.953	2.04
508.303	2.09
508.652	1.94
509.002	2.15
509.352	2.15
509.701	2.05
510.051	2.18
510.4	2.07
510.75	1.94
511.099	1.95
511.449	1.96
511.798	1.96
512.147	1.95
512.496	2.04
512.846	2.04
513.195	2
513.544	2.13
513.893	2.03
514.242	2.09
514.591	1.99
514.939	2.13
515.288	2.09
515.637	2.01
515.986	2.1
516.334	2.1
516.683	2.02
517.032	2.08
517.38	2.01
517.729	2.13
518.077	1.91
518.426	2.11
518.774	2
519.122	1.97
519.47	2.02
519.819	2.03
520.167	2.05
520.515	1.98
520.863	2.07
521.211	2
521.559	1.98
521.907	2.04
522.255	1.99
522.602	2.06
522.95	2.02
523.298	2.04
523.645	1.99
523.993	2.11
524.341	1.99
524.688	1.94
525.036	1.99
525.383	2.13
525.73	1.98
526.078	2.12
526.425	2.08
526.772	2.02
527.119	1.98
527.466	2.04
527.814	2
528.161	2.07
528.508	2.13
528.854	2.03
529.201	1.98
529.548	2.02
529.895	1.94
530.242	1.97
530.588	1.98
530.935	1.97
531.282	1.98
531.628	1.98
531.975	1.98
532.321	2.04
532.667	1.97
533.014	2.02
533.36	2.13
533.706	1.99
534.052	2.01
534.399	2.04
534.745	1.99
535.091	1.96
535.437	1.98
535.783	1.99
536.129	1.99
536.474	2.07
536.82	2.04
537.166	1.98
537.512	1.96
537.857	1.97
538.203	2.01
538.549	1.95
538.894	2
539.239	2.06
539.585	2.06
539.93	2.08
540.276	2.06
540.621	2.08
540.966	2.08
541.311	2.1
541.656	1.96
542.001	2
542.346	1.96
542.691	2
543.036	1.96
543.381	2
543.726	2.04
544.071	2.03
544.415	2.06
544.76	2.01
545.105	1.96
545.449	1.93
545.794	1.96
546.138	2.05
546.483	2.06
546.827	1.94
547.171	2.17
547.516	2.05
547.86	2.02
548.204	2.13
548.548	2.1
548.892	2.15
549.236	2.06
549.58	2.11
549.924	2.15
550.268	2.13
550.612	2.19
550.956	2.2
551.3	2.29
551.643	2.01
551.987	2.27
552.33	2.24
552.674	2.07
553.017	2.25
553.361	2.12
553.704	2.15
554.048	2.02
554.391	2.04
554.734	2.05
555.077	2.07
555.42	2.06
555.764	2.12
556.107	2.34
556.45	2.13
556.793	2.19
557.135	2.09
557.478	2.02
557.821	2.25
558.164	2.13
558.507	1.98
558.849	2.23
559.192	2.03
559.534	2.01
559.877	2.07
560.219	2.07
560.562	2.08
560.904	2.26
561.246	1.89
561.589	2.19
561.931	2.09
562.273	2.19
562.615	2.17
562.957	2.15
563.299	2.23
563.641	2.19
563.983	1.89
564.325	2.04
564.667	2.1
565.008	1.96
565.35	1.94
565.692	2.01
566.033	2.08
566.375	2.14
566.716	2.06
567.058	1.99
567.399	2.09
567.741	2.18
568.082	2.16
568.423	2
568.764	2.09
569.105	2.12
569.447	1.96
569.788	2.15
570.129	2.06
570.47	2.09
570.811	2.04
571.151	2.11
571.492	2.06
571.833	2.06
572.174	2.17
572.514	2.13
572.855	2.27
573.195	2.01
573.536	2.25
573.876	2.04
574.217	2.02
574.557	2.15
574.898	2.02
575.238	2.13
575.578	2.2
575.918	2.08
576.258	2.27
576.598	2.13
576.938	2.09
577.278	2.11
577.618	2.05
577.958	2.05
578.298	2.16
578.638	2.1
578.977	2.15
579.317	2.28
579.657	1.92
579.996	2.19
580.336	2.26
580.675	2.07
581.014	1.99
581.354	2
581.693	2.19
582.032	2.3
582.372	2.08
582.711	2.25
583.05	2.17
583.389	2.18
583.728	2.3
584.067	1.98
584.406	2.48
584.745	1.85
585.083	2.11
585.422	2.35
585.761	2.22
586.1	2.22
586.438	2.03
586.777	2.19
587.115	2.15
587.454	2.01
587.792	2.15
588.13	2.07
588.469	2.05
588.807	2.26
589.145	2.1
589.483	1.91
589.821	1.93
590.159	1.91
590.497	2.13
590.835	2.22
591.173	2.37
591.511	2.36
591.849	2.21
592.187	1.92
592.524	2.3
592.862	2.05
593.2	2.03
593.537	2.01
593.875	2.13
594.212	2.13
594.55	2.14
594.887	2.18
595.224	2.38
595.561	2.05
595.899	2.18
596.236	2.11
596.573	1.93
596.91	2.19
597.247	2.33
597.584	2.19
597.921	2.14
598.258	2.3
598.594	2.03
598.931	2.02
599.268	2.01
599.604	2.28
599.941	2.05
600.277	2.06
600.614	2.21
600.95	2
601.287	2.06
601.623	1.89
601.959	2.35
602.296	2.02
602.632	2.09
602.968	2.21
603.304	2.02
603.64	2.21
603.976	2.05
604.312	2.15
604.648	2
604.984	2.17
605.319	2.08
605.655	2
605.991	2.1
606.326	2.08
606.662	2
606.998	2.15
607.333	2.19
607.668	1.88
608.004	1.98
608.339	1.96
608.674	2.11
609.01	2.31
609.345	2.2
609.68	1.92
610.015	2.12
610.35	2.17
610.685	1.79
611.02	2.18
611.355	2.07
611.689	2.12
612.024	2.14
612.359	2.48
612.694	2.24
613.028	2
613.363	2
613.697	2.22
614.032	1.98
614.366	1.91
614.7	2.42
615.035	1.84
615.369	2.35
615.703	2.12
616.037	2
616.371	2.13
616.705	1.93
617.039	2.21
617.373	2.21
617.707	2.18
618.041	2.04
618.375	1.68
618.709	2.34
619.042	2.05
619.376	1.85
619.71	2.24
620.043	2.46
620.377	2.02
620.71	2.06
621.043	2.25
621.377	2.04
621.71	2.26
622.043	2.17
622.376	1.95
622.709	2.39
623.043	1.99
623.376	1.94
623.709	2.2
624.041	2.26
624.374	2.48
624.707	2.27
625.04	2.14
625.373	2.14
625.705	2.25
626.038	2.38
626.37	1.93
626.703	2.04
627.035	2.21
627.368	2.21
627.7	2.37
628.032	2.13
628.365	2.45
628.697	2.23
629.029	2.11
629.361	2.26
629.693	2.21
630.025	2.34
630.357	2.3
630.689	2.25
631.021	2.47
631.353	2.01
631.684	1.73
632.016	1.83
632.348	1.99
632.679	2.33
633.011	1.93
633.342	2.12
633.674	1.82
634.005	2.3
634.336	2.28
634.668	2.12
634.999	2.26
635.33	2.11
635.661	1.94
635.992	2.26
636.323	2
636.654	2.08
636.985	1.94
637.316	2.28
637.647	2.49
637.977	1.98
638.308	2.33
638.639	2.06
638.969	1.8
639.3	2.39
639.63	1.9
639.961	2.14
640.291	1.79
640.622	2.22
640.952	2.26
641.282	1.83
641.612	2.42
641.943	1.73
642.273	2.11
642.603	2.17
642.933	2.41
643.263	2.38
643.592	2.51
643.922	2.16
644.252	2.26
644.582	2.28
644.911	2.37
645.241	1.89
645.571	2.03
645.9	2.4
646.23	2.18
646.559	2.24
646.888	2.42
647.218	2.26
647.547	2.27
647.876	1.92
648.205	1.65
648.534	2.27
648.863	1.92
649.192	2.2
649.521	2.1
649.85	2.57
650.179	2.17
650.508	2.31
650.837	2.39
651.165	2.27
651.494	1.97
651.822	2.17
652.151	1.65
652.479	2.22
652.808	2.16
653.136	2.13
653.465	2.01
653.793	2.29
654.121	2.25
654.449	2.03
654.777	1.73
655.105	1.9
655.433	2.59
655.761	1.68
656.089	2.03
656.417	2.48
656.745	2.6
657.073	2.29
657.4	2.11
657.728	1.38
658.056	2.05
658.383	1.96
658.711	2.31
659.038	2.49
659.365	2.26
659.693	1.88
660.02	1.82
660.347	2.58
660.674	2.11
661.001	2.19
661.329	2.08
661.656	1.84
661.982	1.88
662.309	2.1
662.636	2
662.963	2.03
663.29	1.92
663.616	1.9
663.943	2.31
664.27	1.98
664.596	1.29
664.923	2.35
665.249	2.68
665.576	1.55
665.902	1.87
666.228	2.61
666.554	2.96
666.881	1.87
667.207	2.21
667.533	2.34
667.859	1.94
668.185	2.57
668.511	2.33
668.837	1.85
669.162	2.12
669.488	1.76
669.814	1.6
670.139	1.88
670.465	2.5
670.791	1.81
671.116	1.7
671.442	1.56
671.767	2
672.092	1.93
672.418	2.13
672.743	1.87
673.068	1.94
673.393	2.5
673.718	1.56
674.043	2.01
674.368	2.08
674.693	2.21
675.018	2.42
675.343	2.7
675.667	1.72
675.992	1.94
676.317	1.71
676.641	2.7
676.966	2.49
677.29	1.73
677.615	1.92
677.939	2.49
678.264	1.88
678.588	2.02
678.912	2.1
679.236	2.01
679.56	1.99
679.885	1.95
680.209	1.85
680.532	2.43
680.856	2.31
681.18	2.79
681.504	1.62
681.828	1.72
682.152	2.12
682.475	1.99
682.799	2.06
683.122	2.03
683.446	1.53
683.769	1.88
684.093	2.33
684.416	1.74
684.739	2.1
685.062	2.66
685.386	2.32
685.709	1.88
686.032	2.48
686.355	2.53
686.678	2.34
687.001	2.59
687.324	1.82
687.646	2.22
687.969	2.43
688.292	1.62
688.614	2.49
688.937	2.69
689.26	2.04
689.582	2.4
689.904	1.92
690.227	2.6
690.549	2.39
690.871	1.83
691.194	2.45
691.516	2.1
691.838	2.55
692.16	1.69
692.482	2.26
692.804	1.45
693.126	0.81
693.448	2.07
693.769	1.83
694.091	2.03
694.413	2
694.735	2.16
695.056	2.26
695.378	2.1
695.699	2.69
696.021	1.86
696.342	1.96
696.663	2.54
696.984	0.96
697.306	1.25
697.627	2.51
697.948	2.19
698.269	2.76
698.59	2.28
698.911	1.51
699.232	2.25
699.553	2.47
699.873	1.65
700.194	2.19
700.515	1.82
700.835	2.09
701.156	2.36
701.477	1.9
701.797	2.17
702.117	1.39
702.438	2.23
702.758	1.92
703.078	2.4
703.398	1.34
703.719	2.24
704.039	2.5
704.359	2.07
704.679	2.33
704.999	2.35
705.319	1.94
705.638	1.67
705.958	1.89
706.278	2.5
706.597	1.76
706.917	1.26
707.237	2.27
707.556	1.57
707.876	2.39
708.195	1.87
708.514	1.86
708.834	1.34
709.153	1.86
709.472	2.17
709.791	1.68
710.11	2.33
710.429	2.33
710.748	2.25
711.067	2.22
711.386	1.71
711.705	2.7
712.023	2.87
712.342	1.79
712.661	2.8
712.979	2.7
713.298	2.64
713.616	2.43
713.935	1.63
714.253	2.05
714.572	2.08
714.89	1.46
715.208	1.38
715.526	2.25
715.844	1.85
716.162	2.57
716.48	1.83
716.798	1.67
717.116	1.95
717.434	2.01
717.752	1.72
718.069	2.12
718.387	2.35
718.705	2.06
719.022	2.52
719.34	1.44
719.657	1.86
719.975	1.55
720.292	1.79
720.609	0.98
720.927	1.44
721.244	3.19
721.561	1.11
721.878	2
722.195	2.4
722.512	1.91
722.829	2.5
723.146	2.34
723.463	2.02
723.779	0.44
724.096	0.2
724.413	2.79
724.729	2.19
725.046	0.82
725.362	2.37
725.679	1.51
725.995	-0.2
726.311	2.52
726.628	1.71
726.944	2.47
727.26	1.06
727.576	2.3
727.892	2.34
728.208	1.54
728.524	0.92
728.84	0.95
729.156	1.64
729.472	2.4
729.787	1.8
730.103	1
730.419	0.63
730.734	0.5
731.05	1.13
731.365	3
731.681	2.63
731.996	2.22
732.311	1.14
732.626	1.78
732.942	1.91
733.257	1.29
733.572	2.28
733.887	2.55
734.202	3.35
734.517	1.64
734.832	0.86
735.146	2.75
735.461	1.3
735.776	3.93
736.091	3.29
736.405	1.86
736.72	0.46
737.034	2.06
737.349	1.46
737.663	3.07
737.977	3.52
738.292	1.22
738.606	3.27
738.92	2.2
739.234	0.7
739.548	2.07
739.862	3.15
740.176	1.53
740.49	1.94
740.804	0.88
741.117	1.36
741.431	0.28
741.745	0.97
742.058	-0.25
742.372	-0.33
742.685	2.43
742.999	0.31
743.312	2.47
743.626	3.74
743.939	1.18
744.252	1.39
744.565	1.67
744.878	0.41
745.191	3.03
745.505	2.79
745.817	2.57
746.13	1.43
746.443	-0.23
746.756	1.01
747.069	2.06
747.381	0.55
747.694	1.36
748.007	3.16
748.319	3.8
748.632	2.22
748.944	1.09
749.256	2.61
749.569	-0.58
749.881	2.1
750.193	2.51
750.505	1.88
750.817	3.27
751.129	1.78
751.441	2.76
751.753	3.66
752.065	2.13
752.377	2.42
752.689	1.9
753	3.04
753.312	0.93
753.624	1.07
753.935	0.52
754.247	0.91
754.558	2.33
754.869	2.95
755.181	-0.27
755.492	1.24
755.803	3.57
756.114	0.52
756.425	0.8
756.736	2.67
757.047	1.3
757.358	1.72
757.669	1.96
757.98	0.04
758.291	1.05
758.601	2.37
758.912	0.09
759.223	1.23
759.533	2.64
759.844	2.42
760.154	1.94
760.464	1.26
760.775	3.03
761.085	1.25
761.395	-0.23
761.705	1.51
762.016	1.51
762.326	2.92
762.636	2.12
762.945	1.93
763.255	0.38
763.565	4.19
763.875	1.21
764.185	3.99
764.494	1.05
764.804	1.92
765.113	2.67
765.423	2.56
765.732	2.27
766.042	4.22
766.351	3.3
766.66	1.16
766.97	2.55
767.279	1.38
767.588	-0.04
767.897	1.33
768.206	1.36
768.515	1.94
768.824	1.99
769.133	1.54
769.441	0.05
769.75	1.29
770.059	2.58
770.367	1.33
770.676	1.33
770.984	-2.39
771.293	2.19
771.601	-0.06
771.91	1.19
772.218	1.98
772.526	1.11
772.834	-2.28
773.142	0.45
773.45	1.61
773.758	1.28
774.066	1.07
774.374	3.03
774.682	1.78
774.99	-0.56
775.298	-0.87
775.605	0.9
775.913	-2.21
776.22	-1.01
776.528	-0.77
776.835	1.8
777.143	2.42
777.45	-1.44
777.757	1.78
778.065	-0.57
778.372	0.9
778.679	2.48
778.986	2.44
779.293	-1.77
779.6	0.62
779.907	4.01
780.214	1.35
780.52	-0.75
780.827	-3.37
781.134	-1.18
781.44	6.1
781.747	0.24
782.053	0.91
782.36	-1.21
782.666	-1.02
782.973	-2.24
783.279	1.01
783.585	3.06
783.891	3.73
784.197	-0.54
784.503	0.51
784.809	1.28
785.115	0.47
785.421	2.46
785.727	0.7
786.033	-0.15
786.339	4.5
786.644	0.39
786.95	1.23
787.255	-3.62
787.561	-2.07
787.866	0.78
788.172	3.36
788.477	0.87
788.782	-1.16
789.088	-3.46
789.393	0.46
789.698	-2.24
790.003	-2.89
790.308	2.91
790.613	0.02
790.918	0.37
791.223	2.12
791.527	2.84
791.832	1.81
792.137	2.21
792.441	-2.3
792.746	3.37
793.05	1.09
793.355	4.81
793.659	4.17
793.963	0.1
794.268	1.39
794.572	-3.53
794.876	-2.47
795.18	5.9
795.484	4.07
795.788	4.43
796.092	-1.35
796.396	0.82
796.7	-0.26
797.004	-1.37
797.307	0.05
797.611	3.42
797.915	-2.25
798.218	0.01
798.522	-1.04
798.825	2.95
799.128	2.25
799.432	-3.81
799.735	2.3
800.038	0.39
800.341	6.47
800.644	-2.67
800.947	1.12
801.25	1.99
801.553	0.3
801.856	4.48
802.159	2
802.462	-0.11
802.764	0.97
803.067	0.56
803.37	1.88
803.672	-3.93
803.975	-0.45
804.277	-3.02
804.579	-0.64
804.882	0.77
805.184	-3.66
805.486	1.63
805.788	3.29
806.09	-2.32
806.392	-2.23
806.694	-1.88
806.996	4.75
807.298	-7.01
807.6	3.16
807.902	-1.38
808.203	-2.96
808.505	-3.34
808.807	2.66
809.108	1.17
809.409	6.43
809.711	-0.54
810.012	2.72
810.313	-0.61
810.615	4.74
810.916	2.28
811.217	-4.91
811.518	-5.85
811.819	5.21
812.12	-1.06
812.421	-2.22
812.722	4.57
813.023	3.31
813.323	2.94
813.624	3.63
813.925	1.19
814.225	3.91
814.526	-15.27
814.826	-1.48
815.126	2.42
815.427	-6.1
815.727	0.51
816.027	4.99
816.327	4.14
816.627	3.76
816.927	-2.83
817.227	-3.28
817.527	3.87
817.827	5.26
818.127	-3.29
818.427	-4.3
818.727	-7.71
819.026	-0.06
819.326	0.72
819.625	6.59
819.925	-1.19
820.224	7.95
820.524	-0.67
820.823	4.14
821.122	-6.16
821.421	-3.72
821.72	-1.59
822.019	-7.83
822.318	5.1
822.617	1.77
822.916	-1.37
823.215	1.37
823.514	1.67
823.813	-1.14
824.111	0.86
824.41	2.82
824.709	2.63
825.007	2.72
825.306	3.38
825.604	2.71
825.902	3.18
826.201	2.34
826.499	3.06
826.797	1.87
827.095	3.37
827.393	4.78
827.691	4.39
827.989	2.52
828.287	2.5
828.585	0.78
828.882	0.17
829.18	0.77
829.478	2.27
829.775	3.66
830.073	4.21
830.37	2.04
830.668	1.84
830.965	4.03
831.263	2.49
831.56	2.18
831.857	3.38
832.154	0.42
832.451	4.28
832.748	0.98
833.045	0.8
833.342	-2.66
833.639	3.09
833.936	-3.88
834.232	2.53
834.529	1.08
834.826	4.2
835.122	-4.49
835.419	2.45
835.715	-0.53
836.012	3.71
836.308	3.44
836.604	-1.62
836.901	-1.76
837.197	3
837.493	1.4
837.789	1.5
838.085	-3.36
838.381	3.78
838.677	-1.77
838.972	-6.84
839.268	-0.47
839.564	-3.42
839.86	-1.33
840.155	-0.31
840.451	-0.6
840.746	-1.37
841.042	4.11
841.337	-7.77
841.632	-1.45
841.928	-1.97
842.223	-6.84
842.518	-1.52
842.813	-4.42
843.108	-0.66
843.403	-2.23
843.698	-8.29
843.993	7.09
844.287	2
844.582	8.59
844.877	10.39
845.171	-0.48
845.466	1.01
845.761	-7.33
846.055	1.4
846.349	-4.55
846.644	3.41
846.938	6.29
847.232	-11.29
847.526	-3.94
847.82	-18.25
848.114	0.1
848.408	-7.81
848.702	12.32
848.996	-0.54
849.29	5.51
849.584	-2.13
849.877	-6.97
850.171	5.86
850.465	-10.25
850.758	-34.09
851.052	-20.5
851.345	2.23
851.638	0.5
851.932	-10.66
852.225	-2.89
852.518	-25.72
852.811	-11.78
853.104	-5.95
853.397	1.95
853.69	2.82
853.983	-14.05
854.276	-8.38
854.569	-22.08
854.861	-25.55
855.154	14.38
855.447	6.81
855.739	-30.51
856.032	-8.3
856.324	4.18
856.616	-1.7
856.909	-2.79
857.201	-41.02
857.493	-18.83
857.785	-14.17
858.077	-16.12
858.369	-16.32
858.661	-6.35
858.953	4.97
859.245	-10.46
859.537	-35.47
859.829	-3.13
860.12	1.43
860.412	-22.72
860.703	3.58
860.995	10.19
861.286	-47.75
861.578	-13.37
861.869	-3.83
862.16	2.11
862.452	-47.31
862.743	-11.81
863.034	-5.66
863.325	8.48
863.616	-11.86
863.907	11.44
864.198	-44.38
864.488	-3.1
864.779	-7.68
865.07	-15.45
865.36	18.82
865.651	7.53
865.941	-6.55
866.232	19.52
866.522	-24.65
866.813	14.98
867.103	-44.39
867.393	-15.04
867.683	-10.83
867.973	-7.68
868.263	-1.07
868.553	28.02
868.843	-8.25
869.133	-15.76
869.423	-7.71
869.713	-22.02
870.002	-1.57
870.292	-20.9
870.582	-39.53
870.871	-2.54
871.161	-31.08
871.45	-28.6
871.739	11.7
872.029	-15.47
872.318	-1.03
872.607	19.67
872.896	12.72
873.185	-12.75
873.474	-51.2
873.763	-11.54
874.052	12.91
874.341	-16.26
874.63	-9.44
874.918	13.1
875.207	-49.73
875.496	-3.65
875.784	-50.23
876.073	-22.5
876.361	13.08
876.649	-19.75
876.938	-46.21
877.226	-17.37
877.514	-11.15
877.802	-34.84
878.09	-22.35
878.378	-1.55
878.666	21.15
878.954	21.14
879.242	7.84
879.53	-12.25
879.817	-30.34
880.105	5.81
880.392	-10.72
880.68	-9.86
880.967	-21.43
881.255	-13.79
881.542	-28.95
881.83	-3.02
882.117	-18.51
882.404	-16.84
882.691	12.15
882.978	5.56
883.265	-26.84
883.552	-13.04
883.839	4.12
884.126	-6.65
884.413	2.88
884.699	0.1
884.986	-1.77
885.273	2.56
885.559	2.56
885.846	2.56
