Data from 0044_chest_Reflection__2__122.txt Node

Date: Fri Nov 04 15:51:03 CDT 2022
User: ToomeyLab
Spectrometer: FLMS14357
Trigger mode: 0
Integration Time (sec): 1.000000E-2
Scans to average: 100
Electric dark correction enabled: true
Nonlinearity correction enabled: false
Boxcar width: 0
XAxis mode: Wavelengths
Number of Pixels in Spectrum: 2048
>>>>>Begin Spectral Data<<<<<
189.047	395.84
189.435	395.84
189.823	395.84
190.211	10.24
190.599	1077.94
190.987	14.65
191.375	-35.64
191.763	448.75
192.151	-98.33
192.538	-360.76
192.926	-14.32
193.314	117.92
193.702	91.1
194.089	220.06
194.477	120.06
194.864	-0.1
195.252	120.15
195.639	-181.64
196.027	53.98
196.414	-127.59
196.801	391.74
197.189	91.75
197.576	-698.95
197.963	0.6
198.351	-80.95
198.738	5.44
199.125	0.39
199.512	-54.21
199.899	-35.75
200.286	-42.76
200.673	-7.37
201.06	-29.68
201.447	-44.49
201.833	29.2
202.22	1.61
202.607	26.18
202.994	38.01
203.38	27.44
203.767	-1.19
204.154	44.24
204.54	-37.15
204.927	8.21
205.313	-9.7
205.699	27.84
206.086	11.81
206.472	-1.35
206.858	8.37
207.245	-17.54
207.631	35.03
208.017	35.96
208.403	12.58
208.789	28.3
209.175	-13.63
209.561	-64.14
209.947	-37.29
210.333	13.03
210.719	20.8
211.105	-0.86
211.491	22.9
211.876	39.89
212.262	-25.6
212.648	9.39
213.034	11.29
213.419	-10.18
213.805	-11.71
214.19	-7.21
214.576	20.15
214.961	45.52
215.346	2.62
215.732	36.65
216.117	-27.19
216.502	-4.15
216.888	-13.1
217.273	-4.14
217.658	-32.17
218.043	-3.81
218.428	8.67
218.813	9.67
219.198	13.14
219.583	3.13
219.968	8.47
220.353	-14.69
220.738	-23.09
221.122	0.97
221.507	9.46
221.892	1.34
222.276	-10.34
222.661	-3.47
223.046	-8.82
223.43	0.83
223.815	6.38
224.199	3.7
224.583	1.86
224.968	0.99
225.352	4.21
225.736	-6.91
226.121	-7.73
226.505	1.08
226.889	3.3
227.273	3.46
227.657	2.26
228.041	2.35
228.425	6.41
228.809	2
229.193	3.19
229.577	2.38
229.961	3.58
230.344	2.12
230.728	2.49
231.112	1.92
231.495	2.29
231.879	2.7
232.263	0.48
232.646	2.55
233.03	0.29
233.413	1.06
233.797	2.35
234.18	3.16
234.563	3.9
234.946	3.1
235.33	2.83
235.713	2.79
236.096	1.9
236.479	2.15
236.862	1.76
237.245	2.32
237.628	1.54
238.011	0.5
238.394	2.59
238.777	3.06
239.16	1.92
239.543	1.16
239.925	2.16
240.308	3.34
240.691	1.79
241.073	2.85
241.456	2.03
241.838	2.18
242.221	2.67
242.603	2.05
242.986	1.74
243.368	2.67
243.75	2.47
244.133	2.57
244.515	2.78
244.897	2.52
245.279	2.72
245.661	2.82
246.043	3.19
246.425	3.16
246.807	2.87
247.189	2.73
247.571	2.57
247.953	2.23
248.335	2.19
248.717	2.45
249.098	2.26
249.48	2.47
249.862	2.71
250.243	2.18
250.625	2.18
251.006	2.35
251.388	2.56
251.769	2.88
252.151	2.59
252.532	2.38
252.913	1.97
253.295	2.83
253.676	2.03
254.057	1.66
254.438	2.71
254.819	2.39
255.2	1.85
255.581	2.22
255.962	2.93
256.343	1.48
256.724	2.31
257.105	1.63
257.486	2.4
257.867	2.82
258.247	2.84
258.628	2.11
259.009	1.5
259.389	2.06
259.77	2.73
260.15	1.99
260.531	2.17
260.911	2.26
261.292	1.83
261.672	2.31
262.052	2.21
262.432	2.21
262.813	1.96
263.193	1.61
263.573	2.36
263.953	2.25
264.333	1.84
264.713	2.8
265.093	1.86
265.473	2.77
265.853	1.46
266.233	2.07
266.612	2.44
266.992	2.43
267.372	1.99
267.752	1.72
268.131	2.76
268.511	2.3
268.89	2.8
269.27	2.04
269.649	2.29
270.029	1.83
270.408	2.11
270.787	2.41
271.167	2.07
271.546	3.11
271.925	1.65
272.304	1.72
272.683	1.76
273.062	2.42
273.441	2.51
273.82	1.74
274.199	2.21
274.578	2.22
274.957	2.11
275.336	1.74
275.715	2.03
276.093	2.06
276.472	2.12
276.851	1.93
277.229	2
277.608	2.16
277.986	2.81
278.365	2.96
278.743	2.17
279.122	2.18
279.5	2.25
279.878	2.09
280.257	2.13
280.635	1.48
281.013	2.05
281.391	2.95
281.769	1.91
282.147	2.35
282.525	2.26
282.903	2.36
283.281	2.28
283.659	2.22
284.037	2.2
284.415	1.85
284.792	2.45
285.17	2.08
285.548	2.45
285.925	2.4
286.303	2.47
286.68	2.36
287.058	2.49
287.435	2.37
287.813	1.99
288.19	2
288.567	1.99
288.945	2.38
289.322	2.66
289.699	2.81
290.076	2.44
290.453	1.65
290.83	2.2
291.207	2.09
291.584	2.28
291.961	2.61
292.338	2.21
292.715	2.46
293.092	1.95
293.469	2.12
293.845	1.93
294.222	2.09
294.599	1.62
294.975	2.51
295.352	2.44
295.728	2.06
296.105	2.25
296.481	2.18
296.858	2.08
297.234	2.82
297.61	2.58
297.986	2.16
298.363	2.02
298.739	2.34
299.115	2.69
299.491	2.36
299.867	2.27
300.243	2.26
300.619	2.54
300.995	2.65
301.371	2.57
301.746	2.58
302.122	2.19
302.498	2.33
302.874	2.36
303.249	2.31
303.625	2.35
304	2.58
304.376	2.19
304.751	2.48
305.127	2.02
305.502	2.63
305.878	2.32
306.253	2.4
306.628	2.4
307.003	1.81
307.378	2.17
307.754	2.68
308.129	1.76
308.504	2.63
308.879	2.31
309.254	2.6
309.629	2.57
310.003	2.66
310.378	2.57
310.753	2.72
311.128	2.17
311.502	2.12
311.877	2.44
312.252	2.4
312.626	1.95
313.001	2.61
313.375	2.44
313.75	2.33
314.124	2.34
314.498	2.44
314.873	2.96
315.247	2.89
315.621	2.36
315.995	2.82
316.369	3
316.743	2.98
317.117	2.51
317.491	2.62
317.865	2.69
318.239	2.52
318.613	3.26
318.987	2.71
319.361	2.85
319.734	2.2
320.108	2.68
320.482	2.07
320.855	2.4
321.229	2.8
321.602	2.66
321.976	2.07
322.349	3.21
322.723	2.68
323.096	2.44
323.469	2.8
323.843	2.37
324.216	2.55
324.589	3.14
324.962	3.32
325.335	2.85
325.708	2.15
326.081	2.62
326.454	2.87
326.827	3.11
327.2	2.23
327.573	2.53
327.945	2.7
328.318	2.03
328.691	2.65
329.063	2.35
329.436	2.9
329.809	2.49
330.181	2.79
330.553	2.34
330.926	2.48
331.298	3.05
331.671	3.05
332.043	2.2
332.415	2.8
332.787	2.65
333.159	2.11
333.532	2.24
333.904	2.69
334.276	2.31
334.648	3.03
335.02	2.15
335.391	2.76
335.763	2.68
336.135	2.38
336.507	2.71
336.879	2.97
337.25	2.84
337.622	3.06
337.993	2.74
338.365	3.08
338.736	2.74
339.108	2.95
339.479	2.33
339.851	2.47
340.222	2.65
340.593	2.53
340.964	2.29
341.336	2.51
341.707	2.45
342.078	2.71
342.449	2.68
342.82	2.81
343.191	2.64
343.562	2.58
343.933	2.96
344.303	2.88
344.674	3.13
345.045	2.51
345.416	2.45
345.786	2.9
346.157	3.13
346.527	2.56
346.898	2.71
347.268	2.6
347.639	2.79
348.009	2.85
348.38	2.41
348.75	2.82
349.12	2.57
349.49	2.66
349.861	2.96
350.231	3.21
350.601	2.61
350.971	2.51
351.341	2.95
351.711	2.66
352.081	2.71
352.45	2.53
352.82	2.64
353.19	3.01
353.56	2.91
353.929	2.81
354.299	3.23
354.669	3.07
355.038	3.14
355.408	2.51
355.777	3.02
356.147	2.46
356.516	2.81
356.885	3.06
357.254	3.09
357.624	2.97
357.993	2.67
358.362	2.59
358.731	2.64
359.1	3.22
359.469	2.86
359.838	2.96
360.207	2.82
360.576	3.08
360.945	2.97
361.314	3.17
361.682	2.75
362.051	2.66
362.42	2.77
362.788	2.86
363.157	2.76
363.525	2.99
363.894	2.86
364.262	3.01
364.631	3.2
364.999	2.85
365.367	2.89
365.735	3.1
366.104	2.74
366.472	2.99
366.84	2.48
367.208	2.96
367.576	2.67
367.944	3.21
368.312	3.08
368.68	2.73
369.048	2.8
369.416	2.85
369.783	3.04
370.151	2.4
370.519	3.1
370.886	2.97
371.254	2.98
371.621	3.3
371.989	3.1
372.356	3.07
372.724	2.81
373.091	2.8
373.458	3.05
373.826	2.94
374.193	2.97
374.56	2.47
374.927	3.42
375.294	2.92
375.661	3.23
376.028	2.8
376.395	2.98
376.762	3.32
377.129	3.06
377.496	2.94
377.863	3.35
378.229	2.83
378.596	2.95
378.963	3.26
379.329	2.94
379.696	2.91
380.062	3.13
380.429	3.08
380.795	3.02
381.161	2.95
381.528	3.28
381.894	2.77
382.26	3.16
382.626	2.74
382.993	3.05
383.359	2.99
383.725	3.3
384.091	2.86
384.457	2.97
384.823	3.05
385.188	3.27
385.554	2.94
385.92	3.1
386.286	2.86
386.651	3.25
387.017	2.99
387.383	2.97
387.748	2.84
388.114	2.81
388.479	3.49
388.845	3.03
389.21	3.49
389.575	3.32
389.94	3.38
390.306	3.02
390.671	3.46
391.036	2.92
391.401	3.3
391.766	2.81
392.131	3.11
392.496	3
392.861	3.26
393.226	3.07
393.591	3.12
393.956	3.35
394.32	3.29
394.685	3.29
395.05	3.17
395.414	3.19
395.779	3.1
396.143	3.06
396.508	3.27
396.872	3.18
397.236	3.31
397.601	3.14
397.965	3.23
398.329	3.43
398.694	3.48
399.058	3.52
399.422	2.75
399.786	3.16
400.15	3.15
400.514	3.16
400.878	3.08
401.242	3.34
401.605	3.12
401.969	3.4
402.333	3.25
402.697	3.34
403.06	3.52
403.424	3.32
403.787	3.17
404.151	3.32
404.514	3.34
404.878	3.46
405.241	3.36
405.604	3.11
405.968	3.16
406.331	3.24
406.694	3.09
407.057	3.23
407.42	3.15
407.783	3.25
408.146	3.46
408.509	3.29
408.872	3.4
409.235	3.34
409.598	3.44
409.961	3.44
410.323	3.26
410.686	3.36
411.049	3.3
411.411	3.26
411.774	3.48
412.136	3.38
412.499	3.45
412.861	3.31
413.223	3.58
413.586	3.07
413.948	3.45
414.31	3.18
414.672	3.38
415.035	3.61
415.397	3.31
415.759	3.54
416.121	3.19
416.483	3.36
416.845	3.41
417.206	3.47
417.568	3.37
417.93	3.31
418.292	3.45
418.653	3.42
419.015	3.33
419.377	3.25
419.738	3.33
420.1	3.46
420.461	3.38
420.822	3.27
421.184	3.42
421.545	3.23
421.906	3.51
422.267	3.41
422.629	3.41
422.99	3.24
423.351	3.29
423.712	3.32
424.073	3.38
424.434	3.29
424.795	3.32
425.155	3.53
425.516	3.4
425.877	3.21
426.238	3.34
426.598	3.36
426.959	3.38
427.32	3.28
427.68	3.41
428.041	3.36
428.401	3.47
428.761	3.57
429.122	3.47
429.482	3.46
429.842	3.32
430.202	3.46
430.563	3.44
430.923	3.52
431.283	3.29
431.643	3.57
432.003	3.75
432.363	3.52
432.722	3.46
433.082	3.66
433.442	3.6
433.802	3.45
434.161	3.61
434.521	3.56
434.881	3.56
435.24	3.43
435.6	3.56
435.959	3.55
436.319	3.46
436.678	3.48
437.037	3.6
437.396	3.62
437.756	3.58
438.115	3.52
438.474	3.65
438.833	3.71
439.192	3.59
439.551	3.75
439.91	3.54
440.269	3.55
440.628	3.69
440.987	3.67
441.345	3.59
441.704	3.61
442.063	3.54
442.421	3.54
442.78	3.61
443.138	3.55
443.497	3.51
443.855	3.48
444.214	3.74
444.572	3.6
444.93	3.63
445.288	3.71
445.647	3.56
446.005	3.61
446.363	3.64
446.721	3.54
447.079	3.59
447.437	3.55
447.795	3.6
448.153	3.53
448.51	3.6
448.868	3.58
449.226	3.54
449.584	3.56
449.941	3.58
450.299	3.7
450.656	3.56
451.014	3.67
451.371	3.64
451.729	3.71
452.086	3.76
452.443	3.67
452.801	3.68
453.158	3.64
453.515	3.7
453.872	3.63
454.229	3.86
454.586	3.74
454.943	3.78
455.3	3.82
455.657	3.68
456.014	3.7
456.371	3.68
456.727	3.79
457.084	3.89
457.441	3.8
457.797	3.78
458.154	3.79
458.51	3.78
458.867	3.6
459.223	3.8
459.58	3.93
459.936	3.7
460.292	3.77
460.648	3.86
461.005	3.7
461.361	3.67
461.717	3.78
462.073	3.76
462.429	3.76
462.785	3.75
463.141	3.75
463.496	3.71
463.852	3.88
464.208	3.92
464.564	3.68
464.919	4.03
465.275	3.89
465.631	3.93
465.986	3.92
466.342	3.8
466.697	3.8
467.052	3.68
467.408	3.85
467.763	3.97
468.118	4.12
468.473	3.88
468.829	3.58
469.184	3.8
469.539	3.78
469.894	3.92
470.249	3.89
470.603	4.03
470.958	3.81
471.313	3.84
471.668	3.71
472.023	3.74
472.377	3.97
472.732	4
473.086	3.84
473.441	3.79
473.795	3.83
474.15	3.94
474.504	4.02
474.859	3.92
475.213	4.03
475.567	3.93
475.921	3.78
476.275	3.95
476.63	4
476.984	3.83
477.338	3.95
477.692	3.98
478.045	3.98
478.399	3.85
478.753	4.05
479.107	3.9
479.461	4.08
479.814	4.08
480.168	4.01
480.521	3.87
480.875	3.98
481.228	4.25
481.582	4.16
481.935	4.11
482.289	3.98
482.642	4.04
482.995	4.03
483.348	4.03
483.701	4.03
484.055	3.99
484.408	4
484.761	3.93
485.114	3.81
485.466	3.85
485.819	3.82
486.172	3.83
486.525	3.82
486.878	3.91
487.23	3.91
487.583	3.92
487.936	3.97
488.288	3.94
488.641	4.02
488.993	3.94
489.345	3.89
489.698	3.91
490.05	3.96
490.402	3.94
490.754	3.98
491.107	4.05
491.459	4.1
491.811	4.03
492.163	4.12
492.515	4.19
492.866	4.02
493.218	4
493.57	4
493.922	4.08
494.274	4.02
494.625	4.01
494.977	4.16
495.328	4.18
495.68	4.18
496.031	4.11
496.383	4.3
496.734	4.27
497.086	4.41
497.437	4.36
497.788	4.3
498.139	4.13
498.49	4.27
498.842	4.24
499.193	4.17
499.544	4.24
499.894	4.21
500.245	4.23
500.596	4.16
500.947	4.21
501.298	4.22
501.648	4.32
501.999	4.41
502.35	4.42
502.7	4.32
503.051	4.43
503.401	4.43
503.752	4.32
504.102	4.33
504.452	4.3
504.803	4.31
505.153	4.42
505.503	4.27
505.853	4.48
506.203	4.38
506.553	4.5
506.903	4.39
507.253	4.54
507.603	4.35
507.953	4.42
508.303	4.46
508.652	4.44
509.002	4.62
509.352	4.59
509.701	4.47
510.051	4.39
510.4	4.6
510.75	4.47
511.099	4.49
511.449	4.37
511.798	4.4
512.147	4.48
512.496	4.47
512.846	4.35
513.195	4.58
513.544	4.47
513.893	4.51
514.242	4.48
514.591	4.49
514.939	4.63
515.288	4.51
515.637	4.61
515.986	4.64
516.334	4.56
516.683	4.62
517.032	4.59
517.38	4.64
517.729	4.71
518.077	4.64
518.426	4.6
518.774	4.63
519.122	4.73
519.47	4.66
519.819	4.63
520.167	4.61
520.515	4.6
520.863	4.52
521.211	4.62
521.559	4.62
521.907	4.61
522.255	4.69
522.602	4.73
522.95	4.64
523.298	4.75
523.645	4.85
523.993	4.76
524.341	4.81
524.688	4.74
525.036	4.7
525.383	4.82
525.73	4.81
526.078	4.76
526.425	4.82
526.772	4.69
527.119	4.85
527.466	4.79
527.814	4.75
528.161	4.69
528.508	4.73
528.854	4.76
529.201	4.65
529.548	4.71
529.895	4.69
530.242	4.73
530.588	4.66
530.935	4.68
531.282	4.65
531.628	4.58
531.975	4.74
532.321	4.78
532.667	4.83
533.014	4.9
533.36	4.89
533.706	4.94
534.052	4.95
534.399	4.84
534.745	4.86
535.091	4.81
535.437	4.91
535.783	4.84
536.129	4.96
536.474	4.87
536.82	4.85
537.166	5.02
537.512	5.02
537.857	4.99
538.203	5.05
538.549	4.98
538.894	5.09
539.239	5.12
539.585	4.96
539.93	5.11
540.276	5.04
540.621	5.06
540.966	5.19
541.311	5.03
541.656	5.2
542.001	5.21
542.346	5.09
542.691	5.17
543.036	5.01
543.381	5.08
543.726	5.04
544.071	5.06
544.415	5.09
544.76	5.1
545.105	5.14
545.449	5.28
545.794	5.33
546.138	5.18
546.483	5.31
546.827	5.29
547.171	5.34
547.516	5.46
547.86	5.35
548.204	5.3
548.548	5.45
548.892	5.34
549.236	5.26
549.58	5.37
549.924	5.4
550.268	5.49
550.612	5.33
550.956	5.4
551.3	5.55
551.643	5.46
551.987	5.53
552.33	5.49
552.674	5.58
553.017	5.62
553.361	5.74
553.704	5.49
554.048	5.63
554.391	5.46
554.734	5.64
555.077	5.77
555.42	5.54
555.764	5.95
556.107	5.63
556.45	5.78
556.793	5.72
557.135	5.93
557.478	5.55
557.821	5.77
558.164	5.79
558.507	5.75
558.849	5.87
559.192	6.01
559.534	5.77
559.877	5.75
560.219	6.03
560.562	5.94
560.904	6
561.246	5.74
561.589	5.99
561.931	5.9
562.273	6.07
562.615	5.8
562.957	5.88
563.299	5.84
563.641	5.95
563.983	5.94
564.325	5.84
564.667	5.94
565.008	5.93
565.35	6.04
565.692	6.16
566.033	6.13
566.375	6.12
566.716	6.11
567.058	6.11
567.399	6.16
567.741	6.16
568.082	6.4
568.423	6.1
568.764	6.21
569.105	6.12
569.447	6.2
569.788	6.19
570.129	6.3
570.47	6.22
570.811	6.19
571.151	6.29
571.492	6.45
571.833	6.41
572.174	6.59
572.514	6.3
572.855	6.21
573.195	6.36
573.536	6.46
573.876	6.26
574.217	6.29
574.557	6.42
574.898	6.43
575.238	6.36
575.578	6.55
575.918	6.55
576.258	6.56
576.598	6.52
576.938	6.6
577.278	6.42
577.618	6.5
577.958	6.51
578.298	6.68
578.638	6.66
578.977	6.67
579.317	6.5
579.657	6.68
579.996	6.7
580.336	6.62
580.675	6.51
581.014	6.77
581.354	6.75
581.693	7.03
582.032	6.88
582.372	6.92
582.711	6.78
583.05	6.98
583.389	6.86
583.728	6.91
584.067	7.1
584.406	6.67
584.745	7.1
585.083	6.8
585.422	7.2
585.761	6.78
586.1	6.91
586.438	6.75
586.777	6.92
587.115	6.85
587.454	7.26
587.792	7.22
588.13	7.19
588.469	7.13
588.807	7.31
589.145	7.06
589.483	6.94
589.821	7.3
590.159	7.11
590.497	7.51
590.835	7
591.173	7.04
591.511	7.22
591.849	7.52
592.187	7.26
592.524	7.34
592.862	7.18
593.2	7.6
593.537	7.13
593.875	7.54
594.212	7.34
594.55	7.35
594.887	7.63
595.224	7.46
595.561	7.35
595.899	7.47
596.236	7.62
596.573	7.55
596.91	7.71
597.247	7.6
597.584	7.39
597.921	7.58
598.258	7.57
598.594	7.45
598.931	7.55
599.268	7.64
599.604	7.63
599.941	7.57
600.277	7.54
600.614	7.82
600.95	7.71
601.287	7.87
601.623	7.61
601.959	7.57
602.296	8.02
602.632	8.01
602.968	7.99
603.304	7.9
603.64	7.87
603.976	7.68
604.312	7.93
604.648	7.72
604.984	7.85
605.319	7.74
605.655	7.74
605.991	8.23
606.326	8
606.662	7.89
606.998	7.92
607.333	7.98
607.668	8.13
608.004	7.93
608.339	7.96
608.674	8.17
609.01	8.17
609.345	8.44
609.68	8.33
610.015	8.22
610.35	8.16
610.685	8.55
611.02	8.37
611.355	8.43
611.689	8.56
612.024	8.28
612.359	8.27
612.694	8.37
613.028	8.54
613.363	8.62
613.697	8.25
614.032	8.25
614.366	8.34
614.7	8.44
615.035	8.35
615.369	8.46
615.703	8.81
616.037	8.38
616.371	8.37
616.705	8.53
617.039	9.03
617.373	8.81
617.707	9.07
618.041	8.83
618.375	8.6
618.709	8.73
619.042	8.76
619.376	8.97
619.71	8.94
620.043	8.82
620.377	9.14
620.71	9.14
621.043	8.96
621.377	9.03
621.71	8.99
622.043	9.2
622.376	9.07
622.709	8.89
623.043	9.13
623.376	9.29
623.709	9.02
624.041	8.85
624.374	8.85
624.707	8.89
625.04	9.51
625.373	9.34
625.705	9.27
626.038	9.31
626.37	9.65
626.703	9.23
627.035	9.04
627.368	9.08
627.7	9.34
628.032	9.05
628.365	9.52
628.697	9.41
629.029	9.2
629.361	9.37
629.693	9.58
630.025	9.61
630.357	9.25
630.689	9.76
631.021	9.38
631.353	9.61
631.684	9.75
632.016	9.68
632.348	9.58
632.679	9.34
633.011	9.96
633.342	9.46
633.674	9.75
634.005	9.98
634.336	9.82
634.668	10.06
634.999	9.82
635.33	9.81
635.661	9.76
635.992	9.91
636.323	10.04
636.654	9.72
636.985	9.94
637.316	9.95
637.647	9.64
637.977	10.33
638.308	10.15
638.639	10.25
638.969	9.77
639.3	10.01
639.63	9.93
639.961	10.35
640.291	10.02
640.622	10.34
640.952	10.25
641.282	10.33
641.612	10.26
641.943	9.95
642.273	10.45
642.603	10.47
642.933	9.86
643.263	9.74
643.592	10.05
643.922	10.47
644.252	10.43
644.582	10.24
644.911	10.72
645.241	10.01
645.571	10.49
645.9	10.64
646.23	10.56
646.559	10.56
646.888	10.49
647.218	10.85
647.547	10.48
647.876	11.23
648.205	10.32
648.534	11.25
648.863	10.66
649.192	10.76
649.521	10.61
649.85	11.05
650.179	10.71
650.508	10.32
650.837	11.23
651.165	10.55
651.494	10.77
651.822	10.92
652.151	11.42
652.479	10.74
652.808	10.71
653.136	11.3
653.465	10.81
653.793	11.35
654.121	11.08
654.449	10.8
654.777	11.04
655.105	11.19
655.433	10.9
655.761	10.9
656.089	11.28
656.417	10.6
656.745	10.79
657.073	10.89
657.4	11.18
657.728	11.47
658.056	10.97
658.383	11.24
658.711	10.98
659.038	11.55
659.365	11.7
659.693	12.12
660.02	11.91
660.347	11.31
660.674	11.05
661.001	11.55
661.329	11.26
661.656	11.79
661.982	11.12
662.309	11.53
662.636	11.25
662.963	11.16
663.29	11.35
663.616	11.48
663.943	11.72
664.27	11.76
664.596	11.44
664.923	11.82
665.249	12.13
665.576	11.42
665.902	11.13
666.228	11.51
666.554	12.54
666.881	11.63
667.207	11.78
667.533	11.84
667.859	11.89
668.185	12.16
668.511	12.2
668.837	11.66
669.162	12.46
669.488	11.35
669.814	12.11
670.139	12.1
670.465	12.26
670.791	12.05
671.116	12.03
671.442	12.24
671.767	12.4
672.092	12.52
672.418	12.29
672.743	13.03
673.068	12.18
673.393	12.57
673.718	12.69
674.043	12.83
674.368	11.96
674.693	12.12
675.018	12.9
675.343	12.71
675.667	12.63
675.992	13.03
676.317	12.4
676.641	12.53
676.966	12.07
677.29	13.03
677.615	12.44
677.939	12.82
678.264	12.56
678.588	12.38
678.912	13.23
679.236	13.1
679.56	12.6
679.885	13.23
680.209	12.44
680.532	12.49
680.856	12.04
681.18	12.6
681.504	13.34
681.828	12.61
682.152	13.66
682.475	12.69
682.799	13.02
683.122	12.87
683.446	12.89
683.769	12.55
684.093	13.33
684.416	12.95
684.739	13.08
685.062	13.33
685.386	13.19
685.709	13.65
686.032	13.35
686.355	14.28
686.678	13.99
687.001	13.59
687.324	13.61
687.646	14.06
687.969	13.46
688.292	13.88
688.614	13.97
688.937	13.84
689.26	12.99
689.582	14.07
689.904	14.06
690.227	13.88
690.549	13.33
690.871	13.74
691.194	13.34
691.516	13.42
691.838	13.33
692.16	14.27
692.482	12.96
692.804	13.46
693.126	13.61
693.448	13.23
693.769	13.55
694.091	13.53
694.413	12.71
694.735	13.91
695.056	13.2
695.378	14.16
695.699	14.81
696.021	15.39
696.342	14.57
696.663	13.45
696.984	13.61
697.306	14
697.627	13.93
697.948	14.02
698.269	14.6
698.59	14.59
698.911	13.83
699.232	14.3
699.553	14.86
699.873	13.98
700.194	14.19
700.515	13.61
700.835	14.57
701.156	13.99
701.477	14.27
701.797	14.4
702.117	14.06
702.438	14.03
702.758	14.35
703.078	14.25
703.398	13.93
703.719	14.11
704.039	15.01
704.359	15.43
704.679	13.83
704.999	14.65
705.319	14.75
705.638	14.64
705.958	14.62
706.278	14.98
706.597	15.09
706.917	14.57
707.237	14.71
707.556	14.55
707.876	14.8
708.195	15.84
708.514	15.52
708.834	14.74
709.153	13.74
709.472	15.5
709.791	15.41
710.11	14.14
710.429	16.3
710.748	14.05
711.067	15.5
711.386	14.63
711.705	14.64
712.023	15.04
712.342	15.34
712.661	15.48
712.979	14.69
713.298	14.61
713.616	14.66
713.935	15.32
714.253	15.26
714.572	14.84
714.89	15.02
715.208	15.58
715.526	15.35
715.844	15.04
716.162	15.08
716.48	15.21
716.798	16.65
717.116	17
717.434	15.26
717.752	15.13
718.069	15.35
718.387	15.13
718.705	15.5
719.022	15.96
719.34	16.05
719.657	15.5
719.975	15.89
720.292	15.62
720.609	15.98
720.927	16.27
721.244	16.31
721.561	15.45
721.878	15.05
722.195	15.44
722.512	16.11
722.829	16.74
723.146	15.34
723.463	16.48
723.779	16.17
724.096	16.3
724.413	16.58
724.729	15.42
725.046	14.64
725.362	15.05
725.679	16.73
725.995	16.64
726.311	15.87
726.628	17.2
726.944	15.87
727.26	15.57
727.576	17.52
727.892	17.02
728.208	16.64
728.524	15.23
728.84	15.19
729.156	15.96
729.472	16.67
729.787	17.21
730.103	16.13
730.419	17.69
730.734	16.38
731.05	15.97
731.365	16.39
731.681	15.41
731.996	16.59
732.311	15.83
732.626	17.59
732.942	15.73
733.257	17.66
733.572	16.9
733.887	17.89
734.202	16.12
734.517	15.31
734.832	18.14
735.146	16.68
735.461	16.42
735.776	16.43
736.091	16.67
736.405	17.14
736.72	15.85
737.034	16.17
737.349	16.09
737.663	16.73
737.977	16.64
738.292	17.76
738.606	17.31
738.92	17.41
739.234	17.26
739.548	17.82
739.862	17.73
740.176	16.32
740.49	15.89
740.804	17.56
741.117	17.02
741.431	16.48
741.745	18.19
742.058	17.8
742.372	16.06
742.685	16.48
742.999	16.83
743.312	17.4
743.626	17.32
743.939	17.91
744.252	18.84
744.565	16.39
744.878	17.78
745.191	16.71
745.505	16.3
745.817	18.37
746.13	17.02
746.443	16.76
746.756	18.39
747.069	17.79
747.381	18.21
747.694	18.81
748.007	17.87
748.319	17.3
748.632	17.25
748.944	18.55
749.256	16.99
749.569	16.04
749.881	16.51
750.193	19.54
750.505	18.51
750.817	19.67
751.129	18.32
751.441	17.91
751.753	18.53
752.065	17.63
752.377	18.33
752.689	17.83
753	17.13
753.312	18.05
753.624	19.41
753.935	19.48
754.247	18.02
754.558	19.02
754.869	15.78
755.181	19.52
755.492	19.09
755.803	18.64
756.114	19.63
756.425	16.97
756.736	18.7
757.047	20.01
757.358	18.51
757.669	19.24
757.98	19.15
758.291	17.93
758.601	18.18
758.912	18
759.223	18.03
759.533	18.69
759.844	17.86
760.154	18.85
760.464	18.38
760.775	19.77
761.085	19.22
761.395	19.58
761.705	20.81
762.016	17.76
762.326	19.21
762.636	18.9
762.945	19.59
763.255	19.53
763.565	19.87
763.875	20.11
764.185	18.14
764.494	18.56
764.804	19.9
765.113	19.61
765.423	19.13
765.732	19.99
766.042	18.28
766.351	19.78
766.66	19.15
766.97	18.86
767.279	18.94
767.588	18.57
767.897	17.9
768.206	21.04
768.515	18.3
768.824	17.56
769.133	18.96
769.441	18.61
769.75	20.4
770.059	17.8
770.367	18.41
770.676	19.69
770.984	20.47
771.293	23.17
771.601	19.18
771.91	19.41
772.218	20.35
772.526	19.94
772.834	19.4
773.142	19.64
773.45	19.32
773.758	18.32
774.066	17.49
774.374	17.18
774.682	18.62
774.99	20.43
775.298	17.7
775.605	17.73
775.913	19.32
776.22	20.03
776.528	23.04
776.835	21.2
777.143	18.46
777.45	19.32
777.757	21.07
778.065	19.63
778.372	17.08
778.679	18.8
778.986	20.9
779.293	19
779.6	21.38
779.907	21.89
780.214	19.78
780.52	19.03
780.827	22.69
781.134	16.66
781.44	18.65
781.747	19
782.053	20.45
782.36	19.76
782.666	18.28
782.973	19.55
783.279	19.87
783.585	16.13
783.891	20.2
784.197	17.94
784.503	17.25
784.809	19.35
785.115	22.2
785.421	18.99
785.727	23.05
786.033	16.62
786.339	21.3
786.644	20.36
786.95	21.21
787.255	15.36
787.561	21.67
787.866	15.74
788.172	20.31
788.477	22.94
788.782	22.88
789.088	20.84
789.393	21.08
789.698	18.86
790.003	19.36
790.308	20.93
790.613	19.75
790.918	23.27
791.223	21.59
791.527	18.9
791.832	22.44
792.137	22.38
792.441	21.1
792.746	21.28
793.05	19.39
793.355	19.71
793.659	20.15
793.963	24.5
794.268	17.49
794.572	22.33
794.876	18.5
795.18	22.68
795.484	17.26
795.788	21.27
796.092	21.39
796.396	21.62
796.7	19.15
797.004	23.86
797.307	24.3
797.611	22.03
797.915	24.08
798.218	17.76
798.522	21.99
798.825	22.28
799.128	16.94
799.432	20.49
799.735	20.17
800.038	20.73
800.341	20.32
800.644	21.27
800.947	17.26
801.25	24.81
801.553	20.04
801.856	20.87
802.159	21.9
802.462	24.95
802.764	19.31
803.067	17.16
803.37	16.63
803.672	22.37
803.975	23.84
804.277	24.28
804.579	17.83
804.882	21.58
805.184	19.06
805.486	19.52
805.788	22.82
806.09	16.97
806.392	20.75
806.694	17.43
806.996	16.8
807.298	17.59
807.6	24.75
807.902	21.15
808.203	22.95
808.505	24.75
808.807	21.95
809.108	29.68
809.409	22.39
809.711	19.6
810.012	25.43
810.313	20.96
810.615	21.14
810.916	19.44
811.217	21.75
811.518	16.35
811.819	22.58
812.12	18.76
812.421	21.63
812.722	20.11
813.023	21.94
813.323	26.47
813.624	23.92
813.925	26.15
814.225	24.35
814.526	22.47
814.826	14.17
815.126	20.85
815.427	22.27
815.727	18.54
816.027	14.68
816.327	21.95
816.627	24.27
816.927	23.27
817.227	19.26
817.527	27.41
817.827	20.56
818.127	23.52
818.427	26.98
818.727	23.55
819.026	20.71
819.326	19.33
819.625	21.55
819.925	27.25
820.224	25.86
820.524	28.06
820.823	17.05
821.122	17.93
821.421	20.01
821.72	25.71
822.019	19.69
822.318	22.64
822.617	20.56
822.916	19.65
823.215	21.55
823.514	25.43
823.813	23.87
824.111	22.77
824.41	22.16
824.709	22.92
825.007	23.41
825.306	23.18
825.604	24.74
825.902	23.85
826.201	24.05
826.499	23.52
826.797	23.88
827.095	24.59
827.393	23.03
827.691	23.83
827.989	23.18
828.287	25.63
828.585	24.54
828.882	20.87
829.18	24.53
829.478	23.41
829.775	24.92
830.073	22.14
830.37	25.26
830.668	21.05
830.965	26.22
831.263	24.41
831.56	22.68
831.857	25.55
832.154	21.67
832.451	24.42
832.748	25.07
833.045	26.96
833.342	25.85
833.639	24.73
833.936	23.35
834.232	19.69
834.529	25.7
834.826	20.16
835.122	26.19
835.419	24.79
835.715	14.6
836.012	24.72
836.308	19.6
836.604	23.52
836.901	22.64
837.197	22.57
837.493	22.74
837.789	23.54
838.085	23.43
838.381	25.01
838.677	25.59
838.972	20.81
839.268	28.23
839.564	23.72
839.86	21.31
840.155	21.42
840.451	25.92
840.746	26.34
841.042	27.04
841.337	26.56
841.632	23.06
841.928	12.69
842.223	20.74
842.518	20.28
842.813	29.75
843.108	30.15
843.403	20.77
843.698	15.98
843.993	18.08
844.287	23.43
844.582	21.92
844.877	23.21
845.171	18.66
845.466	25.27
845.761	20.67
846.055	22.34
846.349	22.52
846.644	23.75
846.938	16.11
847.232	27.99
847.526	12.14
847.82	16.6
848.114	36.18
848.408	21.54
848.702	18.39
848.996	12.44
849.29	32.15
849.584	27.73
849.877	22.21
850.171	32.04
850.465	18.88
850.758	16.29
851.052	39.64
851.345	29.32
851.638	17.35
851.932	21.51
852.225	21.22
852.518	25.56
852.811	21.49
853.104	23
853.397	-4.93
853.69	2.08
853.983	25.22
854.276	36.69
854.569	11.01
854.861	15.43
855.154	20.08
855.447	-13.28
855.739	22.16
856.032	25.91
856.324	34.43
856.616	18.19
856.909	24.34
857.201	22.71
857.493	36.12
857.785	27.34
858.077	25.34
858.369	11.53
858.661	30.89
858.953	10.36
859.245	-5.44
859.537	20
859.829	32.86
860.12	12.94
860.412	9.13
860.703	4.94
860.995	-17.91
861.286	24.93
861.578	33.23
861.869	21.14
862.16	33.19
862.452	12.63
862.743	31.66
863.034	33.71
863.325	-0.09
863.616	29.64
863.907	15.07
864.198	10.06
864.488	5.53
864.779	13.91
865.07	33.82
865.36	32.45
865.651	5.09
865.941	1.75
866.232	14.88
866.522	29.7
866.813	19.9
867.103	27.9
867.393	8.58
867.683	1.97
867.973	16.81
868.263	23.85
868.553	16.55
868.843	47.72
869.133	33.53
869.423	63.92
869.713	10.8
870.002	20.38
870.292	12.69
870.582	11.88
870.871	-16.74
871.161	37.21
871.45	24.07
871.739	13.81
872.029	32.53
872.318	2.27
872.607	26.81
872.896	21.84
873.185	21.01
873.474	30.95
873.763	28.47
874.052	37.24
874.341	19.89
874.63	30.73
874.918	33.44
875.207	28.54
875.496	20.87
875.784	43.91
876.073	23.55
876.361	50.57
876.649	13.78
876.938	4.65
877.226	23.86
877.514	33.5
877.802	26.82
878.09	7.16
878.378	19.8
878.666	7.92
878.954	56.9
879.242	21.03
879.53	37.83
879.817	22.75
880.105	7.65
880.392	26.97
880.68	-4.02
880.967	26.53
881.255	38.65
881.542	30.5
881.83	23.73
882.117	5.96
882.404	-0.3
882.691	30.1
882.978	38.91
883.265	17.61
883.552	1.97
883.839	27.39
884.126	30.34
884.413	25.81
884.699	19.65
884.986	23.21
885.273	24.08
885.559	24.08
885.846	24.08
