Data from 0044_forehead_Reflection__2__132.txt Node

Date: Fri Nov 04 15:55:15 CDT 2022
User: ToomeyLab
Spectrometer: FLMS14357
Trigger mode: 0
Integration Time (sec): 1.000000E-2
Scans to average: 100
Electric dark correction enabled: true
Nonlinearity correction enabled: false
Boxcar width: 0
XAxis mode: Wavelengths
Number of Pixels in Spectrum: 2048
>>>>>Begin Spectral Data<<<<<
189.047	698.61
189.435	698.61
189.823	698.61
190.211	-40.5
190.599	-395.02
190.987	40.05
191.375	3.86
191.763	261.67
192.151	122.37
192.538	-235.44
192.926	73.59
193.314	166.96
193.702	80.99
194.089	136.68
194.477	646.53
194.864	-38.43
195.252	103.78
195.639	96.54
196.027	1
196.414	-42.04
196.801	455.32
197.189	-8.33
197.576	-227.65
197.963	-50.35
198.351	-31.18
198.738	31.89
199.125	41.17
199.512	-26.09
199.899	45.8
200.286	-18.85
200.673	0.21
201.06	-44.55
201.447	-11.19
201.833	59.28
202.22	47.49
202.607	19.43
202.994	16.98
203.38	48.25
203.767	17.53
204.154	37.71
204.54	16.72
204.927	59.56
205.313	26.3
205.699	37.63
206.086	28.25
206.472	4.49
206.858	31.41
207.245	12.68
207.631	9.42
208.017	13.81
208.403	19.12
208.789	24.84
209.175	39.7
209.561	-44.14
209.947	-25.25
210.333	18.47
210.719	28.35
211.105	-14.63
211.491	27.15
211.876	8.08
212.262	-22.14
212.648	-4.84
213.034	7.14
213.419	-6.98
213.805	-5.21
214.19	-30.79
214.576	10.71
214.961	40.47
215.346	6.39
215.732	30.59
216.117	1.31
216.502	22.27
216.888	16.21
217.273	-4.77
217.658	18.15
218.043	1.24
218.428	19.25
218.813	9.53
219.198	-13.07
219.583	2.87
219.968	18.28
220.353	-12.21
220.738	-24.08
221.122	-4.61
221.507	23.24
221.892	-12.96
222.276	-1.16
222.661	9.05
223.046	-7.16
223.43	10.32
223.815	-4.03
224.199	3.79
224.583	-0.22
224.968	-0.46
225.352	4.75
225.736	-5.1
226.121	-4.14
226.505	1.31
226.889	-2.47
227.273	4.7
227.657	3.81
228.041	3.79
228.425	-0.28
228.809	1.55
229.193	0.01
229.577	0.04
229.961	3.48
230.344	3.01
230.728	2.63
231.112	1.87
231.495	2.43
231.879	2.67
232.263	2.31
232.646	3.87
233.03	2.35
233.413	1.13
233.797	2.06
234.18	1.86
234.563	2.84
234.946	3.16
235.33	3.49
235.713	2.19
236.096	3.58
236.479	3.03
236.862	3.21
237.245	1.34
237.628	2.61
238.011	0.27
238.394	3.84
238.777	2.99
239.16	3.26
239.543	3
239.925	1.82
240.308	4.36
240.691	1.69
241.073	2.91
241.456	2.27
241.838	2.08
242.221	3.52
242.603	2.4
242.986	3.01
243.368	3.42
243.75	3.08
244.133	3.03
244.515	3.45
244.897	2.98
245.279	2.82
245.661	3.07
246.043	3.76
246.425	3.32
246.807	3.85
247.189	3.26
247.571	3.39
247.953	3.32
248.335	2.94
248.717	3.12
249.098	2.74
249.48	3.13
249.862	3.22
250.243	3.24
250.625	3.05
251.006	2.92
251.388	3.69
251.769	3.3
252.151	4.52
252.532	3.4
252.913	3.2
253.295	4.04
253.676	3.21
254.057	2.79
254.438	3.32
254.819	3.21
255.2	2.38
255.581	3.5
255.962	3.91
256.343	3.75
256.724	2.2
257.105	3.45
257.486	3.6
257.867	4.39
258.247	2.84
258.628	2.44
259.009	2.28
259.389	3.33
259.77	3.34
260.15	3.32
260.531	3.01
260.911	2.73
261.292	2.79
261.672	3.03
262.052	3.02
262.432	3.14
262.813	2.62
263.193	2.32
263.573	2.68
263.953	2.52
264.333	3.39
264.713	3.42
265.093	3.06
265.473	3
265.853	2.48
266.233	2.74
266.612	2.79
266.992	3.9
267.372	1.98
267.752	2.88
268.131	3.3
268.511	2.97
268.89	3.06
269.27	3.03
269.649	3.01
270.029	3.05
270.408	2.82
270.787	3.27
271.167	3.33
271.546	3.37
271.925	2.93
272.304	2.62
272.683	3.06
273.062	2.94
273.441	3.17
273.82	3.01
274.199	3.12
274.578	2.73
274.957	2.73
275.336	2.68
275.715	3.14
276.093	2.85
276.472	2.48
276.851	2.41
277.229	2.88
277.608	2.59
277.986	3.07
278.365	3.41
278.743	2.88
279.122	3.46
279.5	2.82
279.878	2.65
280.257	2.92
280.635	2.03
281.013	2.9
281.391	3.2
281.769	2.74
282.147	2.33
282.525	3.41
282.903	3.05
283.281	3.44
283.659	2.7
284.037	2.77
284.415	2.84
284.792	3.09
285.17	2.75
285.548	3.28
285.925	2.97
286.303	2.89
286.68	3.2
287.058	2.99
287.435	2.73
287.813	3.02
288.19	3.05
288.567	3.22
288.945	3.21
289.322	3.16
289.699	3.53
290.076	3.55
290.453	2.81
290.83	3.04
291.207	3.23
291.584	3.38
291.961	3.8
292.338	3.49
292.715	3.43
293.092	3.27
293.469	3.64
293.845	3.46
294.222	3.32
294.599	3.05
294.975	3.54
295.352	3.87
295.728	4.03
296.105	3.72
296.481	3.49
296.858	3.49
297.234	4
297.61	3.93
297.986	3.89
298.363	3.4
298.739	3.78
299.115	4.05
299.491	3.9
299.867	4.04
300.243	3.97
300.619	4.11
300.995	4.39
301.371	4.18
301.746	4.15
302.122	4.29
302.498	4.13
302.874	4.07
303.249	3.93
303.625	4.09
304	4.28
304.376	3.76
304.751	3.82
305.127	3.55
305.502	3.95
305.878	4.19
306.253	4.11
306.628	3.66
307.003	4.02
307.378	4.21
307.754	4.13
308.129	3.68
308.504	4.52
308.879	4.58
309.254	4.56
309.629	4.09
310.003	4.81
310.378	5.08
310.753	4.58
311.128	4.68
311.502	4.19
311.877	4.7
312.252	4.68
312.626	4.61
313.001	4.65
313.375	4.67
313.75	4.56
314.124	4.64
314.498	4.72
314.873	5.37
315.247	4.74
315.621	4.81
315.995	4.78
316.369	4.69
316.743	4.98
317.117	5.2
317.491	5.59
317.865	4.76
318.239	5.05
318.613	5.47
318.987	4.7
319.361	4.57
319.734	4.85
320.108	4.9
320.482	3.85
320.855	4.59
321.229	4.46
321.602	4.87
321.976	4.97
322.349	5.96
322.723	5.06
323.096	5.26
323.469	4.97
323.843	5.16
324.216	5.54
324.589	5.15
324.962	5.78
325.335	5.26
325.708	4.62
326.081	5.31
326.454	5.14
326.827	5.28
327.2	5.1
327.573	5.1
327.945	5.35
328.318	5.02
328.691	5.27
329.063	5.5
329.436	5.44
329.809	5.78
330.181	5.66
330.553	5.33
330.926	5.36
331.298	5.98
331.671	5.13
332.043	5.49
332.415	5.72
332.787	5.25
333.159	5.41
333.532	5.39
333.904	5.77
334.276	5.08
334.648	5.71
335.02	5.38
335.391	5.71
335.763	5.44
336.135	5.83
336.507	5.7
336.879	5.34
337.25	5.81
337.622	5.42
337.993	5.78
338.365	5.47
338.736	6.18
339.108	5.91
339.479	5.98
339.851	5.77
340.222	5.58
340.593	5.75
340.964	5.86
341.336	5.51
341.707	5.47
342.078	5.61
342.449	5.87
342.82	5.79
343.191	5.6
343.562	5.91
343.933	6
344.303	5.81
344.674	5.73
345.045	5.89
345.416	5.54
345.786	5.92
346.157	6.12
346.527	6.23
346.898	6.22
347.268	5.74
347.639	5.66
348.009	6.32
348.38	5.92
348.75	5.9
349.12	5.75
349.49	6.28
349.861	5.71
350.231	6.7
350.601	5.9
350.971	6.26
351.341	5.89
351.711	5.91
352.081	6.3
352.45	6.19
352.82	6.15
353.19	6.22
353.56	6.57
353.929	5.8
354.299	6.52
354.669	6.31
355.038	6.68
355.408	5.91
355.777	5.96
356.147	6.32
356.516	6.19
356.885	6.53
357.254	6.46
357.624	6.19
357.993	6.19
358.362	6.14
358.731	6.2
359.1	6.52
359.469	6.32
359.838	6.48
360.207	6.41
360.576	6.47
360.945	6.9
361.314	6.75
361.682	6.51
362.051	6.42
362.42	6.56
362.788	6.53
363.157	6.83
363.525	6.58
363.894	6.64
364.262	6.64
364.631	6.83
364.999	6.56
365.367	6.43
365.735	6.86
366.104	6.75
366.472	6.75
366.84	6.56
367.208	6.69
367.576	6.81
367.944	6.87
368.312	7.05
368.68	6.73
369.048	6.53
369.416	6.52
369.783	6.56
370.151	6.6
370.519	7.05
370.886	6.92
371.254	6.71
371.621	6.83
371.989	6.89
372.356	7.01
372.724	6.84
373.091	7.16
373.458	7.03
373.826	7.01
374.193	6.9
374.56	6.46
374.927	7.58
375.294	6.67
375.661	7.1
376.028	6.92
376.395	7.06
376.762	7.57
377.129	7.35
377.496	7.37
377.863	6.84
378.229	7.01
378.596	6.93
378.963	6.99
379.329	6.83
379.696	7.15
380.062	7.55
380.429	7.29
380.795	7.1
381.161	7.41
381.528	7.5
381.894	7.14
382.26	7.3
382.626	7.26
382.993	7.28
383.359	7.44
383.725	7.44
384.091	7.36
384.457	7.36
384.823	7.58
385.188	7.61
385.554	7.51
385.92	7.46
386.286	7.43
386.651	7.32
387.017	7.44
387.383	7.44
387.748	7.46
388.114	7.31
388.479	7.92
388.845	7.58
389.21	7.8
389.575	8.02
389.94	7.64
390.306	7.77
390.671	7.73
391.036	7.4
391.401	7.9
391.766	7.35
392.131	7.45
392.496	7.64
392.861	7.69
393.226	7.61
393.591	7.95
393.956	7.87
394.32	7.89
394.685	7.71
395.05	7.93
395.414	7.7
395.779	7.85
396.143	7.85
396.508	8
396.872	7.91
397.236	7.99
397.601	7.75
397.965	7.79
398.329	7.94
398.694	8.12
399.058	8.02
399.422	7.95
399.786	7.89
400.15	7.89
400.514	8.01
400.878	8.18
401.242	8.24
401.605	8.11
401.969	8.22
402.333	8.19
402.697	8.26
403.06	8.21
403.424	8.42
403.787	8.18
404.151	8.15
404.514	8.22
404.878	8.32
405.241	8.26
405.604	8.39
405.968	8.3
406.331	8.16
406.694	8.13
407.057	8.25
407.42	8.28
407.783	8.24
408.146	8.29
408.509	8.32
408.872	8.48
409.235	8.35
409.598	8.52
409.961	8.63
410.323	8.47
410.686	8.21
411.049	8.46
411.411	8.25
411.774	8.58
412.136	8.69
412.499	8.53
412.861	8.54
413.223	8.55
413.586	8.41
413.948	8.94
414.31	8.53
414.672	8.65
415.035	8.97
415.397	8.39
415.759	8.8
416.121	8.46
416.483	8.76
416.845	8.85
417.206	8.67
417.568	8.83
417.93	8.8
418.292	8.63
418.653	8.81
419.015	8.67
419.377	8.78
419.738	8.71
420.1	8.73
420.461	8.7
420.822	8.54
421.184	8.73
421.545	8.69
421.906	8.79
422.267	8.53
422.629	8.78
422.99	8.59
423.351	8.53
423.712	8.62
424.073	8.73
424.434	8.7
424.795	8.91
425.155	8.85
425.516	8.85
425.877	8.75
426.238	8.69
426.598	8.8
426.959	8.75
427.32	8.79
427.68	8.96
428.041	8.9
428.401	9.08
428.761	9.15
429.122	9.18
429.482	9.26
429.842	9.07
430.202	9.11
430.563	9.14
430.923	9.25
431.283	9.15
431.643	9.23
432.003	9.65
432.363	9.38
432.722	9.35
433.082	9.41
433.442	9.38
433.802	9.31
434.161	9.25
434.521	9.28
434.881	9.19
435.24	9.24
435.6	9.49
435.959	9.37
436.319	9.43
436.678	9.48
437.037	9.66
437.396	9.58
437.756	9.45
438.115	9.42
438.474	9.55
438.833	9.54
439.192	9.59
439.551	9.61
439.91	9.61
440.269	9.55
440.628	9.67
440.987	9.57
441.345	9.71
441.704	9.6
442.063	9.47
442.421	9.5
442.78	9.59
443.138	9.62
443.497	9.54
443.855	9.7
444.214	9.96
444.572	9.73
444.93	9.55
445.288	9.95
445.647	9.83
446.005	9.88
446.363	9.88
446.721	9.89
447.079	9.85
447.437	9.83
447.795	9.86
448.153	9.57
448.51	9.75
448.868	9.69
449.226	9.68
449.584	9.82
449.941	9.83
450.299	9.89
450.656	9.93
451.014	10.13
451.371	10.14
451.729	10.24
452.086	10.05
452.443	10.06
452.801	10.03
453.158	10.2
453.515	10.29
453.872	10.15
454.229	10.36
454.586	10.24
454.943	10.18
455.3	10.27
455.657	10.11
456.014	10.21
456.371	10.36
456.727	10.34
457.084	10.5
457.441	10.55
457.797	10.39
458.154	10.29
458.51	10.61
458.867	10.41
459.223	10.3
459.58	10.73
459.936	10.46
460.292	10.52
460.648	10.42
461.005	10.35
461.361	10.39
461.717	10.35
462.073	10.27
462.429	10.43
462.785	10.56
463.141	10.58
463.496	10.54
463.852	10.65
464.208	10.8
464.564	10.77
464.919	10.92
465.275	10.79
465.631	10.81
465.986	10.85
466.342	10.86
466.697	10.87
467.052	10.65
467.408	10.92
467.763	10.89
468.118	10.95
468.473	10.82
468.829	10.76
469.184	10.94
469.539	10.92
469.894	11.05
470.249	11.05
470.603	10.93
470.958	10.94
471.313	10.72
471.668	10.84
472.023	10.88
472.377	11.02
472.732	10.97
473.086	11.17
473.441	11.03
473.795	11.36
474.15	11.29
474.504	11.27
474.859	10.98
475.213	11.1
475.567	11.05
475.921	11.15
476.275	11.24
476.63	11.3
476.984	11.4
477.338	11.29
477.692	11.5
478.045	11.41
478.399	11.31
478.753	11.37
479.107	11.34
479.461	11.34
479.814	11.4
480.168	11.41
480.521	11.45
480.875	11.38
481.228	11.52
481.582	11.49
481.935	11.34
482.289	11.54
482.642	11.6
482.995	11.44
483.348	11.39
483.701	11.56
484.055	11.38
484.408	11.43
484.761	11.3
485.114	11.17
485.466	11.01
485.819	10.88
486.172	10.93
486.525	11.01
486.878	11.2
487.23	11.34
487.583	11.35
487.936	11.41
488.288	11.46
488.641	11.45
488.993	11.33
489.345	11.23
489.698	11.24
490.05	11.33
490.402	11.32
490.754	11.51
491.107	11.53
491.459	11.72
491.811	11.68
492.163	11.86
492.515	11.9
492.866	11.73
493.218	11.6
493.57	11.52
493.922	11.58
494.274	11.58
494.625	11.8
494.977	11.95
495.328	12.02
495.68	12.19
496.031	12.17
496.383	12.3
496.734	12.25
497.086	12.4
497.437	12.38
497.788	12.32
498.139	12.2
498.49	12.32
498.842	12.28
499.193	12.28
499.544	12.2
499.894	12.26
500.245	12.41
500.596	12.42
500.947	12.29
501.298	12.4
501.648	12.54
501.999	12.68
502.35	12.6
502.7	12.57
503.051	12.64
503.401	12.65
503.752	12.69
504.102	12.48
504.452	12.7
504.803	12.78
505.153	12.64
505.503	12.66
505.853	12.71
506.203	12.71
506.553	12.85
506.903	12.88
507.253	12.87
507.603	12.85
507.953	12.96
508.303	13.08
508.652	12.92
509.002	12.97
509.352	13.08
509.701	12.84
510.051	12.87
510.4	12.84
510.75	12.94
511.099	12.93
511.449	12.87
511.798	13.05
512.147	13.1
512.496	12.84
512.846	13.02
513.195	13.16
513.544	13.06
513.893	13.12
514.242	13.18
514.591	13.09
514.939	13.25
515.288	13.36
515.637	13.29
515.986	13.19
516.334	13.32
516.683	13.47
517.032	13.42
517.38	13.35
517.729	13.59
518.077	13.43
518.426	13.33
518.774	13.46
519.122	13.45
519.47	13.42
519.819	13.46
520.167	13.26
520.515	13.25
520.863	13.17
521.211	13.28
521.559	13.47
521.907	13.43
522.255	13.48
522.602	13.61
522.95	13.59
523.298	13.79
523.645	13.72
523.993	13.81
524.341	13.72
524.688	13.71
525.036	13.89
525.383	13.96
525.73	13.89
526.078	13.87
526.425	13.9
526.772	13.69
527.119	13.79
527.466	13.61
527.814	13.57
528.161	13.64
528.508	13.7
528.854	13.72
529.201	13.76
529.548	13.74
529.895	13.59
530.242	13.44
530.588	13.37
530.935	13.4
531.282	13.53
531.628	13.53
531.975	13.85
532.321	13.86
532.667	13.9
533.014	14.03
533.36	14.17
533.706	14.28
534.052	14.12
534.399	14.08
534.745	14.01
535.091	13.88
535.437	13.82
535.783	13.89
536.129	14.1
536.474	14.23
536.82	14.3
537.166	14.3
537.512	14.45
537.857	14.42
538.203	14.29
538.549	14.14
538.894	14.31
539.239	14.44
539.585	14.33
539.93	14.49
540.276	14.6
540.621	14.64
540.966	14.78
541.311	14.68
541.656	14.88
542.001	14.81
542.346	14.61
542.691	14.51
543.036	14.26
543.381	14.3
543.726	14.33
544.071	14.34
544.415	14.58
544.76	14.63
545.105	14.7
545.449	14.79
545.794	14.82
546.138	14.93
546.483	14.94
546.827	15.04
547.171	15.08
547.516	15.22
547.86	15.19
548.204	15.11
548.548	15.19
548.892	15.18
549.236	15.19
549.58	15.23
549.924	15.34
550.268	15.53
550.612	15.34
550.956	15.34
551.3	15.43
551.643	15.57
551.987	15.67
552.33	15.73
552.674	15.8
553.017	15.78
553.361	15.9
553.704	15.73
554.048	15.75
554.391	15.64
554.734	15.8
555.077	15.75
555.42	15.78
555.764	15.92
556.107	15.83
556.45	15.79
556.793	16.2
557.135	15.97
557.478	15.91
557.821	16.09
558.164	16.17
558.507	16.03
558.849	16.18
559.192	16.33
559.534	16.09
559.877	16.24
560.219	16.23
560.562	16.13
560.904	16.13
561.246	16.24
561.589	16.39
561.931	16.27
562.273	16.49
562.615	16.21
562.957	16.45
563.299	16.47
563.641	16.49
563.983	16.53
564.325	16.47
564.667	16.51
565.008	16.5
565.35	16.57
565.692	16.75
566.033	16.73
566.375	16.63
566.716	16.65
567.058	16.61
567.399	16.73
567.741	16.79
568.082	16.8
568.423	16.83
568.764	16.67
569.105	16.74
569.447	16.87
569.788	16.84
570.129	16.92
570.47	16.95
570.811	17.07
571.151	16.94
571.492	17.06
571.833	16.98
572.174	17.22
572.514	17
572.855	16.94
573.195	16.87
573.536	17.07
573.876	16.88
574.217	16.92
574.557	16.79
574.898	17.16
575.238	17.23
575.578	17.29
575.918	17.23
576.258	17.24
576.598	17.31
576.938	17.18
577.278	17.02
577.618	17.24
577.958	17.2
578.298	17.35
578.638	17.34
578.977	17.5
579.317	17.58
579.657	17.46
579.996	17.52
580.336	17.43
580.675	17.55
581.014	17.92
581.354	17.72
581.693	17.79
582.032	17.82
582.372	17.79
582.711	18.03
583.05	17.91
583.389	17.61
583.728	17.97
584.067	18.03
584.406	17.9
584.745	18.14
585.083	17.95
585.422	18.17
585.761	17.91
586.1	18.12
586.438	17.93
586.777	18.06
587.115	18
587.454	18.36
587.792	18.54
588.13	18.19
588.469	18.02
588.807	18.37
589.145	18.35
589.483	18.08
589.821	18.42
590.159	18.45
590.497	18.55
590.835	18.66
591.173	18.36
591.511	18.55
591.849	18.51
592.187	18.43
592.524	18.45
592.862	18.46
593.2	18.53
593.537	18.55
593.875	18.42
594.212	18.52
594.55	18.53
594.887	18.55
595.224	18.69
595.561	18.51
595.899	18.65
596.236	18.85
596.573	18.86
596.91	18.93
597.247	18.72
597.584	18.87
597.921	19.02
598.258	18.72
598.594	18.49
598.931	18.78
599.268	18.85
599.604	18.81
599.941	18.9
600.277	18.75
600.614	19.03
600.95	19.35
601.287	19.37
601.623	19.09
601.959	19.1
602.296	19.26
602.632	19.36
602.968	19.37
603.304	19.27
603.64	19.18
603.976	18.95
604.312	19.4
604.648	19.38
604.984	19.25
605.319	19.08
605.655	19.31
605.991	19.39
606.326	19.3
606.662	19.02
606.998	19.16
607.333	19.23
607.668	19.43
608.004	19.43
608.339	19.41
608.674	19.77
609.01	19.69
609.345	19.9
609.68	19.67
610.015	19.43
610.35	19.81
610.685	19.82
611.02	19.85
611.355	19.65
611.689	19.76
612.024	19.8
612.359	19.71
612.694	19.62
613.028	19.98
613.363	20.08
613.697	20
614.032	19.86
614.366	19.96
614.7	19.87
615.035	20.26
615.369	20.13
615.703	20.41
616.037	19.97
616.371	20.02
616.705	20.33
617.039	20.12
617.373	20.47
617.707	20.53
618.041	20.73
618.375	19.95
618.709	20.32
619.042	20.24
619.376	20.31
619.71	20.16
620.043	20.92
620.377	20.77
620.71	20.61
621.043	20.26
621.377	20.6
621.71	20.54
622.043	20.5
622.376	20.64
622.709	20.45
623.043	20.67
623.376	21.01
623.709	20.6
624.041	20.64
624.374	20.81
624.707	20.36
625.04	20.59
625.373	20.85
625.705	20.77
626.038	20.72
626.37	21.04
626.703	21.12
627.035	20.68
627.368	21.18
627.7	20.81
628.032	20.75
628.365	21.33
628.697	20.9
629.029	20.72
629.361	20.95
629.693	21.05
630.025	20.98
630.357	21.16
630.689	21.21
631.021	21.2
631.353	21.21
631.684	21.1
632.016	21.45
632.348	21.14
632.679	21.05
633.011	21.43
633.342	21.55
633.674	21.2
634.005	21.29
634.336	21.41
634.668	21.34
634.999	21.6
635.33	21.34
635.661	21.72
635.992	21.29
636.323	21.42
636.654	21.26
636.985	21.9
637.316	21.52
637.647	21.63
637.977	21.71
638.308	21.66
638.639	21.85
638.969	21.09
639.3	22.25
639.63	21.67
639.961	21.45
640.291	22.27
640.622	21.83
640.952	21.69
641.282	22.12
641.612	22.25
641.943	21.84
642.273	21.89
642.603	22.45
642.933	21.98
643.263	21.44
643.592	21.71
643.922	22.33
644.252	21.89
644.582	22.27
644.911	22.33
645.241	21.71
645.571	22
645.9	21.64
646.23	21.93
646.559	22.56
646.888	21.93
647.218	22.29
647.547	22.28
647.876	22.36
648.205	22.08
648.534	22.19
648.863	22.59
649.192	22.83
649.521	22.08
649.85	22.72
650.179	22.22
650.508	22.66
650.837	22.73
651.165	22.48
651.494	22.6
651.822	23.07
652.151	22.33
652.479	22.56
652.808	22.28
653.136	22.46
653.465	22.8
653.793	22.63
654.121	22.71
654.449	22.54
654.777	22.57
655.105	22.86
655.433	22.72
655.761	22.42
656.089	22.95
656.417	22.34
656.745	22.85
657.073	22.88
657.4	22.72
657.728	22.96
658.056	22.9
658.383	22.86
658.711	22.72
659.038	22.97
659.365	23.81
659.693	23.06
660.02	23.07
660.347	22.57
660.674	23.15
661.001	22.94
661.329	22.66
661.656	23.2
661.982	22.53
662.309	23.25
662.636	23.45
662.963	22.78
663.29	23.08
663.616	23.28
663.943	23.19
664.27	23.73
664.596	23.19
664.923	24.09
665.249	23.04
665.576	23.86
665.902	22.96
666.228	22.75
666.554	24.19
666.881	23.25
667.207	23.55
667.533	23.57
667.859	23.68
668.185	23.33
668.511	23.76
668.837	22.91
669.162	23.88
669.488	23.59
669.814	23.97
670.139	23.31
670.465	23.82
670.791	23.22
671.116	23.55
671.442	23.68
671.767	23.59
672.092	23.63
672.418	23.71
672.743	24.09
673.068	24.47
673.393	23.66
673.718	23.71
674.043	23.86
674.368	23.14
674.693	23.52
675.018	24.3
675.343	23.93
675.667	23.96
675.992	24.52
676.317	24.21
676.641	24.34
676.966	23.46
677.29	24.25
677.615	24
677.939	23.72
678.264	24.55
678.588	24.31
678.912	24.23
679.236	24.81
679.56	24.39
679.885	24.17
680.209	24.23
680.532	24.13
680.856	24.2
681.18	23.61
681.504	24.41
681.828	23.82
682.152	24.5
682.475	24.47
682.799	24.26
683.122	24.5
683.446	24.42
683.769	24.35
684.093	24.96
684.416	24.1
684.739	24.03
685.062	25.02
685.386	24.91
685.709	25.08
686.032	24.77
686.355	24.82
686.678	24.83
687.001	24.8
687.324	24.39
687.646	24.33
687.969	24.99
688.292	25.21
688.614	24.69
688.937	24.75
689.26	24.78
689.582	24.78
689.904	25.19
690.227	24.33
690.549	24.66
690.871	25.26
691.194	24.77
691.516	24.7
691.838	24.13
692.16	25.21
692.482	24.3
692.804	24.27
693.126	24.6
693.448	25.54
693.769	25.35
694.091	25.69
694.413	24.39
694.735	24.89
695.056	25.2
695.378	25.79
695.699	25.8
696.021	25.68
696.342	25.43
696.663	25.64
696.984	25.45
697.306	25.03
697.627	24.81
697.948	24.28
698.269	25.5
698.59	25.23
698.911	25.64
699.232	24.38
699.553	25.49
699.873	24.86
700.194	25.63
700.515	25.28
700.835	25.11
701.156	25.12
701.477	25.32
701.797	25.36
702.117	25.34
702.438	25.46
702.758	25.61
703.078	25.72
703.398	26.16
703.719	25.21
704.039	25.8
704.359	26.98
704.679	25.16
704.999	25.35
705.319	25.99
705.638	26.76
705.958	25.2
706.278	24.89
706.597	25.94
706.917	25.47
707.237	26.27
707.556	25.65
707.876	25.81
708.195	26.41
708.514	25.76
708.834	26.24
709.153	25.48
709.472	26.35
709.791	25.72
710.11	25.27
710.429	25.96
710.748	25.6
711.067	26.98
711.386	26.13
711.705	25.69
712.023	26.53
712.342	26.55
712.661	25.59
712.979	26.79
713.298	26.67
713.616	25.85
713.935	25.61
714.253	26.75
714.572	27.01
714.89	26.51
715.208	27.02
715.526	25.22
715.844	26.53
716.162	26.24
716.48	26.82
716.798	26.74
717.116	25.71
717.434	26.03
717.752	27.17
718.069	26.06
718.387	25.51
718.705	26.52
719.022	26.47
719.34	26.95
719.657	26.14
719.975	25.78
720.292	27.23
720.609	26.68
720.927	25.29
721.244	26.37
721.561	26.27
721.878	26.35
722.195	26.82
722.512	26.06
722.829	28.12
723.146	25.66
723.463	27.94
723.779	25.86
724.096	26.65
724.413	26.42
724.729	27.31
725.046	26.31
725.362	27.69
725.679	27.38
725.995	27.35
726.311	27.3
726.628	27.27
726.944	26.2
727.26	26.99
727.576	27.42
727.892	27.16
728.208	27.13
728.524	26.58
728.84	26.54
729.156	27.02
729.472	26.83
729.787	27.17
730.103	28.4
730.419	27.59
730.734	26.72
731.05	27.11
731.365	26.15
731.681	26.13
731.996	27.93
732.311	27.36
732.626	25.85
732.942	27.04
733.257	27.73
733.572	28.05
733.887	28.75
734.202	27.17
734.517	26.75
734.832	27.38
735.146	26.87
735.461	27.75
735.776	27.64
736.091	27.35
736.405	26.17
736.72	25.62
737.034	27.33
737.349	28.02
737.663	26.62
737.977	27.29
738.292	27.71
738.606	28.79
738.92	26.49
739.234	27.08
739.548	30.15
739.862	25.8
740.176	27.92
740.49	26.44
740.804	26.64
741.117	28.06
741.431	27.39
741.745	27.57
742.058	28.6
742.372	25.83
742.685	26.84
742.999	26.51
743.312	27.4
743.626	26.69
743.939	28.75
744.252	26.75
744.565	25.89
744.878	28.41
745.191	29.59
745.505	28.12
745.817	26.63
746.13	30.15
746.443	27.67
746.756	26.24
747.069	28.01
747.381	27.76
747.694	27.61
748.007	26.5
748.319	26.96
748.632	27.51
748.944	29.5
749.256	29.06
749.569	26.55
749.881	26.64
750.193	30.04
750.505	28.38
750.817	29.35
751.129	29.36
751.441	28.34
751.753	27.78
752.065	28.59
752.377	27.76
752.689	26.7
753	28.86
753.312	28.04
753.624	28.06
753.935	27.84
754.247	27.4
754.558	27.74
754.869	27.76
755.181	29.2
755.492	28.72
755.803	29.86
756.114	29.74
756.425	28.3
756.736	29.87
757.047	29.44
757.358	28.62
757.669	27.64
757.98	27.23
758.291	30.02
758.601	29.77
758.912	28.99
759.223	30.31
759.533	27.99
759.844	26.84
760.154	30.75
760.464	28.66
760.775	28.63
761.085	26.94
761.395	27.81
761.705	29.08
762.016	28.2
762.326	29.15
762.636	29.9
762.945	28.89
763.255	28.89
763.565	28.86
763.875	29.01
764.185	29.26
764.494	27.21
764.804	30.89
765.113	28.86
765.423	29.15
765.732	28.9
766.042	28.75
766.351	29.52
766.66	28.81
766.97	28.41
767.279	29.23
767.588	29.81
767.897	29.58
768.206	31.18
768.515	28.23
768.824	28.32
769.133	29.55
769.441	29.35
769.75	30.08
770.059	27.47
770.367	29.48
770.676	28.43
770.984	30.72
771.293	28.88
771.601	29.22
771.91	30.66
772.218	28.78
772.526	29.07
772.834	29.67
773.142	28.32
773.45	27.98
773.758	30.5
774.066	29.25
774.374	28.89
774.682	29.12
774.99	29.5
775.298	28.06
775.605	30.43
775.913	26.36
776.22	28.96
776.528	32.16
776.835	28.94
777.143	30.34
777.45	29.29
777.757	28.38
778.065	30.56
778.372	28.85
778.679	28.98
778.986	26.7
779.293	29.11
779.6	31.07
779.907	29.23
780.214	32.02
780.52	30.22
780.827	30.01
781.134	28.87
781.44	28.18
781.747	31.77
782.053	29.29
782.36	31.02
782.666	28.46
782.973	29.55
783.279	27.39
783.585	28.93
783.891	31.54
784.197	26.25
784.503	29.29
784.809	32.42
785.115	30.22
785.421	30.31
785.727	32.13
786.033	30.33
786.339	30.5
786.644	30.51
786.95	30.59
787.255	29.16
787.561	28.96
787.866	31.22
788.172	28.24
788.477	29.91
788.782	27.42
789.088	30.2
789.393	29.65
789.698	24.74
790.003	27.83
790.308	31.76
790.613	26.79
790.918	30.65
791.223	30.42
791.527	29.29
791.832	32.19
792.137	32.54
792.441	33.05
792.746	28.95
793.05	31.95
793.355	31.95
793.659	30.26
793.963	30.94
794.268	31.55
794.572	30.97
794.876	28.87
795.18	29.02
795.484	28.92
795.788	28.61
796.092	27.35
796.396	32.46
796.7	31.84
797.004	31.23
797.307	29.29
797.611	28.86
797.915	33.63
798.218	27.23
798.522	30.24
798.825	30.32
799.128	28.06
799.432	30.19
799.735	34.98
800.038	29.99
800.341	29.57
800.644	34.11
800.947	30.9
801.25	31.72
801.553	30.18
801.856	28.36
802.159	30.44
802.462	31.2
802.764	33.7
803.067	27.81
803.37	26.02
803.672	32.51
803.975	30.88
804.277	35.81
804.579	34.95
804.882	29.5
805.184	27.9
805.486	28.28
805.788	31.03
806.09	32.28
806.392	28.49
806.694	27.97
806.996	27.87
807.298	28.21
807.6	27.72
807.902	32.09
808.203	27.12
808.505	30.19
808.807	26.39
809.108	33.75
809.409	30.15
809.711	26.13
810.012	33.68
810.313	33.69
810.615	30.35
810.916	30.85
811.217	33.69
811.518	27.22
811.819	28.81
812.12	28.38
812.421	29.44
812.722	31.94
813.023	27.12
813.323	31.55
813.624	33.43
813.925	31.49
814.225	32.45
814.526	33.25
814.826	27.75
815.126	28.99
815.427	24.94
815.727	29.37
816.027	27.59
816.327	29.21
816.627	35.14
816.927	28.78
817.227	34
817.527	29.74
817.827	29.23
818.127	34.12
818.427	26.99
818.727	38.72
819.026	29.14
819.326	26.53
819.625	27.46
819.925	30.74
820.224	28.48
820.524	36.95
820.823	27.39
821.122	35.61
821.421	26.27
821.72	36.72
822.019	29.48
822.318	35.74
822.617	27.57
822.916	31.87
823.215	32.95
823.514	28.77
823.813	32.56
824.111	31.66
824.41	30.01
824.709	32.9
825.007	32.62
825.306	31.56
825.604	33.44
825.902	32.03
826.201	33.17
826.499	33.37
826.797	32.98
827.095	33.91
827.393	33
827.691	31.79
827.989	31.3
828.287	32.99
828.585	33.56
828.882	31.43
829.18	31.71
829.478	33.46
829.775	32.98
830.073	32.42
830.37	33.04
830.668	32.17
830.965	31.81
831.263	34.21
831.56	32.84
831.857	31.38
832.154	33.53
832.451	32.32
832.748	30.52
833.045	33.37
833.342	36.85
833.639	36.44
833.936	32.83
834.232	33.34
834.529	32.11
834.826	30.71
835.122	34.24
835.419	36.81
835.715	29.65
836.012	34.31
836.308	31.48
836.604	33.22
836.901	33.04
837.197	34.02
837.493	29.38
837.789	31.97
838.085	32.04
838.381	33.28
838.677	30.75
838.972	30.12
839.268	31.95
839.564	30.48
839.86	31.41
840.155	34.57
840.451	37.8
840.746	33.38
841.042	24.97
841.337	33.2
841.632	30.91
841.928	19.51
842.223	30.44
842.518	31.41
842.813	39.52
843.108	37.7
843.403	32.7
843.698	29.56
843.993	28.55
844.287	32.69
844.582	27.48
844.877	40.35
845.171	37.11
845.466	33.99
845.761	28.44
846.055	30.17
846.349	30.03
846.644	36.6
846.938	27.98
847.232	34.79
847.526	24.05
847.82	27.19
848.114	44.28
848.408	31.66
848.702	27.13
848.996	30.12
849.29	41.03
849.584	19.87
849.877	23.61
850.171	39.22
850.465	36.63
850.758	33.15
851.052	35.09
851.345	47.03
851.638	17.26
851.932	31.27
852.225	26.31
852.518	30.65
852.811	22.15
853.104	39.6
853.397	10.16
853.69	25.88
853.983	33.67
854.276	24.49
854.569	13.75
854.861	18.55
855.154	24.2
855.447	18.87
855.739	26.01
856.032	27.92
856.324	39.75
856.616	42.35
856.909	40.45
857.201	18.88
857.493	43.99
857.785	40.43
858.077	28.33
858.369	39.94
858.661	17.97
858.953	21.97
859.245	9.85
859.537	42.1
859.829	42.08
860.12	17.89
860.412	34.12
860.703	-3.44
860.995	18.15
861.286	33.06
861.578	48.12
861.869	35.7
862.16	40.2
862.452	16.96
862.743	27.67
863.034	41.75
863.325	39.56
863.616	28.77
863.907	16.31
864.198	37.06
864.488	-1.85
864.779	44.46
865.07	28.25
865.36	9.19
865.651	34.02
865.941	18.45
866.232	38.21
866.522	37.74
866.813	33.01
867.103	44.3
867.393	12.75
867.683	29.15
867.973	25.2
868.263	22.28
868.553	23.6
868.843	40.9
869.133	35.53
869.423	17.73
869.713	43.62
870.002	28.78
870.292	21.56
870.582	38.65
870.871	3.57
871.161	34.52
871.45	21.07
871.739	44.49
872.029	30.14
872.318	23.24
872.607	18.83
872.896	49.33
873.185	23.7
873.474	24.91
873.763	11.23
874.052	26.78
874.341	39.24
874.63	51.49
874.918	58.85
875.207	40.35
875.496	12.57
875.784	39.46
876.073	12.24
876.361	33.08
876.649	8.94
876.938	28.55
877.226	46.52
877.514	32.49
877.802	30.76
878.09	31.99
878.378	59.21
878.666	32.03
878.954	23.72
879.242	29.75
879.53	20.88
879.817	28.56
880.105	-2.36
880.392	38.89
880.68	36.99
880.967	52.1
881.255	40.92
881.542	24.56
881.83	-0.87
882.117	37.02
882.404	50.98
882.691	32.21
882.978	39.45
883.265	30.7
883.552	26.84
883.839	35.54
884.126	25.58
884.413	28.96
884.699	28.74
884.986	35.32
885.273	33.76
885.559	33.76
885.846	33.76
