Data from 21-12_forehead_Reflection__0__85.txt Node

Date: Thu Dec 15 17:06:00 CST 2022
User: ToomeyLab
Spectrometer: FLMS14357
Trigger mode: 0
Integration Time (sec): 1.000000E-2
Scans to average: 100
Electric dark correction enabled: true
Nonlinearity correction enabled: false
Boxcar width: 0
XAxis mode: Wavelengths
Number of Pixels in Spectrum: 2048
>>>>>Begin Spectral Data<<<<<
189.047	-52.41
189.435	-52.41
189.823	-52.41
190.211	395.5
190.599	161.54
190.987	188.17
191.375	97.25
191.763	102.02
192.151	105.81
192.538	-142.45
192.926	-124.38
193.314	10.65
193.702	-33.94
194.089	-4.65
194.477	499.62
194.864	85.69
195.252	99.58
195.639	175.54
196.027	52.34
196.414	-125.13
196.801	-46.86
197.189	512.81
197.576	15.19
197.963	7603.16
198.351	60.02
198.738	0.93
199.125	-24.05
199.512	11.57
199.899	-52.35
200.286	-32.27
200.673	50.47
201.06	-13.13
201.447	-5.21
201.833	21.76
202.22	-30.03
202.607	27.14
202.994	13.95
203.38	45.19
203.767	21.47
204.154	8.08
204.54	34.27
204.927	0.61
205.313	5.87
205.699	42.85
206.086	21.86
206.472	13.01
206.858	33.01
207.245	3.18
207.631	26.2
208.017	40.94
208.403	-2.98
208.789	4.8
209.175	9.1
209.561	-67.5
209.947	-16.16
210.333	6.03
210.719	32.75
211.105	59.89
211.491	1.87
211.876	-12.41
212.262	39.52
212.648	24.09
213.034	8.22
213.419	-7.24
213.805	27.68
214.19	-14.21
214.576	0.56
214.961	14.43
215.346	4
215.732	7.64
216.117	10.21
216.502	9.82
216.888	22.96
217.273	3.92
217.658	24.2
218.043	3.28
218.428	-14.67
218.813	24.17
219.198	-22.76
219.583	2.34
219.968	28.58
220.353	-22.79
220.738	-2.12
221.122	-6.55
221.507	-15.06
221.892	-8.03
222.276	-7.77
222.661	7.4
223.046	-18.07
223.43	16.39
223.815	4.57
224.199	-3.67
224.583	-0.57
224.968	-0.05
225.352	-11
225.736	8.96
226.121	8.73
226.505	0.42
226.889	7.7
227.273	0.91
227.657	2.41
228.041	0.29
228.425	-2.52
228.809	2.53
229.193	3.06
229.577	0.48
229.961	-0.09
230.344	2.72
230.728	2.09
231.112	2.15
231.495	1.53
231.879	1.76
232.263	2.41
232.646	0.96
233.03	4.84
233.413	-0.12
233.797	0.14
234.18	2.75
234.563	3.48
234.946	1.85
235.33	2.01
235.713	1.85
236.096	3.25
236.479	3.34
236.862	1.92
237.245	1.68
237.628	2.77
238.011	3.11
238.394	1.88
238.777	1.34
239.16	3.3
239.543	3.76
239.925	1.36
240.308	2.11
240.691	1.46
241.073	1.22
241.456	2.3
241.838	1.94
242.221	2.27
242.603	2.42
242.986	1.25
243.368	2.39
243.75	2.39
244.133	2.53
244.515	1.86
244.897	2.31
245.279	2.17
245.661	1.99
246.043	2.47
246.425	1.67
246.807	2.76
247.189	1.98
247.571	2.18
247.953	2.16
248.335	2.19
248.717	2.34
249.098	2.49
249.48	2.14
249.862	2.41
250.243	2.3
250.625	2.24
251.006	3.17
251.388	2.2
251.769	2.45
252.151	2.89
252.532	1.92
252.913	1.32
253.295	2.7
253.676	2.24
254.057	1.84
254.438	2.03
254.819	2.41
255.2	2.58
255.581	2.98
255.962	2.95
256.343	2.24
256.724	2.86
257.105	1.9
257.486	0.8
257.867	1.81
258.247	3.05
258.628	2.45
259.009	1.88
259.389	1.32
259.77	1.84
260.15	3.11
260.531	2.69
260.911	2
261.292	2.25
261.672	2.13
262.052	2.23
262.432	1.96
262.813	2.52
263.193	2.72
263.573	2.39
263.953	1.95
264.333	1.98
264.713	2.51
265.093	1.88
265.473	1.15
265.853	2.37
266.233	2.05
266.612	1.45
266.992	2.3
267.372	2.34
267.752	2.6
268.131	2.22
268.511	2.05
268.89	2.87
269.27	1.84
269.649	2.04
270.029	1.69
270.408	1.88
270.787	2.46
271.167	2.1
271.546	2.76
271.925	2.82
272.304	2.03
272.683	1.86
273.062	2.21
273.441	2.03
273.82	2.05
274.199	2.19
274.578	2.24
274.957	2.08
275.336	2.46
275.715	2.09
276.093	1.23
276.472	2.09
276.851	1.98
277.229	2.42
277.608	1.97
277.986	1.97
278.365	2.52
278.743	2.35
279.122	1.31
279.5	2.14
279.878	2.18
280.257	2.09
280.635	2.64
281.013	1.89
281.391	1.9
281.769	2.47
282.147	2.33
282.525	2
282.903	1.92
283.281	2.54
283.659	2.05
284.037	2.49
284.415	1.72
284.792	1.86
285.17	1.99
285.548	2.2
285.925	1.91
286.303	2.41
286.68	2.48
287.058	2.25
287.435	2.13
287.813	2.28
288.19	1.6
288.567	2.16
288.945	1.94
289.322	2.65
289.699	1.95
290.076	2.12
290.453	2.52
290.83	2.07
291.207	1.95
291.584	2.34
291.961	2.56
292.338	2.25
292.715	1.99
293.092	2.66
293.469	2.32
293.845	2.12
294.222	2.57
294.599	1.81
294.975	2.05
295.352	2.53
295.728	2.2
296.105	2.09
296.481	2.82
296.858	2.6
297.234	2.19
297.61	2.51
297.986	3.15
298.363	2.52
298.739	2.89
299.115	2.78
299.491	2.85
299.867	2.23
300.243	2.36
300.619	2.39
300.995	2.68
301.371	2.9
301.746	2.93
302.122	2.7
302.498	2.79
302.874	3.03
303.249	2.87
303.625	2.75
304	3.04
304.376	3.46
304.751	2.64
305.127	2.78
305.502	2.94
305.878	2.95
306.253	2.72
306.628	3.67
307.003	3.26
307.378	3.22
307.754	3.31
308.129	3.15
308.504	3.14
308.879	3.15
309.254	3.5
309.629	3.58
310.003	3.14
310.378	3.77
310.753	3.57
311.128	3.11
311.502	3.23
311.877	3.62
312.252	3.51
312.626	3.72
313.001	3.44
313.375	3.52
313.75	3.43
314.124	3.81
314.498	3.76
314.873	3.53
315.247	3.22
315.621	3.38
315.995	3.55
316.369	3.43
316.743	3.75
317.117	3.91
317.491	3.86
317.865	3.88
318.239	4.14
318.613	4.02
318.987	3.2
319.361	3.69
319.734	3.77
320.108	3.73
320.482	3.79
320.855	3.79
321.229	3.82
321.602	4.07
321.976	3.59
322.349	4.75
322.723	3.24
323.096	4.15
323.469	3.86
323.843	3.81
324.216	4.3
324.589	4.53
324.962	3.7
325.335	3.99
325.708	4.56
326.081	3.95
326.454	4.45
326.827	4.5
327.2	3.87
327.573	4.61
327.945	3.99
328.318	3.78
328.691	4.48
329.063	4
329.436	3.68
329.809	4.59
330.181	5.45
330.553	4.64
330.926	4.49
331.298	4.19
331.671	4.56
332.043	3.88
332.415	4.39
332.787	4.65
333.159	4.63
333.532	4.85
333.904	4.16
334.276	4.8
334.648	4.19
335.02	4.18
335.391	4.25
335.763	4.57
336.135	4.9
336.507	4.16
336.879	4.8
337.25	4.64
337.622	4.78
337.993	4.12
338.365	4.3
338.736	4.42
339.108	4.67
339.479	4.83
339.851	4.57
340.222	4.91
340.593	4.92
340.964	4.6
341.336	4.55
341.707	5.02
342.078	4.78
342.449	5.12
342.82	4.88
343.191	5.16
343.562	4.75
343.933	4.69
344.303	5
344.674	4.75
345.045	4.85
345.416	5.07
345.786	4.52
346.157	5.13
346.527	4.92
346.898	4.64
347.268	4.67
347.639	4.78
348.009	5.09
348.38	4.88
348.75	5.14
349.12	4.82
349.49	5.22
349.861	4.83
350.231	5.22
350.601	4.79
350.971	4.77
351.341	5.1
351.711	4.75
352.081	5.06
352.45	4.8
352.82	4.92
353.19	4.78
353.56	5.15
353.929	4.84
354.299	5.29
354.669	5.53
355.038	5.69
355.408	5.18
355.777	5.59
356.147	5.54
356.516	5.27
356.885	5.06
357.254	5.15
357.624	4.9
357.993	5.4
358.362	5.53
358.731	5.48
359.1	5.4
359.469	5.28
359.838	5.44
360.207	5.6
360.576	5.41
360.945	5.47
361.314	5.65
361.682	5.26
362.051	5.45
362.42	5.43
362.788	5.67
363.157	5.45
363.525	5.46
363.894	5.19
364.262	5.48
364.631	5.64
364.999	5.54
365.367	5.05
365.735	5.46
366.104	5.58
366.472	5.56
366.84	5.78
367.208	6.02
367.576	6.13
367.944	5.77
368.312	5.66
368.68	5.95
369.048	5.76
369.416	5.67
369.783	5.5
370.151	6.14
370.519	6.16
370.886	6.16
371.254	6.08
371.621	6.17
371.989	6.07
372.356	5.97
372.724	5.9
373.091	5.63
373.458	5.74
373.826	6.05
374.193	5.92
374.56	6.12
374.927	5.91
375.294	6.1
375.661	6.22
376.028	6.07
376.395	6.22
376.762	5.81
377.129	6.01
377.496	6.21
377.863	5.99
378.229	6.21
378.596	6.3
378.963	6.55
379.329	6.3
379.696	5.9
380.062	6.17
380.429	5.92
380.795	6.13
381.161	5.66
381.528	6.11
381.894	6.12
382.26	6.36
382.626	6.22
382.993	6.45
383.359	6.03
383.725	6.11
384.091	6.35
384.457	5.94
384.823	6.2
385.188	6.43
385.554	6.1
385.92	6.15
386.286	6.41
386.651	6.25
387.017	6.4
387.383	6.3
387.748	6.23
388.114	6.3
388.479	6.1
388.845	6.02
389.21	6.63
389.575	6.49
389.94	6.47
390.306	6.35
390.671	6.4
391.036	6.31
391.401	6.48
391.766	6.39
392.131	6.73
392.496	6.34
392.861	6.54
393.226	6.3
393.591	6.49
393.956	6.78
394.32	6.35
394.685	6.49
395.05	6.42
395.414	6.38
395.779	6.63
396.143	6.35
396.508	6.5
396.872	6.32
397.236	6.72
397.601	6.42
397.965	6.38
398.329	6.74
398.694	6.33
399.058	6.57
399.422	6.47
399.786	6.55
400.15	6.59
400.514	6.48
400.878	6.47
401.242	6.65
401.605	6.43
401.969	6.46
402.333	6.39
402.697	6.57
403.06	6.64
403.424	6.51
403.787	6.49
404.151	6.55
404.514	6.51
404.878	6.48
405.241	6.63
405.604	6.44
405.968	6.4
406.331	6.51
406.694	6.43
407.057	6.33
407.42	6.44
407.783	6.57
408.146	6.42
408.509	6.63
408.872	6.41
409.235	6.56
409.598	6.52
409.961	6.49
410.323	6.42
410.686	6.5
411.049	6.56
411.411	6.52
411.774	6.4
412.136	6.42
412.499	6.67
412.861	6.34
413.223	6.54
413.586	6.35
413.948	6.65
414.31	6.64
414.672	6.52
415.035	6.71
415.397	6.6
415.759	6.21
416.121	6.69
416.483	6.42
416.845	6.42
417.206	6.67
417.568	6.45
417.93	6.63
418.292	6.48
418.653	6.46
419.015	6.63
419.377	6.59
419.738	6.58
420.1	6.62
420.461	6.48
420.822	6.67
421.184	6.63
421.545	6.72
421.906	6.52
422.267	6.56
422.629	6.57
422.99	6.58
423.351	6.67
423.712	6.77
424.073	6.8
424.434	6.92
424.795	6.67
425.155	6.67
425.516	6.8
425.877	6.86
426.238	6.84
426.598	6.94
426.959	7
427.32	6.96
427.68	6.92
428.041	7.11
428.401	7.07
428.761	7.25
429.122	7.14
429.482	7.15
429.842	7.34
430.202	7.43
430.563	7.37
430.923	7.27
431.283	7.58
431.643	7.64
432.003	7.45
432.363	7.52
432.722	7.32
433.082	7.29
433.442	7.64
433.802	7.5
434.161	7.64
434.521	7.66
434.881	7.63
435.24	7.57
435.6	7.78
435.959	7.74
436.319	7.59
436.678	7.96
437.037	7.66
437.396	7.76
437.756	7.8
438.115	7.85
438.474	8.09
438.833	7.93
439.192	7.87
439.551	7.94
439.91	8.02
440.269	7.97
440.628	8.03
440.987	7.95
441.345	8.08
441.704	8.04
442.063	7.97
442.421	8.08
442.78	8.2
443.138	8.05
443.497	8.1
443.855	8.26
444.214	8.05
444.572	8.35
444.93	8.19
445.288	8.21
445.647	8.15
446.005	8.32
446.363	8.24
446.721	8.39
447.079	8.29
447.437	8.34
447.795	8.34
448.153	8.25
448.51	8.23
448.868	8.3
449.226	8.44
449.584	8.45
449.941	8.43
450.299	8.49
450.656	8.56
451.014	8.61
451.371	8.66
451.729	8.73
452.086	8.68
452.443	8.71
452.801	8.83
453.158	8.94
453.515	8.6
453.872	8.83
454.229	8.75
454.586	8.65
454.943	8.98
455.3	8.83
455.657	8.78
456.014	8.87
456.371	9.03
456.727	9.22
457.084	9.13
457.441	9.05
457.797	9.04
458.154	9.15
458.51	9.06
458.867	9.13
459.223	9.07
459.58	9.19
459.936	9.03
460.292	8.97
460.648	9.03
461.005	9.03
461.361	9.04
461.717	8.97
462.073	9.07
462.429	9.15
462.785	9.41
463.141	9.24
463.496	9.36
463.852	9.47
464.208	9.62
464.564	9.4
464.919	9.56
465.275	9.41
465.631	9.63
465.986	9.5
466.342	9.44
466.697	9.51
467.052	9.68
467.408	9.74
467.763	9.68
468.118	9.37
468.473	9.46
468.829	9.62
469.184	9.76
469.539	9.58
469.894	9.67
470.249	9.69
470.603	9.78
470.958	9.76
471.313	9.86
471.668	9.81
472.023	9.75
472.377	9.81
472.732	9.92
473.086	9.85
473.441	9.75
473.795	10.04
474.15	9.9
474.504	9.82
474.859	9.7
475.213	10.12
475.567	9.83
475.921	10.24
476.275	10.11
476.63	9.91
476.984	9.87
477.338	10.08
477.692	9.96
478.045	10.11
478.399	9.95
478.753	10.07
479.107	10.09
479.461	10.16
479.814	10.26
480.168	10.15
480.521	10.12
480.875	10.23
481.228	10.16
481.582	10.13
481.935	10.21
482.289	10.1
482.642	10.26
482.995	10.18
483.348	10.14
483.701	10.12
484.055	10.04
484.408	10.03
484.761	9.88
485.114	9.66
485.466	9.6
485.819	9.68
486.172	9.75
486.525	9.92
486.878	9.96
487.23	10.04
487.583	10.2
487.936	10.2
488.288	10.04
488.641	10.02
488.993	9.93
489.345	9.95
489.698	9.99
490.05	10.02
490.402	10.12
490.754	10.22
491.107	10.24
491.459	10.41
491.811	10.45
492.163	10.42
492.515	10.31
492.866	10.18
493.218	10.15
493.57	10.26
493.922	10.36
494.274	10.51
494.625	10.72
494.977	10.72
495.328	10.73
495.68	10.69
496.031	10.79
496.383	10.77
496.734	10.8
497.086	10.96
497.437	10.9
497.788	11.01
498.139	10.89
498.49	10.78
498.842	10.82
499.193	10.9
499.544	10.83
499.894	10.95
500.245	11.07
500.596	11.1
500.947	11.07
501.298	11.02
501.648	11.11
501.999	11.15
502.35	11.04
502.7	11.34
503.051	11.12
503.401	11.18
503.752	11.2
504.102	11.18
504.452	11.18
504.803	11.29
505.153	11.35
505.503	11.31
505.853	11.35
506.203	11.47
506.553	11.27
506.903	11.32
507.253	11.34
507.603	11.38
507.953	11.38
508.303	11.39
508.652	11.34
509.002	11.52
509.352	11.45
509.701	11.11
510.051	11.43
510.4	11.48
510.75	11.34
511.099	11.23
511.449	11.42
511.798	11.33
512.147	11.42
512.496	11.46
512.846	11.55
513.195	11.48
513.544	11.47
513.893	11.48
514.242	11.5
514.591	11.53
514.939	11.62
515.288	11.67
515.637	11.74
515.986	11.82
516.334	11.79
516.683	11.71
517.032	11.71
517.38	11.63
517.729	11.61
518.077	11.61
518.426	11.65
518.774	11.58
519.122	11.75
519.47	11.69
519.819	11.68
520.167	11.52
520.515	11.53
520.863	11.6
521.211	11.63
521.559	11.77
521.907	11.89
522.255	11.78
522.602	11.81
522.95	11.99
523.298	12
523.645	12
523.993	11.96
524.341	12
524.688	11.89
525.036	11.94
525.383	12.02
525.73	11.93
526.078	12.13
526.425	11.92
526.772	11.74
527.119	11.83
527.466	11.85
527.814	11.79
528.161	11.94
528.508	11.89
528.854	11.88
529.201	11.76
529.548	11.59
529.895	11.4
530.242	11.41
530.588	11.45
530.935	11.58
531.282	11.67
531.628	11.82
531.975	11.85
532.321	11.99
532.667	12.06
533.014	12.03
533.36	12.01
533.706	11.97
534.052	11.99
534.399	11.93
534.745	11.84
535.091	11.7
535.437	11.92
535.783	11.94
536.129	12.05
536.474	12.06
536.82	12.31
537.166	12.29
537.512	12.18
537.857	12.3
538.203	12.1
538.549	12.14
538.894	12.13
539.239	12.3
539.585	12.48
539.93	12.61
540.276	12.47
540.621	12.56
540.966	12.47
541.311	12.64
541.656	12.4
542.001	12.38
542.346	12.25
542.691	12.01
543.036	12.11
543.381	12.15
543.726	12.25
544.071	12.32
544.415	12.4
544.76	12.41
545.105	12.47
545.449	12.52
545.794	12.58
546.138	12.75
546.483	12.77
546.827	12.67
547.171	12.78
547.516	12.82
547.86	12.8
548.204	12.68
548.548	12.81
548.892	12.76
549.236	12.84
549.58	12.92
549.924	13.04
550.268	13.22
550.612	13.3
550.956	13.16
551.3	13.25
551.643	13.23
551.987	13.33
552.33	13.34
552.674	13.28
553.017	13.32
553.361	13.38
553.704	13.22
554.048	13.09
554.391	13.21
554.734	13.03
555.077	13.22
555.42	13.3
555.764	13.34
556.107	13.29
556.45	13.39
556.793	13.59
557.135	13.54
557.478	13.66
557.821	13.57
558.164	13.69
558.507	13.4
558.849	13.64
559.192	13.51
559.534	13.6
559.877	13.53
560.219	13.73
560.562	13.64
560.904	13.63
561.246	13.52
561.589	13.71
561.931	13.67
562.273	13.72
562.615	13.59
562.957	13.59
563.299	13.68
563.641	13.85
563.983	13.52
564.325	13.67
564.667	13.71
565.008	13.61
565.35	13.69
565.692	13.68
566.033	13.86
566.375	13.96
566.716	13.91
567.058	13.95
567.399	13.81
567.741	13.89
568.082	13.74
568.423	13.74
568.764	13.8
569.105	13.8
569.447	13.93
569.788	13.94
570.129	14.06
570.47	13.99
570.811	13.93
571.151	13.98
571.492	14.11
571.833	13.95
572.174	14.09
572.514	14.24
572.855	14.25
573.195	13.79
573.536	14.09
573.876	14.05
574.217	14.13
574.557	13.94
574.898	14.11
575.238	14.25
575.578	14.25
575.918	14.21
576.258	14.33
576.598	14.09
576.938	14.2
577.278	14.18
577.618	14.32
577.958	14.36
578.298	14.33
578.638	14.31
578.977	14.44
579.317	14.62
579.657	14.55
579.996	14.61
580.336	14.58
580.675	14.66
581.014	14.71
581.354	14.46
581.693	14.77
582.032	14.65
582.372	14.67
582.711	14.73
583.05	14.82
583.389	14.86
583.728	15.06
584.067	14.77
584.406	14.94
584.745	14.56
585.083	14.8
585.422	14.91
585.761	15.01
586.1	14.93
586.438	14.8
586.777	15.04
587.115	14.99
587.454	14.97
587.792	15.02
588.13	15.01
588.469	14.84
588.807	14.94
589.145	15.1
589.483	14.88
589.821	15.38
590.159	15.15
590.497	15.16
590.835	15.19
591.173	15.26
591.511	15.19
591.849	15.15
592.187	15.2
592.524	15.01
592.862	15.12
593.2	15.23
593.537	15.15
593.875	15.13
594.212	15.21
594.55	15.31
594.887	15.42
595.224	15.59
595.561	15.31
595.899	15.59
596.236	15.27
596.573	15.25
596.91	15.38
597.247	15.33
597.584	15.59
597.921	15.61
598.258	15.37
598.594	15.22
598.931	15.05
599.268	15.13
599.604	15.49
599.941	15.71
600.277	15.68
600.614	15.43
600.95	15.62
601.287	15.72
601.623	15.48
601.959	16.04
602.296	15.59
602.632	15.5
602.968	15.84
603.304	15.73
603.64	15.69
603.976	15.58
604.312	15.8
604.648	15.8
604.984	15.82
605.319	15.75
605.655	15.89
605.991	15.57
606.326	15.42
606.662	15.39
606.998	15.77
607.333	15.76
607.668	15.85
608.004	15.92
608.339	15.91
608.674	16.05
609.01	16.33
609.345	16.21
609.68	16.34
610.015	16.21
610.35	16.17
610.685	15.8
611.02	15.9
611.355	16
611.689	16.09
612.024	16.03
612.359	16.16
612.694	16.08
613.028	16.03
613.363	16.12
613.697	16.48
614.032	16.37
614.366	16.3
614.7	16.28
615.035	16.33
615.369	16.54
615.703	16.4
616.037	16.37
616.371	16.39
616.705	16.76
617.039	16.54
617.373	16.67
617.707	16.55
618.041	16.16
618.375	16.07
618.709	16.78
619.042	16.32
619.376	16.56
619.71	16.68
620.043	16.7
620.377	17
620.71	16.58
621.043	16.99
621.377	16.6
621.71	16.88
622.043	17
622.376	16.76
622.709	17.05
623.043	16.81
623.376	16.77
623.709	17.09
624.041	16.49
624.374	17.16
624.707	16.97
625.04	16.51
625.373	17.08
625.705	17.31
626.038	17.18
626.37	17
626.703	16.89
627.035	16.85
627.368	17.3
627.7	16.89
628.032	17.15
628.365	17.01
628.697	17.06
629.029	16.71
629.361	16.86
629.693	16.87
630.025	16.91
630.357	17.25
630.689	17.13
631.021	17.09
631.353	17.29
631.684	17.01
632.016	17.08
632.348	17.01
632.679	17.47
633.011	17.37
633.342	17.47
633.674	17.16
634.005	17.21
634.336	17.37
634.668	17.15
634.999	17.28
635.33	17.51
635.661	17.42
635.992	17.69
636.323	17.36
636.654	17.21
636.985	17.44
637.316	17.5
637.647	17.52
637.977	17.18
638.308	17.41
638.639	17.49
638.969	17.3
639.3	17.45
639.63	17.61
639.961	17.37
640.291	17.49
640.622	17.45
640.952	17.65
641.282	17.58
641.612	17.4
641.943	17.55
642.273	17.25
642.603	17.53
642.933	17.8
643.263	17.68
643.592	18.08
643.922	18.19
644.252	17.88
644.582	17.82
644.911	17.75
645.241	17.83
645.571	18.27
645.9	18.09
646.23	18.62
646.559	17.76
646.888	18.24
647.218	17.91
647.547	18.05
647.876	17.72
648.205	17.92
648.534	18
648.863	17.82
649.192	18.04
649.521	18.58
649.85	18.41
650.179	18.3
650.508	18.27
650.837	18.3
651.165	18.5
651.494	18.08
651.822	18.56
652.151	17.73
652.479	17.99
652.808	18.09
653.136	17.57
653.465	18.09
653.793	18.23
654.121	18.42
654.449	17.73
654.777	18.13
655.105	18.09
655.433	18.61
655.761	18.66
656.089	18.66
656.417	18.58
656.745	18.76
657.073	18.74
657.4	18.32
657.728	17.77
658.056	18.28
658.383	18.23
658.711	18.39
659.038	18.56
659.365	18.58
659.693	18.71
660.02	18.01
660.347	18.6
660.674	18.14
661.001	18.31
661.329	18.44
661.656	18.31
661.982	18.3
662.309	18.58
662.636	18.97
662.963	18.41
663.29	18.35
663.616	18.49
663.943	18.85
664.27	18.83
664.596	18.58
664.923	19.13
665.249	18.8
665.576	18.16
665.902	18.4
666.228	19.16
666.554	19.29
666.881	19.46
667.207	18.7
667.533	19.36
667.859	19.33
668.185	18.96
668.511	19.18
668.837	19.26
669.162	19.01
669.488	18.44
669.814	19.04
670.139	18.42
670.465	19.5
670.791	17.7
671.116	18.92
671.442	18.29
671.767	18.98
672.092	18.73
672.418	18.88
672.743	18.9
673.068	19.16
673.393	19.2
673.718	18.53
674.043	19.13
674.368	19.66
674.693	18.93
675.018	20.03
675.343	19.89
675.667	18.94
675.992	18.94
676.317	18.81
676.641	19.44
676.966	19.31
677.29	18.67
677.615	19.14
677.939	19.1
678.264	19.28
678.588	19.29
678.912	19.97
679.236	19.59
679.56	19.46
679.885	18.97
680.209	19.5
680.532	20.09
680.856	19.72
681.18	20.36
681.504	19.38
681.828	19.49
682.152	19.31
682.475	19.52
682.799	19.22
683.122	19.35
683.446	19.24
683.769	19.79
684.093	19.42
684.416	19.13
684.739	19.43
685.062	20.42
685.386	19.61
685.709	19.57
686.032	19.81
686.355	20.25
686.678	19.78
687.001	19.66
687.324	19.79
687.646	19.69
687.969	19.83
688.292	19.3
688.614	20.34
688.937	20
689.26	19.93
689.582	19.96
689.904	19.58
690.227	19.96
690.549	20.16
690.871	19.68
691.194	20.12
691.516	20.23
691.838	20.29
692.16	19.24
692.482	19.94
692.804	20.71
693.126	20.02
693.448	20.29
693.769	19.72
694.091	20.01
694.413	19.63
694.735	19.54
695.056	20.94
695.378	19.43
695.699	20.25
696.021	20.46
696.342	20.25
696.663	20.33
696.984	19.6
697.306	20.3
697.627	20.89
697.948	19.87
698.269	20.43
698.59	20.52
698.911	19.59
699.232	20.17
699.553	21.4
699.873	20.52
700.194	20.09
700.515	20.24
700.835	20.27
701.156	20.72
701.477	20.23
701.797	20.27
702.117	20.14
702.438	20.78
702.758	19.93
703.078	20.62
703.398	20.59
703.719	21.02
704.039	21.22
704.359	19.69
704.679	20.78
704.999	20.25
705.319	20.82
705.638	20.42
705.958	20.94
706.278	20.09
706.597	19.9
706.917	20.35
707.237	20.65
707.556	20.98
707.876	20.9
708.195	20.55
708.514	20.24
708.834	20.05
709.153	20.81
709.472	20.86
709.791	19.86
710.11	20.68
710.429	20.24
710.748	20.11
711.067	20.33
711.386	20.39
711.705	21.64
712.023	21.59
712.342	20.17
712.661	20.75
712.979	21.89
713.298	21.32
713.616	20.64
713.935	20.87
714.253	20.12
714.572	19.82
714.89	20.34
715.208	20.28
715.526	21.84
715.844	21.8
716.162	21.31
716.48	20.14
716.798	21.25
717.116	20.61
717.434	20.89
717.752	20.95
718.069	20.8
718.387	19.52
718.705	21.24
719.022	21.88
719.34	21.62
719.657	20.9
719.975	21.03
720.292	20.64
720.609	20.22
720.927	21.62
721.244	20.68
721.561	20.04
721.878	21.84
722.195	22.03
722.512	21.52
722.829	20.39
723.146	20.61
723.463	22.02
723.779	20.79
724.096	21.2
724.413	21.21
724.729	21.98
725.046	21.12
725.362	21.49
725.679	21.26
725.995	20.48
726.311	21.86
726.628	20.34
726.944	21.99
727.26	21.52
727.576	22.79
727.892	22.33
728.208	20.89
728.524	20.78
728.84	21.6
729.156	19.59
729.472	21.86
729.787	22.49
730.103	21.16
730.419	21.38
730.734	20.53
731.05	20.32
731.365	22.12
731.681	22.36
731.996	22.21
732.311	22.47
732.626	21.49
732.942	20.84
733.257	21.25
733.572	22.4
733.887	23.08
734.202	21.7
734.517	22.27
734.832	21.67
735.146	22
735.461	22.23
735.776	22.91
736.091	22.47
736.405	22.02
736.72	21
737.034	21.65
737.349	21.28
737.663	22.13
737.977	22.55
738.292	20.86
738.606	23.26
738.92	22.39
739.234	21.56
739.548	22.92
739.862	22.66
740.176	21.89
740.49	21.79
740.804	22.38
741.117	22.13
741.431	20.92
741.745	22.59
742.058	20.64
742.372	21.5
742.685	22.79
742.999	21.91
743.312	21.45
743.626	22.4
743.939	20.64
744.252	21.68
744.565	21.9
744.878	20.52
745.191	23.17
745.505	21.26
745.817	22.86
746.13	22.11
746.443	20.14
746.756	23.84
747.069	22.62
747.381	20.45
747.694	24.06
748.007	22.11
748.319	24.26
748.632	22.67
748.944	20.79
749.256	23.25
749.569	22.11
749.881	22.42
750.193	21.26
750.505	23.19
750.817	21.47
751.129	23.05
751.441	21.23
751.753	22.59
752.065	23.23
752.377	23.54
752.689	21.3
753	24.44
753.312	23.12
753.624	22
753.935	21.88
754.247	23.39
754.558	22.77
754.869	22.61
755.181	22.92
755.492	20.98
755.803	23.67
756.114	22.45
756.425	20.57
756.736	22.33
757.047	22.3
757.358	23.11
757.669	22.83
757.98	23.34
758.291	22.88
758.601	22.34
758.912	22.24
759.223	22.24
759.533	23.18
759.844	23.38
760.154	23.17
760.464	22.43
760.775	23.41
761.085	22.61
761.395	22.42
761.705	23.68
762.016	21.89
762.326	24.47
762.636	24.2
762.945	23.2
763.255	22.44
763.565	23.47
763.875	21.61
764.185	25.42
764.494	22.83
764.804	22.78
765.113	22.4
765.423	22.27
765.732	22.66
766.042	23.29
766.351	23.98
766.66	23.02
766.97	23.68
767.279	22
767.588	22.74
767.897	22.46
768.206	23.18
768.515	21.25
768.824	23.8
769.133	22.64
769.441	21.71
769.75	23.51
770.059	22.34
770.367	23.14
770.676	22.08
770.984	21
771.293	22.01
771.601	21.7
771.91	23.87
772.218	20.87
772.526	21.27
772.834	22.33
773.142	23.22
773.45	22.65
773.758	23.79
774.066	22.77
774.374	24.68
774.682	24.35
774.99	24.44
775.298	21.29
775.605	22.65
775.913	21.9
776.22	20.34
776.528	25.49
776.835	26.18
777.143	25.59
777.45	20.76
777.757	22.98
778.065	23.18
778.372	21.54
778.679	27.36
778.986	25.62
779.293	19.72
779.6	24.29
779.907	24.24
780.214	21.92
780.52	24.82
780.827	21.63
781.134	23.54
781.44	23.62
781.747	22.86
782.053	24.01
782.36	24.06
782.666	20.01
782.973	22.17
783.279	21.17
783.585	23.95
783.891	24.59
784.197	24.56
784.503	26.23
784.809	26.46
785.115	25.39
785.421	25.81
785.727	24.83
786.033	24.99
786.339	24.86
786.644	19.24
786.95	20.32
787.255	22.46
787.561	20.68
787.866	23.85
788.172	24.38
788.477	18.46
788.782	22.7
789.088	18.33
789.393	23.96
789.698	21.07
790.003	25.37
790.308	23.87
790.613	25.47
790.918	22.32
791.223	21.55
791.527	26.42
791.832	23.58
792.137	23.97
792.441	19.56
792.746	22.86
793.05	22.74
793.355	26.75
793.659	21
793.963	19.83
794.268	26.7
794.572	23.81
794.876	26.05
795.18	29.46
795.484	25.21
795.788	22.43
796.092	23.14
796.396	17.56
796.7	20.64
797.004	20.77
797.307	22.93
797.611	26.15
797.915	20.07
798.218	22.31
798.522	22.06
798.825	26.49
799.128	23.93
799.432	21.26
799.735	20.01
800.038	22.98
800.341	25.09
800.644	21.71
800.947	23.27
801.25	22.6
801.553	23.5
801.856	26.83
802.159	24.75
802.462	27.6
802.764	26.27
803.067	21.24
803.37	20.69
803.672	22.3
803.975	19.36
804.277	22.35
804.579	22.19
804.882	21.68
805.184	25.33
805.486	28.23
805.788	23.74
806.09	23.72
806.392	25.37
806.694	26.65
806.996	27.06
807.298	20.45
807.6	28.57
807.902	20.18
808.203	20.09
808.505	17.69
808.807	29.24
809.108	25.97
809.409	27.36
809.711	27.3
810.012	19.48
810.313	24.03
810.615	24.01
810.916	24.28
811.217	24.46
811.518	14.92
811.819	26.25
812.12	26
812.421	16.17
812.722	23.15
813.023	26.2
813.323	24.95
813.624	25.68
813.925	20.66
814.225	21.25
814.526	16.1
814.826	24.94
815.126	27.1
815.427	25.02
815.727	19.61
816.027	28.18
816.327	26.41
816.627	22.2
816.927	28.42
817.227	25.14
817.527	29.24
817.827	16.86
818.127	18.37
818.427	20.02
818.727	22.87
819.026	21.19
819.326	20.62
819.625	21.47
819.925	23.55
820.224	23.83
820.524	20.85
820.823	28.34
821.122	20.11
821.421	24.68
821.72	26.52
822.019	18
822.318	25
822.617	28.82
822.916	22.99
823.215	25.17
823.514	25.1
823.813	24.77
824.111	23.09
824.41	25.01
824.709	24.58
825.007	25
825.306	26.75
825.604	25.44
825.902	25.13
826.201	25.83
826.499	26.53
826.797	24.54
827.095	25.91
827.393	27.12
827.691	27.17
827.989	26.89
828.287	25.58
828.585	26.93
828.882	22.3
829.18	23.89
829.478	24.36
829.775	25.8
830.073	25.23
830.37	25.27
830.668	25.11
830.965	26.33
831.263	24.36
831.56	26.84
831.857	25.96
832.154	26.54
832.451	26.85
832.748	24.53
833.045	25.41
833.342	23.36
833.639	23.88
833.936	26.32
834.232	27.52
834.529	24.35
834.826	29.77
835.122	21.76
835.419	25.01
835.715	19.81
836.012	27.02
836.308	25.79
836.604	25.86
836.901	23.4
837.197	27.13
837.493	25.11
837.789	23.71
838.085	25.25
838.381	27.99
838.677	26.79
838.972	23.72
839.268	22.09
839.564	28.99
839.86	27.48
840.155	26.97
840.451	29.23
840.746	25.22
841.042	20.96
841.337	24.41
841.632	16.66
841.928	23.21
842.223	17.99
842.518	25.66
842.813	20.16
843.108	24.4
843.403	15.12
843.698	25.78
843.993	30.49
844.287	22.58
844.582	21.32
844.877	21.76
845.171	24.06
845.466	22.96
845.761	36.46
846.055	33.81
846.349	24.05
846.644	12.46
846.938	19.45
847.232	28.39
847.526	24.84
847.82	26.35
848.114	29.46
848.408	23.75
848.702	22.68
848.996	22.79
849.29	29.07
849.584	35.1
849.877	7.36
850.171	41.6
850.465	17.46
850.758	19.92
851.052	22.46
851.345	22.56
851.638	25.42
851.932	33.72
852.225	30.45
852.518	23.29
852.811	10.59
853.104	16.42
853.397	33.38
853.69	30.11
853.983	25.22
854.276	17.22
854.569	2.89
854.861	17.4
855.154	33.17
855.447	13.76
855.739	17.43
856.032	35.13
856.324	31.02
856.616	41.29
856.909	15.31
857.201	12.47
857.493	33.63
857.785	24.67
858.077	19.42
858.369	16.6
858.661	29.21
858.953	35.9
859.245	35.27
859.537	3.21
859.829	22.13
860.12	29.93
860.412	26.04
860.703	35.19
860.995	31.18
861.286	-6.69
861.578	15.6
861.869	34.23
862.16	12.12
862.452	13.33
862.743	22.24
863.034	48.57
863.325	47.33
863.616	30.76
863.907	39.9
864.198	18.04
864.488	23.02
864.779	31.91
865.07	29.94
865.36	31.17
865.651	34.73
865.941	10.66
866.232	46.13
866.522	10
866.813	20.22
867.103	12.05
867.393	21.82
867.683	47.06
867.973	29.92
868.263	7.29
868.553	17.84
868.843	3.55
869.133	18.94
869.423	49.49
869.713	-18.1
870.002	7.71
870.292	41.01
870.582	51.31
870.871	28.81
871.161	26.85
871.45	3.25
871.739	51.9
872.029	28.64
872.318	32.52
872.607	49.91
872.896	18.63
873.185	22.89
873.474	4.16
873.763	36.93
874.052	36.62
874.341	27.49
874.63	19.37
874.918	28.49
875.207	5.41
875.496	28.89
875.784	-12.62
876.073	17.39
876.361	43.05
876.649	8.91
876.938	10.33
877.226	25.12
877.514	28.76
877.802	-13.32
878.09	21.89
878.378	23.9
878.666	31.41
878.954	34.32
879.242	42.52
879.53	13.84
879.817	-5.15
880.105	30.24
880.392	20.87
880.68	36.6
880.967	15.62
881.255	38.02
881.542	5.99
881.83	22.21
882.117	31.59
882.404	10.84
882.691	29.15
882.978	25.57
883.265	24.18
883.552	25.4
883.839	19.39
884.126	28.94
884.413	33.88
884.699	30.66
884.986	23.93
885.273	28.72
885.559	28.72
885.846	28.72
