Data from 21-12_chest_Reflection__4__79.txt Node

Date: Thu Dec 15 17:03:41 CST 2022
User: ToomeyLab
Spectrometer: FLMS14357
Trigger mode: 0
Integration Time (sec): 1.000000E-2
Scans to average: 100
Electric dark correction enabled: true
Nonlinearity correction enabled: false
Boxcar width: 0
XAxis mode: Wavelengths
Number of Pixels in Spectrum: 2048
>>>>>Begin Spectral Data<<<<<
189.047	-52.82
189.435	-52.82
189.823	-52.82
190.211	-454.05
190.599	102.09
190.987	-146.47
191.375	12.63
191.763	299.75
192.151	309.55
192.538	-155.28
192.926	-104.23
193.314	86.84
193.702	-50.63
194.089	-19.33
194.477	416.3
194.864	193.7
195.252	123.88
195.639	112.28
196.027	44.62
196.414	262.75
196.801	-11.17
197.189	165
197.576	24.99
197.963	4488.42
198.351	5.85
198.738	14.13
199.125	69.1
199.512	10.74
199.899	-45.26
200.286	-24.35
200.673	41.32
201.06	-12.19
201.447	59.55
201.833	0.58
202.22	-0.49
202.607	-54.39
202.994	-9.62
203.38	-22.24
203.767	-4.24
204.154	31.4
204.54	22.52
204.927	32.14
205.313	31.47
205.699	27.43
206.086	37.38
206.472	30.55
206.858	33.15
207.245	-6.3
207.631	6.71
208.017	39.2
208.403	-38.1
208.789	9.15
209.175	-20.35
209.561	-24.66
209.947	-9.72
210.333	16.74
210.719	8.43
211.105	38.44
211.491	-1.76
211.876	-27.69
212.262	39.51
212.648	12.01
213.034	2.52
213.419	13.64
213.805	-2.94
214.19	-3.85
214.576	1.06
214.961	5.52
215.346	-25.33
215.732	11.75
216.117	20.72
216.502	8.67
216.888	26.47
217.273	7.45
217.658	20.49
218.043	-12.93
218.428	-19.08
218.813	12.3
219.198	0.5
219.583	-22.44
219.968	12.13
220.353	9.19
220.738	6.71
221.122	-4.78
221.507	0.99
221.892	-6.6
222.276	-17.97
222.661	4.66
223.046	-7.36
223.43	8.72
223.815	3.88
224.199	-4.09
224.583	-7.72
224.968	-2.91
225.352	-1.05
225.736	8.06
226.121	4.21
226.505	-6.81
226.889	3.48
227.273	-4.85
227.657	4.72
228.041	4.15
228.425	2.99
228.809	2.88
229.193	4.67
229.577	2.84
229.961	2.72
230.344	4.15
230.728	4.34
231.112	3.84
231.495	3.52
231.879	3.36
232.263	4.44
232.646	2.08
233.03	4.98
233.413	5.47
233.797	5.46
234.18	5.55
234.563	3.77
234.946	4.81
235.33	3.77
235.713	4.51
236.096	5.39
236.479	4.6
236.862	3.78
237.245	3.36
237.628	5.41
238.011	4.56
238.394	2.7
238.777	4.45
239.16	6.33
239.543	4.87
239.925	3.3
240.308	4.09
240.691	2.01
241.073	4.18
241.456	4.21
241.838	4.02
242.221	4.56
242.603	4.37
242.986	4.58
243.368	4.11
243.75	4.22
244.133	4.5
244.515	4.23
244.897	4.46
245.279	3.85
245.661	4
246.043	4.41
246.425	5.01
246.807	4.36
247.189	4.39
247.571	3.99
247.953	3.78
248.335	4.13
248.717	4.47
249.098	4.21
249.48	3.92
249.862	3.96
250.243	4.46
250.625	4.38
251.006	4.7
251.388	4.03
251.769	2.77
252.151	4.31
252.532	4.32
252.913	3.42
253.295	3.81
253.676	4.42
254.057	4.04
254.438	3.47
254.819	4.79
255.2	3.93
255.581	4.72
255.962	4.57
256.343	3.94
256.724	4.75
257.105	4.11
257.486	3.34
257.867	3.53
258.247	3.94
258.628	4.31
259.009	3.58
259.389	3.32
259.77	4.16
260.15	4.25
260.531	3.97
260.911	4.02
261.292	4.03
261.672	3.97
262.052	3.95
262.432	3.74
262.813	4.21
263.193	4.04
263.573	3.77
263.953	2.84
264.333	3.64
264.713	4.08
265.093	3.23
265.473	2.79
265.853	3.5
266.233	4.35
266.612	3.5
266.992	3.52
267.372	4.09
267.752	3.83
268.131	3.95
268.511	3.91
268.89	4.8
269.27	3.62
269.649	3.51
270.029	3.37
270.408	4.06
270.787	4.25
271.167	4.09
271.546	4.38
271.925	4.25
272.304	3.91
272.683	3.28
273.062	3.79
273.441	3.21
273.82	3.68
274.199	3.61
274.578	3.81
274.957	3.73
275.336	3.49
275.715	3.98
276.093	3.49
276.472	3.06
276.851	4.11
277.229	3.92
277.608	3.51
277.986	3.25
278.365	3.92
278.743	3.79
279.122	3.5
279.5	4.25
279.878	3.61
280.257	3.62
280.635	3.68
281.013	2.87
281.391	3.66
281.769	4.32
282.147	4.03
282.525	3.31
282.903	3.39
283.281	3.96
283.659	3.98
284.037	3.52
284.415	3.32
284.792	3.77
285.17	3.52
285.548	3.71
285.925	3.68
286.303	4.34
286.68	3.84
287.058	3.65
287.435	3.65
287.813	3.69
288.19	3.56
288.567	3.67
288.945	3.23
289.322	4.24
289.699	3.7
290.076	3.43
290.453	3.37
290.83	3.28
291.207	3.29
291.584	3.93
291.961	3.74
292.338	3.7
292.715	3.26
293.092	3.76
293.469	3.48
293.845	3.7
294.222	4.58
294.599	3.9
294.975	3.62
295.352	4.01
295.728	3.79
296.105	3.51
296.481	3.77
296.858	4.1
297.234	3.4
297.61	3.87
297.986	4.43
298.363	3.8
298.739	3.94
299.115	3.8
299.491	4.1
299.867	3.91
300.243	3.99
300.619	3.82
300.995	4.24
301.371	4.24
301.746	4.14
302.122	3.38
302.498	3.9
302.874	4.29
303.249	4.01
303.625	3.5
304	3.79
304.376	4.46
304.751	3.97
305.127	3.98
305.502	4.06
305.878	4.14
306.253	3.49
306.628	4.24
307.003	3.51
307.378	4.25
307.754	4.35
308.129	3.58
308.504	4.57
308.879	3.77
309.254	3.88
309.629	4.49
310.003	3.89
310.378	4.24
310.753	4.2
311.128	3.78
311.502	4.19
311.877	3.82
312.252	4.2
312.626	4.28
313.001	4.33
313.375	4.58
313.75	4.17
314.124	4.56
314.498	4.47
314.873	4.43
315.247	4.44
315.621	4.25
315.995	4.31
316.369	3.66
316.743	4.07
317.117	4.14
317.491	4.45
317.865	3.91
318.239	4.81
318.613	3.95
318.987	3.87
319.361	4.69
319.734	4.58
320.108	4.27
320.482	4.63
320.855	4.37
321.229	4.4
321.602	4.43
321.976	4.14
322.349	5.07
322.723	4.48
323.096	4.6
323.469	4.07
323.843	3.91
324.216	4.23
324.589	4.46
324.962	4.64
325.335	4.79
325.708	4.38
326.081	4.62
326.454	4.66
326.827	4.57
327.2	4.58
327.573	5.25
327.945	4.09
328.318	4.17
328.691	4.39
329.063	3.67
329.436	3.98
329.809	4.57
330.181	5.03
330.553	4.49
330.926	4.7
331.298	4.39
331.671	4.16
332.043	4.36
332.415	4.42
332.787	4.78
333.159	4.73
333.532	4.98
333.904	5.18
334.276	4.4
334.648	4.99
335.02	4.55
335.391	4.3
335.763	4.7
336.135	5.02
336.507	4.63
336.879	4.79
337.25	4.33
337.622	4.7
337.993	4.82
338.365	4.36
338.736	4.75
339.108	4.89
339.479	4.45
339.851	5.01
340.222	4.53
340.593	4.39
340.964	4.33
341.336	4.69
341.707	4.54
342.078	4.42
342.449	4.45
342.82	4.74
343.191	4.32
343.562	4.8
343.933	4.38
344.303	4.67
344.674	4.53
345.045	4.63
345.416	5.18
345.786	4.62
346.157	4.74
346.527	4.42
346.898	4.32
347.268	4.82
347.639	4.4
348.009	4.84
348.38	4.61
348.75	5
349.12	4.86
349.49	4.85
349.861	5.06
350.231	4.44
350.601	4.46
350.971	4.32
351.341	4.61
351.711	4.55
352.081	4.23
352.45	4.14
352.82	4.46
353.19	4.53
353.56	4.6
353.929	4.48
354.299	4.53
354.669	4.83
355.038	4.79
355.408	4.47
355.777	5.01
356.147	4.78
356.516	4.4
356.885	4.68
357.254	4.68
357.624	4.33
357.993	4.98
358.362	4.49
358.731	4.81
359.1	4.76
359.469	4.88
359.838	4.97
360.207	4.99
360.576	4.89
360.945	4.54
361.314	4.54
361.682	4.13
362.051	4.82
362.42	4.67
362.788	4.82
363.157	4.5
363.525	4.78
363.894	4.63
364.262	4.6
364.631	4.9
364.999	4.74
365.367	4.71
365.735	4.57
366.104	4.7
366.472	4.83
366.84	4.65
367.208	4.96
367.576	4.98
367.944	4.87
368.312	4.67
368.68	5.02
369.048	4.48
369.416	4.66
369.783	4.68
370.151	4.84
370.519	5.26
370.886	4.64
371.254	5.08
371.621	4.95
371.989	4.86
372.356	4.72
372.724	4.79
373.091	4.71
373.458	4.61
373.826	4.93
374.193	4.73
374.56	5.11
374.927	4.65
375.294	4.85
375.661	5.12
376.028	5.11
376.395	4.77
376.762	4.75
377.129	4.87
377.496	4.95
377.863	4.83
378.229	5.07
378.596	4.95
378.963	5.01
379.329	5.3
379.696	4.77
380.062	4.73
380.429	4.65
380.795	5.1
381.161	4.55
381.528	4.5
381.894	4.84
382.26	5.03
382.626	4.82
382.993	5.12
383.359	4.79
383.725	4.68
384.091	5.08
384.457	4.75
384.823	4.99
385.188	4.54
385.554	4.99
385.92	4.76
386.286	4.87
386.651	4.7
387.017	5.19
387.383	5.03
387.748	4.85
388.114	4.97
388.479	4.78
388.845	4.92
389.21	5.15
389.575	5.36
389.94	5.03
390.306	4.92
390.671	4.92
391.036	4.95
391.401	5.23
391.766	4.94
392.131	5.21
392.496	4.9
392.861	4.83
393.226	4.83
393.591	5.08
393.956	5.16
394.32	5.27
394.685	4.93
395.05	5.05
395.414	4.88
395.779	5.2
396.143	5.08
396.508	4.92
396.872	4.83
397.236	5.39
397.601	5.06
397.965	4.97
398.329	5.15
398.694	4.69
399.058	4.89
399.422	4.81
399.786	4.81
400.15	4.99
400.514	5.13
400.878	5.12
401.242	5
401.605	4.84
401.969	4.91
402.333	4.75
402.697	5.18
403.06	5.14
403.424	4.9
403.787	5.21
404.151	5.12
404.514	5.2
404.878	4.85
405.241	5.09
405.604	5.1
405.968	5.18
406.331	5.05
406.694	4.99
407.057	5.02
407.42	4.92
407.783	5.15
408.146	4.83
408.509	5.12
408.872	5.17
409.235	5.05
409.598	5.28
409.961	5.15
410.323	5
410.686	4.95
411.049	5.12
411.411	4.88
411.774	4.99
412.136	4.99
412.499	5.18
412.861	4.61
413.223	5.11
413.586	5.02
413.948	5.11
414.31	5.26
414.672	4.85
415.035	5.3
415.397	4.94
415.759	5.03
416.121	5.25
416.483	5.06
416.845	5.12
417.206	5.02
417.568	5
417.93	5.15
418.292	4.99
418.653	4.95
419.015	4.95
419.377	5
419.738	4.96
420.1	5.02
420.461	4.93
420.822	5.1
421.184	5.02
421.545	5.01
421.906	5.03
422.267	4.95
422.629	4.94
422.99	4.93
423.351	4.99
423.712	5.02
424.073	5.08
424.434	5.16
424.795	4.99
425.155	4.99
425.516	4.89
425.877	4.99
426.238	4.98
426.598	5.08
426.959	5.08
427.32	5.01
427.68	5.11
428.041	5.33
428.401	5.17
428.761	5.2
429.122	5.19
429.482	5.22
429.842	5.19
430.202	5.39
430.563	5.05
430.923	5.17
431.283	5.41
431.643	5.4
432.003	5.29
432.363	5.48
432.722	5.31
433.082	5.2
433.442	5.3
433.802	5.2
434.161	5.19
434.521	5.24
434.881	5.3
435.24	5.09
435.6	5.34
435.959	5.32
436.319	5.37
436.678	5.31
437.037	5.3
437.396	5.43
437.756	5.24
438.115	5.25
438.474	5.29
438.833	5.17
439.192	5.38
439.551	5.21
439.91	5.4
440.269	5.28
440.628	5.32
440.987	5.39
441.345	5.29
441.704	5.24
442.063	5.25
442.421	5.3
442.78	5.23
443.138	5.25
443.497	5.24
443.855	5.46
444.214	5.15
444.572	5.53
444.93	5.36
445.288	5.28
445.647	5.21
446.005	5.24
446.363	5.35
446.721	5.4
447.079	5.26
447.437	5.29
447.795	5.36
448.153	5.25
448.51	5.22
448.868	5.28
449.226	5.37
449.584	5.3
449.941	5.42
450.299	5.37
450.656	5.37
451.014	5.47
451.371	5.47
451.729	5.48
452.086	5.41
452.443	5.4
452.801	5.48
453.158	5.63
453.515	5.45
453.872	5.49
454.229	5.24
454.586	5.34
454.943	5.51
455.3	5.55
455.657	5.36
456.014	5.44
456.371	5.51
456.727	5.65
457.084	5.6
457.441	5.53
457.797	5.59
458.154	5.46
458.51	5.51
458.867	5.51
459.223	5.47
459.58	5.56
459.936	5.42
460.292	5.31
460.648	5.43
461.005	5.4
461.361	5.46
461.717	5.36
462.073	5.45
462.429	5.44
462.785	5.6
463.141	5.59
463.496	5.55
463.852	5.65
464.208	5.57
464.564	5.54
464.919	5.62
465.275	5.62
465.631	5.85
465.986	5.68
466.342	5.36
466.697	5.64
467.052	5.68
467.408	5.78
467.763	5.53
468.118	5.54
468.473	5.72
468.829	5.62
469.184	5.75
469.539	5.64
469.894	5.8
470.249	5.67
470.603	5.87
470.958	5.87
471.313	5.56
471.668	5.72
472.023	5.74
472.377	5.84
472.732	5.77
473.086	5.72
473.441	5.74
473.795	5.99
474.15	5.77
474.504	5.76
474.859	5.47
475.213	5.82
475.567	5.54
475.921	5.83
476.275	5.78
476.63	5.71
476.984	5.68
477.338	5.81
477.692	5.45
478.045	5.63
478.399	5.79
478.753	5.66
479.107	5.82
479.461	5.73
479.814	5.79
480.168	5.72
480.521	5.82
480.875	5.79
481.228	5.66
481.582	5.76
481.935	5.88
482.289	5.79
482.642	5.78
482.995	5.84
483.348	5.64
483.701	5.73
484.055	5.65
484.408	5.73
484.761	5.57
485.114	5.48
485.466	5.39
485.819	5.42
486.172	5.52
486.525	5.61
486.878	5.63
487.23	5.73
487.583	5.77
487.936	5.72
488.288	5.65
488.641	5.63
488.993	5.59
489.345	5.6
489.698	5.63
490.05	5.65
490.402	5.67
490.754	5.81
491.107	5.78
491.459	5.9
491.811	5.82
492.163	5.85
492.515	5.74
492.866	5.72
493.218	5.69
493.57	5.77
493.922	5.76
494.274	5.96
494.625	6.03
494.977	5.99
495.328	6.04
495.68	6.03
496.031	5.98
496.383	6
496.734	5.92
497.086	6.15
497.437	6.17
497.788	6.07
498.139	6.02
498.49	6.06
498.842	6.13
499.193	5.99
499.544	6.07
499.894	6
500.245	6.21
500.596	6.16
500.947	6.18
501.298	6.03
501.648	6.13
501.999	6.1
502.35	6.05
502.7	6.35
503.051	6.17
503.401	6.15
503.752	6.05
504.102	6.17
504.452	6.08
504.803	6.24
505.153	6.33
505.503	6.21
505.853	6.25
506.203	6.3
506.553	6.34
506.903	6.25
507.253	6.24
507.603	6.31
507.953	6.29
508.303	6.32
508.652	6.22
509.002	6.38
509.352	6.29
509.701	6.2
510.051	6.27
510.4	6.38
510.75	6.24
511.099	6.31
511.449	6.46
511.798	6.3
512.147	6.31
512.496	6.4
512.846	6.34
513.195	6.35
513.544	6.5
513.893	6.34
514.242	6.4
514.591	6.39
514.939	6.54
515.288	6.54
515.637	6.5
515.986	6.51
516.334	6.45
516.683	6.54
517.032	6.46
517.38	6.56
517.729	6.56
518.077	6.53
518.426	6.53
518.774	6.47
519.122	6.5
519.47	6.47
519.819	6.43
520.167	6.42
520.515	6.5
520.863	6.53
521.211	6.52
521.559	6.49
521.907	6.53
522.255	6.57
522.602	6.68
522.95	6.71
523.298	6.7
523.645	6.73
523.993	6.71
524.341	6.76
524.688	6.7
525.036	6.65
525.383	6.88
525.73	6.66
526.078	6.79
526.425	6.66
526.772	6.64
527.119	6.71
527.466	6.65
527.814	6.67
528.161	6.7
528.508	6.72
528.854	6.75
529.201	6.59
529.548	6.6
529.895	6.51
530.242	6.48
530.588	6.49
530.935	6.61
531.282	6.61
531.628	6.68
531.975	6.73
532.321	6.82
532.667	6.86
533.014	6.92
533.36	6.86
533.706	6.89
534.052	6.91
534.399	6.87
534.745	6.77
535.091	6.74
535.437	6.8
535.783	6.88
536.129	6.99
536.474	7.07
536.82	7.01
537.166	6.89
537.512	7
537.857	6.97
538.203	6.91
538.549	6.99
538.894	7.15
539.239	7.12
539.585	7.27
539.93	7.28
540.276	7.25
540.621	7.31
540.966	7.33
541.311	7.36
541.656	7.21
542.001	7.22
542.346	7.13
542.691	7.04
543.036	7.03
543.381	7.13
543.726	7.25
544.071	7.23
544.415	7.3
544.76	7.22
545.105	7.25
545.449	7.32
545.794	7.43
546.138	7.45
546.483	7.41
546.827	7.4
547.171	7.59
547.516	7.55
547.86	7.54
548.204	7.58
548.548	7.5
548.892	7.46
549.236	7.56
549.58	7.69
549.924	7.67
550.268	7.81
550.612	7.68
550.956	7.88
551.3	7.9
551.643	7.73
551.987	7.89
552.33	8.05
552.674	7.79
553.017	7.96
553.361	7.99
553.704	7.88
554.048	7.91
554.391	8.06
554.734	7.81
555.077	8.06
555.42	7.93
555.764	8.12
556.107	8.07
556.45	8.17
556.793	8.27
557.135	8.04
557.478	8.1
557.821	8.19
558.164	8.26
558.507	8.09
558.849	8.23
559.192	8.09
559.534	8.39
559.877	8.32
560.219	8.16
560.562	8.26
560.904	8.48
561.246	8.3
561.589	8.56
561.931	8.38
562.273	8.36
562.615	8.23
562.957	8.41
563.299	8.45
563.641	8.43
563.983	8.46
564.325	8.52
564.667	8.59
565.008	8.39
565.35	8.29
565.692	8.56
566.033	8.63
566.375	8.57
566.716	8.59
567.058	8.57
567.399	8.64
567.741	8.61
568.082	8.6
568.423	8.59
568.764	8.63
569.105	8.85
569.447	8.6
569.788	8.64
570.129	8.81
570.47	8.8
570.811	8.77
571.151	8.84
571.492	8.99
571.833	8.92
572.174	8.99
572.514	8.99
572.855	8.97
573.195	9.06
573.536	9.04
573.876	8.82
574.217	8.93
574.557	9.11
574.898	8.96
575.238	9.14
575.578	9.09
575.918	9.15
576.258	9.36
576.598	9.05
576.938	9.32
577.278	9.21
577.618	9.17
577.958	9.46
578.298	9.39
578.638	9.25
578.977	9.33
579.317	9.37
579.657	9.44
579.996	9.57
580.336	9.57
580.675	9.6
581.014	9.68
581.354	9.65
581.693	9.81
582.032	9.56
582.372	9.53
582.711	9.78
583.05	9.77
583.389	9.83
583.728	10
584.067	9.74
584.406	9.97
584.745	9.79
585.083	9.97
585.422	9.94
585.761	9.93
586.1	9.87
586.438	10.18
586.777	10.35
587.115	10.15
587.454	10.17
587.792	9.96
588.13	10.32
588.469	10.24
588.807	10.3
589.145	10.35
589.483	10.45
589.821	10.16
590.159	10.45
590.497	10.56
590.835	10.4
591.173	10.45
591.511	10.34
591.849	10.43
592.187	10.6
592.524	10.66
592.862	10.34
593.2	10.42
593.537	10.5
593.875	10.71
594.212	10.7
594.55	10.53
594.887	10.74
595.224	10.72
595.561	10.8
595.899	10.66
596.236	11
596.573	10.62
596.91	10.73
597.247	10.96
597.584	10.97
597.921	10.93
598.258	11.1
598.594	10.66
598.931	10.67
599.268	10.82
599.604	10.97
599.941	10.98
600.277	11.04
600.614	11.06
600.95	11.06
601.287	10.88
601.623	11.09
601.959	11.19
602.296	11.09
602.632	11.11
602.968	11.51
603.304	11.29
603.64	11.22
603.976	11.35
604.312	11.22
604.648	11.67
604.984	11.25
605.319	11.58
605.655	11.32
605.991	11.46
606.326	11.42
606.662	11.36
606.998	11.5
607.333	11.67
607.668	11.64
608.004	11.64
608.339	11.57
608.674	11.73
609.01	12.04
609.345	11.91
609.68	11.62
610.015	11.85
610.35	12.05
610.685	11.52
611.02	11.63
611.355	11.88
611.689	11.8
612.024	11.93
612.359	12.21
612.694	11.96
613.028	12.17
613.363	11.98
613.697	12.4
614.032	12.12
614.366	12.2
614.7	12.27
615.035	12.27
615.369	12.43
615.703	12.18
616.037	12.77
616.371	12.14
616.705	12.54
617.039	12.52
617.373	12.71
617.707	12.59
618.041	12.5
618.375	12.37
618.709	12.76
619.042	12.72
619.376	12.59
619.71	12.77
620.043	12.84
620.377	12.93
620.71	12.93
621.043	13.03
621.377	12.86
621.71	13.21
622.043	13.16
622.376	13.14
622.709	13.37
623.043	13.38
623.376	12.9
623.709	13.52
624.041	13.1
624.374	13.15
624.707	12.93
625.04	12.98
625.373	13.41
625.705	13.24
626.038	13.3
626.37	13.29
626.703	13.36
627.035	13.48
627.368	13.82
627.7	13.54
628.032	13.52
628.365	13.72
628.697	13.81
629.029	13.8
629.361	13.74
629.693	13.61
630.025	14.12
630.357	13.84
630.689	13.44
631.021	13.62
631.353	13.93
631.684	13.67
632.016	13.54
632.348	13.78
632.679	14.21
633.011	13.91
633.342	14.13
633.674	13.64
634.005	14.1
634.336	14.02
634.668	13.95
634.999	14.13
635.33	14.18
635.661	14.04
635.992	14.49
636.323	14.71
636.654	14.04
636.985	14.43
637.316	14.06
637.647	14.63
637.977	14.42
638.308	14.63
638.639	14.13
638.969	14.38
639.3	14.43
639.63	14.66
639.961	14.62
640.291	14.67
640.622	14.9
640.952	15.06
641.282	14.41
641.612	14.8
641.943	14.56
642.273	14.85
642.603	14.86
642.933	14.98
643.263	14.96
643.592	15.42
643.922	15.39
644.252	15.36
644.582	15.21
644.911	15.03
645.241	15.25
645.571	15.29
645.9	15.1
646.23	15.73
646.559	15.32
646.888	16.04
647.218	15.6
647.547	15.58
647.876	15.37
648.205	14.85
648.534	15.71
648.863	15.9
649.192	15.9
649.521	15.55
649.85	15.84
650.179	15.63
650.508	15.58
650.837	16.01
651.165	15.83
651.494	15.78
651.822	15.66
652.151	15.76
652.479	15.99
652.808	15.78
653.136	15.54
653.465	15.93
653.793	15.95
654.121	16.05
654.449	15.88
654.777	16.3
655.105	15.87
655.433	16.57
655.761	15.92
656.089	16.29
656.417	16.4
656.745	16.94
657.073	16.41
657.4	16.11
657.728	15.65
658.056	16.13
658.383	16.13
658.711	16.33
659.038	16.87
659.365	16.47
659.693	16.73
660.02	16.72
660.347	16.51
660.674	16.55
661.001	16.33
661.329	16.47
661.656	16.66
661.982	16.38
662.309	16.45
662.636	16.61
662.963	16.8
663.29	16.67
663.616	16.79
663.943	16.97
664.27	17.1
664.596	16.37
664.923	17.26
665.249	17.47
665.576	17.04
665.902	16.81
666.228	17.61
666.554	17.31
666.881	17.16
667.207	17.62
667.533	17.58
667.859	17.22
668.185	17.33
668.511	17.93
668.837	17.52
669.162	17.56
669.488	16.46
669.814	17.36
670.139	17.1
670.465	17.92
670.791	17.27
671.116	17.65
671.442	17.33
671.767	17.74
672.092	17.86
672.418	17.83
672.743	17.65
673.068	17.71
673.393	18.26
673.718	17.67
674.043	18.22
674.368	18.19
674.693	17.8
675.018	18.12
675.343	18.76
675.667	18.11
675.992	18.49
676.317	17.59
676.641	18.74
676.966	18.14
677.29	17.8
677.615	18.06
677.939	18.49
678.264	18.14
678.588	18.85
678.912	18.36
679.236	18.09
679.56	18.42
679.885	18.81
680.209	18.74
680.532	19.29
680.856	19.1
681.18	19.67
681.504	18.51
681.828	18.55
682.152	18.52
682.475	18.75
682.799	18.53
683.122	18.61
683.446	18.22
683.769	19.44
684.093	19.54
684.416	18.82
684.739	18.65
685.062	19.29
685.386	18.46
685.709	19.16
686.032	19.26
686.355	19.6
686.678	20.19
687.001	19.11
687.324	18.98
687.646	19.14
687.969	20.09
688.292	19.43
688.614	19.67
688.937	20.38
689.26	19.4
689.582	19.89
689.904	19.41
690.227	20.13
690.549	19.73
690.871	19.91
691.194	19.67
691.516	19.53
691.838	20.27
692.16	19.3
692.482	20.02
692.804	20.41
693.126	19.93
693.448	19.9
693.769	20.32
694.091	20.08
694.413	20.21
694.735	20.01
695.056	21.04
695.378	20.82
695.699	20.34
696.021	20.45
696.342	20.33
696.663	20.7
696.984	20.71
697.306	20.55
697.627	20.89
697.948	20.4
698.269	21.11
698.59	19.55
698.911	20.12
699.232	21.23
699.553	20.36
699.873	20.2
700.194	20.98
700.515	20.94
700.835	20.72
701.156	21.15
701.477	21.12
701.797	21.07
702.117	21.03
702.438	21.37
702.758	21.08
703.078	21.52
703.398	20.05
703.719	20.81
704.039	21.38
704.359	21.56
704.679	21.24
704.999	21.56
705.319	20.33
705.638	21.76
705.958	20.89
706.278	21.93
706.597	21.41
706.917	21.31
707.237	21.27
707.556	21.4
707.876	21.55
708.195	22.68
708.514	21.84
708.834	21.4
709.153	21.14
709.472	22.09
709.791	21.31
710.11	21.32
710.429	22.58
710.748	23.13
711.067	22.56
711.386	22.42
711.705	22.11
712.023	23.03
712.342	22.86
712.661	22.54
712.979	23.09
713.298	22.87
713.616	21.9
713.935	22.62
714.253	22.08
714.572	21.71
714.89	22.62
715.208	21.27
715.526	22.73
715.844	21.85
716.162	23.6
716.48	23.03
716.798	23.33
717.116	23.32
717.434	22.4
717.752	22.95
718.069	22.56
718.387	22.99
718.705	22.09
719.022	23.69
719.34	22.35
719.657	23.29
719.975	22.87
720.292	23.04
720.609	22.54
720.927	23.47
721.244	22.47
721.561	22.49
721.878	23.91
722.195	23.75
722.512	23.56
722.829	23.32
723.146	23.5
723.463	22.82
723.779	21.55
724.096	22.86
724.413	23.71
724.729	23.36
725.046	23.91
725.362	23.87
725.679	24.03
725.995	22.59
726.311	23.6
726.628	24.27
726.944	24.99
727.26	23.1
727.576	25.5
727.892	24.69
728.208	23.6
728.524	21.94
728.84	23.23
729.156	22.13
729.472	23.53
729.787	23.98
730.103	23.67
730.419	22.86
730.734	23.63
731.05	24.32
731.365	24.88
731.681	24.78
731.996	23.78
732.311	24.17
732.626	24.85
732.942	25.35
733.257	23.9
733.572	24.11
733.887	25.53
734.202	24.71
734.517	24.5
734.832	24.12
735.146	25.49
735.461	24.6
735.776	24.96
736.091	25.24
736.405	24.17
736.72	24.42
737.034	25.3
737.349	25.31
737.663	26.19
737.977	25.07
738.292	23.78
738.606	24.14
738.92	24.97
739.234	24.63
739.548	25.68
739.862	27.19
740.176	24.01
740.49	27.4
740.804	26.05
741.117	27.02
741.431	25.63
741.745	25.61
742.058	27.24
742.372	24.84
742.685	28.48
742.999	25.16
743.312	25.86
743.626	24.49
743.939	24.74
744.252	23.87
744.565	27.42
744.878	22.54
745.191	26.69
745.505	26.21
745.817	25.94
746.13	27.3
746.443	23.9
746.756	26.21
747.069	24.92
747.381	24.5
747.694	27.99
748.007	25.73
748.319	25.16
748.632	24.88
748.944	26.24
749.256	24.43
749.569	26.54
749.881	24.47
750.193	25.72
750.505	26.36
750.817	26.66
751.129	26.36
751.441	26.72
751.753	27.08
752.065	26.11
752.377	28.66
752.689	25.67
753	27.57
753.312	25.42
753.624	26.63
753.935	26.46
754.247	26
754.558	27.4
754.869	26.24
755.181	25.75
755.492	26.42
755.803	27.13
756.114	25.52
756.425	25.44
756.736	26.87
757.047	27.79
757.358	27.94
757.669	26.4
757.98	26.73
758.291	25.84
758.601	26.76
758.912	27.91
759.223	25.67
759.533	27.82
759.844	27.69
760.154	25.95
760.464	27.23
760.775	26.35
761.085	27.41
761.395	24.86
761.705	26.87
762.016	26.38
762.326	29.09
762.636	28.24
762.945	28.31
763.255	26.48
763.565	26.88
763.875	26.72
764.185	28.34
764.494	27.62
764.804	28.05
765.113	27.81
765.423	28.73
765.732	27.14
766.042	27.36
766.351	27.92
766.66	27.59
766.97	27.58
767.279	26.41
767.588	27.79
767.897	27.38
768.206	28.22
768.515	28.25
768.824	28.6
769.133	25.49
769.441	26.83
769.75	25.37
770.059	29.01
770.367	28.63
770.676	28
770.984	27.48
771.293	29.46
771.601	26.18
771.91	27.05
772.218	29.72
772.526	29.28
772.834	25.15
773.142	28.11
773.45	29.27
773.758	28.79
774.066	27.18
774.374	29.75
774.682	27.35
774.99	26.32
775.298	26.61
775.605	28.39
775.913	27.85
776.22	27.77
776.528	29.16
776.835	31.11
777.143	31.02
777.45	26.34
777.757	31.24
778.065	26.49
778.372	26.49
778.679	30.62
778.986	29.2
779.293	26.19
779.6	31.33
779.907	30.64
780.214	27.76
780.52	32.08
780.827	29.58
781.134	31.92
781.44	28.82
781.747	32.58
782.053	27.47
782.36	28.75
782.666	24.43
782.973	30.71
783.279	32.68
783.585	33.31
783.891	29.97
784.197	27.32
784.503	30.67
784.809	34.47
785.115	35.27
785.421	33.69
785.727	31.77
786.033	26.18
786.339	31.27
786.644	27.72
786.95	28.71
787.255	28.94
787.561	30.49
787.866	32.04
788.172	31.98
788.477	30.44
788.782	29.47
789.088	28.12
789.393	31.24
789.698	28.45
790.003	29.16
790.308	31.89
790.613	31.66
790.918	28.76
791.223	27.2
791.527	29.21
791.832	33.06
792.137	31.7
792.441	33.75
792.746	32.46
793.05	30.69
793.355	30.51
793.659	35.42
793.963	27.31
794.268	33.88
794.572	29.4
794.876	31.68
795.18	32.45
795.484	30.24
795.788	31.4
796.092	26.46
796.396	25.09
796.7	32.49
797.004	25.2
797.307	29.68
797.611	32.67
797.915	30.42
798.218	30.69
798.522	25.56
798.825	34.53
799.128	31.29
799.432	31
799.735	30.87
800.038	31.27
800.341	31.47
800.644	28.4
800.947	31.52
801.25	27.24
801.553	35.01
801.856	31.72
802.159	29.7
802.462	28.93
802.764	32.63
803.067	27.68
803.37	35.16
803.672	25.79
803.975	30.27
804.277	30.52
804.579	31.97
804.882	28.17
805.184	31.42
805.486	32.71
805.788	33.47
806.09	29.11
806.392	31.84
806.694	33.18
806.996	39.39
807.298	28.82
807.6	35.34
807.902	30.58
808.203	29.22
808.505	28.36
808.807	34.15
809.108	30.7
809.409	32.13
809.711	29.36
810.012	30.44
810.313	29.51
810.615	33.59
810.916	30.66
811.217	30.68
811.518	30.31
811.819	30.39
812.12	33.14
812.421	25.47
812.722	30.09
813.023	38.64
813.323	28.84
813.624	34.04
813.925	34.61
814.225	31.83
814.526	28.33
814.826	28.45
815.126	33.35
815.427	30.7
815.727	32.14
816.027	36.43
816.327	37.43
816.627	39.7
816.927	33.02
817.227	34.7
817.527	34.96
817.827	24.96
818.127	32.5
818.427	27.2
818.727	29.26
819.026	26.01
819.326	36.66
819.625	36.1
819.925	32.24
820.224	33.17
820.524	36.59
820.823	36.46
821.122	30.88
821.421	32.27
821.72	32.91
822.019	28.04
822.318	33.11
822.617	35.24
822.916	30.04
823.215	34.61
823.514	30.7
823.813	34.35
824.111	32.55
824.41	34.5
824.709	34.05
825.007	34
825.306	34.59
825.604	34.11
825.902	33.65
826.201	33.65
826.499	33.66
826.797	33.06
827.095	34.32
827.393	36.09
827.691	35.19
827.989	34.05
828.287	31.43
828.585	34.36
828.882	35.04
829.18	33.03
829.478	34.5
829.775	35.37
830.073	35.55
830.37	35.72
830.668	36.06
830.965	36.91
831.263	34.73
831.56	36.31
831.857	35.63
832.154	33.87
832.451	32.04
832.748	33.14
833.045	33.62
833.342	31.39
833.639	36.62
833.936	31.97
834.232	36.46
834.529	35.46
834.826	32.75
835.122	36.26
835.419	37.29
835.715	29.99
836.012	33.84
836.308	35.35
836.604	35.15
836.901	31.45
837.197	34.43
837.493	34.71
837.789	35.42
838.085	32.78
838.381	33.6
838.677	31.28
838.972	29.86
839.268	34.65
839.564	34.47
839.86	36.24
840.155	36.52
840.451	34.06
840.746	30.82
841.042	34.34
841.337	26.28
841.632	33.96
841.928	35.74
842.223	32.23
842.518	34.61
842.813	33.36
843.108	36.3
843.403	33.34
843.698	37.27
843.993	38.7
844.287	36.8
844.582	33.79
844.877	38.16
845.171	36.25
845.466	37.32
845.761	39.46
846.055	37.32
846.349	35.92
846.644	29.49
846.938	43.78
847.232	28.27
847.526	36.76
847.82	23.77
848.114	24.84
848.408	36.82
848.702	38.63
848.996	33.99
849.29	37.49
849.584	34.85
849.877	29.8
850.171	39.35
850.465	30
850.758	21.67
851.052	24.74
851.345	47.83
851.638	30.53
851.932	21.25
852.225	39.12
852.518	35.82
852.811	23.56
853.104	35.02
853.397	26.26
853.69	38.9
853.983	29.87
854.276	38.65
854.569	12.22
854.861	23.98
855.154	45.6
855.447	33.63
855.739	14.22
856.032	35.83
856.324	42.52
856.616	35.3
856.909	21.87
857.201	3.18
857.493	24.5
857.785	37.46
858.077	29.88
858.369	51.31
858.661	28.95
858.953	42.2
859.245	29.2
859.537	-3.88
859.829	35.7
860.12	20.71
860.412	39.28
860.703	33.19
860.995	43.25
861.286	21.99
861.578	46.15
861.869	57.88
862.16	25.98
862.452	21.58
862.743	25.88
863.034	49.21
863.325	54.55
863.616	37.12
863.907	29.48
864.198	6.63
864.488	22.64
864.779	34.9
865.07	19.7
865.36	27.59
865.651	41.92
865.941	38.84
866.232	55.66
866.522	25.29
866.813	40
867.103	32.93
867.393	25.95
867.683	35.15
867.973	41.29
868.263	5.79
868.553	34.32
868.843	33.14
869.133	43.78
869.423	56.36
869.713	22.48
870.002	31.95
870.292	49.42
870.582	40.22
870.871	41.9
871.161	29.52
871.45	36.26
871.739	46.2
872.029	39.23
872.318	53.62
872.607	31.31
872.896	50.85
873.185	52.27
873.474	37.25
873.763	37.7
874.052	32.03
874.341	40.58
874.63	26.85
874.918	42.65
875.207	56.92
875.496	45.65
875.784	1.09
876.073	17.14
876.361	44.65
876.649	42.15
876.938	29.87
877.226	38.49
877.514	53.87
877.802	24.2
878.09	56.74
878.378	43.47
878.666	45.16
878.954	44.77
879.242	21.71
879.53	55.94
879.817	20.34
880.105	46.7
880.392	24.2
880.68	19.65
880.967	32.16
881.255	48.89
881.542	39.78
881.83	39.46
882.117	49.75
882.404	27.23
882.691	41.67
882.978	43.49
883.265	35.91
883.552	27.14
883.839	35.31
884.126	37.63
884.413	32.25
884.699	39.75
884.986	38.66
885.273	38.48
885.559	38.48
885.846	38.48
