Data from 0219_crown_Reflection__3__243.txt Node

Date: Fri Sep 22 22:45:20 CDT 2023
User: ToomeyLab
Spectrometer: FLMS14357
Trigger mode: 0
Integration Time (sec): 1.000000E-2
Scans to average: 100
Electric dark correction enabled: true
Nonlinearity correction enabled: false
Boxcar width: 0
XAxis mode: Wavelengths
Number of Pixels in Spectrum: 2048
>>>>>Begin Spectral Data<<<<<
189.047	-57.77
189.435	-57.77
189.823	-57.77
190.211	143.01
190.599	57.89
190.987	304.49
191.375	96.45
191.763	102.61
192.151	183.83
192.538	213.68
192.926	97.08
193.314	8419.51
193.702	50.34
194.089	96.12
194.477	-196.54
194.864	74.78
195.252	49.69
195.639	61.21
196.027	60.9
196.414	248.87
196.801	-1.33
197.189	-51.74
197.576	46
197.963	-131.13
198.351	30.39
198.738	5.35
199.125	30.24
199.512	6.41
199.899	52.99
200.286	8.27
200.673	29.64
201.06	16.37
201.447	49.33
201.833	-9.64
202.22	45.75
202.607	29.61
202.994	45.75
203.38	36.92
203.767	-19.45
204.154	29.93
204.54	16.09
204.927	15.95
205.313	65.09
205.699	13.99
206.086	8.78
206.472	63.43
206.858	51.79
207.245	13.65
207.631	28.23
208.017	41.31
208.403	4.08
208.789	23.8
209.175	32.16
209.561	27.29
209.947	36
210.333	27.42
210.719	-25.83
211.105	5.23
211.491	12.46
211.876	39.08
212.262	8.85
212.648	28.84
213.034	8.94
213.419	-9
213.805	-1.93
214.19	7.95
214.576	18.38
214.961	21.12
215.346	-3.35
215.732	24.9
216.117	6.31
216.502	21.18
216.888	16.32
217.273	22.75
217.658	-8.32
218.043	23.02
218.428	11.13
218.813	-21.98
219.198	-11.3
219.583	-7.2
219.968	-2.69
220.353	32.23
220.738	4.09
221.122	-10.59
221.507	-22.48
221.892	-24.56
222.276	28.71
222.661	-17.21
223.046	13.31
223.43	29.03
223.815	9.3
224.199	-4.61
224.583	16.56
224.968	9.17
225.352	-0.92
225.736	8.39
226.121	-1.5
226.505	2.39
226.889	3.93
227.273	-0.69
227.657	6.77
228.041	5.11
228.425	5.22
228.809	4.07
229.193	7.73
229.577	5.87
229.961	7.2
230.344	4.4
230.728	3.1
231.112	5.32
231.495	4.08
231.879	5.23
232.263	2.44
232.646	3.7
233.03	3.58
233.413	4.95
233.797	4
234.18	4.18
234.563	7.42
234.946	8.58
235.33	2.7
235.713	3.33
236.096	1.81
236.479	4.85
236.862	4.95
237.245	5.88
237.628	5.04
238.011	4.87
238.394	3.15
238.777	5.97
239.16	5.15
239.543	5.72
239.925	4.36
240.308	5.39
240.691	5.34
241.073	4.64
241.456	4.51
241.838	3.57
242.221	3.79
242.603	3.87
242.986	3.21
243.368	3.82
243.75	4.1
244.133	4.29
244.515	3.15
244.897	3.42
245.279	3.96
245.661	3.76
246.043	4
246.425	3.58
246.807	4.1
247.189	1.82
247.571	3.84
247.953	4.05
248.335	3.26
248.717	3.87
249.098	3.96
249.48	3.71
249.862	3.39
250.243	3.71
250.625	3.65
251.006	3.34
251.388	3.73
251.769	3.79
252.151	2.93
252.532	3.7
252.913	4.11
253.295	4.46
253.676	3.09
254.057	3.95
254.438	3.88
254.819	3.41
255.2	3.2
255.581	3.15
255.962	4.27
256.343	3.87
256.724	1.99
257.105	5.55
257.486	3.19
257.867	3.44
258.247	3.63
258.628	3.86
259.009	2.64
259.389	2.09
259.77	3.85
260.15	4.37
260.531	3.57
260.911	3.04
261.292	3.47
261.672	3.04
262.052	3.29
262.432	3.42
262.813	3.31
263.193	3.04
263.573	4.11
263.953	3.18
264.333	3.44
264.713	3.04
265.093	3.56
265.473	3.71
265.853	2.97
266.233	2.85
266.612	2.95
266.992	3.84
267.372	3.38
267.752	3.25
268.131	3.25
268.511	3.1
268.89	3.37
269.27	3.11
269.649	3.56
270.029	3.51
270.408	3.03
270.787	3.23
271.167	3.7
271.546	2.7
271.925	3.3
272.304	2.12
272.683	3.06
273.062	3.68
273.441	2.69
273.82	3.6
274.199	3.4
274.578	3.51
274.957	3.27
275.336	3.15
275.715	3.25
276.093	2.7
276.472	3.28
276.851	2.73
277.229	2.31
277.608	3.16
277.986	2.91
278.365	3.93
278.743	3.42
279.122	3.23
279.5	3.77
279.878	2.33
280.257	3.51
280.635	2.95
281.013	3.12
281.391	2.78
281.769	2.93
282.147	2.93
282.525	2.93
282.903	2.9
283.281	2.86
283.659	2.66
284.037	2.97
284.415	2.95
284.792	2.75
285.17	3.58
285.548	3.59
285.925	3.14
286.303	3.01
286.68	2.63
287.058	3.05
287.435	2.88
287.813	2.82
288.19	2.58
288.567	3.02
288.945	2.88
289.322	2.51
289.699	2.97
290.076	2.86
290.453	2.54
290.83	2.18
291.207	2.43
291.584	2.22
291.961	2.61
292.338	3.25
292.715	3.03
293.092	3
293.469	2.74
293.845	2.56
294.222	3.2
294.599	2.94
294.975	3.04
295.352	3.17
295.728	3.04
296.105	3.28
296.481	2.85
296.858	2.56
297.234	2.98
297.61	3.18
297.986	3.21
298.363	2.81
298.739	2.57
299.115	2.81
299.491	2.88
299.867	2.9
300.243	2.73
300.619	2.63
300.995	2.5
301.371	3.43
301.746	2.7
302.122	2.38
302.498	2.91
302.874	2.5
303.249	2.98
303.625	2.96
304	3.02
304.376	3.06
304.751	2.74
305.127	2.85
305.502	2.61
305.878	2.82
306.253	2.89
306.628	2.53
307.003	2.51
307.378	2.45
307.754	2.51
308.129	2.79
308.504	2.58
308.879	2.79
309.254	2.74
309.629	2.7
310.003	3.18
310.378	3.31
310.753	2.8
311.128	2.59
311.502	3.45
311.877	2.21
312.252	2.59
312.626	3.01
313.001	3.07
313.375	2.91
313.75	3.46
314.124	3.41
314.498	2.47
314.873	2.75
315.247	2.8
315.621	2.87
315.995	2.55
316.369	2.76
316.743	2.67
317.117	3.22
317.491	3.16
317.865	2.57
318.239	3.27
318.613	2.95
318.987	1.92
319.361	2.63
319.734	2.87
320.108	2.36
320.482	2.56
320.855	2.65
321.229	3.12
321.602	2.81
321.976	2.56
322.349	2.96
322.723	3.02
323.096	3.25
323.469	2.48
323.843	2.72
324.216	2.54
324.589	2.62
324.962	2.23
325.335	2.66
325.708	2.42
326.081	2.88
326.454	2.15
326.827	2.68
327.2	2.73
327.573	3.5
327.945	2.45
328.318	3.09
328.691	2.99
329.063	2.6
329.436	2.65
329.809	3.35
330.181	2.56
330.553	2.44
330.926	2.58
331.298	2.9
331.671	3.15
332.043	2.1
332.415	2.99
332.787	3.13
333.159	2.42
333.532	2.51
333.904	2.4
334.276	2.61
334.648	2.38
335.02	2.69
335.391	2.41
335.763	3.12
336.135	3.14
336.507	2.41
336.879	2.5
337.25	2.84
337.622	2.97
337.993	2.33
338.365	2.89
338.736	2.59
339.108	3
339.479	2.81
339.851	2.72
340.222	2.35
340.593	2.63
340.964	2.35
341.336	2.74
341.707	2.72
342.078	2.28
342.449	2.93
342.82	2.63
343.191	2.28
343.562	2.99
343.933	2.99
344.303	2.58
344.674	2.74
345.045	2.98
345.416	3.41
345.786	2.61
346.157	2.39
346.527	2.57
346.898	2.2
347.268	2.55
347.639	3.03
348.009	2.93
348.38	3.21
348.75	3.32
349.12	2.87
349.49	3.07
349.861	2.79
350.231	3.23
350.601	2.89
350.971	3.05
351.341	2.86
351.711	2.55
352.081	2.28
352.45	2.86
352.82	2.78
353.19	2.78
353.56	2.83
353.929	2.87
354.299	2.68
354.669	2.8
355.038	2.61
355.408	2.78
355.777	2.82
356.147	3.06
356.516	3.42
356.885	2.86
357.254	2.79
357.624	2.35
357.993	2.54
358.362	3.03
358.731	2.91
359.1	2.89
359.469	2.66
359.838	2.63
360.207	2.63
360.576	2.78
360.945	2.61
361.314	2.82
361.682	2.85
362.051	3.1
362.42	2.84
362.788	2.61
363.157	3.04
363.525	2.82
363.894	2.7
364.262	2.78
364.631	2.79
364.999	2.5
365.367	2.86
365.735	2.57
366.104	2.75
366.472	2.97
366.84	2.63
367.208	3.2
367.576	2.76
367.944	2.81
368.312	3.34
368.68	3.15
369.048	3.17
369.416	2.74
369.783	2.57
370.151	2.65
370.519	3.03
370.886	2.77
371.254	3.03
371.621	2.86
371.989	3.03
372.356	3.06
372.724	3.14
373.091	2.92
373.458	2.38
373.826	2.72
374.193	3.05
374.56	3.02
374.927	3.03
375.294	3.02
375.661	2.59
376.028	2.99
376.395	3
376.762	2.89
377.129	3.38
377.496	3.2
377.863	2.98
378.229	3.06
378.596	2.77
378.963	3.33
379.329	2.95
379.696	3.17
380.062	2.89
380.429	2.84
380.795	3.25
381.161	2.77
381.528	2.93
381.894	2.81
382.26	3.13
382.626	2.98
382.993	3
383.359	2.89
383.725	2.7
384.091	3.11
384.457	2.78
384.823	2.76
385.188	3.07
385.554	3.11
385.92	3.31
386.286	2.94
386.651	2.75
387.017	3.23
387.383	2.78
387.748	3.04
388.114	2.84
388.479	2.96
388.845	2.92
389.21	2.88
389.575	3.03
389.94	2.83
390.306	2.97
390.671	3.13
391.036	2.58
391.401	2.78
391.766	3.12
392.131	3.31
392.496	3.17
392.861	2.76
393.226	3.2
393.591	3.1
393.956	2.95
394.32	2.91
394.685	2.98
395.05	3.05
395.414	3.17
395.779	2.71
396.143	2.94
396.508	2.96
396.872	3.01
397.236	3.01
397.601	2.88
397.965	3.04
398.329	2.75
398.694	3.05
399.058	2.97
399.422	2.92
399.786	3.05
400.15	3.22
400.514	3.22
400.878	3.05
401.242	3.01
401.605	3.16
401.969	2.83
402.333	3.03
402.697	2.9
403.06	2.87
403.424	3.12
403.787	3.22
404.151	3.02
404.514	3.35
404.878	2.83
405.241	3.16
405.604	3.16
405.968	3.11
406.331	3.16
406.694	3.1
407.057	2.76
407.42	3.1
407.783	3.1
408.146	3.1
408.509	3.01
408.872	3.16
409.235	3.04
409.598	2.9
409.961	3.3
410.323	3.13
410.686	3.13
411.049	3.1
411.411	3.15
411.774	2.94
412.136	3.25
412.499	3.15
412.861	3.11
413.223	3.22
413.586	2.86
413.948	2.99
414.31	3.16
414.672	2.99
415.035	3.05
415.397	3.32
415.759	3.36
416.121	2.86
416.483	3.05
416.845	2.98
417.206	2.93
417.568	3
417.93	2.99
418.292	3.08
418.653	2.83
419.015	3.15
419.377	2.96
419.738	3.22
420.1	3.08
420.461	3.12
420.822	2.96
421.184	3.12
421.545	3.1
421.906	3.04
422.267	2.95
422.629	3.21
422.99	3.08
423.351	2.97
423.712	2.9
424.073	2.98
424.434	3.06
424.795	3.01
425.155	3.05
425.516	3.01
425.877	3.02
426.238	2.91
426.598	2.96
426.959	2.99
427.32	3.01
427.68	3.02
428.041	2.99
428.401	3.13
428.761	3.09
429.122	3.08
429.482	3.02
429.842	2.96
430.202	2.85
430.563	3.16
430.923	3.23
431.283	3.4
431.643	3.21
432.003	3.12
432.363	3.21
432.722	3.2
433.082	3.24
433.442	3.03
433.802	3.25
434.161	3.01
434.521	3.14
434.881	3.31
435.24	3.17
435.6	3.05
435.959	3.04
436.319	3.08
436.678	3.09
437.037	3.24
437.396	3.13
437.756	3.02
438.115	3.23
438.474	3.17
438.833	3.22
439.192	3.13
439.551	3.1
439.91	3.24
440.269	3.14
440.628	3.02
440.987	3.13
441.345	3.18
441.704	3.25
442.063	3.12
442.421	3.02
442.78	3.24
443.138	3.09
443.497	3.06
443.855	3.19
444.214	3
444.572	3.23
444.93	3.09
445.288	3.11
445.647	3.2
446.005	3.12
446.363	3.01
446.721	3.13
447.079	3.1
447.437	3.2
447.795	3.21
448.153	3.1
448.51	3.12
448.868	3.06
449.226	3.1
449.584	3.05
449.941	2.97
450.299	3.13
450.656	3.26
451.014	3.12
451.371	3.21
451.729	3.13
452.086	3.09
452.443	3.21
452.801	3.27
453.158	3.12
453.515	3.31
453.872	3.13
454.229	3.2
454.586	3.19
454.943	3.07
455.3	3.21
455.657	3.12
456.014	3.35
456.371	3.26
456.727	3.41
457.084	3.25
457.441	3.17
457.797	3.2
458.154	3.21
458.51	3.12
458.867	3.13
459.223	3.22
459.58	3.29
459.936	3.25
460.292	3.23
460.648	3.33
461.005	3.08
461.361	3.17
461.717	2.92
462.073	3.07
462.429	3.01
462.785	3.16
463.141	3.1
463.496	3.23
463.852	3.27
464.208	3.06
464.564	3.41
464.919	3.34
465.275	3.39
465.631	3.39
465.986	3.28
466.342	3.38
466.697	3.36
467.052	3.22
467.408	3.44
467.763	3.28
468.118	3.41
468.473	3.2
468.829	3.14
469.184	3.21
469.539	3.23
469.894	3.22
470.249	3.24
470.603	3.27
470.958	3.23
471.313	3.29
471.668	3.38
472.023	3.28
472.377	3.13
472.732	3.18
473.086	3.44
473.441	3.31
473.795	3.47
474.15	3.15
474.504	3.29
474.859	3.38
475.213	3.03
475.567	3.14
475.921	3.15
476.275	3.21
476.63	3.41
476.984	3.27
477.338	3.24
477.692	3.21
478.045	3.38
478.399	3.4
478.753	3.21
479.107	3.29
479.461	3.25
479.814	3.33
480.168	3.31
480.521	3.24
480.875	3.38
481.228	3.21
481.582	3.22
481.935	3.25
482.289	3.22
482.642	3.12
482.995	3.24
483.348	3.37
483.701	3.21
484.055	3.16
484.408	3.14
484.761	3.2
485.114	2.97
485.466	3.01
485.819	2.98
486.172	2.98
486.525	2.97
486.878	3.04
487.23	3.07
487.583	3.12
487.936	3.12
488.288	3.14
488.641	3.09
488.993	3.06
489.345	3.02
489.698	3.06
490.05	3.05
490.402	3.06
490.754	3.04
491.107	3.06
491.459	3.16
491.811	3.15
492.163	3.16
492.515	3.12
492.866	3.15
493.218	3.17
493.57	3.05
493.922	3.01
494.274	3
494.625	3.11
494.977	3.21
495.328	3.33
495.68	3.31
496.031	3.14
496.383	3.23
496.734	3.25
497.086	3.26
497.437	3.35
497.788	3.29
498.139	3.25
498.49	3.29
498.842	3.14
499.193	3.09
499.544	3.3
499.894	3.14
500.245	3.22
500.596	3.21
500.947	3.21
501.298	3.25
501.648	3.18
501.999	3.29
502.35	3.29
502.7	3.32
503.051	3.31
503.401	3.34
503.752	3.35
504.102	3.28
504.452	3.24
504.803	3.18
505.153	3.17
505.503	3.29
505.853	3.38
506.203	3.29
506.553	3.32
506.903	3.36
507.253	3.24
507.603	3.34
507.953	3.31
508.303	3.24
508.652	3.08
509.002	3.36
509.352	3.24
509.701	3.38
510.051	3.38
510.4	3.18
510.75	3.25
511.099	3.1
511.449	3.21
511.798	3.25
512.147	3.14
512.496	3.22
512.846	3.1
513.195	3.13
513.544	3.26
513.893	3.19
514.242	3.09
514.591	3.34
514.939	3.28
515.288	3.11
515.637	3.32
515.986	3.24
516.334	3.29
516.683	3.18
517.032	3.41
517.38	3.27
517.729	3.17
518.077	3.24
518.426	3.3
518.774	3.24
519.122	3.17
519.47	3.18
519.819	3.15
520.167	3.17
520.515	3.14
520.863	3.09
521.211	3.13
521.559	3.21
521.907	3.22
522.255	3.22
522.602	3.26
522.95	3.22
523.298	3.33
523.645	3.2
523.993	3.19
524.341	3.11
524.688	3.32
525.036	3.34
525.383	3.28
525.73	3.25
526.078	3.25
526.425	3.23
526.772	3.32
527.119	3.18
527.466	3.16
527.814	3.14
528.161	3.01
528.508	3.12
528.854	3.14
529.201	3.19
529.548	3.13
529.895	3.11
530.242	3.11
530.588	3
530.935	2.92
531.282	2.96
531.628	3.02
531.975	3.02
532.321	3.09
532.667	3.11
533.014	3.18
533.36	3.12
533.706	3.14
534.052	3.21
534.399	3.19
534.745	3.11
535.091	3.03
535.437	3.06
535.783	2.95
536.129	3.04
536.474	3.17
536.82	3.11
537.166	3.27
537.512	3.1
537.857	3.21
538.203	3.2
538.549	3.11
538.894	3.08
539.239	3.17
539.585	2.99
539.93	3.28
540.276	3.26
540.621	3.17
540.966	3.31
541.311	3.24
541.656	3.17
542.001	3.22
542.346	3.12
542.691	3.11
543.036	3.09
543.381	3.02
543.726	3.02
544.071	3.03
544.415	3.01
544.76	3.03
545.105	2.97
545.449	3.03
545.794	3.15
546.138	3.18
546.483	3.14
546.827	3.09
547.171	3.16
547.516	3.13
547.86	3.22
548.204	3.18
548.548	3.13
548.892	3.17
549.236	3.03
549.58	3.06
549.924	3.27
550.268	3.3
550.612	3.11
550.956	3.15
551.3	3.27
551.643	3.3
551.987	3.15
552.33	3.33
552.674	3.15
553.017	3.11
553.361	3.12
553.704	3.3
554.048	3.25
554.391	3.23
554.734	3.26
555.077	3.19
555.42	3.15
555.764	3.14
556.107	3.28
556.45	3.13
556.793	3.15
557.135	3.21
557.478	3.09
557.821	3.23
558.164	3.47
558.507	3.34
558.849	2.97
559.192	3.25
559.534	3.29
559.877	3.18
560.219	3.14
560.562	3.21
560.904	3.32
561.246	3.28
561.589	3.13
561.931	3.24
562.273	3.08
562.615	3.24
562.957	3.22
563.299	3.13
563.641	3.16
563.983	3.25
564.325	3.22
564.667	3.43
565.008	3.27
565.35	3.1
565.692	3.3
566.033	3.21
566.375	3.2
566.716	3.29
567.058	3.11
567.399	3.21
567.741	3.24
568.082	3.12
568.423	3.09
568.764	3.26
569.105	3
569.447	3.2
569.788	3.06
570.129	3.3
570.47	3.27
570.811	3.11
571.151	3.24
571.492	3.01
571.833	3.11
572.174	3.01
572.514	3.1
572.855	3.1
573.195	3.11
573.536	3.16
573.876	3.21
574.217	3.15
574.557	3.01
574.898	3.18
575.238	3.06
575.578	3.2
575.918	3.21
576.258	3.07
576.598	3.08
576.938	3.03
577.278	3.33
577.618	2.89
577.958	3.25
578.298	3.34
578.638	3.03
578.977	3.21
579.317	3.11
579.657	3.21
579.996	3.08
580.336	3.32
580.675	3.29
581.014	2.84
581.354	3.14
581.693	3.46
582.032	3.38
582.372	3.39
582.711	3.11
583.05	3.39
583.389	3.23
583.728	3.17
584.067	3.23
584.406	3.45
584.745	2.98
585.083	3.44
585.422	3.43
585.761	3.09
586.1	3.13
586.438	3.02
586.777	3.17
587.115	3.25
587.454	3.01
587.792	3.47
588.13	3.3
588.469	3.18
588.807	3.22
589.145	3.15
589.483	3.19
589.821	3.26
590.159	3.35
590.497	3.29
590.835	3.16
591.173	3.27
591.511	3.3
591.849	3.32
592.187	2.96
592.524	3.48
592.862	3.23
593.2	3.17
593.537	3.17
593.875	3.22
594.212	3.16
594.55	3.4
594.887	3.23
595.224	3.53
595.561	3.35
595.899	3.28
596.236	3.52
596.573	3.44
596.91	3.2
597.247	3.28
597.584	3.36
597.921	3.39
598.258	3.16
598.594	3.44
598.931	3.18
599.268	3.23
599.604	3.25
599.941	3.1
600.277	3.06
600.614	3.24
600.95	3.2
601.287	3.14
601.623	3.27
601.959	3.41
602.296	3.27
602.632	3.12
602.968	3.27
603.304	3.16
603.64	3.1
603.976	3.05
604.312	3.3
604.648	3.17
604.984	3.28
605.319	3.14
605.655	2.9
605.991	3.28
606.326	3.36
606.662	3.09
606.998	2.98
607.333	3.13
607.668	3.12
608.004	3.37
608.339	3.14
608.674	3.14
609.01	3.13
609.345	3.1
609.68	3.38
610.015	3.13
610.35	3.04
610.685	3.3
611.02	3.2
611.355	3.29
611.689	3.22
612.024	3.24
612.359	3.18
612.694	3.18
613.028	3.07
613.363	3.18
613.697	3.08
614.032	3.35
614.366	3.31
614.7	3.11
615.035	3.52
615.369	3.28
615.703	2.9
616.037	3.19
616.371	3.47
616.705	3.53
617.039	3.21
617.373	3.04
617.707	2.98
618.041	3.42
618.375	3.27
618.709	3.22
619.042	3.48
619.376	3.7
619.71	3.2
620.043	3.1
620.377	2.91
620.71	3.31
621.043	3.42
621.377	3.23
621.71	3.15
622.043	3.56
622.376	3.54
622.709	3.49
623.043	3.18
623.376	3.22
623.709	3.29
624.041	3.1
624.374	3.03
624.707	3.27
625.04	3.68
625.373	3.22
625.705	3
626.038	3.37
626.37	3.29
626.703	3.2
627.035	3.03
627.368	3.26
627.7	3.32
628.032	3.53
628.365	3.38
628.697	3.38
629.029	3.35
629.361	3.23
629.693	3.33
630.025	3.29
630.357	3.05
630.689	3.13
631.021	2.94
631.353	3.17
631.684	2.97
632.016	3.35
632.348	3.25
632.679	3.3
633.011	3.19
633.342	3.55
633.674	3.43
634.005	3.12
634.336	3.31
634.668	3.33
634.999	3.46
635.33	3.17
635.661	3.02
635.992	3.52
636.323	3.53
636.654	2.8
636.985	3.19
637.316	3.11
637.647	3.22
637.977	3.01
638.308	3.72
638.639	3.2
638.969	3.39
639.3	3.02
639.63	3.53
639.961	2.88
640.291	3
640.622	3.6
640.952	3.28
641.282	3.48
641.612	3.2
641.943	3.46
642.273	3.5
642.603	2.84
642.933	3.09
643.263	2.91
643.592	2.88
643.922	3.35
644.252	3.15
644.582	3.42
644.911	3.49
645.241	3.6
645.571	3.34
645.9	3.44
646.23	3.28
646.559	3.77
646.888	3.33
647.218	3.59
647.547	3.11
647.876	3.42
648.205	3.08
648.534	3.45
648.863	3.23
649.192	2.72
649.521	3.48
649.85	3.55
650.179	3.3
650.508	2.84
650.837	3.73
651.165	3.27
651.494	3.35
651.822	3.1
652.151	3.23
652.479	3.64
652.808	3.48
653.136	3.98
653.465	3.5
653.793	3.02
654.121	3.29
654.449	2.98
654.777	3.58
655.105	3.51
655.433	3.34
655.761	3.66
656.089	3.18
656.417	3.44
656.745	3.33
657.073	3.47
657.4	4.22
657.728	3.7
658.056	3.65
658.383	3.66
658.711	3.44
659.038	3.23
659.365	3.3
659.693	2.95
660.02	3.62
660.347	3.46
660.674	2.89
661.001	3.07
661.329	3.35
661.656	3.16
661.982	2.87
662.309	3.6
662.636	3.44
662.963	3.42
663.29	3.32
663.616	3.55
663.943	3.43
664.27	3.27
664.596	3.47
664.923	3.58
665.249	3.2
665.576	2.91
665.902	3.48
666.228	3.39
666.554	2.85
666.881	3.97
667.207	3.7
667.533	3.4
667.859	3.35
668.185	3.43
668.511	3.67
668.837	3.45
669.162	3.88
669.488	3.65
669.814	3
670.139	3.36
670.465	3.82
670.791	3.38
671.116	3.36
671.442	3.79
671.767	3.08
672.092	3.49
672.418	4.21
672.743	3.62
673.068	3.94
673.393	3.09
673.718	4.16
674.043	3.87
674.368	3.85
674.693	3.26
675.018	3.76
675.343	3.79
675.667	3.62
675.992	2.98
676.317	4.07
676.641	2.94
676.966	4
677.29	2.76
677.615	3.36
677.939	3.71
678.264	3.15
678.588	4.13
678.912	3.75
679.236	3.56
679.56	3.56
679.885	3.11
680.209	3.46
680.532	3.11
680.856	2.93
681.18	3.91
681.504	3.35
681.828	3.36
682.152	3.42
682.475	4.13
682.799	3.75
683.122	3.12
683.446	3.6
683.769	3.33
684.093	3.67
684.416	4.12
684.739	3.41
685.062	4.75
685.386	3.09
685.709	3.01
686.032	3.57
686.355	3.01
686.678	3.96
687.001	3.86
687.324	3.95
687.646	3.65
687.969	3.93
688.292	3.18
688.614	4.78
688.937	3.44
689.26	2.99
689.582	4.14
689.904	3.37
690.227	4.28
690.549	4.18
690.871	2.79
691.194	3.24
691.516	3.38
691.838	3.36
692.16	3.17
692.482	3.28
692.804	3.01
693.126	3.79
693.448	4.46
693.769	3.38
694.091	3.88
694.413	3.73
694.735	3.7
695.056	3.9
695.378	3.65
695.699	3.72
696.021	3.34
696.342	4.28
696.663	2.58
696.984	3.19
697.306	3.4
697.627	3
697.948	3.89
698.269	3.52
698.59	3.72
698.911	3.97
699.232	4.27
699.553	3.72
699.873	3.62
700.194	4.09
700.515	2.96
700.835	4.37
701.156	3.71
701.477	3.57
701.797	3.47
702.117	4.12
702.438	3.35
702.758	2.94
703.078	3.98
703.398	4.08
703.719	3.31
704.039	4.58
704.359	3.61
704.679	2.88
704.999	4.39
705.319	4.18
705.638	3.47
705.958	4.03
706.278	4.54
706.597	4.81
706.917	4.33
707.237	3.49
707.556	2.58
707.876	3.29
708.195	4.58
708.514	2.99
708.834	3.04
709.153	3.75
709.472	2.94
709.791	3.56
710.11	3.97
710.429	4.37
710.748	3.67
711.067	3.69
711.386	4.4
711.705	3.66
712.023	3.99
712.342	3.86
712.661	3.88
712.979	3.46
713.298	4.55
713.616	4.96
713.935	3.53
714.253	4.58
714.572	4.57
714.89	4.57
715.208	4.77
715.526	3.46
715.844	4.59
716.162	3.52
716.48	4.17
716.798	3.12
717.116	4.1
717.434	4.14
717.752	4.07
718.069	3.19
718.387	5.12
718.705	4.23
719.022	4.07
719.34	4.13
719.657	2.56
719.975	4.28
720.292	3.74
720.609	3.99
720.927	4.31
721.244	4.81
721.561	4.76
721.878	2.87
722.195	4.1
722.512	4.88
722.829	4.45
723.146	3.33
723.463	3.27
723.779	4.31
724.096	3.51
724.413	5.4
724.729	4.62
725.046	4.67
725.362	4.07
725.679	3.9
725.995	5
726.311	3.16
726.628	3.68
726.944	3.34
727.26	3.92
727.576	3.78
727.892	3.73
728.208	4.58
728.524	4.69
728.84	2.41
729.156	4.54
729.472	5.97
729.787	4.12
730.103	3.16
730.419	4.94
730.734	4.54
731.05	2.4
731.365	3.5
731.681	4.43
731.996	3.86
732.311	4.48
732.626	3.7
732.942	4.38
733.257	4.24
733.572	3.26
733.887	3.21
734.202	5.33
734.517	4.1
734.832	3.59
735.146	4.33
735.461	5.15
735.776	4.3
736.091	3.67
736.405	3.83
736.72	3.86
737.034	2.48
737.349	3.55
737.663	5.29
737.977	5.17
738.292	3.66
738.606	5.5
738.92	4.26
739.234	3.61
739.548	3.68
739.862	2.21
740.176	3.56
740.49	3.94
740.804	5.09
741.117	3.59
741.431	4.58
741.745	4.95
742.058	2.73
742.372	2.98
742.685	4.04
742.999	4.65
743.312	5.54
743.626	3.42
743.939	3.22
744.252	4.45
744.565	2.45
744.878	5.4
745.191	3.88
745.505	4.34
745.817	3.8
746.13	5.64
746.443	8.27
746.756	3.82
747.069	4.74
747.381	1.25
747.694	3.99
748.007	4.24
748.319	5.5
748.632	4.01
748.944	6.87
749.256	5
749.569	3.43
749.881	4.87
750.193	7.13
750.505	6.9
750.817	5.22
751.129	4.23
751.441	7.18
751.753	7.02
752.065	6.05
752.377	5.39
752.689	3.98
753	4.42
753.312	4.51
753.624	3.97
753.935	5.71
754.247	3.47
754.558	5.5
754.869	4.32
755.181	4.83
755.492	3.96
755.803	7.35
756.114	4.58
756.425	7.3
756.736	3.35
757.047	4.7
757.358	4.78
757.669	1.75
757.98	5.41
758.291	4.14
758.601	4.37
758.912	4.12
759.223	6.41
759.533	5.47
759.844	5.68
760.154	4.73
760.464	4.22
760.775	5.81
761.085	5.48
761.395	5.34
761.705	5.41
762.016	5.38
762.326	4.56
762.636	5.67
762.945	3.81
763.255	4.4
763.565	5.25
763.875	4.12
764.185	6.72
764.494	6.53
764.804	3.54
765.113	3.92
765.423	3.98
765.732	4.09
766.042	5.95
766.351	3.58
766.66	5.25
766.97	5.14
767.279	5.75
767.588	5.48
767.897	4.45
768.206	6.49
768.515	3.95
768.824	6.33
769.133	3.41
769.441	5.11
769.75	7.13
770.059	8.12
770.367	4.27
770.676	6.51
770.984	4.06
771.293	6.59
771.601	5.42
771.91	7.3
772.218	4.8
772.526	5.93
772.834	3.48
773.142	5.43
773.45	5.85
773.758	6.25
774.066	5.08
774.374	4.17
774.682	3.88
774.99	8.13
775.298	4.5
775.605	6.58
775.913	7.67
776.22	4.25
776.528	6.25
776.835	2.69
777.143	5.01
777.45	6.85
777.757	3.99
778.065	5.66
778.372	3.32
778.679	6.59
778.986	3.23
779.293	3.72
779.6	3.75
779.907	2.62
780.214	9.71
780.52	3.55
780.827	6.59
781.134	6.04
781.44	6.02
781.747	4.71
782.053	5.21
782.36	7.37
782.666	4.22
782.973	6.28
783.279	4.41
783.585	5.61
783.891	6.45
784.197	7.89
784.503	2.59
784.809	7.54
785.115	4.41
785.421	9.89
785.727	7.43
786.033	4.21
786.339	4.22
786.644	8.37
786.95	8.02
787.255	8.98
787.561	7.65
787.866	1.99
788.172	5.16
788.477	6.83
788.782	4.91
789.088	3.93
789.393	3.08
789.698	8.91
790.003	7
790.308	4.13
790.613	6.85
790.918	6.58
791.223	2.71
791.527	3.21
791.832	5.84
792.137	6
792.441	11.93
792.746	5.44
793.05	7.05
793.355	8.32
793.659	5.64
793.963	8.56
794.268	5.85
794.572	2.81
794.876	6.71
795.18	6.03
795.484	5.27
795.788	3.37
796.092	7.39
796.396	6.41
796.7	6.35
797.004	5.67
797.307	1.38
797.611	0.42
797.915	4.33
798.218	7.84
798.522	7.63
798.825	4.82
799.128	9.83
799.432	2.44
799.735	8.57
800.038	8.75
800.341	8.32
800.644	8.9
800.947	7.23
801.25	8.5
801.553	9.48
801.856	10.7
802.159	7.76
802.462	5.18
802.764	4.68
803.067	6.77
803.37	8.92
803.672	6.47
803.975	7.15
804.277	12.5
804.579	11.44
804.882	5.88
805.184	13.04
805.486	7.05
805.788	5.26
806.09	7.36
806.392	3.4
806.694	2.43
806.996	5.57
807.298	4.28
807.6	10.03
807.902	7.23
808.203	5.28
808.505	5.9
808.807	3.81
809.108	11.35
809.409	7.05
809.711	6.84
810.012	6.66
810.313	6.79
810.615	7.05
810.916	6.17
811.217	7.29
811.518	7.47
811.819	11.58
812.12	5.74
812.421	7.03
812.722	6.51
813.023	11.26
813.323	6.9
813.624	8.12
813.925	12.34
814.225	12.77
814.526	8.87
814.826	10.41
815.126	8.12
815.427	3.26
815.727	2.62
816.027	4.75
816.327	15.43
816.627	8.47
816.927	5.62
817.227	11.09
817.527	6.7
817.827	5.21
818.127	5.47
818.427	10.3
818.727	10.05
819.026	16.52
819.326	7.84
819.625	7.67
819.925	6.22
820.224	5.44
820.524	5.77
820.823	6.93
821.122	1.43
821.421	11.66
821.72	5.2
822.019	6.49
822.318	10.14
822.617	4.32
822.916	9.07
823.215	7.13
823.514	4.73
823.813	11.51
824.111	9.48
824.41	5.21
824.709	5.1
825.007	5.02
825.306	5.92
825.604	5.02
825.902	5.34
826.201	6.32
826.499	6.17
826.797	7.24
827.095	7.27
827.393	7.55
827.691	6.57
827.989	5.16
828.287	5.58
828.585	7.81
828.882	7.93
829.18	6.01
829.478	6.31
829.775	7.63
830.073	4.25
830.37	6.06
830.668	6.06
830.965	6.34
831.263	6
831.56	4
831.857	4.88
832.154	8.4
832.451	5.38
832.748	6.57
833.045	10.26
833.342	8.2
833.639	7.15
833.936	10.35
834.232	8.57
834.529	8.37
834.826	2.4
835.122	12.41
835.419	6.03
835.715	10.13
836.012	6.38
836.308	13.84
836.604	10.07
836.901	5.79
837.197	9.9
837.493	5.43
837.789	6.61
838.085	6.24
838.381	9.19
838.677	7.31
838.972	5.86
839.268	11.33
839.564	10.06
839.86	8.66
840.155	6.93
840.451	7.77
840.746	10.2
841.042	7.07
841.337	11.17
841.632	13.11
841.928	13.1
842.223	13.65
842.518	10.48
842.813	14.99
843.108	8.6
843.403	11.44
843.698	17.17
843.993	9.85
844.287	15.15
844.582	0.04
844.877	1.48
845.171	16.11
845.466	9.02
845.761	8.95
846.055	-0.7
846.349	1.78
846.644	10.59
846.938	10.5
847.232	1.53
847.526	15.71
847.82	1.98
848.114	10.89
848.408	10.87
848.702	13.91
848.996	0.54
849.29	10.32
849.584	13.24
849.877	26.3
850.171	2.94
850.465	6.48
850.758	13.76
851.052	4.1
851.345	11.21
851.638	16.68
851.932	22.11
852.225	19.01
852.518	20.99
852.811	14.28
853.104	13.31
853.397	3.86
853.69	0.47
853.983	30.91
854.276	-0.09
854.569	16.8
854.861	-4.89
855.154	0.69
855.447	7.73
855.739	-7.85
856.032	-9.29
856.324	6.94
856.616	15.68
856.909	3.28
857.201	-6.05
857.493	22.67
857.785	13.5
858.077	33.28
858.369	17.64
858.661	29.97
858.953	18.47
859.245	11.57
859.537	13.69
859.829	16.11
860.12	19.98
860.412	21.48
860.703	5.86
860.995	6.2
861.286	28.85
861.578	27.57
861.869	11.01
862.16	7.79
862.452	-3.33
862.743	13.92
863.034	16.54
863.325	31.55
863.616	8.17
863.907	22.44
864.198	12.21
864.488	-3.53
864.779	-3.18
865.07	3.95
865.36	1.31
865.651	27.66
865.941	-31.45
866.232	-11.75
866.522	14.74
866.813	15.68
867.103	13.03
867.393	21.2
867.683	8.68
867.973	10.4
868.263	12.8
868.553	-9.71
868.843	22.18
869.133	15.75
869.423	18.77
869.713	27.01
870.002	29.29
870.292	31.86
870.582	21.34
870.871	8.17
871.161	-6.01
871.45	0.05
871.739	26.83
872.029	5.41
872.318	13.56
872.607	26.53
872.896	11.76
873.185	19.99
873.474	18.84
873.763	17.98
874.052	35.89
874.341	23.31
874.63	36.74
874.918	19.15
875.207	28.18
875.496	13
875.784	-4.45
876.073	14.48
876.361	1.32
876.649	-5.13
876.938	30.03
877.226	11.62
877.514	17.04
877.802	-1.77
878.09	14.95
878.378	0.6
878.666	6.52
878.954	45.06
879.242	38.42
879.53	-2.9
879.817	9
880.105	-20.64
880.392	-13.03
880.68	8.48
880.967	46.03
881.255	48.51
881.542	9.1
881.83	19.07
882.117	-13.82
882.404	-4.76
882.691	9.74
882.978	5.23
883.265	9.93
883.552	6.7
883.839	0.88
884.126	23.92
884.413	0.69
884.699	16.86
884.986	13.09
885.273	7.77
885.559	7.77
885.846	7.77
