Data from 0219_crown_Reflection__5__245.txt Node

Date: Fri Sep 22 22:45:38 CDT 2023
User: ToomeyLab
Spectrometer: FLMS14357
Trigger mode: 0
Integration Time (sec): 1.000000E-2
Scans to average: 100
Electric dark correction enabled: true
Nonlinearity correction enabled: false
Boxcar width: 0
XAxis mode: Wavelengths
Number of Pixels in Spectrum: 2048
>>>>>Begin Spectral Data<<<<<
189.047	143.19
189.435	143.19
189.823	143.19
190.211	-541.71
190.599	64.18
190.987	237.73
191.375	334.21
191.763	-4.4
192.151	133.42
192.538	-291.48
192.926	75.18
193.314	-4110.98
193.702	75.33
194.089	108.85
194.477	5.33
194.864	1242.28
195.252	257.75
195.639	-66.96
196.027	66.32
196.414	135.83
196.801	126.69
197.189	-105.65
197.576	35.06
197.963	-104.76
198.351	-5.53
198.738	7.49
199.125	14.22
199.512	26.82
199.899	36.52
200.286	-2.99
200.673	10.65
201.06	52.76
201.447	38.55
201.833	-11.09
202.22	50.51
202.607	23.63
202.994	28.74
203.38	40.84
203.767	40.16
204.154	38.54
204.54	21.19
204.927	39.52
205.313	53.45
205.699	56.05
206.086	39.34
206.472	45.35
206.858	55.36
207.245	7.11
207.631	26.51
208.017	32.24
208.403	33.42
208.789	15.51
209.175	28.78
209.561	41.2
209.947	27.04
210.333	7.49
210.719	-41.63
211.105	6.58
211.491	18.97
211.876	32.49
212.262	44.72
212.648	15.31
213.034	42.05
213.419	17.59
213.805	17.87
214.19	30.17
214.576	41.39
214.961	21.1
215.346	29.83
215.732	33.83
216.117	10.61
216.502	45.06
216.888	47.09
217.273	11.82
217.658	-12.6
218.043	16.38
218.428	18.86
218.813	13.33
219.198	-4.23
219.583	13.94
219.968	15.54
220.353	33.43
220.738	19.91
221.122	18.05
221.507	-7.89
221.892	14.06
222.276	3.32
222.661	-14.37
223.046	23.29
223.43	16.14
223.815	6.29
224.199	7.81
224.583	11.72
224.968	23.75
225.352	8.42
225.736	11.06
226.121	10.72
226.505	8.22
226.889	9.3
227.273	5.54
227.657	13.6
228.041	6.38
228.425	14.44
228.809	8.31
229.193	9.49
229.577	11.41
229.961	8.49
230.344	11.86
230.728	8.07
231.112	9.77
231.495	8.64
231.879	8.58
232.263	8.08
232.646	9.33
233.03	7.98
233.413	8.7
233.797	8.67
234.18	8.44
234.563	11.15
234.946	6.91
235.33	7.1
235.713	6.41
236.096	8.72
236.479	6.8
236.862	10.96
237.245	8.93
237.628	10.38
238.011	9.9
238.394	8.99
238.777	9.24
239.16	9.94
239.543	9.57
239.925	8.46
240.308	8.68
240.691	8.31
241.073	8.04
241.456	6.05
241.838	7.58
242.221	7.66
242.603	8.9
242.986	7.81
243.368	8.95
243.75	8.31
244.133	8.45
244.515	7.97
244.897	7.81
245.279	8.58
245.661	7.79
246.043	8.43
246.425	7.71
246.807	7.17
247.189	6.84
247.571	7.92
247.953	8.71
248.335	8.01
248.717	8.29
249.098	7.88
249.48	7.63
249.862	7.53
250.243	7.71
250.625	7.62
251.006	7.33
251.388	7.8
251.769	7.89
252.151	6.82
252.532	7.99
252.913	7.6
253.295	8.65
253.676	8.21
254.057	7.71
254.438	7.64
254.819	7.08
255.2	7.83
255.581	7.48
255.962	7.56
256.343	7.85
256.724	5.79
257.105	7.34
257.486	7.3
257.867	7.04
258.247	7.33
258.628	7.79
259.009	7.77
259.389	7.06
259.77	7.33
260.15	7.71
260.531	6.39
260.911	7.06
261.292	6.69
261.672	6.86
262.052	7.06
262.432	7.02
262.813	7.27
263.193	7.08
263.573	8.17
263.953	6.36
264.333	7.2
264.713	7.21
265.093	6.72
265.473	6.57
265.853	6.28
266.233	7.51
266.612	7.27
266.992	6.49
267.372	7.04
267.752	7.3
268.131	7.26
268.511	6.68
268.89	7.47
269.27	6.38
269.649	6.78
270.029	6.99
270.408	7.36
270.787	6.88
271.167	7.06
271.546	6.41
271.925	7.18
272.304	6.25
272.683	7.13
273.062	6.8
273.441	6.44
273.82	7.01
274.199	6.92
274.578	7.2
274.957	6.78
275.336	6.52
275.715	6.66
276.093	6.16
276.472	6.3
276.851	7.06
277.229	5.91
277.608	7.55
277.986	6.71
278.365	6.62
278.743	6.28
279.122	6.79
279.5	7.18
279.878	6.5
280.257	7.55
280.635	7
281.013	6.47
281.391	6.22
281.769	6.8
282.147	7.03
282.525	6.75
282.903	6.35
283.281	6.45
283.659	6.49
284.037	6.16
284.415	6.59
284.792	5.91
285.17	6.1
285.548	6.74
285.925	6.41
286.303	6.2
286.68	5.58
287.058	6.05
287.435	6.04
287.813	6.39
288.19	5.59
288.567	6.24
288.945	6.03
289.322	5.93
289.699	6.32
290.076	6.01
290.453	5.37
290.83	5.65
291.207	5.97
291.584	5.77
291.961	5.84
292.338	5.82
292.715	6.06
293.092	5.85
293.469	5.9
293.845	5.68
294.222	6.1
294.599	6.16
294.975	5.9
295.352	5.76
295.728	5.87
296.105	6.36
296.481	5.95
296.858	5.97
297.234	5.99
297.61	5.84
297.986	5.86
298.363	5.48
298.739	5.52
299.115	6.15
299.491	5.67
299.867	5.89
300.243	5.76
300.619	6.01
300.995	5.53
301.371	5.87
301.746	5.53
302.122	5.35
302.498	5.75
302.874	5.35
303.249	5.49
303.625	5.5
304	5.64
304.376	6.2
304.751	5.91
305.127	5.51
305.502	5.58
305.878	5.84
306.253	5.75
306.628	5.39
307.003	6.07
307.378	5.38
307.754	5.47
308.129	5.62
308.504	5.63
308.879	5.45
309.254	5.83
309.629	5.55
310.003	5.41
310.378	6.14
310.753	6.22
311.128	5.85
311.502	6.04
311.877	5.07
312.252	5.37
312.626	5.59
313.001	6.1
313.375	5.81
313.75	5.73
314.124	5.69
314.498	5.26
314.873	5.02
315.247	5.53
315.621	6.02
315.995	5.24
316.369	5.35
316.743	5.63
317.117	5.7
317.491	5.98
317.865	4.84
318.239	5.52
318.613	5.86
318.987	5.24
319.361	5.12
319.734	5.36
320.108	5.46
320.482	5.15
320.855	5.5
321.229	5.92
321.602	5.35
321.976	4.96
322.349	5.2
322.723	5.49
323.096	5.68
323.469	5.85
323.843	5.21
324.216	6.01
324.589	5.47
324.962	5.01
325.335	5.18
325.708	5.19
326.081	5.41
326.454	4.59
326.827	5.22
327.2	5.49
327.573	5.42
327.945	5.33
328.318	5.51
328.691	5.4
329.063	5.12
329.436	5.66
329.809	5.34
330.181	5.77
330.553	5.62
330.926	5.31
331.298	5.74
331.671	5.34
332.043	4.5
332.415	5.38
332.787	5.64
333.159	5.13
333.532	4.79
333.904	5.41
334.276	4.92
334.648	4.83
335.02	4.47
335.391	5.02
335.763	5.82
336.135	5.43
336.507	5.07
336.879	4.75
337.25	5.46
337.622	5.98
337.993	4.98
338.365	5.28
338.736	5.36
339.108	5.06
339.479	5.15
339.851	5.04
340.222	5.19
340.593	5.57
340.964	4.95
341.336	5.68
341.707	5.21
342.078	5.34
342.449	5.14
342.82	4.88
343.191	4.66
343.562	4.73
343.933	5.18
344.303	4.92
344.674	5.47
345.045	5.24
345.416	5.41
345.786	5.14
346.157	4.99
346.527	5.16
346.898	5.59
347.268	5.16
347.639	5.42
348.009	5.49
348.38	5.64
348.75	5.68
349.12	5.64
349.49	5.78
349.861	5.57
350.231	5.49
350.601	5.44
350.971	5.69
351.341	5.07
351.711	5.14
352.081	5.4
352.45	5.57
352.82	5.63
353.19	5.56
353.56	5.26
353.929	5.6
354.299	5.46
354.669	5.47
355.038	5.38
355.408	5.49
355.777	5.54
356.147	5.61
356.516	5.48
356.885	5.48
357.254	5.73
357.624	5.22
357.993	5.22
358.362	5.5
358.731	5.26
359.1	5.5
359.469	5.73
359.838	5.22
360.207	5.24
360.576	5.61
360.945	5.16
361.314	5.55
361.682	5.88
362.051	5.6
362.42	5.28
362.788	5.39
363.157	5.67
363.525	5.61
363.894	5.17
364.262	5.35
364.631	5.28
364.999	5.26
365.367	5.54
365.735	5.34
366.104	5.29
366.472	5.83
366.84	5.47
367.208	5.5
367.576	5.5
367.944	5.42
368.312	5.66
368.68	5.72
369.048	5.56
369.416	5.75
369.783	5.43
370.151	5.56
370.519	5.4
370.886	5.79
371.254	5.76
371.621	5.42
371.989	5.91
372.356	5.18
372.724	5.97
373.091	5.57
373.458	5.67
373.826	5.45
374.193	5.59
374.56	5.77
374.927	5.73
375.294	5.55
375.661	5.72
376.028	5.7
376.395	5.51
376.762	5.58
377.129	5.91
377.496	6.03
377.863	6.07
378.229	6.02
378.596	5.68
378.963	5.86
379.329	5.67
379.696	5.82
380.062	5.31
380.429	5.73
380.795	5.96
381.161	5.66
381.528	5.66
381.894	5.18
382.26	5.58
382.626	5.7
382.993	5.86
383.359	5.46
383.725	5.48
384.091	5.8
384.457	5.45
384.823	5.76
385.188	5.84
385.554	5.84
385.92	5.95
386.286	5.59
386.651	5.68
387.017	6
387.383	5.48
387.748	5.52
388.114	5.59
388.479	5.88
388.845	5.49
389.21	5.46
389.575	6.12
389.94	5.55
390.306	5.45
390.671	5.93
391.036	5.76
391.401	5.79
391.766	5.64
392.131	5.81
392.496	5.95
392.861	5.65
393.226	6
393.591	5.96
393.956	5.63
394.32	5.9
394.685	5.8
395.05	5.84
395.414	6.09
395.779	5.81
396.143	5.8
396.508	5.71
396.872	5.76
397.236	5.77
397.601	5.72
397.965	6.04
398.329	5.72
398.694	6.02
399.058	5.77
399.422	5.83
399.786	5.94
400.15	6.18
400.514	6.09
400.878	5.83
401.242	6.11
401.605	5.82
401.969	5.73
402.333	5.98
402.697	5.69
403.06	5.82
403.424	5.97
403.787	6.05
404.151	5.83
404.514	5.86
404.878	5.99
405.241	6.26
405.604	6.03
405.968	5.92
406.331	6.01
406.694	6.03
407.057	5.91
407.42	6.04
407.783	5.81
408.146	5.96
408.509	5.94
408.872	5.94
409.235	5.91
409.598	5.91
409.961	6.09
410.323	6.13
410.686	5.88
411.049	6.16
411.411	6.04
411.774	5.82
412.136	5.96
412.499	5.93
412.861	5.99
413.223	6.07
413.586	5.94
413.948	5.92
414.31	5.94
414.672	6.1
415.035	5.98
415.397	6.23
415.759	6.31
416.121	5.95
416.483	5.95
416.845	6.16
417.206	5.96
417.568	6.15
417.93	6.11
418.292	5.98
418.653	5.9
419.015	6.08
419.377	5.96
419.738	6.09
420.1	5.94
420.461	6.06
420.822	6.02
421.184	5.98
421.545	5.94
421.906	5.99
422.267	6.02
422.629	6.06
422.99	6.03
423.351	5.88
423.712	5.88
424.073	5.93
424.434	6.01
424.795	6.03
425.155	6.14
425.516	6.05
425.877	6.05
426.238	5.81
426.598	5.96
426.959	6.08
427.32	6.12
427.68	6.04
428.041	5.96
428.401	6.15
428.761	6.24
429.122	6.11
429.482	6.19
429.842	5.99
430.202	6.14
430.563	6.39
430.923	6.27
431.283	6.25
431.643	6.22
432.003	6.27
432.363	6.41
432.722	6.29
433.082	6.25
433.442	6.19
433.802	6.44
434.161	6.16
434.521	6.24
434.881	6.2
435.24	6.13
435.6	6.26
435.959	6.09
436.319	6.13
436.678	6.18
437.037	6.33
437.396	6.21
437.756	6.44
438.115	6.28
438.474	6.29
438.833	6.31
439.192	6.3
439.551	6.19
439.91	6.36
440.269	6.24
440.628	6.17
440.987	6.34
441.345	6.44
441.704	6.26
442.063	6.25
442.421	6.26
442.78	6.19
443.138	6.19
443.497	6.27
443.855	6.29
444.214	6.09
444.572	6.41
444.93	6.36
445.288	6.35
445.647	6.4
446.005	6.21
446.363	6.24
446.721	6.3
447.079	6.12
447.437	6.25
447.795	6.35
448.153	6.29
448.51	6.28
448.868	6.23
449.226	6.25
449.584	6.24
449.941	6.16
450.299	6.31
450.656	6.31
451.014	6.43
451.371	6.27
451.729	6.27
452.086	6.38
452.443	6.47
452.801	6.32
453.158	6.32
453.515	6.64
453.872	6.41
454.229	6.46
454.586	6.53
454.943	6.35
455.3	6.36
455.657	6.42
456.014	6.39
456.371	6.61
456.727	6.62
457.084	6.59
457.441	6.6
457.797	6.59
458.154	6.5
458.51	6.42
458.867	6.46
459.223	6.51
459.58	6.51
459.936	6.58
460.292	6.54
460.648	6.56
461.005	6.49
461.361	6.48
461.717	6.28
462.073	6.5
462.429	6.28
462.785	6.26
463.141	6.46
463.496	6.58
463.852	6.47
464.208	6.51
464.564	6.6
464.919	6.49
465.275	6.74
465.631	6.58
465.986	6.67
466.342	6.55
466.697	6.56
467.052	6.6
467.408	6.52
467.763	6.7
468.118	6.73
468.473	6.47
468.829	6.54
469.184	6.53
469.539	6.56
469.894	6.53
470.249	6.56
470.603	6.52
470.958	6.63
471.313	6.56
471.668	6.67
472.023	6.63
472.377	6.67
472.732	6.68
473.086	6.58
473.441	6.5
473.795	6.72
474.15	6.52
474.504	6.6
474.859	6.81
475.213	6.46
475.567	6.49
475.921	6.63
476.275	6.72
476.63	6.61
476.984	6.64
477.338	6.51
477.692	6.53
478.045	6.85
478.399	6.7
478.753	6.64
479.107	6.45
479.461	6.51
479.814	6.72
480.168	6.68
480.521	6.54
480.875	6.81
481.228	6.61
481.582	6.44
481.935	6.57
482.289	6.47
482.642	6.46
482.995	6.74
483.348	6.53
483.701	6.54
484.055	6.47
484.408	6.57
484.761	6.49
485.114	6.33
485.466	6.33
485.819	6.26
486.172	6.23
486.525	6.22
486.878	6.19
487.23	6.24
487.583	6.27
487.936	6.42
488.288	6.46
488.641	6.38
488.993	6.35
489.345	6.33
489.698	6.34
490.05	6.36
490.402	6.34
490.754	6.25
491.107	6.32
491.459	6.4
491.811	6.34
492.163	6.46
492.515	6.43
492.866	6.4
493.218	6.41
493.57	6.41
493.922	6.33
494.274	6.35
494.625	6.34
494.977	6.39
495.328	6.48
495.68	6.51
496.031	6.49
496.383	6.54
496.734	6.64
497.086	6.61
497.437	6.52
497.788	6.6
498.139	6.61
498.49	6.72
498.842	6.45
499.193	6.42
499.544	6.55
499.894	6.58
500.245	6.55
500.596	6.55
500.947	6.58
501.298	6.62
501.648	6.69
501.999	6.61
502.35	6.61
502.7	6.6
503.051	6.73
503.401	6.58
503.752	6.85
504.102	6.65
504.452	6.63
504.803	6.68
505.153	6.6
505.503	6.56
505.853	6.68
506.203	6.55
506.553	6.61
506.903	6.57
507.253	6.56
507.603	6.66
507.953	6.73
508.303	6.76
508.652	6.71
509.002	6.84
509.352	6.57
509.701	6.63
510.051	6.67
510.4	6.7
510.75	6.51
511.099	6.4
511.449	6.62
511.798	6.72
512.147	6.5
512.496	6.52
512.846	6.47
513.195	6.48
513.544	6.52
513.893	6.7
514.242	6.64
514.591	6.54
514.939	6.65
515.288	6.48
515.637	6.52
515.986	6.46
516.334	6.56
516.683	6.55
517.032	6.65
517.38	6.66
517.729	6.53
518.077	6.63
518.426	6.63
518.774	6.64
519.122	6.52
519.47	6.62
519.819	6.51
520.167	6.59
520.515	6.52
520.863	6.47
521.211	6.47
521.559	6.46
521.907	6.5
522.255	6.51
522.602	6.5
522.95	6.5
523.298	6.49
523.645	6.69
523.993	6.42
524.341	6.47
524.688	6.64
525.036	6.54
525.383	6.53
525.73	6.56
526.078	6.55
526.425	6.61
526.772	6.61
527.119	6.47
527.466	6.46
527.814	6.38
528.161	6.34
528.508	6.42
528.854	6.43
529.201	6.52
529.548	6.42
529.895	6.36
530.242	6.33
530.588	6.27
530.935	6.18
531.282	6.16
531.628	6.2
531.975	6.25
532.321	6.23
532.667	6.34
533.014	6.31
533.36	6.4
533.706	6.43
534.052	6.48
534.399	6.41
534.745	6.37
535.091	6.33
535.437	6.31
535.783	6.23
536.129	6.32
536.474	6.31
536.82	6.2
537.166	6.48
537.512	6.48
537.857	6.41
538.203	6.51
538.549	6.35
538.894	6.35
539.239	6.23
539.585	6.35
539.93	6.36
540.276	6.37
540.621	6.37
540.966	6.38
541.311	6.6
541.656	6.43
542.001	6.48
542.346	6.44
542.691	6.39
543.036	6.26
543.381	6.36
543.726	6.18
544.071	6.13
544.415	6.18
544.76	6.1
545.105	6.12
545.449	6.28
545.794	6.29
546.138	6.26
546.483	6.23
546.827	6.18
547.171	6.28
547.516	6.45
547.86	6.39
548.204	6.39
548.548	6.49
548.892	6.38
549.236	6.29
549.58	6.34
549.924	6.41
550.268	6.53
550.612	6.37
550.956	6.52
551.3	6.39
551.643	6.4
551.987	6.47
552.33	6.54
552.674	6.36
553.017	6.37
553.361	6.47
553.704	6.53
554.048	6.63
554.391	6.46
554.734	6.54
555.077	6.42
555.42	6.34
555.764	6.18
556.107	6.4
556.45	6.43
556.793	6.41
557.135	6.35
557.478	6.16
557.821	6.41
558.164	6.32
558.507	6.7
558.849	6.33
559.192	6.37
559.534	6.61
559.877	6.45
560.219	6.43
560.562	6.46
560.904	6.54
561.246	6.66
561.589	6.31
561.931	6.46
562.273	6.28
562.615	6.31
562.957	6.31
563.299	6.35
563.641	6.22
563.983	6.49
564.325	6.29
564.667	6.38
565.008	6.11
565.35	6.36
565.692	6.24
566.033	6.3
566.375	6.32
566.716	6.43
567.058	6.2
567.399	6.32
567.741	6.48
568.082	6.31
568.423	6.35
568.764	6.43
569.105	6.16
569.447	6.23
569.788	5.98
570.129	6.33
570.47	6.44
570.811	6.35
571.151	6.5
571.492	6.28
571.833	6.23
572.174	6.41
572.514	6.36
572.855	6.07
573.195	6.17
573.536	6.15
573.876	6.21
574.217	6.16
574.557	6.26
574.898	6.25
575.238	6.19
575.578	6.22
575.918	6.24
576.258	5.98
576.598	6.24
576.938	6.11
577.278	6.23
577.618	6.14
577.958	6.14
578.298	6.35
578.638	6.03
578.977	6.29
579.317	6.1
579.657	6.18
579.996	6.28
580.336	6.26
580.675	6.42
581.014	6.14
581.354	6.06
581.693	6.42
582.032	6.11
582.372	6.28
582.711	6.09
583.05	6.24
583.389	6.11
583.728	6.16
584.067	6.17
584.406	6.27
584.745	5.99
585.083	6.35
585.422	6.26
585.761	6.14
586.1	6.32
586.438	6.17
586.777	6.08
587.115	6.25
587.454	5.89
587.792	6.31
588.13	6.36
588.469	6.11
588.807	6.35
589.145	6.44
589.483	6.12
589.821	6.08
590.159	6.22
590.497	6.35
590.835	6.14
591.173	6.13
591.511	6.02
591.849	6.23
592.187	6.19
592.524	6.24
592.862	6.26
593.2	5.98
593.537	6.01
593.875	6.12
594.212	6.15
594.55	6.36
594.887	5.74
595.224	6.02
595.561	6.08
595.899	6.37
596.236	6.5
596.573	6.32
596.91	6.02
597.247	6.15
597.584	6.42
597.921	6.3
598.258	6.04
598.594	6.03
598.931	6.18
599.268	6.03
599.604	6.11
599.941	6.09
600.277	6.05
600.614	6.02
600.95	6.19
601.287	5.86
601.623	5.93
601.959	6.22
602.296	6.12
602.632	6.03
602.968	5.87
603.304	6.04
603.64	5.94
603.976	6.03
604.312	6.32
604.648	6.21
604.984	5.9
605.319	5.95
605.655	5.89
605.991	5.94
606.326	6.21
606.662	5.84
606.998	5.91
607.333	6.06
607.668	5.84
608.004	6.02
608.339	6.01
608.674	6.16
609.01	6.04
609.345	6.02
609.68	6.24
610.015	5.74
610.35	5.89
610.685	6.12
611.02	5.99
611.355	6.08
611.689	5.89
612.024	6.06
612.359	5.85
612.694	5.91
613.028	5.82
613.363	6.01
613.697	5.92
614.032	5.99
614.366	5.7
614.7	5.81
615.035	6.26
615.369	5.85
615.703	5.85
616.037	6.01
616.371	6.16
616.705	6.27
617.039	6.39
617.373	6.04
617.707	5.94
618.041	6
618.375	6.09
618.709	5.98
619.042	6.68
619.376	6.26
619.71	5.9
620.043	5.55
620.377	6.03
620.71	6.09
621.043	6.19
621.377	5.78
621.71	6.07
622.043	5.88
622.376	6.17
622.709	6
623.043	5.62
623.376	5.95
623.709	6.21
624.041	5.76
624.374	6.23
624.707	5.95
625.04	6.32
625.373	5.94
625.705	6.16
626.038	5.63
626.37	6.15
626.703	5.88
627.035	5.83
627.368	5.86
627.7	6.27
628.032	6.4
628.365	5.9
628.697	6.07
629.029	5.94
629.361	6.06
629.693	5.72
630.025	5.93
630.357	5.64
630.689	6.01
631.021	5.96
631.353	5.93
631.684	6.01
632.016	6.5
632.348	6.12
632.679	5.75
633.011	6.16
633.342	5.84
633.674	6.41
634.005	5.7
634.336	6.11
634.668	5.78
634.999	6.03
635.33	6.32
635.661	5.86
635.992	6.02
636.323	5.94
636.654	6.02
636.985	5.94
637.316	5.97
637.647	5.99
637.977	5.34
638.308	6.26
638.639	5.92
638.969	6.33
639.3	5.87
639.63	6.25
639.961	5.84
640.291	6.13
640.622	5.95
640.952	5.92
641.282	6.25
641.612	5.88
641.943	6.04
642.273	5.89
642.603	5.9
642.933	5.6
643.263	5.75
643.592	5.88
643.922	5.9
644.252	5.69
644.582	6.13
644.911	5.88
645.241	6.22
645.571	5.53
645.9	5.79
646.23	6.31
646.559	6.15
646.888	5.96
647.218	5.85
647.547	5.78
647.876	5.91
648.205	5.84
648.534	6.36
648.863	5.77
649.192	5.59
649.521	6.14
649.85	5.94
650.179	5.99
650.508	5.34
650.837	6.24
651.165	5.93
651.494	5.91
651.822	5.96
652.151	5.61
652.479	5.74
652.808	5.45
653.136	6.42
653.465	6.07
653.793	5.96
654.121	6.05
654.449	5.98
654.777	5.75
655.105	6.38
655.433	5.98
655.761	6.03
656.089	5.91
656.417	5.89
656.745	5.96
657.073	6.1
657.4	6.19
657.728	6.18
658.056	6.45
658.383	5.89
658.711	5.7
659.038	5.46
659.365	5.68
659.693	6.11
660.02	6.32
660.347	6.38
660.674	5.9
661.001	5.85
661.329	5.3
661.656	5.95
661.982	5.52
662.309	6.16
662.636	5.88
662.963	6.06
663.29	5.77
663.616	5.68
663.943	6.34
664.27	5.96
664.596	6.17
664.923	5.5
665.249	5.94
665.576	5.49
665.902	5.6
666.228	5.63
666.554	5.96
666.881	6.3
667.207	5.77
667.533	5.84
667.859	6.18
668.185	6.15
668.511	5.93
668.837	6.14
669.162	6.01
669.488	6.07
669.814	5.85
670.139	6.11
670.465	6.21
670.791	6.1
671.116	5.69
671.442	6.67
671.767	5.14
672.092	6.43
672.418	6.83
672.743	5.81
673.068	6.13
673.393	5.85
673.718	6.22
674.043	6.7
674.368	6.55
674.693	5.8
675.018	6.06
675.343	6.34
675.667	5.73
675.992	5.99
676.317	6.24
676.641	5.69
676.966	6.34
677.29	5.44
677.615	6.16
677.939	6.47
678.264	5.95
678.588	6.9
678.912	5.47
679.236	6.45
679.56	6.63
679.885	5.54
680.209	6.81
680.532	6.4
680.856	5.83
681.18	5.9
681.504	6.27
681.828	6.65
682.152	5.7
682.475	6.58
682.799	6.17
683.122	5.99
683.446	6.43
683.769	5.83
684.093	5.97
684.416	6.76
684.739	6.49
685.062	6.37
685.386	5.97
685.709	5.65
686.032	5.42
686.355	6.03
686.678	6.46
687.001	6.03
687.324	6.8
687.646	6.09
687.969	6.86
688.292	5.49
688.614	6.34
688.937	6.15
689.26	6.18
689.582	7.08
689.904	5.84
690.227	6.56
690.549	6.79
690.871	6.05
691.194	6.63
691.516	6.2
691.838	6.2
692.16	6.71
692.482	5.84
692.804	6.34
693.126	5.43
693.448	6.7
693.769	5.51
694.091	6.94
694.413	6.69
694.735	7.26
695.056	6.57
695.378	6
695.699	5.91
696.021	5.87
696.342	6.88
696.663	5.91
696.984	6.8
697.306	6.52
697.627	5.41
697.948	5.72
698.269	6.43
698.59	5.39
698.911	6.06
699.232	6.16
699.553	6.23
699.873	6.9
700.194	5.68
700.515	5.47
700.835	6.54
701.156	6.44
701.477	6.2
701.797	6.27
702.117	6.22
702.438	6.19
702.758	5.63
703.078	6.36
703.398	6.91
703.719	6.24
704.039	6.78
704.359	6.16
704.679	5.64
704.999	6.89
705.319	6.32
705.638	5.02
705.958	6.65
706.278	6.63
706.597	6.9
706.917	6.63
707.237	6.58
707.556	6.02
707.876	5.98
708.195	6.45
708.514	6.96
708.834	4.96
709.153	6.59
709.472	6.07
709.791	5.69
710.11	6.75
710.429	7.3
710.748	6.8
711.067	6.41
711.386	6.68
711.705	5.83
712.023	7.14
712.342	6.73
712.661	6.4
712.979	6.56
713.298	7.18
713.616	5.68
713.935	6.94
714.253	6.99
714.572	6.61
714.89	7.15
715.208	7.01
715.526	6.06
715.844	6.16
716.162	5.37
716.48	6.01
716.798	6.13
717.116	7.25
717.434	5.77
717.752	6.13
718.069	5.89
718.387	6.96
718.705	5.72
719.022	6.51
719.34	7.47
719.657	5.49
719.975	5.85
720.292	7.03
720.609	6.92
720.927	6.75
721.244	7.11
721.561	7.6
721.878	7.11
722.195	5.61
722.512	5.68
722.829	7.76
723.146	7.66
723.463	6.65
723.779	6.53
724.096	6.65
724.413	8.1
724.729	6.47
725.046	6.45
725.362	7.61
725.679	7.03
725.995	7.28
726.311	5.85
726.628	7.69
726.944	6.88
727.26	5.1
727.576	5.54
727.892	5
728.208	7.8
728.524	7.45
728.84	6.34
729.156	6.69
729.472	8.2
729.787	6.91
730.103	6.64
730.419	8.48
730.734	6.54
731.05	5.63
731.365	6.76
731.681	6.8
731.996	6.7
732.311	6.93
732.626	6.72
732.942	6.01
733.257	7.18
733.572	5.99
733.887	6.14
734.202	5.94
734.517	7.35
734.832	6.8
735.146	7.69
735.461	7.13
735.776	5.69
736.091	7.65
736.405	6.2
736.72	6.86
737.034	5.64
737.349	5.7
737.663	6.3
737.977	8
738.292	5.69
738.606	6.82
738.92	7.3
739.234	5.85
739.548	6.64
739.862	4.77
740.176	8.04
740.49	4.91
740.804	7.15
741.117	6.03
741.431	6.92
741.745	7.7
742.058	6.14
742.372	4.18
742.685	6.67
742.999	7.5
743.312	7.09
743.626	5.15
743.939	4.38
744.252	6.59
744.565	4.42
744.878	6.97
745.191	6.34
745.505	6.22
745.817	6.73
746.13	8.16
746.443	7.43
746.756	6.55
747.069	6.17
747.381	3.11
747.694	7.64
748.007	8.23
748.319	6.97
748.632	7.63
748.944	6.9
749.256	8.58
749.569	5.31
749.881	8
750.193	8.69
750.505	9.09
750.817	9.32
751.129	5.8
751.441	8.2
751.753	9.25
752.065	7.87
752.377	7.02
752.689	6.89
753	6.24
753.312	6.63
753.624	6.95
753.935	7.68
754.247	5.97
754.558	8.74
754.869	7.05
755.181	7.68
755.492	5.72
755.803	8.46
756.114	9.03
756.425	9.32
756.736	5.48
757.047	6.75
757.358	5.91
757.669	6.17
757.98	7.17
758.291	7.38
758.601	8.06
758.912	7.18
759.223	9.64
759.533	8.17
759.844	7.39
760.154	6.31
760.464	5.92
760.775	8.12
761.085	9.14
761.395	6.89
761.705	7.09
762.016	7.2
762.326	5.23
762.636	8.24
762.945	8.19
763.255	6.05
763.565	7.98
763.875	6.43
764.185	6.99
764.494	7.99
764.804	8.11
765.113	7.25
765.423	8.02
765.732	7.66
766.042	8.38
766.351	6.06
766.66	6.93
766.97	7.25
767.279	6.34
767.588	5.91
767.897	6.7
768.206	7.21
768.515	8.88
768.824	7.27
769.133	9.6
769.441	7.68
769.75	9.03
770.059	7.88
770.367	8.22
770.676	7.17
770.984	4.47
771.293	8.23
771.601	10.96
771.91	7.96
772.218	7.07
772.526	5.04
772.834	6.93
773.142	7.14
773.45	7.09
773.758	5.76
774.066	6.63
774.374	7.94
774.682	8.93
774.99	8.59
775.298	6.46
775.605	9.13
775.913	11.82
776.22	7.43
776.528	5.22
776.835	7.11
777.143	6.35
777.45	9.61
777.757	3.15
778.065	7.25
778.372	9.35
778.679	9.68
778.986	8.44
779.293	4.27
779.6	4.77
779.907	9.55
780.214	12.51
780.52	6.07
780.827	4.74
781.134	10.75
781.44	9.57
781.747	6.05
782.053	7.59
782.36	9.13
782.666	9.16
782.973	10.56
783.279	7.58
783.585	8.37
783.891	8.22
784.197	8.84
784.503	7.7
784.809	7.85
785.115	6.79
785.421	16.6
785.727	7.49
786.033	9.27
786.339	10.01
786.644	10.65
786.95	6.21
787.255	9.09
787.561	9.67
787.866	7.4
788.172	12.1
788.477	5.45
788.782	6.92
789.088	5.87
789.393	6.93
789.698	12.65
790.003	8.92
790.308	5.63
790.613	10.82
790.918	8.44
791.223	10.07
791.527	2.74
791.832	10.92
792.137	4.19
792.441	10.38
792.746	7.26
793.05	6.01
793.355	10.48
793.659	9.81
793.963	12.11
794.268	5.47
794.572	7.34
794.876	6.48
795.18	8.95
795.484	5.26
795.788	6.96
796.092	10.83
796.396	10.51
796.7	10.36
797.004	7.16
797.307	6.44
797.611	5.07
797.915	9.86
798.218	10.99
798.522	7.06
798.825	9.36
799.128	8.68
799.432	4.69
799.735	8.27
800.038	13.98
800.341	7.28
800.644	8.37
800.947	7.13
801.25	8.6
801.553	15.39
801.856	12.81
802.159	5.95
802.462	7.04
802.764	9.75
803.067	6.11
803.37	13.61
803.672	12.24
803.975	2.99
804.277	11.03
804.579	14.37
804.882	10.89
805.184	7.86
805.486	5.81
805.788	13.02
806.09	11.77
806.392	6.88
806.694	8.25
806.996	8.36
807.298	8.8
807.6	13.29
807.902	14.24
808.203	5.71
808.505	10.6
808.807	12.42
809.108	12.29
809.409	11.61
809.711	12.56
810.012	12.01
810.313	8.95
810.615	10.3
810.916	5.19
811.217	14.06
811.518	11.56
811.819	16.03
812.12	9.6
812.421	8.37
812.722	13.23
813.023	11.18
813.323	1.48
813.624	16.9
813.925	13.02
814.225	13.22
814.526	8.82
814.826	12.66
815.126	11.21
815.427	12.64
815.727	8.04
816.027	8.95
816.327	13.67
816.627	14.71
816.927	11.69
817.227	6.93
817.527	5.21
817.827	4.21
818.127	9.06
818.427	10.96
818.727	10.47
819.026	13.44
819.326	3.69
819.625	7.54
819.925	11.61
820.224	19.19
820.524	6.18
820.823	10.44
821.122	1.95
821.421	10.03
821.72	13.13
822.019	7.73
822.318	8.38
822.617	9.86
822.916	7.94
823.215	11.46
823.514	7.57
823.813	13.21
824.111	13.13
824.41	10.86
824.709	7.2
825.007	8.36
825.306	8.35
825.604	8.01
825.902	7.99
826.201	8.83
826.499	8.01
826.797	8.27
827.095	7.73
827.393	9.46
827.691	9.32
827.989	5.67
828.287	8.85
828.585	9.8
828.882	9.02
829.18	10.19
829.478	9.28
829.775	10.27
830.073	9.28
830.37	7.41
830.668	8.34
830.965	9.91
831.263	6.86
831.56	8.36
831.857	8.52
832.154	13.11
832.451	7.15
832.748	11.36
833.045	7.81
833.342	10.15
833.639	7.76
833.936	13.96
834.232	9.33
834.529	12.39
834.826	1.93
835.122	20.43
835.419	3.54
835.715	11.61
836.012	8.37
836.308	10.84
836.604	11.14
836.901	8.11
837.197	12.93
837.493	7.31
837.789	5.62
838.085	6.52
838.381	9.73
838.677	7.72
838.972	6.68
839.268	10.28
839.564	13.55
839.86	15.39
840.155	11.26
840.451	10.62
840.746	12.18
841.042	6.66
841.337	11.62
841.632	13.29
841.928	9.19
842.223	14.21
842.518	16.37
842.813	9.46
843.108	10.27
843.403	14.54
843.698	13.13
843.993	11.99
844.287	12.49
844.582	8.89
844.877	11.22
845.171	11.38
845.466	11.24
845.761	5.35
846.055	16.29
846.349	-0.56
846.644	8.99
846.938	3.09
847.232	3.12
847.526	5.43
847.82	9.72
848.114	20.63
848.408	13.69
848.702	18.13
848.996	18.66
849.29	27.14
849.584	16.57
849.877	24.16
850.171	13.12
850.465	8.07
850.758	8.94
851.052	-9.03
851.345	23.72
851.638	17.42
851.932	21.5
852.225	27.02
852.518	30.33
852.811	28.38
853.104	29.31
853.397	20.15
853.69	8.22
853.983	23.9
854.276	5.93
854.569	25.38
854.861	1.31
855.154	6.64
855.447	23.57
855.739	-28.74
856.032	9.35
856.324	12.08
856.616	33.61
856.909	17.24
857.201	-0.95
857.493	21.65
857.785	19.47
858.077	24.33
858.369	12.46
858.661	32.66
858.953	12.57
859.245	7.44
859.537	30.36
859.829	7.33
860.12	26.7
860.412	6.2
860.703	17.01
860.995	13.06
861.286	22.21
861.578	20.17
861.869	-4.01
862.16	2.2
862.452	-21.87
862.743	23.32
863.034	23.33
863.325	33.19
863.616	23.12
863.907	10.78
864.198	2.36
864.488	-12
864.779	7.64
865.07	1.13
865.36	-10.85
865.651	14.79
865.941	0.42
866.232	6.05
866.522	13.61
866.813	16.2
867.103	-1.73
867.393	25
867.683	-2.82
867.973	0.52
868.263	-10.83
868.553	-23.15
868.843	16.29
869.133	20.73
869.423	17.82
869.713	16.22
870.002	30.98
870.292	-5.05
870.582	16.49
870.871	7.72
871.161	23.1
871.45	28.84
871.739	19.36
872.029	6.59
872.318	52.56
872.607	19.27
872.896	1.77
873.185	11.78
873.474	35.55
873.763	-2.61
874.052	9.09
874.341	18.85
874.63	17.09
874.918	-26.12
875.207	22.86
875.496	39.54
875.784	2.74
876.073	11.92
876.361	-2.13
876.649	-0.99
876.938	35.58
877.226	9.84
877.514	33.16
877.802	-11.42
878.09	14.53
878.378	22.98
878.666	21.27
878.954	20.42
879.242	15.08
879.53	-11.44
879.817	49.64
880.105	12.36
880.392	5.2
880.68	4.83
880.967	38.75
881.255	10.45
881.542	14.88
881.83	51.92
882.117	-15.77
882.404	29.57
882.691	21.41
882.978	6.5
883.265	-1.37
883.552	40.93
883.839	5.84
884.126	12.96
884.413	7.29
884.699	12.31
884.986	14.19
885.273	9.34
885.559	9.34
885.846	9.34
