Data from 0219_chest_Reflection__0__235.txt Node

Date: Fri Sep 22 22:42:33 CDT 2023
User: ToomeyLab
Spectrometer: FLMS14357
Trigger mode: 0
Integration Time (sec): 1.000000E-2
Scans to average: 100
Electric dark correction enabled: true
Nonlinearity correction enabled: false
Boxcar width: 0
XAxis mode: Wavelengths
Number of Pixels in Spectrum: 2048
>>>>>Begin Spectral Data<<<<<
189.047	-230.52
189.435	-230.52
189.823	-230.52
190.211	168.91
190.599	35.38
190.987	75.14
191.375	270.99
191.763	344.43
192.151	-30.56
192.538	-120.82
192.926	46.66
193.314	3546.34
193.702	35.24
194.089	81.76
194.477	-30.81
194.864	-14.84
195.252	170.04
195.639	36.3
196.027	88.8
196.414	634.5
196.801	-178.78
197.189	-4.29
197.576	71.77
197.963	-12.71
198.351	25.76
198.738	-3.15
199.125	-11.71
199.512	10.19
199.899	69.79
200.286	68.23
200.673	9.87
201.06	36.06
201.447	38.88
201.833	5.97
202.22	58.92
202.607	33.55
202.994	47.63
203.38	31.42
203.767	-1.25
204.154	28.18
204.54	25.27
204.927	30
205.313	20.58
205.699	51.83
206.086	34.29
206.472	53.95
206.858	47.66
207.245	-1.66
207.631	33.46
208.017	35.54
208.403	16.29
208.789	10.69
209.175	35.12
209.561	33.9
209.947	42.15
210.333	35.62
210.719	-2.25
211.105	53.2
211.491	21.45
211.876	49.41
212.262	19.48
212.648	21.49
213.034	38.95
213.419	42.72
213.805	19.14
214.19	13.88
214.576	28.12
214.961	14.78
215.346	-12.64
215.732	8.99
216.117	-2.64
216.502	42.66
216.888	1.24
217.273	30.99
217.658	2.07
218.043	18.17
218.428	23.78
218.813	-18.61
219.198	22.96
219.583	34.08
219.968	3.14
220.353	43.37
220.738	10.27
221.122	26.56
221.507	7.44
221.892	3.23
222.276	25.79
222.661	-12.1
223.046	15.88
223.43	21.37
223.815	5.82
224.199	5.37
224.583	9.15
224.968	23.73
225.352	-7.16
225.736	15.97
226.121	5.91
226.505	5.65
226.889	8.13
227.273	-3.17
227.657	3.06
228.041	6
228.425	12
228.809	3.59
229.193	3.83
229.577	7.1
229.961	4.85
230.344	5.68
230.728	2.8
231.112	4.95
231.495	3.82
231.879	3.86
232.263	3.58
232.646	3.74
233.03	2
233.413	3.42
233.797	4.09
234.18	3.7
234.563	5.45
234.946	4.86
235.33	1.42
235.713	0.46
236.096	4.61
236.479	4.23
236.862	6.26
237.245	4.07
237.628	5.01
238.011	4.27
238.394	4.82
238.777	5.65
239.16	4
239.543	5.21
239.925	5.08
240.308	6.4
240.691	4.84
241.073	5.72
241.456	3.65
241.838	3.01
242.221	3.39
242.603	4.34
242.986	3.26
243.368	3.02
243.75	4.16
244.133	4.17
244.515	3.46
244.897	3.52
245.279	3.53
245.661	3.22
246.043	3.75
246.425	3.91
246.807	3.83
247.189	2.71
247.571	3.28
247.953	4.32
248.335	4.13
248.717	3.9
249.098	4.16
249.48	3.48
249.862	3.39
250.243	3.68
250.625	3.61
251.006	3.31
251.388	3.92
251.769	4.65
252.151	4.36
252.532	4.71
252.913	4.49
253.295	4.37
253.676	4.48
254.057	3.82
254.438	3.85
254.819	3.41
255.2	4.25
255.581	3.03
255.962	3.88
256.343	4.34
256.724	3.28
257.105	3.78
257.486	3.92
257.867	4.13
258.247	4.9
258.628	4.3
259.009	4.17
259.389	3.54
259.77	3.96
260.15	3.72
260.531	2.73
260.911	3.22
261.292	3.16
261.672	3.2
262.052	3.37
262.432	3.57
262.813	3.52
263.193	2.93
263.573	3.82
263.953	3.18
264.333	3.4
264.713	3.33
265.093	3.61
265.473	3.99
265.853	3.79
266.233	4.21
266.612	3.03
266.992	4.43
267.372	3.25
267.752	3.85
268.131	3.47
268.511	2.83
268.89	3.79
269.27	3.2
269.649	3.27
270.029	3.52
270.408	3.33
270.787	3.73
271.167	3.56
271.546	3.2
271.925	2.79
272.304	2.96
272.683	3.57
273.062	3.7
273.441	3.37
273.82	3.84
274.199	3.66
274.578	3.96
274.957	3.16
275.336	3.29
275.715	3.74
276.093	3.13
276.472	3.54
276.851	3.79
277.229	3.35
277.608	3.31
277.986	3.24
278.365	3.74
278.743	3.86
279.122	3.44
279.5	4.22
279.878	3.12
280.257	4.44
280.635	3.09
281.013	2.85
281.391	3.1
281.769	3.78
282.147	3.45
282.525	3.36
282.903	4.03
283.281	3.95
283.659	3.6
284.037	3.23
284.415	3.32
284.792	3
285.17	3.96
285.548	3.42
285.925	3.32
286.303	2.78
286.68	3.18
287.058	3.1
287.435	3.13
287.813	3.24
288.19	3.17
288.567	3.62
288.945	2.8
289.322	3.18
289.699	3.33
290.076	3.81
290.453	3.15
290.83	3.26
291.207	2.75
291.584	3.28
291.961	2.95
292.338	3.32
292.715	3.39
293.092	3.41
293.469	3.75
293.845	3.04
294.222	3.86
294.599	3.31
294.975	4.15
295.352	3.82
295.728	3.31
296.105	4.18
296.481	3.09
296.858	3.04
297.234	3.69
297.61	3.32
297.986	3.76
298.363	3.51
298.739	3.53
299.115	3.75
299.491	3.64
299.867	3.52
300.243	3.22
300.619	3.35
300.995	3.05
301.371	3.97
301.746	3.92
302.122	3.05
302.498	3.41
302.874	2.9
303.249	3.76
303.625	3.38
304	3.89
304.376	3.61
304.751	3.86
305.127	3.91
305.502	3.86
305.878	4
306.253	3.67
306.628	3.32
307.003	3.47
307.378	3.68
307.754	3.47
308.129	4.25
308.504	3.61
308.879	3.69
309.254	3.29
309.629	3.97
310.003	3.8
310.378	4.25
310.753	3.85
311.128	3.87
311.502	3.84
311.877	3.09
312.252	3.64
312.626	3.9
313.001	3.89
313.375	3.81
313.75	4.13
314.124	4.24
314.498	3.25
314.873	3.32
315.247	3.76
315.621	3.99
315.995	4.04
316.369	3.51
316.743	4.09
317.117	4.32
317.491	4.55
317.865	3.31
318.239	3.55
318.613	4.05
318.987	3.61
319.361	3.18
319.734	3.69
320.108	4.04
320.482	3.27
320.855	3.55
321.229	4.11
321.602	3.48
321.976	3.99
322.349	3.77
322.723	3.37
323.096	3.83
323.469	3.84
323.843	3.9
324.216	4.79
324.589	3.87
324.962	3.42
325.335	3.78
325.708	3.98
326.081	3.87
326.454	3.74
326.827	3.77
327.2	3.68
327.573	3.9
327.945	3.66
328.318	4.2
328.691	3.86
329.063	3.51
329.436	3.92
329.809	3.82
330.181	3.74
330.553	4.25
330.926	4.07
331.298	4.3
331.671	3.72
332.043	3.67
332.415	3.22
332.787	3.89
333.159	3.78
333.532	3.6
333.904	3.73
334.276	3.26
334.648	3.23
335.02	3.67
335.391	3.73
335.763	3.94
336.135	3.94
336.507	3.65
336.879	3.42
337.25	4.11
337.622	4.31
337.993	4.09
338.365	4.17
338.736	3.83
339.108	4.01
339.479	3.99
339.851	3.74
340.222	3.84
340.593	3.39
340.964	3.55
341.336	3.67
341.707	3.75
342.078	3.79
342.449	3.89
342.82	3.88
343.191	3.16
343.562	4.18
343.933	3.89
344.303	4.1
344.674	3.81
345.045	4.15
345.416	4.62
345.786	3.46
346.157	3.49
346.527	3.42
346.898	3.6
347.268	3.9
347.639	3.88
348.009	3.9
348.38	3.8
348.75	4.22
349.12	3.68
349.49	3.76
349.861	3.84
350.231	4.34
350.601	3.77
350.971	3.66
351.341	3.73
351.711	3.83
352.081	3.56
352.45	3.89
352.82	4.32
353.19	4.07
353.56	3.57
353.929	4.1
354.299	4.02
354.669	3.75
355.038	3.68
355.408	3.78
355.777	4.1
356.147	3.88
356.516	4.03
356.885	3.88
357.254	3.94
357.624	3.23
357.993	4.07
358.362	4.18
358.731	3.57
359.1	3.52
359.469	3.82
359.838	3.42
360.207	3.69
360.576	3.89
360.945	3.94
361.314	3.74
361.682	3.72
362.051	4.5
362.42	3.84
362.788	3.84
363.157	3.79
363.525	3.74
363.894	3.64
364.262	3.79
364.631	3.81
364.999	4
365.367	3.91
365.735	3.97
366.104	4.17
366.472	4.27
366.84	3.75
367.208	4.26
367.576	3.77
367.944	3.88
368.312	4.06
368.68	3.99
369.048	4.02
369.416	4.1
369.783	3.74
370.151	4.04
370.519	3.98
370.886	3.88
371.254	4.55
371.621	3.75
371.989	3.97
372.356	3.7
372.724	4.09
373.091	4.04
373.458	4.03
373.826	3.81
374.193	4
374.56	4.37
374.927	4.03
375.294	4.11
375.661	3.44
376.028	3.61
376.395	3.77
376.762	3.59
377.129	4.29
377.496	4.23
377.863	3.97
378.229	4.18
378.596	3.96
378.963	4.27
379.329	4.11
379.696	4.36
380.062	3.84
380.429	4.1
380.795	4.14
381.161	3.7
381.528	3.97
381.894	3.96
382.26	4.12
382.626	4.2
382.993	4.08
383.359	3.91
383.725	3.85
384.091	3.89
384.457	3.9
384.823	4.06
385.188	4.11
385.554	4.09
385.92	4.44
386.286	4.04
386.651	3.97
387.017	4.34
387.383	4
387.748	4
388.114	4.12
388.479	4.17
388.845	3.84
389.21	3.8
389.575	4.44
389.94	3.96
390.306	4.18
390.671	4.27
391.036	3.81
391.401	3.93
391.766	3.97
392.131	4.12
392.496	4.08
392.861	4.14
393.226	4.34
393.591	4.05
393.956	4
394.32	4.15
394.685	4.21
395.05	4.33
395.414	4.21
395.779	4.32
396.143	3.95
396.508	3.97
396.872	3.99
397.236	4.16
397.601	3.94
397.965	4.5
398.329	4.07
398.694	3.93
399.058	4.24
399.422	4.09
399.786	4.32
400.15	4.22
400.514	4.08
400.878	4.21
401.242	4.31
401.605	4.26
401.969	3.82
402.333	4.25
402.697	4.07
403.06	4.32
403.424	4.1
403.787	4.31
404.151	4.17
404.514	4.23
404.878	4.64
405.241	4.34
405.604	4.36
405.968	4.29
406.331	4.15
406.694	4.23
407.057	4.16
407.42	4.32
407.783	4.13
408.146	3.91
408.509	4.19
408.872	4.2
409.235	4.1
409.598	4.18
409.961	4.44
410.323	4.08
410.686	4.23
411.049	4.22
411.411	4.35
411.774	4.34
412.136	3.96
412.499	4.16
412.861	4.06
413.223	4.33
413.586	4.31
413.948	4.3
414.31	4.23
414.672	4.19
415.035	4.15
415.397	4.4
415.759	4.67
416.121	4.07
416.483	4.01
416.845	4.21
417.206	4.04
417.568	4.4
417.93	4.27
418.292	4.17
418.653	4.06
419.015	4.25
419.377	4.1
419.738	4.35
420.1	4.05
420.461	4.16
420.822	4.14
421.184	4.12
421.545	4.15
421.906	4.09
422.267	4.02
422.629	4.28
422.99	4.14
423.351	3.99
423.712	4.13
424.073	4.05
424.434	4.21
424.795	4.09
425.155	4.27
425.516	4.12
425.877	4.12
426.238	3.96
426.598	4.12
426.959	4.14
427.32	4.18
427.68	4.1
428.041	4.12
428.401	4.33
428.761	4.35
429.122	4.29
429.482	4
429.842	4.15
430.202	4.07
430.563	4.18
430.923	4.37
431.283	4.38
431.643	4.25
432.003	4.44
432.363	4.32
432.722	4.35
433.082	4.46
433.442	4.2
433.802	4.45
434.161	4.17
434.521	4.25
434.881	4.35
435.24	4.34
435.6	4.21
435.959	4.24
436.319	4.3
436.678	4.43
437.037	4.31
437.396	4.27
437.756	4.24
438.115	4.38
438.474	4.39
438.833	4.5
439.192	4.24
439.551	4.35
439.91	4.51
440.269	4.41
440.628	4.2
440.987	4.25
441.345	4.4
441.704	4.49
442.063	4.24
442.421	4.24
442.78	4.31
443.138	4.23
443.497	4.24
443.855	4.36
444.214	4.25
444.572	4.37
444.93	4.43
445.288	4.38
445.647	4.55
446.005	4.38
446.363	4.32
446.721	4.36
447.079	4.21
447.437	4.26
447.795	4.41
448.153	4.25
448.51	4.39
448.868	4.3
449.226	4.3
449.584	4.32
449.941	4.25
450.299	4.32
450.656	4.43
451.014	4.51
451.371	4.36
451.729	4.47
452.086	4.37
452.443	4.5
452.801	4.5
453.158	4.44
453.515	4.61
453.872	4.46
454.229	4.53
454.586	4.57
454.943	4.46
455.3	4.43
455.657	4.44
456.014	4.46
456.371	4.58
456.727	4.66
457.084	4.49
457.441	4.46
457.797	4.51
458.154	4.64
458.51	4.39
458.867	4.42
459.223	4.47
459.58	4.66
459.936	4.58
460.292	4.59
460.648	4.62
461.005	4.7
461.361	4.62
461.717	4.25
462.073	4.35
462.429	4.29
462.785	4.41
463.141	4.5
463.496	4.63
463.852	4.55
464.208	4.55
464.564	4.67
464.919	4.59
465.275	4.69
465.631	4.76
465.986	4.67
466.342	4.82
466.697	4.82
467.052	4.6
467.408	4.6
467.763	4.56
468.118	4.8
468.473	4.43
468.829	4.72
469.184	4.76
469.539	4.64
469.894	4.68
470.249	4.69
470.603	4.61
470.958	4.67
471.313	4.62
471.668	4.79
472.023	4.72
472.377	4.67
472.732	4.55
473.086	4.76
473.441	4.6
473.795	4.91
474.15	4.6
474.504	4.71
474.859	4.69
475.213	4.68
475.567	4.55
475.921	4.58
476.275	4.8
476.63	4.72
476.984	4.55
477.338	4.72
477.692	4.82
478.045	4.85
478.399	4.81
478.753	4.59
479.107	4.68
479.461	4.75
479.814	4.79
480.168	4.68
480.521	4.77
480.875	4.78
481.228	4.72
481.582	4.66
481.935	4.81
482.289	4.54
482.642	4.66
482.995	4.69
483.348	4.67
483.701	4.71
484.055	4.57
484.408	4.63
484.761	4.8
485.114	4.52
485.466	4.54
485.819	4.44
486.172	4.43
486.525	4.42
486.878	4.44
487.23	4.5
487.583	4.59
487.936	4.6
488.288	4.64
488.641	4.62
488.993	4.62
489.345	4.53
489.698	4.49
490.05	4.51
490.402	4.54
490.754	4.52
491.107	4.58
491.459	4.63
491.811	4.66
492.163	4.72
492.515	4.68
492.866	4.73
493.218	4.73
493.57	4.71
493.922	4.59
494.274	4.58
494.625	4.62
494.977	4.8
495.328	4.82
495.68	4.89
496.031	4.74
496.383	4.85
496.734	4.95
497.086	4.8
497.437	4.95
497.788	4.98
498.139	4.95
498.49	4.85
498.842	4.81
499.193	5.01
499.544	4.98
499.894	4.83
500.245	5.05
500.596	5.01
500.947	5.11
501.298	4.94
501.648	4.95
501.999	5.02
502.35	4.97
502.7	5.13
503.051	4.99
503.401	5.06
503.752	5.13
504.102	4.97
504.452	5.06
504.803	4.97
505.153	5.15
505.503	4.85
505.853	5.16
506.203	5.02
506.553	5.12
506.903	5.23
507.253	5.13
507.603	5.2
507.953	5.09
508.303	5.14
508.652	5.13
509.002	5.41
509.352	5.06
509.701	5.08
510.051	5.24
510.4	5.27
510.75	5.13
511.099	5.02
511.449	5.17
511.798	5.16
512.147	5.14
512.496	5.23
512.846	5.14
513.195	5.24
513.544	5.25
513.893	5.37
514.242	5.15
514.591	5.26
514.939	5.12
515.288	5.18
515.637	5.21
515.986	5.2
516.334	5.29
516.683	5.3
517.032	5.24
517.38	5.34
517.729	5.32
518.077	5.43
518.426	5.32
518.774	5.29
519.122	5.36
519.47	5.22
519.819	5.36
520.167	5.35
520.515	5.3
520.863	5.18
521.211	5.28
521.559	5.37
521.907	5.37
522.255	5.35
522.602	5.36
522.95	5.37
523.298	5.55
523.645	5.4
523.993	5.52
524.341	5.42
524.688	5.58
525.036	5.55
525.383	5.54
525.73	5.61
526.078	5.56
526.425	5.53
526.772	5.66
527.119	5.53
527.466	5.4
527.814	5.51
528.161	5.42
528.508	5.54
528.854	5.49
529.201	5.55
529.548	5.58
529.895	5.46
530.242	5.43
530.588	5.29
530.935	5.24
531.282	5.29
531.628	5.41
531.975	5.45
532.321	5.47
532.667	5.51
533.014	5.61
533.36	5.64
533.706	5.71
534.052	5.78
534.399	5.67
534.745	5.62
535.091	5.63
535.437	5.59
535.783	5.45
536.129	5.62
536.474	5.75
536.82	5.68
537.166	5.8
537.512	5.78
537.857	5.82
538.203	6.01
538.549	5.68
538.894	5.71
539.239	5.8
539.585	5.72
539.93	5.96
540.276	5.91
540.621	6.03
540.966	5.97
541.311	6.02
541.656	5.99
542.001	6.04
542.346	6.01
542.691	6.04
543.036	5.97
543.381	5.86
543.726	5.84
544.071	5.87
544.415	5.94
544.76	5.95
545.105	5.94
545.449	5.97
545.794	6.01
546.138	6.1
546.483	6.05
546.827	6.13
547.171	6.16
547.516	6.41
547.86	6.33
548.204	6.23
548.548	6.25
548.892	6.31
549.236	6.27
549.58	6.36
549.924	6.4
550.268	6.36
550.612	6.49
550.956	6.37
551.3	6.44
551.643	6.4
551.987	6.61
552.33	6.54
552.674	6.63
553.017	6.62
553.361	6.63
553.704	6.76
554.048	6.72
554.391	6.78
554.734	6.87
555.077	6.75
555.42	6.62
555.764	6.74
556.107	6.78
556.45	6.95
556.793	6.8
557.135	6.86
557.478	6.73
557.821	6.95
558.164	7.04
558.507	6.89
558.849	6.93
559.192	7
559.534	7.16
559.877	7.25
560.219	6.95
560.562	7.07
560.904	7.15
561.246	7.39
561.589	7.25
561.931	7.1
562.273	7.05
562.615	7.1
562.957	7.01
563.299	7.14
563.641	7.41
563.983	7.18
564.325	7.32
564.667	7.59
565.008	7.18
565.35	7.31
565.692	7.37
566.033	7.44
566.375	7.46
566.716	7.36
567.058	7.44
567.399	7.64
567.741	7.53
568.082	7.34
568.423	7.64
568.764	7.6
569.105	7.29
569.447	7.4
569.788	7.49
570.129	7.64
570.47	7.67
570.811	7.59
571.151	7.77
571.492	7.59
571.833	7.52
572.174	7.79
572.514	7.73
572.855	7.77
573.195	7.82
573.536	7.7
573.876	7.74
574.217	7.72
574.557	7.81
574.898	8.07
575.238	7.89
575.578	7.99
575.918	8.05
576.258	7.89
576.598	8
576.938	8.08
577.278	8.2
577.618	7.95
577.958	8.24
578.298	8.28
578.638	8.18
578.977	8.21
579.317	8.23
579.657	8.27
579.996	8.19
580.336	8.39
580.675	8.57
581.014	8.23
581.354	8.46
581.693	8.78
582.032	8.7
582.372	8.68
582.711	8.57
583.05	8.75
583.389	8.5
583.728	8.57
584.067	8.79
584.406	8.75
584.745	8.69
585.083	9.05
585.422	9.04
585.761	8.83
586.1	8.79
586.438	8.83
586.777	8.92
587.115	9.04
587.454	8.82
587.792	9.36
588.13	9.16
588.469	9.13
588.807	9.36
589.145	9.22
589.483	9.24
589.821	9.25
590.159	9.18
590.497	9.16
590.835	9.27
591.173	9.32
591.511	9.21
591.849	9.55
592.187	9.23
592.524	9.49
592.862	9.45
593.2	9.46
593.537	9.45
593.875	9.51
594.212	9.5
594.55	10.08
594.887	9.85
595.224	9.68
595.561	9.91
595.899	9.76
596.236	9.74
596.573	9.72
596.91	9.58
597.247	9.71
597.584	9.96
597.921	9.79
598.258	9.98
598.594	9.92
598.931	10.03
599.268	9.89
599.604	10.13
599.941	9.94
600.277	9.96
600.614	10.08
600.95	10.21
601.287	10.13
601.623	10.48
601.959	10.36
602.296	10.27
602.632	10.13
602.968	10.37
603.304	10.45
603.64	10.54
603.976	10.36
604.312	10.3
604.648	10.47
604.984	10.48
605.319	10.46
605.655	10.61
605.991	10.55
606.326	10.75
606.662	10.42
606.998	10.49
607.333	10.71
607.668	10.6
608.004	10.77
608.339	10.77
608.674	11.07
609.01	10.75
609.345	10.89
609.68	11.19
610.015	10.95
610.35	11.22
610.685	11.28
611.02	11.37
611.355	11.23
611.689	11.09
612.024	11.36
612.359	11.13
612.694	11.12
613.028	11.21
613.363	11.02
613.697	11.26
614.032	11.38
614.366	11.63
614.7	11.38
615.035	11.78
615.369	11.53
615.703	11.69
616.037	11.85
616.371	11.83
616.705	12.14
617.039	12
617.373	11.8
617.707	11.67
618.041	12.12
618.375	11.72
618.709	11.78
619.042	12.18
619.376	12.29
619.71	12.12
620.043	11.88
620.377	11.86
620.71	12.17
621.043	12.28
621.377	12.47
621.71	12.05
622.043	11.98
622.376	12.28
622.709	12.57
623.043	12.31
623.376	12.78
623.709	12.36
624.041	12.26
624.374	12.28
624.707	12.7
625.04	12.6
625.373	12.27
625.705	12.47
626.038	12.32
626.37	12.78
626.703	13.06
627.035	12.43
627.368	12.97
627.7	12.83
628.032	13.01
628.365	12.93
628.697	12.86
629.029	12.86
629.361	12.73
629.693	13.01
630.025	13
630.357	12.81
630.689	13.26
631.021	13.11
631.353	13.03
631.684	12.88
632.016	13.33
632.348	12.9
632.679	13.35
633.011	13.33
633.342	13.67
633.674	13.76
634.005	13
634.336	13.88
634.668	13.59
634.999	13.22
635.33	13.62
635.661	13.46
635.992	13.5
636.323	13.43
636.654	13.35
636.985	13.65
637.316	13.88
637.647	13.7
637.977	13.72
638.308	14.39
638.639	13.76
638.969	14.07
639.3	13.95
639.63	14.33
639.961	13.84
640.291	13.78
640.622	14.36
640.952	14.14
641.282	14.48
641.612	14.24
641.943	14.86
642.273	14.41
642.603	14.29
642.933	14.24
643.263	13.95
643.592	14.52
643.922	14.76
644.252	14.52
644.582	14.9
644.911	14.55
645.241	15.21
645.571	14.69
645.9	14.98
646.23	15.11
646.559	14.95
646.888	15.08
647.218	15.23
647.547	15.27
647.876	14.98
648.205	14.76
648.534	15.07
648.863	14.66
649.192	15.11
649.521	15.63
649.85	15.23
650.179	14.87
650.508	14.92
650.837	15.35
651.165	15.9
651.494	15.77
651.822	15.69
652.151	15.54
652.479	15.57
652.808	14.96
653.136	15.5
653.465	15.38
653.793	15.58
654.121	16.12
654.449	15.67
654.777	16.17
655.105	15.71
655.433	15.33
655.761	15.94
656.089	15.43
656.417	15.9
656.745	15.99
657.073	15.73
657.4	16.59
657.728	16.28
658.056	16.2
658.383	15.81
658.711	16.28
659.038	16.12
659.365	16.06
659.693	16.18
660.02	16.78
660.347	16.75
660.674	16.21
661.001	16.03
661.329	16.22
661.656	16.7
661.982	16.29
662.309	16.54
662.636	16.19
662.963	16.44
663.29	16.56
663.616	16.72
663.943	16.98
664.27	16.6
664.596	16.71
664.923	17.46
665.249	16.79
665.576	16.7
665.902	17.19
666.228	16.52
666.554	16.95
666.881	17.3
667.207	16.87
667.533	17.71
667.859	17.46
668.185	17.06
668.511	17.66
668.837	16.84
669.162	17.38
669.488	17.86
669.814	17.37
670.139	17.13
670.465	17.92
670.791	17.54
671.116	17.42
671.442	17.7
671.767	17.05
672.092	17.98
672.418	17.99
672.743	17.89
673.068	18.3
673.393	17.6
673.718	18.22
674.043	18.45
674.368	18.07
674.693	18.05
675.018	18.37
675.343	18.3
675.667	18.25
675.992	17.51
676.317	17.91
676.641	18.65
676.966	17.91
677.29	18.33
677.615	18.59
677.939	18.64
678.264	18.24
678.588	18.93
678.912	18.58
679.236	18.6
679.56	18.76
679.885	18.67
680.209	19.72
680.532	18.79
680.856	18.73
681.18	19.02
681.504	19.28
681.828	19.34
682.152	18.75
682.475	18.71
682.799	19.45
683.122	19.06
683.446	18.77
683.769	19.06
684.093	19.07
684.416	19.29
684.739	19.3
685.062	19.29
685.386	19.44
685.709	19.31
686.032	19.13
686.355	19.38
686.678	19.12
687.001	19.43
687.324	20.35
687.646	19.63
687.969	20.43
688.292	19.02
688.614	20.06
688.937	19.28
689.26	19.82
689.582	19.68
689.904	19.34
690.227	19.79
690.549	19.87
690.871	19.08
691.194	19.43
691.516	19.62
691.838	20.04
692.16	20.28
692.482	20.49
692.804	19.87
693.126	19.66
693.448	20.29
693.769	19.81
694.091	20.08
694.413	20.69
694.735	20.01
695.056	21.27
695.378	21.09
695.699	20.99
696.021	20.58
696.342	20.98
696.663	20.04
696.984	21.36
697.306	21.27
697.627	20.01
697.948	20.68
698.269	21.29
698.59	20.5
698.911	20.48
699.232	20.9
699.553	20.79
699.873	20.54
700.194	20.77
700.515	20.37
700.835	21.45
701.156	21.11
701.477	21.49
701.797	20.98
702.117	20.67
702.438	21.08
702.758	21.09
703.078	21.56
703.398	21.8
703.719	21.21
704.039	21.87
704.359	20.61
704.679	20.81
704.999	21.31
705.319	21.88
705.638	22.55
705.958	22.71
706.278	22.49
706.597	22.34
706.917	22.21
707.237	21.4
707.556	21.5
707.876	21.56
708.195	22.17
708.514	21.89
708.834	21.23
709.153	22.71
709.472	21.69
709.791	21.97
710.11	23.38
710.429	22.52
710.748	22.33
711.067	22.19
711.386	21.44
711.705	22.1
712.023	23.14
712.342	23.78
712.661	23.23
712.979	22.26
713.298	23.8
713.616	22.49
713.935	22.52
714.253	23.23
714.572	24.06
714.89	23.15
715.208	23.34
715.526	23.65
715.844	23.23
716.162	22.03
716.48	23.33
716.798	23.7
717.116	23.75
717.434	22.59
717.752	22.79
718.069	22.72
718.387	23.96
718.705	22.53
719.022	23.53
719.34	23.57
719.657	23.64
719.975	24.23
720.292	23.28
720.609	23.6
720.927	23.73
721.244	24.28
721.561	24.1
721.878	23.7
722.195	23.62
722.512	25.32
722.829	24.27
723.146	24.66
723.463	23.92
723.779	23.25
724.096	24.04
724.413	25.14
724.729	25.08
725.046	23.93
725.362	26.51
725.679	24.23
725.995	24.09
726.311	23.35
726.628	24.42
726.944	23.81
727.26	25.21
727.576	25.13
727.892	22.96
728.208	25.02
728.524	25.19
728.84	24.69
729.156	25.57
729.472	25.76
729.787	25.52
730.103	24.19
730.419	25.49
730.734	24.97
731.05	23.54
731.365	25.43
731.681	25.23
731.996	25.36
732.311	25.75
732.626	24.29
732.942	25.74
733.257	25.44
733.572	24.77
733.887	25.69
734.202	26.22
734.517	24.8
734.832	25.94
735.146	25.79
735.461	26.19
735.776	25.27
736.091	26.23
736.405	26
736.72	25.12
737.034	23.63
737.349	24.83
737.663	24.86
737.977	26.55
738.292	26.04
738.606	25.54
738.92	25.91
739.234	25.52
739.548	26.08
739.862	25.33
740.176	26.89
740.49	24.92
740.804	26.37
741.117	25.87
741.431	25.5
741.745	27.15
742.058	27.43
742.372	26.31
742.685	25.35
742.999	27.92
743.312	28.29
743.626	25.86
743.939	27.16
744.252	27.15
744.565	26.87
744.878	24.89
745.191	25.76
745.505	25.78
745.817	27.09
746.13	27.84
746.443	27.82
746.756	28.01
747.069	27.38
747.381	26.25
747.694	26.7
748.007	29.34
748.319	27.76
748.632	28.45
748.944	28.88
749.256	27.41
749.569	25.41
749.881	26.05
750.193	27.93
750.505	28.64
750.817	27.59
751.129	26.97
751.441	28.59
751.753	29.08
752.065	28.02
752.377	27.69
752.689	25.7
753	27.63
753.312	27.44
753.624	27.59
753.935	29.36
754.247	25.09
754.558	29.34
754.869	27.58
755.181	26.97
755.492	28.57
755.803	29.33
756.114	28.89
756.425	29.91
756.736	25.69
757.047	27.2
757.358	27.96
757.669	27.87
757.98	27.59
758.291	29.38
758.601	29.34
758.912	28.26
759.223	29.83
759.533	28.4
759.844	29.98
760.154	28.44
760.464	29.41
760.775	29.6
761.085	29.03
761.395	31.16
761.705	27.33
762.016	27.76
762.326	27.88
762.636	29.98
762.945	28.56
763.255	29.09
763.565	26.87
763.875	28.97
764.185	29.4
764.494	30.79
764.804	28.82
765.113	29.34
765.423	28.85
765.732	29.81
766.042	30.25
766.351	31.29
766.66	30.09
766.97	28.46
767.279	27.82
767.588	28.92
767.897	29.12
768.206	30.04
768.515	28.8
768.824	30.36
769.133	31.07
769.441	28.59
769.75	30.99
770.059	31.12
770.367	29.1
770.676	30.89
770.984	30.96
771.293	30.57
771.601	31.62
771.91	33.38
772.218	28.71
772.526	30.33
772.834	28.24
773.142	32.02
773.45	29.7
773.758	31.94
774.066	32.12
774.374	30
774.682	33.09
774.99	30.92
775.298	30.03
775.605	32.86
775.913	32.2
776.22	30.7
776.528	28.93
776.835	30.01
777.143	30.13
777.45	33.92
777.757	28.59
778.065	33.38
778.372	32.46
778.679	34.55
778.986	30.37
779.293	29.49
779.6	29.68
779.907	30.05
780.214	33.22
780.52	30.84
780.827	32.98
781.134	30.66
781.44	34.91
781.747	32.07
782.053	31.61
782.36	31.99
782.666	32.12
782.973	33.59
783.279	31.79
783.585	30.45
783.891	34.76
784.197	33.12
784.503	31.68
784.809	32.15
785.115	35.22
785.421	36.69
785.727	34.39
786.033	34.6
786.339	33.89
786.644	33.36
786.95	32.2
787.255	34.5
787.561	31.42
787.866	32.9
788.172	33.75
788.477	35.19
788.782	28.7
789.088	32.73
789.393	29.49
789.698	33.34
790.003	39.66
790.308	32.42
790.613	34.19
790.918	33.77
791.223	35.42
791.527	31.35
791.832	35.21
792.137	31.06
792.441	33.6
792.746	33.99
793.05	33.52
793.355	38.55
793.659	33.04
793.963	31.11
794.268	33.28
794.572	32.5
794.876	33.02
795.18	31.97
795.484	30.04
795.788	35.31
796.092	31.01
796.396	32.53
796.7	28.95
797.004	37.54
797.307	26.51
797.611	28.85
797.915	33.24
798.218	35.35
798.522	33.47
798.825	31.32
799.128	35.79
799.432	29.69
799.735	30.76
800.038	37.73
800.341	31.84
800.644	37.92
800.947	34.54
801.25	32.24
801.553	36.75
801.856	36.73
802.159	29.93
802.462	33.94
802.764	35.59
803.067	36.28
803.37	35.93
803.672	36.88
803.975	33.4
804.277	38.55
804.579	40.69
804.882	35.92
805.184	40.33
805.486	35.69
805.788	34.47
806.09	37.24
806.392	31.2
806.694	37.18
806.996	32.06
807.298	37.98
807.6	36.22
807.902	39.63
808.203	37.49
808.505	32.96
808.807	39.43
809.108	41.43
809.409	41.12
809.711	34.55
810.012	35.61
810.313	30.82
810.615	36.73
810.916	32.43
811.217	38.32
811.518	38.45
811.819	33.25
812.12	35.83
812.421	33.69
812.722	39.03
813.023	33.51
813.323	34.79
813.624	34.77
813.925	33.79
814.225	40.92
814.526	34.63
814.826	41.48
815.126	39.04
815.427	32
815.727	33.53
816.027	34.83
816.327	34.86
816.627	35.21
816.927	40.01
817.227	32.6
817.527	32.72
817.827	34.88
818.127	36.73
818.427	39.03
818.727	38.94
819.026	37.25
819.326	30.59
819.625	36.6
819.925	41
820.224	40.65
820.524	38.99
820.823	33.71
821.122	31.78
821.421	42.43
821.72	41.23
822.019	36.53
822.318	37.88
822.617	37.23
822.916	38.81
823.215	38.06
823.514	38.22
823.813	43.16
824.111	38.07
824.41	39.61
824.709	34.61
825.007	38.12
825.306	38.31
825.604	37.19
825.902	37.97
826.201	38.61
826.499	36.93
826.797	38
827.095	38.14
827.393	38.64
827.691	37.53
827.989	37.87
828.287	38.51
828.585	39.79
828.882	37.9
829.18	40.4
829.478	37.35
829.775	41.03
830.073	40.21
830.37	36.39
830.668	37.84
830.965	40.99
831.263	38.13
831.56	38.73
831.857	39.68
832.154	40.24
832.451	38.68
832.748	40.1
833.045	41.38
833.342	38.99
833.639	43.55
833.936	37.58
834.232	38.16
834.529	47.34
834.826	34.82
835.122	44.11
835.419	37.83
835.715	41.51
836.012	42
836.308	45.4
836.604	46.47
836.901	41.64
837.197	39.04
837.493	41.25
837.789	34.96
838.085	41.82
838.381	39.82
838.677	38.88
838.972	40.29
839.268	44.35
839.564	41.1
839.86	43.63
840.155	38.34
840.451	41.28
840.746	38.04
841.042	34.42
841.337	44.99
841.632	42.82
841.928	32.56
842.223	45.06
842.518	47.66
842.813	44.41
843.108	47.63
843.403	42.56
843.698	48.3
843.993	45.14
844.287	41
844.582	42.59
844.877	41.99
845.171	43.37
845.466	40.49
845.761	38.34
846.055	37
846.349	38.41
846.644	34.39
846.938	32.72
847.232	31.51
847.526	41.69
847.82	39.52
848.114	41.18
848.408	40.4
848.702	45.78
848.996	30.8
849.29	53.95
849.584	41.09
849.877	53
850.171	33.27
850.465	43.87
850.758	43.46
851.052	29.74
851.345	44.35
851.638	34.27
851.932	61.63
852.225	44.38
852.518	51.96
852.811	29.87
853.104	52.27
853.397	47.7
853.69	33.85
853.983	45.42
854.276	43.41
854.569	58.64
854.861	29.62
855.154	28.84
855.447	57.15
855.739	50.94
856.032	61.05
856.324	37.2
856.616	47.48
856.909	44.07
857.201	19.14
857.493	56.31
857.785	74.54
858.077	37.3
858.369	43.66
858.661	53.31
858.953	35.97
859.245	39.2
859.537	49.43
859.829	45.37
860.12	44.43
860.412	55.92
860.703	45.09
860.995	22.08
861.286	45.43
861.578	52.35
861.869	46.58
862.16	38.01
862.452	30.47
862.743	47.8
863.034	53.51
863.325	65.1
863.616	17.78
863.907	26.27
864.198	30.82
864.488	27.11
864.779	34.19
865.07	55.76
865.36	49.81
865.651	43.77
865.941	43.44
866.232	34.58
866.522	43.62
866.813	55.54
867.103	61.83
867.393	42.09
867.683	42.91
867.973	47.01
868.263	42.21
868.553	18.24
868.843	43.1
869.133	41.05
869.423	39.67
869.713	35.03
870.002	47.6
870.292	39.64
870.582	39.2
870.871	46.02
871.161	20.06
871.45	36.37
871.739	42.67
872.029	36.04
872.318	44.42
872.607	51.52
872.896	24.18
873.185	33.21
873.474	68.32
873.763	32.46
874.052	74.3
874.341	45.43
874.63	72.32
874.918	55.81
875.207	62.09
875.496	32.88
875.784	40.73
876.073	47.64
876.361	46.58
876.649	48.45
876.938	53.63
877.226	68.95
877.514	42.34
877.802	78.31
878.09	49.24
878.378	34.95
878.666	42.09
878.954	48.18
879.242	61.41
879.53	57.8
879.817	39.21
880.105	81.87
880.392	59.08
880.68	46.66
880.967	91.29
881.255	84
881.542	30.96
881.83	56.02
882.117	32.33
882.404	55.36
882.691	26.49
882.978	25.26
883.265	54.19
883.552	43.89
883.839	50.29
884.126	50.54
884.413	59.55
884.699	38.34
884.986	51.56
885.273	51.71
885.559	51.71
885.846	51.71
