Data from 0262_crown_Reflection__3__131.txt Node

Date: Fri Oct 20 21:39:14 CDT 2023
User: ToomeyLab
Spectrometer: FLMS14357
Trigger mode: 0
Integration Time (sec): 1.000000E-2
Scans to average: 100
Electric dark correction enabled: true
Nonlinearity correction enabled: false
Boxcar width: 0
XAxis mode: Wavelengths
Number of Pixels in Spectrum: 2048
>>>>>Begin Spectral Data<<<<<
189.047	78.3
189.435	78.3
189.823	78.3
190.211	37.56
190.599	-28.63
190.987	64.88
191.375	195.11
191.763	519.5
192.151	-98.25
192.538	55.62
192.926	89.29
193.314	254.63
193.702	48.79
194.089	138.78
194.477	242.92
194.864	1018.3
195.252	53.82
195.639	126.4
196.027	-123.37
196.414	526.67
196.801	78.19
197.189	17.58
197.576	25.39
197.963	-120.99
198.351	31.87
198.738	21.29
199.125	37.34
199.512	41.97
199.899	15.39
200.286	-7.47
200.673	28.59
201.06	-1.25
201.447	26.98
201.833	40.26
202.22	9.27
202.607	77.32
202.994	59.75
203.38	7.63
203.767	3.97
204.154	31.28
204.54	57.58
204.927	47.62
205.313	46.97
205.699	42.68
206.086	7.63
206.472	37.94
206.858	45.09
207.245	21.49
207.631	32.13
208.017	16.22
208.403	41.36
208.789	28.03
209.175	8.39
209.561	27.35
209.947	20.93
210.333	24.01
210.719	-9.35
211.105	38.59
211.491	25.3
211.876	33.6
212.262	30.08
212.648	24.32
213.034	1.23
213.419	27.36
213.805	-6.78
214.19	-2.16
214.576	1.8
214.961	52.18
215.346	21.95
215.732	5.85
216.117	-22.21
216.502	18.27
216.888	22.46
217.273	21.22
217.658	3.49
218.043	10.06
218.428	-7.05
218.813	22.32
219.198	3.34
219.583	8.73
219.968	19.86
220.353	24.87
220.738	0.96
221.122	-11.85
221.507	18.23
221.892	10.57
222.276	9.19
222.661	14.45
223.046	11.91
223.43	3.35
223.815	14.02
224.199	20.52
224.583	-0.92
224.968	0.5
225.352	3.74
225.736	10.05
226.121	2.91
226.505	6.29
226.889	8.42
227.273	7.31
227.657	10.5
228.041	14.11
228.425	7.97
228.809	8.63
229.193	3.46
229.577	9.25
229.961	5.44
230.344	5.12
230.728	4.94
231.112	6.07
231.495	5.56
231.879	5.98
232.263	6.65
232.646	5.19
233.03	4.95
233.413	5.85
233.797	5.75
234.18	8.68
234.563	5.87
234.946	9.54
235.33	6.34
235.713	7.78
236.096	6.57
236.479	6.58
236.862	5.07
237.245	7.1
237.628	3.72
238.011	5.71
238.394	5.43
238.777	7.32
239.16	6.05
239.543	5.92
239.925	8.5
240.308	5.44
240.691	7.25
241.073	7.73
241.456	5.81
241.838	5.92
242.221	7.22
242.603	6.55
242.986	6.1
243.368	5.47
243.75	5.78
244.133	4.9
244.515	5.26
244.897	5.74
245.279	5.1
245.661	5.33
246.043	5.38
246.425	4.66
246.807	5.95
247.189	5.61
247.571	5.08
247.953	5.39
248.335	5.35
248.717	5.21
249.098	4.91
249.48	5.09
249.862	5.46
250.243	5.59
250.625	5.39
251.006	5.34
251.388	5.64
251.769	5.54
252.151	5.6
252.532	5.6
252.913	5.39
253.295	4.85
253.676	5.36
254.057	5.3
254.438	5.54
254.819	5.1
255.2	5.72
255.581	4.82
255.962	5.54
256.343	6.19
256.724	4.97
257.105	5.38
257.486	5.28
257.867	5.43
258.247	6.01
258.628	5.24
259.009	4.71
259.389	5.02
259.77	5.33
260.15	5.81
260.531	5.32
260.911	5.61
261.292	4.88
261.672	5.03
262.052	5.06
262.432	5.09
262.813	5.01
263.193	5.16
263.573	5.22
263.953	5.66
264.333	4.76
264.713	5.57
265.093	5.97
265.473	5.95
265.853	5.13
266.233	6.01
266.612	5.09
266.992	4.74
267.372	5.34
267.752	5.47
268.131	5.05
268.511	5.36
268.89	5.15
269.27	4.68
269.649	4.75
270.029	5.03
270.408	5.74
270.787	4.69
271.167	5.24
271.546	5.18
271.925	5.55
272.304	5.46
272.683	4.8
273.062	5.02
273.441	4.71
273.82	4.76
274.199	5.29
274.578	5.07
274.957	5.45
275.336	5.23
275.715	4.74
276.093	4.7
276.472	5.28
276.851	5.01
277.229	5.17
277.608	4.67
277.986	4.69
278.365	5.47
278.743	4.47
279.122	4.93
279.5	4.86
279.878	4.38
280.257	5.2
280.635	5.19
281.013	5.2
281.391	5.75
281.769	4.8
282.147	4.38
282.525	4.53
282.903	5.31
283.281	4.81
283.659	4.72
284.037	4.73
284.415	4.09
284.792	4.6
285.17	5.05
285.548	4.83
285.925	4.84
286.303	4.85
286.68	4.47
287.058	5.54
287.435	4.81
287.813	4.25
288.19	4.59
288.567	4.45
288.945	5.09
289.322	5.01
289.699	4.28
290.076	5.24
290.453	4.57
290.83	4.4
291.207	4.59
291.584	4.56
291.961	4.41
292.338	4.39
292.715	4.79
293.092	4.71
293.469	4.76
293.845	4.38
294.222	4.52
294.599	4.4
294.975	4.89
295.352	5.13
295.728	5.12
296.105	4.2
296.481	4.9
296.858	4.59
297.234	4.9
297.61	4.42
297.986	4.78
298.363	4.28
298.739	4.52
299.115	4.51
299.491	4.51
299.867	4.55
300.243	4.54
300.619	4.17
300.995	4.33
301.371	4.83
301.746	4.78
302.122	4.61
302.498	4.3
302.874	4.74
303.249	4.73
303.625	4.97
304	4.59
304.376	4.76
304.751	3.98
305.127	4.42
305.502	4.79
305.878	4.35
306.253	4.47
306.628	4.46
307.003	4.47
307.378	4.33
307.754	4.39
308.129	4.69
308.504	4.59
308.879	4.32
309.254	4.9
309.629	4.06
310.003	4.01
310.378	4.59
310.753	4.6
311.128	4.58
311.502	4.64
311.877	4.54
312.252	4.19
312.626	4.52
313.001	4.54
313.375	4.52
313.75	4.48
314.124	4.36
314.498	4.27
314.873	4.34
315.247	4.38
315.621	4.6
315.995	4.46
316.369	4.14
316.743	4.3
317.117	4.15
317.491	3.85
317.865	4.65
318.239	4.66
318.613	4.36
318.987	4.68
319.361	3.89
319.734	4.47
320.108	4.36
320.482	4.54
320.855	4.51
321.229	5.02
321.602	4.39
321.976	4.37
322.349	4.67
322.723	4.19
323.096	4.55
323.469	3.82
323.843	4.23
324.216	4.36
324.589	4.73
324.962	4.88
325.335	4.17
325.708	4.09
326.081	4.28
326.454	4.32
326.827	4.63
327.2	4.59
327.573	4.25
327.945	4.1
328.318	4.06
328.691	3.75
329.063	4.7
329.436	3.86
329.809	3.98
330.181	4.47
330.553	4.71
330.926	4.55
331.298	4.16
331.671	3.94
332.043	3.94
332.415	4.33
332.787	4.47
333.159	3.74
333.532	4.04
333.904	4.1
334.276	3.57
334.648	4.03
335.02	4.53
335.391	3.92
335.763	4.58
336.135	4.34
336.507	4.63
336.879	3.98
337.25	4.46
337.622	4.25
337.993	4.24
338.365	4.19
338.736	4.25
339.108	4.37
339.479	4.22
339.851	4.16
340.222	4.17
340.593	3.71
340.964	3.61
341.336	4.28
341.707	4.28
342.078	4.45
342.449	3.9
342.82	4.1
343.191	3.87
343.562	4.08
343.933	4.13
344.303	4.44
344.674	4.49
345.045	4.9
345.416	4.34
345.786	4.02
346.157	4
346.527	3.9
346.898	4.1
347.268	4.06
347.639	4.1
348.009	3.84
348.38	4.21
348.75	3.98
349.12	4.46
349.49	3.98
349.861	4.33
350.231	3.79
350.601	4.18
350.971	4.39
351.341	4.33
351.711	4.46
352.081	3.91
352.45	4.26
352.82	4.01
353.19	4.24
353.56	4.22
353.929	4.05
354.299	4.05
354.669	4.03
355.038	4.18
355.408	4.22
355.777	3.77
356.147	3.86
356.516	3.53
356.885	4.33
357.254	3.91
357.624	4.1
357.993	3.97
358.362	3.93
358.731	3.72
359.1	3.79
359.469	3.91
359.838	4.17
360.207	4.3
360.576	4.32
360.945	3.8
361.314	4.11
361.682	4.06
362.051	4.2
362.42	3.93
362.788	4.34
363.157	4.12
363.525	3.87
363.894	4.08
364.262	4.1
364.631	4.35
364.999	4.07
365.367	4.05
365.735	4.07
366.104	4.07
366.472	4.37
366.84	4.15
367.208	4.14
367.576	4.31
367.944	3.98
368.312	3.99
368.68	4.2
369.048	4.1
369.416	4.29
369.783	4.44
370.151	4.26
370.519	4.22
370.886	4.26
371.254	4.44
371.621	4.36
371.989	4.03
372.356	4.33
372.724	4.64
373.091	3.98
373.458	3.91
373.826	4.22
374.193	4.22
374.56	4.19
374.927	4.24
375.294	4.3
375.661	4.35
376.028	4.14
376.395	4.29
376.762	4.13
377.129	4.07
377.496	4.4
377.863	4.54
378.229	4.4
378.596	4.22
378.963	4.07
379.329	4.2
379.696	3.92
380.062	4.32
380.429	4.01
380.795	4.12
381.161	4.04
381.528	4.55
381.894	4.37
382.26	4.57
382.626	4.52
382.993	4.21
383.359	4.2
383.725	4.39
384.091	4.58
384.457	4.42
384.823	4.53
385.188	4.54
385.554	4.36
385.92	4.2
386.286	4.47
386.651	4.39
387.017	4.4
387.383	4.45
387.748	4.29
388.114	3.9
388.479	4.4
388.845	4.62
389.21	4.44
389.575	4.3
389.94	4.44
390.306	4.5
390.671	4.4
391.036	4.55
391.401	4.85
391.766	4.58
392.131	4.32
392.496	4.53
392.861	4.37
393.226	4.42
393.591	4.3
393.956	4.61
394.32	4.53
394.685	4.49
395.05	4.59
395.414	4.51
395.779	4.16
396.143	4.26
396.508	4.45
396.872	4.43
397.236	4.62
397.601	4.3
397.965	4.39
398.329	4.59
398.694	4.5
399.058	4.16
399.422	4.51
399.786	4.52
400.15	4.62
400.514	4.25
400.878	4.59
401.242	4.69
401.605	4.56
401.969	4.21
402.333	4.41
402.697	4.55
403.06	4.53
403.424	4.59
403.787	4.62
404.151	4.52
404.514	4.8
404.878	4.54
405.241	4.51
405.604	4.56
405.968	4.41
406.331	4.53
406.694	4.44
407.057	4.44
407.42	4.82
407.783	4.67
408.146	4.53
408.509	4.65
408.872	4.71
409.235	4.7
409.598	4.82
409.961	4.6
410.323	4.55
410.686	4.44
411.049	4.64
411.411	4.54
411.774	4.44
412.136	4.47
412.499	4.63
412.861	4.72
413.223	4.74
413.586	4.56
413.948	4.73
414.31	4.8
414.672	4.58
415.035	4.49
415.397	4.76
415.759	4.67
416.121	4.58
416.483	4.83
416.845	4.79
417.206	4.67
417.568	4.9
417.93	4.85
418.292	4.44
418.653	4.57
419.015	4.6
419.377	4.45
419.738	4.38
420.1	4.46
420.461	4.5
420.822	4.47
421.184	4.52
421.545	4.52
421.906	4.56
422.267	4.52
422.629	4.5
422.99	4.45
423.351	4.5
423.712	4.41
424.073	4.55
424.434	4.5
424.795	4.53
425.155	4.61
425.516	4.53
425.877	4.53
426.238	4.57
426.598	4.61
426.959	4.54
427.32	4.55
427.68	4.64
428.041	4.66
428.401	4.66
428.761	4.72
429.122	4.72
429.482	4.71
429.842	4.81
430.202	4.59
430.563	4.74
430.923	4.81
431.283	4.6
431.643	4.81
432.003	4.84
432.363	4.61
432.722	4.77
433.082	4.75
433.442	4.76
433.802	4.87
434.161	4.66
434.521	4.79
434.881	4.9
435.24	4.74
435.6	4.6
435.959	4.71
436.319	4.71
436.678	4.76
437.037	4.77
437.396	4.86
437.756	4.91
438.115	4.59
438.474	4.89
438.833	4.89
439.192	4.56
439.551	4.67
439.91	4.68
440.269	4.85
440.628	4.84
440.987	4.85
441.345	4.71
441.704	4.84
442.063	4.93
442.421	4.76
442.78	4.64
443.138	4.93
443.497	4.83
443.855	4.85
444.214	4.84
444.572	4.74
444.93	4.99
445.288	4.83
445.647	5.01
446.005	4.77
446.363	4.83
446.721	4.87
447.079	4.89
447.437	4.77
447.795	4.71
448.153	4.75
448.51	4.78
448.868	4.69
449.226	4.75
449.584	4.84
449.941	4.7
450.299	4.86
450.656	4.8
451.014	4.92
451.371	4.95
451.729	4.82
452.086	4.82
452.443	5.01
452.801	4.99
453.158	5.01
453.515	4.94
453.872	4.98
454.229	5.08
454.586	4.91
454.943	4.82
455.3	4.9
455.657	4.91
456.014	4.85
456.371	4.95
456.727	4.96
457.084	4.98
457.441	4.96
457.797	5.24
458.154	4.8
458.51	5.14
458.867	5.09
459.223	4.97
459.58	5.15
459.936	5.18
460.292	5.03
460.648	4.72
461.005	4.85
461.361	4.98
461.717	4.77
462.073	4.87
462.429	4.83
462.785	4.88
463.141	4.98
463.496	4.98
463.852	5.11
464.208	5.07
464.564	5.06
464.919	5.04
465.275	5.18
465.631	5.36
465.986	5.15
466.342	5.19
466.697	4.95
467.052	5.26
467.408	5.14
467.763	5.18
468.118	5.27
468.473	5.16
468.829	5.04
469.184	5.05
469.539	5.2
469.894	5.03
470.249	4.98
470.603	5.02
470.958	5.22
471.313	5.24
471.668	5.21
472.023	5.03
472.377	5.25
472.732	5.12
473.086	5.21
473.441	5.2
473.795	5.47
474.15	5.23
474.504	5.08
474.859	5.12
475.213	5.31
475.567	5.29
475.921	5.25
476.275	5.36
476.63	5.22
476.984	5.18
477.338	5.12
477.692	5.26
478.045	5.23
478.399	5.1
478.753	5.16
479.107	5.09
479.461	5.09
479.814	5.39
480.168	5.27
480.521	5.18
480.875	5.17
481.228	5.3
481.582	5.3
481.935	5.11
482.289	5.23
482.642	5.35
482.995	5.14
483.348	5.27
483.701	5.14
484.055	5.21
484.408	5.04
484.761	5.04
485.114	4.96
485.466	4.83
485.819	4.84
486.172	4.79
486.525	4.8
486.878	4.9
487.23	4.96
487.583	4.97
487.936	5.02
488.288	5.1
488.641	5.16
488.993	5
489.345	4.91
489.698	4.94
490.05	4.9
490.402	4.94
490.754	4.96
491.107	4.94
491.459	5.16
491.811	5.14
492.163	5.17
492.515	5.13
492.866	5.19
493.218	5.05
493.57	4.98
493.922	4.95
494.274	4.96
494.625	5.08
494.977	5.13
495.328	5.14
495.68	5.34
496.031	5.19
496.383	5.32
496.734	5.26
497.086	5.3
497.437	5.35
497.788	5.23
498.139	5.47
498.49	5.24
498.842	5.2
499.193	5.29
499.544	5.25
499.894	5.44
500.245	5.18
500.596	5.34
500.947	5.34
501.298	5.34
501.648	5.31
501.999	5.36
502.35	5.4
502.7	5.54
503.051	5.41
503.401	5.36
503.752	5.44
504.102	5.5
504.452	5.33
504.803	5.38
505.153	5.43
505.503	5.36
505.853	5.58
506.203	5.26
506.553	5.35
506.903	5.38
507.253	5.45
507.603	5.38
507.953	5.51
508.303	5.35
508.652	5.5
509.002	5.37
509.352	5.62
509.701	5.39
510.051	5.43
510.4	5.43
510.75	5.48
511.099	5.42
511.449	5.45
511.798	5.46
512.147	5.43
512.496	5.4
512.846	5.36
513.195	5.42
513.544	5.48
513.893	5.37
514.242	5.45
514.591	5.51
514.939	5.29
515.288	5.34
515.637	5.36
515.986	5.52
516.334	5.43
516.683	5.44
517.032	5.42
517.38	5.5
517.729	5.47
518.077	5.52
518.426	5.36
518.774	5.44
519.122	5.57
519.47	5.53
519.819	5.45
520.167	5.35
520.515	5.44
520.863	5.47
521.211	5.38
521.559	5.44
521.907	5.43
522.255	5.45
522.602	5.47
522.95	5.39
523.298	5.56
523.645	5.5
523.993	5.39
524.341	5.47
524.688	5.48
525.036	5.53
525.383	5.42
525.73	5.64
526.078	5.57
526.425	5.64
526.772	5.53
527.119	5.52
527.466	5.4
527.814	5.44
528.161	5.43
528.508	5.4
528.854	5.46
529.201	5.39
529.548	5.45
529.895	5.38
530.242	5.28
530.588	5.25
530.935	5.23
531.282	5.27
531.628	5.33
531.975	5.31
532.321	5.37
532.667	5.43
533.014	5.48
533.36	5.52
533.706	5.52
534.052	5.48
534.399	5.46
534.745	5.42
535.091	5.48
535.437	5.42
535.783	5.41
536.129	5.42
536.474	5.56
536.82	5.49
537.166	5.59
537.512	5.57
537.857	5.6
538.203	5.57
538.549	5.58
538.894	5.54
539.239	5.51
539.585	5.48
539.93	5.6
540.276	5.79
540.621	5.58
540.966	5.71
541.311	5.79
541.656	5.69
542.001	5.69
542.346	5.72
542.691	5.57
543.036	5.49
543.381	5.42
543.726	5.44
544.071	5.48
544.415	5.49
544.76	5.57
545.105	5.61
545.449	5.66
545.794	5.61
546.138	5.62
546.483	5.72
546.827	5.78
547.171	5.78
547.516	5.72
547.86	5.76
548.204	5.61
548.548	5.64
548.892	5.77
549.236	5.72
549.58	5.59
549.924	5.55
550.268	5.69
550.612	5.8
550.956	5.9
551.3	5.85
551.643	5.84
551.987	5.9
552.33	6
552.674	5.7
553.017	5.81
553.361	5.74
553.704	5.97
554.048	6.01
554.391	5.95
554.734	5.81
555.077	5.78
555.42	5.61
555.764	5.72
556.107	5.95
556.45	5.86
556.793	5.73
557.135	5.79
557.478	5.95
557.821	5.99
558.164	6.17
558.507	5.97
558.849	5.98
559.192	5.91
559.534	6.11
559.877	5.93
560.219	5.99
560.562	5.96
560.904	5.77
561.246	6.04
561.589	5.85
561.931	5.91
562.273	5.96
562.615	6.01
562.957	6.08
563.299	6.03
563.641	5.95
563.983	5.86
564.325	5.76
564.667	5.98
565.008	6.12
565.35	5.94
565.692	6.02
566.033	6.03
566.375	6.02
566.716	6.14
567.058	5.99
567.399	5.94
567.741	5.84
568.082	6.03
568.423	5.91
568.764	5.76
569.105	6.02
569.447	5.88
569.788	6.05
570.129	5.99
570.47	6.03
570.811	6.25
571.151	5.88
571.492	5.96
571.833	6.04
572.174	6.16
572.514	6.03
572.855	6.05
573.195	6.01
573.536	5.82
573.876	6.16
574.217	5.84
574.557	6.01
574.898	5.91
575.238	5.89
575.578	6.1
575.918	5.93
576.258	5.99
576.598	5.99
576.938	6.08
577.278	6.1
577.618	5.95
577.958	5.97
578.298	6.11
578.638	6.07
578.977	5.96
579.317	5.77
579.657	6.09
579.996	6.17
580.336	6.12
580.675	6.02
581.014	5.92
581.354	6.14
581.693	6.1
582.032	6.26
582.372	6.08
582.711	6.38
583.05	6.1
583.389	6.2
583.728	6.17
584.067	6.23
584.406	6.23
584.745	6.1
585.083	6.01
585.422	5.85
585.761	6.08
586.1	6.2
586.438	6.02
586.777	5.98
587.115	6.34
587.454	6.1
587.792	6.07
588.13	6.16
588.469	6.05
588.807	5.7
589.145	6.23
589.483	5.98
589.821	6.04
590.159	6.3
590.497	6.25
590.835	6.27
591.173	6.1
591.511	6.3
591.849	5.87
592.187	6.29
592.524	6.05
592.862	6.35
593.2	6.15
593.537	6.05
593.875	5.88
594.212	6.46
594.55	6.38
594.887	6.24
595.224	6.2
595.561	6.12
595.899	6.21
596.236	6.31
596.573	6.22
596.91	6.17
597.247	6.25
597.584	5.87
597.921	6.17
598.258	6.38
598.594	6.21
598.931	6.09
599.268	6.13
599.604	6.16
599.941	6.04
600.277	6.02
600.614	6.14
600.95	6.21
601.287	6.16
601.623	6.24
601.959	6.27
602.296	6.3
602.632	6.14
602.968	6.09
603.304	6.17
603.64	5.85
603.976	6.32
604.312	6.41
604.648	6.31
604.984	6.34
605.319	6.18
605.655	5.9
605.991	6.21
606.326	6.23
606.662	5.96
606.998	5.97
607.333	6.05
607.668	5.98
608.004	6.11
608.339	6.3
608.674	6.27
609.01	6.09
609.345	6.27
609.68	6.3
610.015	6.41
610.35	6.4
610.685	6.39
611.02	6.24
611.355	6.2
611.689	6.07
612.024	6.25
612.359	6.1
612.694	6.39
613.028	6.22
613.363	6.39
613.697	6.33
614.032	6.43
614.366	6.37
614.7	6.4
615.035	6.32
615.369	6.52
615.703	5.92
616.037	6.38
616.371	6.37
616.705	6.31
617.039	6.48
617.373	6.22
617.707	6.47
618.041	6.61
618.375	6.22
618.709	6.26
619.042	6.56
619.376	6.77
619.71	6.57
620.043	6.61
620.377	6.16
620.71	6.29
621.043	6.56
621.377	6.09
621.71	6.2
622.043	6.34
622.376	6.4
622.709	6.72
623.043	6.35
623.376	6.53
623.709	6.47
624.041	6.19
624.374	6.66
624.707	6.17
625.04	6.69
625.373	6.45
625.705	6.14
626.038	6.76
626.37	6.16
626.703	6.38
627.035	6.22
627.368	6.5
627.7	6.53
628.032	6.42
628.365	6.44
628.697	6.29
629.029	6.28
629.361	6.22
629.693	6.22
630.025	6.42
630.357	6.29
630.689	6.61
631.021	6.59
631.353	6.49
631.684	6.23
632.016	6.6
632.348	6.27
632.679	6.15
633.011	6.52
633.342	6.44
633.674	6.17
634.005	6.53
634.336	6.46
634.668	6.18
634.999	6.33
635.33	5.97
635.661	6.84
635.992	6.58
636.323	6.68
636.654	6.49
636.985	6.42
637.316	6.39
637.647	6.58
637.977	6.31
638.308	6.42
638.639	6.23
638.969	6.54
639.3	5.96
639.63	6.45
639.961	6.48
640.291	6.62
640.622	6.71
640.952	6.5
641.282	6.41
641.612	6.45
641.943	6.99
642.273	6.63
642.603	6.66
642.933	6.79
643.263	7.16
643.592	6.13
643.922	7.16
644.252	6.38
644.582	6.14
644.911	6.72
645.241	7.14
645.571	6.96
645.9	6.6
646.23	6.71
646.559	6.14
646.888	6.64
647.218	6.66
647.547	6.43
647.876	6.68
648.205	6.35
648.534	6.23
648.863	6.5
649.192	6.5
649.521	6.76
649.85	6.4
650.179	6.27
650.508	6.35
650.837	6.88
651.165	6.71
651.494	5.89
651.822	6.96
652.151	6.29
652.479	6.52
652.808	6.45
653.136	6.27
653.465	6.86
653.793	6.79
654.121	6.84
654.449	6.63
654.777	6.66
655.105	6.77
655.433	6.95
655.761	6.48
656.089	6.84
656.417	6.73
656.745	6.78
657.073	6.68
657.4	7.38
657.728	6.9
658.056	6.92
658.383	6.48
658.711	6.58
659.038	6.77
659.365	6.48
659.693	6.71
660.02	6.31
660.347	6.26
660.674	6.97
661.001	6.63
661.329	6.67
661.656	6.8
661.982	6.65
662.309	6.73
662.636	6.77
662.963	6.88
663.29	6.55
663.616	6.91
663.943	6.38
664.27	6.68
664.596	6.68
664.923	6.84
665.249	6.44
665.576	6.58
665.902	6.73
666.228	6.68
666.554	7.19
666.881	6.48
667.207	7.25
667.533	6.64
667.859	6.97
668.185	6.96
668.511	7.03
668.837	7.85
669.162	7.44
669.488	6.59
669.814	6.07
670.139	7.07
670.465	6.57
670.791	7.31
671.116	6.85
671.442	6.57
671.767	6.68
672.092	6.79
672.418	6.96
672.743	6.66
673.068	7.34
673.393	6.6
673.718	7
674.043	6.52
674.368	6.77
674.693	6.45
675.018	7.39
675.343	6.62
675.667	7.25
675.992	7.49
676.317	6.93
676.641	6.97
676.966	7.03
677.29	6.67
677.615	6.6
677.939	6.56
678.264	6.96
678.588	6.49
678.912	7.04
679.236	7.41
679.56	7.07
679.885	7.2
680.209	6.5
680.532	6.57
680.856	6.71
681.18	6.98
681.504	7.16
681.828	7.08
682.152	7.36
682.475	6.86
682.799	6.84
683.122	6.83
683.446	7.56
683.769	7.14
684.093	7.24
684.416	6.8
684.739	6.27
685.062	6.52
685.386	6.74
685.709	7.53
686.032	7.43
686.355	7.54
686.678	6.64
687.001	7.09
687.324	6.51
687.646	6.86
687.969	7.21
688.292	7.49
688.614	7.03
688.937	6.72
689.26	6.71
689.582	6.73
689.904	6.46
690.227	7.07
690.549	7.26
690.871	7.3
691.194	7.31
691.516	7.13
691.838	7.43
692.16	7.49
692.482	6.85
692.804	6.9
693.126	6.46
693.448	7.99
693.769	7.39
694.091	6.95
694.413	7.05
694.735	7.09
695.056	6.86
695.378	7.74
695.699	7.73
696.021	6.59
696.342	7.53
696.663	6.94
696.984	7.52
697.306	7.58
697.627	7.17
697.948	8.02
698.269	7.08
698.59	7.01
698.911	7.42
699.232	6.88
699.553	7.51
699.873	6.65
700.194	7.96
700.515	6.8
700.835	7.79
701.156	7.69
701.477	7.18
701.797	6.78
702.117	6.89
702.438	7.43
702.758	6.77
703.078	7.41
703.398	6.66
703.719	7.36
704.039	7.29
704.359	8.26
704.679	7.25
704.999	7.27
705.319	7.36
705.638	6.51
705.958	7.56
706.278	6.83
706.597	7.99
706.917	7.8
707.237	7.58
707.556	6.21
707.876	6.79
708.195	8.34
708.514	6.62
708.834	8.03
709.153	7.72
709.472	7.45
709.791	8.6
710.11	7.43
710.429	7.35
710.748	8.56
711.067	7.35
711.386	7
711.705	8.28
712.023	7.69
712.342	7.83
712.661	7.08
712.979	7.06
713.298	7.41
713.616	7.45
713.935	7.42
714.253	8.47
714.572	7.4
714.89	7.9
715.208	7.32
715.526	7.78
715.844	7.66
716.162	7.82
716.48	8.87
716.798	7.19
717.116	7.42
717.434	7.48
717.752	7.5
718.069	6.93
718.387	7.36
718.705	6.81
719.022	8.56
719.34	8.43
719.657	7.72
719.975	7.52
720.292	7.36
720.609	8.12
720.927	7.36
721.244	8.26
721.561	8.2
721.878	7.04
722.195	7.16
722.512	8.43
722.829	7.56
723.146	7.24
723.463	7.46
723.779	8.97
724.096	7.92
724.413	7.55
724.729	8.86
725.046	8.51
725.362	8.7
725.679	7.58
725.995	9.16
726.311	9.51
726.628	7.93
726.944	7.68
727.26	6.67
727.576	8.53
727.892	8.16
728.208	8.56
728.524	8.22
728.84	7.54
729.156	8.21
729.472	6.91
729.787	7.9
730.103	8.07
730.419	7.69
730.734	7.57
731.05	7.3
731.365	6.57
731.681	8.7
731.996	8.43
732.311	8.56
732.626	8.11
732.942	8.1
733.257	8.33
733.572	8.8
733.887	7.64
734.202	8.6
734.517	7.95
734.832	9.01
735.146	9.79
735.461	8.78
735.776	8.19
736.091	8.73
736.405	7.68
736.72	8.34
737.034	9.03
737.349	8.76
737.663	7.4
737.977	8.61
738.292	8.93
738.606	7.77
738.92	8.29
739.234	8.55
739.548	7.38
739.862	8.26
740.176	7.94
740.49	6.17
740.804	9.15
741.117	8.56
741.431	8.32
741.745	7.55
742.058	9
742.372	7.99
742.685	8.47
742.999	7.83
743.312	8.63
743.626	9.12
743.939	9.77
744.252	8.03
744.565	7.49
744.878	8.62
745.191	10.31
745.505	7.77
745.817	8.73
746.13	8.04
746.443	10.16
746.756	8.3
747.069	8.92
747.381	8.98
747.694	7.85
748.007	7.54
748.319	9.43
748.632	7.06
748.944	9.02
749.256	9.85
749.569	9.07
749.881	9.86
750.193	7.35
750.505	8.09
750.817	9.32
751.129	7.65
751.441	6.95
751.753	7.29
752.065	11.78
752.377	7.45
752.689	9.78
753	8.35
753.312	5.89
753.624	6.26
753.935	10.33
754.247	9.92
754.558	10.38
754.869	7.87
755.181	6.22
755.492	7.06
755.803	7.53
756.114	7.93
756.425	9.56
756.736	9.18
757.047	7.74
757.358	9.83
757.669	8.89
757.98	6.75
758.291	8.15
758.601	7.49
758.912	9.87
759.223	9.73
759.533	10.37
759.844	10.15
760.154	10.01
760.464	9.49
760.775	8.86
761.085	8.83
761.395	9.79
761.705	9.46
762.016	10.56
762.326	10.7
762.636	10.53
762.945	8.15
763.255	10.18
763.565	9.02
763.875	9.28
764.185	8.21
764.494	10.89
764.804	9.5
765.113	8.7
765.423	8.54
765.732	9.3
766.042	9.41
766.351	9.32
766.66	8.12
766.97	8.78
767.279	8.33
767.588	7.47
767.897	9.17
768.206	9.67
768.515	8.68
768.824	8.42
769.133	8.18
769.441	7.9
769.75	12.78
770.059	8.65
770.367	9.42
770.676	11.98
770.984	9.46
771.293	8.85
771.601	7.13
771.91	8.15
772.218	12.01
772.526	10.39
772.834	9.85
773.142	9.84
773.45	9.43
773.758	10.93
774.066	10.24
774.374	10.55
774.682	8.26
774.99	9.17
775.298	5.95
775.605	9.02
775.913	10.8
776.22	9.09
776.528	10.77
776.835	8.3
777.143	5.01
777.45	12.52
777.757	7.47
778.065	10.01
778.372	12.38
778.679	11.66
778.986	9.68
779.293	10.2
779.6	13.88
779.907	8.84
780.214	7.92
780.52	11.37
780.827	9.41
781.134	8.89
781.44	10.71
781.747	12.5
782.053	9.18
782.36	9.19
782.666	10.76
782.973	8.23
783.279	7.65
783.585	11.28
783.891	10.05
784.197	12.02
784.503	7.41
784.809	9.85
785.115	8.23
785.421	10.05
785.727	9.49
786.033	14.72
786.339	8.84
786.644	12.77
786.95	13.34
787.255	9.88
787.561	7.31
787.866	9.15
788.172	12.69
788.477	9.51
788.782	9.91
789.088	8.82
789.393	11.68
789.698	7.43
790.003	9.65
790.308	10.22
790.613	6.59
790.918	10.81
791.223	10.99
791.527	8.67
791.832	12.03
792.137	12.27
792.441	7.97
792.746	8.97
793.05	9.34
793.355	10.45
793.659	9.97
793.963	13.52
794.268	10.77
794.572	9.08
794.876	9.06
795.18	8.97
795.484	7.16
795.788	12.83
796.092	9.16
796.396	6.27
796.7	13.45
797.004	12.43
797.307	10.09
797.611	11.08
797.915	4.93
798.218	10.19
798.522	9.82
798.825	11.4
799.128	11.13
799.432	6.17
799.735	7.17
800.038	9.88
800.341	6.1
800.644	15.96
800.947	12.53
801.25	8.4
801.553	10.1
801.856	9.62
802.159	12.45
802.462	9.42
802.764	9.85
803.067	14.59
803.37	14.89
803.672	12.54
803.975	9.55
804.277	12.2
804.579	6.85
804.882	13.63
805.184	10.95
805.486	14.17
805.788	14
806.09	12.86
806.392	11.77
806.694	13.63
806.996	12.7
807.298	14.97
807.6	11
807.902	15.32
808.203	11.64
808.505	18.03
808.807	8.58
809.108	4.18
809.409	12.37
809.711	6.67
810.012	9.49
810.313	10.35
810.615	10.04
810.916	13.74
811.217	15.62
811.518	9.92
811.819	11.29
812.12	8.12
812.421	8.87
812.722	12.02
813.023	14.51
813.323	7.44
813.624	18.78
813.925	11.65
814.225	14.55
814.526	13.37
814.826	18.74
815.126	14.47
815.427	15.94
815.727	17.83
816.027	14.67
816.327	14.48
816.627	14.13
816.927	11.44
817.227	17.24
817.527	9.92
817.827	9
818.127	7.01
818.427	16.81
818.727	11.69
819.026	10.86
819.326	17.55
819.625	13.27
819.925	14.7
820.224	17.65
820.524	13.3
820.823	11.9
821.122	10.6
821.421	7.6
821.72	20.72
822.019	10.5
822.318	14.63
822.617	3.97
822.916	14.21
823.215	10.97
823.514	14.14
823.813	9.02
824.111	11.17
824.41	10.22
824.709	11.75
825.007	9.28
825.306	10.88
825.604	9.64
825.902	9.71
826.201	10.42
826.499	11.29
826.797	10.23
827.095	11.13
827.393	9.5
827.691	11.83
827.989	10.97
828.287	12
828.585	10.99
828.882	8.88
829.18	9.64
829.478	10.63
829.775	12.05
830.073	10.01
830.37	12.13
830.668	13.01
830.965	9.54
831.263	10.6
831.56	12.9
831.857	9.96
832.154	9.6
832.451	13.4
832.748	12.62
833.045	9.31
833.342	12.49
833.639	9.07
833.936	15.64
834.232	12.18
834.529	13.96
834.826	9.26
835.122	15.43
835.419	13.96
835.715	14.93
836.012	13.76
836.308	9.59
836.604	9.93
836.901	11.2
837.197	13.68
837.493	14.53
837.789	14.37
838.085	12
838.381	14.71
838.677	11.67
838.972	16.62
839.268	7.27
839.564	13.5
839.86	13.64
840.155	17.03
840.451	11.67
840.746	12.86
841.042	14.99
841.337	9.19
841.632	19.87
841.928	14.82
842.223	17.84
842.518	10.19
842.813	17.12
843.108	8.83
843.403	12.2
843.698	14
843.993	20.03
844.287	11.59
844.582	19.03
844.877	18.94
845.171	24.48
845.466	16.38
845.761	7.7
846.055	16.63
846.349	17
846.644	23.53
846.938	20.54
847.232	19.14
847.526	7.86
847.82	11.37
848.114	20.13
848.408	11.78
848.702	-8.92
848.996	19.1
849.29	19.14
849.584	4.38
849.877	20.68
850.171	15.05
850.465	-0.97
850.758	7.86
851.052	15.76
851.345	25.66
851.638	19.26
851.932	13.51
852.225	28.25
852.518	32.79
852.811	27.28
853.104	28.92
853.397	11.56
853.69	19.35
853.983	19.34
854.276	32.11
854.569	28.17
854.861	7.4
855.154	41.83
855.447	14.17
855.739	38.67
856.032	17.89
856.324	29.48
856.616	18.11
856.909	33.16
857.201	15.89
857.493	28.2
857.785	18.83
858.077	23.94
858.369	25.34
858.661	29.71
858.953	9.12
859.245	12.67
859.537	7.51
859.829	36.69
860.12	5.39
860.412	21.01
860.703	31.98
860.995	43.09
861.286	17.56
861.578	10.66
861.869	21.41
862.16	3.71
862.452	5.53
862.743	29.86
863.034	20.15
863.325	24.16
863.616	28.36
863.907	11.77
864.198	16.62
864.488	34.13
864.779	12.75
865.07	32.98
865.36	20.4
865.651	20.88
865.941	30.69
866.232	32.4
866.522	18.41
866.813	27.23
867.103	10.39
867.393	12.44
867.683	26.15
867.973	48.08
868.263	26.23
868.553	7.38
868.843	11.56
869.133	28.28
869.423	-8.43
869.713	29.46
870.002	13.7
870.292	11.38
870.582	34.63
870.871	25.87
871.161	11.41
871.45	37.68
871.739	28.95
872.029	18.53
872.318	33.84
872.607	33.08
872.896	27.23
873.185	22.86
873.474	30.8
873.763	31.42
874.052	30.18
874.341	22.04
874.63	26.78
874.918	17.49
875.207	26.97
875.496	10.15
875.784	36.24
876.073	-10.35
876.361	35.48
876.649	5.15
876.938	37.55
877.226	25.26
877.514	28.07
877.802	4.58
878.09	6.11
878.378	40.71
878.666	9.82
878.954	14.52
879.242	24.47
879.53	12.5
879.817	35.24
880.105	13.27
880.392	31.46
880.68	12.06
880.967	18.69
881.255	39.91
881.542	27.33
881.83	37.75
882.117	35.55
882.404	26.46
882.691	26.62
882.978	27.83
883.265	6.41
883.552	19.13
883.839	2.03
884.126	6.54
884.413	8.98
884.699	19.19
884.986	28.68
885.273	12.21
885.559	12.21
885.846	12.21
