Data from 0195_forehead_Reflection__0__366.txt Node

Date: Fri Dec 15 19:51:32 CST 2023
User: ToomeyLab
Spectrometer: FLMS14357
Trigger mode: 0
Integration Time (sec): 1.000000E-2
Scans to average: 100
Electric dark correction enabled: true
Nonlinearity correction enabled: false
Boxcar width: 0
XAxis mode: Wavelengths
Number of Pixels in Spectrum: 2048
>>>>>Begin Spectral Data<<<<<
189.047	242.34
189.435	242.34
189.823	242.34
190.211	168.8
190.599	52.48
190.987	5.41
191.375	337.58
191.763	49.27
192.151	58.93
192.538	111.71
192.926	-252.84
193.314	70.42
193.702	19.15
194.089	-57.74
194.477	240.17
194.864	593.94
195.252	69.82
195.639	118.61
196.027	-64.54
196.414	170.89
196.801	175.48
197.189	43.31
197.576	193.4
197.963	111.91
198.351	-21.38
198.738	67.42
199.125	39
199.512	-55.05
199.899	39.59
200.286	41.01
200.673	45.23
201.06	60.82
201.447	9.65
201.833	13.81
202.22	31.29
202.607	8.81
202.994	34.85
203.38	31.14
203.767	57.62
204.154	28.96
204.54	32.04
204.927	-59.7
205.313	1.81
205.699	41.82
206.086	31.79
206.472	32.56
206.858	39.55
207.245	-58.94
207.631	55.81
208.017	6.84
208.403	15.86
208.789	13.77
209.175	-3.77
209.561	9.8
209.947	20.36
210.333	77.85
210.719	52.42
211.105	-2.31
211.491	3.29
211.876	52.64
212.262	63.5
212.648	-10.35
213.034	22.84
213.419	52.78
213.805	11.82
214.19	0.58
214.576	32.49
214.961	1.29
215.346	-54.37
215.732	-45.66
216.117	7.31
216.502	53.07
216.888	50.54
217.273	18.89
217.658	6.15
218.043	17.09
218.428	0.91
218.813	13.95
219.198	-34.04
219.583	-5.45
219.968	17.02
220.353	28.64
220.738	26.68
221.122	15.23
221.507	-22.77
221.892	-22.98
222.276	8.23
222.661	-1.09
223.046	25.86
223.43	15.85
223.815	6.61
224.199	-3
224.583	4.83
224.968	11.18
225.352	16.38
225.736	-0.02
226.121	2.38
226.505	1.25
226.889	9.86
227.273	11.25
227.657	10.18
228.041	4.05
228.425	1.3
228.809	4.15
229.193	5.12
229.577	2.48
229.961	4.99
230.344	3.89
230.728	4.87
231.112	3.72
231.495	3.39
231.879	2.13
232.263	6.98
232.646	4.49
233.03	5.2
233.413	1.57
233.797	4.86
234.18	-0.3
234.563	3.33
234.946	2.48
235.33	6.55
235.713	4.54
236.096	4.71
236.479	3.2
236.862	2.44
237.245	5.77
237.628	3.7
238.011	5.01
238.394	6.15
238.777	4.84
239.16	0.82
239.543	3.33
239.925	6.05
240.308	3.13
240.691	4.99
241.073	6.17
241.456	3.74
241.838	3.21
242.221	1.68
242.603	5.61
242.986	4.75
243.368	3.78
243.75	4.9
244.133	4.21
244.515	4.75
244.897	4.73
245.279	4.59
245.661	3.97
246.043	4.03
246.425	3.08
246.807	6.63
247.189	4.02
247.571	4.99
247.953	4.6
248.335	4.22
248.717	4.62
249.098	4.32
249.48	4.18
249.862	4.5
250.243	4.16
250.625	4.46
251.006	4.58
251.388	4.38
251.769	4.68
252.151	4.19
252.532	4.5
252.913	3.1
253.295	4.19
253.676	4.09
254.057	4.41
254.438	4.22
254.819	4.38
255.2	4.39
255.581	5.07
255.962	3.28
256.343	4.3
256.724	5.13
257.105	4.04
257.486	4.03
257.867	5.15
258.247	4.31
258.628	3.22
259.009	3.77
259.389	4.83
259.77	4.61
260.15	3.81
260.531	3.61
260.911	5.18
261.292	4.42
261.672	4.44
262.052	4.51
262.432	4.93
262.813	4.54
263.193	4.23
263.573	3.79
263.953	4.25
264.333	5.3
264.713	4.44
265.093	4.24
265.473	4.47
265.853	4.6
266.233	5.03
266.612	3.15
266.992	3.65
267.372	4.73
267.752	3.83
268.131	3.78
268.511	5.13
268.89	4.92
269.27	4.07
269.649	3.46
270.029	4.27
270.408	5.3
270.787	4.55
271.167	4.65
271.546	4.67
271.925	3.35
272.304	3.98
272.683	4.56
273.062	4.24
273.441	4.43
273.82	3.87
274.199	4.31
274.578	4.63
274.957	4.7
275.336	4.07
275.715	3.95
276.093	4.43
276.472	4.42
276.851	4.09
277.229	4.29
277.608	3.59
277.986	4.3
278.365	4.26
278.743	3.69
279.122	4.52
279.5	3.86
279.878	4.9
280.257	3.98
280.635	4.13
281.013	4.03
281.391	4.69
281.769	4.78
282.147	4.73
282.525	5
282.903	4.71
283.281	4.46
283.659	4.76
284.037	4.56
284.415	4.78
284.792	5.01
285.17	3.79
285.548	4.35
285.925	4.99
286.303	4.63
286.68	4.28
287.058	4.66
287.435	4.38
287.813	4.52
288.19	4.5
288.567	4.44
288.945	5.11
289.322	5
289.699	4.64
290.076	4.35
290.453	4.37
290.83	4.99
291.207	4.21
291.584	4.64
291.961	4.71
292.338	4.87
292.715	5.03
293.092	4.9
293.469	4.73
293.845	4.86
294.222	4.18
294.599	5.22
294.975	4.93
295.352	5.19
295.728	4.54
296.105	5.38
296.481	5.45
296.858	5.48
297.234	4.84
297.61	5.05
297.986	5.25
298.363	5.32
298.739	5.23
299.115	5.17
299.491	5.04
299.867	5.38
300.243	5.64
300.619	4.82
300.995	5.53
301.371	5.61
301.746	5.78
302.122	5.66
302.498	5.43
302.874	5.54
303.249	5.27
303.625	5.99
304	5.79
304.376	5.6
304.751	5.67
305.127	6.34
305.502	5.75
305.878	5.53
306.253	6.2
306.628	6.4
307.003	6.07
307.378	6.4
307.754	5.71
308.129	5.65
308.504	5.73
308.879	5.83
309.254	6.79
309.629	7.12
310.003	6.09
310.378	6.77
310.753	7.06
311.128	6.33
311.502	6.39
311.877	6.82
312.252	6.18
312.626	6.73
313.001	7.08
313.375	7.08
313.75	6.12
314.124	6.76
314.498	6.69
314.873	6.85
315.247	6.28
315.621	6.86
315.995	5.81
316.369	7.02
316.743	7.42
317.117	7.11
317.491	6.78
317.865	7.32
318.239	7.38
318.613	7.32
318.987	7.78
319.361	6.67
319.734	7.54
320.108	7.86
320.482	7.37
320.855	7.72
321.229	7.51
321.602	6.96
321.976	7.58
322.349	8.09
322.723	7.2
323.096	7.87
323.469	7.19
323.843	7.44
324.216	8.18
324.589	7.23
324.962	7.88
325.335	7.76
325.708	8.16
326.081	7.75
326.454	7.96
326.827	7.66
327.2	7.93
327.573	8.45
327.945	8.29
328.318	7.52
328.691	7.88
329.063	8.08
329.436	8.24
329.809	7.96
330.181	8.01
330.553	8.02
330.926	8.65
331.298	8.76
331.671	8.04
332.043	8.02
332.415	8.42
332.787	8.29
333.159	8.59
333.532	9.3
333.904	8.67
334.276	8.06
334.648	8.88
335.02	8.93
335.391	8.46
335.763	8.38
336.135	8.85
336.507	9.04
336.879	8.8
337.25	8.99
337.622	8.3
337.993	8.71
338.365	9.12
338.736	8.95
339.108	8.41
339.479	8.83
339.851	9.08
340.222	8.6
340.593	9.04
340.964	8.61
341.336	9.45
341.707	8.58
342.078	9.23
342.449	9.26
342.82	8.81
343.191	9.11
343.562	9.47
343.933	9.19
344.303	8.93
344.674	9.21
345.045	9.21
345.416	9.93
345.786	8.9
346.157	9.98
346.527	9.38
346.898	8.99
347.268	9.39
347.639	9.25
348.009	9.85
348.38	9.42
348.75	9.46
349.12	9.5
349.49	9.88
349.861	10.17
350.231	9.71
350.601	10.01
350.971	9.51
351.341	9.89
351.711	9.74
352.081	9.55
352.45	9.6
352.82	10.43
353.19	10.08
353.56	9.98
353.929	10.03
354.299	9.79
354.669	9.89
355.038	10.82
355.408	10.26
355.777	9.8
356.147	9.76
356.516	10.16
356.885	10.22
357.254	10.01
357.624	10.5
357.993	10.44
358.362	9.82
358.731	9.96
359.1	10.16
359.469	10.23
359.838	10.35
360.207	9.93
360.576	10.41
360.945	10.76
361.314	10.5
361.682	10.08
362.051	10.54
362.42	10.59
362.788	10.64
363.157	10.51
363.525	10.73
363.894	10.56
364.262	10.73
364.631	10.44
364.999	11
365.367	10.13
365.735	11.62
366.104	11.04
366.472	10.78
366.84	10.69
367.208	10.98
367.576	11.22
367.944	10.78
368.312	11.29
368.68	10.91
369.048	11.3
369.416	11.12
369.783	10.86
370.151	11.07
370.519	11.85
370.886	11.57
371.254	11.17
371.621	11.49
371.989	11.33
372.356	10.51
372.724	11.36
373.091	11.19
373.458	11.33
373.826	11.6
374.193	11.6
374.56	11.57
374.927	11.85
375.294	11.77
375.661	11.37
376.028	11.94
376.395	11.11
376.762	11.52
377.129	11.75
377.496	11.72
377.863	11.76
378.229	11.46
378.596	11.66
378.963	11.8
379.329	11.54
379.696	11.97
380.062	11.75
380.429	11.79
380.795	11.76
381.161	12.05
381.528	12.13
381.894	11.88
382.26	11.79
382.626	12.31
382.993	12.04
383.359	12.14
383.725	12.27
384.091	12.46
384.457	12.55
384.823	12.26
385.188	12.3
385.554	12.3
385.92	12.2
386.286	12.59
386.651	12.54
387.017	12.83
387.383	12.38
387.748	12.49
388.114	13.05
388.479	12.5
388.845	12.57
389.21	12.82
389.575	12.69
389.94	13.02
390.306	12.59
390.671	12.83
391.036	12.76
391.401	12.82
391.766	12.96
392.131	12.59
392.496	13.06
392.861	12.65
393.226	12.95
393.591	12.97
393.956	12.81
394.32	13.15
394.685	13
395.05	12.74
395.414	12.98
395.779	12.89
396.143	13.35
396.508	13.35
396.872	13.18
397.236	13.4
397.601	12.95
397.965	13.2
398.329	13.48
398.694	13.61
399.058	13.22
399.422	13.02
399.786	13.54
400.15	13.7
400.514	13.34
400.878	13.52
401.242	13.75
401.605	13.71
401.969	13.86
402.333	13.86
402.697	13.6
403.06	13.86
403.424	13.82
403.787	14.02
404.151	13.68
404.514	13.82
404.878	13.83
405.241	14.24
405.604	13.98
405.968	14.15
406.331	13.82
406.694	14.17
407.057	14.24
407.42	14.09
407.783	13.8
408.146	14.52
408.509	14.2
408.872	13.89
409.235	14.49
409.598	14.24
409.961	14.27
410.323	14.44
410.686	14.32
411.049	14.3
411.411	14.36
411.774	14.52
412.136	14.63
412.499	14.47
412.861	14.4
413.223	14.28
413.586	14.75
413.948	14.61
414.31	14.68
414.672	14.47
415.035	14.58
415.397	15.08
415.759	14.79
416.121	14.91
416.483	14.97
416.845	14.97
417.206	14.69
417.568	15.12
417.93	14.7
418.292	14.94
418.653	14.95
419.015	15.16
419.377	14.98
419.738	14.99
420.1	14.86
420.461	15.04
420.822	15.03
421.184	14.93
421.545	14.95
421.906	14.87
422.267	14.93
422.629	15.05
422.99	15.03
423.351	15
423.712	15.04
424.073	15.02
424.434	15.12
424.795	15.16
425.155	15.09
425.516	15.09
425.877	15.17
426.238	15.26
426.598	15.28
426.959	15.18
427.32	15.26
427.68	15.39
428.041	15.41
428.401	15.46
428.761	15.65
429.122	15.76
429.482	15.75
429.842	16.08
430.202	15.86
430.563	15.78
430.923	15.84
431.283	16.17
431.643	15.99
432.003	15.96
432.363	16.16
432.722	16.03
433.082	16.13
433.442	15.85
433.802	15.84
434.161	16.19
434.521	16.55
434.881	16.14
435.24	16.19
435.6	16.07
435.959	16.18
436.319	16.23
436.678	16.2
437.037	16.25
437.396	16.49
437.756	16.33
438.115	16.48
438.474	16.49
438.833	16.39
439.192	16.54
439.551	16.54
439.91	16.5
440.269	16.58
440.628	16.48
440.987	16.7
441.345	16.54
441.704	16.74
442.063	16.64
442.421	16.67
442.78	16.66
443.138	16.65
443.497	16.85
443.855	16.69
444.214	16.83
444.572	16.82
444.93	17.23
445.288	16.98
445.647	17.09
446.005	17.06
446.363	17.15
446.721	17.04
447.079	16.81
447.437	17.05
447.795	16.96
448.153	16.89
448.51	17.01
448.868	17.07
449.226	17.07
449.584	17.17
449.941	17.42
450.299	17.22
450.656	17.28
451.014	17.4
451.371	17.44
451.729	17.28
452.086	17.65
452.443	17.5
452.801	17.71
453.158	17.87
453.515	17.66
453.872	17.78
454.229	17.7
454.586	17.59
454.943	17.7
455.3	17.91
455.657	17.69
456.014	17.89
456.371	17.93
456.727	18.13
457.084	18.22
457.441	18.09
457.797	18.11
458.154	18.45
458.51	18.34
458.867	18.45
459.223	18.38
459.58	18.45
459.936	18.48
460.292	18.3
460.648	18.42
461.005	18.35
461.361	18.38
461.717	18.08
462.073	18.23
462.429	18.24
462.785	18.3
463.141	18.5
463.496	18.53
463.852	18.82
464.208	18.52
464.564	18.88
464.919	18.82
465.275	18.96
465.631	19.05
465.986	19.09
466.342	18.99
466.697	18.85
467.052	19.21
467.408	18.82
467.763	19.06
468.118	19.09
468.473	19.08
468.829	19.26
469.184	18.88
469.539	19.14
469.894	18.92
470.249	19.41
470.603	19.48
470.958	19.16
471.313	19.54
471.668	19.58
472.023	19.58
472.377	19.6
472.732	19.68
473.086	19.64
473.441	19.4
473.795	19.71
474.15	19.67
474.504	19.65
474.859	19.66
475.213	19.76
475.567	19.71
475.921	19.75
476.275	19.85
476.63	20.01
476.984	20.3
477.338	20.26
477.692	19.98
478.045	19.97
478.399	20.08
478.753	20.27
479.107	20.19
479.461	20.11
479.814	20.2
480.168	20.05
480.521	20.19
480.875	20.08
481.228	20.39
481.582	20.31
481.935	20.19
482.289	20.49
482.642	20.35
482.995	20.35
483.348	20.42
483.701	20.46
484.055	20.39
484.408	20.31
484.761	20.28
485.114	20.05
485.466	19.69
485.819	19.64
486.172	19.71
486.525	19.71
486.878	19.85
487.23	20.03
487.583	20.24
487.936	20.48
488.288	20.35
488.641	20.45
488.993	20.26
489.345	20.28
489.698	20.19
490.05	20.27
490.402	20.33
490.754	20.36
491.107	20.76
491.459	20.85
491.811	21
492.163	21.02
492.515	21.04
492.866	20.98
493.218	20.99
493.57	20.7
493.922	20.74
494.274	20.91
494.625	21.04
494.977	21.32
495.328	21.32
495.68	21.62
496.031	21.65
496.383	21.79
496.734	21.97
497.086	21.95
497.437	21.83
497.788	22.05
498.139	21.94
498.49	21.82
498.842	21.76
499.193	21.9
499.544	22.01
499.894	21.95
500.245	22.17
500.596	22.07
500.947	22.22
501.298	22.2
501.648	22.23
501.999	22.41
502.35	22.42
502.7	22.39
503.051	22.28
503.401	22.5
503.752	22.52
504.102	22.64
504.452	22.56
504.803	22.6
505.153	22.58
505.503	22.77
505.853	22.66
506.203	22.78
506.553	22.73
506.903	22.86
507.253	22.88
507.603	22.96
507.953	22.93
508.303	23.06
508.652	22.99
509.002	23.09
509.352	23.1
509.701	22.97
510.051	23.03
510.4	23.15
510.75	23.2
511.099	23.15
511.449	23.18
511.798	23.27
512.147	23.22
512.496	23.34
512.846	23.43
513.195	23.48
513.544	23.36
513.893	23.45
514.242	23.58
514.591	23.64
514.939	23.46
515.288	23.62
515.637	23.69
515.986	23.81
516.334	23.79
516.683	24.06
517.032	23.99
517.38	24.13
517.729	24.06
518.077	24.01
518.426	23.92
518.774	24.28
519.122	24.04
519.47	24.23
519.819	23.91
520.167	24.03
520.515	23.91
520.863	24.03
521.211	24.17
521.559	24.06
521.907	24.15
522.255	24.28
522.602	24.31
522.95	24.2
523.298	24.51
523.645	24.6
523.993	24.57
524.341	24.83
524.688	24.83
525.036	24.72
525.383	25.02
525.73	25.01
526.078	24.84
526.425	24.95
526.772	24.97
527.119	24.92
527.466	24.73
527.814	24.74
528.161	24.71
528.508	24.91
528.854	24.7
529.201	24.87
529.548	24.73
529.895	24.67
530.242	24.53
530.588	24.48
530.935	24.48
531.282	24.53
531.628	24.54
531.975	24.69
532.321	24.93
532.667	25.11
533.014	25.26
533.36	25.42
533.706	25.57
534.052	25.45
534.399	25.51
534.745	25.34
535.091	25.28
535.437	25.29
535.783	25.43
536.129	25.52
536.474	25.49
536.82	25.72
537.166	25.85
537.512	26
537.857	26.09
538.203	26.24
538.549	25.85
538.894	25.86
539.239	26.07
539.585	26.22
539.93	26.25
540.276	26.46
540.621	26.62
540.966	26.57
541.311	26.59
541.656	26.68
542.001	26.68
542.346	26.89
542.691	26.35
543.036	26.35
543.381	26.06
543.726	26.22
544.071	26.36
544.415	26.31
544.76	26.47
545.105	26.6
545.449	26.72
545.794	26.94
546.138	26.96
546.483	27.15
546.827	27.25
547.171	27.27
547.516	27.56
547.86	27.42
548.204	27.11
548.548	27.38
548.892	27.3
549.236	27.35
549.58	27.62
549.924	27.44
550.268	27.65
550.612	27.78
550.956	28.02
551.3	27.89
551.643	28.05
551.987	28.34
552.33	28.19
552.674	28.39
553.017	28.26
553.361	28.27
553.704	28.69
554.048	28.32
554.391	28.36
554.734	28.32
555.077	28.36
555.42	28.5
555.764	28.31
556.107	28.38
556.45	28.48
556.793	28.85
557.135	28.61
557.478	29
557.821	28.92
558.164	28.82
558.507	29.18
558.849	28.86
559.192	29.31
559.534	29.21
559.877	28.96
560.219	29.07
560.562	29.64
560.904	29.26
561.246	29.55
561.589	29.23
561.931	29.17
562.273	29.47
562.615	29.37
562.957	29.49
563.299	29.7
563.641	29.57
563.983	29.69
564.325	29.5
564.667	29.67
565.008	29.68
565.35	29.84
565.692	29.89
566.033	29.97
566.375	30.11
566.716	30.16
567.058	29.89
567.399	30.28
567.741	30.07
568.082	30.07
568.423	29.88
568.764	29.94
569.105	30.27
569.447	30.25
569.788	30.2
570.129	30.53
570.47	30.3
570.811	30.67
571.151	30.51
571.492	30.81
571.833	30.54
572.174	30.64
572.514	30.51
572.855	30.81
573.195	30.7
573.536	30.76
573.876	30.61
574.217	30.52
574.557	30.63
574.898	30.92
575.238	30.86
575.578	31.1
575.918	31.15
576.258	31.12
576.598	31.25
576.938	31.07
577.278	31.34
577.618	31.04
577.958	31.37
578.298	31.27
578.638	31.34
578.977	31.38
579.317	31.38
579.657	31.69
579.996	31.69
580.336	31.7
580.675	31.62
581.014	31.94
581.354	31.56
581.693	32.18
582.032	31.94
582.372	31.84
582.711	32.03
583.05	32.15
583.389	32.04
583.728	31.89
584.067	32.35
584.406	32.33
584.745	32.18
585.083	32.15
585.422	32.54
585.761	32.47
586.1	32.53
586.438	32.59
586.777	32.63
587.115	32.67
587.454	32.7
587.792	32.91
588.13	32.79
588.469	32.92
588.807	32.55
589.145	32.75
589.483	33.1
589.821	32.74
590.159	33.09
590.497	33.17
590.835	33.41
591.173	33.24
591.511	33.3
591.849	33.28
592.187	33.1
592.524	33.11
592.862	33.28
593.2	33.67
593.537	33.32
593.875	33.23
594.212	33.26
594.55	33.46
594.887	33.66
595.224	33.68
595.561	33.81
595.899	33.49
596.236	33.75
596.573	33.98
596.91	33.61
597.247	33.81
597.584	34.14
597.921	33.96
598.258	33.86
598.594	33.76
598.931	34.09
599.268	33.96
599.604	34.17
599.941	34.02
600.277	34.38
600.614	33.99
600.95	34.15
601.287	34.58
601.623	34.33
601.959	34.25
602.296	34.75
602.632	34.73
602.968	34.87
603.304	34.85
603.64	34.79
603.976	34.54
604.312	34.41
604.648	34.62
604.984	34.92
605.319	35.02
605.655	35.01
605.991	34.91
606.326	34.89
606.662	34.87
606.998	34.82
607.333	34.98
607.668	35
608.004	35.39
608.339	35.22
608.674	35.14
609.01	35.18
609.345	35.32
609.68	35.5
610.015	35.34
610.35	35.36
610.685	35.73
611.02	35.56
611.355	35.66
611.689	35.52
612.024	35.61
612.359	35.72
612.694	35.43
613.028	35.63
613.363	35.92
613.697	36.08
614.032	35.87
614.366	36
614.7	36.36
615.035	35.98
615.369	36.5
615.703	36.32
616.037	36.25
616.371	36.34
616.705	35.76
617.039	36.67
617.373	36.61
617.707	36.44
618.041	36.25
618.375	36.85
618.709	36.27
619.042	36.27
619.376	37
619.71	36.7
620.043	37.06
620.377	36.57
620.71	37.18
621.043	36.93
621.377	36.93
621.71	36.7
622.043	36.86
622.376	36.94
622.709	36.96
623.043	37.24
623.376	37.89
623.709	36.93
624.041	37.97
624.374	37.21
624.707	37.62
625.04	37.46
625.373	37.3
625.705	37.16
626.038	37.46
626.37	37.33
626.703	37.33
627.035	37.49
627.368	38.09
627.7	37.72
628.032	37.55
628.365	38.35
628.697	37.89
629.029	37.85
629.361	37.85
629.693	38.01
630.025	37.74
630.357	37.96
630.689	37.85
631.021	38.17
631.353	38.24
631.684	38.32
632.016	38.34
632.348	38.06
632.679	38.31
633.011	38.62
633.342	38.74
633.674	37.9
634.005	38.89
634.336	38.61
634.668	39.6
634.999	38.33
635.33	38.75
635.661	38.59
635.992	38.39
636.323	38.62
636.654	38.93
636.985	39.08
637.316	38.41
637.647	38.75
637.977	39.42
638.308	39.25
638.639	39.01
638.969	39.47
639.3	38.98
639.63	39.47
639.961	39.95
640.291	39.06
640.622	39.29
640.952	39.52
641.282	39.95
641.612	39.67
641.943	39.12
642.273	40.09
642.603	39.46
642.933	39.79
643.263	40.18
643.592	40.08
643.922	39.72
644.252	39.61
644.582	40.47
644.911	39.65
645.241	40.11
645.571	39.75
645.9	39.48
646.23	39.93
646.559	40.26
646.888	39.8
647.218	40.13
647.547	40.56
647.876	39.93
648.205	39.97
648.534	39.97
648.863	40.39
649.192	40.99
649.521	40.81
649.85	40.77
650.179	40.72
650.508	40.43
650.837	40.18
651.165	40
651.494	40.31
651.822	40.27
652.151	40.54
652.479	41.39
652.808	41.1
653.136	41.45
653.465	40.47
653.793	41.3
654.121	40.81
654.449	41.27
654.777	41.32
655.105	41.19
655.433	40.64
655.761	41.38
656.089	41.5
656.417	41.48
656.745	41.95
657.073	41.79
657.4	41.8
657.728	41.92
658.056	41.19
658.383	41.89
658.711	40.55
659.038	41.37
659.365	41.97
659.693	41.5
660.02	41.65
660.347	41.74
660.674	41.73
661.001	42.16
661.329	41.76
661.656	41.97
661.982	42.41
662.309	41.96
662.636	41.82
662.963	42.06
663.29	42.06
663.616	42.69
663.943	41.9
664.27	41.91
664.596	41.93
664.923	42.14
665.249	42.06
665.576	42.21
665.902	42.47
666.228	42.43
666.554	42.6
666.881	42.92
667.207	42.43
667.533	42.57
667.859	42.12
668.185	42.97
668.511	42.74
668.837	42.21
669.162	42.55
669.488	42.54
669.814	42.04
670.139	42.84
670.465	43.16
670.791	43.13
671.116	42.98
671.442	42.87
671.767	42.65
672.092	43.71
672.418	43.9
672.743	43.37
673.068	43.32
673.393	43.69
673.718	44.16
674.043	42.83
674.368	43.32
674.693	43.82
675.018	43.85
675.343	42.64
675.667	43.42
675.992	44.09
676.317	43.51
676.641	43.96
676.966	44.24
677.29	42.97
677.615	43.62
677.939	43.98
678.264	44.29
678.588	44.05
678.912	44.23
679.236	45.16
679.56	44.46
679.885	44.43
680.209	43.8
680.532	43.92
680.856	44.52
681.18	44.2
681.504	44.14
681.828	44.67
682.152	43.77
682.475	44.21
682.799	44.28
683.122	44.69
683.446	44.26
683.769	44.59
684.093	44.03
684.416	44.39
684.739	44.31
685.062	44.1
685.386	44.56
685.709	44.58
686.032	44.87
686.355	45.09
686.678	44.43
687.001	44.58
687.324	45.51
687.646	45.05
687.969	44.76
688.292	44.71
688.614	45.54
688.937	45.84
689.26	44.86
689.582	45.5
689.904	45.89
690.227	44.81
690.549	45.34
690.871	45.16
691.194	45.58
691.516	45.87
691.838	44.86
692.16	45.55
692.482	45.36
692.804	45.28
693.126	46.48
693.448	46.09
693.769	46.44
694.091	46.13
694.413	45.97
694.735	45.35
695.056	45.86
695.378	45.8
695.699	45.58
696.021	44.8
696.342	45.84
696.663	45.9
696.984	46.17
697.306	45.38
697.627	45.83
697.948	45.71
698.269	45.86
698.59	47.97
698.911	46.06
699.232	45.52
699.553	46.32
699.873	46.24
700.194	47.03
700.515	46.26
700.835	46.9
701.156	46.87
701.477	46.44
701.797	46.82
702.117	46.14
702.438	46.52
702.758	46.24
703.078	45.75
703.398	45.92
703.719	45.89
704.039	46.35
704.359	47.11
704.679	46.44
704.999	46.31
705.319	46.25
705.638	45.76
705.958	45.76
706.278	47.85
706.597	47.22
706.917	47.73
707.237	47.27
707.556	47.35
707.876	46.61
708.195	46.46
708.514	46.74
708.834	46.67
709.153	45.96
709.472	48.02
709.791	48.24
710.11	48.25
710.429	47.04
710.748	48.41
711.067	45.99
711.386	47.53
711.705	47.85
712.023	48.42
712.342	47.09
712.661	46.47
712.979	47.84
713.298	47.52
713.616	47.87
713.935	48.03
714.253	46.51
714.572	47.86
714.89	48.24
715.208	48.57
715.526	47.78
715.844	48.01
716.162	47.58
716.48	48.89
716.798	48.42
717.116	48.78
717.434	47.35
717.752	47.84
718.069	48.22
718.387	47.09
718.705	47.92
719.022	48.13
719.34	48.75
719.657	48.51
719.975	50.15
720.292	47.81
720.609	47.17
720.927	47.96
721.244	48.76
721.561	47.71
721.878	48.34
722.195	49.12
722.512	48.65
722.829	48.26
723.146	48.7
723.463	48.96
723.779	48.36
724.096	48.48
724.413	47.84
724.729	49
725.046	48.65
725.362	49.31
725.679	47.9
725.995	49.32
726.311	50.33
726.628	47.99
726.944	50.7
727.26	49.36
727.576	47.65
727.892	48.05
728.208	48.69
728.524	49.54
728.84	47.68
729.156	49.38
729.472	48.66
729.787	50.24
730.103	50.58
730.419	48.95
730.734	48.34
731.05	49.65
731.365	49.67
731.681	49.41
731.996	50.58
732.311	49.23
732.626	49.41
732.942	48.41
733.257	49.64
733.572	49.81
733.887	49.52
734.202	50.03
734.517	49.9
734.832	49.71
735.146	50.02
735.461	51.04
735.776	50.44
736.091	51.48
736.405	50.46
736.72	50.47
737.034	51.49
737.349	50.19
737.663	51.41
737.977	50.41
738.292	48.32
738.606	51.5
738.92	51.21
739.234	49.81
739.548	49.38
739.862	49.82
740.176	49.84
740.49	51.68
740.804	52.09
741.117	49.72
741.431	50.7
741.745	48.73
742.058	50.2
742.372	50.18
742.685	48.47
742.999	50.16
743.312	48.5
743.626	51.34
743.939	51.08
744.252	50.33
744.565	49.2
744.878	49.75
745.191	49.14
745.505	49.92
745.817	51.16
746.13	48.77
746.443	51.29
746.756	50.71
747.069	50.22
747.381	50.11
747.694	48.89
748.007	50.48
748.319	50.77
748.632	50.63
748.944	52.23
749.256	53.51
749.569	52.69
749.881	50.52
750.193	50.49
750.505	49.93
750.817	52.24
751.129	53.55
751.441	49.61
751.753	52.35
752.065	50.31
752.377	52.74
752.689	49.82
753	50.62
753.312	50.41
753.624	51.18
753.935	51.88
754.247	51.48
754.558	49.19
754.869	50.4
755.181	50.43
755.492	50.55
755.803	52.36
756.114	51.3
756.425	52.24
756.736	50.27
757.047	51.93
757.358	53.21
757.669	56.33
757.98	52.89
758.291	53.05
758.601	53.13
758.912	49.28
759.223	53.14
759.533	51.89
759.844	50.58
760.154	51.51
760.464	52.33
760.775	50.96
761.085	50.13
761.395	53.9
761.705	48.71
762.016	50.53
762.326	51.01
762.636	51.5
762.945	51.74
763.255	51.35
763.565	51.77
763.875	51.45
764.185	50.37
764.494	50.3
764.804	53.22
765.113	53.38
765.423	52.3
765.732	52.93
766.042	52.67
766.351	53.4
766.66	52.49
766.97	52.99
767.279	52.84
767.588	52.34
767.897	52.4
768.206	52.6
768.515	52.56
768.824	51.75
769.133	52.03
769.441	52.54
769.75	52.19
770.059	54.86
770.367	54.77
770.676	52.09
770.984	52.22
771.293	54.41
771.601	53.92
771.91	53.25
772.218	55.32
772.526	52.86
772.834	53.23
773.142	53.04
773.45	51.02
773.758	52.58
774.066	53.23
774.374	51.01
774.682	50.74
774.99	53.68
775.298	53.93
775.605	53.74
775.913	50.06
776.22	52.82
776.528	50.86
776.835	52.18
777.143	53.28
777.45	53.28
777.757	55.2
778.065	53.63
778.372	49.07
778.679	53.48
778.986	55.62
779.293	49.66
779.6	54.9
779.907	53.72
780.214	53.31
780.52	54.3
780.827	55.79
781.134	51.42
781.44	55.36
781.747	53.43
782.053	54.03
782.36	53.48
782.666	51.41
782.973	50
783.279	58.11
783.585	55.74
783.891	53.87
784.197	55.15
784.503	53.17
784.809	53.36
785.115	52.52
785.421	54.29
785.727	55.94
786.033	50.47
786.339	52.34
786.644	56.26
786.95	56.52
787.255	53.83
787.561	58.82
787.866	54.55
788.172	55.34
788.477	47.87
788.782	52.13
789.088	53.09
789.393	48.01
789.698	54.42
790.003	57.45
790.308	53.7
790.613	54.46
790.918	52.02
791.223	54.9
791.527	54.86
791.832	53.51
792.137	52.46
792.441	55.97
792.746	53.76
793.05	49.87
793.355	53.35
793.659	57.4
793.963	53
794.268	52.19
794.572	53.52
794.876	51.77
795.18	53.84
795.484	51.64
795.788	53.51
796.092	56.43
796.396	56.85
796.7	56.46
797.004	52.25
797.307	53.88
797.611	55.85
797.915	57.71
798.218	51.35
798.522	52.47
798.825	49.4
799.128	55.95
799.432	53.91
799.735	53.04
800.038	55.92
800.341	53.93
800.644	55.2
800.947	56.51
801.25	51.92
801.553	51.7
801.856	54.44
802.159	47.48
802.462	54.15
802.764	54.92
803.067	55.36
803.37	49.34
803.672	56.61
803.975	58.46
804.277	56.47
804.579	50.91
804.882	56.83
805.184	49.96
805.486	50.78
805.788	62.08
806.09	48.95
806.392	46.28
806.694	54.82
806.996	54.96
807.298	60.38
807.6	51.68
807.902	60.62
808.203	56.23
808.505	58.46
808.807	57.31
809.108	49.53
809.409	55.14
809.711	51.9
810.012	50.52
810.313	55.72
810.615	52.94
810.916	55.51
811.217	53.95
811.518	51.04
811.819	51.07
812.12	67.4
812.421	51.42
812.722	57.85
813.023	58.95
813.323	60.3
813.624	55.59
813.925	62.41
814.225	63.12
814.526	55.72
814.826	61.97
815.126	54.02
815.427	55.8
815.727	58.07
816.027	55.74
816.327	59.68
816.627	52.1
816.927	55.94
817.227	56.34
817.527	52.6
817.827	61.61
818.127	55.57
818.427	50.9
818.727	55.66
819.026	56.49
819.326	58.09
819.625	54.66
819.925	48.91
820.224	55.96
820.524	58.12
820.823	51.59
821.122	51.89
821.421	54.02
821.72	51.78
822.019	54.32
822.318	56.8
822.617	51.38
822.916	56.99
823.215	55.03
823.514	58.13
823.813	56.66
824.111	58.23
824.41	58.93
824.709	58.59
825.007	58.66
825.306	58.28
825.604	56.79
825.902	59.43
826.201	57.37
826.499	56.22
826.797	55.1
827.095	57.1
827.393	55.81
827.691	56.42
827.989	55.18
828.287	55.4
828.585	57.04
828.882	57.69
829.18	57.15
829.478	57.88
829.775	58.31
830.073	59.11
830.37	57.41
830.668	57.27
830.965	57.13
831.263	55.2
831.56	57.29
831.857	56.51
832.154	57.77
832.451	58.57
832.748	58.52
833.045	56.82
833.342	56.66
833.639	55.07
833.936	56.19
834.232	56.21
834.529	56.77
834.826	46.45
835.122	59.15
835.419	46.7
835.715	58.76
836.012	59.64
836.308	55.9
836.604	54.71
836.901	56.47
837.197	55.67
837.493	61.01
837.789	57.17
838.085	63.42
838.381	58.84
838.677	56.17
838.972	53.7
839.268	61.52
839.564	55
839.86	58.75
840.155	50.94
840.451	50.04
840.746	56.68
841.042	53.6
841.337	50.06
841.632	61.04
841.928	62.12
842.223	47.98
842.518	60.81
842.813	56.24
843.108	52.99
843.403	62.17
843.698	60.25
843.993	61.69
844.287	49.19
844.582	56.46
844.877	51.41
845.171	55.65
845.466	57.18
845.761	61.5
846.055	54.48
846.349	59.74
846.644	44.34
846.938	22.85
847.232	56.6
847.526	39.93
847.82	49.28
848.114	54.26
848.408	49.57
848.702	54.25
848.996	69.18
849.29	53.73
849.584	42.16
849.877	66.93
850.171	68.38
850.465	60.8
850.758	49.72
851.052	61.83
851.345	56.13
851.638	80.98
851.932	50.15
852.225	61.54
852.518	46.02
852.811	39.14
853.104	45.36
853.397	49.29
853.69	53.47
853.983	37.86
854.276	71.94
854.569	49.96
854.861	50.28
855.154	62.48
855.447	14.23
855.739	58.3
856.032	46.99
856.324	68.58
856.616	54.04
856.909	44.25
857.201	36.84
857.493	48.74
857.785	34.3
858.077	65.93
858.369	90.71
858.661	44.94
858.953	101.13
859.245	63.76
859.537	58.28
859.829	71.18
860.12	68.78
860.412	90.48
860.703	47.01
860.995	46.93
861.286	50.34
861.578	70.27
861.869	77.38
862.16	52.88
862.452	71.01
862.743	73.23
863.034	49.83
863.325	44.14
863.616	74.63
863.907	74.35
864.198	46.11
864.488	103.42
864.779	34.24
865.07	53.48
865.36	11.02
865.651	53.59
865.941	54.97
866.232	24.47
866.522	38.96
866.813	58.85
867.103	80.4
867.393	41.88
867.683	62.17
867.973	65.92
868.263	79.47
868.553	53.5
868.843	63.73
869.133	5.78
869.423	58.99
869.713	81.06
870.002	75.26
870.292	41.43
870.582	36.88
870.871	32.89
871.161	62.59
871.45	36.36
871.739	32.62
872.029	83.95
872.318	63.3
872.607	108.4
872.896	71.19
873.185	46.19
873.474	21.1
873.763	58.66
874.052	54.2
874.341	45.65
874.63	57.62
874.918	33.48
875.207	72.01
875.496	40.26
875.784	-13.83
876.073	52.72
876.361	58.61
876.649	67.15
876.938	57.93
877.226	61.71
877.514	54.53
877.802	63.21
878.09	48.82
878.378	70.94
878.666	86.95
878.954	59.82
879.242	50.9
879.53	28.6
879.817	55.57
880.105	68.65
880.392	33.86
880.68	36.21
880.967	38.64
881.255	41.19
881.542	28.44
881.83	24.39
882.117	24.4
882.404	4.92
882.691	60.18
882.978	76.3
883.265	41.25
883.552	79.13
883.839	61.15
884.126	63.32
884.413	55.37
884.699	75.28
884.986	65.9
885.273	52.04
885.559	52.04
885.846	52.04
