Data from 0195_chest_Reflection__0__355.txt Node

Date: Fri Dec 15 19:48:52 CST 2023
User: ToomeyLab
Spectrometer: FLMS14357
Trigger mode: 0
Integration Time (sec): 1.000000E-2
Scans to average: 100
Electric dark correction enabled: true
Nonlinearity correction enabled: false
Boxcar width: 0
XAxis mode: Wavelengths
Number of Pixels in Spectrum: 2048
>>>>>Begin Spectral Data<<<<<
189.047	-1245.99
189.435	-1245.99
189.823	-1245.99
190.211	-318.41
190.599	-73.35
190.987	-4.06
191.375	199.38
191.763	89.49
192.151	-39.18
192.538	117.05
192.926	-315.66
193.314	81.64
193.702	-15.69
194.089	-361.22
194.477	-141.91
194.864	17.85
195.252	72.13
195.639	110.68
196.027	-47.09
196.414	63.64
196.801	133.79
197.189	162.77
197.576	274.29
197.963	-262.83
198.351	-63.21
198.738	-30.34
199.125	51.67
199.512	-28.68
199.899	16.16
200.286	13.13
200.673	22.79
201.06	-8
201.447	20.97
201.833	70.92
202.22	3.16
202.607	52.92
202.994	35.94
203.38	-15.46
203.767	34.91
204.154	-9.22
204.54	33.32
204.927	-106.32
205.313	18.35
205.699	14.69
206.086	31.25
206.472	12.11
206.858	21.19
207.245	-127.56
207.631	30.42
208.017	-6.18
208.403	-17.54
208.789	9.3
209.175	36.39
209.561	17.61
209.947	-9.92
210.333	-34.79
210.719	46.23
211.105	37.57
211.491	-21.51
211.876	5.26
212.262	0.52
212.648	24.83
213.034	12.04
213.419	38.31
213.805	-2.63
214.19	-41.5
214.576	-15.78
214.961	-1.82
215.346	-133.57
215.732	10.89
216.117	2.73
216.502	-70
216.888	30.15
217.273	18.53
217.658	14.33
218.043	33.18
218.428	-40.25
218.813	-40.68
219.198	-20.2
219.583	-22.02
219.968	9.91
220.353	-28.51
220.738	-3.43
221.122	24.6
221.507	-23.65
221.892	-30.09
222.276	-7.24
222.661	2.52
223.046	10.08
223.43	13.34
223.815	4.09
224.199	-1.16
224.583	5.64
224.968	-4.61
225.352	16.12
225.736	-4.71
226.121	-13.01
226.505	2.25
226.889	10.23
227.273	1.07
227.657	8.43
228.041	6.54
228.425	1.11
228.809	0.68
229.193	5.42
229.577	4.37
229.961	5.46
230.344	5.89
230.728	5.21
231.112	6.28
231.495	5.45
231.879	5.53
232.263	6.27
232.646	6.47
233.03	5.95
233.413	3.77
233.797	6.25
234.18	4.67
234.563	5.49
234.946	5.95
235.33	4.71
235.713	6.5
236.096	5.04
236.479	6.43
236.862	3.93
237.245	8.1
237.628	4.58
238.011	6.64
238.394	6.33
238.777	5.68
239.16	3.79
239.543	2.12
239.925	6.16
240.308	4.69
240.691	6.76
241.073	4.83
241.456	5.64
241.838	5.3
242.221	5.11
242.603	7.08
242.986	5.82
243.368	5.31
243.75	6.73
244.133	5.61
244.515	5.94
244.897	5.62
245.279	5.84
245.661	4.6
246.043	4.31
246.425	4.32
246.807	6.44
247.189	5.96
247.571	5.03
247.953	5.85
248.335	5.36
248.717	5.69
249.098	5.21
249.48	5.75
249.862	5.44
250.243	5.52
250.625	5.09
251.006	6.38
251.388	4.66
251.769	5.44
252.151	6.7
252.532	3.3
252.913	4.8
253.295	4.67
253.676	5.07
254.057	5.44
254.438	5.5
254.819	5.26
255.2	4.94
255.581	5.36
255.962	4.42
256.343	4.41
256.724	4.88
257.105	5.18
257.486	4.42
257.867	4.6
258.247	4.44
258.628	5.08
259.009	4.15
259.389	5.51
259.77	4.41
260.15	4.97
260.531	4.61
260.911	5.45
261.292	5.31
261.672	5.21
262.052	5.22
262.432	5.39
262.813	5.18
263.193	4.72
263.573	4.32
263.953	4.55
264.333	4.84
264.713	4.8
265.093	4.54
265.473	4.03
265.853	3.99
266.233	5.52
266.612	3.33
266.992	3.62
267.372	5.41
267.752	5.43
268.131	5.37
268.511	5.2
268.89	5.34
269.27	4.89
269.649	4.63
270.029	4.14
270.408	5.72
270.787	4.41
271.167	5.55
271.546	4.97
271.925	4.11
272.304	4.32
272.683	5.2
273.062	5.16
273.441	4.85
273.82	4.36
274.199	4.85
274.578	5.28
274.957	4.82
275.336	4.76
275.715	4.75
276.093	4.21
276.472	4.49
276.851	4.02
277.229	4.56
277.608	3.73
277.986	4.3
278.365	5.38
278.743	4.41
279.122	4.75
279.5	5.26
279.878	4.9
280.257	4.78
280.635	3.72
281.013	3.61
281.391	5.22
281.769	4.31
282.147	5.01
282.525	5
282.903	4.99
283.281	4.39
283.659	4.92
284.037	4.49
284.415	5.08
284.792	4.81
285.17	3.76
285.548	4.31
285.925	4.86
286.303	4.82
286.68	4.32
287.058	4.62
287.435	4.71
287.813	4.57
288.19	4.51
288.567	4.43
288.945	5.09
289.322	4.84
289.699	4.7
290.076	4.4
290.453	4.4
290.83	4.58
291.207	4.49
291.584	4.89
291.961	4.94
292.338	4.87
292.715	5.17
293.092	4.9
293.469	4.96
293.845	4.54
294.222	4.26
294.599	5
294.975	4.22
295.352	5.08
295.728	3.99
296.105	4.78
296.481	4.93
296.858	5.11
297.234	4.39
297.61	5.24
297.986	4.33
298.363	4.84
298.739	4.82
299.115	4.37
299.491	4.45
299.867	4.4
300.243	4.91
300.619	4.37
300.995	4.24
301.371	4.64
301.746	4.48
302.122	5
302.498	4.34
302.874	4.63
303.249	4.63
303.625	5.35
304	4.52
304.376	3.9
304.751	4.07
305.127	5.21
305.502	3.93
305.878	4.21
306.253	4.45
306.628	4.66
307.003	4.27
307.378	4.52
307.754	4.81
308.129	4.34
308.504	5.08
308.879	4.2
309.254	5.58
309.629	4.86
310.003	4.28
310.378	5.09
310.753	5.15
311.128	4.75
311.502	4.65
311.877	5.25
312.252	4.42
312.626	4.73
313.001	4.36
313.375	5.04
313.75	4.35
314.124	4.91
314.498	4.36
314.873	4.25
315.247	4.52
315.621	4.58
315.995	4.25
316.369	4.7
316.743	4.6
317.117	4.9
317.491	4.58
317.865	5.42
318.239	4.85
318.613	5.35
318.987	4.95
319.361	4.08
319.734	5.29
320.108	4.7
320.482	4.56
320.855	4.61
321.229	4.71
321.602	4.43
321.976	4.86
322.349	4.25
322.723	4.19
323.096	5.08
323.469	3.39
323.843	4.91
324.216	4.85
324.589	4.37
324.962	4.62
325.335	4.46
325.708	4.61
326.081	4.07
326.454	4.46
326.827	4.65
327.2	5.2
327.573	4.97
327.945	4.85
328.318	4.63
328.691	4.11
329.063	4.51
329.436	4.35
329.809	4.4
330.181	3.72
330.553	4.9
330.926	4.58
331.298	4.48
331.671	4.09
332.043	5.88
332.415	4.72
332.787	4.55
333.159	5.26
333.532	5.05
333.904	4.28
334.276	5.13
334.648	4.9
335.02	4.49
335.391	4.59
335.763	3.72
336.135	4.93
336.507	5.63
336.879	4.41
337.25	4.81
337.622	4.78
337.993	4.51
338.365	4.8
338.736	5.21
339.108	5.11
339.479	4.94
339.851	4.35
340.222	4.98
340.593	4.46
340.964	4.59
341.336	5.4
341.707	3.92
342.078	5.09
342.449	5.1
342.82	5.02
343.191	5.05
343.562	5.04
343.933	5.23
344.303	4.68
344.674	4.44
345.045	4.94
345.416	5.15
345.786	4.33
346.157	4.83
346.527	4.44
346.898	4.54
347.268	4.71
347.639	4.13
348.009	4.8
348.38	4.21
348.75	4.67
349.12	4.6
349.49	5.62
349.861	4.83
350.231	4.79
350.601	4.72
350.971	5.4
351.341	4.51
351.711	4.72
352.081	4.46
352.45	4.77
352.82	5.21
353.19	4.46
353.56	5.12
353.929	4.75
354.299	4.4
354.669	4.35
355.038	4.81
355.408	5.07
355.777	4.72
356.147	4.3
356.516	5.03
356.885	4.83
357.254	4.45
357.624	4.6
357.993	4.84
358.362	4.38
358.731	4.28
359.1	5.01
359.469	5.09
359.838	4.89
360.207	4.75
360.576	4.9
360.945	4.92
361.314	4.95
361.682	4.66
362.051	4.97
362.42	4.96
362.788	4.72
363.157	5.26
363.525	5.35
363.894	5.04
364.262	5.21
364.631	4.97
364.999	4.92
365.367	4.57
365.735	5.66
366.104	5.11
366.472	4.83
366.84	4.88
367.208	4.8
367.576	5.28
367.944	5.54
368.312	4.85
368.68	4.81
369.048	5.06
369.416	4.97
369.783	4.94
370.151	4.86
370.519	5.17
370.886	5.42
371.254	4.97
371.621	4.83
371.989	5.3
372.356	4.6
372.724	4.98
373.091	4.97
373.458	4.74
373.826	4.89
374.193	5.1
374.56	5.1
374.927	4.97
375.294	5.31
375.661	4.97
376.028	4.57
376.395	4.6
376.762	4.86
377.129	4.79
377.496	4.87
377.863	4.95
378.229	4.52
378.596	5.13
378.963	5.12
379.329	4.8
379.696	5.1
380.062	5.04
380.429	5.01
380.795	4.93
381.161	4.68
381.528	5.28
381.894	5.19
382.26	4.92
382.626	4.98
382.993	4.74
383.359	5.39
383.725	5.1
384.091	4.97
384.457	5.34
384.823	5.31
385.188	5.6
385.554	4.9
385.92	4.76
386.286	5.4
386.651	5.08
387.017	5.41
387.383	4.99
387.748	5.04
388.114	5.06
388.479	4.98
388.845	5.29
389.21	5.44
389.575	4.95
389.94	4.74
390.306	5.26
390.671	5.45
391.036	5.09
391.401	4.7
391.766	5.22
392.131	5.23
392.496	5.02
392.861	5.16
393.226	5.28
393.591	5.19
393.956	5.03
394.32	5.05
394.685	5.1
395.05	4.93
395.414	4.99
395.779	4.86
396.143	5.11
396.508	5.22
396.872	5.15
397.236	5.27
397.601	4.96
397.965	5.25
398.329	5.13
398.694	5.45
399.058	5.19
399.422	5.26
399.786	5.38
400.15	5.57
400.514	5.13
400.878	5.23
401.242	5.34
401.605	5.61
401.969	5.05
402.333	5.19
402.697	5.38
403.06	5.18
403.424	5.21
403.787	5.19
404.151	5.47
404.514	5.39
404.878	5.25
405.241	5.43
405.604	5.22
405.968	5.23
406.331	5.2
406.694	5.63
407.057	5.17
407.42	5.33
407.783	4.96
408.146	5.29
408.509	5.39
408.872	5.18
409.235	5.23
409.598	5.64
409.961	5.2
410.323	5.42
410.686	5.43
411.049	5.13
411.411	5.48
411.774	5.25
412.136	5.47
412.499	5.23
412.861	5.22
413.223	5.27
413.586	5.41
413.948	5.04
414.31	5.54
414.672	5.35
415.035	4.96
415.397	5.6
415.759	5.4
416.121	5.42
416.483	5.12
416.845	5.4
417.206	5.44
417.568	5.47
417.93	5.2
418.292	5.29
418.653	5.35
419.015	5.3
419.377	5.35
419.738	5.35
420.1	5.22
420.461	5.47
420.822	5.42
421.184	5.32
421.545	5.33
421.906	5.14
422.267	5.27
422.629	5.32
422.99	5.3
423.351	5.19
423.712	5.26
424.073	5.36
424.434	5.27
424.795	5.22
425.155	5.33
425.516	5.26
425.877	5.34
426.238	5.24
426.598	5.4
426.959	5.25
427.32	5.26
427.68	5.29
428.041	5.04
428.401	5.49
428.761	5.31
429.122	5.42
429.482	5.22
429.842	5.46
430.202	5.47
430.563	5.45
430.923	5.44
431.283	5.55
431.643	5.4
432.003	5.36
432.363	5.54
432.722	5.52
433.082	5.57
433.442	5.54
433.802	5.33
434.161	5.38
434.521	5.63
434.881	5.46
435.24	5.42
435.6	5.38
435.959	5.49
436.319	5.29
436.678	5.45
437.037	5.42
437.396	5.38
437.756	5.52
438.115	5.49
438.474	5.49
438.833	5.24
439.192	5.5
439.551	5.61
439.91	5.39
440.269	5.56
440.628	5.58
440.987	5.33
441.345	5.24
441.704	5.45
442.063	5.42
442.421	5.29
442.78	5.38
443.138	5.34
443.497	5.39
443.855	5.25
444.214	5.39
444.572	5.62
444.93	5.43
445.288	5.5
445.647	5.58
446.005	5.43
446.363	5.49
446.721	5.59
447.079	5.32
447.437	5.39
447.795	5.42
448.153	5.35
448.51	5.48
448.868	5.48
449.226	5.44
449.584	5.41
449.941	5.48
450.299	5.39
450.656	5.58
451.014	5.39
451.371	5.31
451.729	5.44
452.086	5.59
452.443	5.51
452.801	5.39
453.158	5.46
453.515	5.44
453.872	5.6
454.229	5.41
454.586	5.47
454.943	5.5
455.3	5.52
455.657	5.32
456.014	5.44
456.371	5.36
456.727	5.58
457.084	5.77
457.441	5.43
457.797	5.43
458.154	5.61
458.51	5.64
458.867	5.52
459.223	5.49
459.58	5.54
459.936	5.59
460.292	5.61
460.648	5.52
461.005	5.51
461.361	5.56
461.717	5.5
462.073	5.46
462.429	5.44
462.785	5.48
463.141	5.43
463.496	5.59
463.852	5.65
464.208	5.55
464.564	5.66
464.919	5.56
465.275	5.44
465.631	5.64
465.986	5.56
466.342	5.6
466.697	5.36
467.052	5.66
467.408	5.71
467.763	5.36
468.118	5.58
468.473	5.44
468.829	5.5
469.184	5.49
469.539	5.56
469.894	5.43
470.249	5.73
470.603	5.88
470.958	5.74
471.313	5.67
471.668	5.72
472.023	5.59
472.377	5.54
472.732	5.62
473.086	5.53
473.441	5.58
473.795	5.86
474.15	5.63
474.504	5.53
474.859	5.8
475.213	5.46
475.567	5.47
475.921	5.34
476.275	5.73
476.63	5.7
476.984	5.86
477.338	5.77
477.692	5.47
478.045	5.45
478.399	5.7
478.753	5.7
479.107	5.52
479.461	5.59
479.814	5.74
480.168	5.59
480.521	5.53
480.875	5.54
481.228	5.61
481.582	5.51
481.935	5.53
482.289	5.51
482.642	5.66
482.995	5.65
483.348	5.59
483.701	5.53
484.055	5.67
484.408	5.61
484.761	5.56
485.114	5.61
485.466	5.39
485.819	5.41
486.172	5.32
486.525	5.28
486.878	5.36
487.23	5.36
487.583	5.43
487.936	5.47
488.288	5.44
488.641	5.58
488.993	5.51
489.345	5.43
489.698	5.44
490.05	5.39
490.402	5.48
490.754	5.47
491.107	5.54
491.459	5.57
491.811	5.57
492.163	5.56
492.515	5.61
492.866	5.69
493.218	5.64
493.57	5.44
493.922	5.47
494.274	5.51
494.625	5.54
494.977	5.6
495.328	5.66
495.68	5.68
496.031	5.76
496.383	5.73
496.734	5.89
497.086	5.66
497.437	5.76
497.788	5.76
498.139	5.58
498.49	5.78
498.842	5.6
499.193	5.71
499.544	5.78
499.894	5.67
500.245	5.73
500.596	5.65
500.947	5.74
501.298	5.73
501.648	5.86
501.999	5.78
502.35	5.7
502.7	5.73
503.051	5.59
503.401	5.75
503.752	5.8
504.102	5.7
504.452	5.91
504.803	5.72
505.153	5.71
505.503	5.9
505.853	5.66
506.203	5.73
506.553	5.86
506.903	5.7
507.253	5.68
507.603	5.62
507.953	5.88
508.303	5.97
508.652	5.6
509.002	5.78
509.352	5.89
509.701	5.79
510.051	5.89
510.4	5.84
510.75	5.73
511.099	5.91
511.449	5.72
511.798	5.88
512.147	5.72
512.496	5.78
512.846	5.9
513.195	5.77
513.544	5.88
513.893	5.82
514.242	5.77
514.591	6.07
514.939	5.8
515.288	5.81
515.637	5.93
515.986	5.91
516.334	5.92
516.683	5.91
517.032	5.97
517.38	5.83
517.729	5.96
518.077	5.81
518.426	5.93
518.774	5.95
519.122	5.95
519.47	5.99
519.819	5.72
520.167	5.8
520.515	5.89
520.863	5.94
521.211	5.96
521.559	6.04
521.907	5.85
522.255	5.95
522.602	6.02
522.95	5.81
523.298	5.93
523.645	5.96
523.993	5.98
524.341	6.07
524.688	5.93
525.036	6.08
525.383	5.98
525.73	6.2
526.078	6.12
526.425	5.97
526.772	6.14
527.119	5.94
527.466	5.91
527.814	5.95
528.161	5.95
528.508	6
528.854	5.92
529.201	5.92
529.548	5.93
529.895	5.95
530.242	5.88
530.588	5.86
530.935	5.86
531.282	5.86
531.628	5.78
531.975	5.92
532.321	5.98
532.667	6.09
533.014	6.09
533.36	6.09
533.706	6.07
534.052	6.15
534.399	6.05
534.745	6.05
535.091	6.03
535.437	6.08
535.783	6.07
536.129	6.12
536.474	6.12
536.82	6.13
537.166	6.24
537.512	6.18
537.857	6.22
538.203	6.23
538.549	6.08
538.894	6.14
539.239	6.3
539.585	6.23
539.93	6.06
540.276	6.38
540.621	6.38
540.966	6.29
541.311	6.29
541.656	6.32
542.001	6.33
542.346	6.52
542.691	6.28
543.036	6.26
543.381	6.14
543.726	6.16
544.071	6.23
544.415	6.2
544.76	6.26
545.105	6.31
545.449	6.39
545.794	6.43
546.138	6.42
546.483	6.44
546.827	6.43
547.171	6.53
547.516	6.62
547.86	6.5
548.204	6.49
548.548	6.47
548.892	6.52
549.236	6.36
549.58	6.47
549.924	6.57
550.268	6.64
550.612	6.66
550.956	6.64
551.3	6.7
551.643	6.79
551.987	6.73
552.33	6.63
552.674	6.61
553.017	6.5
553.361	6.71
553.704	6.92
554.048	6.69
554.391	6.85
554.734	6.78
555.077	6.74
555.42	6.68
555.764	6.72
556.107	6.64
556.45	6.67
556.793	6.92
557.135	6.76
557.478	6.96
557.821	6.88
558.164	6.76
558.507	6.84
558.849	6.84
559.192	6.96
559.534	6.94
559.877	6.96
560.219	6.92
560.562	7.24
560.904	6.86
561.246	7.01
561.589	6.94
561.931	6.89
562.273	6.9
562.615	6.96
562.957	7.15
563.299	6.95
563.641	7.08
563.983	7.33
564.325	6.92
564.667	7.06
565.008	7.28
565.35	7.16
565.692	6.65
566.033	7.22
566.375	7.45
566.716	7.39
567.058	7.2
567.399	7.36
567.741	7.19
568.082	7.17
568.423	7.18
568.764	7.33
569.105	7.38
569.447	7.4
569.788	7.2
570.129	7.64
570.47	7.28
570.811	7.43
571.151	7.3
571.492	7.5
571.833	7.56
572.174	7.43
572.514	7.35
572.855	7.38
573.195	7.29
573.536	7.48
573.876	7.24
574.217	7.45
574.557	7.64
574.898	7.72
575.238	7.75
575.578	7.59
575.918	7.78
576.258	7.68
576.598	7.71
576.938	7.73
577.278	7.79
577.618	7.69
577.958	7.46
578.298	7.94
578.638	7.66
578.977	7.86
579.317	7.78
579.657	7.98
579.996	7.85
580.336	7.95
580.675	8.15
581.014	8
581.354	7.87
581.693	8.01
582.032	7.82
582.372	7.95
582.711	8.1
583.05	7.89
583.389	8.22
583.728	8
584.067	8.33
584.406	8.05
584.745	8.03
585.083	8.32
585.422	8.22
585.761	8.48
586.1	8.08
586.438	8.21
586.777	8.39
587.115	8.39
587.454	8.28
587.792	8.36
588.13	8.5
588.469	8.54
588.807	8.32
589.145	8.37
589.483	8.46
589.821	8.42
590.159	8.63
590.497	8.75
590.835	9.09
591.173	8.78
591.511	8.84
591.849	8.68
592.187	8.83
592.524	8.61
592.862	8.28
593.2	8.85
593.537	8.64
593.875	8.62
594.212	8.76
594.55	8.59
594.887	9.09
595.224	9
595.561	8.93
595.899	8.97
596.236	9
596.573	9.13
596.91	8.66
597.247	9.05
597.584	9.1
597.921	8.93
598.258	8.96
598.594	9
598.931	8.88
599.268	9.1
599.604	9.07
599.941	9.07
600.277	8.95
600.614	9
600.95	8.94
601.287	9.21
601.623	9.03
601.959	9.02
602.296	8.88
602.632	9.42
602.968	9.65
603.304	9.57
603.64	9.49
603.976	9.74
604.312	9.35
604.648	9.21
604.984	9.48
605.319	9.49
605.655	9.57
605.991	9.4
606.326	9.48
606.662	9.72
606.998	9.35
607.333	9.98
607.668	9.59
608.004	9.62
608.339	9.91
608.674	9.65
609.01	9.64
609.345	9.52
609.68	9.82
610.015	9.75
610.35	9.6
610.685	9.86
611.02	10.04
611.355	9.81
611.689	9.96
612.024	10.11
612.359	10.08
612.694	10.12
613.028	9.84
613.363	10.1
613.697	10.27
614.032	10.27
614.366	10.2
614.7	10.32
615.035	10.17
615.369	10.19
615.703	10.19
616.037	10.43
616.371	9.91
616.705	10.19
617.039	10.6
617.373	10.39
617.707	10.26
618.041	10.66
618.375	10.55
618.709	10.73
619.042	10.45
619.376	11
619.71	11.14
620.043	10.73
620.377	10.67
620.71	11.03
621.043	10.44
621.377	10.87
621.71	10.94
622.043	10.4
622.376	10.25
622.709	10.66
623.043	11.12
623.376	11.07
623.709	10.89
624.041	11.23
624.374	10.88
624.707	11.14
625.04	11.62
625.373	10.64
625.705	10.99
626.038	11.02
626.37	10.83
626.703	11.19
627.035	11.06
627.368	11.9
627.7	11.5
628.032	11.24
628.365	11.67
628.697	11.69
629.029	11.19
629.361	11.44
629.693	11.68
630.025	11.29
630.357	11.67
630.689	11.65
631.021	11.74
631.353	11.81
631.684	11.41
632.016	11.35
632.348	11.79
632.679	11.82
633.011	12.23
633.342	11.83
633.674	11.86
634.005	12.2
634.336	11.74
634.668	12.37
634.999	11.68
635.33	11.84
635.661	11.86
635.992	12.02
636.323	12.11
636.654	11.91
636.985	11.79
637.316	12
637.647	11.96
637.977	12.08
638.308	12.11
638.639	11.76
638.969	12.19
639.3	12.27
639.63	11.97
639.961	12.6
640.291	12.66
640.622	12.72
640.952	12.24
641.282	12.89
641.612	12.22
641.943	12.4
642.273	12.46
642.603	12.71
642.933	12.51
643.263	12.32
643.592	12.65
643.922	12.59
644.252	11.99
644.582	12.59
644.911	12.72
645.241	12.74
645.571	13.03
645.9	12.78
646.23	13.12
646.559	13.03
646.888	12.85
647.218	13.11
647.547	13.28
647.876	12.51
648.205	12.83
648.534	12.64
648.863	12.53
649.192	13.64
649.521	13.26
649.85	13.41
650.179	13.07
650.508	13.07
650.837	12.88
651.165	12.77
651.494	13.41
651.822	13.37
652.151	13.41
652.479	13.06
652.808	13.44
653.136	13.35
653.465	12.98
653.793	13.27
654.121	12.65
654.449	13.47
654.777	13.93
655.105	13.48
655.433	12.73
655.761	13.49
656.089	14.07
656.417	14.21
656.745	13.36
657.073	13.41
657.4	13.82
657.728	13.59
658.056	13.63
658.383	13.68
658.711	14.07
659.038	14.43
659.365	14.57
659.693	13.93
660.02	13.81
660.347	14.24
660.674	14.14
661.001	14.26
661.329	13.45
661.656	14.34
661.982	14.12
662.309	14.15
662.636	13.69
662.963	14.84
663.29	14.37
663.616	14.82
663.943	14.48
664.27	13.93
664.596	14.35
664.923	14.64
665.249	14.28
665.576	14.07
665.902	14.93
666.228	14.51
666.554	15.03
666.881	14.45
667.207	15.12
667.533	14.85
667.859	14.85
668.185	15.3
668.511	14.55
668.837	14.54
669.162	14.71
669.488	13.76
669.814	15.25
670.139	15.09
670.465	15.33
670.791	14.45
671.116	15.44
671.442	14.89
671.767	15.2
672.092	15.03
672.418	15.08
672.743	15.13
673.068	14.28
673.393	15.17
673.718	15.89
674.043	15.34
674.368	15.41
674.693	15.67
675.018	14.93
675.343	15.1
675.667	15.84
675.992	15.92
676.317	15.79
676.641	15.63
676.966	15.64
677.29	15.18
677.615	16.14
677.939	15.64
678.264	16.08
678.588	15.4
678.912	16.34
679.236	15.87
679.56	15.63
679.885	16.66
680.209	15.92
680.532	15.5
680.856	17.09
681.18	16.66
681.504	16.13
681.828	16.69
682.152	15.78
682.475	16.21
682.799	16.47
683.122	16.66
683.446	15.8
683.769	16.44
684.093	16.08
684.416	17.08
684.739	16.05
685.062	16.42
685.386	17.17
685.709	16.56
686.032	16.66
686.355	16.5
686.678	15.52
687.001	16.76
687.324	17.43
687.646	16.52
687.969	15.91
688.292	16.29
688.614	16.95
688.937	17.51
689.26	16.71
689.582	17.25
689.904	17.3
690.227	17.52
690.549	16.97
690.871	16.91
691.194	17.45
691.516	16.69
691.838	17.5
692.16	16.43
692.482	17.13
692.804	17.37
693.126	17.34
693.448	16.87
693.769	17.84
694.091	17.55
694.413	17.42
694.735	16.97
695.056	17.38
695.378	17.27
695.699	16.74
696.021	16.6
696.342	17.13
696.663	17.18
696.984	16.76
697.306	16.45
697.627	18.21
697.948	18.24
698.269	17.53
698.59	17.77
698.911	17.35
699.232	18.08
699.553	18.45
699.873	17.96
700.194	18.93
700.515	18.42
700.835	17.76
701.156	18.24
701.477	18.45
701.797	18.25
702.117	18.1
702.438	18.12
702.758	17.63
703.078	17.21
703.398	18.01
703.719	17.47
704.039	17.79
704.359	18.45
704.679	17.96
704.999	18.2
705.319	17.54
705.638	17.53
705.958	17.45
706.278	18.08
706.597	18.99
706.917	18.86
707.237	17.89
707.556	19.97
707.876	19.06
708.195	19.61
708.514	18.86
708.834	18.71
709.153	19.13
709.472	19.32
709.791	19.19
710.11	18.26
710.429	18.94
710.748	19.81
711.067	17.89
711.386	19.02
711.705	18.31
712.023	18.79
712.342	17.56
712.661	18.64
712.979	18.48
713.298	19.67
713.616	18.4
713.935	20.18
714.253	18.54
714.572	19.11
714.89	19.71
715.208	20.25
715.526	20.15
715.844	20.22
716.162	20.25
716.48	19.73
716.798	19.32
717.116	18.98
717.434	19.18
717.752	19.1
718.069	19.72
718.387	19.39
718.705	20.22
719.022	18.89
719.34	19.64
719.657	18.88
719.975	19.13
720.292	20.08
720.609	20
720.927	18.72
721.244	20
721.561	20.94
721.878	21.45
722.195	17.39
722.512	19.49
722.829	20.13
723.146	19.62
723.463	20.26
723.779	17.94
724.096	22.23
724.413	20.3
724.729	19.71
725.046	20.64
725.362	19.12
725.679	21.12
725.995	20.16
726.311	19.36
726.628	20.77
726.944	21.38
727.26	20.61
727.576	22.34
727.892	20.35
728.208	20.43
728.524	20.89
728.84	19.64
729.156	20.07
729.472	19.43
729.787	19.65
730.103	21.12
730.419	20.59
730.734	20.52
731.05	19.84
731.365	20.73
731.681	20.67
731.996	19.41
732.311	21.71
732.626	22.8
732.942	20.16
733.257	21.93
733.572	21.45
733.887	20.67
734.202	21.18
734.517	20.4
734.832	20.88
735.146	22.03
735.461	21.49
735.776	21.23
736.091	21.41
736.405	21.32
736.72	20.24
737.034	22.05
737.349	23.39
737.663	22.09
737.977	22.58
738.292	21.68
738.606	22.58
738.92	21.71
739.234	23
739.548	20.04
739.862	21.53
740.176	22.03
740.49	22.64
740.804	23.48
741.117	21.05
741.431	22.96
741.745	19.87
742.058	23.34
742.372	22
742.685	21.29
742.999	22.74
743.312	21.09
743.626	23.21
743.939	23.13
744.252	23.74
744.565	22.34
744.878	23.92
745.191	20.37
745.505	21.39
745.817	21.87
746.13	21.18
746.443	23.9
746.756	24.08
747.069	21.76
747.381	22.18
747.694	22.34
748.007	22.82
748.319	23.04
748.632	23.71
748.944	23.95
749.256	22.43
749.569	20.72
749.881	24.79
750.193	24.01
750.505	23.7
750.817	23.15
751.129	23.96
751.441	22.89
751.753	22.81
752.065	22.63
752.377	24.79
752.689	23.85
753	23.3
753.312	22.83
753.624	22.81
753.935	25.4
754.247	22.16
754.558	23.36
754.869	23.44
755.181	23.14
755.492	24.63
755.803	24.39
756.114	23.6
756.425	23.63
756.736	21.62
757.047	26.03
757.358	23.71
757.669	25.15
757.98	23.18
758.291	22.27
758.601	23.06
758.912	23.76
759.223	26.11
759.533	23.22
759.844	21.67
760.154	23.97
760.464	25.21
760.775	23.38
761.085	25.07
761.395	23.59
761.705	24.04
762.016	24.88
762.326	24.71
762.636	23.64
762.945	22.67
763.255	25.06
763.565	24.97
763.875	25.27
764.185	23.28
764.494	24.65
764.804	25.41
765.113	25.4
765.423	24.23
765.732	25.64
766.042	24.77
766.351	24.78
766.66	25.63
766.97	27.93
767.279	24.69
767.588	25.9
767.897	26.97
768.206	22.39
768.515	22.66
768.824	25.56
769.133	24.35
769.441	24.88
769.75	24.31
770.059	25.97
770.367	27.45
770.676	24.55
770.984	26.17
771.293	24.96
771.601	28.19
771.91	22.85
772.218	27.62
772.526	24.47
772.834	25.38
773.142	24.17
773.45	24.13
773.758	24.41
774.066	24.95
774.374	23.42
774.682	22
774.99	28.53
775.298	26.13
775.605	22
775.913	25.34
776.22	26.55
776.528	26.57
776.835	27.92
777.143	23.7
777.45	25.86
777.757	27.79
778.065	23.79
778.372	23.86
778.679	21.57
778.986	25.65
779.293	24.55
779.6	25.45
779.907	24.99
780.214	25.74
780.52	26.3
780.827	27.9
781.134	25.81
781.44	24.74
781.747	24.83
782.053	24.8
782.36	25.7
782.666	29.32
782.973	27.34
783.279	26.72
783.585	24.71
783.891	27.24
784.197	26.06
784.503	27.24
784.809	22.54
785.115	29.3
785.421	25.23
785.727	28.12
786.033	26.99
786.339	24.75
786.644	25.86
786.95	26.09
787.255	27.38
787.561	23.56
787.866	28.29
788.172	28.2
788.477	26.75
788.782	26.39
789.088	30.41
789.393	24.48
789.698	25.34
790.003	25.5
790.308	25.27
790.613	25.4
790.918	27.9
791.223	30.21
791.527	21.77
791.832	28.84
792.137	27.08
792.441	27.39
792.746	26.06
793.05	23.1
793.355	26.78
793.659	25.98
793.963	28.46
794.268	25.85
794.572	23.92
794.876	27.56
795.18	26.58
795.484	29.34
795.788	29.14
796.092	24.51
796.396	29.48
796.7	27.62
797.004	24.36
797.307	27.56
797.611	29.1
797.915	29.15
798.218	26.25
798.522	31.21
798.825	28.04
799.128	28.69
799.432	25.66
799.735	30.65
800.038	29.61
800.341	30.6
800.644	26.11
800.947	27.89
801.25	27.84
801.553	19.35
801.856	24.19
802.159	16.9
802.462	23.6
802.764	24.11
803.067	26.49
803.37	30.53
803.672	25.83
803.975	23.83
804.277	35.86
804.579	25.61
804.882	22.31
805.184	25.79
805.486	27.88
805.788	32.33
806.09	31.29
806.392	22.94
806.694	30.56
806.996	32.95
807.298	26.25
807.6	30.94
807.902	29.79
808.203	26.55
808.505	28.78
808.807	29.36
809.108	30.42
809.409	25.16
809.711	27.69
810.012	25.95
810.313	27.87
810.615	28.87
810.916	29.35
811.217	27.33
811.518	23.62
811.819	28.95
812.12	30.15
812.421	28.25
812.722	31.01
813.023	32.18
813.323	26.8
813.624	31.1
813.925	40.02
814.225	29.37
814.526	33.98
814.826	30.27
815.126	26.96
815.427	25.14
815.727	30.01
816.027	31.74
816.327	28.37
816.627	28.53
816.927	30.16
817.227	27.94
817.527	24.99
817.827	31.5
818.127	27.58
818.427	28.18
818.727	27.43
819.026	27.13
819.326	35.81
819.625	32.98
819.925	27.66
820.224	33.5
820.524	34.33
820.823	32.66
821.122	29.95
821.421	31.79
821.72	29.18
822.019	26.9
822.318	28.66
822.617	26.35
822.916	32.64
823.215	29.75
823.514	30.79
823.813	26.3
824.111	31.98
824.41	31.33
824.709	30.53
825.007	33.6
825.306	33.04
825.604	33.7
825.902	33.28
826.201	32.78
826.499	32.35
826.797	31.89
827.095	31.43
827.393	30.59
827.691	32.57
827.989	30.51
828.287	31.58
828.585	32.48
828.882	32.14
829.18	33.05
829.478	32.55
829.775	34.97
830.073	34.83
830.37	32.97
830.668	31.08
830.965	34.18
831.263	31.85
831.56	27.47
831.857	32.03
832.154	32.69
832.451	33.92
832.748	31.61
833.045	33.25
833.342	31.38
833.639	35.05
833.936	28.52
834.232	28
834.529	31.87
834.826	30.33
835.122	27.45
835.419	27.86
835.715	31.46
836.012	35.35
836.308	30.49
836.604	31.92
836.901	33.62
837.197	30.49
837.493	34.6
837.789	32.79
838.085	35.26
838.381	38.5
838.677	31.25
838.972	27.56
839.268	31.12
839.564	32.5
839.86	34.67
840.155	25.74
840.451	25.39
840.746	34.32
841.042	30.59
841.337	36.36
841.632	35.03
841.928	44.49
842.223	17.58
842.518	28.71
842.813	46.92
843.108	26.88
843.403	33.92
843.698	26.92
843.993	28.5
844.287	21.4
844.582	21.17
844.877	27.47
845.171	26.02
845.466	31.88
845.761	24.76
846.055	32.15
846.349	26.15
846.644	26.9
846.938	8.26
847.232	34.82
847.526	33.38
847.82	42.57
848.114	19.11
848.408	13.17
848.702	27.06
848.996	23.31
849.29	18.95
849.584	2.44
849.877	17.87
850.171	30.86
850.465	38.43
850.758	23.67
851.052	24.1
851.345	31.86
851.638	47.83
851.932	4.03
852.225	37.09
852.518	15.67
852.811	27.85
853.104	3.52
853.397	13.18
853.69	24.7
853.983	17.06
854.276	40.67
854.569	28.36
854.861	37.26
855.154	26.69
855.447	3.26
855.739	38.73
856.032	42.54
856.324	33.07
856.616	48.23
856.909	34.8
857.201	45.19
857.493	26.19
857.785	20.04
858.077	37.63
858.369	34.05
858.661	53.99
858.953	-24.78
859.245	9.03
859.537	19.01
859.829	57.29
860.12	34.65
860.412	15.26
860.703	23.15
860.995	0.92
861.286	12.66
861.578	34.1
861.869	42.05
862.16	35.07
862.452	37.81
862.743	29.63
863.034	21.31
863.325	-1.27
863.616	30.67
863.907	53.57
864.198	12.01
864.488	59.48
864.779	22.51
865.07	32.4
865.36	17.86
865.651	49.73
865.941	29.72
866.232	19.02
866.522	34.66
866.813	43.74
867.103	43.36
867.393	18.31
867.683	34.64
867.973	-30.12
868.263	14.13
868.553	54.47
868.843	38.63
869.133	4.2
869.423	28.54
869.713	40.82
870.002	37.56
870.292	62.63
870.582	29.99
870.871	7.69
871.161	27.78
871.45	52.47
871.739	-0.39
872.029	3.05
872.318	35.23
872.607	49.1
872.896	42.56
873.185	-11.87
873.474	18.13
873.763	45.9
874.052	21.89
874.341	67.99
874.63	26.12
874.918	28.98
875.207	33.42
875.496	19.12
875.784	26.35
876.073	7.04
876.361	-45.77
876.649	21.53
876.938	32.51
877.226	3.5
877.514	32.32
877.802	4.22
878.09	-12.26
878.378	35.91
878.666	-8.36
878.954	-11.5
879.242	8.31
879.53	1.25
879.817	52.08
880.105	37.6
880.392	37.69
880.68	21.33
880.967	-2.94
881.255	29.43
881.542	16.48
881.83	17.25
882.117	64.23
882.404	20.39
882.691	28.28
882.978	14.25
883.265	22.63
883.552	59.62
883.839	12.14
884.126	20.62
884.413	41.22
884.699	50.86
884.986	37.2
885.273	33.56
885.559	33.56
885.846	33.56
