Data from 0195_chest_Reflection__2__357.txt Node

Date: Fri Dec 15 19:49:10 CST 2023
User: ToomeyLab
Spectrometer: FLMS14357
Trigger mode: 0
Integration Time (sec): 1.000000E-2
Scans to average: 100
Electric dark correction enabled: true
Nonlinearity correction enabled: false
Boxcar width: 0
XAxis mode: Wavelengths
Number of Pixels in Spectrum: 2048
>>>>>Begin Spectral Data<<<<<
189.047	-320.44
189.435	-320.44
189.823	-320.44
190.211	-405.37
190.599	-82.54
190.987	-54.03
191.375	-108.62
191.763	-27.96
192.151	-409.09
192.538	35.13
192.926	-128.57
193.314	141.84
193.702	33.98
194.089	-279.83
194.477	164.28
194.864	679.12
195.252	72.57
195.639	226.36
196.027	113.17
196.414	-27.38
196.801	405.18
197.189	165.32
197.576	238.34
197.963	-329.04
198.351	-121.45
198.738	-1023.6
199.125	-12.04
199.512	-3.8
199.899	-55.68
200.286	29.6
200.673	-34.18
201.06	-43.07
201.447	-90.99
201.833	-30.53
202.22	57.21
202.607	21.31
202.994	-56.25
203.38	13.01
203.767	1.45
204.154	18.61
204.54	16.76
204.927	-202.58
205.313	8.11
205.699	-2.46
206.086	77.59
206.472	29.04
206.858	5.77
207.245	-57.56
207.631	11.55
208.017	-15.93
208.403	-19.16
208.789	6.05
209.175	58.39
209.561	-6.12
209.947	-21.75
210.333	-71.63
210.719	15.4
211.105	-2.53
211.491	-62.97
211.876	-1.9
212.262	24.48
212.648	-1.3
213.034	9.83
213.419	-6.33
213.805	8.01
214.19	-55.89
214.576	-46.97
214.961	-27.77
215.346	-25.49
215.732	16.9
216.117	18.57
216.502	-176.52
216.888	-15.55
217.273	4.21
217.658	-18.12
218.043	-22.25
218.428	-50.3
218.813	-55.26
219.198	-47.03
219.583	4.9
219.968	14.27
220.353	-24.14
220.738	-1.99
221.122	6.45
221.507	-3.71
221.892	-54.22
222.276	-38.93
222.661	-21.44
223.046	16.21
223.43	9.55
223.815	12.57
224.199	-16.42
224.583	-8.18
224.968	-10.34
225.352	21.17
225.736	-2.26
226.121	-9.86
226.505	-1.3
226.889	13.04
227.273	5.61
227.657	7.25
228.041	2.25
228.425	2.36
228.809	4.84
229.193	4.03
229.577	1.86
229.961	5.48
230.344	4.8
230.728	4.42
231.112	4.7
231.495	4.78
231.879	3.72
232.263	4.66
232.646	3.98
233.03	5.31
233.413	2.06
233.797	2.89
234.18	4.89
234.563	7.39
234.946	2.62
235.33	5.18
235.713	2.24
236.096	4.84
236.479	5.47
236.862	2.31
237.245	6.85
237.628	3.52
238.011	1.96
238.394	5.72
238.777	4.95
239.16	2.15
239.543	2.77
239.925	6.01
240.308	3.2
240.691	4.28
241.073	5.88
241.456	4.76
241.838	4.11
242.221	3.79
242.603	5.33
242.986	5.55
243.368	4.84
243.75	4.85
244.133	4.89
244.515	4.78
244.897	4.65
245.279	4.52
245.661	3.69
246.043	3.7
246.425	3.5
246.807	5.26
247.189	4.66
247.571	4.26
247.953	4.9
248.335	4.55
248.717	4.62
249.098	4.54
249.48	4.77
249.862	4.65
250.243	4.36
250.625	4.47
251.006	4.93
251.388	2.81
251.769	4.2
252.151	4.83
252.532	4.51
252.913	4.16
253.295	4.15
253.676	3.79
254.057	4.87
254.438	4.19
254.819	3.71
255.2	3.83
255.581	3.89
255.962	4.26
256.343	3.05
256.724	3.59
257.105	2.57
257.486	4.27
257.867	3.69
258.247	5.41
258.628	3.25
259.009	4.27
259.389	4.4
259.77	4.4
260.15	2.98
260.531	3.39
260.911	4.2
261.292	4.02
261.672	4.28
262.052	4.15
262.432	4.42
262.813	4.34
263.193	3.68
263.573	4.11
263.953	3.83
264.333	4.27
264.713	4.51
265.093	3.55
265.473	4.06
265.853	3.22
266.233	4.51
266.612	1.59
266.992	3.13
267.372	4.64
267.752	2.8
268.131	3.69
268.511	4.28
268.89	3.81
269.27	4.03
269.649	3.87
270.029	3
270.408	4.72
270.787	4.29
271.167	4.22
271.546	4.77
271.925	3.8
272.304	3.74
272.683	4.01
273.062	3.97
273.441	4.18
273.82	3.08
274.199	3.83
274.578	4.11
274.957	3.62
275.336	4.2
275.715	3.86
276.093	3.8
276.472	4.18
276.851	3.93
277.229	3.54
277.608	3.25
277.986	3.85
278.365	4.04
278.743	3.7
279.122	3.85
279.5	3.71
279.878	4.16
280.257	3.97
280.635	3.52
281.013	3.33
281.391	4.53
281.769	4.27
282.147	5.06
282.525	4.06
282.903	3.5
283.281	4.06
283.659	4.18
284.037	4.06
284.415	4.1
284.792	4.13
285.17	2.95
285.548	3.55
285.925	3.75
286.303	3.75
286.68	3.6
287.058	3.54
287.435	3.77
287.813	3.68
288.19	3.69
288.567	3.49
288.945	3.87
289.322	4.14
289.699	3.8
290.076	3.72
290.453	3.26
290.83	3.77
291.207	3.97
291.584	4.08
291.961	3.86
292.338	3.83
292.715	4.21
293.092	3.8
293.469	3.59
293.845	4.15
294.222	3.5
294.599	3.04
294.975	3.3
295.352	3.88
295.728	3.3
296.105	3.41
296.481	4.17
296.858	3.81
297.234	3.53
297.61	4.2
297.986	3.31
298.363	3.81
298.739	3.79
299.115	3.83
299.491	3.6
299.867	3.87
300.243	4.13
300.619	3.51
300.995	3.25
301.371	3.73
301.746	3.84
302.122	4.29
302.498	3.23
302.874	4.51
303.249	3.71
303.625	3.76
304	4.36
304.376	4.17
304.751	3.42
305.127	4.12
305.502	3.14
305.878	3.68
306.253	3.65
306.628	4.4
307.003	4.03
307.378	4
307.754	3.75
308.129	3.05
308.504	3.87
308.879	3.32
309.254	4.24
309.629	4.5
310.003	3.57
310.378	4.12
310.753	4.43
311.128	3.79
311.502	3.57
311.877	4.07
312.252	3.51
312.626	4.16
313.001	3.65
313.375	3.89
313.75	3.23
314.124	3.78
314.498	4.1
314.873	3.66
315.247	3.33
315.621	3.8
315.995	3.55
316.369	3.41
316.743	3.76
317.117	3.94
317.491	3.81
317.865	3.85
318.239	3.67
318.613	3.82
318.987	3.96
319.361	3.63
319.734	3.9
320.108	3.83
320.482	3.77
320.855	4.3
321.229	3.4
321.602	3.66
321.976	3.97
322.349	2.97
322.723	3.47
323.096	3.45
323.469	3.32
323.843	3.71
324.216	4.3
324.589	3.9
324.962	3.64
325.335	3.5
325.708	3.35
326.081	3.38
326.454	3.8
326.827	3.55
327.2	4.44
327.573	4.49
327.945	3.12
328.318	3.3
328.691	3.52
329.063	3.62
329.436	3.49
329.809	3.8
330.181	3.19
330.553	3.84
330.926	3.7
331.298	3.67
331.671	3.7
332.043	4.47
332.415	3.46
332.787	3.8
333.159	4.19
333.532	3.53
333.904	3.55
334.276	4.15
334.648	4.36
335.02	4.2
335.391	3.99
335.763	3.26
336.135	3.71
336.507	4.06
336.879	3.31
337.25	3.17
337.622	3.98
337.993	3.81
338.365	3.95
338.736	3.45
339.108	3.78
339.479	3.85
339.851	3.79
340.222	3.59
340.593	4.05
340.964	3.81
341.336	4.62
341.707	3.09
342.078	3.76
342.449	4.09
342.82	4.3
343.191	3.29
343.562	3.97
343.933	3.62
344.303	4.08
344.674	3.78
345.045	3.6
345.416	3.9
345.786	3.51
346.157	3.91
346.527	3.43
346.898	3.43
347.268	4.15
347.639	3.77
348.009	3.96
348.38	3.64
348.75	3.75
349.12	3.75
349.49	4.41
349.861	3.67
350.231	3.36
350.601	3.7
350.971	3.69
351.341	3.7
351.711	4.02
352.081	4.09
352.45	3.45
352.82	3.85
353.19	3.85
353.56	3.45
353.929	3.85
354.299	3.87
354.669	3.53
355.038	3.99
355.408	4.2
355.777	4.01
356.147	3.89
356.516	4.1
356.885	3.98
357.254	4.29
357.624	4.44
357.993	4.06
358.362	3.87
358.731	3.91
359.1	4.01
359.469	3.76
359.838	3.85
360.207	3.83
360.576	3.71
360.945	3.63
361.314	4.4
361.682	3.52
362.051	3.77
362.42	4.33
362.788	3.76
363.157	4.17
363.525	4.03
363.894	4.2
364.262	4.15
364.631	3.8
364.999	4.15
365.367	3.73
365.735	4.68
366.104	4.2
366.472	4.08
366.84	4.17
367.208	3.68
367.576	4.36
367.944	3.97
368.312	3.53
368.68	3.72
369.048	4.02
369.416	4.06
369.783	3.64
370.151	4.15
370.519	4.32
370.886	4.35
371.254	3.81
371.621	4.42
371.989	4.13
372.356	3.84
372.724	4.37
373.091	3.87
373.458	4.06
373.826	4.06
374.193	4.15
374.56	4.48
374.927	4.21
375.294	4.03
375.661	3.68
376.028	3.54
376.395	4.13
376.762	4.27
377.129	3.84
377.496	4.08
377.863	4.16
378.229	3.74
378.596	4.04
378.963	4.14
379.329	4.06
379.696	4.23
380.062	4.03
380.429	3.96
380.795	3.84
381.161	4.29
381.528	4.79
381.894	4.04
382.26	4.06
382.626	4.08
382.993	3.84
383.359	4.62
383.725	4.02
384.091	4.14
384.457	4.34
384.823	4.22
385.188	4.4
385.554	4.17
385.92	4.28
386.286	4.47
386.651	4.27
387.017	4.71
387.383	4.29
387.748	3.77
388.114	4.41
388.479	4.03
388.845	4.47
389.21	4.25
389.575	4.09
389.94	4.12
390.306	4.37
390.671	4.35
391.036	3.7
391.401	3.6
391.766	4.25
392.131	3.99
392.496	3.94
392.861	4.19
393.226	4.39
393.591	4.32
393.956	4.05
394.32	4.15
394.685	3.72
395.05	4.21
395.414	4.18
395.779	4.05
396.143	4.03
396.508	4.32
396.872	4.28
397.236	4.2
397.601	4.09
397.965	4.36
398.329	4.42
398.694	4.22
399.058	4.51
399.422	4.02
399.786	4.39
400.15	4.37
400.514	4.25
400.878	4.42
401.242	4.75
401.605	4.25
401.969	4.24
402.333	4.38
402.697	4.33
403.06	4.43
403.424	4.3
403.787	4.13
404.151	4.49
404.514	4.27
404.878	4.13
405.241	4.39
405.604	4.41
405.968	4.4
406.331	4.19
406.694	4.5
407.057	4.26
407.42	4.44
407.783	4.07
408.146	4.54
408.509	4.2
408.872	3.99
409.235	4.38
409.598	4.37
409.961	4.15
410.323	4.55
410.686	4.25
411.049	4.21
411.411	4.37
411.774	4.45
412.136	3.88
412.499	4.38
412.861	4.41
413.223	4.35
413.586	4.64
413.948	4.44
414.31	4.49
414.672	4.08
415.035	4.14
415.397	4.45
415.759	4.24
416.121	4.57
416.483	4.46
416.845	4.38
417.206	4.31
417.568	4.47
417.93	4.35
418.292	4.34
418.653	4.32
419.015	4.46
419.377	4.13
419.738	4.47
420.1	4.19
420.461	4.35
420.822	4.37
421.184	4.23
421.545	4.28
421.906	4.23
422.267	4.26
422.629	4.33
422.99	4.37
423.351	4.27
423.712	4.32
424.073	4.28
424.434	4.39
424.795	4.35
425.155	4.36
425.516	4.24
425.877	4.38
426.238	4.28
426.598	4.45
426.959	4.4
427.32	4.34
427.68	4.26
428.041	4.33
428.401	4.39
428.761	4.35
429.122	4.45
429.482	4.26
429.842	4.53
430.202	4.55
430.563	4.37
430.923	4.32
431.283	4.64
431.643	4.51
432.003	4.45
432.363	4.35
432.722	4.34
433.082	4.49
433.442	4.54
433.802	4.3
434.161	4.37
434.521	4.68
434.881	4.53
435.24	4.27
435.6	4.39
435.959	4.32
436.319	4.33
436.678	4.4
437.037	4.47
437.396	4.59
437.756	4.56
438.115	4.38
438.474	4.57
438.833	4.4
439.192	4.45
439.551	4.56
439.91	4.65
440.269	4.48
440.628	4.31
440.987	4.53
441.345	4.26
441.704	4.29
442.063	4.47
442.421	4.33
442.78	4.42
443.138	4.36
443.497	4.36
443.855	4.48
444.214	4.54
444.572	4.5
444.93	4.55
445.288	4.53
445.647	4.75
446.005	4.4
446.363	4.44
446.721	4.61
447.079	4.36
447.437	4.39
447.795	4.38
448.153	4.32
448.51	4.4
448.868	4.46
449.226	4.41
449.584	4.35
449.941	4.45
450.299	4.5
450.656	4.63
451.014	4.5
451.371	4.63
451.729	4.32
452.086	4.72
452.443	4.56
452.801	4.71
453.158	4.48
453.515	4.44
453.872	4.75
454.229	4.48
454.586	4.54
454.943	4.57
455.3	4.51
455.657	4.37
456.014	4.47
456.371	4.62
456.727	4.65
457.084	4.73
457.441	4.57
457.797	4.44
458.154	4.71
458.51	4.8
458.867	4.72
459.223	4.73
459.58	4.48
459.936	4.7
460.292	4.62
460.648	4.52
461.005	4.63
461.361	4.65
461.717	4.52
462.073	4.45
462.429	4.51
462.785	4.61
463.141	4.6
463.496	4.59
463.852	4.63
464.208	4.74
464.564	4.8
464.919	4.72
465.275	4.63
465.631	4.73
465.986	4.51
466.342	4.69
466.697	4.57
467.052	4.85
467.408	4.74
467.763	4.6
468.118	4.62
468.473	4.6
468.829	4.64
469.184	4.62
469.539	4.59
469.894	4.41
470.249	4.8
470.603	4.83
470.958	4.69
471.313	4.8
471.668	4.76
472.023	4.62
472.377	4.75
472.732	4.71
473.086	4.57
473.441	4.58
473.795	4.84
474.15	4.65
474.504	4.56
474.859	4.77
475.213	4.52
475.567	4.66
475.921	4.57
476.275	4.81
476.63	4.77
476.984	4.7
477.338	4.73
477.692	4.74
478.045	4.7
478.399	4.77
478.753	4.78
479.107	4.73
479.461	4.59
479.814	4.82
480.168	4.63
480.521	4.66
480.875	4.69
481.228	4.6
481.582	4.52
481.935	4.61
482.289	4.67
482.642	4.75
482.995	4.62
483.348	4.54
483.701	4.68
484.055	4.73
484.408	4.81
484.761	4.56
485.114	4.59
485.466	4.48
485.819	4.4
486.172	4.44
486.525	4.46
486.878	4.55
487.23	4.52
487.583	4.54
487.936	4.66
488.288	4.68
488.641	4.67
488.993	4.52
489.345	4.51
489.698	4.52
490.05	4.5
490.402	4.58
490.754	4.59
491.107	4.62
491.459	4.72
491.811	4.74
492.163	4.75
492.515	4.82
492.866	4.74
493.218	4.65
493.57	4.57
493.922	4.58
494.274	4.64
494.625	4.81
494.977	4.78
495.328	4.84
495.68	4.79
496.031	4.87
496.383	4.75
496.734	4.87
497.086	4.85
497.437	4.7
497.788	4.84
498.139	4.82
498.49	4.84
498.842	4.77
499.193	4.8
499.544	4.79
499.894	4.83
500.245	4.72
500.596	4.86
500.947	4.99
501.298	4.77
501.648	4.92
501.999	5.04
502.35	4.95
502.7	4.87
503.051	4.69
503.401	4.96
503.752	4.92
504.102	4.9
504.452	4.99
504.803	4.91
505.153	4.82
505.503	4.84
505.853	4.92
506.203	4.86
506.553	4.88
506.903	4.9
507.253	5
507.603	4.99
507.953	5.12
508.303	5.16
508.652	4.9
509.002	5
509.352	5
509.701	4.92
510.051	4.98
510.4	4.95
510.75	4.96
511.099	5.03
511.449	4.91
511.798	4.97
512.147	5.02
512.496	4.98
512.846	4.94
513.195	4.87
513.544	4.99
513.893	5.16
514.242	4.97
514.591	5.22
514.939	4.96
515.288	4.9
515.637	5.08
515.986	5.07
516.334	5.13
516.683	5.26
517.032	5.06
517.38	5.16
517.729	5.21
518.077	5.02
518.426	5.08
518.774	5.3
519.122	5.09
519.47	5.17
519.819	5.02
520.167	5.07
520.515	4.98
520.863	5.08
521.211	5.13
521.559	5.23
521.907	5.23
522.255	5.17
522.602	5.17
522.95	5.06
523.298	5.07
523.645	5.35
523.993	5.24
524.341	5.42
524.688	5.24
525.036	5.23
525.383	5.22
525.73	5.34
526.078	5.2
526.425	5.15
526.772	5.21
527.119	5.22
527.466	5.23
527.814	5.22
528.161	5.21
528.508	5.25
528.854	5.12
529.201	5.1
529.548	5.2
529.895	5.15
530.242	5.13
530.588	5.12
530.935	5.11
531.282	5.13
531.628	5.13
531.975	5.19
532.321	5.23
532.667	5.32
533.014	5.31
533.36	5.37
533.706	5.34
534.052	5.3
534.399	5.36
534.745	5.31
535.091	5.3
535.437	5.35
535.783	5.32
536.129	5.41
536.474	5.35
536.82	5.38
537.166	5.49
537.512	5.43
537.857	5.47
538.203	5.51
538.549	5.43
538.894	5.5
539.239	5.5
539.585	5.57
539.93	5.51
540.276	5.61
540.621	5.68
540.966	5.68
541.311	5.54
541.656	5.5
542.001	5.68
542.346	5.72
542.691	5.58
543.036	5.67
543.381	5.41
543.726	5.51
544.071	5.65
544.415	5.65
544.76	5.68
545.105	5.66
545.449	5.7
545.794	5.81
546.138	5.71
546.483	5.82
546.827	5.85
547.171	5.86
547.516	6.01
547.86	5.82
548.204	5.85
548.548	5.75
548.892	5.92
549.236	5.84
549.58	5.9
549.924	5.94
550.268	5.81
550.612	5.91
550.956	6.2
551.3	5.93
551.643	6.2
551.987	6.18
552.33	6.16
552.674	6.07
553.017	6.03
553.361	6.1
553.704	6.28
554.048	6.08
554.391	6.19
554.734	6.07
555.077	6.15
555.42	6.07
555.764	6.02
556.107	6.12
556.45	6.08
556.793	5.93
557.135	6.25
557.478	6.42
557.821	6.4
558.164	6.04
558.507	6.47
558.849	6.19
559.192	6.51
559.534	6.42
559.877	6.48
560.219	6.44
560.562	6.54
560.904	6.46
561.246	6.7
561.589	6.65
561.931	6.46
562.273	6.48
562.615	6.39
562.957	6.56
563.299	6.36
563.641	6.64
563.983	6.61
564.325	6.61
564.667	6.45
565.008	6.73
565.35	6.55
565.692	6.59
566.033	6.62
566.375	7
566.716	7.05
567.058	6.62
567.399	6.67
567.741	6.65
568.082	6.79
568.423	6.79
568.764	6.77
569.105	6.9
569.447	6.91
569.788	6.88
570.129	7.07
570.47	6.95
570.811	7.31
571.151	7.13
571.492	7.13
571.833	7.11
572.174	7.01
572.514	7.09
572.855	7.12
573.195	7.09
573.536	7.06
573.876	7.12
574.217	7.06
574.557	7.17
574.898	7.27
575.238	7.21
575.578	7.21
575.918	7.39
576.258	7.29
576.598	7.41
576.938	7.39
577.278	7.43
577.618	7.34
577.958	7.4
578.298	7.26
578.638	7.29
578.977	7.33
579.317	7.39
579.657	7.44
579.996	7.52
580.336	7.66
580.675	7.46
581.014	7.64
581.354	7.64
581.693	7.86
582.032	7.51
582.372	7.69
582.711	7.91
583.05	7.7
583.389	7.84
583.728	7.57
584.067	7.76
584.406	7.7
584.745	7.98
585.083	8.13
585.422	7.94
585.761	7.86
586.1	7.85
586.438	7.91
586.777	8
587.115	8.15
587.454	8
587.792	7.94
588.13	8.26
588.469	7.93
588.807	8.09
589.145	8.08
589.483	8.2
589.821	8.08
590.159	8.2
590.497	8.68
590.835	8.71
591.173	8.49
591.511	8.62
591.849	8.3
592.187	8.59
592.524	8.32
592.862	8.23
593.2	8.67
593.537	8.5
593.875	8.44
594.212	8.61
594.55	8.71
594.887	8.73
595.224	8.68
595.561	8.58
595.899	8.64
596.236	8.98
596.573	8.99
596.91	8.51
597.247	8.6
597.584	9.06
597.921	8.69
598.258	8.76
598.594	8.87
598.931	8.82
599.268	8.94
599.604	8.94
599.941	8.98
600.277	9.05
600.614	9.19
600.95	8.92
601.287	9.14
601.623	9.11
601.959	9.14
602.296	8.97
602.632	8.99
602.968	9.61
603.304	9.28
603.64	9.14
603.976	9.38
604.312	9.4
604.648	9.56
604.984	9.51
605.319	9.45
605.655	9.64
605.991	9.43
606.326	9.51
606.662	9.63
606.998	9.5
607.333	9.69
607.668	9.65
608.004	9.55
608.339	9.71
608.674	9.55
609.01	9.49
609.345	9.52
609.68	9.69
610.015	9.69
610.35	9.59
610.685	9.71
611.02	9.67
611.355	9.87
611.689	9.9
612.024	10.04
612.359	9.84
612.694	10
613.028	10
613.363	10.12
613.697	10.27
614.032	10.46
614.366	10.02
614.7	10.3
615.035	10.2
615.369	10.21
615.703	10.31
616.037	10.32
616.371	9.93
616.705	10
617.039	10.52
617.373	10.07
617.707	10.31
618.041	10.18
618.375	10.67
618.709	10.34
619.042	10.24
619.376	10.58
619.71	10.82
620.043	10.78
620.377	10.56
620.71	10.83
621.043	10.99
621.377	10.58
621.71	10.68
622.043	10.34
622.376	10.55
622.709	11.01
623.043	10.96
623.376	10.94
623.709	11.19
624.041	11.36
624.374	11.26
624.707	11.01
625.04	11
625.373	10.44
625.705	10.85
626.038	11.19
626.37	11.52
626.703	11.53
627.035	11.07
627.368	11.74
627.7	11.11
628.032	11.29
628.365	11.63
628.697	11.49
629.029	11.42
629.361	11.43
629.693	11.82
630.025	11.55
630.357	11.93
630.689	11.66
631.021	11.73
631.353	11.61
631.684	11.7
632.016	11.37
632.348	11.88
632.679	12.11
633.011	11.94
633.342	12.13
633.674	11.8
634.005	12.35
634.336	12.35
634.668	12.45
634.999	11.41
635.33	12.43
635.661	12.27
635.992	11.91
636.323	12.31
636.654	11.98
636.985	12.34
637.316	12
637.647	12.05
637.977	12.85
638.308	12.58
638.639	11.92
638.969	12.31
639.3	12.3
639.63	12.13
639.961	12.34
640.291	12.34
640.622	12.22
640.952	12.24
641.282	13.15
641.612	12.43
641.943	12.37
642.273	12.64
642.603	12.51
642.933	12.32
643.263	12.78
643.592	12.53
643.922	12.06
644.252	12.62
644.582	12.9
644.911	12.08
645.241	12.65
645.571	12.66
645.9	13.28
646.23	12.73
646.559	13.48
646.888	13.03
647.218	12.61
647.547	13.09
647.876	13.13
648.205	13.61
648.534	13.1
648.863	13.1
649.192	13.47
649.521	13.2
649.85	12.96
650.179	13.32
650.508	13.45
650.837	13.37
651.165	13.09
651.494	13.6
651.822	13.41
652.151	13.37
652.479	13.4
652.808	13.97
653.136	13.71
653.465	13.19
653.793	13.06
654.121	13.18
654.449	14.34
654.777	13.55
655.105	13.37
655.433	13.36
655.761	13.07
656.089	14.46
656.417	13.91
656.745	13.5
657.073	13.28
657.4	14.78
657.728	14.07
658.056	13.76
658.383	13.44
658.711	14.18
659.038	14.52
659.365	14.36
659.693	14.06
660.02	14.08
660.347	13.93
660.674	14.04
661.001	14.41
661.329	13.52
661.656	14.58
661.982	14.32
662.309	13.92
662.636	14.18
662.963	14.57
663.29	14.59
663.616	14.48
663.943	14.29
664.27	14.81
664.596	14.74
664.923	14.85
665.249	14.39
665.576	14.68
665.902	15.65
666.228	15.17
666.554	15.54
666.881	14.91
667.207	15.16
667.533	15.41
667.859	15.15
668.185	15.02
668.511	15.16
668.837	14.35
669.162	14.53
669.488	14.36
669.814	15.61
670.139	15.59
670.465	15.54
670.791	15.53
671.116	16.48
671.442	15.56
671.767	15.51
672.092	15.21
672.418	15.1
672.743	15.17
673.068	14.88
673.393	15.62
673.718	15.27
674.043	15.52
674.368	15.5
674.693	16.49
675.018	15.99
675.343	15.34
675.667	15.23
675.992	16.46
676.317	15.27
676.641	15.06
676.966	15.92
677.29	15.76
677.615	16.41
677.939	16.42
678.264	16.03
678.588	15.72
678.912	16.58
679.236	16.79
679.56	15.79
679.885	16.75
680.209	15.81
680.532	15.91
680.856	16.55
681.18	16.16
681.504	16.39
681.828	16.45
682.152	16.17
682.475	16.06
682.799	16.84
683.122	16.42
683.446	16.43
683.769	16.9
684.093	16.04
684.416	16.65
684.739	16.12
685.062	16.35
685.386	16.38
685.709	15.74
686.032	16.31
686.355	17.14
686.678	16.25
687.001	17.17
687.324	17.25
687.646	15.74
687.969	16.14
688.292	16.62
688.614	16.77
688.937	17.81
689.26	16.38
689.582	17.01
689.904	17.16
690.227	17.51
690.549	16.53
690.871	17.79
691.194	17.91
691.516	17.03
691.838	17.47
692.16	16.96
692.482	16.08
692.804	17.63
693.126	17.22
693.448	17.71
693.769	18.14
694.091	17.31
694.413	16.92
694.735	16.79
695.056	18.01
695.378	18.35
695.699	17.47
696.021	16.57
696.342	17.62
696.663	17.13
696.984	17.77
697.306	16.4
697.627	17.16
697.948	18.02
698.269	16.68
698.59	18.04
698.911	17.44
699.232	17.48
699.553	17.45
699.873	17.91
700.194	18.44
700.515	17.95
700.835	17.79
701.156	18.53
701.477	17.84
701.797	17.75
702.117	18.23
702.438	18.54
702.758	17.39
703.078	18.09
703.398	17.64
703.719	18.57
704.039	16.76
704.359	18.25
704.679	17.73
704.999	17.83
705.319	17.95
705.638	17.59
705.958	18.07
706.278	18.14
706.597	18.21
706.917	19.44
707.237	20.38
707.556	18.26
707.876	18.81
708.195	19.59
708.514	18.85
708.834	18.59
709.153	18.42
709.472	20.05
709.791	20
710.11	18.62
710.429	19.87
710.748	19.46
711.067	18.83
711.386	19.04
711.705	18.61
712.023	20.36
712.342	17.98
712.661	19.39
712.979	17.96
713.298	19.38
713.616	18.88
713.935	19.2
714.253	19.41
714.572	19.33
714.89	19.17
715.208	20.56
715.526	20.02
715.844	19.35
716.162	20.45
716.48	20.15
716.798	19.05
717.116	19.56
717.434	19.1
717.752	18.26
718.069	19.93
718.387	19.42
718.705	20.29
719.022	19.25
719.34	19.92
719.657	18.26
719.975	18.71
720.292	19.84
720.609	19.35
720.927	19.6
721.244	20.27
721.561	21.21
721.878	22.14
722.195	18.93
722.512	20.69
722.829	19.29
723.146	19.86
723.463	19.8
723.779	19.68
724.096	21.03
724.413	19.9
724.729	19.77
725.046	18.99
725.362	19.71
725.679	20.27
725.995	18.68
726.311	19.08
726.628	21.28
726.944	22.55
727.26	20.77
727.576	21.25
727.892	20.93
728.208	19.89
728.524	21.01
728.84	20.1
729.156	20.95
729.472	19.21
729.787	19.98
730.103	22.27
730.419	21.16
730.734	20.67
731.05	22.1
731.365	19.92
731.681	20.29
731.996	22
732.311	20.89
732.626	20.94
732.942	19.25
733.257	22.06
733.572	21.36
733.887	21.31
734.202	21.23
734.517	21.13
734.832	22.38
735.146	20.46
735.461	21.25
735.776	20.37
736.091	21.6
736.405	21.93
736.72	19.59
737.034	22.25
737.349	22.81
737.663	22.72
737.977	20.69
738.292	21.45
738.606	22.25
738.92	22.34
739.234	21.98
739.548	21.41
739.862	20.64
740.176	20.85
740.49	21.77
740.804	24.31
741.117	20.58
741.431	21.82
741.745	20.62
742.058	21.71
742.372	21.57
742.685	21.54
742.999	22.3
743.312	21.99
743.626	21.02
743.939	20.8
744.252	21.79
744.565	18.96
744.878	22.06
745.191	20.25
745.505	20.26
745.817	23.13
746.13	21.35
746.443	22.74
746.756	23.34
747.069	22.95
747.381	20.81
747.694	20.96
748.007	20.68
748.319	23.39
748.632	22.36
748.944	24.13
749.256	22.71
749.569	22.65
749.881	23.08
750.193	23.43
750.505	22.81
750.817	24.09
751.129	23.26
751.441	22.94
751.753	23.33
752.065	21.1
752.377	22.78
752.689	25.23
753	22.51
753.312	21.22
753.624	20.66
753.935	25.57
754.247	22.43
754.558	20.44
754.869	24.25
755.181	22.19
755.492	25.51
755.803	21.63
756.114	23.41
756.425	21.63
756.736	21.68
757.047	25.63
757.358	24.13
757.669	24.27
757.98	21.47
758.291	23.57
758.601	23.69
758.912	23.75
759.223	23.09
759.533	22.58
759.844	24.06
760.154	22.86
760.464	24.32
760.775	23.29
761.085	24.96
761.395	25.7
761.705	22.59
762.016	22.46
762.326	23.15
762.636	23.19
762.945	21.71
763.255	23.19
763.565	22.4
763.875	22.75
764.185	22.17
764.494	24.39
764.804	24.91
765.113	23.99
765.423	23.68
765.732	25.75
766.042	23.72
766.351	24.62
766.66	25.02
766.97	25.61
767.279	23.76
767.588	23.35
767.897	24.88
768.206	24.12
768.515	21.97
768.824	25.53
769.133	23.87
769.441	22.52
769.75	24.3
770.059	25.02
770.367	24.2
770.676	23.96
770.984	26.12
771.293	25.25
771.601	26.49
771.91	22.93
772.218	29.04
772.526	26.87
772.834	24.64
773.142	23.91
773.45	24.25
773.758	24.92
774.066	25.35
774.374	21.97
774.682	23.46
774.99	24.94
775.298	22.92
775.605	24.17
775.913	22.32
776.22	26.64
776.528	24.22
776.835	25.11
777.143	23.91
777.45	24.04
777.757	26.29
778.065	23.25
778.372	24.71
778.679	21.47
778.986	24.69
779.293	26.56
779.6	24.16
779.907	22.18
780.214	23.14
780.52	27.02
780.827	25.63
781.134	24.77
781.44	24.7
781.747	23.12
782.053	25.31
782.36	23.78
782.666	23.67
782.973	22.68
783.279	28.12
783.585	24.3
783.891	26.93
784.197	25.74
784.503	28.47
784.809	22.42
785.115	24.34
785.421	28.61
785.727	27.32
786.033	23.59
786.339	21.49
786.644	22.8
786.95	27.15
787.255	25.26
787.561	27.67
787.866	22.83
788.172	25.94
788.477	22.06
788.782	26.88
789.088	22.36
789.393	26.53
789.698	29.9
790.003	26.95
790.308	24.53
790.613	23.91
790.918	30.13
791.223	27.08
791.527	22.02
791.832	28.99
792.137	22.96
792.441	24
792.746	25.05
793.05	24.69
793.355	25.57
793.659	27.76
793.963	24.83
794.268	26.24
794.572	26.22
794.876	27.77
795.18	24.51
795.484	27.31
795.788	27.19
796.092	21.39
796.396	24.87
796.7	21.77
797.004	26.72
797.307	18.88
797.611	27.36
797.915	25.9
798.218	22.91
798.522	26.59
798.825	23.81
799.128	25.35
799.432	24.93
799.735	24.83
800.038	29.49
800.341	26.34
800.644	25.66
800.947	24.99
801.25	26.89
801.553	24.91
801.856	23.76
802.159	21.7
802.462	21.86
802.764	30.74
803.067	30.92
803.37	26.31
803.672	23.59
803.975	23.01
804.277	29.75
804.579	25.78
804.882	26.21
805.184	28.88
805.486	23.97
805.788	27.74
806.09	30.97
806.392	28.18
806.694	22.75
806.996	29.37
807.298	28.8
807.6	25.76
807.902	30.27
808.203	27.06
808.505	26.98
808.807	32.02
809.108	28.34
809.409	32.13
809.711	24.18
810.012	28.64
810.313	34.38
810.615	29.23
810.916	22.53
811.217	27.26
811.518	24.34
811.819	21.13
812.12	29.2
812.421	26.72
812.722	29.82
813.023	33.54
813.323	27.37
813.624	31.49
813.925	36.88
814.225	20.77
814.526	27.88
814.826	30.46
815.126	28.02
815.427	22.73
815.727	31.04
816.027	27.28
816.327	25.59
816.627	24.74
816.927	29.6
817.227	21.95
817.527	27.36
817.827	31.46
818.127	30.37
818.427	27.17
818.727	23.89
819.026	30.65
819.326	29.02
819.625	28.37
819.925	29.45
820.224	31.96
820.524	30.73
820.823	30.51
821.122	24.74
821.421	28.83
821.72	21.22
822.019	29.2
822.318	32.53
822.617	28.65
822.916	30.97
823.215	29.05
823.514	31.31
823.813	28.42
824.111	31
824.41	34.22
824.709	29.54
825.007	31.4
825.306	31.29
825.604	31.83
825.902	31.16
826.201	31.22
826.499	30.59
826.797	29.59
827.095	29.51
827.393	30.8
827.691	30.93
827.989	27.36
828.287	29.99
828.585	29.34
828.882	32.51
829.18	30.77
829.478	31.83
829.775	32.27
830.073	31.54
830.37	32.14
830.668	30.21
830.965	31.81
831.263	33.14
831.56	30.19
831.857	29.11
832.154	30.1
832.451	29.72
832.748	32.09
833.045	31.27
833.342	32.91
833.639	27.05
833.936	29.67
834.232	37.14
834.529	25.25
834.826	24.51
835.122	28.46
835.419	30.03
835.715	28.86
836.012	29.94
836.308	27.29
836.604	29.72
836.901	30.9
837.197	30.08
837.493	32.08
837.789	33.37
838.085	34.67
838.381	32.92
838.677	31.3
838.972	27.97
839.268	31.13
839.564	25.02
839.86	28.84
840.155	28.49
840.451	19.92
840.746	37.32
841.042	37
841.337	33.24
841.632	30.9
841.928	35.53
842.223	21.29
842.518	28.62
842.813	49.97
843.108	25.64
843.403	33.17
843.698	29.6
843.993	34.16
844.287	26.97
844.582	28.48
844.877	22.39
845.171	31.66
845.466	26.03
845.761	28.28
846.055	33.32
846.349	31.08
846.644	34.98
846.938	8.4
847.232	23.81
847.526	9.51
847.82	13.69
848.114	25.65
848.408	26.59
848.702	38.37
848.996	-0.61
849.29	21.66
849.584	21.13
849.877	22.58
850.171	27.21
850.465	14.47
850.758	19.46
851.052	5.35
851.345	30.91
851.638	36.17
851.932	6.7
852.225	5.83
852.518	16.21
852.811	21.41
853.104	-22.83
853.397	23.07
853.69	23.77
853.983	20.36
854.276	46.13
854.569	40.9
854.861	40.38
855.154	38.74
855.447	19.38
855.739	56.52
856.032	37.42
856.324	44.37
856.616	29.74
856.909	22.66
857.201	52.93
857.493	20.33
857.785	18.92
858.077	27.35
858.369	-2.47
858.661	3.22
858.953	9.34
859.245	21.46
859.537	44.6
859.829	39.83
860.12	30.27
860.412	25.25
860.703	26.04
860.995	11.22
861.286	29.93
861.578	27.87
861.869	36.24
862.16	35.75
862.452	31.17
862.743	5.97
863.034	23.69
863.325	46.97
863.616	22.78
863.907	60.78
864.198	32.18
864.488	35.25
864.779	24.75
865.07	33.78
865.36	31.1
865.651	-4.41
865.941	27.42
866.232	-11.56
866.522	1.66
866.813	35.53
867.103	39.69
867.393	60.06
867.683	37.79
867.973	35.67
868.263	36.17
868.553	28.05
868.843	22.85
869.133	-13.81
869.423	13.78
869.713	33.97
870.002	35.44
870.292	39.2
870.582	18.39
870.871	17.99
871.161	21.79
871.45	15.91
871.739	11.98
872.029	6.09
872.318	38.68
872.607	77.09
872.896	-7.43
873.185	-6.83
873.474	25.79
873.763	21
874.052	25.24
874.341	37.76
874.63	19.91
874.918	5.82
875.207	50.91
875.496	17.67
875.784	26.72
876.073	-2.98
876.361	-133.9
876.649	19.01
876.938	10.72
877.226	43.86
877.514	25.86
877.802	26.62
878.09	-9.23
878.378	39.61
878.666	20.1
878.954	14.17
879.242	-3.94
879.53	12.97
879.817	27.31
880.105	-30.15
880.392	48.86
880.68	6.79
880.967	6.5
881.255	22.07
881.542	13.67
881.83	-6.99
882.117	14.59
882.404	7.74
882.691	29.97
882.978	29.4
883.265	10.81
883.552	55.67
883.839	34.91
884.126	25.46
884.413	38.65
884.699	32.88
884.986	40.62
885.273	29.36
885.559	29.36
885.846	29.36
