Data from 16HH-1_crown_Reflection__4__89.txt Node

Date: Fri Nov 11 16:50:11 CST 2022
User: ToomeyLab
Spectrometer: FLMS14357
Trigger mode: 0
Integration Time (sec): 1.000000E-2
Scans to average: 100
Electric dark correction enabled: true
Nonlinearity correction enabled: false
Boxcar width: 0
XAxis mode: Wavelengths
Number of Pixels in Spectrum: 2048
>>>>>Begin Spectral Data<<<<<
189.047	545.92
189.435	545.92
189.823	545.92
190.211	298.1
190.599	214.23
190.987	1048.13
191.375	106.41
191.763	-182.43
192.151	-3.39
192.538	-238.08
192.926	-62.96
193.314	-104.34
193.702	-531.5
194.089	-32.56
194.477	160.45
194.864	-31.73
195.252	-1204.19
195.639	69.19
196.027	-118.04
196.414	51.1
196.801	113.27
197.189	100.35
197.576	195.58
197.963	26.15
198.351	-9.36
198.738	-289.78
199.125	8.39
199.512	12.8
199.899	37.38
200.286	3.28
200.673	38.9
201.06	-176.75
201.447	6.97
201.833	9.79
202.22	59
202.607	10.28
202.994	8.06
203.38	16.44
203.767	23.15
204.154	-20.2
204.54	23.2
204.927	46.62
205.313	13.64
205.699	12.69
206.086	9.02
206.472	11.2
206.858	-7.22
207.245	15.44
207.631	43.46
208.017	8.76
208.403	0.52
208.789	-72.76
209.175	-10.08
209.561	25.26
209.947	3.78
210.333	20.24
210.719	10.51
211.105	-8.51
211.491	-97.44
211.876	-1.84
212.262	-37.02
212.648	9.88
213.034	-10.4
213.419	-0.27
213.805	40.62
214.19	-18.15
214.576	-18.08
214.961	32.15
215.346	-15.68
215.732	-39.75
216.117	31.21
216.502	-0.7
216.888	-5.72
217.273	-0.38
217.658	-3.96
218.043	-2.67
218.428	-25.41
218.813	21.44
219.198	-46.18
219.583	27.59
219.968	13.14
220.353	-17.59
220.738	-1.93
221.122	-6.53
221.507	18.17
221.892	-7.77
222.276	7.85
222.661	-0.54
223.046	19.18
223.43	5.42
223.815	7.8
224.199	-0.52
224.583	-11.38
224.968	8.01
225.352	-1.67
225.736	8.5
226.121	-6.43
226.505	5.09
226.889	3.02
227.273	0.57
227.657	-1.76
228.041	2.01
228.425	3.81
228.809	5.89
229.193	3.18
229.577	5.43
229.961	2.81
230.344	3.57
230.728	2.97
231.112	2.89
231.495	3.36
231.879	1.91
232.263	2.01
232.646	0.99
233.03	0.89
233.413	3.2
233.797	2.15
234.18	1.58
234.563	2.18
234.946	1.45
235.33	1.52
235.713	2.84
236.096	0.27
236.479	2.95
236.862	3.36
237.245	0.84
237.628	2.34
238.011	3.64
238.394	3.78
238.777	3.76
239.16	4.25
239.543	3.2
239.925	6.33
240.308	1.29
240.691	2.19
241.073	3.66
241.456	2.38
241.838	3.31
242.221	1.96
242.603	2.06
242.986	2.59
243.368	2.63
243.75	3.06
244.133	2.56
244.515	3.12
244.897	2.55
245.279	2.27
245.661	2.83
246.043	3.59
246.425	3.26
246.807	1.96
247.189	2.43
247.571	1.59
247.953	2.66
248.335	3.18
248.717	2.85
249.098	2.77
249.48	2.98
249.862	2.72
250.243	2.75
250.625	2.89
251.006	3.15
251.388	3.11
251.769	4.15
252.151	2.39
252.532	3.65
252.913	2.11
253.295	1.98
253.676	3
254.057	2.17
254.438	3.3
254.819	2.96
255.2	3.33
255.581	3.28
255.962	2.62
256.343	3.29
256.724	2.95
257.105	3.39
257.486	2.9
257.867	1.9
258.247	3.37
258.628	3.04
259.009	2.75
259.389	2.25
259.77	2.89
260.15	3.29
260.531	2.22
260.911	2.42
261.292	2.53
261.672	2.61
262.052	2.71
262.432	2.99
262.813	2.58
263.193	2.54
263.573	3.22
263.953	3.03
264.333	2.8
264.713	2.67
265.093	2.79
265.473	3.4
265.853	1.97
266.233	2.9
266.612	1.91
266.992	2.59
267.372	2.76
267.752	3.18
268.131	2.38
268.511	2.58
268.89	2.9
269.27	2.29
269.649	2.48
270.029	2.23
270.408	2.22
270.787	2.83
271.167	2.18
271.546	2.71
271.925	3.37
272.304	3.04
272.683	2.32
273.062	3.08
273.441	2.37
273.82	2.16
274.199	2.82
274.578	3.05
274.957	2.21
275.336	2.82
275.715	2.76
276.093	2.94
276.472	2.89
276.851	2.71
277.229	2.24
277.608	2.34
277.986	2.97
278.365	3.42
278.743	2.5
279.122	2.68
279.5	2.29
279.878	2.27
280.257	3
280.635	2.35
281.013	2.16
281.391	3.11
281.769	2.92
282.147	2.7
282.525	2.86
282.903	3.06
283.281	2.46
283.659	2.22
284.037	2.58
284.415	2.68
284.792	2.75
285.17	2.64
285.548	2.32
285.925	2.16
286.303	2.06
286.68	2.66
287.058	2.41
287.435	2.66
287.813	2.49
288.19	2.48
288.567	2.73
288.945	2.14
289.322	2.78
289.699	2.68
290.076	2.39
290.453	2.29
290.83	2.79
291.207	2.8
291.584	2.37
291.961	2.34
292.338	2.54
292.715	2.51
293.092	2.43
293.469	3.12
293.845	3.03
294.222	3.42
294.599	2.76
294.975	2.7
295.352	2.35
295.728	3.11
296.105	2.63
296.481	2.53
296.858	2.74
297.234	2.57
297.61	2.51
297.986	2.24
298.363	2.45
298.739	2.4
299.115	2.62
299.491	2.77
299.867	2.76
300.243	2.16
300.619	2.46
300.995	2.42
301.371	2.11
301.746	2.55
302.122	2.75
302.498	2.23
302.874	2.56
303.249	1.88
303.625	2.57
304	2.49
304.376	2.67
304.751	2.84
305.127	2.82
305.502	2.58
305.878	2.66
306.253	2.68
306.628	2.67
307.003	2.28
307.378	3.02
307.754	2.68
308.129	2.58
308.504	2.57
308.879	2.19
309.254	2.37
309.629	2.73
310.003	2.51
310.378	1.87
310.753	2.2
311.128	2.87
311.502	2.39
311.877	2.67
312.252	2.21
312.626	2.2
313.001	2.37
313.375	2.76
313.75	2.55
314.124	2.57
314.498	2.96
314.873	2.82
315.247	2.87
315.621	2.39
315.995	2.2
316.369	3.24
316.743	2.28
317.117	2.76
317.491	2.6
317.865	2.4
318.239	2.47
318.613	2.59
318.987	2.54
319.361	2.68
319.734	2.05
320.108	2.59
320.482	2.66
320.855	2.54
321.229	2.69
321.602	2.55
321.976	1.84
322.349	2.32
322.723	2.52
323.096	2.74
323.469	2.64
323.843	2.66
324.216	2.1
324.589	2.59
324.962	1.86
325.335	2.93
325.708	2.25
326.081	2.53
326.454	2.48
326.827	2.67
327.2	2.09
327.573	2.76
327.945	2.7
328.318	2.97
328.691	2.97
329.063	2.91
329.436	2.53
329.809	2.25
330.181	2.94
330.553	2.64
330.926	2.3
331.298	2.76
331.671	3.01
332.043	3.25
332.415	2.8
332.787	2.64
333.159	2.95
333.532	2.56
333.904	2.58
334.276	2.4
334.648	2.38
335.02	2.89
335.391	2.71
335.763	2.31
336.135	2.67
336.507	3.04
336.879	2.37
337.25	1.98
337.622	2.97
337.993	2.69
338.365	2.55
338.736	2.59
339.108	2.77
339.479	2.27
339.851	2.36
340.222	2.36
340.593	2.26
340.964	2.3
341.336	2.09
341.707	2.18
342.078	2.2
342.449	2.87
342.82	2.78
343.191	3
343.562	2.73
343.933	2.18
344.303	3.21
344.674	2.81
345.045	2.72
345.416	2.27
345.786	2.59
346.157	2.34
346.527	2.51
346.898	2.71
347.268	2.69
347.639	2.86
348.009	2.56
348.38	2.76
348.75	3.12
349.12	2.52
349.49	2.42
349.861	2.39
350.231	2.67
350.601	3.66
350.971	2.94
351.341	2.65
351.711	2.59
352.081	2.1
352.45	2.77
352.82	2.66
353.19	2.72
353.56	3.1
353.929	3.11
354.299	2.77
354.669	2.75
355.038	2.48
355.408	2.38
355.777	3.08
356.147	2.6
356.516	2.72
356.885	2.45
357.254	2.54
357.624	2.8
357.993	2.6
358.362	2.68
358.731	2.62
359.1	2.53
359.469	2.48
359.838	2.95
360.207	2.89
360.576	3.03
360.945	3.04
361.314	2.71
361.682	2.82
362.051	2.64
362.42	2.46
362.788	2.5
363.157	2.75
363.525	2.75
363.894	2.74
364.262	2.53
364.631	2.7
364.999	2.83
365.367	2.99
365.735	2.79
366.104	2.52
366.472	2.98
366.84	2.85
367.208	2.86
367.576	2.96
367.944	2.78
368.312	2.62
368.68	2.71
369.048	2.73
369.416	2.4
369.783	2.54
370.151	2.86
370.519	3.07
370.886	2.88
371.254	2.84
371.621	2.69
371.989	2.64
372.356	2.61
372.724	3.12
373.091	2.76
373.458	2.85
373.826	3.09
374.193	2.77
374.56	2.83
374.927	2.7
375.294	2.77
375.661	3.17
376.028	2.9
376.395	2.93
376.762	2.56
377.129	2.77
377.496	3.04
377.863	2.76
378.229	2.68
378.596	2.74
378.963	2.92
379.329	2.86
379.696	2.99
380.062	2.86
380.429	2.7
380.795	2.73
381.161	3.01
381.528	2.99
381.894	3.15
382.26	2.82
382.626	2.8
382.993	2.71
383.359	2.87
383.725	2.84
384.091	2.6
384.457	3.1
384.823	2.9
385.188	2.71
385.554	2.88
385.92	2.82
386.286	2.83
386.651	2.7
387.017	2.8
387.383	2.91
387.748	2.9
388.114	2.93
388.479	3.1
388.845	2.74
389.21	2.89
389.575	2.75
389.94	3.11
390.306	2.9
390.671	2.88
391.036	2.93
391.401	2.94
391.766	2.68
392.131	2.51
392.496	2.93
392.861	2.78
393.226	2.74
393.591	2.95
393.956	3.05
394.32	3.01
394.685	3.11
395.05	3.22
395.414	3.17
395.779	2.81
396.143	2.93
396.508	2.85
396.872	2.95
397.236	2.91
397.601	2.91
397.965	2.95
398.329	2.9
398.694	2.8
399.058	2.83
399.422	2.91
399.786	3.15
400.15	2.9
400.514	2.91
400.878	3.12
401.242	3.04
401.605	2.9
401.969	3.12
402.333	2.98
402.697	2.99
403.06	3.02
403.424	2.76
403.787	3.18
404.151	2.92
404.514	2.85
404.878	2.96
405.241	2.79
405.604	2.83
405.968	3.02
406.331	3
406.694	2.97
407.057	3.01
407.42	3.03
407.783	3.08
408.146	2.98
408.509	3.13
408.872	2.96
409.235	2.93
409.598	2.93
409.961	2.97
410.323	3.21
410.686	3.23
411.049	3.04
411.411	2.85
411.774	2.89
412.136	3.02
412.499	2.99
412.861	2.98
413.223	3
413.586	2.92
413.948	2.95
414.31	3.06
414.672	3.05
415.035	3.07
415.397	3.14
415.759	2.97
416.121	3.02
416.483	2.91
416.845	3.08
417.206	3.25
417.568	2.95
417.93	3.12
418.292	2.74
418.653	2.95
419.015	2.93
419.377	2.99
419.738	3.08
420.1	2.95
420.461	2.89
420.822	2.81
421.184	2.82
421.545	2.86
421.906	2.94
422.267	3.01
422.629	2.98
422.99	2.94
423.351	2.9
423.712	2.91
424.073	2.95
424.434	2.96
424.795	3.07
425.155	2.96
425.516	2.92
425.877	2.99
426.238	2.9
426.598	2.93
426.959	2.98
427.32	2.99
427.68	2.99
428.041	3.06
428.401	2.99
428.761	3.01
429.122	2.98
429.482	2.98
429.842	3.09
430.202	3.03
430.563	3.05
430.923	2.9
431.283	3.11
431.643	3.26
432.003	3.18
432.363	3.13
432.722	2.98
433.082	3.06
433.442	3.07
433.802	3.16
434.161	3.02
434.521	3.05
434.881	2.98
435.24	3.08
435.6	3.01
435.959	3.04
436.319	2.94
436.678	3.02
437.037	3.01
437.396	2.91
437.756	3.03
438.115	2.86
438.474	2.98
438.833	2.98
439.192	3.11
439.551	2.93
439.91	2.97
440.269	3
440.628	3.06
440.987	3.15
441.345	3.04
441.704	3.01
442.063	3.06
442.421	2.98
442.78	2.96
443.138	3.07
443.497	3
443.855	3.02
444.214	3.04
444.572	3.03
444.93	3.01
445.288	3.14
445.647	2.91
446.005	3.11
446.363	3.13
446.721	2.81
447.079	2.94
447.437	2.89
447.795	2.89
448.153	3.05
448.51	2.92
448.868	3.02
449.226	3.04
449.584	3.02
449.941	3.02
450.299	3.09
450.656	3.14
451.014	3.18
451.371	3.01
451.729	3.06
452.086	3.01
452.443	3.19
452.801	3.09
453.158	2.94
453.515	2.91
453.872	3.08
454.229	3.04
454.586	3.09
454.943	3
455.3	3.14
455.657	3.2
456.014	3.08
456.371	3.04
456.727	3.1
457.084	3.05
457.441	3
457.797	3.03
458.154	3.02
458.51	3.09
458.867	3.01
459.223	2.95
459.58	3.28
459.936	3.14
460.292	3.05
460.648	3.07
461.005	3.08
461.361	3.07
461.717	2.95
462.073	3.06
462.429	3.16
462.785	3.07
463.141	3.16
463.496	3.04
463.852	3.12
464.208	3.23
464.564	3.23
464.919	3.08
465.275	3.12
465.631	3.13
465.986	3
466.342	3.19
466.697	3.19
467.052	3.18
467.408	3.16
467.763	3.19
468.118	3.09
468.473	3.1
468.829	3.19
469.184	3.38
469.539	3.24
469.894	3.1
470.249	3
470.603	3.02
470.958	3.16
471.313	3.09
471.668	2.97
472.023	3.39
472.377	3.26
472.732	3.03
473.086	3.14
473.441	3.05
473.795	3.26
474.15	3.23
474.504	3.27
474.859	3.14
475.213	3.18
475.567	3.35
475.921	3.41
476.275	3.1
476.63	3.17
476.984	3.26
477.338	3.29
477.692	3.08
478.045	3.08
478.399	3.02
478.753	3.11
479.107	3.06
479.461	3.24
479.814	3.24
480.168	3.14
480.521	3.2
480.875	3.2
481.228	3.18
481.582	3.16
481.935	3.27
482.289	3.25
482.642	3.18
482.995	3.19
483.348	3.04
483.701	3.16
484.055	3.06
484.408	3.05
484.761	2.98
485.114	2.94
485.466	2.87
485.819	2.86
486.172	2.9
486.525	3
486.878	3.06
487.23	3.04
487.583	3.13
487.936	3.1
488.288	3.01
488.641	3
488.993	2.94
489.345	2.95
489.698	2.99
490.05	2.97
490.402	3.01
490.754	3.08
491.107	3.06
491.459	3.13
491.811	3.08
492.163	3.12
492.515	3.05
492.866	3.04
493.218	2.97
493.57	2.91
493.922	3.02
494.274	3.1
494.625	3.07
494.977	3.13
495.328	3.13
495.68	3.15
496.031	3.13
496.383	3.25
496.734	3.17
497.086	3.16
497.437	3.22
497.788	3.22
498.139	3.15
498.49	3.14
498.842	3.19
499.193	3.11
499.544	3.12
499.894	3.19
500.245	3.24
500.596	3.18
500.947	3.16
501.298	3.22
501.648	3.22
501.999	3.15
502.35	3.2
502.7	3.33
503.051	3.3
503.401	3.12
503.752	3.12
504.102	3.22
504.452	3.09
504.803	3.23
505.153	3.25
505.503	3.15
505.853	3.26
506.203	3.25
506.553	3.36
506.903	3.17
507.253	3.27
507.603	3.31
507.953	3.24
508.303	3.34
508.652	3.1
509.002	3.26
509.352	3.25
509.701	3.24
510.051	3.13
510.4	3.21
510.75	3.17
511.099	3.2
511.449	3.24
511.798	3.12
512.147	3.28
512.496	3.21
512.846	3.12
513.195	3.17
513.544	3.26
513.893	3.21
514.242	3.29
514.591	3.24
514.939	3.26
515.288	3.19
515.637	3.18
515.986	3.28
516.334	3.27
516.683	3.34
517.032	3.17
517.38	3.21
517.729	3.29
518.077	3.22
518.426	3.32
518.774	3.12
519.122	3.24
519.47	3.11
519.819	3.11
520.167	3.14
520.515	3.25
520.863	3.23
521.211	3.23
521.559	3.24
521.907	3.23
522.255	3.25
522.602	3.31
522.95	3.35
523.298	3.25
523.645	3.22
523.993	3.22
524.341	3.26
524.688	3.22
525.036	3.24
525.383	3.28
525.73	3.17
526.078	3.19
526.425	3.11
526.772	3.08
527.119	3.22
527.466	3.08
527.814	3.11
528.161	3.06
528.508	3.14
528.854	3.16
529.201	3.15
529.548	3.16
529.895	3.09
530.242	3.04
530.588	3
530.935	3.02
531.282	3.15
531.628	3.1
531.975	3.12
532.321	3.18
532.667	3.18
533.014	3.2
533.36	3.14
533.706	3.16
534.052	3.19
534.399	3.12
534.745	3.06
535.091	3.07
535.437	3.14
535.783	3.14
536.129	3.2
536.474	3.22
536.82	3.21
537.166	3.24
537.512	3.26
537.857	3.21
538.203	3.18
538.549	3.1
538.894	3.13
539.239	3.23
539.585	3.24
539.93	3.35
540.276	3.31
540.621	3.13
540.966	3.31
541.311	3.29
541.656	3.18
542.001	3.38
542.346	3.27
542.691	3.1
543.036	3.11
543.381	3.09
543.726	3.09
544.071	3.17
544.415	3.12
544.76	3.11
545.105	3.26
545.449	3.21
545.794	3.2
546.138	3.17
546.483	3.27
546.827	3.27
547.171	3.24
547.516	3.16
547.86	3.17
548.204	3.14
548.548	3.18
548.892	3.12
549.236	3.32
549.58	3.26
549.924	3.28
550.268	3.41
550.612	3.33
550.956	3.28
551.3	3.4
551.643	3.41
551.987	3.38
552.33	3.37
552.674	3.2
553.017	3.28
553.361	3.26
553.704	3.27
554.048	3.21
554.391	3.3
554.734	3.24
555.077	3.36
555.42	3.25
555.764	3.21
556.107	3.35
556.45	3.24
556.793	3.31
557.135	3.43
557.478	3.14
557.821	3.39
558.164	3.44
558.507	3.41
558.849	3.2
559.192	3.38
559.534	3.38
559.877	3.46
560.219	3.25
560.562	3.29
560.904	3.26
561.246	3.15
561.589	3.39
561.931	3.3
562.273	3.35
562.615	3.27
562.957	3.32
563.299	3.48
563.641	3.22
563.983	3.25
564.325	3.29
564.667	3.35
565.008	3.19
565.35	3.4
565.692	3.18
566.033	3.44
566.375	3.08
566.716	3.41
567.058	3.29
567.399	3.4
567.741	3.45
568.082	3.34
568.423	3.29
568.764	3.37
569.105	3.35
569.447	3.27
569.788	3.31
570.129	3.39
570.47	3.17
570.811	3.32
571.151	3.5
571.492	3.35
571.833	3.37
572.174	3.31
572.514	3.2
572.855	3.42
573.195	3.35
573.536	3.24
573.876	3.26
574.217	3.2
574.557	3.2
574.898	3.31
575.238	3.36
575.578	3.24
575.918	3.29
576.258	3.38
576.598	3.41
576.938	3.19
577.278	3.32
577.618	3.31
577.958	3.32
578.298	3.39
578.638	3.39
578.977	3.32
579.317	3.34
579.657	3.38
579.996	3.25
580.336	3.52
580.675	3.06
581.014	3.35
581.354	3.3
581.693	3.17
582.032	3.59
582.372	3.26
582.711	3.5
583.05	3.42
583.389	3.57
583.728	3.52
584.067	3.5
584.406	3.3
584.745	3.17
585.083	3.44
585.422	3.38
585.761	3.54
586.1	3.27
586.438	3.22
586.777	3.49
587.115	3.53
587.454	3.49
587.792	3.34
588.13	3.59
588.469	3.4
588.807	3.57
589.145	3.61
589.483	3.4
589.821	3.27
590.159	3.6
590.497	3.34
590.835	3.33
591.173	3.34
591.511	3.4
591.849	3.12
592.187	3.53
592.524	3.27
592.862	3.53
593.2	3.67
593.537	3.14
593.875	3.47
594.212	3.55
594.55	3.47
594.887	3.37
595.224	3.54
595.561	3.58
595.899	3.24
596.236	3.38
596.573	3.11
596.91	3.36
597.247	3.14
597.584	3.3
597.921	3.3
598.258	3.39
598.594	3.35
598.931	3.4
599.268	3.21
599.604	3.52
599.941	3.26
600.277	3.1
600.614	3.45
600.95	3.43
601.287	3.51
601.623	3.53
601.959	3.19
602.296	3.24
602.632	3.49
602.968	3.38
603.304	3.3
603.64	3.42
603.976	3.59
604.312	3.35
604.648	3.09
604.984	3.38
605.319	3.34
605.655	3.35
605.991	3.17
606.326	3.32
606.662	3.23
606.998	3.42
607.333	3.35
607.668	3.39
608.004	3.47
608.339	3.47
608.674	3.28
609.01	2.97
609.345	3.39
609.68	3.73
610.015	3.51
610.35	3.44
610.685	3.23
611.02	3.5
611.355	3.24
611.689	3.25
612.024	3.39
612.359	3.19
612.694	3.35
613.028	3.43
613.363	3.56
613.697	3.48
614.032	3.49
614.366	3.1
614.7	3.46
615.035	3.47
615.369	3.43
615.703	3.34
616.037	3.37
616.371	3.41
616.705	3.56
617.039	3.49
617.373	3.66
617.707	3.48
618.041	3.29
618.375	3.52
618.709	3.48
619.042	3.44
619.376	3.6
619.71	3.51
620.043	3.51
620.377	3.39
620.71	3.39
621.043	3.58
621.377	3.49
621.71	3.49
622.043	3.37
622.376	3.51
622.709	3.55
623.043	3.33
623.376	3.44
623.709	3.31
624.041	3.34
624.374	3.69
624.707	3.3
625.04	3.63
625.373	3.43
625.705	3.45
626.038	3.27
626.37	3.09
626.703	3.54
627.035	3.16
627.368	3.49
627.7	3.34
628.032	3.4
628.365	3.57
628.697	3.5
629.029	3.37
629.361	3.42
629.693	3.54
630.025	3.43
630.357	3.22
630.689	3.58
631.021	3.45
631.353	3.45
631.684	3.28
632.016	3.41
632.348	3.29
632.679	3.64
633.011	3.32
633.342	3.09
633.674	3.63
634.005	3.77
634.336	3.36
634.668	3.25
634.999	3.43
635.33	3.3
635.661	3.75
635.992	3.47
636.323	3.63
636.654	3.59
636.985	3.39
637.316	3.24
637.647	3.39
637.977	3.29
638.308	3.4
638.639	3.27
638.969	3.57
639.3	3.46
639.63	3.57
639.961	3.56
640.291	3.82
640.622	3.47
640.952	3.21
641.282	3.67
641.612	3.75
641.943	3.6
642.273	3.68
642.603	3.31
642.933	3.76
643.263	3.28
643.592	3.89
643.922	3.36
644.252	3.47
644.582	3.4
644.911	3.79
645.241	3.87
645.571	3.37
645.9	3.52
646.23	2.99
646.559	3.42
646.888	3.59
647.218	3.29
647.547	3.44
647.876	2.96
648.205	3.49
648.534	3.37
648.863	3.48
649.192	3.55
649.521	3.73
649.85	3.11
650.179	3.72
650.508	3.63
650.837	3.74
651.165	3.42
651.494	3.78
651.822	3.37
652.151	3.35
652.479	3.86
652.808	3.5
653.136	3.69
653.465	3.9
653.793	3.63
654.121	3.53
654.449	3.59
654.777	3.49
655.105	3.79
655.433	3.18
655.761	3.37
656.089	3.75
656.417	3.81
656.745	3.6
657.073	3.71
657.4	3.5
657.728	3.6
658.056	3.17
658.383	3.35
658.711	3.72
659.038	3.42
659.365	3.35
659.693	3.57
660.02	4.05
660.347	3.84
660.674	3.22
661.001	3.5
661.329	3.46
661.656	3.61
661.982	3.52
662.309	3.31
662.636	3.65
662.963	3.78
663.29	3.71
663.616	3.72
663.943	3.46
664.27	3.75
664.596	3.56
664.923	3.53
665.249	3.7
665.576	3.47
665.902	3.76
666.228	3.85
666.554	3.46
666.881	3.72
667.207	3.56
667.533	3.85
667.859	3.45
668.185	3.33
668.511	3.4
668.837	3.41
669.162	3.79
669.488	3.32
669.814	3.66
670.139	3.75
670.465	3.14
670.791	3.11
671.116	3.1
671.442	3.35
671.767	3.54
672.092	3.47
672.418	3.56
672.743	3.98
673.068	3.46
673.393	3.02
673.718	3
674.043	4.18
674.368	3.05
674.693	3.51
675.018	3.62
675.343	3.34
675.667	3.9
675.992	3.53
676.317	3.96
676.641	3.86
676.966	3.56
677.29	3.82
677.615	4.08
677.939	4.12
678.264	4.22
678.588	4.48
678.912	3.72
679.236	3.79
679.56	3.66
679.885	3.95
680.209	3.43
680.532	3.56
680.856	4.1
681.18	3.73
681.504	3.38
681.828	2.91
682.152	4.36
682.475	4
682.799	3.39
683.122	3.72
683.446	3.53
683.769	3.77
684.093	3.15
684.416	3.64
684.739	3.77
685.062	3.56
685.386	3.74
685.709	3.77
686.032	3.68
686.355	3.27
686.678	3.39
687.001	4.17
687.324	4.04
687.646	3.57
687.969	3.5
688.292	3.94
688.614	3.55
688.937	3.65
689.26	3.65
689.582	4.19
689.904	3.91
690.227	4.29
690.549	3.86
690.871	3.65
691.194	3.97
691.516	3.99
691.838	3.13
692.16	3.99
692.482	3.85
692.804	3.8
693.126	3.33
693.448	3.96
693.769	4.1
694.091	3.66
694.413	3.53
694.735	3.39
695.056	3.52
695.378	3.2
695.699	3.42
696.021	3.65
696.342	3.97
696.663	4.01
696.984	3.76
697.306	3.79
697.627	3.31
697.948	4.01
698.269	4.01
698.59	3.72
698.911	3.91
699.232	3.93
699.553	3.46
699.873	3.82
700.194	3.54
700.515	3.23
700.835	3.55
701.156	3.76
701.477	3.74
701.797	4.06
702.117	4.17
702.438	3.62
702.758	4.13
703.078	3.65
703.398	3.12
703.719	3.75
704.039	3.57
704.359	4.29
704.679	3.1
704.999	3.62
705.319	4.04
705.638	3.86
705.958	3.33
706.278	4.21
706.597	4.16
706.917	2.41
707.237	3.68
707.556	3.42
707.876	4.26
708.195	3.69
708.514	4.25
708.834	3.72
709.153	3.98
709.472	3.83
709.791	4.69
710.11	3.66
710.429	3.46
710.748	3.71
711.067	3.16
711.386	4.34
711.705	3.93
712.023	3.49
712.342	4.21
712.661	3.06
712.979	3.67
713.298	3.39
713.616	4.34
713.935	4.74
714.253	4.15
714.572	3.11
714.89	4.01
715.208	3.92
715.526	3.65
715.844	3.52
716.162	4.46
716.48	3.67
716.798	3.07
717.116	4.57
717.434	3.71
717.752	3.92
718.069	4.26
718.387	4.46
718.705	3.02
719.022	4.25
719.34	4.24
719.657	3.69
719.975	3.4
720.292	4.19
720.609	4.18
720.927	4.86
721.244	4.79
721.561	5.07
721.878	3.81
722.195	4
722.512	4.33
722.829	5.01
723.146	4.22
723.463	5.08
723.779	5
724.096	2.76
724.413	3.49
724.729	3.38
725.046	4.39
725.362	4.14
725.679	3.44
725.995	4.87
726.311	4.33
726.628	3.94
726.944	3.7
727.26	4.92
727.576	4.17
727.892	2.86
728.208	5.04
728.524	5.08
728.84	3.48
729.156	4.63
729.472	3.33
729.787	4.27
730.103	3.36
730.419	3.28
730.734	2.76
731.05	3.81
731.365	3.06
731.681	3.18
731.996	2.59
732.311	3.67
732.626	3.4
732.942	3.79
733.257	3.61
733.572	6.18
733.887	3.53
734.202	3.77
734.517	3.85
734.832	4.42
735.146	3.57
735.461	2.18
735.776	3.64
736.091	4.34
736.405	4.45
736.72	3.23
737.034	3.77
737.349	4.54
737.663	3.33
737.977	5.6
738.292	2.39
738.606	3.65
738.92	3.28
739.234	3.87
739.548	3.92
739.862	3.25
740.176	4.82
740.49	4.54
740.804	3.21
741.117	3.77
741.431	5.19
741.745	3.45
742.058	6.03
742.372	5.01
742.685	5.12
742.999	5.31
743.312	5.3
743.626	3.6
743.939	3.42
744.252	1.9
744.565	4.33
744.878	4.1
745.191	3.55
745.505	3.69
745.817	4.29
746.13	4.22
746.443	4.22
746.756	4.31
747.069	4.43
747.381	3.75
747.694	5.26
748.007	2.77
748.319	6.6
748.632	5.31
748.944	3.77
749.256	3.58
749.569	6.15
749.881	4.41
750.193	5.06
750.505	1.31
750.817	4.92
751.129	4.37
751.441	5.51
751.753	4.52
752.065	5.41
752.377	4.83
752.689	4.68
753	4.45
753.312	4.6
753.624	3.81
753.935	5.26
754.247	2.91
754.558	2.53
754.869	2.66
755.181	4.26
755.492	3.07
755.803	4.06
756.114	4.19
756.425	5.49
756.736	3.43
757.047	3.38
757.358	5.46
757.669	5.16
757.98	3.49
758.291	3.44
758.601	5.56
758.912	4.43
759.223	3.7
759.533	4.29
759.844	5.17
760.154	3.58
760.464	3.76
760.775	4.27
761.085	2.26
761.395	4.28
761.705	4.32
762.016	4.03
762.326	5.13
762.636	4.11
762.945	5.4
763.255	4.27
763.565	4.86
763.875	5.8
764.185	5.22
764.494	2.77
764.804	4.55
765.113	4.07
765.423	5.74
765.732	4.11
766.042	3.66
766.351	4.19
766.66	4.17
766.97	4.04
767.279	5.26
767.588	5.62
767.897	5.63
768.206	5.46
768.515	4.43
768.824	3.17
769.133	4.16
769.441	3.75
769.75	2.78
770.059	3.85
770.367	5.3
770.676	2.65
770.984	5.41
771.293	4.39
771.601	4.49
771.91	5.3
772.218	6.44
772.526	3.78
772.834	0.08
773.142	1.78
773.45	5
773.758	4.91
774.066	2.24
774.374	1.26
774.682	6.73
774.99	3.57
775.298	7.01
775.605	2.67
775.913	3.81
776.22	3.01
776.528	8.32
776.835	5.53
777.143	3.12
777.45	3.18
777.757	3.94
778.065	4.04
778.372	7.54
778.679	1.83
778.986	3.48
779.293	3.88
779.6	3.83
779.907	6.17
780.214	4.32
780.52	8.05
780.827	2.92
781.134	2.43
781.44	2.97
781.747	6.28
782.053	5.56
782.36	5.67
782.666	5.77
782.973	2.29
783.279	2.97
783.585	3.63
783.891	5.2
784.197	0.39
784.503	3.01
784.809	4.89
785.115	4.11
785.421	5.22
785.727	3.27
786.033	3.19
786.339	1.62
786.644	4.12
786.95	5.21
787.255	2.67
787.561	7.51
787.866	2.17
788.172	3.08
788.477	4.56
788.782	4.69
789.088	2.58
789.393	6.99
789.698	6.42
790.003	6.93
790.308	4.07
790.613	4.02
790.918	2.5
791.223	5.32
791.527	2.44
791.832	4.91
792.137	7.2
792.441	6.9
792.746	3.65
793.05	4.71
793.355	6.86
793.659	5.36
793.963	6.43
794.268	2.4
794.572	2.36
794.876	5.12
795.18	6.47
795.484	5.96
795.788	4.82
796.092	7.22
796.396	4.35
796.7	4.36
797.004	2.29
797.307	4.58
797.611	4.64
797.915	5.42
798.218	7.14
798.522	2.73
798.825	2.32
799.128	9.34
799.432	4.38
799.735	5.71
800.038	5.56
800.341	9.08
800.644	3.87
800.947	2.33
801.25	3.12
801.553	4.84
801.856	5.96
802.159	5.58
802.462	9.12
802.764	8.01
803.067	6.41
803.37	0.5
803.672	2
803.975	9.8
804.277	-0.26
804.579	3.16
804.882	7.19
805.184	5.89
805.486	4.57
805.788	5.37
806.09	6.75
806.392	6.03
806.694	6.19
806.996	4.52
807.298	8.09
807.6	1.66
807.902	6.56
808.203	3.64
808.505	2.15
808.807	0.58
809.108	-0.18
809.409	6.37
809.711	3.55
810.012	4.98
810.313	5.64
810.615	3.67
810.916	4.04
811.217	0.31
811.518	1.02
811.819	7.41
812.12	5.8
812.421	6.88
812.722	2.47
813.023	0.27
813.323	7.18
813.624	2.46
813.925	7.99
814.225	6.76
814.526	4.89
814.826	6.33
815.126	-1.44
815.427	8.98
815.727	1.93
816.027	1.37
816.327	7.39
816.627	0.17
816.927	0.78
817.227	4.69
817.527	0.19
817.827	-3.42
818.127	8.88
818.427	5.9
818.727	4.37
819.026	-0.13
819.326	2.01
819.625	6.28
819.925	5.77
820.224	8.14
820.524	0.63
820.823	4.94
821.122	0.95
821.421	2.96
821.72	2.34
822.019	-0.63
822.318	6.86
822.617	-0.3
822.916	1.35
823.215	6.07
823.514	4.08
823.813	3.65
824.111	3.16
824.41	5.24
824.709	4.36
825.007	4.34
825.306	4.41
825.604	5.25
825.902	5.82
826.201	6.13
826.499	6.95
826.797	6.67
827.095	5.84
827.393	5.77
827.691	6.26
827.989	4.92
828.287	4.16
828.585	6.21
828.882	6.14
829.18	5.95
829.478	5.34
829.775	7.32
830.073	5.31
830.37	6.05
830.668	3.15
830.965	5.85
831.263	6.01
831.56	4.86
831.857	2.8
832.154	5.2
832.451	6.62
832.748	4.84
833.045	4.07
833.342	6.92
833.639	2.81
833.936	7.27
834.232	6.12
834.529	11.69
834.826	2.91
835.122	7.01
835.419	4.63
835.715	4.3
836.012	6.08
836.308	8.79
836.604	4.44
836.901	6.53
837.197	5.96
837.493	4.7
837.789	2.72
838.085	6.33
838.381	4
838.677	7.61
838.972	5.03
839.268	6.84
839.564	5.47
839.86	6.3
840.155	0.03
840.451	7.19
840.746	2.46
841.042	8.52
841.337	3.23
841.632	4.57
841.928	1.69
842.223	6.48
842.518	-0.52
842.813	2.61
843.108	11.8
843.403	6.05
843.698	0.63
843.993	-1.12
844.287	8.65
844.582	7.72
844.877	2.92
845.171	8.87
845.466	20.02
845.761	-3.13
846.055	-1.7
846.349	-4.05
846.644	15.02
846.938	-13.14
847.232	-2.28
847.526	10.06
847.82	3.88
848.114	20.99
848.408	7.9
848.702	2.94
848.996	5.76
849.29	-17.25
849.584	6.38
849.877	15.93
850.171	-0.27
850.465	7.64
850.758	-21.65
851.052	-5.45
851.345	0.51
851.638	-0.11
851.932	5.18
852.225	-6.56
852.518	20.63
852.811	2
853.104	-1.08
853.397	-7.37
853.69	-6.46
853.983	-11.53
854.276	-12.57
854.569	-5.1
854.861	26.37
855.154	11.84
855.447	25.86
855.739	26.18
856.032	3.15
856.324	-4.37
856.616	20.26
856.909	0.28
857.201	-0.42
857.493	1.05
857.785	-4.8
858.077	-4.31
858.369	3.51
858.661	11.03
858.953	14.27
859.245	3.64
859.537	-5.79
859.829	7.93
860.12	-2.3
860.412	2.71
860.703	14.74
860.995	16.93
861.286	-37.28
861.578	10.73
861.869	-3.29
862.16	-73.6
862.452	1.18
862.743	-2.76
863.034	24.39
863.325	12.07
863.616	12.43
863.907	5.85
864.198	21.24
864.488	-16.93
864.779	3.25
865.07	2.53
865.36	-13.01
865.651	12.18
865.941	29.77
866.232	-9.2
866.522	6.44
866.813	-3.95
867.103	-1.57
867.393	7.33
867.683	-14.25
867.973	4.49
868.263	-1.1
868.553	-17
868.843	-17.14
869.133	3.86
869.423	-0.74
869.713	-4.6
870.002	18.3
870.292	-1.81
870.582	18.09
870.871	-19.59
871.161	5.44
871.45	-10.87
871.739	-3.66
872.029	-9.5
872.318	12.17
872.607	-49.04
872.896	-17.88
873.185	9.9
873.474	-6.96
873.763	5.04
874.052	3.65
874.341	5.75
874.63	6.65
874.918	-9.65
875.207	18.23
875.496	34.57
875.784	-8.35
876.073	-19.41
876.361	-37.89
876.649	-5.49
876.938	-5.67
877.226	14.82
877.514	13.03
877.802	12.32
878.09	25.59
878.378	0.48
878.666	-26.78
878.954	25.05
879.242	-28.92
879.53	27.79
879.817	14.28
880.105	-20.9
880.392	-15.74
880.68	14.74
880.967	-29.17
881.255	22.63
881.542	3.82
881.83	5.97
882.117	-13.63
882.404	3.74
882.691	10.46
882.978	13.96
883.265	-0.1
883.552	-0.51
883.839	-3.12
884.126	9
884.413	2.33
884.699	7.96
884.986	-0.65
885.273	5.83
885.559	5.83
885.846	5.83
