Data from 16HH-1_crown_Reflection__1__86.txt Node

Date: Fri Nov 11 16:49:43 CST 2022
User: ToomeyLab
Spectrometer: FLMS14357
Trigger mode: 0
Integration Time (sec): 1.000000E-2
Scans to average: 100
Electric dark correction enabled: true
Nonlinearity correction enabled: false
Boxcar width: 0
XAxis mode: Wavelengths
Number of Pixels in Spectrum: 2048
>>>>>Begin Spectral Data<<<<<
189.047	168.92
189.435	168.92
189.823	168.92
190.211	80.87
190.599	156.92
190.987	1170.15
191.375	83.89
191.763	-330.03
192.151	50.24
192.538	-16.35
192.926	12.92
193.314	119.01
193.702	13.01
194.089	79.75
194.477	296.71
194.864	17.94
195.252	-359.73
195.639	62.07
196.027	221.07
196.414	33.69
196.801	98.92
197.189	105.22
197.576	49.22
197.963	34.81
198.351	38.17
198.738	-95.69
199.125	37.71
199.512	56.43
199.899	-2.79
200.286	48.44
200.673	24.83
201.06	-271.33
201.447	42.24
201.833	13.89
202.22	-6.64
202.607	33.04
202.994	8.15
203.38	74.17
203.767	46.97
204.154	-57.64
204.54	39.33
204.927	14.51
205.313	35.17
205.699	69.93
206.086	24.38
206.472	19.64
206.858	27.37
207.245	-17.9
207.631	26.43
208.017	-11.85
208.403	28.76
208.789	-132.14
209.175	10.01
209.561	40.98
209.947	45.79
210.333	58.87
210.719	39.24
211.105	9.25
211.491	-37.15
211.876	7.73
212.262	20.88
212.648	-17.66
213.034	-7.1
213.419	9.71
213.805	-6.98
214.19	-34.73
214.576	1.66
214.961	-16.28
215.346	-42.6
215.732	20.23
216.117	14.14
216.502	27.72
216.888	36.42
217.273	9.32
217.658	-9.03
218.043	-36.47
218.428	-8.61
218.813	26.12
219.198	-37.35
219.583	-6.6
219.968	26.49
220.353	-6.36
220.738	-27.43
221.122	-18.7
221.507	5.11
221.892	-1.84
222.276	-7
222.661	6.03
223.046	-2.72
223.43	4.93
223.815	10
224.199	10.43
224.583	4.71
224.968	10.39
225.352	-1.09
225.736	2.72
226.121	5.03
226.505	11.84
226.889	8.04
227.273	1.25
227.657	2.02
228.041	-1.43
228.425	4.33
228.809	7.14
229.193	0.76
229.577	4.38
229.961	5.01
230.344	4.07
230.728	3.44
231.112	4.08
231.495	4.15
231.879	3.03
232.263	2.56
232.646	3.4
233.03	2.87
233.413	2.58
233.797	1.22
234.18	2.53
234.563	3.25
234.946	1.48
235.33	3.09
235.713	4.5
236.096	2.17
236.479	4.29
236.862	3.9
237.245	5.19
237.628	4.42
238.011	3.95
238.394	4.23
238.777	3.23
239.16	2.69
239.543	4.27
239.925	4.72
240.308	2.73
240.691	2.64
241.073	3.32
241.456	3.59
241.838	4.23
242.221	2.68
242.603	3.08
242.986	3.58
243.368	2.94
243.75	3.21
244.133	3.11
244.515	3.16
244.897	2.98
245.279	3.6
245.661	4.63
246.043	4.15
246.425	4.88
246.807	3
247.189	2.61
247.571	2.03
247.953	3.35
248.335	3.32
248.717	3.18
249.098	3.13
249.48	3.35
249.862	3.23
250.243	3.1
250.625	3.47
251.006	3.8
251.388	3.97
251.769	3.37
252.151	2.85
252.532	3.5
252.913	2.27
253.295	3.13
253.676	3.11
254.057	3.09
254.438	3.41
254.819	3.69
255.2	3.87
255.581	3.51
255.962	2.81
256.343	4.36
256.724	2.48
257.105	3.48
257.486	4.1
257.867	3.46
258.247	3.73
258.628	3.43
259.009	2.83
259.389	3.6
259.77	3.58
260.15	3.62
260.531	3
260.911	2.94
261.292	3.23
261.672	3.05
262.052	3.13
262.432	3.38
262.813	3.24
263.193	3.06
263.573	3.68
263.953	2.95
264.333	3.06
264.713	3.04
265.093	3.14
265.473	3.81
265.853	2.42
266.233	3.39
266.612	3.13
266.992	3.36
267.372	2.95
267.752	3.38
268.131	3.18
268.511	3.42
268.89	3.17
269.27	2.76
269.649	2.58
270.029	2.54
270.408	2.82
270.787	3.63
271.167	2.82
271.546	3.26
271.925	3.21
272.304	3.12
272.683	3.02
273.062	2.89
273.441	2.95
273.82	2.58
274.199	2.76
274.578	3.7
274.957	2.67
275.336	2.87
275.715	3.66
276.093	3.84
276.472	2.98
276.851	3.58
277.229	2.56
277.608	2.66
277.986	3.2
278.365	3.17
278.743	2.91
279.122	2.71
279.5	2.84
279.878	2.83
280.257	3.05
280.635	2.54
281.013	2.49
281.391	3.04
281.769	3.59
282.147	2.87
282.525	2.74
282.903	3.08
283.281	2.64
283.659	2.75
284.037	3.05
284.415	2.84
284.792	2.88
285.17	2.53
285.548	2.94
285.925	3.01
286.303	3.24
286.68	2.76
287.058	3.23
287.435	2.95
287.813	2.64
288.19	2.76
288.567	2.81
288.945	2.24
289.322	2.56
289.699	2.94
290.076	2.59
290.453	3
290.83	3.09
291.207	3.06
291.584	2.54
291.961	2.53
292.338	3.06
292.715	2.95
293.092	2.68
293.469	3.41
293.845	2.82
294.222	3.18
294.599	2.91
294.975	2.78
295.352	2.73
295.728	3.04
296.105	2.74
296.481	2.49
296.858	3.02
297.234	2.67
297.61	2.49
297.986	2.37
298.363	2.91
298.739	2.86
299.115	2.6
299.491	2.78
299.867	2.47
300.243	2.44
300.619	2.79
300.995	2.88
301.371	2.26
301.746	2.81
302.122	2.66
302.498	2.43
302.874	2.9
303.249	3.03
303.625	2.44
304	2.67
304.376	2.65
304.751	3.28
305.127	2.83
305.502	2.59
305.878	3.23
306.253	2.74
306.628	3.07
307.003	2.53
307.378	3.39
307.754	2.88
308.129	3.15
308.504	2.73
308.879	2.59
309.254	2.68
309.629	2.85
310.003	2.95
310.378	2.28
310.753	2.45
311.128	2.65
311.502	2.39
311.877	2.81
312.252	2.44
312.626	2.51
313.001	2.47
313.375	2.54
313.75	2.86
314.124	2.49
314.498	2.91
314.873	2.74
315.247	2.7
315.621	2.55
315.995	2.39
316.369	2.88
316.743	2.72
317.117	2.43
317.491	2.44
317.865	2.98
318.239	2.76
318.613	2.86
318.987	2.95
319.361	2.54
319.734	2.2
320.108	2.93
320.482	2.31
320.855	2.35
321.229	2.88
321.602	2.4
321.976	2.33
322.349	2.32
322.723	2.77
323.096	2.66
323.469	2.37
323.843	2.92
324.216	2.23
324.589	2.86
324.962	2.44
325.335	2.56
325.708	2.67
326.081	2.42
326.454	2.69
326.827	2.44
327.2	2.18
327.573	2.73
327.945	2.47
328.318	2.9
328.691	3.14
329.063	2.97
329.436	2.62
329.809	2.42
330.181	2.74
330.553	2.42
330.926	2.64
331.298	2.62
331.671	2.97
332.043	2.6
332.415	2.68
332.787	2.78
333.159	2.53
333.532	2.68
333.904	2.95
334.276	2.82
334.648	2.48
335.02	2.99
335.391	2.72
335.763	2.86
336.135	2.86
336.507	2.59
336.879	2.73
337.25	2.28
337.622	2.99
337.993	2.6
338.365	2.66
338.736	2.41
339.108	2.59
339.479	2.79
339.851	2.21
340.222	2.5
340.593	2.13
340.964	2.81
341.336	2.83
341.707	2.83
342.078	2.35
342.449	2.89
342.82	2.69
343.191	2.93
343.562	2.91
343.933	2.31
344.303	3.15
344.674	3
345.045	2.8
345.416	2.4
345.786	2.58
346.157	2.62
346.527	2.46
346.898	2.57
347.268	2.63
347.639	2.93
348.009	2.72
348.38	2.59
348.75	2.9
349.12	2.69
349.49	2.67
349.861	2.55
350.231	3
350.601	3.54
350.971	2.65
351.341	2.59
351.711	2.59
352.081	2.17
352.45	2.69
352.82	2.81
353.19	2.49
353.56	3.26
353.929	2.82
354.299	2.7
354.669	2.35
355.038	2.87
355.408	2.22
355.777	2.68
356.147	2.54
356.516	2.77
356.885	2.56
357.254	2.62
357.624	2.77
357.993	2.69
358.362	2.79
358.731	2.66
359.1	2.63
359.469	2.6
359.838	2.83
360.207	2.84
360.576	2.82
360.945	3.11
361.314	2.72
361.682	2.72
362.051	2.62
362.42	2.48
362.788	2.61
363.157	2.68
363.525	2.78
363.894	2.9
364.262	2.59
364.631	2.73
364.999	2.37
365.367	2.86
365.735	2.85
366.104	2.49
366.472	2.84
366.84	2.6
367.208	2.6
367.576	2.78
367.944	3.16
368.312	3.07
368.68	2.79
369.048	2.73
369.416	2.55
369.783	2.82
370.151	2.97
370.519	3.17
370.886	2.99
371.254	2.92
371.621	2.6
371.989	2.31
372.356	2.63
372.724	2.96
373.091	2.67
373.458	2.72
373.826	3.16
374.193	2.78
374.56	2.69
374.927	2.63
375.294	3.03
375.661	3.33
376.028	2.8
376.395	2.72
376.762	2.66
377.129	2.78
377.496	2.8
377.863	2.86
378.229	2.87
378.596	2.75
378.963	2.77
379.329	2.75
379.696	2.84
380.062	2.71
380.429	2.94
380.795	2.79
381.161	3.09
381.528	2.86
381.894	2.86
382.26	2.95
382.626	2.71
382.993	2.92
383.359	2.72
383.725	2.81
384.091	2.61
384.457	2.94
384.823	2.92
385.188	2.91
385.554	2.94
385.92	2.87
386.286	2.64
386.651	2.88
387.017	2.82
387.383	3.15
387.748	2.81
388.114	2.78
388.479	2.83
388.845	3.06
389.21	3.1
389.575	2.84
389.94	3.1
390.306	2.71
390.671	2.77
391.036	2.88
391.401	2.82
391.766	3.1
392.131	2.68
392.496	3.05
392.861	2.76
393.226	2.91
393.591	2.88
393.956	3.07
394.32	3
394.685	3.14
395.05	3.06
395.414	3.06
395.779	2.96
396.143	2.94
396.508	2.8
396.872	3.01
397.236	3.09
397.601	2.97
397.965	2.8
398.329	2.86
398.694	2.74
399.058	2.99
399.422	3
399.786	3.02
400.15	2.85
400.514	2.88
400.878	2.95
401.242	3.07
401.605	3.06
401.969	3.08
402.333	2.84
402.697	2.95
403.06	2.93
403.424	2.56
403.787	3.03
404.151	2.85
404.514	2.97
404.878	3.01
405.241	3
405.604	2.74
405.968	3.18
406.331	2.97
406.694	3.03
407.057	2.99
407.42	3.19
407.783	2.82
408.146	3.2
408.509	3.06
408.872	3.27
409.235	3.21
409.598	3
409.961	2.95
410.323	3.16
410.686	3.34
411.049	2.99
411.411	2.94
411.774	2.98
412.136	2.87
412.499	3.02
412.861	2.96
413.223	2.9
413.586	2.94
413.948	2.96
414.31	2.78
414.672	3.08
415.035	2.94
415.397	3.1
415.759	3.16
416.121	3.01
416.483	3.07
416.845	2.88
417.206	3.24
417.568	3.09
417.93	2.97
418.292	2.83
418.653	2.93
419.015	2.97
419.377	2.93
419.738	3.19
420.1	2.94
420.461	2.94
420.822	2.87
421.184	2.86
421.545	2.95
421.906	2.89
422.267	3.02
422.629	2.91
422.99	2.92
423.351	2.92
423.712	2.91
424.073	2.98
424.434	2.92
424.795	3.03
425.155	2.92
425.516	2.95
425.877	3.01
426.238	2.91
426.598	2.89
426.959	3.01
427.32	2.98
427.68	3.01
428.041	3.07
428.401	3
428.761	2.92
429.122	3.14
429.482	3.15
429.842	3.14
430.202	3.07
430.563	3.06
430.923	3.09
431.283	3.17
431.643	3.03
432.003	3.29
432.363	3
432.722	2.96
433.082	3.13
433.442	3.14
433.802	3.09
434.161	3.26
434.521	3.03
434.881	3.05
435.24	3.17
435.6	3.01
435.959	3.03
436.319	3.03
436.678	3.03
437.037	3.07
437.396	2.98
437.756	3.02
438.115	2.93
438.474	3.1
438.833	3.05
439.192	3.09
439.551	3.07
439.91	2.97
440.269	3.09
440.628	3.06
440.987	3.12
441.345	3.11
441.704	3
442.063	3.21
442.421	3.07
442.78	3.01
443.138	3.03
443.497	3.03
443.855	3.05
444.214	3.05
444.572	3.23
444.93	3.11
445.288	3.21
445.647	2.93
446.005	3.07
446.363	2.96
446.721	2.95
447.079	3
447.437	3.02
447.795	2.85
448.153	2.97
448.51	3.05
448.868	3.06
449.226	3.03
449.584	3.11
449.941	2.98
450.299	3.1
450.656	3.18
451.014	3.04
451.371	3.03
451.729	3.05
452.086	3.09
452.443	3.19
452.801	3.05
453.158	3.03
453.515	3.16
453.872	3.21
454.229	3.06
454.586	3.12
454.943	3.09
455.3	2.98
455.657	3.12
456.014	3.06
456.371	3.07
456.727	3.18
457.084	3.22
457.441	3.19
457.797	3.13
458.154	3.28
458.51	3.07
458.867	3.08
459.223	3.11
459.58	3.1
459.936	3.09
460.292	2.97
460.648	3.06
461.005	3.02
461.361	3.02
461.717	2.98
462.073	3.14
462.429	3.25
462.785	3
463.141	3.17
463.496	3.19
463.852	3.08
464.208	3.1
464.564	3.25
464.919	3.12
465.275	3.08
465.631	3.22
465.986	3.12
466.342	3.3
466.697	3.14
467.052	3.22
467.408	3.29
467.763	3.15
468.118	3.19
468.473	3.06
468.829	3.27
469.184	3.27
469.539	3.39
469.894	3.1
470.249	3.06
470.603	3.05
470.958	3.18
471.313	3.13
471.668	3.14
472.023	3.38
472.377	3.25
472.732	3.3
473.086	3.09
473.441	3.14
473.795	3.17
474.15	3.37
474.504	3.26
474.859	3.22
475.213	3.23
475.567	3.31
475.921	3.31
476.275	3.35
476.63	3.2
476.984	3.28
477.338	3.03
477.692	3.16
478.045	3.23
478.399	3.11
478.753	3.12
479.107	3.16
479.461	3.18
479.814	3.26
480.168	3.11
480.521	3.17
480.875	3.22
481.228	3.14
481.582	3.25
481.935	3.16
482.289	3.31
482.642	3.08
482.995	3.16
483.348	3.11
483.701	3.22
484.055	3.17
484.408	3.15
484.761	2.97
485.114	2.9
485.466	2.83
485.819	2.89
486.172	2.97
486.525	3.09
486.878	3.16
487.23	3.14
487.583	3.12
487.936	3.13
488.288	3.03
488.641	3.08
488.993	2.96
489.345	2.93
489.698	3.02
490.05	2.99
490.402	3.08
490.754	3.15
491.107	3.17
491.459	3.17
491.811	3.19
492.163	3.1
492.515	3.08
492.866	3
493.218	2.92
493.57	2.98
493.922	3.06
494.274	3.12
494.625	3.13
494.977	3.2
495.328	3.22
495.68	3.21
496.031	3.18
496.383	3.29
496.734	3.26
497.086	3.28
497.437	3.24
497.788	3.23
498.139	3.09
498.49	3.06
498.842	3.24
499.193	3.2
499.544	3.26
499.894	3.19
500.245	3.14
500.596	3.3
500.947	3.21
501.298	3.32
501.648	3.34
501.999	3.27
502.35	3.16
502.7	3.26
503.051	3.18
503.401	3.3
503.752	3.09
504.102	3.17
504.452	3.31
504.803	3.18
505.153	3.25
505.503	3.16
505.853	3.27
506.203	3.26
506.553	3.37
506.903	3.21
507.253	3.29
507.603	3.36
507.953	3.21
508.303	3.29
508.652	3.09
509.002	3.15
509.352	3.38
509.701	3.23
510.051	3.23
510.4	3.09
510.75	3.18
511.099	3.19
511.449	3.19
511.798	3.12
512.147	3.34
512.496	3.28
512.846	3.11
513.195	3.15
513.544	3.28
513.893	3.25
514.242	3.27
514.591	3.2
514.939	3.27
515.288	3.25
515.637	3.25
515.986	3.32
516.334	3.23
516.683	3.33
517.032	3.23
517.38	3.22
517.729	3.29
518.077	3.15
518.426	3.28
518.774	3.21
519.122	3.21
519.47	3.09
519.819	3.18
520.167	3.13
520.515	3.14
520.863	3.18
521.211	3.19
521.559	3.21
521.907	3.31
522.255	3.28
522.602	3.27
522.95	3.39
523.298	3.22
523.645	3.25
523.993	3.36
524.341	3.26
524.688	3.27
525.036	3.3
525.383	3.19
525.73	3.19
526.078	3.31
526.425	3.1
526.772	3.09
527.119	3.19
527.466	3.05
527.814	3.1
528.161	3.15
528.508	3.16
528.854	3.19
529.201	3.19
529.548	3.17
529.895	3.03
530.242	2.93
530.588	2.97
530.935	3.02
531.282	3.16
531.628	3.18
531.975	3.21
532.321	3.16
532.667	3.16
533.014	3.18
533.36	3.12
533.706	3.2
534.052	3.18
534.399	3.05
534.745	3.05
535.091	2.99
535.437	3.05
535.783	3.13
536.129	3.2
536.474	3.31
536.82	3.22
537.166	3.24
537.512	3.27
537.857	3.25
538.203	3.2
538.549	3.12
538.894	3.19
539.239	3.25
539.585	3.22
539.93	3.33
540.276	3.27
540.621	3.33
540.966	3.23
541.311	3.23
541.656	3.15
542.001	3.23
542.346	3.1
542.691	3.04
543.036	3.01
543.381	2.99
543.726	3.08
544.071	3.11
544.415	3.16
544.76	3.14
545.105	3.23
545.449	3.17
545.794	3.18
546.138	3.23
546.483	3.29
546.827	3.28
547.171	3.21
547.516	3.16
547.86	3.09
548.204	3.08
548.548	3.11
548.892	3.07
549.236	3.22
549.58	3.24
549.924	3.22
550.268	3.33
550.612	3.36
550.956	3.39
551.3	3.38
551.643	3.34
551.987	3.22
552.33	3.22
552.674	3.23
553.017	3.11
553.361	3.27
553.704	3.36
554.048	3.13
554.391	3.2
554.734	3.28
555.077	3.36
555.42	3.31
555.764	3.29
556.107	3.24
556.45	3.18
556.793	3.37
557.135	3.19
557.478	3.11
557.821	3.36
558.164	3.22
558.507	3.21
558.849	3.08
559.192	3.33
559.534	3.29
559.877	3.39
560.219	3.35
560.562	3.29
560.904	3.32
561.246	3.17
561.589	3.27
561.931	3.28
562.273	3.34
562.615	3.29
562.957	3.12
563.299	3.37
563.641	3.21
563.983	3.19
564.325	3.14
564.667	3.19
565.008	3.25
565.35	3.47
565.692	3.26
566.033	3.26
566.375	3.35
566.716	3.29
567.058	3.21
567.399	3.24
567.741	3.26
568.082	3.16
568.423	3.33
568.764	3.15
569.105	3.25
569.447	3.21
569.788	3.29
570.129	3.35
570.47	3.28
570.811	3.32
571.151	3.26
571.492	3.19
571.833	3.26
572.174	3.3
572.514	3.31
572.855	3.24
573.195	3.24
573.536	3.22
573.876	3.24
574.217	3.18
574.557	3.07
574.898	3.18
575.238	3.3
575.578	3.14
575.918	3.12
576.258	3.18
576.598	3.22
576.938	3.1
577.278	3.25
577.618	3.25
577.958	3.16
578.298	3.42
578.638	3.16
578.977	3.37
579.317	3.13
579.657	3.44
579.996	3.05
580.336	3.31
580.675	3.28
581.014	3.23
581.354	3.4
581.693	3.16
582.032	3.46
582.372	3.42
582.711	3.23
583.05	3.2
583.389	3.21
583.728	3.16
584.067	3.28
584.406	3.29
584.745	3.09
585.083	3.37
585.422	3.27
585.761	3.53
586.1	3.14
586.438	3.23
586.777	3.46
587.115	3.35
587.454	3.39
587.792	3.27
588.13	3.43
588.469	3.34
588.807	3.24
589.145	3.35
589.483	3.38
589.821	3
590.159	3.14
590.497	3.32
590.835	3.09
591.173	3.35
591.511	3.33
591.849	3.2
592.187	3.1
592.524	3.24
592.862	3.39
593.2	3.29
593.537	3.03
593.875	3.29
594.212	3.42
594.55	3.22
594.887	3.38
595.224	3.14
595.561	3.26
595.899	3.09
596.236	3.2
596.573	3.1
596.91	3.2
597.247	2.86
597.584	3.15
597.921	3.1
598.258	3.22
598.594	3.12
598.931	3.19
599.268	3.02
599.604	3.31
599.941	3.29
600.277	3.07
600.614	3.29
600.95	3.18
601.287	3.22
601.623	3.23
601.959	2.91
602.296	3.02
602.632	2.99
602.968	3.03
603.304	3.23
603.64	3.07
603.976	3.3
604.312	3.01
604.648	2.89
604.984	3.34
605.319	3.05
605.655	3.19
605.991	2.98
606.326	3.1
606.662	3.18
606.998	3.13
607.333	3.21
607.668	3.26
608.004	3.35
608.339	3.48
608.674	3.13
609.01	2.81
609.345	2.96
609.68	3.38
610.015	3.13
610.35	3.24
610.685	3.24
611.02	3.29
611.355	2.93
611.689	3.14
612.024	3.1
612.359	2.9
612.694	3.26
613.028	3.04
613.363	3.29
613.697	3.29
614.032	3.47
614.366	2.84
614.7	3.03
615.035	3.25
615.369	3.36
615.703	3.27
616.037	3.34
616.371	3.04
616.705	3.07
617.039	3.02
617.373	3.58
617.707	2.93
618.041	2.87
618.375	3.57
618.709	3.08
619.042	2.87
619.376	3.03
619.71	3.16
620.043	3.07
620.377	3.14
620.71	3.01
621.043	3.36
621.377	2.79
621.71	3.11
622.043	3.06
622.376	3.24
622.709	3.22
623.043	3.05
623.376	3.14
623.709	3.23
624.041	2.94
624.374	3.42
624.707	2.95
625.04	3.19
625.373	3.36
625.705	3.22
626.038	2.98
626.37	3.02
626.703	3.34
627.035	2.97
627.368	3.15
627.7	2.97
628.032	2.9
628.365	3.56
628.697	3.15
629.029	3.15
629.361	2.91
629.693	3.2
630.025	3.05
630.357	2.92
630.689	3.35
631.021	2.86
631.353	2.99
631.684	3.17
632.016	3.23
632.348	3.1
632.679	3.33
633.011	2.97
633.342	2.8
633.674	3.25
634.005	3.31
634.336	3.06
634.668	2.9
634.999	2.66
635.33	3
635.661	3.28
635.992	3.36
636.323	3.23
636.654	3.39
636.985	2.93
637.316	2.97
637.647	3.22
637.977	3.36
638.308	3.07
638.639	2.99
638.969	3.38
639.3	3.15
639.63	3.32
639.961	3.03
640.291	3.06
640.622	3.12
640.952	3.4
641.282	3.37
641.612	3.46
641.943	3.37
642.273	3.43
642.603	2.88
642.933	3.14
643.263	3.09
643.592	3.44
643.922	2.75
644.252	3.03
644.582	3.17
644.911	3.33
645.241	3.61
645.571	3.34
645.9	3.01
646.23	3.23
646.559	2.78
646.888	3.18
647.218	3.01
647.547	3.22
647.876	2.91
648.205	3.07
648.534	2.95
648.863	3.38
649.192	3.22
649.521	3.17
649.85	3.27
650.179	2.94
650.508	3.25
650.837	3.33
651.165	3.34
651.494	3.37
651.822	3.18
652.151	2.96
652.479	3.32
652.808	3.02
653.136	2.97
653.465	3.15
653.793	3.66
654.121	3.1
654.449	3.13
654.777	3.65
655.105	3.62
655.433	2.99
655.761	2.96
656.089	3.17
656.417	3.31
656.745	3.46
657.073	3.08
657.4	3.15
657.728	3.65
658.056	3.05
658.383	3
658.711	3.37
659.038	3.18
659.365	2.89
659.693	2.89
660.02	3.6
660.347	2.87
660.674	2.58
661.001	3.18
661.329	3.04
661.656	3.11
661.982	3.46
662.309	3.32
662.636	3.31
662.963	3.06
663.29	3.14
663.616	3.46
663.943	3.27
664.27	3.28
664.596	2.98
664.923	3.38
665.249	2.87
665.576	3.17
665.902	3.31
666.228	3.52
666.554	3.11
666.881	3.05
667.207	2.88
667.533	3.44
667.859	2.58
668.185	2.96
668.511	3.62
668.837	3.04
669.162	3.17
669.488	3.22
669.814	2.9
670.139	3.37
670.465	3.01
670.791	2.51
671.116	3.4
671.442	2.87
671.767	3.23
672.092	2.83
672.418	2.96
672.743	3.05
673.068	2.87
673.393	2.9
673.718	2.88
674.043	3.2
674.368	3.36
674.693	3.86
675.018	2.68
675.343	3.22
675.667	3.68
675.992	3.29
676.317	3.09
676.641	3.78
676.966	2.51
677.29	2.69
677.615	3.5
677.939	3.37
678.264	3.05
678.588	3.73
678.912	3.26
679.236	3.19
679.56	3.26
679.885	3.36
680.209	3.06
680.532	2.87
680.856	3.64
681.18	3.41
681.504	2.98
681.828	2.71
682.152	3.5
682.475	2.88
682.799	2.96
683.122	3.51
683.446	3
683.769	3.51
684.093	3.44
684.416	3.73
684.739	3.45
685.062	3.01
685.386	3.58
685.709	3.59
686.032	4
686.355	2.97
686.678	2.84
687.001	3.58
687.324	3.3
687.646	3.21
687.969	3.19
688.292	3.2
688.614	3.14
688.937	3.12
689.26	3.32
689.582	3.51
689.904	2.73
690.227	3.48
690.549	3.38
690.871	2.96
691.194	3.48
691.516	4.05
691.838	3.08
692.16	2.81
692.482	2.91
692.804	3.47
693.126	3.72
693.448	3.25
693.769	3.54
694.091	2.94
694.413	3.23
694.735	3.16
695.056	2.36
695.378	2.69
695.699	2.8
696.021	4.01
696.342	3.81
696.663	2.92
696.984	2.44
697.306	3.1
697.627	2.85
697.948	3.24
698.269	3.65
698.59	3.21
698.911	3.27
699.232	3.25
699.553	2.98
699.873	3.32
700.194	3
700.515	3.1
700.835	3.09
701.156	3.21
701.477	3.35
701.797	2.77
702.117	3
702.438	3.18
702.758	3.75
703.078	3.41
703.398	2.59
703.719	3.25
704.039	3.66
704.359	3.64
704.679	2.31
704.999	3.27
705.319	3.25
705.638	4.01
705.958	2.73
706.278	3.93
706.597	3.15
706.917	2.68
707.237	3.53
707.556	3.01
707.876	2.81
708.195	3.23
708.514	2.12
708.834	3.43
709.153	3.83
709.472	3.12
709.791	2.77
710.11	3.19
710.429	2.32
710.748	3.36
711.067	2.23
711.386	3.89
711.705	3.28
712.023	3.64
712.342	3.25
712.661	3.17
712.979	3.93
713.298	3.38
713.616	4.27
713.935	2.96
714.253	3.27
714.572	2.93
714.89	3.72
715.208	2.56
715.526	2.52
715.844	3.39
716.162	2.87
716.48	3.07
716.798	3.06
717.116	3.17
717.434	2.61
717.752	3.07
718.069	3.4
718.387	3.28
718.705	3.34
719.022	3.92
719.34	2.93
719.657	3.05
719.975	3.33
720.292	2.78
720.609	2.72
720.927	4.08
721.244	4.24
721.561	3.68
721.878	3.57
722.195	3.32
722.512	3.32
722.829	4.17
723.146	3.83
723.463	3.53
723.779	4.16
724.096	2.56
724.413	2.74
724.729	2.17
725.046	2.56
725.362	4.14
725.679	2.83
725.995	2.98
726.311	3.93
726.628	2.85
726.944	3.18
727.26	3.16
727.576	2.9
727.892	1.48
728.208	3.38
728.524	3.33
728.84	3.37
729.156	2.93
729.472	3.71
729.787	4.06
730.103	3.29
730.419	2.71
730.734	3.04
731.05	3.04
731.365	2.18
731.681	2.56
731.996	1.84
732.311	3.34
732.626	2.93
732.942	2.83
733.257	1.39
733.572	4.8
733.887	3.44
734.202	4.6
734.517	3.42
734.832	4.7
735.146	3.32
735.461	2.06
735.776	3.31
736.091	3.43
736.405	4.67
736.72	2.28
737.034	1.72
737.349	5.28
737.663	2.57
737.977	3.83
738.292	1.84
738.606	3.51
738.92	2.1
739.234	3.92
739.548	4.15
739.862	3.54
740.176	3.96
740.49	1.19
740.804	2.17
741.117	3.71
741.431	3.92
741.745	3.11
742.058	4.37
742.372	3.48
742.685	4.35
742.999	3.89
743.312	3.37
743.626	3.13
743.939	2.72
744.252	2.65
744.565	3.26
744.878	3.05
745.191	2.56
745.505	3.27
745.817	2.11
746.13	4.79
746.443	1.94
746.756	3.51
747.069	3.91
747.381	3.04
747.694	4.6
748.007	2.76
748.319	4.65
748.632	3.13
748.944	5.66
749.256	1.48
749.569	3.55
749.881	3.84
750.193	3.85
750.505	3.68
750.817	4.27
751.129	3.9
751.441	2.34
751.753	4.54
752.065	5.07
752.377	4.64
752.689	3.52
753	4.75
753.312	3.03
753.624	2.1
753.935	4.85
754.247	3.14
754.558	3.89
754.869	2.16
755.181	3
755.492	2.74
755.803	3.23
756.114	3.92
756.425	4.01
756.736	2.27
757.047	2.64
757.358	3.53
757.669	5.32
757.98	2.85
758.291	2.01
758.601	3.36
758.912	2.93
759.223	3.29
759.533	4.08
759.844	4.87
760.154	3.45
760.464	3.04
760.775	2.93
761.085	3.72
761.395	3.15
761.705	3
762.016	3.46
762.326	3.23
762.636	4.54
762.945	2.57
763.255	5.04
763.565	2.27
763.875	3.86
764.185	3.98
764.494	4.04
764.804	2.26
765.113	3.73
765.423	3.37
765.732	3.99
766.042	3.28
766.351	2.7
766.66	3.65
766.97	3.59
767.279	3.15
767.588	4.31
767.897	3.48
768.206	5.55
768.515	2.91
768.824	4.25
769.133	2.13
769.441	2.25
769.75	2.63
770.059	3.84
770.367	3.28
770.676	3.21
770.984	6.43
771.293	3.23
771.601	2.42
771.91	3.38
772.218	4.24
772.526	4.37
772.834	1.28
773.142	3.24
773.45	3.11
773.758	3.69
774.066	2.2
774.374	0.42
774.682	2.35
774.99	0.62
775.298	4.35
775.605	2.03
775.913	2.93
776.22	4.9
776.528	5.22
776.835	6.95
777.143	3.48
777.45	4.62
777.757	2.56
778.065	5.97
778.372	5.69
778.679	2.84
778.986	2.87
779.293	2.28
779.6	4.41
779.907	3.4
780.214	3.48
780.52	5.56
780.827	5.1
781.134	1.61
781.44	0.08
781.747	7.31
782.053	1.23
782.36	3.66
782.666	3.4
782.973	3.7
783.279	-1.01
783.585	3.38
783.891	3.19
784.197	3.29
784.503	1.79
784.809	3.48
785.115	5.83
785.421	0.59
785.727	1.24
786.033	3.87
786.339	5.28
786.644	2.23
786.95	3.34
787.255	-0.71
787.561	4.52
787.866	3.75
788.172	5.18
788.477	-1.71
788.782	4
789.088	5.54
789.393	1.1
789.698	6.51
790.003	6
790.308	4.67
790.613	3.51
790.918	3.15
791.223	4.5
791.527	2.34
791.832	5.32
792.137	6.03
792.441	4.26
792.746	3.35
793.05	1.78
793.355	7.26
793.659	6.54
793.963	5.98
794.268	2.93
794.572	0.49
794.876	5.21
795.18	5.3
795.484	3.24
795.788	7.8
796.092	7.66
796.396	4.56
796.7	2.63
797.004	4.37
797.307	1.62
797.611	8.13
797.915	4.46
798.218	7.92
798.522	3.89
798.825	-0.42
799.128	4.33
799.432	3.66
799.735	4.66
800.038	4.47
800.341	6.58
800.644	2.51
800.947	3.85
801.25	5.42
801.553	3.54
801.856	4.83
802.159	5.97
802.462	4.63
802.764	6.23
803.067	2.28
803.37	0.07
803.672	2.7
803.975	9.97
804.277	0.22
804.579	4.67
804.882	7.03
805.184	3.18
805.486	2.34
805.788	3.28
806.09	3.16
806.392	1.25
806.694	5.94
806.996	4.14
807.298	6.92
807.6	2.03
807.902	0.42
808.203	4.81
808.505	2.62
808.807	6.56
809.108	-1.94
809.409	4.89
809.711	5.99
810.012	2.39
810.313	8.1
810.615	0.98
810.916	8.04
811.217	0.69
811.518	-2.91
811.819	6.93
812.12	6.06
812.421	6.12
812.722	3.91
813.023	3.36
813.323	0.95
813.624	0.68
813.925	3.63
814.225	9
814.526	6.35
814.826	12.38
815.126	-1.34
815.427	1.88
815.727	8.05
816.027	0.23
816.327	4.23
816.627	0.04
816.927	3.63
817.227	1.39
817.527	-2.3
817.827	-3.3
818.127	-1.68
818.427	2.57
818.727	-0.75
819.026	1.69
819.326	7.27
819.625	2.74
819.925	3.74
820.224	7.4
820.524	4.11
820.823	7.26
821.122	8.32
821.421	6.4
821.72	2.33
822.019	1.87
822.318	3.73
822.617	-3.01
822.916	3.59
823.215	1.98
823.514	3.04
823.813	5.77
824.111	4.73
824.41	3.35
824.709	3.3
825.007	3.03
825.306	3.46
825.604	5.02
825.902	4.4
826.201	3.9
826.499	4.84
826.797	4.88
827.095	3.1
827.393	5.77
827.691	6.7
827.989	3.46
828.287	5.99
828.585	6.17
828.882	3.67
829.18	7.44
829.478	4.37
829.775	4.07
830.073	4.38
830.37	4.38
830.668	3.87
830.965	3.57
831.263	7.36
831.56	4.11
831.857	1.42
832.154	4.43
832.451	6.9
832.748	1.03
833.045	0.41
833.342	7.35
833.639	1.55
833.936	4.39
834.232	9.76
834.529	2.61
834.826	2.64
835.122	4.76
835.419	2.95
835.715	4.12
836.012	6.86
836.308	7.95
836.604	2.48
836.901	4.34
837.197	2.23
837.493	2.64
837.789	4.34
838.085	8.1
838.381	6.37
838.677	4.98
838.972	1.94
839.268	5.92
839.564	5.98
839.86	3.03
840.155	2.63
840.451	-2.15
840.746	-2.42
841.042	0.51
841.337	-3.77
841.632	10.55
841.928	14.33
842.223	4.69
842.518	2.64
842.813	-3.27
843.108	9.23
843.403	10.14
843.698	3.83
843.993	-5.98
844.287	9.42
844.582	13.21
844.877	6.39
845.171	9.58
845.466	4.86
845.761	0.28
846.055	9.06
846.349	3.79
846.644	1.89
846.938	-2.85
847.232	6.98
847.526	15.42
847.82	9.31
848.114	20.1
848.408	7.2
848.702	-0.35
848.996	1.25
849.29	-7.77
849.584	7.81
849.877	16.82
850.171	9.88
850.465	-0.76
850.758	-10.93
851.052	10.34
851.345	5.41
851.638	23.6
851.932	2.53
852.225	4.52
852.518	28.07
852.811	-4.95
853.104	-7.48
853.397	6.47
853.69	2.58
853.983	-6.29
854.276	-0.06
854.569	10.84
854.861	-0.51
855.154	12.05
855.447	0.06
855.739	23.84
856.032	17.16
856.324	-16.29
856.616	-0.36
856.909	-14.62
857.201	4.07
857.493	13.8
857.785	-17.1
858.077	-14.79
858.369	-4.94
858.661	-15.58
858.953	7.93
859.245	-2.56
859.537	5.88
859.829	-4.77
860.12	-2.19
860.412	-5.07
860.703	12.26
860.995	13.71
861.286	-21.5
861.578	-5.12
861.869	-3.69
862.16	-65.6
862.452	-5.91
862.743	-7.15
863.034	3.46
863.325	15.39
863.616	10.9
863.907	7.76
864.198	-4.07
864.488	-30.22
864.779	-4.49
865.07	13.08
865.36	-23.9
865.651	2.4
865.941	11.13
866.232	0.92
866.522	-44.67
866.813	-1.41
867.103	2.28
867.393	9.33
867.683	12.97
867.973	12.04
868.263	28.83
868.553	0.82
868.843	-8.08
869.133	-13.8
869.423	5.59
869.713	-0.93
870.002	10.29
870.292	28.48
870.582	41.14
870.871	-10.87
871.161	31.47
871.45	-34.35
871.739	-13.41
872.029	1.74
872.318	20.42
872.607	-5.72
872.896	-17.64
873.185	-8.09
873.474	-3.59
873.763	10.17
874.052	13.16
874.341	17.62
874.63	2.87
874.918	-28.89
875.207	14.27
875.496	32.16
875.784	-0.96
876.073	-16.99
876.361	-23.24
876.649	-13.62
876.938	4.16
877.226	-3.77
877.514	11.09
877.802	-13.37
878.09	3.66
878.378	33.38
878.666	5.12
878.954	9.74
879.242	12.88
879.53	12.35
879.817	12.8
880.105	29.76
880.392	-6.37
880.68	-5.93
880.967	-30.13
881.255	9.79
881.542	3.48
881.83	16.84
882.117	10.53
882.404	8.27
882.691	8.94
882.978	7.34
883.265	21.96
883.552	-0.05
883.839	9.98
884.126	6.08
884.413	7.15
884.699	0.09
884.986	10.84
885.273	0.36
885.559	0.36
885.846	0.36
