Data from 16HH-1_crown_Reflection__2__87.txt Node

Date: Fri Nov 11 16:49:52 CST 2022
User: ToomeyLab
Spectrometer: FLMS14357
Trigger mode: 0
Integration Time (sec): 1.000000E-2
Scans to average: 100
Electric dark correction enabled: true
Nonlinearity correction enabled: false
Boxcar width: 0
XAxis mode: Wavelengths
Number of Pixels in Spectrum: 2048
>>>>>Begin Spectral Data<<<<<
189.047	273.31
189.435	273.31
189.823	273.31
190.211	49.82
190.599	172.04
190.987	2337.31
191.375	148.53
191.763	-91.55
192.151	44.16
192.538	-300.27
192.926	-25.53
193.314	-500.83
193.702	-330.08
194.089	106.82
194.477	-107.98
194.864	25.65
195.252	-1118.12
195.639	164.15
196.027	-75.94
196.414	59.35
196.801	78.31
197.189	102.88
197.576	83.67
197.963	72.43
198.351	-17.1
198.738	-34.77
199.125	7.09
199.512	49.89
199.899	2.63
200.286	29.32
200.673	-46.22
201.06	-155.24
201.447	44.1
201.833	41.38
202.22	-29.8
202.607	11.48
202.994	11.48
203.38	-11.29
203.767	3.33
204.154	-10.71
204.54	6.61
204.927	4.03
205.313	28.62
205.699	45.92
206.086	-6
206.472	11.95
206.858	5.72
207.245	2.05
207.631	21.24
208.017	17.47
208.403	4.68
208.789	-89.99
209.175	2.53
209.561	35.33
209.947	-25.23
210.333	29
210.719	24.1
211.105	10.21
211.491	-86.16
211.876	14.32
212.262	-25.12
212.648	-3.72
213.034	-37.91
213.419	9.66
213.805	28.28
214.19	-41.3
214.576	3.17
214.961	-14.91
215.346	-54.79
215.732	-29.37
216.117	17.66
216.502	17
216.888	-15.1
217.273	-15.55
217.658	-17.6
218.043	-17.73
218.428	-9.05
218.813	20.09
219.198	-42.19
219.583	-6.25
219.968	6.85
220.353	-36.42
220.738	-25.4
221.122	-23.3
221.507	16
221.892	-6.82
222.276	-14.02
222.661	2.76
223.046	-2.3
223.43	-3.73
223.815	-4.13
224.199	10.49
224.583	-2.81
224.968	12.34
225.352	-3.18
225.736	-1.86
226.121	3.92
226.505	-1.13
226.889	-0.25
227.273	2.63
227.657	-4.15
228.041	2.93
228.425	2.27
228.809	6.16
229.193	0.21
229.577	3.99
229.961	1.86
230.344	1.58
230.728	2.64
231.112	2.48
231.495	2.58
231.879	1.79
232.263	0.5
232.646	0.75
233.03	1.23
233.413	0.86
233.797	1.87
234.18	1.69
234.563	3
234.946	-1.6
235.33	1.98
235.713	0.88
236.096	1.65
236.479	1.83
236.862	2.74
237.245	0.57
237.628	0.42
238.011	1.38
238.394	1.67
238.777	1.44
239.16	1
239.543	1.78
239.925	3.94
240.308	1.09
240.691	-0.02
241.073	0.11
241.456	1.83
241.838	1.65
242.221	1.27
242.603	0.48
242.986	2.05
243.368	1.71
243.75	2.1
244.133	1.67
244.515	1.99
244.897	1.56
245.279	1.5
245.661	1.68
246.043	1.96
246.425	2.84
246.807	2.22
247.189	1.13
247.571	0.8
247.953	1.68
248.335	2.08
248.717	1.89
249.098	1.78
249.48	2
249.862	1.83
250.243	1.88
250.625	2.03
251.006	2.22
251.388	1.63
251.769	2.07
252.151	1.11
252.532	1.71
252.913	0.86
253.295	2
253.676	2.42
254.057	1.76
254.438	1.73
254.819	2.14
255.2	2.29
255.581	2.47
255.962	1.56
256.343	2.15
256.724	1.83
257.105	1.74
257.486	2.63
257.867	0.3
258.247	2.48
258.628	2.4
259.009	1.18
259.389	2.42
259.77	2.98
260.15	2.09
260.531	1.4
260.911	1.66
261.292	2.07
261.672	1.75
262.052	1.78
262.432	2.05
262.813	1.8
263.193	1.92
263.573	2.68
263.953	1.64
264.333	2.22
264.713	1.81
265.093	1.89
265.473	2.23
265.853	1.66
266.233	1.75
266.612	1.45
266.992	2.12
267.372	2.03
267.752	1.84
268.131	2.2
268.511	1.87
268.89	2.09
269.27	1.6
269.649	1.62
270.029	0.98
270.408	1.58
270.787	2.24
271.167	1.26
271.546	1.66
271.925	1.85
272.304	1.99
272.683	2.03
273.062	1.68
273.441	1.81
273.82	1.56
274.199	2.14
274.578	1.94
274.957	1.61
275.336	1.6
275.715	1.97
276.093	2.42
276.472	2.14
276.851	1.86
277.229	1.34
277.608	1.91
277.986	1.98
278.365	2.28
278.743	1.78
279.122	1.63
279.5	1.58
279.878	2.07
280.257	2.05
280.635	1.51
281.013	1.68
281.391	2.07
281.769	2.18
282.147	1.22
282.525	1.37
282.903	1.94
283.281	1.52
283.659	1.51
284.037	1.56
284.415	1.68
284.792	1.72
285.17	1.79
285.548	1.97
285.925	2.25
286.303	1.68
286.68	1.9
287.058	1.85
287.435	1.84
287.813	1.96
288.19	2.01
288.567	1.87
288.945	1.33
289.322	1.5
289.699	2.13
290.076	1.81
290.453	1.07
290.83	2.02
291.207	1.71
291.584	1.48
291.961	1.53
292.338	1.62
292.715	1.64
293.092	1.45
293.469	1.78
293.845	2.18
294.222	2.36
294.599	2.26
294.975	1.77
295.352	1.76
295.728	1.71
296.105	1.99
296.481	1.56
296.858	1.62
297.234	1.84
297.61	1.57
297.986	1.3
298.363	1.91
298.739	2.06
299.115	1.68
299.491	1.66
299.867	1.44
300.243	1.5
300.619	1.74
300.995	1.65
301.371	1.73
301.746	1.97
302.122	1.85
302.498	1.33
302.874	1.91
303.249	1.56
303.625	1.66
304	1.32
304.376	2.16
304.751	2.35
305.127	2.15
305.502	2.15
305.878	2.16
306.253	1.85
306.628	1.97
307.003	1.62
307.378	2.24
307.754	1.73
308.129	1.78
308.504	1.64
308.879	1.87
309.254	1.08
309.629	1.75
310.003	1.76
310.378	1.62
310.753	1.74
311.128	1.72
311.502	1.37
311.877	1.7
312.252	1.56
312.626	1.71
313.001	1.76
313.375	1.69
313.75	1.62
314.124	1.69
314.498	2.09
314.873	2.07
315.247	1.91
315.621	1.58
315.995	1.43
316.369	1.61
316.743	1.66
317.117	1.34
317.491	1.9
317.865	1.9
318.239	1.73
318.613	1.49
318.987	1.94
319.361	1.62
319.734	1.56
320.108	2.52
320.482	1.99
320.855	1.77
321.229	1.6
321.602	1.92
321.976	1.41
322.349	1.4
322.723	1.6
323.096	1.78
323.469	1.75
323.843	1.92
324.216	1.6
324.589	1.62
324.962	1.39
325.335	1.73
325.708	2.17
326.081	1.61
326.454	1.75
326.827	2.19
327.2	1.93
327.573	2.39
327.945	1.91
328.318	1.97
328.691	2.26
329.063	1.87
329.436	1.73
329.809	1.61
330.181	1.83
330.553	2.21
330.926	1.66
331.298	1.83
331.671	2.25
332.043	2.29
332.415	1.66
332.787	1.89
333.159	1.84
333.532	1.34
333.904	1.64
334.276	1.56
334.648	1.61
335.02	2.01
335.391	1.89
335.763	1.51
336.135	1.99
336.507	1.98
336.879	1.48
337.25	1.18
337.622	2.24
337.993	1.39
338.365	2.16
338.736	1.89
339.108	1.95
339.479	1.63
339.851	1.59
340.222	2.05
340.593	1.26
340.964	1.74
341.336	1.71
341.707	2
342.078	1.49
342.449	2.19
342.82	1.64
343.191	2.08
343.562	2.04
343.933	1.5
344.303	2.37
344.674	1.74
345.045	1.89
345.416	1.76
345.786	1.79
346.157	1.54
346.527	2.03
346.898	1.75
347.268	1.93
347.639	2.04
348.009	1.82
348.38	1.91
348.75	2.55
349.12	1.94
349.49	1.91
349.861	1.61
350.231	1.54
350.601	2.61
350.971	2.29
351.341	1.99
351.711	1.61
352.081	1.45
352.45	1.67
352.82	2.24
353.19	1.63
353.56	2.11
353.929	1.98
354.299	2.06
354.669	1.91
355.038	1.86
355.408	1.9
355.777	2.18
356.147	1.77
356.516	2.01
356.885	1.89
357.254	1.96
357.624	1.91
357.993	1.91
358.362	1.78
358.731	1.87
359.1	1.77
359.469	1.78
359.838	1.98
360.207	2.03
360.576	1.99
360.945	1.91
361.314	2.04
361.682	1.76
362.051	1.74
362.42	1.7
362.788	1.82
363.157	1.98
363.525	1.95
363.894	1.79
364.262	1.89
364.631	1.6
364.999	1.9
365.367	2.02
365.735	2.15
366.104	1.75
366.472	1.89
366.84	2.02
367.208	1.96
367.576	1.9
367.944	2.15
368.312	1.91
368.68	2.36
369.048	1.77
369.416	1.88
369.783	1.88
370.151	1.88
370.519	2.3
370.886	2.25
371.254	1.74
371.621	1.91
371.989	1.81
372.356	1.68
372.724	2.18
373.091	1.76
373.458	1.78
373.826	2.14
374.193	1.95
374.56	1.83
374.927	1.86
375.294	2.07
375.661	2.41
376.028	2.04
376.395	2.09
376.762	2.16
377.129	1.95
377.496	1.75
377.863	2.15
378.229	1.89
378.596	1.82
378.963	1.9
379.329	1.83
379.696	1.96
380.062	1.87
380.429	1.81
380.795	1.76
381.161	2.31
381.528	2
381.894	2.07
382.26	2.04
382.626	2.14
382.993	2
383.359	2.05
383.725	2.33
384.091	1.81
384.457	1.91
384.823	1.73
385.188	2.03
385.554	2.08
385.92	1.93
386.286	1.83
386.651	1.78
387.017	1.75
387.383	1.83
387.748	1.81
388.114	1.92
388.479	1.95
388.845	1.89
389.21	2.04
389.575	1.95
389.94	2.27
390.306	1.68
390.671	1.86
391.036	2.16
391.401	1.91
391.766	2.02
392.131	1.59
392.496	1.95
392.861	1.86
393.226	2.05
393.591	1.91
393.956	2.01
394.32	2
394.685	2.09
395.05	2.22
395.414	2.09
395.779	1.98
396.143	2.05
396.508	1.93
396.872	1.93
397.236	2.11
397.601	1.92
397.965	2.16
398.329	2.09
398.694	1.87
399.058	1.93
399.422	2.15
399.786	2.28
400.15	1.84
400.514	1.79
400.878	2.01
401.242	2.13
401.605	2.06
401.969	2.1
402.333	1.94
402.697	1.84
403.06	1.89
403.424	2.07
403.787	2.15
404.151	1.92
404.514	1.97
404.878	2.15
405.241	2.13
405.604	2.07
405.968	2.2
406.331	1.91
406.694	2.16
407.057	2.14
407.42	2.01
407.783	1.96
408.146	2.26
408.509	2
408.872	2.3
409.235	2.22
409.598	1.9
409.961	1.92
410.323	2.02
410.686	2.18
411.049	2.31
411.411	2.12
411.774	1.82
412.136	2.15
412.499	2.07
412.861	1.96
413.223	2.02
413.586	1.93
413.948	1.83
414.31	2.18
414.672	2.04
415.035	2.05
415.397	2.15
415.759	2.21
416.121	2.18
416.483	1.93
416.845	2.09
417.206	2.23
417.568	1.97
417.93	2.03
418.292	2.07
418.653	1.95
419.015	1.94
419.377	2.14
419.738	2.13
420.1	1.93
420.461	2.04
420.822	1.94
421.184	1.92
421.545	2.02
421.906	2.01
422.267	2.08
422.629	2.02
422.99	2
423.351	1.97
423.712	1.96
424.073	2.07
424.434	2.04
424.795	2.13
425.155	2.07
425.516	2.08
425.877	2.03
426.238	2.03
426.598	2
426.959	2.06
427.32	2.12
427.68	2.08
428.041	2.11
428.401	2.01
428.761	2.15
429.122	2.13
429.482	2.11
429.842	2.08
430.202	2.09
430.563	1.94
430.923	2.12
431.283	2.21
431.643	2.13
432.003	2.21
432.363	2.16
432.722	2.11
433.082	2.02
433.442	2.18
433.802	2.18
434.161	2.04
434.521	2.15
434.881	2.02
435.24	2.1
435.6	1.99
435.959	2.14
436.319	2.02
436.678	2.04
437.037	2.14
437.396	2.01
437.756	2.08
438.115	1.86
438.474	2.15
438.833	1.93
439.192	2.12
439.551	1.95
439.91	2.07
440.269	2.18
440.628	2.19
440.987	2.16
441.345	2.13
441.704	2.13
442.063	2.19
442.421	1.97
442.78	2.12
443.138	2.08
443.497	2.09
443.855	2.1
444.214	2.02
444.572	2.14
444.93	2.18
445.288	2.19
445.647	2.05
446.005	2.06
446.363	2.01
446.721	1.89
447.079	2.03
447.437	1.98
447.795	1.89
448.153	2.07
448.51	2.07
448.868	2.1
449.226	2.09
449.584	2.13
449.941	2.03
450.299	2.12
450.656	2.17
451.014	2.16
451.371	2
451.729	2.2
452.086	2.17
452.443	2.08
452.801	2.12
453.158	2.16
453.515	2.14
453.872	2.18
454.229	2.04
454.586	2.19
454.943	2.08
455.3	2.1
455.657	2.1
456.014	2.07
456.371	2.12
456.727	2.22
457.084	2.15
457.441	2.13
457.797	2.06
458.154	2.17
458.51	2.08
458.867	2.1
459.223	2.04
459.58	2.29
459.936	2.22
460.292	2.04
460.648	2.17
461.005	2.13
461.361	2.17
461.717	2.06
462.073	2.11
462.429	2.21
462.785	2.05
463.141	2.14
463.496	2.15
463.852	2.16
464.208	2.29
464.564	2.12
464.919	2.23
465.275	2.08
465.631	2.16
465.986	2.21
466.342	2.15
466.697	2.08
467.052	2.2
467.408	2.14
467.763	2.22
468.118	2.24
468.473	2.3
468.829	2.19
469.184	2.16
469.539	2.32
469.894	2.12
470.249	2.16
470.603	2.09
470.958	2.31
471.313	2.34
471.668	2.23
472.023	2.29
472.377	2.21
472.732	2.24
473.086	2.31
473.441	2.14
473.795	2.14
474.15	2.14
474.504	2.23
474.859	2.31
475.213	2.13
475.567	2.3
475.921	2.45
476.275	2.2
476.63	2.26
476.984	2.3
477.338	2.38
477.692	2.17
478.045	2.13
478.399	2.09
478.753	2.3
479.107	2.15
479.461	2.28
479.814	2.09
480.168	2.14
480.521	2.29
480.875	2.26
481.228	2.28
481.582	2.19
481.935	2.24
482.289	2.26
482.642	2.11
482.995	2.24
483.348	2.13
483.701	2.28
484.055	2.12
484.408	2.15
484.761	2.06
485.114	2.05
485.466	1.97
485.819	2.02
486.172	2.06
486.525	2.11
486.878	2.14
487.23	2.13
487.583	2.16
487.936	2.21
488.288	2.14
488.641	2.13
488.993	2.08
489.345	2.04
489.698	2.08
490.05	2.09
490.402	2.12
490.754	2.23
491.107	2.21
491.459	2.22
491.811	2.24
492.163	2.21
492.515	2.14
492.866	2.11
493.218	2.05
493.57	2.07
493.922	2.15
494.274	2.21
494.625	2.15
494.977	2.24
495.328	2.24
495.68	2.24
496.031	2.19
496.383	2.29
496.734	2.26
497.086	2.25
497.437	2.24
497.788	2.28
498.139	2.23
498.49	2.18
498.842	2.27
499.193	2.21
499.544	2.24
499.894	2.22
500.245	2.29
500.596	2.35
500.947	2.23
501.298	2.28
501.648	2.41
501.999	2.31
502.35	2.22
502.7	2.29
503.051	2.18
503.401	2.2
503.752	2.17
504.102	2.18
504.452	2.3
504.803	2.28
505.153	2.33
505.503	2.32
505.853	2.37
506.203	2.38
506.553	2.34
506.903	2.22
507.253	2.33
507.603	2.41
507.953	2.32
508.303	2.28
508.652	2.16
509.002	2.22
509.352	2.37
509.701	2.23
510.051	2.25
510.4	2.11
510.75	2.3
511.099	2.22
511.449	2.25
511.798	2.24
512.147	2.28
512.496	2.22
512.846	2.27
513.195	2.23
513.544	2.21
513.893	2.39
514.242	2.37
514.591	2.2
514.939	2.28
515.288	2.37
515.637	2.31
515.986	2.35
516.334	2.27
516.683	2.39
517.032	2.25
517.38	2.31
517.729	2.33
518.077	2.21
518.426	2.35
518.774	2.15
519.122	2.2
519.47	2.19
519.819	2.1
520.167	2.17
520.515	2.24
520.863	2.29
521.211	2.32
521.559	2.19
521.907	2.35
522.255	2.41
522.602	2.32
522.95	2.3
523.298	2.29
523.645	2.35
523.993	2.39
524.341	2.36
524.688	2.35
525.036	2.34
525.383	2.36
525.73	2.28
526.078	2.26
526.425	2.27
526.772	2.29
527.119	2.21
527.466	2.18
527.814	2.21
528.161	2.22
528.508	2.23
528.854	2.22
529.201	2.26
529.548	2.22
529.895	2.13
530.242	2.14
530.588	2.14
530.935	2.14
531.282	2.27
531.628	2.23
531.975	2.21
532.321	2.19
532.667	2.31
533.014	2.3
533.36	2.25
533.706	2.23
534.052	2.29
534.399	2.2
534.745	2.16
535.091	2.14
535.437	2.22
535.783	2.23
536.129	2.3
536.474	2.31
536.82	2.24
537.166	2.26
537.512	2.3
537.857	2.31
538.203	2.19
538.549	2.24
538.894	2.22
539.239	2.25
539.585	2.32
539.93	2.35
540.276	2.35
540.621	2.29
540.966	2.39
541.311	2.35
541.656	2.22
542.001	2.28
542.346	2.27
542.691	2.19
543.036	2.15
543.381	2.11
543.726	2.19
544.071	2.28
544.415	2.29
544.76	2.23
545.105	2.37
545.449	2.3
545.794	2.24
546.138	2.38
546.483	2.33
546.827	2.36
547.171	2.31
547.516	2.22
547.86	2.25
548.204	2.26
548.548	2.22
548.892	2.34
549.236	2.31
549.58	2.37
549.924	2.35
550.268	2.4
550.612	2.28
550.956	2.44
551.3	2.47
551.643	2.46
551.987	2.38
552.33	2.28
552.674	2.34
553.017	2.43
553.361	2.3
553.704	2.35
554.048	2.34
554.391	2.37
554.734	2.33
555.077	2.47
555.42	2.34
555.764	2.38
556.107	2.35
556.45	2.29
556.793	2.43
557.135	2.37
557.478	2.27
557.821	2.45
558.164	2.41
558.507	2.38
558.849	2.3
559.192	2.46
559.534	2.31
559.877	2.44
560.219	2.5
560.562	2.46
560.904	2.47
561.246	2.42
561.589	2.45
561.931	2.43
562.273	2.43
562.615	2.34
562.957	2.46
563.299	2.45
563.641	2.4
563.983	2.36
564.325	2.32
564.667	2.38
565.008	2.34
565.35	2.42
565.692	2.27
566.033	2.39
566.375	2.35
566.716	2.43
567.058	2.27
567.399	2.4
567.741	2.4
568.082	2.33
568.423	2.5
568.764	2.38
569.105	2.34
569.447	2.37
569.788	2.29
570.129	2.37
570.47	2.36
570.811	2.48
571.151	2.41
571.492	2.39
571.833	2.42
572.174	2.41
572.514	2.38
572.855	2.44
573.195	2.42
573.536	2.49
573.876	2.38
574.217	2.3
574.557	2.4
574.898	2.35
575.238	2.28
575.578	2.55
575.918	2.37
576.258	2.31
576.598	2.5
576.938	2.38
577.278	2.48
577.618	2.33
577.958	2.42
578.298	2.63
578.638	2.46
578.977	2.38
579.317	2.38
579.657	2.42
579.996	2.29
580.336	2.48
580.675	2.23
581.014	2.46
581.354	2.38
581.693	2.35
582.032	2.62
582.372	2.55
582.711	2.38
583.05	2.48
583.389	2.42
583.728	2.35
584.067	2.46
584.406	2.53
584.745	2.26
585.083	2.74
585.422	2.44
585.761	2.53
586.1	2.43
586.438	2.26
586.777	2.58
587.115	2.45
587.454	2.49
587.792	2.5
588.13	2.71
588.469	2.33
588.807	2.59
589.145	2.48
589.483	2.43
589.821	2.28
590.159	2.32
590.497	2.36
590.835	2.29
591.173	2.23
591.511	2.45
591.849	2.35
592.187	2.38
592.524	2.61
592.862	2.64
593.2	2.66
593.537	2.19
593.875	2.54
594.212	2.48
594.55	2.35
594.887	2.51
595.224	2.55
595.561	2.56
595.899	2.34
596.236	2.51
596.573	2.17
596.91	2.5
597.247	2.45
597.584	2.55
597.921	2.42
598.258	2.32
598.594	2.42
598.931	2.52
599.268	2.33
599.604	2.52
599.941	2.4
600.277	2.44
600.614	2.62
600.95	2.48
601.287	2.5
601.623	2.36
601.959	2.37
602.296	2.29
602.632	2.44
602.968	2.38
603.304	2.44
603.64	2.51
603.976	2.44
604.312	2.49
604.648	2.26
604.984	2.52
605.319	2.56
605.655	2.45
605.991	2.32
606.326	2.45
606.662	2.38
606.998	2.45
607.333	2.47
607.668	2.4
608.004	2.47
608.339	2.54
608.674	2.35
609.01	2.17
609.345	2.35
609.68	2.76
610.015	2.54
610.35	2.4
610.685	2.37
611.02	2.63
611.355	2.24
611.689	2.37
612.024	2.51
612.359	2.19
612.694	2.56
613.028	2.52
613.363	2.57
613.697	2.45
614.032	2.63
614.366	2.17
614.7	2.2
615.035	2.68
615.369	2.64
615.703	2.7
616.037	2.31
616.371	2.5
616.705	2.6
617.039	2.29
617.373	2.71
617.707	2.59
618.041	2.28
618.375	2.73
618.709	2.38
619.042	2.46
619.376	2.49
619.71	2.09
620.043	2.59
620.377	2.45
620.71	2.47
621.043	2.6
621.377	2.23
621.71	2.64
622.043	2.39
622.376	2.48
622.709	2.65
623.043	2.14
623.376	2.5
623.709	2.3
624.041	2.48
624.374	2.56
624.707	2.49
625.04	2.38
625.373	2.5
625.705	2.42
626.038	2.27
626.37	2.35
626.703	2.43
627.035	2.48
627.368	2.68
627.7	2.26
628.032	2.25
628.365	2.76
628.697	2.71
629.029	2.6
629.361	2.35
629.693	2.55
630.025	2.15
630.357	2.25
630.689	2.43
631.021	2.33
631.353	2.45
631.684	2.62
632.016	2.55
632.348	2.37
632.679	2.78
633.011	2.52
633.342	2.18
633.674	2.65
634.005	2.59
634.336	2.11
634.668	2.24
634.999	2.02
635.33	2.48
635.661	2.66
635.992	2.68
636.323	2.72
636.654	2.67
636.985	2.67
637.316	2.62
637.647	2.46
637.977	2.7
638.308	2.69
638.639	2.49
638.969	2.71
639.3	2.21
639.63	2.46
639.961	2.52
640.291	2.68
640.622	2.5
640.952	2.31
641.282	2.67
641.612	2.69
641.943	2.38
642.273	2.56
642.603	2.33
642.933	2.37
643.263	2.29
643.592	2.8
643.922	2.48
644.252	2.65
644.582	2.2
644.911	2.77
645.241	2.73
645.571	2.76
645.9	2.42
646.23	2.54
646.559	2.38
646.888	2.67
647.218	2.36
647.547	2.47
647.876	2.57
648.205	2.97
648.534	2.57
648.863	2.59
649.192	2.42
649.521	2.57
649.85	2.54
650.179	2.47
650.508	2.49
650.837	2.8
651.165	2.98
651.494	2.65
651.822	2.77
652.151	2.77
652.479	2.71
652.808	2.5
653.136	2.27
653.465	3.38
653.793	2.66
654.121	3
654.449	2.26
654.777	2.6
655.105	2.62
655.433	2.47
655.761	2.51
656.089	2.64
656.417	2.67
656.745	2.65
657.073	2.92
657.4	3.03
657.728	2.64
658.056	2.25
658.383	2.64
658.711	2.93
659.038	2.71
659.365	2.03
659.693	2.32
660.02	2.79
660.347	2.91
660.674	2.39
661.001	2.55
661.329	2.27
661.656	2.39
661.982	2.44
662.309	2.68
662.636	2.36
662.963	2.68
663.29	2.85
663.616	2.74
663.943	2.51
664.27	2.62
664.596	2.7
664.923	2.74
665.249	2.63
665.576	2.57
665.902	2.6
666.228	2.92
666.554	2.49
666.881	2.36
667.207	2.17
667.533	3.1
667.859	2.58
668.185	2.54
668.511	2.42
668.837	2.49
669.162	2.45
669.488	2.71
669.814	2.19
670.139	3.19
670.465	2.52
670.791	2.25
671.116	2.58
671.442	2.27
671.767	2.83
672.092	2.57
672.418	2.51
672.743	2.28
673.068	2.4
673.393	1.95
673.718	2.22
674.043	2.68
674.368	2.73
674.693	3.16
675.018	2.25
675.343	2.98
675.667	2.98
675.992	2.08
676.317	2.58
676.641	2.62
676.966	2.22
677.29	2.39
677.615	2.81
677.939	3.27
678.264	2.49
678.588	2.88
678.912	3.33
679.236	2.25
679.56	3.11
679.885	2.94
680.209	2.85
680.532	2.15
680.856	2.92
681.18	2.42
681.504	2.86
681.828	1.96
682.152	2.83
682.475	2.28
682.799	2.63
683.122	2.23
683.446	2.6
683.769	3.08
684.093	2.7
684.416	2.83
684.739	2.78
685.062	2.45
685.386	2.74
685.709	3.05
686.032	2.76
686.355	2.42
686.678	2.55
687.001	3.35
687.324	2.7
687.646	2.55
687.969	3.25
688.292	2.62
688.614	2.47
688.937	2.28
689.26	2.33
689.582	2.81
689.904	2.43
690.227	3.24
690.549	3.03
690.871	2.7
691.194	3.12
691.516	3.23
691.838	2.79
692.16	2.06
692.482	2.92
692.804	2.68
693.126	2.4
693.448	2.88
693.769	3.41
694.091	2.72
694.413	2.25
694.735	2.88
695.056	2.18
695.378	1.14
695.699	2.5
696.021	2.98
696.342	3.24
696.663	4.13
696.984	1.97
697.306	2.79
697.627	3.03
697.948	2.77
698.269	3.25
698.59	3.1
698.911	2.61
699.232	2.95
699.553	2.77
699.873	2.9
700.194	2.75
700.515	2.51
700.835	2.67
701.156	2.63
701.477	2.95
701.797	2.94
702.117	2.71
702.438	2.74
702.758	3.22
703.078	2.82
703.398	1.43
703.719	2.78
704.039	2.74
704.359	2.9
704.679	1.36
704.999	2.11
705.319	3.36
705.638	2.97
705.958	2.06
706.278	2.56
706.597	1.9
706.917	1.91
707.237	2.85
707.556	2.28
707.876	3.05
708.195	2.96
708.514	3.25
708.834	3.12
709.153	2.8
709.472	2.68
709.791	2.69
710.11	2.51
710.429	1.69
710.748	3.15
711.067	2.77
711.386	3.18
711.705	2.45
712.023	3.13
712.342	3.89
712.661	2.24
712.979	2.97
713.298	3.12
713.616	2.73
713.935	3.09
714.253	2.34
714.572	1.94
714.89	3.09
715.208	2.34
715.526	2.99
715.844	2.61
716.162	2.97
716.48	2.16
716.798	2.31
717.116	3
717.434	2.53
717.752	2.6
718.069	2.59
718.387	3.37
718.705	2.36
719.022	2.49
719.34	2.43
719.657	1.78
719.975	2.36
720.292	2.34
720.609	3.47
720.927	2.81
721.244	4.02
721.561	3.2
721.878	3.1
722.195	3.56
722.512	2.61
722.829	3.47
723.146	3.44
723.463	4.04
723.779	2.97
724.096	3.04
724.413	1.43
724.729	2.78
725.046	2.35
725.362	2.89
725.679	2.6
725.995	3.93
726.311	3.29
726.628	1.25
726.944	2.63
727.26	2.82
727.576	2.87
727.892	1.06
728.208	3.71
728.524	2.66
728.84	3.25
729.156	2.83
729.472	1.9
729.787	3.26
730.103	2.92
730.419	3.53
730.734	2.62
731.05	2.37
731.365	1.36
731.681	1.24
731.996	1.71
732.311	1.81
732.626	2.17
732.942	2.37
733.257	2.35
733.572	5.39
733.887	2.74
734.202	3.04
734.517	2.48
734.832	2.29
735.146	2.79
735.461	2.51
735.776	3.4
736.091	3.77
736.405	3.41
736.72	2.01
737.034	2.93
737.349	3.17
737.663	3.26
737.977	4.33
738.292	1.24
738.606	2.83
738.92	3.61
739.234	3.33
739.548	2.17
739.862	1.83
740.176	1.99
740.49	2.35
740.804	2.98
741.117	3.36
741.431	1.64
741.745	2.72
742.058	5.06
742.372	4.04
742.685	4.19
742.999	3.34
743.312	3.88
743.626	2.91
743.939	1.61
744.252	-0.3
744.565	2.59
744.878	3.53
745.191	1.96
745.505	2.99
745.817	1.68
746.13	4.02
746.443	3.46
746.756	2.25
747.069	5.1
747.381	4.31
747.694	3.3
748.007	2.34
748.319	3.39
748.632	2.89
748.944	4.32
749.256	2.95
749.569	3.28
749.881	3.17
750.193	4.13
750.505	1.42
750.817	2.5
751.129	2.39
751.441	3.41
751.753	4.4
752.065	3.19
752.377	2.23
752.689	1.99
753	4.68
753.312	3.81
753.624	3.29
753.935	3.14
754.247	2.33
754.558	1.93
754.869	3.45
755.181	3.91
755.492	1.62
755.803	3.25
756.114	2.95
756.425	3.91
756.736	0.71
757.047	2.16
757.358	2.75
757.669	4.3
757.98	2.8
758.291	2.81
758.601	2.98
758.912	2.33
759.223	3.45
759.533	2.2
759.844	4.31
760.154	2.38
760.464	2.91
760.775	2.75
761.085	1.97
761.395	3.59
761.705	1.78
762.016	4.49
762.326	2.43
762.636	2.14
762.945	2.48
763.255	3.37
763.565	2.67
763.875	4.63
764.185	4.38
764.494	3.09
764.804	2.92
765.113	3.72
765.423	3.32
765.732	3.67
766.042	3.14
766.351	3.13
766.66	3.6
766.97	3.57
767.279	3.01
767.588	4.55
767.897	3.39
768.206	4.31
768.515	4.64
768.824	2.34
769.133	3.4
769.441	2.06
769.75	2.47
770.059	2.14
770.367	3.74
770.676	1.82
770.984	3.85
771.293	2.6
771.601	3.14
771.91	2.89
772.218	4.67
772.526	4.13
772.834	3.65
773.142	2.32
773.45	1.78
773.758	5.93
774.066	0.17
774.374	1.09
774.682	2.1
774.99	0.25
775.298	3.81
775.605	0.18
775.913	4.25
776.22	3.14
776.528	4.76
776.835	6.2
777.143	0.14
777.45	1.27
777.757	0.99
778.065	4.48
778.372	4.93
778.679	4.07
778.986	0.64
779.293	4.02
779.6	-0.25
779.907	2.42
780.214	1.9
780.52	7.62
780.827	2.13
781.134	1.85
781.44	1.99
781.747	1.95
782.053	2.47
782.36	3.6
782.666	6.33
782.973	1.01
783.279	-0.96
783.585	2.21
783.891	5.71
784.197	2.03
784.503	-0.71
784.809	3.17
785.115	3.98
785.421	2.64
785.727	-0.4
786.033	2.58
786.339	4.44
786.644	1.56
786.95	2.91
787.255	3.82
787.561	5.66
787.866	0.39
788.172	0.17
788.477	0.52
788.782	3.43
789.088	2.29
789.393	2.94
789.698	5.74
790.003	1.96
790.308	4.07
790.613	6.54
790.918	3.84
791.223	4.78
791.527	-2.73
791.832	2.46
792.137	3.2
792.441	4.92
792.746	2.11
793.05	-0.22
793.355	0.25
793.659	2.77
793.963	2.47
794.268	3.58
794.572	0.79
794.876	3.05
795.18	3.09
795.484	3.22
795.788	6.3
796.092	1.87
796.396	2.59
796.7	3.89
797.004	1.23
797.307	0.86
797.611	3.04
797.915	4.42
798.218	5.81
798.522	-0.78
798.825	0.67
799.128	6.34
799.432	6.18
799.735	3.96
800.038	4.13
800.341	6.05
800.644	0.56
800.947	3.14
801.25	5.29
801.553	2.73
801.856	6.76
802.159	5.23
802.462	1.1
802.764	4.58
803.067	1.62
803.37	-1.15
803.672	0.45
803.975	9.86
804.277	-0.1
804.579	-0.94
804.882	6.89
805.184	-2.52
805.486	2.7
805.788	5.72
806.09	6.36
806.392	1.79
806.694	-0.19
806.996	2.03
807.298	0.1
807.6	3.23
807.902	-0.12
808.203	-1.74
808.505	-3.84
808.807	4.36
809.108	-0.48
809.409	4.89
809.711	2.87
810.012	4.81
810.313	5.35
810.615	-0.29
810.916	3.98
811.217	0.19
811.518	-4.71
811.819	3.9
812.12	7.3
812.421	5.01
812.722	-0.3
813.023	-0.88
813.323	-1.1
813.624	5.53
813.925	5.63
814.225	7.54
814.526	2.4
814.826	4.31
815.126	0.6
815.427	5.65
815.727	3.07
816.027	3.05
816.327	6.12
816.627	5.16
816.927	1.32
817.227	-1.47
817.527	-1.97
817.827	0.75
818.127	5.33
818.427	7.52
818.727	-3.66
819.026	0.09
819.326	3.89
819.625	2.53
819.925	4.4
820.224	7.19
820.524	3.71
820.823	5.92
821.122	3.49
821.421	3.26
821.72	8.59
822.019	3.36
822.318	3.02
822.617	-1.2
822.916	4.08
823.215	4.99
823.514	4.36
823.813	4.92
824.111	3.71
824.41	3.05
824.709	3.94
825.007	3.46
825.306	4.07
825.604	3.86
825.902	4.4
826.201	3.87
826.499	5.54
826.797	4.93
827.095	3.44
827.393	5.35
827.691	6.12
827.989	2.14
828.287	4.04
828.585	3.43
828.882	3.84
829.18	3.09
829.478	4.59
829.775	4.25
830.073	3.12
830.37	5.23
830.668	4.71
830.965	5.24
831.263	6.1
831.56	3.61
831.857	1.01
832.154	6.79
832.451	7.25
832.748	0.28
833.045	6.83
833.342	4.8
833.639	3.91
833.936	9.29
834.232	6.53
834.529	3.3
834.826	3.86
835.122	3.34
835.419	3.67
835.715	4.94
836.012	2.55
836.308	8.81
836.604	1.98
836.901	4.87
837.197	3.45
837.493	4.85
837.789	1.92
838.085	4.38
838.381	5.81
838.677	9.59
838.972	4.25
839.268	1.99
839.564	2.17
839.86	3.22
840.155	-2.5
840.451	1.86
840.746	4.5
841.042	-0.2
841.337	-2.16
841.632	2.24
841.928	7.41
842.223	0.86
842.518	0.43
842.813	-8.01
843.108	6.82
843.403	6.76
843.698	-2.48
843.993	0.04
844.287	3.59
844.582	6.55
844.877	-8.1
845.171	11.82
845.466	15.14
845.761	-1.68
846.055	-0.52
846.349	-3.26
846.644	9.02
846.938	-17.68
847.232	8.52
847.526	13
847.82	9.24
848.114	15.63
848.408	-5.05
848.702	-11.39
848.996	-1.52
849.29	-17.55
849.584	9.79
849.877	10.67
850.171	-3.58
850.465	0.94
850.758	-5.76
851.052	1.92
851.345	12.9
851.638	15.81
851.932	8.01
852.225	4.88
852.518	15.33
852.811	-2
853.104	-2.71
853.397	-0.26
853.69	-1.13
853.983	3.99
854.276	0.94
854.569	23.61
854.861	0.53
855.154	17.17
855.447	3.51
855.739	13.08
856.032	17.03
856.324	1.84
856.616	-5.61
856.909	-16.7
857.201	-1
857.493	6.28
857.785	-12.57
858.077	-12.91
858.369	-9.56
858.661	-3.17
858.953	2.05
859.245	-2.65
859.537	-12.2
859.829	5.55
860.12	-8.85
860.412	-14.94
860.703	-5.69
860.995	-5.78
861.286	-31.92
861.578	-14.81
861.869	-12.43
862.16	-41.36
862.452	-8.4
862.743	10.14
863.034	14.1
863.325	22.86
863.616	3.36
863.907	10.48
864.198	-0.58
864.488	2.7
864.779	-13.95
865.07	-9.51
865.36	5.12
865.651	-20.48
865.941	13.04
866.232	-14.07
866.522	-34
866.813	-30.38
867.103	5.03
867.393	-1.86
867.683	-16.95
867.973	11.87
868.263	-2.52
868.553	-28.6
868.843	-18
869.133	-2.21
869.423	4.08
869.713	16.42
870.002	-3.44
870.292	-12.95
870.582	0.59
870.871	-35.75
871.161	12.81
871.45	-6.31
871.739	-22.65
872.029	-22.32
872.318	4.39
872.607	-31.66
872.896	-28.53
873.185	23.68
873.474	-3.08
873.763	-3.46
874.052	8.67
874.341	-18.12
874.63	-2.46
874.918	-21.34
875.207	-21.09
875.496	14.56
875.784	-25.65
876.073	-24.86
876.361	-1.89
876.649	8.83
876.938	-19.61
877.226	21.19
877.514	-10.3
877.802	-3.99
878.09	14.19
878.378	2.04
878.666	-4.37
878.954	-14.34
879.242	1.35
879.53	5.53
879.817	19.2
880.105	-29.59
880.392	-20.35
880.68	-11.73
880.967	-50.14
881.255	13.95
881.542	7.31
881.83	1.67
882.117	3.7
882.404	-2.17
882.691	7.71
882.978	10.41
883.265	-5.29
883.552	4.75
883.839	0.32
884.126	8.56
884.413	-2.51
884.699	-1.9
884.986	7.35
885.273	-1.29
885.559	-1.29
885.846	-1.29
