Data from 0361_forehead_Reflection__3__14.txt Node

Date: Mon Dec 11 17:40:11 CST 2023
User: ToomeyLab
Spectrometer: FLMS14357
Trigger mode: 0
Integration Time (sec): 1.000000E-2
Scans to average: 100
Electric dark correction enabled: true
Nonlinearity correction enabled: false
Boxcar width: 0
XAxis mode: Wavelengths
Number of Pixels in Spectrum: 2048
>>>>>Begin Spectral Data<<<<<
189.047	-129.09
189.435	-129.09
189.823	-129.09
190.211	77.21
190.599	1935.84
190.987	79.6
191.375	138.77
191.763	128.87
192.151	22.14
192.538	37.56
192.926	58.07
193.314	43.81
193.702	-260.45
194.089	-54.4
194.477	-50.93
194.864	202.88
195.252	59.19
195.639	1247.58
196.027	493.91
196.414	11025
196.801	106.8
197.189	-146.2
197.576	82.13
197.963	-37.11
198.351	35.48
198.738	58.98
199.125	3.11
199.512	41.62
199.899	47.81
200.286	41.19
200.673	20.25
201.06	58.52
201.447	19.3
201.833	21
202.22	42.84
202.607	4.35
202.994	-22.15
203.38	-7.43
203.767	59.02
204.154	67.98
204.54	-12.88
204.927	17.3
205.313	20.03
205.699	33.01
206.086	3.1
206.472	35.74
206.858	16.17
207.245	28.14
207.631	11.13
208.017	30.02
208.403	14.14
208.789	-4.58
209.175	54.02
209.561	22.13
209.947	29.61
210.333	39.71
210.719	28.75
211.105	46.73
211.491	41.99
211.876	41.5
212.262	42.22
212.648	50.99
213.034	33.34
213.419	20
213.805	36.62
214.19	19.19
214.576	27.98
214.961	-4.64
215.346	42.09
215.732	29.23
216.117	32.64
216.502	38.75
216.888	19.67
217.273	49.61
217.658	32.52
218.043	6.97
218.428	39.42
218.813	21.83
219.198	17.2
219.583	31.6
219.968	25.23
220.353	-2.21
220.738	35.27
221.122	30.81
221.507	34.73
221.892	18.5
222.276	14.96
222.661	13.42
223.046	17.14
223.43	24.5
223.815	13.8
224.199	21.32
224.583	10.8
224.968	13.34
225.352	16.99
225.736	15.09
226.121	9.48
226.505	0.52
226.889	13.82
227.273	14.3
227.657	14.09
228.041	11.53
228.425	8.96
228.809	2.35
229.193	7.47
229.577	7.1
229.961	3.88
230.344	6.77
230.728	5.08
231.112	5.52
231.495	6.25
231.879	6.38
232.263	5.34
232.646	6.79
233.03	6.13
233.413	7.31
233.797	7.38
234.18	7.72
234.563	7.97
234.946	7.34
235.33	9.75
235.713	7
236.096	7.3
236.479	7.54
236.862	4.48
237.245	5.92
237.628	5.31
238.011	7.25
238.394	5.81
238.777	5.28
239.16	4.02
239.543	7.69
239.925	4.65
240.308	5.91
240.691	8.36
241.073	7.75
241.456	7.03
241.838	8.18
242.221	6.9
242.603	5.87
242.986	5.25
243.368	5.67
243.75	5.85
244.133	5.17
244.515	5.03
244.897	5.46
245.279	5.58
245.661	4.98
246.043	5.53
246.425	5.76
246.807	5.88
247.189	6.63
247.571	6.08
247.953	5.37
248.335	5.66
248.717	5.43
249.098	5.14
249.48	5.37
249.862	5.41
250.243	5.52
250.625	4.99
251.006	5.3
251.388	5.54
251.769	6.14
252.151	7.11
252.532	5.97
252.913	6.29
253.295	6.6
253.676	5.4
254.057	5.3
254.438	5.65
254.819	4.89
255.2	5.83
255.581	4.94
255.962	7
256.343	5.01
256.724	7.11
257.105	5.3
257.486	5.21
257.867	7.17
258.247	5.71
258.628	5.94
259.009	6.21
259.389	6.03
259.77	5.51
260.15	5.45
260.531	5.67
260.911	4.54
261.292	4.77
261.672	4.98
262.052	4.87
262.432	5.16
262.813	5.46
263.193	4.58
263.573	5.29
263.953	5.97
264.333	4.82
264.713	5.55
265.093	5.9
265.473	6.42
265.853	5.55
266.233	5.28
266.612	5.66
266.992	6.04
267.372	6.36
267.752	5.65
268.131	6.09
268.511	5.63
268.89	5.25
269.27	5.8
269.649	5.5
270.029	6
270.408	5.01
270.787	4.66
271.167	4.64
271.546	5.39
271.925	4.81
272.304	5.44
272.683	5.15
273.062	5.07
273.441	4.93
273.82	5.32
274.199	5.18
274.578	5.03
274.957	5.12
275.336	5.15
275.715	5.25
276.093	5.66
276.472	6.03
276.851	5.83
277.229	5.4
277.608	4.88
277.986	5.35
278.365	5.11
278.743	4.88
279.122	5.58
279.5	5.86
279.878	4.88
280.257	4.97
280.635	4.86
281.013	5.39
281.391	5.47
281.769	5.5
282.147	4.96
282.525	4.53
282.903	5.35
283.281	4.83
283.659	5.46
284.037	4.71
284.415	4.91
284.792	5.3
285.17	5.03
285.548	5.63
285.925	4.62
286.303	5.22
286.68	4.74
287.058	5.06
287.435	5.26
287.813	5.09
288.19	5.07
288.567	5.02
288.945	5.04
289.322	4.63
289.699	5.13
290.076	4.85
290.453	5.52
290.83	6.08
291.207	5.31
291.584	5.67
291.961	5.39
292.338	5.65
292.715	5.63
293.092	5.5
293.469	5.52
293.845	5.45
294.222	6.49
294.599	5.76
294.975	5.57
295.352	5.66
295.728	6.06
296.105	6.09
296.481	5.77
296.858	5.49
297.234	5.82
297.61	6.32
297.986	6.16
298.363	6.04
298.739	6.23
299.115	6.02
299.491	5.99
299.867	6.15
300.243	6.28
300.619	6.26
300.995	6.11
301.371	6.5
301.746	6
302.122	6.14
302.498	6.65
302.874	6.81
303.249	6.83
303.625	6.68
304	7.13
304.376	6.8
304.751	6.46
305.127	6.88
305.502	6.71
305.878	7.04
306.253	7.04
306.628	7.74
307.003	7.33
307.378	6.55
307.754	7.4
308.129	7.46
308.504	7.17
308.879	7.59
309.254	8.32
309.629	8.25
310.003	8.02
310.378	7.39
310.753	7.86
311.128	7.69
311.502	7.87
311.877	7.9
312.252	8.35
312.626	8.16
313.001	8.22
313.375	8.02
313.75	8.22
314.124	8.43
314.498	8.54
314.873	8.45
315.247	8.87
315.621	9.23
315.995	9.18
316.369	9.02
316.743	8.97
317.117	8.96
317.491	9.35
317.865	9.04
318.239	9.51
318.613	9.33
318.987	9.46
319.361	9.81
319.734	9.62
320.108	9.67
320.482	9.69
320.855	9.54
321.229	9.97
321.602	9.58
321.976	10.4
322.349	10.02
322.723	10.17
323.096	10.27
323.469	11.23
323.843	10.88
324.216	10.83
324.589	11.06
324.962	10.28
325.335	9.97
325.708	10.55
326.081	10.74
326.454	10.63
326.827	10.68
327.2	10.69
327.573	10.63
327.945	11.28
328.318	11.18
328.691	11.03
329.063	10.88
329.436	11.58
329.809	10.97
330.181	11.89
330.553	12.04
330.926	11.25
331.298	11.87
331.671	11.87
332.043	12.01
332.415	11.73
332.787	12.39
333.159	12.03
333.532	12.12
333.904	12.54
334.276	12.15
334.648	12.06
335.02	11.82
335.391	12.02
335.763	12.26
336.135	12.32
336.507	12.43
336.879	12.79
337.25	12.26
337.622	12.76
337.993	12.14
338.365	12.67
338.736	12.8
339.108	13.08
339.479	12.66
339.851	12.2
340.222	13.47
340.593	12.9
340.964	13.28
341.336	13.18
341.707	13.15
342.078	13.51
342.449	12.69
342.82	13.05
343.191	12.56
343.562	13.24
343.933	13.18
344.303	13.36
344.674	13.51
345.045	13.63
345.416	13.44
345.786	13.84
346.157	13.89
346.527	13.91
346.898	13.41
347.268	13.99
347.639	13.79
348.009	13.76
348.38	14.37
348.75	14.18
349.12	14.38
349.49	14.05
349.861	14.43
350.231	14.51
350.601	15.13
350.971	14.61
351.341	14.22
351.711	14.72
352.081	14.5
352.45	14.83
352.82	14.51
353.19	15
353.56	14.47
353.929	15.1
354.299	14.87
354.669	15.1
355.038	15.13
355.408	14.68
355.777	15.33
356.147	15.41
356.516	15.08
356.885	15.21
357.254	15.18
357.624	15.67
357.993	15.52
358.362	15.86
358.731	15.34
359.1	15.77
359.469	15.33
359.838	15.82
360.207	15.55
360.576	15.61
360.945	15.95
361.314	16.31
361.682	16.08
362.051	16.21
362.42	15.88
362.788	15.93
363.157	15.98
363.525	16.1
363.894	16.21
364.262	16.23
364.631	16.36
364.999	16.18
365.367	16.8
365.735	16.28
366.104	16.64
366.472	16.76
366.84	16.65
367.208	16.72
367.576	16.9
367.944	16.96
368.312	16.83
368.68	16.94
369.048	17.14
369.416	16.95
369.783	17.36
370.151	17.55
370.519	17.62
370.886	17.57
371.254	17.67
371.621	17.48
371.989	17.73
372.356	17.73
372.724	17.99
373.091	17.91
373.458	17.78
373.826	18.08
374.193	17.85
374.56	18.31
374.927	17.89
375.294	18.08
375.661	18.15
376.028	18.47
376.395	18.31
376.762	18.69
377.129	18.92
377.496	18.39
377.863	18.86
378.229	18.52
378.596	18.69
378.963	18.56
379.329	19.08
379.696	18.97
380.062	18.95
380.429	18.97
380.795	19.11
381.161	19.36
381.528	19.36
381.894	19.36
382.26	19.56
382.626	19.31
382.993	19.4
383.359	19.69
383.725	19.44
384.091	19.82
384.457	19.54
384.823	19.89
385.188	19.63
385.554	19.94
385.92	19.8
386.286	20.19
386.651	20.2
387.017	20.2
387.383	20.25
387.748	20.17
388.114	20.31
388.479	20.21
388.845	20.19
389.21	20.47
389.575	20.73
389.94	20.52
390.306	20.7
390.671	20.52
391.036	20.46
391.401	20.83
391.766	20.66
392.131	20.83
392.496	21.17
392.861	21.04
393.226	21.29
393.591	21.17
393.956	21.28
394.32	21.41
394.685	21.31
395.05	21.63
395.414	21.53
395.779	21.47
396.143	21.38
396.508	21.45
396.872	21.76
397.236	21.88
397.601	21.76
397.965	21.88
398.329	21.88
398.694	21.91
399.058	22.03
399.422	21.91
399.786	22.15
400.15	22.03
400.514	22.31
400.878	22.42
401.242	22.32
401.605	22.37
401.969	22.38
402.333	22.52
402.697	22.93
403.06	22.73
403.424	22.83
403.787	22.86
404.151	22.8
404.514	22.99
404.878	23.03
405.241	23.05
405.604	23.18
405.968	22.95
406.331	23.1
406.694	23.13
407.057	23.21
407.42	23.47
407.783	23.39
408.146	23.85
408.509	23.64
408.872	23.66
409.235	23.74
409.598	23.84
409.961	23.9
410.323	24.09
410.686	24.04
411.049	24.02
411.411	24.07
411.774	24.3
412.136	24.04
412.499	24.42
412.861	24.15
413.223	24.37
413.586	24.42
413.948	24.46
414.31	24.64
414.672	24.57
415.035	24.57
415.397	24.88
415.759	24.86
416.121	24.77
416.483	24.93
416.845	24.96
417.206	25.02
417.568	24.72
417.93	25.36
418.292	24.95
418.653	24.8
419.015	25.28
419.377	25.46
419.738	25.27
420.1	25.34
420.461	25.23
420.822	25.35
421.184	25.27
421.545	25.35
421.906	25.31
422.267	25.41
422.629	25.15
422.99	25.26
423.351	25.32
423.712	25.38
424.073	25.47
424.434	25.6
424.795	25.95
425.155	25.82
425.516	25.85
425.877	25.79
426.238	25.88
426.598	26.01
426.959	25.97
427.32	26.25
427.68	26.35
428.041	26.21
428.401	26.34
428.761	26.6
429.122	26.57
429.482	26.92
429.842	26.71
430.202	26.89
430.563	26.86
430.923	27
431.283	27.27
431.643	27.33
432.003	27.29
432.363	27.38
432.722	27.35
433.082	27.28
433.442	27.44
433.802	27.42
434.161	27.57
434.521	27.45
434.881	27.4
435.24	27.68
435.6	27.46
435.959	27.64
436.319	27.81
436.678	28
437.037	27.88
437.396	28.13
437.756	28.42
438.115	28.14
438.474	28.23
438.833	28.28
439.192	28.48
439.551	28.37
439.91	28.45
440.269	28.36
440.628	28.57
440.987	28.51
441.345	28.57
441.704	28.63
442.063	28.67
442.421	28.81
442.78	28.65
443.138	28.86
443.497	28.96
443.855	28.87
444.214	29.19
444.572	29.23
444.93	29.35
445.288	29.34
445.647	29.35
446.005	29.17
446.363	29.38
446.721	29.48
447.079	29.36
447.437	29.45
447.795	29.32
448.153	29.45
448.51	29.39
448.868	29.36
449.226	29.54
449.584	29.76
449.941	29.88
450.299	29.89
450.656	29.99
451.014	30.23
451.371	29.92
451.729	30.17
452.086	30.29
452.443	30.59
452.801	30.38
453.158	30.63
453.515	30.44
453.872	30.7
454.229	30.56
454.586	30.77
454.943	30.8
455.3	30.83
455.657	30.83
456.014	30.95
456.371	31.12
456.727	31.18
457.084	31.12
457.441	31.4
457.797	31.55
458.154	31.57
458.51	31.61
458.867	31.37
459.223	31.58
459.58	31.53
459.936	31.62
460.292	31.55
460.648	31.5
461.005	31.68
461.361	31.55
461.717	31.57
462.073	31.42
462.429	31.5
462.785	31.79
463.141	31.97
463.496	32.04
463.852	32.28
464.208	32.34
464.564	32.33
464.919	32.46
465.275	32.17
465.631	32.21
465.986	32.63
466.342	32.63
466.697	32.83
467.052	32.67
467.408	33
467.763	32.82
468.118	32.76
468.473	32.89
468.829	32.91
469.184	33.17
469.539	33.21
469.894	33.23
470.249	33.58
470.603	33.18
470.958	33.59
471.313	33.43
471.668	33.51
472.023	33.69
472.377	33.69
472.732	33.5
473.086	33.87
473.441	33.89
473.795	33.77
474.15	33.92
474.504	33.97
474.859	34.17
475.213	34.03
475.567	34
475.921	34.01
476.275	34.38
476.63	34.15
476.984	34.24
477.338	34.45
477.692	34.38
478.045	34.52
478.399	34.41
478.753	34.58
479.107	34.59
479.461	34.78
479.814	34.78
480.168	34.85
480.521	34.85
480.875	34.82
481.228	34.65
481.582	35.1
481.935	34.9
482.289	35.03
482.642	34.93
482.995	34.99
483.348	34.91
483.701	34.93
484.055	34.86
484.408	34.7
484.761	34.71
485.114	34.4
485.466	34.13
485.819	34.36
486.172	34.55
486.525	34.64
486.878	34.66
487.23	34.86
487.583	34.99
487.936	35.09
488.288	35.23
488.641	35.13
488.993	34.93
489.345	35
489.698	35.05
490.05	35.21
490.402	35.16
490.754	35.32
491.107	35.61
491.459	35.8
491.811	35.79
492.163	36.15
492.515	36.07
492.866	35.84
493.218	35.76
493.57	35.71
493.922	35.76
494.274	35.88
494.625	36.12
494.977	36.35
495.328	36.52
495.68	36.88
496.031	36.9
496.383	37.14
496.734	37.23
497.086	37.14
497.437	37.32
497.788	37.42
498.139	37.15
498.49	37.22
498.842	37.21
499.193	37.21
499.544	37.32
499.894	37.37
500.245	37.63
500.596	37.7
500.947	37.67
501.298	37.84
501.648	37.88
501.999	38.11
502.35	38.1
502.7	38.14
503.051	38.08
503.401	38.54
503.752	38.46
504.102	38.35
504.452	38.53
504.803	38.64
505.153	38.74
505.503	38.74
505.853	38.48
506.203	38.75
506.553	38.65
506.903	38.66
507.253	38.75
507.603	38.95
507.953	39.06
508.303	39.07
508.652	39.21
509.002	39.07
509.352	39.18
509.701	39.21
510.051	39.33
510.4	39.41
510.75	39.12
511.099	39.34
511.449	39.31
511.798	39.21
512.147	39.28
512.496	39.48
512.846	39.41
513.195	39.65
513.544	39.48
513.893	39.6
514.242	39.63
514.591	39.67
514.939	39.69
515.288	40.04
515.637	39.8
515.986	39.95
516.334	40.23
516.683	40.25
517.032	40.5
517.38	40.29
517.729	40.42
518.077	40.68
518.426	40.52
518.774	40.41
519.122	40.45
519.47	40.46
519.819	40.29
520.167	40.24
520.515	40.26
520.863	40.29
521.211	40.29
521.559	40.49
521.907	40.77
522.255	40.74
522.602	40.87
522.95	40.87
523.298	41.18
523.645	41.35
523.993	41.22
524.341	41.39
524.688	41.39
525.036	41.42
525.383	41.44
525.73	41.56
526.078	41.48
526.425	41.55
526.772	41.39
527.119	41.42
527.466	41.26
527.814	41.13
528.161	41.32
528.508	41.41
528.854	41.35
529.201	41.31
529.548	41.21
529.895	41.07
530.242	40.75
530.588	41.09
530.935	41.32
531.282	41.37
531.628	41.29
531.975	41.45
532.321	41.72
532.667	41.87
533.014	41.94
533.36	42.06
533.706	42.19
534.052	42.24
534.399	42.16
534.745	42.12
535.091	41.97
535.437	41.94
535.783	42.22
536.129	42.22
536.474	42.26
536.82	42.6
537.166	42.69
537.512	42.82
537.857	42.72
538.203	42.6
538.549	42.76
538.894	42.86
539.239	42.91
539.585	43.06
539.93	43.24
540.276	43.23
540.621	43.53
540.966	43.45
541.311	43.59
541.656	43.57
542.001	43.61
542.346	43.36
542.691	43.18
543.036	42.87
543.381	42.9
543.726	43.18
544.071	43.19
544.415	43.31
544.76	43.43
545.105	43.51
545.449	43.6
545.794	43.97
546.138	44.08
546.483	44.06
546.827	44.4
547.171	44.37
547.516	44.19
547.86	44.37
548.204	44.38
548.548	44.22
548.892	44.51
549.236	44.43
549.58	44.75
549.924	44.72
550.268	44.74
550.612	44.97
550.956	45.14
551.3	45
551.643	45.36
551.987	45.35
552.33	45.61
552.674	45.49
553.017	45.7
553.361	45.52
553.704	45.53
554.048	45.6
554.391	45.74
554.734	45.56
555.077	45.94
555.42	45.74
555.764	45.74
556.107	46.19
556.45	46.18
556.793	46.12
557.135	46.47
557.478	46.53
557.821	46.35
558.164	46.52
558.507	46.37
558.849	46.51
559.192	46.5
559.534	46.55
559.877	46.59
560.219	46.73
560.562	46.92
560.904	46.91
561.246	47.1
561.589	46.81
561.931	47.11
562.273	46.75
562.615	47.08
562.957	47.26
563.299	47.18
563.641	47.14
563.983	47.39
564.325	47.34
564.667	47.44
565.008	47.32
565.35	47.34
565.692	47.37
566.033	47.27
566.375	47.63
566.716	47.78
567.058	47.47
567.399	47.71
567.741	47.46
568.082	47.67
568.423	47.48
568.764	47.65
569.105	47.62
569.447	47.7
569.788	47.62
570.129	47.74
570.47	47.78
570.811	47.88
571.151	48.02
571.492	48.03
571.833	48.31
572.174	48.29
572.514	48.09
572.855	48.22
573.195	48.17
573.536	48.51
573.876	48.15
574.217	48.17
574.557	48.43
574.898	48.67
575.238	48.49
575.578	48.73
575.918	48.6
576.258	48.48
576.598	48.82
576.938	48.67
577.278	48.74
577.618	49.04
577.958	48.5
578.298	48.98
578.638	48.86
578.977	48.96
579.317	49.09
579.657	49.08
579.996	49.4
580.336	49.48
580.675	49.31
581.014	49.44
581.354	49.78
581.693	49.56
582.032	49.69
582.372	49.95
582.711	50.05
583.05	49.73
583.389	50.08
583.728	50.38
584.067	49.97
584.406	50.18
584.745	50.36
585.083	50.19
585.422	50.22
585.761	50.33
586.1	50.37
586.438	50.21
586.777	50.53
587.115	50.18
587.454	50.53
587.792	50.5
588.13	50.61
588.469	50.6
588.807	50.55
589.145	50.95
589.483	50.89
589.821	50.7
590.159	50.52
590.497	50.61
590.835	50.92
591.173	50.92
591.511	51.05
591.849	50.67
592.187	50.82
592.524	50.8
592.862	51.08
593.2	50.9
593.537	51.02
593.875	51.18
594.212	51.24
594.55	51
594.887	51.44
595.224	51.17
595.561	51.43
595.899	51.08
596.236	51.53
596.573	51.27
596.91	51.63
597.247	51.41
597.584	51.58
597.921	51.38
598.258	51.17
598.594	51.22
598.931	51.16
599.268	51.45
599.604	51.37
599.941	51.47
600.277	51.48
600.614	51.76
600.95	51.67
601.287	52.05
601.623	52.43
601.959	52.35
602.296	52.13
602.632	52.3
602.968	52.35
603.304	52.14
603.64	52.25
603.976	52.03
604.312	52.42
604.648	52.19
604.984	52.54
605.319	52.37
605.655	52.3
605.991	51.91
606.326	52.57
606.662	51.94
606.998	52.22
607.333	52.25
607.668	52.42
608.004	52.48
608.339	53.03
608.674	52.59
609.01	52.52
609.345	52.87
609.68	53.08
610.015	53.11
610.35	53.06
610.685	52.95
611.02	52.85
611.355	52.85
611.689	53
612.024	53.05
612.359	53
612.694	52.96
613.028	52.96
613.363	53.39
613.697	53.3
614.032	53.42
614.366	53.15
614.7	53.46
615.035	53.6
615.369	53.46
615.703	53.61
616.037	53.56
616.371	53.97
616.705	54.34
617.039	54.29
617.373	53.89
617.707	54.02
618.041	53.76
618.375	54.47
618.709	54.25
619.042	54.21
619.376	53.98
619.71	53.71
620.043	54.53
620.377	54.37
620.71	54.58
621.043	54.34
621.377	53.77
621.71	54.25
622.043	54.76
622.376	54.58
622.709	54.47
623.043	54.71
623.376	54.39
623.709	54.81
624.041	54.69
624.374	55.01
624.707	54.98
625.04	54.85
625.373	55.04
625.705	54.67
626.038	54.76
626.37	55.15
626.703	55.2
627.035	54.93
627.368	55.22
627.7	55.35
628.032	55
628.365	55.06
628.697	55.07
629.029	55.26
629.361	55.06
629.693	55.75
630.025	55.27
630.357	55.44
630.689	55.14
631.021	55.1
631.353	55.31
631.684	55.7
632.016	55.89
632.348	55.75
632.679	55.24
633.011	55.66
633.342	55.41
633.674	55.91
634.005	56.22
634.336	55.75
634.668	56
634.999	55.61
635.33	55.75
635.661	56.04
635.992	56.14
636.323	55.96
636.654	55.97
636.985	55.97
637.316	56.16
637.647	55.98
637.977	55.8
638.308	56.85
638.639	56.28
638.969	56.21
639.3	56.45
639.63	56.12
639.961	56.3
640.291	57.03
640.622	56.35
640.952	56.73
641.282	56.92
641.612	56.6
641.943	57.32
642.273	57.11
642.603	56.97
642.933	56.94
643.263	56.7
643.592	57.22
643.922	56.67
644.252	56.98
644.582	57.34
644.911	57.28
645.241	56.51
645.571	57.04
645.9	57.26
646.23	57.68
646.559	57.74
646.888	57.4
647.218	57.27
647.547	57.23
647.876	57.46
648.205	57.89
648.534	57.58
648.863	57.23
649.192	57.37
649.521	58.26
649.85	58
650.179	57.47
650.508	57.69
650.837	57.91
651.165	57.79
651.494	57.45
651.822	58.21
652.151	57.71
652.479	57.42
652.808	58.12
653.136	57.87
653.465	58.38
653.793	58.04
654.121	58.38
654.449	58.4
654.777	58.19
655.105	58.44
655.433	57.91
655.761	58.71
656.089	58.51
656.417	57.71
656.745	58.39
657.073	58.22
657.4	58.77
657.728	58.1
658.056	58.62
658.383	58.21
658.711	58.15
659.038	59.11
659.365	58.44
659.693	58.83
660.02	58.21
660.347	58.63
660.674	58.7
661.001	58.27
661.329	58.59
661.656	58.12
661.982	58.62
662.309	58.92
662.636	58.69
662.963	59.33
663.29	58.34
663.616	58.28
663.943	58.35
664.27	59.27
664.596	58.99
664.923	59.49
665.249	59.48
665.576	58.67
665.902	58.69
666.228	58.64
666.554	59.19
666.881	58.75
667.207	59.04
667.533	59.69
667.859	59.34
668.185	59.57
668.511	59.7
668.837	59.76
669.162	59.09
669.488	59.31
669.814	59.26
670.139	59.1
670.465	59.71
670.791	59.57
671.116	59.36
671.442	59.58
671.767	59.86
672.092	60.01
672.418	59.19
672.743	58.95
673.068	59.78
673.393	60
673.718	59.71
674.043	59.72
674.368	60.15
674.693	60.18
675.018	59.35
675.343	58.96
675.667	60.37
675.992	60.03
676.317	59.9
676.641	59.61
676.966	60.45
677.29	59.86
677.615	59.51
677.939	59.39
678.264	59.7
678.588	59.97
678.912	59.93
679.236	59.57
679.56	59.82
679.885	59.53
680.209	59.99
680.532	60.12
680.856	60.31
681.18	60.69
681.504	60.36
681.828	60.14
682.152	59.77
682.475	60.94
682.799	60.51
683.122	60.38
683.446	59.97
683.769	60.11
684.093	60.46
684.416	60.94
684.739	60.55
685.062	60.95
685.386	60.47
685.709	60.45
686.032	61.34
686.355	60.83
686.678	60.76
687.001	60.93
687.324	60.09
687.646	61.63
687.969	61.49
688.292	61.05
688.614	60.87
688.937	61.59
689.26	60.92
689.582	60.92
689.904	60.9
690.227	61.21
690.549	61.46
690.871	60.97
691.194	60.78
691.516	61.52
691.838	61.16
692.16	60.71
692.482	60.48
692.804	61.05
693.126	61.74
693.448	61.22
693.769	61.32
694.091	60.93
694.413	61.58
694.735	60.88
695.056	62.41
695.378	61.63
695.699	60.92
696.021	62.18
696.342	61.51
696.663	62.25
696.984	60.97
697.306	62.61
697.627	61.72
697.948	61.81
698.269	61.79
698.59	62.11
698.911	62.12
699.232	60.73
699.553	62.01
699.873	61.36
700.194	61.77
700.515	62.18
700.835	61.8
701.156	62.33
701.477	61.8
701.797	62.04
702.117	62.3
702.438	61.67
702.758	61.67
703.078	61.87
703.398	61.02
703.719	62.02
704.039	61.76
704.359	62.09
704.679	63.04
704.999	62.31
705.319	61.32
705.638	63.76
705.958	61.84
706.278	63.22
706.597	62.69
706.917	63.94
707.237	63.12
707.556	62.84
707.876	61.85
708.195	62.59
708.514	63.06
708.834	62.89
709.153	61.53
709.472	61.65
709.791	62.48
710.11	62.84
710.429	62.37
710.748	61.74
711.067	62.69
711.386	62.76
711.705	62.13
712.023	63.38
712.342	63.63
712.661	62.13
712.979	63.78
713.298	62.43
713.616	62.64
713.935	62.42
714.253	62.48
714.572	63.16
714.89	63
715.208	63.48
715.526	63.78
715.844	62.81
716.162	62.3
716.48	62.59
716.798	63.44
717.116	63.47
717.434	63.55
717.752	62.77
718.069	63.5
718.387	64.99
718.705	62.95
719.022	62.27
719.34	63.28
719.657	62.64
719.975	63.85
720.292	63.9
720.609	64.93
720.927	63.94
721.244	63.1
721.561	64.13
721.878	64.24
722.195	65.6
722.512	63.51
722.829	63.9
723.146	62.81
723.463	63.51
723.779	62.2
724.096	63.33
724.413	64.47
724.729	64.7
725.046	64.03
725.362	63.4
725.679	64.6
725.995	63.64
726.311	63.53
726.628	64.46
726.944	64.28
727.26	64.69
727.576	64.01
727.892	62.56
728.208	63.79
728.524	64.37
728.84	62.58
729.156	64.02
729.472	62.99
729.787	62.48
730.103	63.98
730.419	64.83
730.734	63.66
731.05	64.4
731.365	63.89
731.681	63.61
731.996	64.64
732.311	63.95
732.626	65.01
732.942	63.95
733.257	64.4
733.572	63.5
733.887	65.46
734.202	65.47
734.517	65.2
734.832	64
735.146	65.05
735.461	63.48
735.776	64.67
736.091	64.51
736.405	64.28
736.72	63.52
737.034	64.56
737.349	65.18
737.663	63.73
737.977	64.29
738.292	63.99
738.606	64.55
738.92	65.82
739.234	64.75
739.548	64.53
739.862	64.29
740.176	63.5
740.49	64.54
740.804	64.32
741.117	63.83
741.431	66.06
741.745	63.54
742.058	65.47
742.372	65.8
742.685	64.81
742.999	65.47
743.312	64.46
743.626	64.15
743.939	64.05
744.252	66.21
744.565	64.37
744.878	64.77
745.191	63.5
745.505	66.28
745.817	64.31
746.13	66.7
746.443	65.39
746.756	65.95
747.069	67.23
747.381	65.36
747.694	65.34
748.007	66.42
748.319	64.75
748.632	65.16
748.944	62.13
749.256	64.88
749.569	64.3
749.881	66.87
750.193	66.14
750.505	65.87
750.817	63.53
751.129	65.71
751.441	66.33
751.753	64.86
752.065	65.88
752.377	65.8
752.689	65.61
753	66.07
753.312	64.2
753.624	64.96
753.935	64.44
754.247	66.09
754.558	65.47
754.869	66.29
755.181	67.17
755.492	65.56
755.803	65.81
756.114	64.4
756.425	65.12
756.736	66.8
757.047	67.26
757.358	66.03
757.669	66.34
757.98	67.23
758.291	66.82
758.601	66.96
758.912	65.29
759.223	64.23
759.533	63.75
759.844	65.77
760.154	65.67
760.464	65.62
760.775	66.12
761.085	67.67
761.395	65.73
761.705	65.42
762.016	66.47
762.326	65.79
762.636	68.77
762.945	64.86
763.255	66
763.565	66.41
763.875	65.38
764.185	66.28
764.494	64.9
764.804	64.91
765.113	67.8
765.423	65.58
765.732	66.15
766.042	66.08
766.351	65.29
766.66	66.88
766.97	66.48
767.279	67.47
767.588	65.47
767.897	65.43
768.206	66.39
768.515	62.91
768.824	65.68
769.133	66.58
769.441	66.59
769.75	68
770.059	65.25
770.367	65.75
770.676	66.6
770.984	65.46
771.293	64.95
771.601	66.55
771.91	66.43
772.218	65.87
772.526	65.02
772.834	66.5
773.142	64.99
773.45	68.44
773.758	63.96
774.066	67.23
774.374	66.85
774.682	66.95
774.99	66.47
775.298	64.87
775.605	67.91
775.913	70.72
776.22	68.32
776.528	67.17
776.835	63.55
777.143	64.26
777.45	65.88
777.757	63.93
778.065	68.02
778.372	68.89
778.679	66.8
778.986	69.71
779.293	69.37
779.6	66.65
779.907	65.01
780.214	63.89
780.52	66.76
780.827	67.13
781.134	63.95
781.44	67.94
781.747	66.14
782.053	68.02
782.36	70.31
782.666	65.79
782.973	64.92
783.279	66.68
783.585	65.99
783.891	69.35
784.197	68.75
784.503	66.58
784.809	68
785.115	67
785.421	65.37
785.727	68.72
786.033	63.87
786.339	69.68
786.644	70.01
786.95	68.83
787.255	68.29
787.561	68.58
787.866	66.96
788.172	65.5
788.477	67.79
788.782	67.29
789.088	67.6
789.393	69.65
789.698	65.71
790.003	69.74
790.308	67.87
790.613	66.11
790.918	64.98
791.223	69.84
791.527	66.88
791.832	67.82
792.137	65.53
792.441	64.12
792.746	67.1
793.05	66.76
793.355	71.63
793.659	68.61
793.963	65.96
794.268	68.81
794.572	71.02
794.876	67.03
795.18	68.37
795.484	66.01
795.788	68.12
796.092	70.08
796.396	67.47
796.7	70.2
797.004	67.37
797.307	68.82
797.611	66.45
797.915	63.71
798.218	69.01
798.522	64.56
798.825	65.73
799.128	67.06
799.432	66.15
799.735	66.56
800.038	72.43
800.341	65.77
800.644	66.27
800.947	65.7
801.25	67.56
801.553	67.62
801.856	70.19
802.159	69.46
802.462	66.89
802.764	67.3
803.067	71.73
803.37	63.2
803.672	66.57
803.975	65.14
804.277	69.89
804.579	65.55
804.882	67.83
805.184	73.65
805.486	69.1
805.788	72.47
806.09	65.22
806.392	67.52
806.694	63.68
806.996	68.41
807.298	69.45
807.6	67.87
807.902	65.9
808.203	71.41
808.505	73.28
808.807	65.52
809.108	67.01
809.409	68.75
809.711	68.63
810.012	66.36
810.313	67.47
810.615	66.23
810.916	69.23
811.217	67.91
811.518	66.2
811.819	69.62
812.12	65
812.421	73.15
812.722	66.72
813.023	69.65
813.323	68.08
813.624	69.55
813.925	67.7
814.225	58.19
814.526	67.31
814.826	76.29
815.126	64.24
815.427	70.5
815.727	65.25
816.027	61.92
816.327	76.94
816.627	73.77
816.927	69.75
817.227	66.58
817.527	67.98
817.827	71.69
818.127	72.2
818.427	65.65
818.727	66.54
819.026	67.59
819.326	64.41
819.625	69.04
819.925	67.39
820.224	64.78
820.524	65.04
820.823	63.86
821.122	75.14
821.421	73.35
821.72	73.63
822.019	67.64
822.318	69.91
822.617	67.29
822.916	70.29
823.215	65.45
823.514	71.48
823.813	72.48
824.111	69.42
824.41	71.64
824.709	68.83
825.007	70.18
825.306	70.32
825.604	69.58
825.902	69.73
826.201	69.58
826.499	69.85
826.797	69.81
827.095	69.11
827.393	69.61
827.691	68.52
827.989	68.73
828.287	69.21
828.585	67.69
828.882	69.72
829.18	67.62
829.478	67.4
829.775	67.99
830.073	69.9
830.37	68.08
830.668	68.31
830.965	67.34
831.263	72.01
831.56	68.98
831.857	70.5
832.154	69.66
832.451	70.1
832.748	74.34
833.045	67.74
833.342	71.32
833.639	69.46
833.936	71.87
834.232	75.2
834.529	69.44
834.826	75.03
835.122	65.34
835.419	66.73
835.715	71.28
836.012	66.21
836.308	67.24
836.604	70.62
836.901	68.93
837.197	70.15
837.493	69.43
837.789	72.25
838.085	69.74
838.381	69
838.677	71.82
838.972	67.06
839.268	66.83
839.564	64.6
839.86	68.59
840.155	63.92
840.451	73.49
840.746	72.15
841.042	65.15
841.337	64.84
841.632	70.24
841.928	63.28
842.223	67.22
842.518	73.44
842.813	65.71
843.108	61.53
843.403	64.17
843.698	73.24
843.993	79.8
844.287	67.2
844.582	75.17
844.877	65.02
845.171	63.28
845.466	82.68
845.761	66.38
846.055	65.21
846.349	64.09
846.644	67.62
846.938	82.49
847.232	72.11
847.526	63.77
847.82	68.76
848.114	74.44
848.408	51.51
848.702	58.62
848.996	70.05
849.29	68.73
849.584	65.46
849.877	72.15
850.171	51.62
850.465	65.71
850.758	70.45
851.052	71.56
851.345	50.21
851.638	54.23
851.932	83.37
852.225	64.14
852.518	68.25
852.811	75.7
853.104	75.54
853.397	78.32
853.69	58.15
853.983	57.04
854.276	72.92
854.569	59.68
854.861	65.51
855.154	51.34
855.447	41.09
855.739	80.47
856.032	68.86
856.324	57.77
856.616	61.48
856.909	56.13
857.201	81.83
857.493	72.46
857.785	64.94
858.077	52.46
858.369	63.45
858.661	70.52
858.953	51.74
859.245	72.69
859.537	64.44
859.829	71.07
860.12	45.24
860.412	71.58
860.703	59.28
860.995	78.84
861.286	60.96
861.578	55.06
861.869	86.33
862.16	79.29
862.452	70.93
862.743	65.33
863.034	71.71
863.325	77.83
863.616	89.05
863.907	37.45
864.198	68.24
864.488	56.05
864.779	71.68
865.07	75.73
865.36	73.89
865.651	82.29
865.941	65.77
866.232	84.43
866.522	59.39
866.813	67.77
867.103	78.32
867.393	59.54
867.683	60
867.973	59.78
868.263	70.72
868.553	77.35
868.843	55.9
869.133	53.68
869.423	69.74
869.713	69.27
870.002	43.09
870.292	66.87
870.582	80.82
870.871	71.95
871.161	72.91
871.45	53.17
871.739	45.17
872.029	49.23
872.318	67.35
872.607	62.04
872.896	74.07
873.185	67.41
873.474	88.54
873.763	69.75
874.052	74.03
874.341	66.39
874.63	34.37
874.918	68.8
875.207	49.9
875.496	76.89
875.784	51.64
876.073	51.04
876.361	60.48
876.649	70.71
876.938	91.61
877.226	43.44
877.514	75.7
877.802	93.55
878.09	61.28
878.378	74.69
878.666	84.18
878.954	67.98
879.242	99
879.53	83.88
879.817	58.56
880.105	67.1
880.392	94.65
880.68	78.74
880.967	77.71
881.255	40.72
881.542	81.05
881.83	76.15
882.117	64.89
882.404	49.76
882.691	33.51
882.978	70.57
883.265	66.16
883.552	65.43
883.839	77.14
884.126	66.53
884.413	87.7
884.699	69.68
884.986	79.79
885.273	69.72
885.559	69.72
885.846	69.72
