Data from 0361_forehead_Reflection__0__11.txt Node

Date: Mon Dec 11 17:39:43 CST 2023
User: ToomeyLab
Spectrometer: FLMS14357
Trigger mode: 0
Integration Time (sec): 1.000000E-2
Scans to average: 100
Electric dark correction enabled: true
Nonlinearity correction enabled: false
Boxcar width: 0
XAxis mode: Wavelengths
Number of Pixels in Spectrum: 2048
>>>>>Begin Spectral Data<<<<<
189.047	-50.66
189.435	-50.66
189.823	-50.66
190.211	97.54
190.599	1383.13
190.987	5.08
191.375	90.77
191.763	140.45
192.151	34.29
192.538	196.46
192.926	43.38
193.314	17.91
193.702	-338.7
194.089	56.93
194.477	82.29
194.864	222.12
195.252	-35.43
195.639	-1303.23
196.027	360.62
196.414	3733.33
196.801	138.77
197.189	-768
197.576	171.97
197.963	45.76
198.351	19.45
198.738	36.82
199.125	37.79
199.512	30.93
199.899	30.63
200.286	65.7
200.673	-51.98
201.06	43.21
201.447	-2.33
201.833	53.62
202.22	36.85
202.607	16.59
202.994	-9.34
203.38	-11.77
203.767	36.96
204.154	55.26
204.54	57.8
204.927	-7.45
205.313	29.53
205.699	-28.63
206.086	17.65
206.472	35.44
206.858	42.19
207.245	25.03
207.631	25.16
208.017	31.1
208.403	34.08
208.789	17.36
209.175	6.59
209.561	22.55
209.947	4.71
210.333	35.74
210.719	42.4
211.105	40.06
211.491	28.53
211.876	23.61
212.262	32.47
212.648	4.29
213.034	17.15
213.419	-7.18
213.805	-3.47
214.19	16.76
214.576	11.99
214.961	8.09
215.346	6.33
215.732	8.17
216.117	31.78
216.502	39.68
216.888	16.3
217.273	24.41
217.658	17.78
218.043	4.45
218.428	40.7
218.813	16.46
219.198	26.93
219.583	14.4
219.968	14.81
220.353	-5.09
220.738	33.54
221.122	14.98
221.507	21.35
221.892	30.33
222.276	12.25
222.661	7.75
223.046	15.9
223.43	21.47
223.815	16.84
224.199	18.96
224.583	10.65
224.968	15.34
225.352	13.21
225.736	16.03
226.121	16.39
226.505	12.23
226.889	16.83
227.273	17.36
227.657	14.48
228.041	8.02
228.425	5.68
228.809	6.28
229.193	8.06
229.577	9.49
229.961	6.24
230.344	6.28
230.728	5.78
231.112	5.03
231.495	6.04
231.879	5.92
232.263	6.74
232.646	6.92
233.03	6.35
233.413	6.93
233.797	8.03
234.18	7.36
234.563	7.28
234.946	7
235.33	7.76
235.713	5.38
236.096	7.31
236.479	6.02
236.862	6.19
237.245	5.76
237.628	6.7
238.011	5.8
238.394	6.41
238.777	7.98
239.16	7.4
239.543	6.79
239.925	6.41
240.308	8.31
240.691	4.52
241.073	6.19
241.456	7.26
241.838	8.64
242.221	7
242.603	5.36
242.986	6.09
243.368	5.73
243.75	6.4
244.133	5.86
244.515	5.3
244.897	5.74
245.279	6.09
245.661	5.87
246.043	6.9
246.425	5.88
246.807	6.66
247.189	5.96
247.571	6.35
247.953	5.54
248.335	5.99
248.717	6.02
249.098	5.59
249.48	5.57
249.862	5.88
250.243	6.11
250.625	6.24
251.006	5.71
251.388	6.45
251.769	6.72
252.151	7.13
252.532	6.89
252.913	6.4
253.295	7.22
253.676	6.38
254.057	6.24
254.438	6.69
254.819	6.14
255.2	5.29
255.581	5.35
255.962	6.1
256.343	6.09
256.724	6.75
257.105	6.36
257.486	5.35
257.867	6.76
258.247	5.11
258.628	6.48
259.009	6.94
259.389	6.66
259.77	5.99
260.15	5.68
260.531	6.08
260.911	5.45
261.292	5.34
261.672	5.43
262.052	5.52
262.432	5.8
262.813	5.48
263.193	5.45
263.573	5.61
263.953	5.47
264.333	6.1
264.713	6.03
265.093	5.58
265.473	5.83
265.853	6.4
266.233	5.89
266.612	5.52
266.992	6.36
267.372	6.41
267.752	6.78
268.131	5.93
268.511	5.79
268.89	5.94
269.27	6.13
269.649	5.89
270.029	5.76
270.408	5.83
270.787	5.41
271.167	5.23
271.546	5.33
271.925	5.24
272.304	5.38
272.683	5.26
273.062	4.87
273.441	5.45
273.82	5.38
274.199	5.65
274.578	5.52
274.957	5.57
275.336	5.37
275.715	5.31
276.093	6.52
276.472	5.82
276.851	6.02
277.229	6.02
277.608	5.68
277.986	6.02
278.365	5.46
278.743	5.88
279.122	5.98
279.5	6.26
279.878	5.72
280.257	5.51
280.635	5.91
281.013	5.07
281.391	5.73
281.769	5.41
282.147	5.26
282.525	5.67
282.903	5.39
283.281	5.3
283.659	5.23
284.037	4.88
284.415	5.27
284.792	5.8
285.17	5.32
285.548	5.43
285.925	4.95
286.303	5.48
286.68	5.99
287.058	5.85
287.435	5.59
287.813	5.74
288.19	5.25
288.567	5.7
288.945	5.42
289.322	5.72
289.699	5.39
290.076	5.66
290.453	5.71
290.83	5.76
291.207	5.81
291.584	5.84
291.961	5.81
292.338	5.78
292.715	5.8
293.092	5.84
293.469	5.9
293.845	6.06
294.222	6.11
294.599	6.28
294.975	5.36
295.352	5.74
295.728	6.24
296.105	6.69
296.481	5.97
296.858	6.35
297.234	6.53
297.61	6.39
297.986	6.6
298.363	6.14
298.739	6.19
299.115	6.26
299.491	6.58
299.867	6.25
300.243	6.23
300.619	6.51
300.995	6.44
301.371	6.41
301.746	6.82
302.122	6.56
302.498	6.78
302.874	6.59
303.249	6.62
303.625	6.26
304	6.96
304.376	7.15
304.751	6.94
305.127	6.21
305.502	7.09
305.878	7.24
306.253	7.13
306.628	7.49
307.003	7.6
307.378	7.39
307.754	7.19
308.129	7.36
308.504	7.12
308.879	7.13
309.254	7.55
309.629	7.5
310.003	7.85
310.378	7.33
310.753	7.91
311.128	7.99
311.502	7.22
311.877	8.03
312.252	8.23
312.626	7.97
313.001	8.2
313.375	7.38
313.75	7.79
314.124	7.94
314.498	8.09
314.873	7.91
315.247	8.09
315.621	8.2
315.995	8.76
316.369	8.67
316.743	8.87
317.117	8.38
317.491	8.57
317.865	8.26
318.239	9.11
318.613	9.02
318.987	8.49
319.361	9
319.734	8.37
320.108	8.59
320.482	9.16
320.855	8.5
321.229	9.05
321.602	8.94
321.976	9.84
322.349	9.71
322.723	9.15
323.096	10.2
323.469	10.14
323.843	9.66
324.216	9.5
324.589	10.15
324.962	9.66
325.335	9.72
325.708	9.62
326.081	9.89
326.454	9.65
326.827	9.66
327.2	9.65
327.573	9.8
327.945	10.44
328.318	9.68
328.691	9.73
329.063	10.15
329.436	10.08
329.809	9.91
330.181	10.46
330.553	10.81
330.926	10.19
331.298	10.49
331.671	10.11
332.043	10.92
332.415	10.46
332.787	10.57
333.159	10.53
333.532	10.49
333.904	10.85
334.276	10.8
334.648	11.08
335.02	10.58
335.391	10.42
335.763	10.54
336.135	11.11
336.507	10.79
336.879	11.04
337.25	10.8
337.622	11.09
337.993	11.36
338.365	11.02
338.736	11.16
339.108	11.84
339.479	10.72
339.851	10.74
340.222	10.69
340.593	11.07
340.964	11.18
341.336	11.31
341.707	11.08
342.078	11.37
342.449	11.22
342.82	11.38
343.191	11.38
343.562	11.54
343.933	11.23
344.303	11.4
344.674	11.59
345.045	12.12
345.416	11.09
345.786	12.44
346.157	11.83
346.527	11.51
346.898	11.53
347.268	11.77
347.639	12.03
348.009	11.97
348.38	11.45
348.75	12.09
349.12	12.02
349.49	11.85
349.861	11.65
350.231	11.85
350.601	11.89
350.971	12.38
351.341	11.86
351.711	12.2
352.081	11.96
352.45	12.49
352.82	12.12
353.19	12.39
353.56	12.25
353.929	12.07
354.299	12.8
354.669	12.49
355.038	12.67
355.408	12.33
355.777	12.52
356.147	13.14
356.516	12.53
356.885	12.75
357.254	13.03
357.624	12.92
357.993	12.54
358.362	12.99
358.731	13.24
359.1	13.09
359.469	12.95
359.838	13.31
360.207	13.11
360.576	13.24
360.945	13.62
361.314	13.82
361.682	13.28
362.051	13.29
362.42	13.3
362.788	13.13
363.157	13.37
363.525	13.28
363.894	13.3
364.262	13.57
364.631	13.74
364.999	13.65
365.367	14.05
365.735	13.67
366.104	13.66
366.472	13.9
366.84	13.66
367.208	13.83
367.576	14.33
367.944	14.17
368.312	13.78
368.68	14.11
369.048	14.13
369.416	13.92
369.783	14.33
370.151	14.54
370.519	14.74
370.886	14.2
371.254	14.38
371.621	14.9
371.989	14.78
372.356	14.62
372.724	14.8
373.091	14.86
373.458	14.57
373.826	14.82
374.193	14.44
374.56	14.9
374.927	14.82
375.294	14.87
375.661	15.07
376.028	15.34
376.395	15.06
376.762	14.97
377.129	15.31
377.496	15.26
377.863	15.29
378.229	15.2
378.596	15.05
378.963	14.97
379.329	15.26
379.696	15.36
380.062	15.34
380.429	15.54
380.795	15.83
381.161	15.56
381.528	15.48
381.894	15.63
382.26	15.69
382.626	15.74
382.993	15.89
383.359	16.03
383.725	15.4
384.091	16.07
384.457	15.78
384.823	16.21
385.188	16.13
385.554	15.84
385.92	16.14
386.286	16.35
386.651	16
387.017	16.34
387.383	16.37
387.748	16.08
388.114	16.16
388.479	16.42
388.845	16.56
389.21	16.25
389.575	16.49
389.94	16.79
390.306	16.87
390.671	16.42
391.036	16.88
391.401	16.66
391.766	16.74
392.131	16.95
392.496	16.9
392.861	17.13
393.226	17.02
393.591	17.03
393.956	16.95
394.32	17.18
394.685	16.95
395.05	17.22
395.414	17.43
395.779	16.95
396.143	17.07
396.508	17.46
396.872	17.4
397.236	17.66
397.601	17.27
397.965	17.57
398.329	17.91
398.694	17.64
399.058	17.88
399.422	17.56
399.786	17.67
400.15	17.39
400.514	17.74
400.878	17.76
401.242	17.81
401.605	18.02
401.969	18.02
402.333	17.56
402.697	17.9
403.06	18.39
403.424	18.09
403.787	18.4
404.151	18.01
404.514	18.28
404.878	18.55
405.241	18.24
405.604	18.07
405.968	18.19
406.331	18.14
406.694	18.36
407.057	18.37
407.42	18.74
407.783	18.57
408.146	18.76
408.509	18.37
408.872	18.68
409.235	18.76
409.598	18.9
409.961	18.71
410.323	19
410.686	19.18
411.049	18.94
411.411	19.3
411.774	19.24
412.136	18.96
412.499	19.3
412.861	19.08
413.223	19.31
413.586	19.4
413.948	19.29
414.31	19.23
414.672	18.96
415.035	19.43
415.397	19.38
415.759	19.39
416.121	19.8
416.483	19.3
416.845	19.57
417.206	19.65
417.568	19.62
417.93	19.92
418.292	19.51
418.653	19.69
419.015	19.56
419.377	19.7
419.738	19.48
420.1	19.61
420.461	19.64
420.822	19.65
421.184	19.77
421.545	19.78
421.906	19.76
422.267	19.87
422.629	19.59
422.99	19.63
423.351	19.72
423.712	19.79
424.073	19.94
424.434	20.03
424.795	20.14
425.155	20.01
425.516	19.97
425.877	19.87
426.238	19.99
426.598	20.09
426.959	20.06
427.32	20.25
427.68	20.4
428.041	20.4
428.401	20.62
428.761	20.72
429.122	20.56
429.482	20.94
429.842	20.89
430.202	20.87
430.563	20.79
430.923	21.12
431.283	21.23
431.643	21.4
432.003	21.41
432.363	21.3
432.722	21.27
433.082	21.27
433.442	21.18
433.802	21.37
434.161	21.53
434.521	21.23
434.881	21.33
435.24	21.4
435.6	21.52
435.959	21.46
436.319	21.58
436.678	21.62
437.037	21.66
437.396	21.92
437.756	22.12
438.115	22.07
438.474	21.93
438.833	21.91
439.192	22.09
439.551	22.03
439.91	21.93
440.269	22.08
440.628	21.85
440.987	22.07
441.345	22.1
441.704	21.95
442.063	22.09
442.421	22.14
442.78	22.16
443.138	22.1
443.497	22.17
443.855	22.23
444.214	22.5
444.572	22.58
444.93	22.56
445.288	22.58
445.647	22.66
446.005	22.52
446.363	22.56
446.721	22.66
447.079	22.6
447.437	22.44
447.795	22.45
448.153	22.59
448.51	22.52
448.868	22.46
449.226	22.53
449.584	22.88
449.941	22.85
450.299	23.05
450.656	23.04
451.014	23.28
451.371	23.2
451.729	23.17
452.086	23.54
452.443	23.73
452.801	23.59
453.158	23.61
453.515	23.57
453.872	23.51
454.229	23.57
454.586	23.5
454.943	23.52
455.3	23.6
455.657	23.97
456.014	23.86
456.371	23.94
456.727	24.13
457.084	24.03
457.441	24.04
457.797	24.09
458.154	24.13
458.51	24.43
458.867	24.12
459.223	24.34
459.58	24.37
459.936	24.33
460.292	24.27
460.648	24.09
461.005	24.05
461.361	24.07
461.717	23.84
462.073	24
462.429	24.27
462.785	24.43
463.141	24.57
463.496	24.72
463.852	24.57
464.208	24.88
464.564	24.77
464.919	24.97
465.275	25.08
465.631	24.97
465.986	25.31
466.342	24.98
466.697	25.1
467.052	25.12
467.408	25.38
467.763	25.31
468.118	25.04
468.473	25.35
468.829	25.54
469.184	25.63
469.539	25.54
469.894	25.37
470.249	25.44
470.603	25.55
470.958	25.76
471.313	25.55
471.668	25.81
472.023	25.85
472.377	25.84
472.732	25.83
473.086	26.06
473.441	25.9
473.795	26.12
474.15	26.02
474.504	26.11
474.859	26.05
475.213	26.08
475.567	26.26
475.921	26.29
476.275	26.27
476.63	26.47
476.984	26.11
477.338	26.36
477.692	26.43
478.045	26.44
478.399	26.25
478.753	26.28
479.107	26.3
479.461	26.48
479.814	26.43
480.168	26.44
480.521	26.58
480.875	26.54
481.228	26.51
481.582	26.72
481.935	26.67
482.289	26.64
482.642	26.66
482.995	26.61
483.348	26.44
483.701	26.49
484.055	26.57
484.408	26.4
484.761	26.34
485.114	25.95
485.466	25.52
485.819	25.35
486.172	25.77
486.525	26.21
486.878	26.48
487.23	26.51
487.583	26.6
487.936	26.71
488.288	26.65
488.641	26.48
488.993	26.18
489.345	26.27
489.698	26.33
490.05	26.45
490.402	26.6
490.754	26.91
491.107	27.13
491.459	27.31
491.811	27.44
492.163	27.46
492.515	27.33
492.866	27.14
493.218	26.79
493.57	26.66
493.922	26.86
494.274	27.45
494.625	27.51
494.977	27.73
495.328	27.89
495.68	28.06
496.031	28.2
496.383	28.22
496.734	28.43
497.086	28.52
497.437	28.49
497.788	28.49
498.139	28.34
498.49	28.33
498.842	28.19
499.193	28.47
499.544	28.61
499.894	28.68
500.245	28.62
500.596	28.66
500.947	28.76
501.298	28.88
501.648	29.13
501.999	29.15
502.35	29.13
502.7	29.24
503.051	29.27
503.401	29.23
503.752	29.34
504.102	29.33
504.452	29.56
504.803	29.6
505.153	29.67
505.503	29.67
505.853	29.43
506.203	29.5
506.553	29.59
506.903	29.56
507.253	29.76
507.603	29.67
507.953	29.88
508.303	29.8
508.652	29.77
509.002	29.82
509.352	29.94
509.701	29.88
510.051	29.87
510.4	29.74
510.75	29.68
511.099	29.89
511.449	29.88
511.798	29.97
512.147	29.99
512.496	29.98
512.846	30.14
513.195	30.4
513.544	30.04
513.893	30.18
514.242	30.21
514.591	30.17
514.939	30.28
515.288	30.46
515.637	30.49
515.986	30.3
516.334	30.66
516.683	30.65
517.032	30.79
517.38	30.88
517.729	30.77
518.077	30.79
518.426	30.87
518.774	30.89
519.122	30.66
519.47	30.68
519.819	30.4
520.167	30.38
520.515	30.38
520.863	30.51
521.211	30.56
521.559	30.96
521.907	30.94
522.255	30.89
522.602	30.99
522.95	31.2
523.298	31.43
523.645	31.72
523.993	31.34
524.341	31.61
524.688	31.47
525.036	31.51
525.383	31.6
525.73	31.65
526.078	31.52
526.425	31.65
526.772	31.34
527.119	31.21
527.466	30.94
527.814	31
528.161	31.17
528.508	31.41
528.854	31.39
529.201	31.35
529.548	31.07
529.895	30.84
530.242	30.54
530.588	30.31
530.935	30.74
531.282	31.1
531.628	31.33
531.975	31.45
532.321	31.52
532.667	31.51
533.014	31.77
533.36	31.79
533.706	31.85
534.052	31.97
534.399	31.87
534.745	31.64
535.091	31.38
535.437	31.37
535.783	31.61
536.129	32.1
536.474	32.17
536.82	32.31
537.166	32.45
537.512	32.4
537.857	32.43
538.203	32.24
538.549	32.32
538.894	32.26
539.239	32.56
539.585	32.77
539.93	32.94
540.276	33.03
540.621	33.06
540.966	32.98
541.311	33.09
541.656	33.16
542.001	33.04
542.346	33.02
542.691	32.34
543.036	32.1
543.381	32.05
543.726	32.31
544.071	32.65
544.415	32.84
544.76	32.98
545.105	32.81
545.449	32.89
545.794	33.23
546.138	33.4
546.483	33.47
546.827	33.83
547.171	33.54
547.516	33.53
547.86	33.72
548.204	33.75
548.548	33.6
548.892	33.54
549.236	33.52
549.58	34.08
549.924	34.11
550.268	34.22
550.612	34.23
550.956	34.39
551.3	34.32
551.643	34.65
551.987	34.79
552.33	34.88
552.674	34.71
553.017	34.74
553.361	34.91
553.704	34.67
554.048	34.79
554.391	34.64
554.734	34.47
555.077	34.85
555.42	34.9
555.764	34.94
556.107	35.21
556.45	35.12
556.793	35.18
557.135	35.35
557.478	35.3
557.821	35.27
558.164	35.5
558.507	35.28
558.849	35.66
559.192	35.48
559.534	35.38
559.877	35.62
560.219	35.5
560.562	35.73
560.904	35.81
561.246	35.78
561.589	35.9
561.931	35.89
562.273	35.88
562.615	35.84
562.957	36
563.299	36.09
563.641	35.83
563.983	36.2
564.325	35.99
564.667	36.15
565.008	36.14
565.35	36.2
565.692	36.15
566.033	36.22
566.375	36.41
566.716	36.3
567.058	35.95
567.399	36.02
567.741	36.34
568.082	36.3
568.423	35.96
568.764	36.24
569.105	36.29
569.447	36.43
569.788	36.33
570.129	36.46
570.47	36.26
570.811	36.4
571.151	36.63
571.492	36.76
571.833	36.62
572.174	36.75
572.514	36.75
572.855	36.6
573.195	36.69
573.536	36.53
573.876	36.6
574.217	36.77
574.557	36.56
574.898	36.85
575.238	36.94
575.578	37.15
575.918	37.02
576.258	37.02
576.598	36.95
576.938	36.88
577.278	37.09
577.618	37.08
577.958	37.14
578.298	37.51
578.638	37.55
578.977	37.51
579.317	37.47
579.657	37.24
579.996	37.57
580.336	37.8
580.675	37.83
581.014	38.01
581.354	37.94
581.693	38.11
582.032	37.94
582.372	38.21
582.711	38.1
583.05	38.16
583.389	38.31
583.728	38.65
584.067	38.22
584.406	38.11
584.745	38.54
585.083	38.34
585.422	38
585.761	38.3
586.1	38.25
586.438	38.41
586.777	38.69
587.115	38.48
587.454	38.55
587.792	38.62
588.13	38.83
588.469	38.89
588.807	38.74
589.145	39.01
589.483	39.13
589.821	38.71
590.159	38.73
590.497	38.93
590.835	39.05
591.173	39.11
591.511	39.25
591.849	39
592.187	39.03
592.524	39.02
592.862	38.93
593.2	38.91
593.537	39.21
593.875	39.38
594.212	39.1
594.55	39.39
594.887	39.4
595.224	39.98
595.561	39.11
595.899	39.06
596.236	39.33
596.573	39.25
596.91	39.55
597.247	39.46
597.584	39.66
597.921	39.25
598.258	39.1
598.594	39.01
598.931	38.95
599.268	39.06
599.604	39.27
599.941	39.54
600.277	39.68
600.614	39.65
600.95	39.5
601.287	39.82
601.623	40.12
601.959	39.95
602.296	40.2
602.632	40.18
602.968	39.99
603.304	40.28
603.64	40.05
603.976	39.95
604.312	40.28
604.648	40.06
604.984	40.15
605.319	39.84
605.655	40.09
605.991	39.94
606.326	40.31
606.662	39.95
606.998	39.75
607.333	40.04
607.668	40.06
608.004	40.47
608.339	40.62
608.674	40.73
609.01	40.66
609.345	40.84
609.68	40.72
610.015	40.94
610.35	40.67
610.685	40.38
611.02	40.49
611.355	40.3
611.689	40.56
612.024	40.27
612.359	40.71
612.694	40.95
613.028	40.73
613.363	40.88
613.697	41.06
614.032	41.02
614.366	41.52
614.7	41.34
615.035	41.39
615.369	41.43
615.703	41.48
616.037	41.75
616.371	41.72
616.705	41.58
617.039	41.76
617.373	41.47
617.707	41.76
618.041	41.57
618.375	41.85
618.709	41.93
619.042	41.88
619.376	42.15
619.71	41.81
620.043	42.14
620.377	41.81
620.71	42.18
621.043	42.36
621.377	41.57
621.71	41.91
622.043	41.67
622.376	42.12
622.709	41.89
623.043	42.9
623.376	42.02
623.709	42.06
624.041	42.12
624.374	42.61
624.707	42.59
625.04	42.62
625.373	42.59
625.705	42.5
626.038	42.3
626.37	42.32
626.703	42.48
627.035	42.57
627.368	42.45
627.7	42.07
628.032	42.18
628.365	42.46
628.697	42.37
629.029	42.21
629.361	42.66
629.693	42.41
630.025	42.59
630.357	42.59
630.689	42.56
631.021	42.69
631.353	42.79
631.684	42.93
632.016	43.21
632.348	42.8
632.679	43.09
633.011	42.84
633.342	42.99
633.674	43.63
634.005	43.27
634.336	43.31
634.668	43.37
634.999	43.36
635.33	43.44
635.661	43.25
635.992	43.28
636.323	42.93
636.654	43.29
636.985	43.4
637.316	43.8
637.647	43.69
637.977	43.37
638.308	43.92
638.639	43.65
638.969	44.11
639.3	43.56
639.63	43.58
639.961	43.75
640.291	44.2
640.622	43.81
640.952	43.76
641.282	44.36
641.612	43.96
641.943	44.27
642.273	43.72
642.603	44.15
642.933	44.19
643.263	43.68
643.592	44.07
643.922	44.17
644.252	44.56
644.582	44.28
644.911	44.69
645.241	43.97
645.571	44.96
645.9	44.51
646.23	44.59
646.559	44.56
646.888	44.6
647.218	44.9
647.547	44.28
647.876	44.59
648.205	44.92
648.534	44.66
648.863	44.26
649.192	44.81
649.521	45.14
649.85	44.83
650.179	45.14
650.508	45.22
650.837	44.53
651.165	45.15
651.494	44.96
651.822	44.92
652.151	44.93
652.479	44.83
652.808	45.1
653.136	45.31
653.465	45.15
653.793	44.96
654.121	45.52
654.449	45.53
654.777	45.51
655.105	45.4
655.433	45.06
655.761	45.25
656.089	45.21
656.417	45.36
656.745	46.21
657.073	45.79
657.4	45.35
657.728	45.38
658.056	45.72
658.383	45.57
658.711	45.4
659.038	45.57
659.365	45.74
659.693	45.84
660.02	45.2
660.347	45.24
660.674	45.08
661.001	44.84
661.329	45.88
661.656	44.97
661.982	45.53
662.309	46.02
662.636	45.89
662.963	46.18
663.29	45.55
663.616	45.46
663.943	45.59
664.27	46.31
664.596	46.66
664.923	46.23
665.249	46.31
665.576	45.98
665.902	45.57
666.228	46.09
666.554	46.8
666.881	46.18
667.207	46.6
667.533	46.38
667.859	46.45
668.185	46.18
668.511	47.32
668.837	46.59
669.162	46.92
669.488	47.49
669.814	46.2
670.139	47.37
670.465	46.75
670.791	46.69
671.116	46.53
671.442	46.58
671.767	47.29
672.092	46.95
672.418	46.54
672.743	46.36
673.068	47.05
673.393	47.19
673.718	46.54
674.043	46.56
674.368	47.13
674.693	47.3
675.018	48.09
675.343	47.11
675.667	47.4
675.992	46.41
676.317	46.12
676.641	46.78
676.966	47.48
677.29	47.43
677.615	47.6
677.939	46.7
678.264	47.34
678.588	46.86
678.912	46.89
679.236	47.25
679.56	47.27
679.885	47.22
680.209	47.32
680.532	47.34
680.856	47.32
681.18	47.6
681.504	46.73
681.828	46.79
682.152	46.78
682.475	47.73
682.799	47.66
683.122	47.37
683.446	48.06
683.769	48.29
684.093	48.07
684.416	47.57
684.739	48.27
685.062	48.48
685.386	48.67
685.709	48.82
686.032	48.62
686.355	48.62
686.678	48.27
687.001	47.93
687.324	47.55
687.646	48.55
687.969	48.22
688.292	48.58
688.614	48.94
688.937	49.1
689.26	47.74
689.582	48.24
689.904	48.18
690.227	47.96
690.549	49.22
690.871	48.54
691.194	48.56
691.516	48.77
691.838	47.89
692.16	48.83
692.482	48.53
692.804	48.3
693.126	48.65
693.448	48.68
693.769	48.82
694.091	48.46
694.413	49.26
694.735	48.39
695.056	49.26
695.378	50.18
695.699	48.97
696.021	49.28
696.342	48.33
696.663	49.6
696.984	48.84
697.306	50.34
697.627	49.27
697.948	49.25
698.269	49.94
698.59	49.45
698.911	47.97
699.232	48.31
699.553	49.59
699.873	48.02
700.194	48.79
700.515	48.93
700.835	48.44
701.156	49.02
701.477	49.44
701.797	49.74
702.117	49.4
702.438	49.55
702.758	49.54
703.078	49.13
703.398	49.38
703.719	50.19
704.039	49.54
704.359	49.48
704.679	49.8
704.999	49.91
705.319	48.78
705.638	50.21
705.958	49.39
706.278	50.44
706.597	49.62
706.917	49.88
707.237	50.06
707.556	49.89
707.876	48.92
708.195	49.85
708.514	50.52
708.834	49.32
709.153	49.26
709.472	49.89
709.791	49.63
710.11	51.13
710.429	49.97
710.748	49.62
711.067	49.58
711.386	51.51
711.705	49.39
712.023	49.49
712.342	50.39
712.661	49.75
712.979	50.27
713.298	50.7
713.616	50.18
713.935	50.9
714.253	49.8
714.572	50.83
714.89	51.58
715.208	50.87
715.526	49.96
715.844	49.79
716.162	49.69
716.48	50.07
716.798	50.34
717.116	50.71
717.434	51
717.752	49.94
718.069	51.67
718.387	50.81
718.705	51.23
719.022	48.87
719.34	51.22
719.657	51.68
719.975	51.03
720.292	51.32
720.609	50.99
720.927	51.98
721.244	50.95
721.561	50.79
721.878	51.08
722.195	51.78
722.512	49.99
722.829	52.21
723.146	50.63
723.463	51.73
723.779	50.92
724.096	50.91
724.413	52.67
724.729	52.21
725.046	51.23
725.362	51.29
725.679	51.03
725.995	50.37
726.311	50.52
726.628	52.04
726.944	52.51
727.26	50.09
727.576	52.73
727.892	51.32
728.208	51.25
728.524	52.03
728.84	50.13
729.156	52.05
729.472	51.14
729.787	50.75
730.103	51.78
730.419	53.44
730.734	52.74
731.05	51.34
731.365	50.91
731.681	52.15
731.996	52.32
732.311	52.52
732.626	52.14
732.942	51.75
733.257	51.79
733.572	50.35
733.887	53.45
734.202	52.43
734.517	52.73
734.832	50.79
735.146	51.95
735.461	52.53
735.776	52.31
736.091	52.45
736.405	51.33
736.72	52.25
737.034	52.01
737.349	52.19
737.663	53.37
737.977	52.46
738.292	51.86
738.606	53.27
738.92	53.34
739.234	52.67
739.548	54.41
739.862	53.15
740.176	53.29
740.49	53.16
740.804	54.08
741.117	51.04
741.431	53.37
741.745	52.03
742.058	53.34
742.372	52.01
742.685	52.45
742.999	53.75
743.312	53.12
743.626	53.41
743.939	53.86
744.252	53.69
744.565	52.96
744.878	53.07
745.191	53.26
745.505	52.76
745.817	53.9
746.13	54.28
746.443	54.01
746.756	52.84
747.069	53.46
747.381	53.95
747.694	52.98
748.007	53.73
748.319	53.42
748.632	52.33
748.944	52.39
749.256	54.35
749.569	54.7
749.881	54.57
750.193	55.37
750.505	54.12
750.817	53.98
751.129	54.32
751.441	54.09
751.753	53.46
752.065	55.84
752.377	53.84
752.689	54.33
753	53.85
753.312	53.54
753.624	54.39
753.935	55.98
754.247	53.55
754.558	54.24
754.869	55.16
755.181	52.5
755.492	52.66
755.803	52.31
756.114	55.43
756.425	53.09
756.736	54.25
757.047	53.45
757.358	53.99
757.669	55.71
757.98	54.57
758.291	54.1
758.601	54.68
758.912	55.05
759.223	53.94
759.533	53.15
759.844	54.39
760.154	53.11
760.464	54.49
760.775	53.33
761.085	54.35
761.395	54.89
761.705	55.15
762.016	54.11
762.326	53.9
762.636	56.7
762.945	54.83
763.255	53.86
763.565	55.56
763.875	54.58
764.185	55.36
764.494	56.67
764.804	54.4
765.113	56.09
765.423	54.09
765.732	53.54
766.042	53.81
766.351	54.77
766.66	56.57
766.97	55.61
767.279	56.28
767.588	56.56
767.897	55.77
768.206	54.66
768.515	55.17
768.824	55.12
769.133	54.24
769.441	53.75
769.75	55.19
770.059	56.02
770.367	55.06
770.676	55.34
770.984	56.99
771.293	54.68
771.601	55.98
771.91	55.73
772.218	56.11
772.526	54.97
772.834	55.44
773.142	53.92
773.45	54.5
773.758	54.08
774.066	57.28
774.374	57.12
774.682	55.93
774.99	54.26
775.298	54.87
775.605	56.33
775.913	56.26
776.22	53.17
776.528	53.64
776.835	57.35
777.143	57.76
777.45	53.65
777.757	53.97
778.065	55.94
778.372	58.82
778.679	56.67
778.986	56.27
779.293	56.9
779.6	56.38
779.907	55.24
780.214	55.31
780.52	55.61
780.827	55.04
781.134	54.6
781.44	55.86
781.747	56.37
782.053	57.06
782.36	54.98
782.666	55.5
782.973	54.02
783.279	56.98
783.585	59.71
783.891	54.48
784.197	52.54
784.503	55.08
784.809	58.57
785.115	57.14
785.421	55.57
785.727	58.16
786.033	57.42
786.339	59.4
786.644	56.44
786.95	57.33
787.255	57.09
787.561	58.68
787.866	56.81
788.172	54.87
788.477	58.3
788.782	58.03
789.088	55.87
789.393	59.17
789.698	58.41
790.003	57.66
790.308	56.85
790.613	54.46
790.918	55.71
791.223	58.91
791.527	55.61
791.832	54.23
792.137	57.63
792.441	58.48
792.746	58.78
793.05	56.42
793.355	60.63
793.659	56.25
793.963	58.23
794.268	59.37
794.572	63.74
794.876	57.93
795.18	56.38
795.484	53.85
795.788	56.45
796.092	61.66
796.396	58.79
796.7	58.97
797.004	56.58
797.307	56.68
797.611	59.48
797.915	56.81
798.218	57.91
798.522	54.53
798.825	59.15
799.128	57.69
799.432	58.55
799.735	61.44
800.038	62.61
800.341	58.96
800.644	57.57
800.947	55.97
801.25	59.25
801.553	56.42
801.856	59.37
802.159	58.84
802.462	60.27
802.764	61.68
803.067	61.7
803.37	57.81
803.672	65
803.975	56.1
804.277	57.11
804.579	61.24
804.882	60.86
805.184	59.44
805.486	56.89
805.788	59.01
806.09	58.33
806.392	61.72
806.694	56.75
806.996	58.13
807.298	53.34
807.6	56.33
807.902	59.46
808.203	55.78
808.505	59.8
808.807	58.01
809.108	55.01
809.409	56.68
809.711	53.99
810.012	52.72
810.313	57.37
810.615	53.97
810.916	64.77
811.217	63.72
811.518	56.48
811.819	58.83
812.12	57.59
812.421	57.68
812.722	58.28
813.023	57.75
813.323	55.39
813.624	59.43
813.925	56.61
814.225	57.96
814.526	58.63
814.826	61.34
815.126	57.46
815.427	67.84
815.727	57.26
816.027	59.46
816.327	61.36
816.627	58.54
816.927	61.5
817.227	64.06
817.527	61.07
817.827	62.76
818.127	55.34
818.427	54.7
818.727	58.07
819.026	58.1
819.326	61.33
819.625	62.56
819.925	59.02
820.224	57.17
820.524	60.99
820.823	60.55
821.122	65.83
821.421	67.12
821.72	61.62
822.019	57.88
822.318	57.44
822.617	58.74
822.916	60.02
823.215	55.16
823.514	57.44
823.813	60.23
824.111	57.06
824.41	62.7
824.709	60.42
825.007	60.48
825.306	61.15
825.604	62.08
825.902	62.67
826.201	63.22
826.499	63.41
826.797	63.84
827.095	63.43
827.393	65.17
827.691	65.23
827.989	63.33
828.287	63.85
828.585	61.44
828.882	61.67
829.18	63.03
829.478	60.6
829.775	62.72
830.073	62.93
830.37	61.57
830.668	62.05
830.965	62.92
831.263	64.65
831.56	64.09
831.857	67.51
832.154	62.71
832.451	65.12
832.748	65.95
833.045	61.58
833.342	65.58
833.639	65.82
833.936	67.66
834.232	63.36
834.529	66.7
834.826	66.18
835.122	69.5
835.419	62
835.715	66.72
836.012	58.67
836.308	58.94
836.604	59.26
836.901	64.97
837.197	62.77
837.493	65.72
837.789	62.26
838.085	61.03
838.381	62.84
838.677	64.08
838.972	61.21
839.268	65.47
839.564	61.16
839.86	60.75
840.155	68.19
840.451	67.83
840.746	61.07
841.042	59.13
841.337	63.72
841.632	62.94
841.928	52.81
842.223	65.35
842.518	66.41
842.813	66.32
843.108	59.98
843.403	65.65
843.698	59.21
843.993	62.99
844.287	64.72
844.582	68.46
844.877	53.89
845.171	60.98
845.466	77.19
845.761	56.19
846.055	56.59
846.349	56.51
846.644	64.67
846.938	70.37
847.232	54.72
847.526	63.87
847.82	70.57
848.114	56.06
848.408	50.89
848.702	46.72
848.996	51.96
849.29	60.04
849.584	48.68
849.877	61.65
850.171	47.08
850.465	52.98
850.758	74.31
851.052	60.04
851.345	57.73
851.638	59.66
851.932	68.59
852.225	46.26
852.518	64.67
852.811	74.62
853.104	64.79
853.397	35.78
853.69	52.21
853.983	39.95
854.276	50.98
854.569	76.29
854.861	49.36
855.154	36.76
855.447	39.89
855.739	58.05
856.032	81.34
856.324	70.66
856.616	44.58
856.909	52.42
857.201	55.4
857.493	55.44
857.785	89.99
858.077	52.09
858.369	38.58
858.661	57.96
858.953	67.18
859.245	72.71
859.537	65.6
859.829	57.51
860.12	48.43
860.412	67.19
860.703	49
860.995	54.52
861.286	61.51
861.578	62.83
861.869	80.86
862.16	72.17
862.452	58.55
862.743	50.76
863.034	67.99
863.325	64.01
863.616	63.5
863.907	43.66
864.198	73.48
864.488	71.98
864.779	80.48
865.07	55.7
865.36	59.59
865.651	65.37
865.941	65.44
866.232	49.31
866.522	48.74
866.813	63.72
867.103	42.07
867.393	62.08
867.683	56.44
867.973	57.14
868.263	52.49
868.553	64.54
868.843	64.39
869.133	33.66
869.423	59.89
869.713	58.41
870.002	62.93
870.292	46.26
870.582	76.58
870.871	54.65
871.161	61.8
871.45	49.57
871.739	73.86
872.029	31.77
872.318	48.93
872.607	90.26
872.896	52.72
873.185	76.43
873.474	78.89
873.763	57.57
874.052	65.86
874.341	47.96
874.63	56.07
874.918	60.31
875.207	49.45
875.496	44
875.784	18.54
876.073	39.38
876.361	50.35
876.649	72.23
876.938	84.72
877.226	56.64
877.514	68.77
877.802	61.63
878.09	81.48
878.378	60.29
878.666	55.48
878.954	72.26
879.242	89.99
879.53	76.06
879.817	31.31
880.105	63.68
880.392	60.78
880.68	77.07
880.967	60.61
881.255	32.52
881.542	67.68
881.83	78.94
882.117	80.27
882.404	41.8
882.691	49.62
882.978	73.77
883.265	45.4
883.552	56.29
883.839	63.32
884.126	45.86
884.413	66.53
884.699	77.47
884.986	67.52
885.273	65.35
885.559	65.35
885.846	65.35
