Data from 2009-1_forehead_Reflection__0__225.txt Node

Date: Fri Dec 15 18:25:27 CST 2023
User: ToomeyLab
Spectrometer: FLMS14357
Trigger mode: 0
Integration Time (sec): 1.000000E-2
Scans to average: 100
Electric dark correction enabled: true
Nonlinearity correction enabled: false
Boxcar width: 0
XAxis mode: Wavelengths
Number of Pixels in Spectrum: 2048
>>>>>Begin Spectral Data<<<<<
189.047	-1319.13
189.435	-1319.13
189.823	-1319.13
190.211	-1338.53
190.599	-79.94
190.987	48.66
191.375	88.65
191.763	-380.43
192.151	147.46
192.538	162.76
192.926	-546.23
193.314	20.85
193.702	217.73
194.089	190.11
194.477	25.32
194.864	34.72
195.252	36.01
195.639	91.25
196.027	308.84
196.414	51.91
196.801	198.78
197.189	335.92
197.576	78.87
197.963	-709.7
198.351	-33.89
198.738	5.37
199.125	13.25
199.512	-25.69
199.899	-0.07
200.286	-7.31
200.673	7.54
201.06	13.74
201.447	-54.39
201.833	32.65
202.22	16.26
202.607	39.97
202.994	190.66
203.38	64.52
203.767	30.2
204.154	6.66
204.54	29.03
204.927	14.53
205.313	-23.83
205.699	67.76
206.086	62.9
206.472	30.17
206.858	30.21
207.245	-5.2
207.631	20.93
208.017	48.53
208.403	5.5
208.789	63.55
209.175	34.1
209.561	-7.84
209.947	58.34
210.333	-6.31
210.719	-5.47
211.105	18.67
211.491	9.93
211.876	-20.94
212.262	-12.04
212.648	-6.33
213.034	42.34
213.419	-14.86
213.805	11.03
214.19	-62.76
214.576	-23.22
214.961	-17.41
215.346	-78.76
215.732	-20.49
216.117	5.53
216.502	15.42
216.888	25.33
217.273	47.14
217.658	28.11
218.043	16.51
218.428	0.88
218.813	-42.72
219.198	-41.91
219.583	-3.02
219.968	25.58
220.353	-18.7
220.738	18.38
221.122	-9.48
221.507	-19.25
221.892	-36.09
222.276	-33.12
222.661	27.66
223.046	19.36
223.43	8.47
223.815	15.12
224.199	-2.31
224.583	5.05
224.968	-1.88
225.352	14.71
225.736	13.69
226.121	-14.64
226.505	3.04
226.889	19.26
227.273	4.71
227.657	9.81
228.041	5.84
228.425	3.89
228.809	4.67
229.193	5.6
229.577	0.7
229.961	5.66
230.344	4.65
230.728	3.73
231.112	4.94
231.495	4.71
231.879	4.12
232.263	4.73
232.646	5.94
233.03	4.37
233.413	2.94
233.797	4.31
234.18	5.91
234.563	3.06
234.946	4.32
235.33	5.47
235.713	7.06
236.096	5.26
236.479	6.24
236.862	3.97
237.245	7.19
237.628	3.3
238.011	5.99
238.394	5.73
238.777	5.5
239.16	3.53
239.543	6.88
239.925	6.42
240.308	5.13
240.691	5.87
241.073	6.35
241.456	5.1
241.838	6.23
242.221	3.39
242.603	5.73
242.986	5.48
243.368	4.8
243.75	4.45
244.133	4.27
244.515	4.67
244.897	5.15
245.279	4.91
245.661	3.63
246.043	4.58
246.425	4.28
246.807	5.48
247.189	3.45
247.571	4.92
247.953	5.13
248.335	4.5
248.717	4.89
249.098	4.82
249.48	4.98
249.862	4.86
250.243	4.91
250.625	4.83
251.006	4.9
251.388	4.01
251.769	4.75
252.151	5.62
252.532	4.17
252.913	3.96
253.295	4.22
253.676	4.62
254.057	4.97
254.438	4.72
254.819	4.52
255.2	4.09
255.581	5.62
255.962	4.31
256.343	5.15
256.724	4.54
257.105	5.27
257.486	3.92
257.867	4.92
258.247	4.96
258.628	5.51
259.009	3.68
259.389	4.6
259.77	4.61
260.15	4.25
260.531	4.12
260.911	5.26
261.292	5.05
261.672	4.88
262.052	4.78
262.432	5.23
262.813	4.78
263.193	5.11
263.573	4.16
263.953	3.88
264.333	5.14
264.713	4.86
265.093	4.35
265.473	4.38
265.853	4.01
266.233	4.81
266.612	2.59
266.992	2.59
267.372	4.57
267.752	4.54
268.131	4.58
268.511	4.89
268.89	5.22
269.27	4.58
269.649	3.97
270.029	4.02
270.408	5.56
270.787	4.94
271.167	4.99
271.546	4.67
271.925	3.61
272.304	3.82
272.683	4.66
273.062	4.2
273.441	4.14
273.82	4.02
274.199	3.99
274.578	4.68
274.957	4.23
275.336	4.75
275.715	4.51
276.093	4.43
276.472	4.48
276.851	4.29
277.229	4.19
277.608	3.36
277.986	3.95
278.365	3.72
278.743	3.73
279.122	4.16
279.5	4.25
279.878	4.41
280.257	3.62
280.635	3.66
281.013	3.63
281.391	5.05
281.769	4.66
282.147	4.31
282.525	4.82
282.903	4.09
283.281	4.83
283.659	4.87
284.037	4.56
284.415	4.72
284.792	4.77
285.17	3.58
285.548	3.88
285.925	4.5
286.303	4.3
286.68	4.34
287.058	4.32
287.435	4.47
287.813	4.17
288.19	4.17
288.567	4.38
288.945	4.79
289.322	4.69
289.699	4.05
290.076	4.25
290.453	4.07
290.83	4.6
291.207	4.39
291.584	4.92
291.961	4.77
292.338	4.6
292.715	4.85
293.092	4.61
293.469	4.68
293.845	4.91
294.222	3.98
294.599	4.8
294.975	4.52
295.352	5.24
295.728	4.35
296.105	4.92
296.481	5.4
296.858	5.15
297.234	4.49
297.61	5.53
297.986	5.4
298.363	5.48
298.739	5.46
299.115	5.33
299.491	5.04
299.867	5.41
300.243	5.3
300.619	5.01
300.995	5.27
301.371	5.53
301.746	5.38
302.122	5.34
302.498	5.32
302.874	5.89
303.249	5.59
303.625	5.53
304	5.67
304.376	6.01
304.751	5.54
305.127	7.07
305.502	5.78
305.878	4.95
306.253	5.82
306.628	6.48
307.003	6.4
307.378	6.7
307.754	5.87
308.129	5.81
308.504	5.77
308.879	6.51
309.254	7.21
309.629	7.15
310.003	6.71
310.378	7.07
310.753	7.36
311.128	6.7
311.502	7.14
311.877	7.44
312.252	6.8
312.626	6.99
313.001	6.39
313.375	7.41
313.75	6.55
314.124	7.17
314.498	7.78
314.873	7.06
315.247	7.43
315.621	7.07
315.995	6.86
316.369	7.77
316.743	7.45
317.117	8.22
317.491	7.76
317.865	7.82
318.239	7.13
318.613	7.94
318.987	8.75
319.361	7.84
319.734	8.67
320.108	7.82
320.482	8.04
320.855	8.15
321.229	8.81
321.602	7.71
321.976	9.19
322.349	8.47
322.723	8.7
323.096	9.21
323.469	8.29
323.843	8.5
324.216	9.12
324.589	8.97
324.962	9.47
325.335	8.57
325.708	9.45
326.081	9.36
326.454	8.93
326.827	8.52
327.2	9.46
327.573	9.5
327.945	9.2
328.318	9.35
328.691	9.39
329.063	9.63
329.436	9.54
329.809	9.54
330.181	10.16
330.553	10.06
330.926	10.13
331.298	10.13
331.671	9.94
332.043	10
332.415	10.06
332.787	9.59
333.159	9.99
333.532	10.47
333.904	9.8
334.276	9.78
334.648	10.37
335.02	10.16
335.391	10.05
335.763	9.42
336.135	10.51
336.507	10.47
336.879	10.39
337.25	10.72
337.622	10.4
337.993	11.13
338.365	10.61
338.736	10.03
339.108	10.33
339.479	10.19
339.851	10.69
340.222	10.66
340.593	10.96
340.964	10.49
341.336	11.46
341.707	10.56
342.078	11.02
342.449	11.07
342.82	10.55
343.191	10.85
343.562	10.78
343.933	11
344.303	10.93
344.674	10.42
345.045	11.11
345.416	11.72
345.786	10.98
346.157	11.15
346.527	10.87
346.898	10.82
347.268	11.76
347.639	11.63
348.009	11.39
348.38	11.3
348.75	11.41
349.12	11.46
349.49	12.05
349.861	11.43
350.231	11.43
350.601	11.81
350.971	11.8
351.341	11.98
351.711	11.68
352.081	11.67
352.45	11.5
352.82	12.12
353.19	11.58
353.56	11.42
353.929	12.12
354.299	12.13
354.669	11.79
355.038	12.3
355.408	11.98
355.777	12.19
356.147	11.88
356.516	12.71
356.885	12.12
357.254	12.04
357.624	12.23
357.993	12.25
358.362	11.98
358.731	11.92
359.1	12.43
359.469	12.63
359.838	12.45
360.207	12.13
360.576	12.37
360.945	12.16
361.314	12.54
361.682	12.53
362.051	12.34
362.42	13.17
362.788	12.63
363.157	12.77
363.525	12.55
363.894	12.84
364.262	12.83
364.631	12.83
364.999	12.78
365.367	12.44
365.735	13.51
366.104	13.05
366.472	13
366.84	12.97
367.208	13.41
367.576	13.21
367.944	13.58
368.312	13.33
368.68	12.89
369.048	13.51
369.416	13
369.783	12.94
370.151	13.36
370.519	13.79
370.886	13.74
371.254	13.81
371.621	13.94
371.989	13.52
372.356	13.05
372.724	13.67
373.091	13.45
373.458	13.43
373.826	13.68
374.193	13.35
374.56	13.8
374.927	13.87
375.294	13.96
375.661	13.86
376.028	13.47
376.395	13.74
376.762	13.81
377.129	13.88
377.496	14.23
377.863	14.17
378.229	13.64
378.596	13.79
378.963	13.81
379.329	13.8
379.696	14.13
380.062	14.38
380.429	14.56
380.795	14.23
381.161	14.33
381.528	14.45
381.894	14.28
382.26	13.97
382.626	14.05
382.993	14.18
383.359	14.82
383.725	14.14
384.091	14.26
384.457	14.44
384.823	14.39
385.188	14.55
385.554	14.21
385.92	14.64
386.286	14.61
386.651	14.35
387.017	15.03
387.383	14.46
387.748	14.52
388.114	14.35
388.479	14.35
388.845	14.84
389.21	14.42
389.575	14.59
389.94	14.77
390.306	14.66
390.671	15.05
391.036	14.7
391.401	14.66
391.766	14.87
392.131	14.48
392.496	14.82
392.861	14.51
393.226	14.96
393.591	14.85
393.956	14.7
394.32	14.68
394.685	14.76
395.05	14.79
395.414	14.58
395.779	14.62
396.143	14.8
396.508	14.99
396.872	14.83
397.236	15.09
397.601	14.8
397.965	15.11
398.329	15.03
398.694	14.79
399.058	15.27
399.422	14.82
399.786	14.86
400.15	15.14
400.514	14.9
400.878	15.03
401.242	15.39
401.605	15.13
401.969	14.87
402.333	15.2
402.697	15.23
403.06	15.26
403.424	14.93
403.787	14.71
404.151	14.95
404.514	14.81
404.878	14.73
405.241	15.07
405.604	14.86
405.968	15.01
406.331	14.92
406.694	14.69
407.057	14.67
407.42	14.88
407.783	14.59
408.146	14.73
408.509	14.76
408.872	14.99
409.235	14.7
409.598	15.07
409.961	14.61
410.323	14.85
410.686	14.8
411.049	14.61
411.411	14.77
411.774	14.65
412.136	14.59
412.499	14.92
412.861	14.98
413.223	14.79
413.586	14.78
413.948	14.97
414.31	14.74
414.672	14.89
415.035	14.73
415.397	15.37
415.759	15.11
416.121	15.09
416.483	14.89
416.845	14.88
417.206	14.88
417.568	15.04
417.93	14.89
418.292	15.09
418.653	15.09
419.015	15.05
419.377	15.05
419.738	15.24
420.1	14.89
420.461	15.21
420.822	15.32
421.184	15.31
421.545	15.3
421.906	15.34
422.267	15.29
422.629	15.48
422.99	15.38
423.351	15.47
423.712	15.56
424.073	15.8
424.434	15.65
424.795	15.92
425.155	15.8
425.516	15.82
425.877	16.09
426.238	15.98
426.598	16.18
426.959	16.25
427.32	16.42
427.68	16.36
428.041	16.55
428.401	16.77
428.761	16.68
429.122	17.06
429.482	17
429.842	17.35
430.202	17.03
430.563	17.5
430.923	17.21
431.283	17.63
431.643	17.51
432.003	17.72
432.363	17.6
432.722	17.58
433.082	17.8
433.442	17.96
433.802	17.89
434.161	17.79
434.521	18.17
434.881	18.01
435.24	17.81
435.6	18.07
435.959	18.08
436.319	18.23
436.678	18.39
437.037	18.52
437.396	18.57
437.756	18.79
438.115	18.74
438.474	18.71
438.833	18.59
439.192	18.8
439.551	18.77
439.91	19.14
440.269	19.24
440.628	19.1
440.987	19.19
441.345	19.13
441.704	19.13
442.063	19.12
442.421	19.11
442.78	19.07
443.138	19.29
443.497	19.44
443.855	19.45
444.214	19.63
444.572	19.84
444.93	19.86
445.288	19.97
445.647	19.88
446.005	19.88
446.363	19.81
446.721	20.01
447.079	19.7
447.437	19.86
447.795	20.03
448.153	19.82
448.51	19.82
448.868	20.04
449.226	20.09
449.584	20.24
449.941	20.38
450.299	20.44
450.656	20.45
451.014	20.67
451.371	20.62
451.729	20.58
452.086	20.96
452.443	20.77
452.801	21.23
453.158	20.91
453.515	20.86
453.872	21.07
454.229	20.88
454.586	21.13
454.943	21.36
455.3	21.29
455.657	21.34
456.014	21.23
456.371	21.46
456.727	21.66
457.084	21.82
457.441	21.49
457.797	21.78
458.154	22.12
458.51	21.95
458.867	22.04
459.223	22.04
459.58	21.92
459.936	21.92
460.292	21.81
460.648	21.92
461.005	21.97
461.361	21.85
461.717	21.73
462.073	21.66
462.429	22.24
462.785	22.32
463.141	22.28
463.496	22.32
463.852	22.69
464.208	22.7
464.564	22.75
464.919	22.83
465.275	23.09
465.631	23.3
465.986	22.83
466.342	23.04
466.697	22.97
467.052	23.12
467.408	23.13
467.763	23.18
468.118	23.4
468.473	22.97
468.829	23.06
469.184	23.27
469.539	23.3
469.894	23.06
470.249	23.6
470.603	23.47
470.958	23.63
471.313	23.62
471.668	23.86
472.023	23.71
472.377	23.67
472.732	23.56
473.086	23.73
473.441	23.9
473.795	24.09
474.15	24.1
474.504	23.96
474.859	23.97
475.213	24.08
475.567	24.11
475.921	24.14
476.275	24.26
476.63	24.37
476.984	24.61
477.338	24.56
477.692	24.27
478.045	24.42
478.399	24.4
478.753	24.3
479.107	24.49
479.461	24.48
479.814	24.45
480.168	24.48
480.521	24.77
480.875	24.64
481.228	24.73
481.582	24.91
481.935	24.93
482.289	24.72
482.642	24.84
482.995	24.95
483.348	24.62
483.701	24.71
484.055	24.91
484.408	24.72
484.761	24.48
485.114	24.27
485.466	23.76
485.819	23.67
486.172	23.93
486.525	24.2
486.878	24.45
487.23	24.62
487.583	24.78
487.936	24.98
488.288	24.93
488.641	24.88
488.993	24.54
489.345	24.4
489.698	24.42
490.05	24.62
490.402	24.86
490.754	25
491.107	25.32
491.459	25.52
491.811	25.69
492.163	25.61
492.515	25.58
492.866	25.52
493.218	25.16
493.57	24.91
493.922	25.03
494.274	25.52
494.625	25.8
494.977	25.99
495.328	26.26
495.68	26.14
496.031	26.55
496.383	26.39
496.734	26.45
497.086	26.6
497.437	26.45
497.788	26.46
498.139	26.32
498.49	26.42
498.842	26.34
499.193	26.57
499.544	26.65
499.894	26.69
500.245	26.63
500.596	26.63
500.947	26.89
501.298	26.78
501.648	26.92
501.999	26.95
502.35	27.14
502.7	27.12
503.051	27.47
503.401	27.22
503.752	27.3
504.102	27.35
504.452	27.36
504.803	27.27
505.153	27.5
505.503	27.4
505.853	27.48
506.203	27.42
506.553	27.5
506.903	27.38
507.253	27.62
507.603	27.61
507.953	27.69
508.303	27.61
508.652	27.64
509.002	27.86
509.352	27.66
509.701	27.54
510.051	27.71
510.4	27.58
510.75	27.67
511.099	27.68
511.449	27.73
511.798	27.86
512.147	27.77
512.496	27.86
512.846	28.05
513.195	27.95
513.544	28.05
513.893	27.94
514.242	28.02
514.591	28.31
514.939	28.06
515.288	28.11
515.637	28.18
515.986	28.47
516.334	28.38
516.683	28.46
517.032	28.44
517.38	28.61
517.729	28.53
518.077	28.22
518.426	28.51
518.774	28.58
519.122	28.39
519.47	28.18
519.819	28.3
520.167	28.22
520.515	28.03
520.863	28.05
521.211	28.3
521.559	28.44
521.907	28.63
522.255	28.51
522.602	28.68
522.95	28.87
523.298	28.77
523.645	28.99
523.993	28.72
524.341	29.02
524.688	28.94
525.036	28.89
525.383	29.23
525.73	29.21
526.078	29.01
526.425	28.98
526.772	28.88
527.119	28.87
527.466	28.52
527.814	28.81
528.161	28.78
528.508	28.6
528.854	28.78
529.201	28.76
529.548	28.52
529.895	28.42
530.242	28.01
530.588	27.9
530.935	28.11
531.282	28.45
531.628	28.69
531.975	28.88
532.321	28.95
532.667	29.12
533.014	29.33
533.36	29.27
533.706	29.42
534.052	29.16
534.399	29.1
534.745	28.81
535.091	28.79
535.437	28.86
535.783	28.98
536.129	29.38
536.474	29.44
536.82	29.55
537.166	30.06
537.512	29.89
537.857	29.86
538.203	29.77
538.549	29.56
538.894	29.7
539.239	29.69
539.585	29.91
539.93	30.05
540.276	30.42
540.621	30.2
540.966	30.36
541.311	30.07
541.656	30.14
542.001	30.29
542.346	30.12
542.691	29.68
543.036	29.48
543.381	29.3
543.726	29.43
544.071	29.83
544.415	29.93
544.76	30.11
545.105	30.03
545.449	30.25
545.794	30.46
546.138	30.6
546.483	30.71
546.827	30.71
547.171	30.74
547.516	30.81
547.86	30.76
548.204	30.74
548.548	30.57
548.892	30.74
549.236	30.69
549.58	31.13
549.924	31.14
550.268	31.62
550.612	31.35
550.956	31.69
551.3	31.39
551.643	31.57
551.987	31.72
552.33	31.79
552.674	31.83
553.017	31.75
553.361	31.84
553.704	32
554.048	31.68
554.391	31.64
554.734	31.83
555.077	31.78
555.42	31.84
555.764	31.78
556.107	32
556.45	32.32
556.793	32.44
557.135	32.19
557.478	32.4
557.821	32.52
558.164	32.65
558.507	32.22
558.849	32.1
559.192	32.6
559.534	32.73
559.877	32.4
560.219	32.62
560.562	32.83
560.904	32.69
561.246	32.56
561.589	33.07
561.931	32.62
562.273	32.69
562.615	32.91
562.957	32.76
563.299	32.53
563.641	32.71
563.983	32.99
564.325	32.8
564.667	32.99
565.008	32.89
565.35	33.23
565.692	32.99
566.033	33.17
566.375	33.06
566.716	33.33
567.058	33.01
567.399	33.03
567.741	32.82
568.082	32.77
568.423	32.94
568.764	32.81
569.105	33.24
569.447	33.25
569.788	33.29
570.129	33.6
570.47	33.53
570.811	33.62
571.151	33.64
571.492	33.49
571.833	33.87
572.174	33.45
572.514	33.9
572.855	33.8
573.195	33.57
573.536	33.58
573.876	33.37
574.217	33.66
574.557	33.77
574.898	34.07
575.238	33.88
575.578	33.92
575.918	34.04
576.258	34.07
576.598	34.19
576.938	34.01
577.278	34.11
577.618	34.07
577.958	34.29
578.298	34.34
578.638	34.36
578.977	34.54
579.317	34.4
579.657	34.68
579.996	34.66
580.336	34.81
580.675	34.76
581.014	35.23
581.354	35.06
581.693	35.15
582.032	34.96
582.372	35.15
582.711	35.29
583.05	35.54
583.389	35.12
583.728	35.16
584.067	35.45
584.406	35.11
584.745	35.18
585.083	35.28
585.422	35.72
585.761	35.74
586.1	35.97
586.438	35.59
586.777	35.6
587.115	35.92
587.454	35.73
587.792	35.74
588.13	36.03
588.469	35.93
588.807	36.03
589.145	35.92
589.483	36.13
589.821	36.06
590.159	36.53
590.497	36.08
590.835	36.28
591.173	36.15
591.511	36.39
591.849	35.92
592.187	36.24
592.524	36.65
592.862	36.13
593.2	36.47
593.537	36.42
593.875	36.17
594.212	36.11
594.55	36.65
594.887	37
595.224	36.41
595.561	36.66
595.899	36.61
596.236	36.6
596.573	36.95
596.91	36.28
597.247	36.64
597.584	37.23
597.921	36.75
598.258	36.74
598.594	36.77
598.931	36.46
599.268	36.39
599.604	36.85
599.941	36.99
600.277	36.88
600.614	37.38
600.95	36.76
601.287	37.35
601.623	36.74
601.959	37.23
602.296	37.1
602.632	37.42
602.968	37.78
603.304	37.24
603.64	37.55
603.976	37.79
604.312	37.12
604.648	37.54
604.984	37.41
605.319	37.38
605.655	37.56
605.991	37.41
606.326	37.49
606.662	37.32
606.998	37.26
607.333	37.41
607.668	37.75
608.004	38.14
608.339	38.11
608.674	37.91
609.01	37.96
609.345	37.83
609.68	38.34
610.015	38.22
610.35	38.12
610.685	38.03
611.02	38.34
611.355	38.06
611.689	38.16
612.024	38.25
612.359	38.1
612.694	37.98
613.028	38.33
613.363	38.56
613.697	39.02
614.032	38.68
614.366	38.6
614.7	38.8
615.035	38.95
615.369	38.67
615.703	38.85
616.037	39.18
616.371	38.37
616.705	38.86
617.039	39.13
617.373	39.02
617.707	38.8
618.041	39.1
618.375	39.19
618.709	39.3
619.042	39.25
619.376	39.61
619.71	39.56
620.043	39.45
620.377	39.2
620.71	39.67
621.043	39.68
621.377	39.88
621.71	39.08
622.043	39.43
622.376	39.4
622.709	39.53
623.043	39.72
623.376	39.32
623.709	39.77
624.041	39.48
624.374	39.77
624.707	39.99
625.04	40.4
625.373	39.68
625.705	40.41
626.038	39.95
626.37	40.19
626.703	39.51
627.035	39.85
627.368	40.28
627.7	39.66
628.032	39.76
628.365	40.21
628.697	39.85
629.029	40.18
629.361	39.92
629.693	40.35
630.025	40.17
630.357	40.23
630.689	40.46
631.021	40.46
631.353	40.73
631.684	39.93
632.016	40.32
632.348	40.04
632.679	40.53
633.011	40.53
633.342	41.02
633.674	40.71
634.005	41.12
634.336	40.55
634.668	41.29
634.999	40.74
635.33	40.93
635.661	40.86
635.992	40.68
636.323	40.4
636.654	41.31
636.985	41.06
637.316	41.17
637.647	41.22
637.977	41.26
638.308	41.56
638.639	41.24
638.969	41.21
639.3	41.18
639.63	40.88
639.961	41.19
640.291	41.42
640.622	42.11
640.952	41.84
641.282	41.78
641.612	41.63
641.943	41.66
642.273	41.99
642.603	41.93
642.933	42.01
643.263	42.59
643.592	41.39
643.922	41.37
644.252	41.84
644.582	41.84
644.911	41.92
645.241	42.03
645.571	41.79
645.9	41.92
646.23	42.19
646.559	42.11
646.888	41.73
647.218	42.37
647.547	42.72
647.876	41.92
648.205	41.8
648.534	42.03
648.863	42.33
649.192	42.4
649.521	42.38
649.85	42.14
650.179	42.22
650.508	41.95
650.837	42.62
651.165	42.35
651.494	42.49
651.822	42.68
652.151	42.44
652.479	42.43
652.808	42.02
653.136	42.77
653.465	42.8
653.793	42.75
654.121	42.6
654.449	42.69
654.777	42.62
655.105	42.8
655.433	43.07
655.761	43.17
656.089	42.72
656.417	43.66
656.745	42.84
657.073	43.68
657.4	43.55
657.728	43.56
658.056	42.72
658.383	43.21
658.711	43.59
659.038	42.83
659.365	43.61
659.693	43.01
660.02	43.46
660.347	43.29
660.674	43.44
661.001	43.15
661.329	42.71
661.656	43.53
661.982	43.69
662.309	43.52
662.636	43.69
662.963	43.63
663.29	43.57
663.616	43.78
663.943	43.49
664.27	43.75
664.596	43.91
664.923	44.15
665.249	43.63
665.576	44.76
665.902	44.14
666.228	44.43
666.554	44.55
666.881	44.11
667.207	43.87
667.533	43.95
667.859	44.35
668.185	44.64
668.511	44.33
668.837	43.55
669.162	45.1
669.488	44.62
669.814	44.86
670.139	45.32
670.465	44.55
670.791	45.15
671.116	44.58
671.442	44.57
671.767	44.1
672.092	44.4
672.418	44.4
672.743	45.32
673.068	44.36
673.393	45.11
673.718	44.33
674.043	44.87
674.368	45.24
674.693	45.13
675.018	44.32
675.343	44.83
675.667	45.5
675.992	45.36
676.317	45.61
676.641	45.04
676.966	45.21
677.29	45.06
677.615	45.12
677.939	45.6
678.264	46.45
678.588	45.74
678.912	45.89
679.236	45.21
679.56	45.22
679.885	46.08
680.209	45.5
680.532	45.28
680.856	46.08
681.18	46.43
681.504	45.9
681.828	45.39
682.152	44.93
682.475	45.86
682.799	45.5
683.122	45.21
683.446	45.39
683.769	46.58
684.093	45.32
684.416	46.38
684.739	45.61
685.062	45.89
685.386	46.59
685.709	45.53
686.032	45.64
686.355	46.5
686.678	45.79
687.001	46.2
687.324	46.53
687.646	46.62
687.969	46.61
688.292	46.17
688.614	45.77
688.937	46.1
689.26	46.8
689.582	46.66
689.904	46.81
690.227	46.38
690.549	46.32
690.871	46.79
691.194	45.88
691.516	46.71
691.838	46.27
692.16	45.83
692.482	46.25
692.804	47.46
693.126	47.48
693.448	46.78
693.769	47.65
694.091	46.94
694.413	47.55
694.735	46.76
695.056	47.99
695.378	47.22
695.699	47.45
696.021	47.59
696.342	46.81
696.663	46.86
696.984	47.31
697.306	46.93
697.627	46.48
697.948	46.87
698.269	46.74
698.59	46.52
698.911	46.15
699.232	47.3
699.553	47.94
699.873	47.26
700.194	47.83
700.515	46.85
700.835	47.2
701.156	47.12
701.477	47.37
701.797	47.43
702.117	47.69
702.438	47.41
702.758	47.47
703.078	47.75
703.398	47.31
703.719	47.06
704.039	47.87
704.359	47.61
704.679	48.51
704.999	46.69
705.319	46.84
705.638	46.83
705.958	48.16
706.278	48.71
706.597	48.5
706.917	48.02
707.237	47.44
707.556	48.03
707.876	47.64
708.195	47.48
708.514	46.95
708.834	47.58
709.153	48.62
709.472	48.41
709.791	47.79
710.11	46.98
710.429	47.71
710.748	49.03
711.067	47.27
711.386	47.84
711.705	48.02
712.023	49.64
712.342	47.39
712.661	47.85
712.979	48.59
713.298	48.51
713.616	48.67
713.935	48.72
714.253	48.28
714.572	48.84
714.89	47.78
715.208	48.59
715.526	48.3
715.844	47.65
716.162	49.08
716.48	49.11
716.798	48.24
717.116	47.62
717.434	48.2
717.752	48.75
718.069	47.79
718.387	48.76
718.705	47.92
719.022	47.69
719.34	49.01
719.657	47.41
719.975	49.74
720.292	49.59
720.609	48.47
720.927	48.29
721.244	48.85
721.561	48.28
721.878	48.32
722.195	49.69
722.512	48.33
722.829	49.3
723.146	49.04
723.463	49.29
723.779	49.48
724.096	49.2
724.413	47.71
724.729	49.01
725.046	50.07
725.362	47.51
725.679	48.91
725.995	47.91
726.311	48.61
726.628	48.04
726.944	49.76
727.26	48.67
727.576	49.4
727.892	49.7
728.208	48.78
728.524	47.35
728.84	48.91
729.156	48.8
729.472	49.13
729.787	50.87
730.103	49.55
730.419	49.31
730.734	48.26
731.05	49.08
731.365	47.32
731.681	50.64
731.996	49.93
732.311	49.65
732.626	50.39
732.942	50
733.257	49.36
733.572	50.38
733.887	48.96
734.202	48.86
734.517	49.38
734.832	50.58
735.146	50.7
735.461	50.69
735.776	49
736.091	49.96
736.405	51.46
736.72	50.67
737.034	50.31
737.349	51.72
737.663	50.45
737.977	49.8
738.292	48.07
738.606	49.11
738.92	51.63
739.234	50.54
739.548	51.47
739.862	49.09
740.176	50.66
740.49	49.85
740.804	50.31
741.117	49.92
741.431	49.35
741.745	49.03
742.058	50.56
742.372	51.01
742.685	51.23
742.999	48.81
743.312	49.03
743.626	52.52
743.939	50.89
744.252	50.46
744.565	49.42
744.878	52.11
745.191	50.08
745.505	48.93
745.817	50.54
746.13	50.79
746.443	52.47
746.756	50.5
747.069	50.33
747.381	51.79
747.694	48.84
748.007	50.21
748.319	51.71
748.632	51.77
748.944	51.03
749.256	50.45
749.569	50.32
749.881	52.34
750.193	51.45
750.505	49.82
750.817	48.95
751.129	49.7
751.441	49.03
751.753	50.64
752.065	51.65
752.377	49.83
752.689	51.13
753	50.34
753.312	50.26
753.624	50.63
753.935	52.87
754.247	52.05
754.558	52.88
754.869	49.94
755.181	51.64
755.492	50.47
755.803	51.8
756.114	50.93
756.425	50.81
756.736	50.63
757.047	50.5
757.358	50.56
757.669	48.39
757.98	48.87
758.291	48.05
758.601	51.06
758.912	50.17
759.223	52.64
759.533	52.74
759.844	50.36
760.154	51.81
760.464	52.15
760.775	51.3
761.085	51.74
761.395	52.57
761.705	49.73
762.016	50.38
762.326	52.1
762.636	50.04
762.945	50.13
763.255	54.6
763.565	54.7
763.875	52.81
764.185	49.3
764.494	51.67
764.804	51.63
765.113	52.98
765.423	49.73
765.732	52.35
766.042	50.9
766.351	50.91
766.66	52.94
766.97	54.1
767.279	51.65
767.588	52.16
767.897	52.07
768.206	54.25
768.515	52.01
768.824	53.06
769.133	52.93
769.441	52.88
769.75	51.73
770.059	51.84
770.367	51.86
770.676	51.35
770.984	51.65
771.293	52.37
771.601	53.26
771.91	53.36
772.218	54.52
772.526	50.62
772.834	50.56
773.142	53.66
773.45	54.25
773.758	50.01
774.066	52.85
774.374	50.46
774.682	51.88
774.99	55.95
775.298	53.23
775.605	48.33
775.913	55.22
776.22	54.89
776.528	51.59
776.835	53.38
777.143	50.26
777.45	53.43
777.757	54.31
778.065	51.61
778.372	49.48
778.679	48.54
778.986	51.58
779.293	47.87
779.6	50.47
779.907	51.88
780.214	55.24
780.52	54.06
780.827	52.63
781.134	49.53
781.44	51.14
781.747	50.18
782.053	52.01
782.36	53.75
782.666	52.93
782.973	52.63
783.279	51.64
783.585	53.78
783.891	53.7
784.197	54.01
784.503	56.41
784.809	49.37
785.115	50.67
785.421	50.92
785.727	56.68
786.033	54.97
786.339	49.17
786.644	49.19
786.95	52.45
787.255	54.2
787.561	56.11
787.866	52.76
788.172	51.95
788.477	51
788.782	53.77
789.088	53.85
789.393	51.96
789.698	51.28
790.003	51.67
790.308	52.93
790.613	53.75
790.918	52.78
791.223	51.8
791.527	52.08
791.832	54.52
792.137	52.2
792.441	51.62
792.746	51.89
793.05	52.58
793.355	51.12
793.659	50.1
793.963	51.01
794.268	52.64
794.572	50.39
794.876	56.08
795.18	56.15
795.484	56.85
795.788	55.98
796.092	50.74
796.396	52.06
796.7	52.01
797.004	55.18
797.307	52.28
797.611	53.02
797.915	56.54
798.218	54.91
798.522	53.9
798.825	53.42
799.128	52.56
799.432	54.79
799.735	51.21
800.038	52.21
800.341	54.29
800.644	53.09
800.947	52.93
801.25	52.23
801.553	53.46
801.856	54.12
802.159	50.34
802.462	47.03
802.764	54.71
803.067	55.34
803.37	50.21
803.672	46.48
803.975	55.62
804.277	49.23
804.579	54.41
804.882	51.75
805.184	52.99
805.486	49.6
805.788	56.47
806.09	55.28
806.392	50.8
806.694	53
806.996	57.75
807.298	50.56
807.6	51.82
807.902	52.06
808.203	57.36
808.505	51.8
808.807	55.04
809.108	50.63
809.409	58.24
809.711	52.52
810.012	47.83
810.313	51.96
810.615	50.64
810.916	61.27
811.217	46.94
811.518	52.74
811.819	48.88
812.12	54.54
812.421	51.75
812.722	52.75
813.023	55.29
813.323	50.95
813.624	50.03
813.925	62.48
814.225	46.32
814.526	61.01
814.826	56.37
815.126	51.39
815.427	48.31
815.727	52.16
816.027	55.43
816.327	48.55
816.627	46.6
816.927	53.07
817.227	45.55
817.527	41.46
817.827	56.43
818.127	55.02
818.427	52.01
818.727	55.18
819.026	54.95
819.326	57.91
819.625	57.99
819.925	51.87
820.224	60.24
820.524	48.96
820.823	54.75
821.122	55.6
821.421	56.76
821.72	55.63
822.019	52.68
822.318	58.93
822.617	51.02
822.916	54.1
823.215	53.35
823.514	52.75
823.813	51.09
824.111	55.65
824.41	54.77
824.709	54.63
825.007	56.22
825.306	55.37
825.604	56.08
825.902	56.45
826.201	56.45
826.499	55.45
826.797	57.17
827.095	55.16
827.393	56.94
827.691	54.76
827.989	54.58
828.287	55.31
828.585	54.07
828.882	60.18
829.18	52.36
829.478	58.64
829.775	56.99
830.073	55.87
830.37	56.32
830.668	54.53
830.965	56.41
831.263	54.93
831.56	56.38
831.857	58.06
832.154	58.29
832.451	55.87
832.748	59.18
833.045	53.58
833.342	56.68
833.639	60.03
833.936	49.89
834.232	55.54
834.529	57.22
834.826	53.93
835.122	50.16
835.419	49.18
835.715	50.33
836.012	52.07
836.308	55.44
836.604	51.77
836.901	51.68
837.197	54.44
837.493	59.86
837.789	50
838.085	52.4
838.381	57.17
838.677	55.48
838.972	56.59
839.268	51.73
839.564	44.67
839.86	51.99
840.155	49.29
840.451	51.22
840.746	50.66
841.042	49.12
841.337	59.9
841.632	56.96
841.928	56.24
842.223	53.09
842.518	51.57
842.813	53.56
843.108	53.63
843.403	57.57
843.698	51.11
843.993	52.27
844.287	47.24
844.582	47.7
844.877	57.1
845.171	59.02
845.466	44.93
845.761	46.36
846.055	56.12
846.349	46.81
846.644	43.21
846.938	47.7
847.232	54.98
847.526	43.46
847.82	61.32
848.114	49.39
848.408	46.33
848.702	52.59
848.996	48.34
849.29	61.09
849.584	45.57
849.877	39.09
850.171	57.74
850.465	44.31
850.758	53.53
851.052	37.86
851.345	48.95
851.638	49.26
851.932	28.05
852.225	25.37
852.518	58.86
852.811	49.4
853.104	44.15
853.397	53.36
853.69	50.65
853.983	56.26
854.276	59.64
854.569	63.01
854.861	51.56
855.154	55.92
855.447	32.76
855.739	61.51
856.032	59.17
856.324	62.88
856.616	57.43
856.909	66.43
857.201	53.32
857.493	21.48
857.785	59.6
858.077	53.13
858.369	30.71
858.661	57.99
858.953	39.2
859.245	51.66
859.537	58.71
859.829	40.59
860.12	83.9
860.412	67.41
860.703	41.13
860.995	33.74
861.286	25.11
861.578	15.67
861.869	56.27
862.16	52.79
862.452	64.13
862.743	31.8
863.034	64.51
863.325	46.12
863.616	65.36
863.907	34.66
864.198	37.27
864.488	55.54
864.779	54.7
865.07	32.08
865.36	19.77
865.651	55.66
865.941	55.93
866.232	14.78
866.522	48.21
866.813	52.55
867.103	66.39
867.393	35.94
867.683	48.22
867.973	41.94
868.263	28.29
868.553	49.7
868.843	72.45
869.133	31.44
869.423	13.3
869.713	76.77
870.002	57.01
870.292	34.78
870.582	64.61
870.871	23.6
871.161	55.69
871.45	28.62
871.739	43.19
872.029	37.65
872.318	62.21
872.607	55.43
872.896	57.78
873.185	61.2
873.474	69.32
873.763	36.31
874.052	61.98
874.341	60.14
874.63	59.17
874.918	48.03
875.207	44.76
875.496	44.16
875.784	30.1
876.073	22.68
876.361	16.4
876.649	46.63
876.938	81.28
877.226	56.81
877.514	72.01
877.802	43.53
878.09	31.04
878.378	82.88
878.666	66.61
878.954	31.27
879.242	46.3
879.53	61.62
879.817	51.35
880.105	81.26
880.392	45.96
880.68	2.39
880.967	89.71
881.255	37.77
881.542	34.99
881.83	6.64
882.117	28.95
882.404	56.86
882.691	54.82
882.978	34.84
883.265	55.44
883.552	29.82
883.839	52.3
884.126	55.11
884.413	64.41
884.699	56.15
884.986	53.27
885.273	61.91
885.559	61.91
885.846	61.91
