Data from 2009-1_chest_Reflection__2__217.txt Node

Date: Fri Dec 15 18:22:32 CST 2023
User: ToomeyLab
Spectrometer: FLMS14357
Trigger mode: 0
Integration Time (sec): 1.000000E-2
Scans to average: 100
Electric dark correction enabled: true
Nonlinearity correction enabled: false
Boxcar width: 0
XAxis mode: Wavelengths
Number of Pixels in Spectrum: 2048
>>>>>Begin Spectral Data<<<<<
189.047	-79.13
189.435	-79.13
189.823	-79.13
190.211	1566.06
190.599	-5.98
190.987	43.74
191.375	1369.5
191.763	236.73
192.151	18.13
192.538	171.06
192.926	-349.15
193.314	108.73
193.702	55.37
194.089	-71.79
194.477	-1.82
194.864	-14.23
195.252	61.82
195.639	84.98
196.027	38.11
196.414	109.94
196.801	27.45
197.189	235.25
197.576	138.3
197.963	-1738.79
198.351	-43.4
198.738	-33.19
199.125	6.52
199.512	8.04
199.899	-10.29
200.286	27.51
200.673	107.58
201.06	3.63
201.447	3
201.833	-3.89
202.22	45.89
202.607	47.66
202.994	-235.99
203.38	15.76
203.767	34.42
204.154	58.94
204.54	49.38
204.927	-12.8
205.313	-48.66
205.699	64.92
206.086	37.98
206.472	9.94
206.858	32.38
207.245	-35.01
207.631	19.2
208.017	10.55
208.403	1.31
208.789	26.15
209.175	24.67
209.561	-45.21
209.947	22.5
210.333	-24.21
210.719	19.76
211.105	13.49
211.491	-15.08
211.876	25.73
212.262	5.47
212.648	13.91
213.034	40.57
213.419	-15.99
213.805	-18.78
214.19	50.69
214.576	14.37
214.961	-41.08
215.346	-66.45
215.732	6.6
216.117	-10.16
216.502	-8.28
216.888	17.93
217.273	16.46
217.658	-12.27
218.043	2.37
218.428	-38.93
218.813	-25.39
219.198	-11.38
219.583	-2.47
219.968	2.36
220.353	-15.69
220.738	28.12
221.122	2.61
221.507	-17.38
221.892	-48.89
222.276	-34.04
222.661	11.3
223.046	16.99
223.43	1.11
223.815	13.89
224.199	7.14
224.583	-4.09
224.968	4.21
225.352	7.3
225.736	0.93
226.121	-3.24
226.505	0.05
226.889	11.46
227.273	-0.76
227.657	10.06
228.041	1.82
228.425	9.9
228.809	6.58
229.193	1.32
229.577	3.39
229.961	5.11
230.344	3.84
230.728	4.84
231.112	3.64
231.495	3.3
231.879	3.41
232.263	3.15
232.646	2.93
233.03	2.47
233.413	2.34
233.797	4.98
234.18	2.13
234.563	6.6
234.946	2.22
235.33	6.9
235.713	3.9
236.096	3.59
236.479	4.46
236.862	3.65
237.245	4.6
237.628	2.63
238.011	4.06
238.394	6.16
238.777	4.22
239.16	2.19
239.543	1.95
239.925	3.98
240.308	5.68
240.691	7.77
241.073	3.67
241.456	2.85
241.838	4
242.221	2.58
242.603	4.47
242.986	4.05
243.368	4.03
243.75	4.81
244.133	4.35
244.515	4.36
244.897	4.33
245.279	4.16
245.661	4.33
246.043	3.71
246.425	3.66
246.807	5.06
247.189	4.76
247.571	4.6
247.953	4.55
248.335	4.29
248.717	4.29
249.098	3.89
249.48	4.2
249.862	4.06
250.243	3.64
250.625	4.5
251.006	4.52
251.388	3
251.769	3.44
252.151	4.68
252.532	4.69
252.913	3.9
253.295	3.63
253.676	3.86
254.057	3.76
254.438	3.67
254.819	3.65
255.2	3.85
255.581	3.39
255.962	3.8
256.343	4.31
256.724	4.21
257.105	5.06
257.486	2.37
257.867	3.92
258.247	4.61
258.628	4.67
259.009	3.86
259.389	4.34
259.77	3.66
260.15	2.78
260.531	3.5
260.911	4.58
261.292	3.79
261.672	4.01
262.052	3.94
262.432	4.2
262.813	4.06
263.193	4.25
263.573	3.37
263.953	3.7
264.333	4.34
264.713	4.5
265.093	3.32
265.473	3.9
265.853	1.83
266.233	4.35
266.612	1.53
266.992	3.56
267.372	5.22
267.752	3.44
268.131	3.24
268.511	4.42
268.89	4.53
269.27	3.67
269.649	3.5
270.029	3.6
270.408	5
270.787	3.3
271.167	4.15
271.546	4.41
271.925	3.17
272.304	4.34
272.683	3.85
273.062	3.38
273.441	3.64
273.82	3.23
274.199	3.96
274.578	3.56
274.957	3.62
275.336	3.77
275.715	3.88
276.093	3.42
276.472	4.2
276.851	3.03
277.229	3.18
277.608	2.46
277.986	3.73
278.365	3.83
278.743	3.7
279.122	3.86
279.5	3.81
279.878	4.44
280.257	4.01
280.635	3.25
281.013	2.97
281.391	4.22
281.769	4.12
282.147	3.79
282.525	4.37
282.903	3.33
283.281	4.35
283.659	4.02
284.037	3.77
284.415	4.28
284.792	3.84
285.17	2.81
285.548	2.81
285.925	3.24
286.303	3.85
286.68	3.97
287.058	3.8
287.435	3.42
287.813	3.65
288.19	3.46
288.567	3.97
288.945	4.05
289.322	3.57
289.699	3.61
290.076	3.76
290.453	3.78
290.83	3.46
291.207	3.35
291.584	3.72
291.961	4.05
292.338	4.06
292.715	4.16
293.092	4.03
293.469	3.59
293.845	4.06
294.222	3.59
294.599	3.92
294.975	3.64
295.352	4.24
295.728	3.36
296.105	4.11
296.481	4.04
296.858	3.93
297.234	4.04
297.61	4.21
297.986	4.01
298.363	4.22
298.739	4.17
299.115	4.13
299.491	4.25
299.867	4.02
300.243	4.07
300.619	3.91
300.995	3.89
301.371	4.21
301.746	4.56
302.122	4.79
302.498	3.63
302.874	4.71
303.249	4.29
303.625	4.12
304	4.52
304.376	4.67
304.751	4.23
305.127	5.14
305.502	3.6
305.878	4.1
306.253	4.25
306.628	5.02
307.003	4.76
307.378	4.49
307.754	4.41
308.129	3.94
308.504	3.89
308.879	4.05
309.254	4.91
309.629	4.87
310.003	4.6
310.378	4.75
310.753	4.9
311.128	4.3
311.502	4.51
311.877	5.09
312.252	4.43
312.626	4.53
313.001	4.25
313.375	5.21
313.75	4.26
314.124	4.48
314.498	5.03
314.873	4.01
315.247	4.52
315.621	4.82
315.995	4.15
316.369	4.78
316.743	4.09
317.117	4.68
317.491	4.58
317.865	4.96
318.239	4.37
318.613	4.75
318.987	5.12
319.361	4.44
319.734	4.72
320.108	5.15
320.482	4.82
320.855	5.05
321.229	4.55
321.602	4.85
321.976	5.12
322.349	3.94
322.723	5.06
323.096	4.94
323.469	4.71
323.843	4.54
324.216	4.89
324.589	5.02
324.962	5.22
325.335	4.74
325.708	4.85
326.081	5.23
326.454	4.67
326.827	4.61
327.2	5.07
327.573	4.93
327.945	5.02
328.318	4.72
328.691	4.77
329.063	5.05
329.436	5.15
329.809	5.1
330.181	4.77
330.553	5.06
330.926	4.8
331.298	5.19
331.671	4.34
332.043	5.27
332.415	4.93
332.787	4.67
333.159	6.18
333.532	5
333.904	4.98
334.276	4.72
334.648	5.25
335.02	5.23
335.391	5.04
335.763	4.79
336.135	4.93
336.507	5.42
336.879	4.73
337.25	4.94
337.622	5.47
337.993	4.94
338.365	5.27
338.736	5.03
339.108	5.3
339.479	4.38
339.851	4.85
340.222	4.7
340.593	4.89
340.964	4.93
341.336	5.73
341.707	4.7
342.078	5.16
342.449	5.04
342.82	5.61
343.191	5.11
343.562	5.09
343.933	5.43
344.303	4.8
344.674	4.67
345.045	5.46
345.416	5.68
345.786	4.8
346.157	5.35
346.527	4.38
346.898	4.99
347.268	5.46
347.639	5.07
348.009	5.14
348.38	5.12
348.75	5.42
349.12	5.1
349.49	5.75
349.861	4.74
350.231	4.9
350.601	5.12
350.971	5.18
351.341	5.18
351.711	5.01
352.081	5.18
352.45	5.03
352.82	5.25
353.19	5
353.56	4.92
353.929	5.51
354.299	4.58
354.669	4.64
355.038	4.95
355.408	4.74
355.777	5.22
356.147	4.97
356.516	5.05
356.885	5.37
357.254	5.26
357.624	5.44
357.993	5.18
358.362	4.74
358.731	5.01
359.1	5.3
359.469	5.32
359.838	5.3
360.207	5.24
360.576	4.88
360.945	5.02
361.314	5.53
361.682	5.16
362.051	5.07
362.42	5.44
362.788	5.15
363.157	5.35
363.525	5.2
363.894	5.42
364.262	5.37
364.631	5.31
364.999	5.19
365.367	5.14
365.735	5.77
366.104	5.52
366.472	5.33
366.84	5.07
367.208	5.12
367.576	5.59
367.944	5.63
368.312	5.29
368.68	5.25
369.048	5.48
369.416	5.27
369.783	4.99
370.151	5.1
370.519	5.69
370.886	5.64
371.254	5.18
371.621	5.36
371.989	5.15
372.356	5.09
372.724	5.73
373.091	5.1
373.458	5.54
373.826	5.44
374.193	5.11
374.56	5.35
374.927	5.39
375.294	5.24
375.661	5.43
376.028	5.3
376.395	5.36
376.762	5.77
377.129	5.25
377.496	5.38
377.863	5.5
378.229	4.78
378.596	5.33
378.963	5.36
379.329	5.31
379.696	5.65
380.062	5.54
380.429	5.65
380.795	5.28
381.161	5.37
381.528	5.94
381.894	5.45
382.26	5.53
382.626	5.59
382.993	5.22
383.359	5.59
383.725	5.24
384.091	5.56
384.457	5.58
384.823	5.34
385.188	5.35
385.554	5.76
385.92	5.4
386.286	5.59
386.651	5.74
387.017	5.73
387.383	5.49
387.748	5.33
388.114	5.51
388.479	5.51
388.845	5.73
389.21	5.62
389.575	5.36
389.94	5.7
390.306	5.72
390.671	5.61
391.036	5.43
391.401	5.03
391.766	5.68
392.131	5.38
392.496	5.52
392.861	5.59
393.226	5.9
393.591	5.38
393.956	5.39
394.32	5.65
394.685	5.42
395.05	5.38
395.414	5.81
395.779	5.33
396.143	5.61
396.508	5.5
396.872	5.7
397.236	5.46
397.601	5.42
397.965	5.62
398.329	5.85
398.694	5.67
399.058	5.84
399.422	5.28
399.786	5.89
400.15	5.6
400.514	5.81
400.878	5.76
401.242	6.08
401.605	5.72
401.969	5.85
402.333	5.46
402.697	5.53
403.06	5.79
403.424	5.56
403.787	5.45
404.151	5.8
404.514	5.55
404.878	5.29
405.241	5.84
405.604	5.59
405.968	5.83
406.331	5.73
406.694	6.06
407.057	5.67
407.42	5.82
407.783	5.55
408.146	5.62
408.509	5.64
408.872	5.4
409.235	5.78
409.598	6.04
409.961	5.38
410.323	5.99
410.686	5.87
411.049	5.57
411.411	5.64
411.774	5.67
412.136	5.52
412.499	5.77
412.861	5.85
413.223	5.71
413.586	5.8
413.948	5.53
414.31	5.78
414.672	5.55
415.035	5.78
415.397	5.93
415.759	5.58
416.121	5.98
416.483	5.75
416.845	5.78
417.206	5.92
417.568	5.84
417.93	5.39
418.292	5.68
418.653	5.77
419.015	5.71
419.377	5.8
419.738	5.85
420.1	5.81
420.461	5.82
420.822	5.71
421.184	5.79
421.545	5.72
421.906	5.55
422.267	5.79
422.629	5.76
422.99	5.75
423.351	5.65
423.712	5.69
424.073	5.76
424.434	5.83
424.795	5.72
425.155	5.91
425.516	5.67
425.877	5.78
426.238	5.72
426.598	5.91
426.959	5.82
427.32	5.93
427.68	5.91
428.041	5.86
428.401	6.02
428.761	5.93
429.122	6.09
429.482	6.06
429.842	6.16
430.202	6.22
430.563	6.28
430.923	6.06
431.283	6.21
431.643	6.04
432.003	6.29
432.363	6.09
432.722	6
433.082	6.2
433.442	6.07
433.802	6.16
434.161	6.03
434.521	6.31
434.881	6.18
435.24	5.94
435.6	6.09
435.959	6.09
436.319	6.07
436.678	6.36
437.037	6.13
437.396	6.45
437.756	6.28
438.115	6.18
438.474	6.47
438.833	6.18
439.192	6.17
439.551	6.43
439.91	6.28
440.269	6.22
440.628	6.33
440.987	6.41
441.345	6.07
441.704	6.46
442.063	6.29
442.421	6.25
442.78	6.41
443.138	6.37
443.497	6.36
443.855	6.48
444.214	6.35
444.572	6.45
444.93	6.34
445.288	6.41
445.647	6.48
446.005	6.42
446.363	6.53
446.721	6.37
447.079	6.13
447.437	6.36
447.795	6.43
448.153	6.35
448.51	6.34
448.868	6.4
449.226	6.34
449.584	6.4
449.941	6.51
450.299	6.63
450.656	6.6
451.014	6.5
451.371	6.43
451.729	6.44
452.086	6.81
452.443	6.69
452.801	6.59
453.158	6.59
453.515	6.63
453.872	6.65
454.229	6.61
454.586	6.55
454.943	6.61
455.3	6.68
455.657	6.55
456.014	6.64
456.371	6.61
456.727	6.76
457.084	6.8
457.441	6.87
457.797	6.65
458.154	6.83
458.51	6.86
458.867	7.03
459.223	6.79
459.58	6.55
459.936	6.58
460.292	6.74
460.648	6.7
461.005	6.7
461.361	6.67
461.717	6.67
462.073	6.66
462.429	6.79
462.785	6.74
463.141	6.79
463.496	6.83
463.852	6.98
464.208	6.85
464.564	7.12
464.919	6.94
465.275	6.94
465.631	7.22
465.986	7.15
466.342	6.9
466.697	6.78
467.052	7.15
467.408	6.97
467.763	7.16
468.118	7
468.473	6.83
468.829	7
469.184	6.87
469.539	7.13
469.894	6.87
470.249	7.08
470.603	7.24
470.958	7.21
471.313	7.19
471.668	7.23
472.023	7.14
472.377	7.12
472.732	7.06
473.086	7.06
473.441	6.92
473.795	7.21
474.15	7.16
474.504	7.2
474.859	7.19
475.213	6.89
475.567	7.1
475.921	7.22
476.275	7.26
476.63	7.36
476.984	7.33
477.338	7.34
477.692	7.05
478.045	7.28
478.399	7.22
478.753	7.37
479.107	7.34
479.461	7.27
479.814	7.25
480.168	7.3
480.521	7.33
480.875	7.2
481.228	7.25
481.582	7.38
481.935	7.3
482.289	7.26
482.642	7.27
482.995	7.33
483.348	7.34
483.701	7.22
484.055	7.3
484.408	7.32
484.761	7.13
485.114	7.05
485.466	6.87
485.819	6.83
486.172	6.93
486.525	7.01
486.878	7.14
487.23	7.16
487.583	7.26
487.936	7.26
488.288	7.24
488.641	7.24
488.993	7.07
489.345	7.06
489.698	7.03
490.05	7.11
490.402	7.23
490.754	7.27
491.107	7.4
491.459	7.45
491.811	7.46
492.163	7.55
492.515	7.49
492.866	7.45
493.218	7.36
493.57	7.16
493.922	7.25
494.274	7.46
494.625	7.52
494.977	7.61
495.328	7.71
495.68	7.7
496.031	7.88
496.383	7.73
496.734	7.76
497.086	7.81
497.437	7.83
497.788	7.69
498.139	7.77
498.49	7.78
498.842	7.53
499.193	7.69
499.544	7.8
499.894	7.73
500.245	7.87
500.596	7.74
500.947	7.91
501.298	7.79
501.648	7.89
501.999	8.01
502.35	8
502.7	7.95
503.051	7.82
503.401	8.03
503.752	8.04
504.102	7.9
504.452	7.97
504.803	7.92
505.153	7.9
505.503	8.11
505.853	8.04
506.203	7.99
506.553	8.01
506.903	8
507.253	8
507.603	8
507.953	8.05
508.303	8.26
508.652	7.97
509.002	8.11
509.352	8.25
509.701	8.02
510.051	8.03
510.4	8.09
510.75	8.11
511.099	8.04
511.449	8.07
511.798	8.22
512.147	8.22
512.496	8.22
512.846	8.15
513.195	8.28
513.544	8.19
513.893	8.24
514.242	8.38
514.591	8.41
514.939	8.28
515.288	8.15
515.637	8.44
515.986	8.36
516.334	8.42
516.683	8.47
517.032	8.43
517.38	8.57
517.729	8.4
518.077	8.41
518.426	8.44
518.774	8.4
519.122	8.47
519.47	8.42
519.819	8.29
520.167	8.29
520.515	8.29
520.863	8.35
521.211	8.54
521.559	8.57
521.907	8.6
522.255	8.57
522.602	8.57
522.95	8.69
523.298	8.66
523.645	8.73
523.993	8.59
524.341	8.87
524.688	8.77
525.036	8.62
525.383	8.94
525.73	8.95
526.078	8.81
526.425	8.78
526.772	8.86
527.119	8.66
527.466	8.57
527.814	8.75
528.161	8.78
528.508	8.76
528.854	8.69
529.201	8.68
529.548	8.68
529.895	8.59
530.242	8.46
530.588	8.44
530.935	8.52
531.282	8.56
531.628	8.71
531.975	8.87
532.321	8.88
532.667	8.92
533.014	9.08
533.36	9.08
533.706	9
534.052	9.04
534.399	8.87
534.745	8.9
535.091	8.81
535.437	8.91
535.783	8.94
536.129	9.03
536.474	9.17
536.82	9.22
537.166	9.32
537.512	9.25
537.857	9.19
538.203	9.21
538.549	9.03
538.894	9.1
539.239	9.23
539.585	9.33
539.93	9.36
540.276	9.56
540.621	9.55
540.966	9.42
541.311	9.49
541.656	9.44
542.001	9.57
542.346	9.52
542.691	9.3
543.036	9.25
543.381	9.19
543.726	9.3
544.071	9.45
544.415	9.53
544.76	9.56
545.105	9.61
545.449	9.56
545.794	9.72
546.138	9.7
546.483	9.91
546.827	9.88
547.171	9.79
547.516	9.9
547.86	9.85
548.204	9.95
548.548	9.77
548.892	10
549.236	9.83
549.58	9.84
549.924	9.93
550.268	10.04
550.612	10.36
550.956	10.29
551.3	10.38
551.643	10.4
551.987	10.32
552.33	10.23
552.674	10.23
553.017	10.31
553.361	10.31
553.704	10.67
554.048	10.32
554.391	10.27
554.734	10.36
555.077	10.44
555.42	10.25
555.764	10.4
556.107	10.32
556.45	10.56
556.793	10.55
557.135	10.52
557.478	10.88
557.821	10.75
558.164	10.92
558.507	10.8
558.849	10.6
559.192	11.01
559.534	10.83
559.877	10.75
560.219	10.68
560.562	10.91
560.904	10.93
561.246	11.18
561.589	11.04
561.931	11.02
562.273	10.79
562.615	11
562.957	10.94
563.299	10.91
563.641	10.92
563.983	11.05
564.325	11.06
564.667	10.97
565.008	11.1
565.35	11.2
565.692	11.12
566.033	11.25
566.375	11.38
566.716	11.38
567.058	11.24
567.399	11.16
567.741	11.05
568.082	11.3
568.423	11.38
568.764	11.36
569.105	11.41
569.447	11.63
569.788	11.55
570.129	11.64
570.47	11.63
570.811	11.79
571.151	11.63
571.492	11.68
571.833	11.7
572.174	11.69
572.514	11.85
572.855	11.78
573.195	11.83
573.536	11.7
573.876	11.6
574.217	11.79
574.557	12
574.898	12.16
575.238	12.13
575.578	11.97
575.918	12.25
576.258	12.21
576.598	12.14
576.938	12.12
577.278	12.13
577.618	12.22
577.958	12.24
578.298	12.34
578.638	12.17
578.977	12.13
579.317	12.31
579.657	12.46
579.996	12.4
580.336	12.39
580.675	12.65
581.014	12.55
581.354	12.73
581.693	12.77
582.032	12.7
582.372	12.51
582.711	12.85
583.05	12.73
583.389	12.72
583.728	12.67
584.067	13.12
584.406	12.98
584.745	12.9
585.083	13.06
585.422	12.95
585.761	13.24
586.1	13.11
586.438	12.98
586.777	13.29
587.115	13.13
587.454	13.31
587.792	13.27
588.13	13.57
588.469	13.35
588.807	13.06
589.145	13.18
589.483	13.04
589.821	13.42
590.159	13.69
590.497	13.78
590.835	13.79
591.173	13.31
591.511	13.85
591.849	13.83
592.187	13.43
592.524	13.66
592.862	13.76
593.2	13.69
593.537	13.99
593.875	13.73
594.212	13.88
594.55	13.69
594.887	13.96
595.224	13.88
595.561	14
595.899	13.78
596.236	13.91
596.573	14.24
596.91	13.65
597.247	13.77
597.584	14.38
597.921	14.06
598.258	13.86
598.594	13.96
598.931	13.94
599.268	14.14
599.604	14.07
599.941	14.45
600.277	14.09
600.614	14.36
600.95	14.1
601.287	14.26
601.623	14.2
601.959	14.32
602.296	14.65
602.632	14.63
602.968	14.73
603.304	14.55
603.64	14.52
603.976	14.82
604.312	14.82
604.648	14.59
604.984	14.56
605.319	14.89
605.655	14.93
605.991	14.77
606.326	15.01
606.662	14.7
606.998	14.56
607.333	14.98
607.668	14.93
608.004	15.12
608.339	15.52
608.674	15.33
609.01	15.19
609.345	14.99
609.68	15.63
610.015	15.12
610.35	15
610.685	15.27
611.02	15.14
611.355	15.27
611.689	15.25
612.024	15.45
612.359	15.4
612.694	15.51
613.028	15.42
613.363	15.61
613.697	15.91
614.032	15.78
614.366	15.67
614.7	15.99
615.035	15.97
615.369	15.71
615.703	15.92
616.037	16.27
616.371	15.4
616.705	15.9
617.039	15.99
617.373	15.64
617.707	15.87
618.041	15.88
618.375	16.18
618.709	16.37
619.042	15.86
619.376	16.21
619.71	16.07
620.043	16.47
620.377	16.32
620.71	16.3
621.043	16.46
621.377	16.66
621.71	16.43
622.043	16.16
622.376	16.23
622.709	16.47
623.043	16.75
623.376	16.45
623.709	16.48
624.041	17.27
624.374	16.69
624.707	16.37
625.04	17.16
625.373	16.97
625.705	16.81
626.038	16.49
626.37	16.98
626.703	16.84
627.035	16.85
627.368	17.02
627.7	17.28
628.032	17.43
628.365	17.37
628.697	17.08
629.029	16.78
629.361	16.9
629.693	17.29
630.025	17.28
630.357	17.53
630.689	17.32
631.021	17.3
631.353	17.6
631.684	17.25
632.016	17.77
632.348	17.75
632.679	17.84
633.011	17.46
633.342	17.85
633.674	17.63
634.005	17.99
634.336	17.89
634.668	18.36
634.999	17.38
635.33	17.88
635.661	18.04
635.992	17.92
636.323	17.96
636.654	17.98
636.985	18.15
637.316	17.95
637.647	17.87
637.977	18.03
638.308	18.09
638.639	18
638.969	18.23
639.3	18.18
639.63	17.91
639.961	18.36
640.291	18.13
640.622	18.79
640.952	18.32
641.282	18.53
641.612	18.73
641.943	18.61
642.273	18.59
642.603	18.93
642.933	19.01
643.263	18.98
643.592	18.41
643.922	18.16
644.252	19.12
644.582	18.8
644.911	19.2
645.241	18.62
645.571	18.74
645.9	18.9
646.23	18.95
646.559	19.46
646.888	18.8
647.218	19.53
647.547	19.15
647.876	19.16
648.205	18.71
648.534	19.02
648.863	19.36
649.192	19.01
649.521	18.98
649.85	19.62
650.179	19.05
650.508	19.46
650.837	19.52
651.165	18.92
651.494	19.7
651.822	19.84
652.151	19.02
652.479	19.63
652.808	19.23
653.136	20.07
653.465	19.23
653.793	19.47
654.121	19.17
654.449	19.59
654.777	19.51
655.105	20.4
655.433	19.63
655.761	19.97
656.089	20.35
656.417	19.92
656.745	19.81
657.073	19.23
657.4	20.45
657.728	20.4
658.056	19.86
658.383	19.72
658.711	20.38
659.038	20.28
659.365	20.74
659.693	19.98
660.02	20.86
660.347	20.29
660.674	19.95
661.001	20.33
661.329	20.32
661.656	20.08
661.982	20.7
662.309	20.57
662.636	20.67
662.963	20.81
663.29	21.02
663.616	21.04
663.943	20.38
664.27	20.72
664.596	21.17
664.923	21.25
665.249	21.06
665.576	20.82
665.902	21.63
666.228	20.87
666.554	21.11
666.881	20.79
667.207	21.11
667.533	21.12
667.859	21.1
668.185	21.49
668.511	21.28
668.837	20.65
669.162	21.46
669.488	20.84
669.814	21.08
670.139	21.29
670.465	21.73
670.791	21.96
671.116	22.13
671.442	21.36
671.767	21.82
672.092	21.56
672.418	21.64
672.743	21.94
673.068	20.75
673.393	21.72
673.718	21.59
674.043	21.75
674.368	21.53
674.693	22.69
675.018	22.01
675.343	22.34
675.667	21.48
675.992	21.94
676.317	23.01
676.641	22.23
676.966	22.35
677.29	21.7
677.615	22.31
677.939	22.59
678.264	22.88
678.588	22.11
678.912	22.63
679.236	22.78
679.56	22.34
679.885	22.7
680.209	22.35
680.532	22.88
680.856	23.15
681.18	22.29
681.504	22.62
681.828	22.98
682.152	22.12
682.475	22.49
682.799	23.21
683.122	22.94
683.446	22.65
683.769	23.36
684.093	23.16
684.416	23.7
684.739	23.04
685.062	22.97
685.386	23.26
685.709	22.65
686.032	23.31
686.355	23.4
686.678	23.12
687.001	23.31
687.324	23.35
687.646	23.75
687.969	23.58
688.292	22.98
688.614	22.88
688.937	24.34
689.26	23.4
689.582	24.28
689.904	23.92
690.227	23.97
690.549	23.81
690.871	24.58
691.194	23.85
691.516	23.53
691.838	24.1
692.16	23.2
692.482	23.86
692.804	23.84
693.126	23.89
693.448	23.85
693.769	24.82
694.091	24.37
694.413	24.23
694.735	24.41
695.056	23.87
695.378	24.39
695.699	23.84
696.021	24.02
696.342	24.46
696.663	23.71
696.984	23.93
697.306	23.41
697.627	24.55
697.948	24.49
698.269	23.8
698.59	24.7
698.911	24.46
699.232	24.1
699.553	24.41
699.873	24.84
700.194	25.06
700.515	24.8
700.835	24.91
701.156	24.44
701.477	24.75
701.797	24.53
702.117	25.2
702.438	24.63
702.758	24.34
703.078	24.39
703.398	24.93
703.719	24.02
704.039	25.49
704.359	25.64
704.679	25.28
704.999	23.89
705.319	23.83
705.638	24.22
705.958	24.67
706.278	25.83
706.597	26.27
706.917	23.95
707.237	24.96
707.556	26.35
707.876	25.5
708.195	25.66
708.514	24.93
708.834	26.62
709.153	26.1
709.472	25.75
709.791	25.27
710.11	25.77
710.429	25.24
710.748	26.14
711.067	25.93
711.386	24.72
711.705	26.84
712.023	25.77
712.342	24.1
712.661	24.92
712.979	25.05
713.298	26.73
713.616	26.79
713.935	25.87
714.253	25.99
714.572	26.28
714.89	26.12
715.208	26.42
715.526	26.3
715.844	27.17
716.162	26.73
716.48	25.94
716.798	25.8
717.116	27.12
717.434	26.08
717.752	25.83
718.069	26.27
718.387	26.24
718.705	26.86
719.022	26.11
719.34	26.3
719.657	26.74
719.975	27.66
720.292	27.35
720.609	26.53
720.927	26.09
721.244	26.91
721.561	26.48
721.878	27.32
722.195	26.04
722.512	27.55
722.829	27.34
723.146	26.97
723.463	26.74
723.779	26.85
724.096	26.78
724.413	28.09
724.729	28.03
725.046	26.01
725.362	26.58
725.679	26.42
725.995	26.67
726.311	26.22
726.628	27
726.944	27.71
727.26	28.92
727.576	27.03
727.892	27.33
728.208	28.16
728.524	28.24
728.84	26.87
729.156	27.88
729.472	26.35
729.787	26.45
730.103	29.19
730.419	27.59
730.734	27.18
731.05	26.2
731.365	27.29
731.681	27.26
731.996	27.73
732.311	28.55
732.626	28.91
732.942	26.68
733.257	28.46
733.572	27.94
733.887	26.94
734.202	29.33
734.517	28.29
734.832	28.77
735.146	28.13
735.461	29.46
735.776	29.24
736.091	30.21
736.405	29.88
736.72	28.72
737.034	30.3
737.349	30.8
737.663	28.05
737.977	29.15
738.292	26.83
738.606	29.44
738.92	28.34
739.234	28.35
739.548	28.67
739.862	28.64
740.176	29.15
740.49	27.8
740.804	29.75
741.117	29.44
741.431	27.9
741.745	28.46
742.058	28.66
742.372	28.36
742.685	29.13
742.999	29.19
743.312	27.03
743.626	28.62
743.939	29.03
744.252	29.07
744.565	29.65
744.878	30.41
745.191	28.21
745.505	29.54
745.817	30.86
746.13	28.84
746.443	30.71
746.756	30.63
747.069	28.64
747.381	30.49
747.694	27.38
748.007	30.09
748.319	29.85
748.632	32.11
748.944	30.95
749.256	31.01
749.569	27.67
749.881	33
750.193	30.8
750.505	29.18
750.817	28.98
751.129	28.23
751.441	29.96
751.753	31.43
752.065	29.24
752.377	28.54
752.689	30.68
753	29.72
753.312	30.76
753.624	29.16
753.935	31.19
754.247	31.61
754.558	29.21
754.869	31.37
755.181	31.31
755.492	30.96
755.803	29.56
756.114	30.05
756.425	29.61
756.736	30.22
757.047	30.21
757.358	30.22
757.669	28.87
757.98	28.97
758.291	29.42
758.601	29.3
758.912	28.06
759.223	31.36
759.533	30.78
759.844	31.03
760.154	29.47
760.464	32.98
760.775	31.54
761.085	29.91
761.395	32.32
761.705	29.58
762.016	31.4
762.326	32.67
762.636	32.41
762.945	31.46
763.255	31.37
763.565	30.03
763.875	31.92
764.185	28.46
764.494	32.71
764.804	29.79
765.113	31.71
765.423	30.3
765.732	31.55
766.042	29.25
766.351	30.5
766.66	31.6
766.97	32.3
767.279	30.97
767.588	32.39
767.897	33.95
768.206	30.36
768.515	33.32
768.824	31.35
769.133	32.66
769.441	30.91
769.75	31.2
770.059	32.93
770.367	33.35
770.676	32.88
770.984	33.37
771.293	34.41
771.601	34.14
771.91	32.82
772.218	34.11
772.526	34.79
772.834	32.58
773.142	32.88
773.45	31.37
773.758	32.99
774.066	30.24
774.374	30.38
774.682	32.26
774.99	36.16
775.298	35.26
775.605	31.35
775.913	31.11
776.22	35.57
776.528	32.85
776.835	38.75
777.143	30.68
777.45	30.9
777.757	34.98
778.065	32.56
778.372	31.37
778.679	32.3
778.986	32.16
779.293	31.5
779.6	36.72
779.907	31.85
780.214	33.18
780.52	34.35
780.827	34.29
781.134	30.71
781.44	29.22
781.747	31.33
782.053	30.68
782.36	32.26
782.666	35.53
782.973	35.68
783.279	37.36
783.585	31.88
783.891	30.91
784.197	34.77
784.503	37.51
784.809	26.07
785.115	33.27
785.421	34.07
785.727	32.18
786.033	34.23
786.339	34.52
786.644	35.98
786.95	35.31
787.255	32.71
787.561	36.56
787.866	31.41
788.172	31.31
788.477	32.63
788.782	32.46
789.088	32.95
789.393	33.72
789.698	34.38
790.003	32.41
790.308	31.96
790.613	34.27
790.918	36.71
791.223	36.33
791.527	32.34
791.832	33.87
792.137	28.33
792.441	35.67
792.746	34.59
793.05	35.85
793.355	34.04
793.659	36.49
793.963	35.32
794.268	31.86
794.572	30.75
794.876	33.65
795.18	37.62
795.484	36.19
795.788	34.8
796.092	33.92
796.396	30.61
796.7	31.5
797.004	33.17
797.307	33.3
797.611	35.85
797.915	32.22
798.218	32.33
798.522	34.42
798.825	34.82
799.128	35.28
799.432	32.74
799.735	34.93
800.038	36.3
800.341	33.92
800.644	35.17
800.947	37.88
801.25	31.62
801.553	31.84
801.856	26.85
802.159	29.67
802.462	33.05
802.764	33.18
803.067	32.17
803.37	34.35
803.672	29.35
803.975	35.23
804.277	34.99
804.579	35.44
804.882	34.89
805.184	29.44
805.486	34.79
805.788	35.18
806.09	37.64
806.392	31.96
806.694	38.55
806.996	36.5
807.298	32.69
807.6	36.59
807.902	38.89
808.203	31.37
808.505	34.78
808.807	33.98
809.108	34.29
809.409	32.17
809.711	27.63
810.012	33.95
810.313	39.08
810.615	32.4
810.916	38.62
811.217	35.44
811.518	35.07
811.819	37.65
812.12	33.45
812.421	30.23
812.722	32.5
813.023	38.25
813.323	31.33
813.624	31.23
813.925	39.28
814.225	34.56
814.526	38.82
814.826	43.28
815.126	33.7
815.427	33.92
815.727	34.21
816.027	36.74
816.327	37.45
816.627	31.35
816.927	34.74
817.227	36.32
817.527	32.82
817.827	39.3
818.127	38.29
818.427	35.77
818.727	43.74
819.026	40.67
819.326	37.5
819.625	44.68
819.925	35.38
820.224	33.13
820.524	31.46
820.823	37.04
821.122	37.38
821.421	34.57
821.72	38.65
822.019	35.57
822.318	36.16
822.617	39.03
822.916	33.19
823.215	39.83
823.514	37.36
823.813	35.43
824.111	36.84
824.41	37.28
824.709	36.72
825.007	36.94
825.306	37.32
825.604	38.49
825.902	38.13
826.201	38.62
826.499	38.58
826.797	38.53
827.095	38.33
827.393	37.96
827.691	38.21
827.989	37.29
828.287	36.58
828.585	36.27
828.882	39.84
829.18	38.12
829.478	41.25
829.775	38.55
830.073	37.85
830.37	39.15
830.668	37.61
830.965	42.22
831.263	38.33
831.56	38.23
831.857	34.78
832.154	38.87
832.451	34.74
832.748	39.81
833.045	35.15
833.342	40
833.639	41.6
833.936	34.19
834.232	39.9
834.529	36.18
834.826	34.31
835.122	33.47
835.419	35.05
835.715	38.61
836.012	39.17
836.308	37.33
836.604	35.83
836.901	37.37
837.197	38.18
837.493	38.89
837.789	38.7
838.085	39.21
838.381	39.15
838.677	38.55
838.972	41.4
839.268	36.14
839.564	32.75
839.86	36.83
840.155	30.98
840.451	31.73
840.746	43.21
841.042	41.59
841.337	36.44
841.632	37.56
841.928	38.09
842.223	30.98
842.518	35.91
842.813	35.96
843.108	39.18
843.403	46.85
843.698	38.92
843.993	38.82
844.287	30.52
844.582	29.24
844.877	38.8
845.171	39.86
845.466	41.45
845.761	31.74
846.055	34.69
846.349	38.98
846.644	51.49
846.938	28.45
847.232	21.66
847.526	51.06
847.82	39.42
848.114	25.09
848.408	35.66
848.702	37.8
848.996	16.5
849.29	43.99
849.584	33.71
849.877	36.14
850.171	34.25
850.465	28.53
850.758	38
851.052	14.64
851.345	28.58
851.638	33.93
851.932	1.78
852.225	24.98
852.518	49.11
852.811	35.85
853.104	-14.85
853.397	40.84
853.69	21.73
853.983	36.91
854.276	38.5
854.569	47.95
854.861	46.25
855.154	22.3
855.447	39.99
855.739	52.78
856.032	46.79
856.324	52.33
856.616	43.34
856.909	20.43
857.201	44.33
857.493	19.56
857.785	18.56
858.077	28.57
858.369	52.8
858.661	32.02
858.953	24.22
859.245	30.88
859.537	43.93
859.829	43.08
860.12	34.14
860.412	25.72
860.703	31.58
860.995	39.55
861.286	28.77
861.578	36.69
861.869	41.79
862.16	29.92
862.452	45.5
862.743	23.98
863.034	45.73
863.325	26.15
863.616	24.91
863.907	25.33
864.198	24.03
864.488	32.84
864.779	37.04
865.07	41.01
865.36	32.24
865.651	26.3
865.941	59.02
866.232	20.98
866.522	-1.9
866.813	46.24
867.103	40.73
867.393	35.83
867.683	34.24
867.973	23.09
868.263	19.67
868.553	56.52
868.843	37.34
869.133	2.66
869.423	71.93
869.713	58.35
870.002	57.99
870.292	29.59
870.582	56.85
870.871	-9.66
871.161	36.99
871.45	20.3
871.739	17.93
872.029	-5.84
872.318	26.64
872.607	60.63
872.896	0.17
873.185	40.46
873.474	-4.03
873.763	44.27
874.052	47.49
874.341	61.82
874.63	18.79
874.918	56.36
875.207	50.23
875.496	47.28
875.784	8.96
876.073	5.67
876.361	38.75
876.649	35.71
876.938	65.32
877.226	5.15
877.514	16.74
877.802	24.86
878.09	9.31
878.378	36.52
878.666	9.91
878.954	30.8
879.242	48.22
879.53	33.67
879.817	50.67
880.105	23.69
880.392	31.07
880.68	20.98
880.967	51.37
881.255	51.53
881.542	47.8
881.83	2.91
882.117	44.18
882.404	19.5
882.691	25.25
882.978	8.67
883.265	39.29
883.552	36.06
883.839	50.56
884.126	40.59
884.413	51.55
884.699	48.13
884.986	46.18
885.273	39.51
885.559	39.51
885.846	39.51
