Data from 2009-1_crown_Reflection__4__224.txt Node

Date: Fri Dec 15 18:24:52 CST 2023
User: ToomeyLab
Spectrometer: FLMS14357
Trigger mode: 0
Integration Time (sec): 1.000000E-2
Scans to average: 100
Electric dark correction enabled: true
Nonlinearity correction enabled: false
Boxcar width: 0
XAxis mode: Wavelengths
Number of Pixels in Spectrum: 2048
>>>>>Begin Spectral Data<<<<<
189.047	1061.74
189.435	1061.74
189.823	1061.74
190.211	854.13
190.599	-241.84
190.987	65.42
191.375	864.54
191.763	-297.32
192.151	202.7
192.538	182.66
192.926	-279.08
193.314	113.9
193.702	63.09
194.089	-75.71
194.477	195.25
194.864	-10.14
195.252	91.1
195.639	91.58
196.027	304.21
196.414	89.6
196.801	74.02
197.189	517.29
197.576	121.28
197.963	-730.3
198.351	-86
198.738	-30.31
199.125	2.63
199.512	-70.94
199.899	71.24
200.286	36.17
200.673	-23.77
201.06	-7.48
201.447	-5.97
201.833	15.45
202.22	55.99
202.607	54.01
202.994	126.65
203.38	12
203.767	50.47
204.154	25.5
204.54	49.85
204.927	-1.51
205.313	-65.69
205.699	15.72
206.086	45.4
206.472	22.55
206.858	35.9
207.245	-2.06
207.631	42.78
208.017	23.42
208.403	-20.11
208.789	37.65
209.175	26.51
209.561	-23.92
209.947	-9.55
210.333	-21.52
210.719	33.31
211.105	21.27
211.491	-26.06
211.876	9.39
212.262	-11.78
212.648	16.17
213.034	2.92
213.419	-60.88
213.805	13.46
214.19	-4.21
214.576	-17.36
214.961	-16.6
215.346	-96.42
215.732	-12.85
216.117	19.03
216.502	-6.5
216.888	4.72
217.273	-4.34
217.658	-29.11
218.043	27.9
218.428	-44.92
218.813	0.77
219.198	3.52
219.583	-35.86
219.968	19.95
220.353	-18.73
220.738	21.25
221.122	-12.16
221.507	-35.4
221.892	-21.78
222.276	-32.54
222.661	1.14
223.046	-1.06
223.43	-9.84
223.815	12.63
224.199	-14.93
224.583	-11.21
224.968	-0.31
225.352	13.8
225.736	-5.49
226.121	0.85
226.505	-2.88
226.889	15.19
227.273	2.16
227.657	5.29
228.041	3.42
228.425	-1.83
228.809	4.1
229.193	3.56
229.577	-0.1
229.961	2.34
230.344	1.37
230.728	3.08
231.112	2.99
231.495	3.32
231.879	2.02
232.263	2.98
232.646	3.63
233.03	2.64
233.413	2.71
233.797	2.2
234.18	2.79
234.563	4.89
234.946	0.59
235.33	1.9
235.713	5.06
236.096	2.38
236.479	3.33
236.862	1.9
237.245	4.85
237.628	3.54
238.011	4.36
238.394	2.55
238.777	3.4
239.16	2.33
239.543	4.5
239.925	5.74
240.308	1.98
240.691	4.9
241.073	3.96
241.456	3.11
241.838	2.8
242.221	1.17
242.603	3.72
242.986	2.71
243.368	3.31
243.75	2.7
244.133	2.29
244.515	2.71
244.897	2.85
245.279	2.96
245.661	2.59
246.043	1.24
246.425	1.62
246.807	4.47
247.189	3.39
247.571	2.58
247.953	3.25
248.335	2.67
248.717	3.26
249.098	2.59
249.48	2.6
249.862	2.45
250.243	2.74
250.625	2.97
251.006	2.83
251.388	2.27
251.769	3.19
252.151	4.05
252.532	2.6
252.913	2.29
253.295	1.7
253.676	3.04
254.057	3.31
254.438	2.5
254.819	2.44
255.2	1.95
255.581	3.6
255.962	1.51
256.343	1.51
256.724	1.77
257.105	3.77
257.486	1.7
257.867	3.31
258.247	2.58
258.628	2.22
259.009	1.97
259.389	3.05
259.77	2.06
260.15	2.17
260.531	2.06
260.911	3.14
261.292	2.81
261.672	2.79
262.052	2.67
262.432	2.84
262.813	2.82
263.193	2.88
263.573	2.08
263.953	1.95
264.333	2.79
264.713	2.7
265.093	1.57
265.473	2.77
265.853	1.49
266.233	3.36
266.612	1.24
266.992	1.3
267.372	2.92
267.752	2.57
268.131	2.45
268.511	2.87
268.89	3.01
269.27	2.4
269.649	2.5
270.029	1.97
270.408	3.41
270.787	2.27
271.167	3.02
271.546	3
271.925	2.26
272.304	2.21
272.683	2.76
273.062	2.55
273.441	2.54
273.82	2.54
274.199	2.31
274.578	2.73
274.957	2.21
275.336	2.36
275.715	2.47
276.093	2.29
276.472	1.86
276.851	2.31
277.229	2.4
277.608	1.48
277.986	2.53
278.365	2.29
278.743	2.03
279.122	2.16
279.5	2.94
279.878	2.65
280.257	2.4
280.635	1.65
281.013	2.41
281.391	2.68
281.769	2.7
282.147	2.93
282.525	3.2
282.903	2.48
283.281	2.69
283.659	2.27
284.037	2.58
284.415	2.69
284.792	2.71
285.17	2.02
285.548	1.79
285.925	2.2
286.303	2.81
286.68	2.3
287.058	2.41
287.435	2.2
287.813	2.77
288.19	2.45
288.567	2.48
288.945	2.79
289.322	2.48
289.699	2.92
290.076	2.23
290.453	2.5
290.83	2.07
291.207	2.57
291.584	3.03
291.961	2.42
292.338	2.4
292.715	3.18
293.092	2.59
293.469	2.83
293.845	2.93
294.222	2.37
294.599	1.97
294.975	2.3
295.352	3.11
295.728	2.04
296.105	2.24
296.481	2.91
296.858	2.62
297.234	2.19
297.61	1.95
297.986	2.77
298.363	2.88
298.739	2.46
299.115	2.28
299.491	2.29
299.867	2.44
300.243	2.55
300.619	2.54
300.995	2.56
301.371	2.58
301.746	2.66
302.122	2.6
302.498	2.34
302.874	2.81
303.249	2.91
303.625	3.16
304	3.18
304.376	2.26
304.751	2.22
305.127	3.26
305.502	2.52
305.878	2.33
306.253	2.49
306.628	3.3
307.003	2.25
307.378	3.11
307.754	2.72
308.129	1.88
308.504	2.92
308.879	2.36
309.254	2.96
309.629	3.2
310.003	2.94
310.378	3.33
310.753	2.52
311.128	3.04
311.502	2.63
311.877	3.01
312.252	2
312.626	2.27
313.001	2.65
313.375	2.99
313.75	2.41
314.124	2.56
314.498	2.62
314.873	2.56
315.247	2.57
315.621	2.67
315.995	2.36
316.369	2.92
316.743	2.94
317.117	2.91
317.491	2.91
317.865	2.48
318.239	2.68
318.613	3.06
318.987	3.21
319.361	2.26
319.734	3.04
320.108	2.84
320.482	3.19
320.855	2.89
321.229	2.38
321.602	2.52
321.976	3.2
322.349	2.9
322.723	2.62
323.096	3.33
323.469	1.93
323.843	3.11
324.216	3.96
324.589	2.6
324.962	2.86
325.335	3.05
325.708	2.49
326.081	3.28
326.454	3.25
326.827	2.63
327.2	2.7
327.573	3.05
327.945	2.56
328.318	2.73
328.691	2.2
329.063	3.04
329.436	2.47
329.809	3.09
330.181	3.42
330.553	3.08
330.926	3.01
331.298	3.26
331.671	2.3
332.043	3.48
332.415	2.7
332.787	2.7
333.159	3.36
333.532	3.17
333.904	3.23
334.276	2.65
334.648	2.91
335.02	2.82
335.391	2.47
335.763	2.39
336.135	3.02
336.507	3.24
336.879	2.78
337.25	2.77
337.622	3.07
337.993	2.89
338.365	3.24
338.736	2.89
339.108	3.09
339.479	2.97
339.851	2.93
340.222	3.19
340.593	3.24
340.964	2.96
341.336	3.5
341.707	2.75
342.078	3.21
342.449	4.06
342.82	3.04
343.191	3.14
343.562	3.19
343.933	3.21
344.303	3.65
344.674	3.03
345.045	3.34
345.416	3.32
345.786	2.78
346.157	3.45
346.527	2.6
346.898	2.85
347.268	3.18
347.639	3.12
348.009	3.24
348.38	3.05
348.75	3.01
349.12	3.08
349.49	3.28
349.861	2.99
350.231	2.85
350.601	3.05
350.971	3.34
351.341	3.6
351.711	3.38
352.081	3.25
352.45	3.36
352.82	3.4
353.19	2.95
353.56	2.54
353.929	3.26
354.299	3.12
354.669	3.03
355.038	3.41
355.408	2.96
355.777	3.36
356.147	3.09
356.516	2.93
356.885	3.08
357.254	2.76
357.624	3.08
357.993	3.14
358.362	2.49
358.731	2.79
359.1	3.1
359.469	3.23
359.838	3.46
360.207	2.67
360.576	3.27
360.945	3.09
361.314	3.81
361.682	2.94
362.051	3.06
362.42	3.13
362.788	2.9
363.157	3.39
363.525	3.5
363.894	3.36
364.262	3.41
364.631	3.06
364.999	3.35
365.367	2.67
365.735	3.8
366.104	3.19
366.472	3.28
366.84	3.03
367.208	3.08
367.576	3.65
367.944	3.41
368.312	3.2
368.68	2.62
369.048	3.34
369.416	3.29
369.783	2.83
370.151	3.2
370.519	3.78
370.886	3.39
371.254	3.16
371.621	3.38
371.989	3.06
372.356	3.15
372.724	3.26
373.091	3.23
373.458	3.05
373.826	3.28
374.193	2.92
374.56	3.52
374.927	3.21
375.294	3.21
375.661	3.6
376.028	3.28
376.395	3.02
376.762	3.48
377.129	3.57
377.496	3.05
377.863	3.28
378.229	2.86
378.596	3.34
378.963	3.31
379.329	3.23
379.696	3.27
380.062	3.11
380.429	3.28
380.795	3.21
381.161	3.28
381.528	3.82
381.894	2.85
382.26	2.99
382.626	3.37
382.993	2.93
383.359	3.59
383.725	3.26
384.091	3.39
384.457	3.46
384.823	3.44
385.188	3.33
385.554	3.29
385.92	3.39
386.286	3.4
386.651	3.46
387.017	3.56
387.383	3.2
387.748	3.03
388.114	3.32
388.479	3.3
388.845	3.46
389.21	3.42
389.575	3.22
389.94	3.39
390.306	3.49
390.671	3.49
391.036	2.94
391.401	3.18
391.766	3.18
392.131	3.12
392.496	3.52
392.861	3.4
393.226	3.69
393.591	3.3
393.956	3.38
394.32	3.31
394.685	3.28
395.05	3.09
395.414	3.32
395.779	3.03
396.143	3.21
396.508	3.25
396.872	3.36
397.236	3.36
397.601	3.05
397.965	3.34
398.329	3.4
398.694	3.35
399.058	3.52
399.422	2.99
399.786	3.49
400.15	3.53
400.514	3.46
400.878	3.19
401.242	3.65
401.605	3.35
401.969	3.38
402.333	3.59
402.697	3.25
403.06	3.39
403.424	3.46
403.787	3.39
404.151	3.68
404.514	3.34
404.878	3.1
405.241	3.42
405.604	3.36
405.968	3.28
406.331	3.29
406.694	3.38
407.057	3.36
407.42	3.58
407.783	3.37
408.146	3.18
408.509	3.73
408.872	3.48
409.235	3.31
409.598	3.37
409.961	3.48
410.323	3.37
410.686	3.28
411.049	3.22
411.411	3.22
411.774	3.31
412.136	3.47
412.499	3.35
412.861	3.28
413.223	3.41
413.586	3.26
413.948	3.21
414.31	3.39
414.672	3.19
415.035	3
415.397	3.68
415.759	3.37
416.121	3.55
416.483	3.14
416.845	3.39
417.206	3.4
417.568	3.54
417.93	3.2
418.292	3.27
418.653	3.42
419.015	3.38
419.377	3.29
419.738	3.27
420.1	3.41
420.461	3.41
420.822	3.47
421.184	3.32
421.545	3.38
421.906	3.36
422.267	3.36
422.629	3.37
422.99	3.23
423.351	3.26
423.712	3.39
424.073	3.27
424.434	3.28
424.795	3.39
425.155	3.41
425.516	3.25
425.877	3.33
426.238	3.41
426.598	3.48
426.959	3.31
427.32	3.26
427.68	3.36
428.041	3.29
428.401	3.44
428.761	3.54
429.122	3.43
429.482	3.36
429.842	3.32
430.202	3.57
430.563	3.34
430.923	3.35
431.283	3.57
431.643	3.55
432.003	3.66
432.363	3.53
432.722	3.45
433.082	3.61
433.442	3.5
433.802	3.4
434.161	3.48
434.521	3.76
434.881	3.63
435.24	3.33
435.6	3.58
435.959	3.55
436.319	3.38
436.678	3.53
437.037	3.48
437.396	3.52
437.756	3.44
438.115	3.54
438.474	3.66
438.833	3.41
439.192	3.57
439.551	3.74
439.91	3.39
440.269	3.51
440.628	3.47
440.987	3.53
441.345	3.55
441.704	3.6
442.063	3.5
442.421	3.49
442.78	3.5
443.138	3.45
443.497	3.62
443.855	3.59
444.214	3.48
444.572	3.63
444.93	3.59
445.288	3.65
445.647	3.68
446.005	3.7
446.363	3.7
446.721	3.68
447.079	3.39
447.437	3.57
447.795	3.58
448.153	3.5
448.51	3.54
448.868	3.52
449.226	3.63
449.584	3.6
449.941	3.61
450.299	3.55
450.656	3.38
451.014	3.6
451.371	3.42
451.729	3.62
452.086	3.89
452.443	3.7
452.801	3.71
453.158	3.79
453.515	3.46
453.872	3.87
454.229	3.64
454.586	3.59
454.943	3.61
455.3	3.76
455.657	3.55
456.014	3.63
456.371	3.7
456.727	3.59
457.084	3.72
457.441	3.88
457.797	3.73
458.154	3.85
458.51	3.9
458.867	3.75
459.223	3.84
459.58	3.79
459.936	3.91
460.292	3.73
460.648	3.57
461.005	3.67
461.361	3.63
461.717	3.79
462.073	3.57
462.429	3.69
462.785	3.63
463.141	3.67
463.496	3.7
463.852	3.78
464.208	3.82
464.564	3.72
464.919	3.74
465.275	3.89
465.631	3.89
465.986	3.75
466.342	3.76
466.697	3.59
467.052	3.85
467.408	3.9
467.763	3.58
468.118	3.65
468.473	3.65
468.829	3.73
469.184	3.65
469.539	3.74
469.894	3.64
470.249	3.86
470.603	3.91
470.958	3.92
471.313	3.75
471.668	3.96
472.023	3.85
472.377	3.77
472.732	3.63
473.086	3.63
473.441	3.55
473.795	3.91
474.15	3.75
474.504	3.9
474.859	3.86
475.213	3.57
475.567	3.82
475.921	3.7
476.275	3.86
476.63	3.76
476.984	3.73
477.338	3.84
477.692	3.73
478.045	3.66
478.399	3.81
478.753	3.9
479.107	3.76
479.461	3.62
479.814	3.64
480.168	3.68
480.521	3.74
480.875	3.86
481.228	3.87
481.582	3.89
481.935	3.87
482.289	3.84
482.642	3.82
482.995	3.66
483.348	3.81
483.701	3.7
484.055	3.78
484.408	3.88
484.761	3.77
485.114	3.68
485.466	3.58
485.819	3.59
486.172	3.54
486.525	3.57
486.878	3.61
487.23	3.61
487.583	3.64
487.936	3.7
488.288	3.67
488.641	3.75
488.993	3.66
489.345	3.56
489.698	3.63
490.05	3.55
490.402	3.62
490.754	3.66
491.107	3.66
491.459	3.72
491.811	3.79
492.163	3.66
492.515	3.71
492.866	3.75
493.218	3.78
493.57	3.67
493.922	3.62
494.274	3.71
494.625	3.68
494.977	3.82
495.328	3.77
495.68	3.84
496.031	3.91
496.383	3.74
496.734	4.01
497.086	3.99
497.437	3.82
497.788	3.9
498.139	3.75
498.49	3.84
498.842	3.79
499.193	3.76
499.544	3.87
499.894	3.78
500.245	3.8
500.596	3.8
500.947	3.88
501.298	3.77
501.648	3.88
501.999	4.01
502.35	3.96
502.7	3.89
503.051	3.96
503.401	3.77
503.752	3.78
504.102	3.88
504.452	3.9
504.803	3.89
505.153	3.89
505.503	3.96
505.853	3.94
506.203	3.87
506.553	3.77
506.903	3.85
507.253	3.74
507.603	3.86
507.953	3.89
508.303	4.01
508.652	3.8
509.002	4.02
509.352	4
509.701	3.81
510.051	3.88
510.4	3.83
510.75	3.85
511.099	3.79
511.449	3.81
511.798	3.86
512.147	3.88
512.496	3.78
512.846	3.89
513.195	3.84
513.544	3.8
513.893	3.94
514.242	3.88
514.591	4
514.939	3.9
515.288	3.85
515.637	3.85
515.986	3.89
516.334	3.92
516.683	3.93
517.032	3.9
517.38	3.87
517.729	3.91
518.077	3.71
518.426	3.83
518.774	3.92
519.122	3.93
519.47	3.9
519.819	3.67
520.167	3.83
520.515	3.78
520.863	3.9
521.211	3.92
521.559	3.94
521.907	3.74
522.255	3.84
522.602	3.79
522.95	3.69
523.298	3.85
523.645	3.93
523.993	3.84
524.341	3.95
524.688	4.04
525.036	3.77
525.383	3.84
525.73	4.1
526.078	3.96
526.425	3.91
526.772	4.01
527.119	3.82
527.466	3.79
527.814	3.86
528.161	3.86
528.508	3.89
528.854	3.86
529.201	3.76
529.548	3.82
529.895	3.75
530.242	3.74
530.588	3.65
530.935	3.71
531.282	3.68
531.628	3.69
531.975	3.76
532.321	3.76
532.667	3.81
533.014	3.85
533.36	3.85
533.706	3.84
534.052	3.92
534.399	3.75
534.745	3.83
535.091	3.8
535.437	3.8
535.783	3.8
536.129	3.83
536.474	3.82
536.82	3.85
537.166	3.93
537.512	3.87
537.857	3.86
538.203	3.94
538.549	3.88
538.894	3.87
539.239	3.8
539.585	3.74
539.93	3.81
540.276	4.01
540.621	3.93
540.966	3.86
541.311	3.87
541.656	3.88
542.001	3.82
542.346	3.89
542.691	3.8
543.036	3.83
543.381	3.74
543.726	3.76
544.071	3.84
544.415	3.82
544.76	3.83
545.105	3.92
545.449	3.86
545.794	4.01
546.138	3.86
546.483	3.9
546.827	3.92
547.171	4.01
547.516	4.08
547.86	3.82
548.204	3.92
548.548	3.86
548.892	3.87
549.236	3.83
549.58	3.93
549.924	3.9
550.268	4.11
550.612	4.03
550.956	4.14
551.3	3.92
551.643	4.17
551.987	4.12
552.33	4.13
552.674	4.13
553.017	3.83
553.361	3.96
553.704	4.23
554.048	3.85
554.391	3.98
554.734	3.93
555.077	3.99
555.42	3.94
555.764	3.92
556.107	3.83
556.45	3.87
556.793	3.91
557.135	4.01
557.478	4.26
557.821	4.1
558.164	4.01
558.507	3.95
558.849	4.06
559.192	4.12
559.534	4.16
559.877	4.18
560.219	3.97
560.562	4.27
560.904	3.95
561.246	3.84
561.589	4.08
561.931	4.02
562.273	3.86
562.615	3.96
562.957	4.09
563.299	3.88
563.641	3.96
563.983	4.04
564.325	3.9
564.667	3.96
565.008	4
565.35	4.14
565.692	3.82
566.033	4.25
566.375	4.31
566.716	4.19
567.058	3.99
567.399	3.9
567.741	3.87
568.082	4.04
568.423	3.8
568.764	3.97
569.105	4.05
569.447	4.21
569.788	3.95
570.129	4.12
570.47	4.1
570.811	4.15
571.151	4.16
571.492	4.18
571.833	3.95
572.174	3.87
572.514	4.19
572.855	4.14
573.195	4.03
573.536	3.82
573.876	3.84
574.217	3.95
574.557	4.21
574.898	4.2
575.238	4.05
575.578	3.87
575.918	4.08
576.258	4.09
576.598	4.28
576.938	3.91
577.278	4.14
577.618	3.98
577.958	3.99
578.298	3.97
578.638	4.02
578.977	4.06
579.317	3.94
579.657	4.07
579.996	4.19
580.336	4.16
580.675	4.03
581.014	3.98
581.354	4.28
581.693	4.2
582.032	3.95
582.372	3.89
582.711	4.23
583.05	3.88
583.389	4.02
583.728	3.78
584.067	4.18
584.406	3.99
584.745	3.93
585.083	4.26
585.422	4.21
585.761	4.23
586.1	3.99
586.438	4.24
586.777	4.26
587.115	4.36
587.454	3.98
587.792	4.16
588.13	4.13
588.469	4
588.807	4.13
589.145	4.01
589.483	4.07
589.821	3.95
590.159	4.31
590.497	4.42
590.835	4.6
591.173	3.94
591.511	4.36
591.849	4.03
592.187	4.11
592.524	4.12
592.862	4.19
593.2	4.17
593.537	4.07
593.875	3.99
594.212	3.97
594.55	4.08
594.887	4.43
595.224	3.91
595.561	4.06
595.899	4.11
596.236	4.11
596.573	4.21
596.91	3.79
597.247	3.83
597.584	4.37
597.921	4.14
598.258	3.9
598.594	4.2
598.931	3.99
599.268	4.14
599.604	4.25
599.941	4.21
600.277	4.05
600.614	3.97
600.95	3.86
601.287	4.18
601.623	4.11
601.959	3.84
602.296	4.27
602.632	4.1
602.968	4.38
603.304	3.82
603.64	4.05
603.976	3.88
604.312	4.18
604.648	3.95
604.984	4.41
605.319	4.14
605.655	4.11
605.991	4.24
606.326	4.06
606.662	4.06
606.998	3.94
607.333	4.1
607.668	4.13
608.004	4.11
608.339	4.26
608.674	4.06
609.01	4.12
609.345	4.07
609.68	4.3
610.015	4.22
610.35	4
610.685	4.08
611.02	4.1
611.355	4.15
611.689	4.07
612.024	4.19
612.359	4.05
612.694	4
613.028	3.82
613.363	4.32
613.697	4.28
614.032	4.38
614.366	4.04
614.7	4.31
615.035	4.37
615.369	3.93
615.703	4.14
616.037	4.31
616.371	3.79
616.705	3.95
617.039	4.22
617.373	3.55
617.707	4.08
618.041	3.94
618.375	4.28
618.709	4.39
619.042	4
619.376	3.96
619.71	4.21
620.043	4.14
620.377	3.97
620.71	4.07
621.043	4.44
621.377	4.11
621.71	4.26
622.043	3.96
622.376	4.03
622.709	4.04
623.043	4.52
623.376	4.53
623.709	3.88
624.041	4.66
624.374	4
624.707	4.11
625.04	4.39
625.373	4.1
625.705	4.08
626.038	4.23
626.37	3.91
626.703	4.13
627.035	4.21
627.368	4.64
627.7	3.94
628.032	4.04
628.365	4.19
628.697	4.07
629.029	4.06
629.361	4.4
629.693	4.2
630.025	4.1
630.357	4.5
630.689	4.38
631.021	4.02
631.353	4.16
631.684	4.11
632.016	3.75
632.348	4.46
632.679	4.19
633.011	4.33
633.342	4.05
633.674	3.98
634.005	4.44
634.336	4.11
634.668	4.83
634.999	4.23
635.33	4.36
635.661	4.13
635.992	4.14
636.323	4.42
636.654	4.6
636.985	4.11
637.316	3.72
637.647	3.77
637.977	4.5
638.308	4.63
638.639	4.06
638.969	4.1
639.3	3.86
639.63	3.96
639.961	4.09
640.291	4.06
640.622	4.46
640.952	4.26
641.282	4.29
641.612	4.24
641.943	3.94
642.273	4.32
642.603	4.51
642.933	4.51
643.263	4.48
643.592	4.16
643.922	4.13
644.252	3.98
644.582	4.2
644.911	4.02
645.241	3.64
645.571	4.43
645.9	4.15
646.23	4.09
646.559	4.22
646.888	3.72
647.218	3.97
647.547	4.45
647.876	3.86
648.205	4.19
648.534	4.14
648.863	3.96
649.192	4.31
649.521	4.06
649.85	3.98
650.179	4.09
650.508	4.11
650.837	3.79
651.165	3.57
651.494	3.81
651.822	4.02
652.151	4.04
652.479	3.94
652.808	3.89
653.136	4.45
653.465	3.88
653.793	3.85
654.121	3.91
654.449	4.36
654.777	4.56
655.105	4.58
655.433	3.55
655.761	3.95
656.089	4.27
656.417	4.18
656.745	3.61
657.073	4.27
657.4	4.87
657.728	4.34
658.056	4.26
658.383	4.04
658.711	4.62
659.038	4.47
659.365	4.66
659.693	4.19
660.02	3.86
660.347	4.22
660.674	4.08
661.001	4.28
661.329	3.46
661.656	3.88
661.982	4.67
662.309	4.06
662.636	3.77
662.963	4.73
663.29	4.39
663.616	4.29
663.943	3.74
664.27	3.82
664.596	4.59
664.923	4.62
665.249	4.34
665.576	4.14
665.902	4.94
666.228	4.18
666.554	4.8
666.881	4.31
667.207	4.39
667.533	4.52
667.859	4.4
668.185	4.75
668.511	3.79
668.837	3.09
669.162	4.9
669.488	4
669.814	4.56
670.139	4.72
670.465	4.5
670.791	4.42
671.116	5.15
671.442	4.1
671.767	3.99
672.092	4.76
672.418	4.14
672.743	4.42
673.068	4.17
673.393	4.12
673.718	4.16
674.043	3.91
674.368	4.17
674.693	5.5
675.018	4.15
675.343	3.78
675.667	3.78
675.992	4.42
676.317	4.64
676.641	4.73
676.966	4.32
677.29	3.94
677.615	4.66
677.939	5.02
678.264	4.88
678.588	4.83
678.912	4.06
679.236	5.01
679.56	3.84
679.885	4.19
680.209	4.21
680.532	4.52
680.856	5.12
681.18	4.14
681.504	4.63
681.828	4.67
682.152	3.56
682.475	4.74
682.799	4.27
683.122	4.55
683.446	4.3
683.769	4.28
684.093	3.8
684.416	5.08
684.739	4.77
685.062	4.24
685.386	5.34
685.709	3.79
686.032	4.67
686.355	3.47
686.678	4.58
687.001	4.43
687.324	4.42
687.646	3.42
687.969	4.23
688.292	3.26
688.614	4.37
688.937	4.67
689.26	4.61
689.582	5.23
689.904	5.16
690.227	4.73
690.549	4.79
690.871	5
691.194	3.52
691.516	4.37
691.838	4.96
692.16	4.55
692.482	3.86
692.804	4
693.126	4.43
693.448	3.94
693.769	5.54
694.091	4.17
694.413	4.35
694.735	4.14
695.056	4.83
695.378	4.06
695.699	3.45
696.021	3.45
696.342	4.06
696.663	3.7
696.984	4.25
697.306	3.36
697.627	4.86
697.948	4.42
698.269	4.63
698.59	5.83
698.911	3.34
699.232	3.79
699.553	4.37
699.873	4.11
700.194	4.85
700.515	4.63
700.835	5.06
701.156	4.43
701.477	4.32
701.797	4.45
702.117	4.74
702.438	4.08
702.758	4.65
703.078	3.88
703.398	3.73
703.719	3.66
704.039	2.94
704.359	5.4
704.679	3.77
704.999	4.48
705.319	4.22
705.638	4.38
705.958	3.81
706.278	3.33
706.597	3.28
706.917	3.91
707.237	4.37
707.556	4.88
707.876	4.7
708.195	5.02
708.514	4.36
708.834	4.81
709.153	4.74
709.472	5.65
709.791	4.99
710.11	3.97
710.429	5.4
710.748	4.72
711.067	4.41
711.386	3.78
711.705	5
712.023	5.25
712.342	3.48
712.661	3.96
712.979	3.87
713.298	3.64
713.616	4.19
713.935	3.92
714.253	4.25
714.572	4.64
714.89	4.81
715.208	4.53
715.526	4.7
715.844	4.57
716.162	4.51
716.48	4.41
716.798	4.2
717.116	4.47
717.434	4.39
717.752	3.81
718.069	4.24
718.387	4.06
718.705	3.7
719.022	3.31
719.34	4.77
719.657	4.13
719.975	5.51
720.292	4.19
720.609	3.45
720.927	4.3
721.244	5.14
721.561	4.03
721.878	4.6
722.195	3.04
722.512	4.83
722.829	5.5
723.146	4.25
723.463	4.45
723.779	2.96
724.096	3.77
724.413	4.01
724.729	4.2
725.046	3.08
725.362	4.77
725.679	3.71
725.995	3.69
726.311	2.82
726.628	4.4
726.944	4.42
727.26	4.05
727.576	4.68
727.892	5.21
728.208	3.5
728.524	2.27
728.84	4.22
729.156	4.74
729.472	4.25
729.787	2.95
730.103	4.33
730.419	4.54
730.734	3.33
731.05	4.41
731.365	2.93
731.681	4.85
731.996	5.12
732.311	3.99
732.626	4.51
732.942	4.04
733.257	4.66
733.572	4.18
733.887	4.11
734.202	4.43
734.517	5.44
734.832	4.57
735.146	5.08
735.461	5.01
735.776	4.63
736.091	3.99
736.405	5.2
736.72	3.41
737.034	4.5
737.349	6.7
737.663	5.01
737.977	4.9
738.292	4.24
738.606	5.56
738.92	5.45
739.234	5.28
739.548	5.12
739.862	4.21
740.176	3.79
740.49	5.11
740.804	6.81
741.117	3.49
741.431	3.62
741.745	2.58
742.058	4.37
742.372	3.18
742.685	5.5
742.999	4.93
743.312	4.39
743.626	4.3
743.939	2.96
744.252	2.25
744.565	4.4
744.878	4.5
745.191	2.97
745.505	3.35
745.817	4.13
746.13	5.2
746.443	4.33
746.756	5.17
747.069	2.48
747.381	5.39
747.694	3.85
748.007	3.25
748.319	5.66
748.632	5.25
748.944	5.35
749.256	7.92
749.569	4.34
749.881	5.22
750.193	6.46
750.505	1.37
750.817	5.06
751.129	4.34
751.441	3.82
751.753	4.59
752.065	7.34
752.377	3.82
752.689	5.49
753	4.48
753.312	3.4
753.624	4.37
753.935	5.88
754.247	5.6
754.558	5.09
754.869	6.25
755.181	3.84
755.492	4.64
755.803	4.37
756.114	5.28
756.425	3.48
756.736	2.09
757.047	6.58
757.358	5.01
757.669	6
757.98	1.68
758.291	4.88
758.601	3.6
758.912	2.08
759.223	4.98
759.533	2.77
759.844	2.21
760.154	2.65
760.464	5.52
760.775	6.12
761.085	4.45
761.395	7.23
761.705	5.12
762.016	4.1
762.326	4.01
762.636	4.09
762.945	4.28
763.255	4.52
763.565	1.87
763.875	4.19
764.185	3.49
764.494	5.52
764.804	5.23
765.113	3.38
765.423	2.99
765.732	5
766.042	3.32
766.351	4.74
766.66	4.72
766.97	5.72
767.279	4.18
767.588	4.99
767.897	4.3
768.206	3.81
768.515	5.18
768.824	3.94
769.133	3.87
769.441	3.3
769.75	4.34
770.059	6.46
770.367	3.39
770.676	4.07
770.984	6.61
771.293	2.8
771.601	7.54
771.91	3.03
772.218	5.76
772.526	5.11
772.834	3.56
773.142	2.58
773.45	3.22
773.758	3.78
774.066	3.25
774.374	3.53
774.682	3.74
774.99	6.67
775.298	-0.2
775.605	3.6
775.913	1.71
776.22	5.58
776.528	4.52
776.835	8.13
777.143	3.2
777.45	3.74
777.757	5.73
778.065	4.94
778.372	2.61
778.679	1.58
778.986	5.13
779.293	4.64
779.6	6.86
779.907	3.99
780.214	1.61
780.52	5.65
780.827	3.67
781.134	5.18
781.44	4.36
781.747	3.18
782.053	1.48
782.36	4.27
782.666	5.65
782.973	6.49
783.279	1.49
783.585	4.14
783.891	4.71
784.197	5.16
784.503	4.9
784.809	2.11
785.115	6.45
785.421	6.73
785.727	3.5
786.033	5.61
786.339	6.35
786.644	4.89
786.95	6.77
787.255	2.79
787.561	4.79
787.866	2.32
788.172	1.47
788.477	-1.8
788.782	3.34
789.088	1.69
789.393	1.26
789.698	4.48
790.003	-1.26
790.308	2.83
790.613	1.88
790.918	7.01
791.223	3.61
791.527	3.17
791.832	5.4
792.137	0.56
792.441	4.56
792.746	3.09
793.05	3.97
793.355	4.85
793.659	7.97
793.963	5.39
794.268	2.83
794.572	3.52
794.876	7.85
795.18	4.75
795.484	2.01
795.788	8.03
796.092	1.39
796.396	5.45
796.7	3.57
797.004	3.61
797.307	2.59
797.611	2.63
797.915	3.94
798.218	6.64
798.522	0.79
798.825	2.05
799.128	4.86
799.432	0.29
799.735	4.75
800.038	10.55
800.341	8.54
800.644	6.7
800.947	7.28
801.25	3.04
801.553	0.16
801.856	-7.28
802.159	0.49
802.462	5.1
802.764	2.17
803.067	3.9
803.37	5.1
803.672	0.94
803.975	4.36
804.277	3.61
804.579	0.43
804.882	5.76
805.184	1.76
805.486	4.21
805.788	6.62
806.09	9.91
806.392	1.86
806.694	2.95
806.996	10.52
807.298	6.68
807.6	8.47
807.902	8.35
808.203	0.45
808.505	3.31
808.807	4.06
809.108	0.96
809.409	4.71
809.711	3.87
810.012	-1.58
810.313	4.58
810.615	5.8
810.916	-1.59
811.217	3.61
811.518	7.84
811.819	4
812.12	2.09
812.421	0.57
812.722	9.21
813.023	2.74
813.323	3.86
813.624	3.67
813.925	18.1
814.225	4.36
814.526	5.97
814.826	7.55
815.126	-0.91
815.427	0.12
815.727	7.5
816.027	5.46
816.327	1.4
816.627	-9.39
816.927	7.69
817.227	3.49
817.527	5.55
817.827	8.63
818.127	5.77
818.427	5.12
818.727	0.29
819.026	1.04
819.326	12.9
819.625	11.86
819.925	0.94
820.224	8.19
820.524	4.82
820.823	4.45
821.122	6.74
821.421	4.25
821.72	-2.49
822.019	-0.07
822.318	-1.22
822.617	3.46
822.916	7.37
823.215	4.34
823.514	4.92
823.813	1.86
824.111	7.11
824.41	6.34
824.709	4.87
825.007	5.49
825.306	4.39
825.604	5.16
825.902	4.58
826.201	4.23
826.499	4.73
826.797	4.72
827.095	4.52
827.393	3.4
827.691	5.32
827.989	4.06
828.287	6.87
828.585	5.2
828.882	3.88
829.18	3.54
829.478	6.75
829.775	5.21
830.073	4.19
830.37	3.6
830.668	2.96
830.965	7.39
831.263	3.48
831.56	5.38
831.857	2.37
832.154	3.16
832.451	7.07
832.748	7.9
833.045	6.83
833.342	6.84
833.639	1.14
833.936	1.35
834.232	2.79
834.529	2.01
834.826	-2.38
835.122	3.58
835.419	-2.89
835.715	-0.93
836.012	2.31
836.308	1.94
836.604	-2.57
836.901	3.81
837.197	3.93
837.493	4.35
837.789	1.89
838.085	2.7
838.381	4.65
838.677	3.34
838.972	5.26
839.268	2.54
839.564	2.81
839.86	5.8
840.155	-2.53
840.451	-1.81
840.746	0.83
841.042	8.35
841.337	16.13
841.632	6.68
841.928	14.36
842.223	-4.23
842.518	-10.75
842.813	16.45
843.108	4.32
843.403	11.5
843.698	4.68
843.993	0.18
844.287	-4.55
844.582	-10.35
844.877	0.36
845.171	5.46
845.466	-7.83
845.761	-12.54
846.055	4.96
846.349	2.93
846.644	-0.45
846.938	-17.41
847.232	-8.14
847.526	0.48
847.82	21.03
848.114	7.76
848.408	-2.81
848.702	-4.92
848.996	1.98
849.29	-2.06
849.584	-1.94
849.877	2.1
850.171	9.93
850.465	-14.98
850.758	2.67
851.052	5.43
851.345	17.31
851.638	15.84
851.932	-2.53
852.225	-2.91
852.518	-5.86
852.811	2.55
853.104	-55.06
853.397	3.59
853.69	-12.33
853.983	-18.85
854.276	-3.3
854.569	0.24
854.861	7.46
855.154	14.16
855.447	-3.44
855.739	16.25
856.032	-3.81
856.324	14.7
856.616	17.5
856.909	15.38
857.201	15.19
857.493	-16.81
857.785	-7.99
858.077	-6.55
858.369	-8.78
858.661	2.85
858.953	-7.75
859.245	-4.11
859.537	2.08
859.829	-9.12
860.12	11.11
860.412	-12.54
860.703	-5.26
860.995	16.58
861.286	-16.49
861.578	-10.68
861.869	10.35
862.16	1.94
862.452	-1.06
862.743	-9.79
863.034	-13.67
863.325	-36.05
863.616	1.93
863.907	-2.19
864.198	-11.83
864.488	2.8
864.779	0.38
865.07	16.74
865.36	-33.19
865.651	-4.62
865.941	5.01
866.232	-4.17
866.522	-1.21
866.813	13.36
867.103	6.45
867.393	-19.4
867.683	5.74
867.973	-9.9
868.263	-13.99
868.553	22.74
868.843	7.03
869.133	10.62
869.423	-12.44
869.713	-23.57
870.002	16.72
870.292	-1.49
870.582	35.33
870.871	-10.24
871.161	-5.28
871.45	8.74
871.739	-43.19
872.029	-35.13
872.318	10.02
872.607	33.57
872.896	-10.36
873.185	1.03
873.474	-48.35
873.763	51.34
874.052	25.21
874.341	16.55
874.63	8.4
874.918	-0.52
875.207	30.54
875.496	11.13
875.784	-19.23
876.073	-50.48
876.361	4.35
876.649	-17.31
876.938	-36.91
877.226	20.14
877.514	16.5
877.802	-25.74
878.09	-13.21
878.378	17.87
878.666	-21.2
878.954	-36.49
879.242	-11.92
879.53	-9.66
879.817	8.08
880.105	-0.59
880.392	29.11
880.68	-4.37
880.967	37.9
881.255	20.08
881.542	2.91
881.83	-36.85
882.117	-1.41
882.404	-36.56
882.691	17.47
882.978	-4.83
883.265	-19.11
883.552	17.85
883.839	32.38
884.126	-3.8
884.413	8.6
884.699	11.73
884.986	18.54
885.273	5.55
885.559	5.55
885.846	5.55
