Data from 2009-1_crown_Reflection__3__223.txt Node

Date: Fri Dec 15 18:24:41 CST 2023
User: ToomeyLab
Spectrometer: FLMS14357
Trigger mode: 0
Integration Time (sec): 1.000000E-2
Scans to average: 100
Electric dark correction enabled: true
Nonlinearity correction enabled: false
Boxcar width: 0
XAxis mode: Wavelengths
Number of Pixels in Spectrum: 2048
>>>>>Begin Spectral Data<<<<<
189.047	494.78
189.435	494.78
189.823	494.78
190.211	-316.51
190.599	-29.89
190.987	48.73
191.375	464.54
191.763	-92.49
192.151	96.44
192.538	133.36
192.926	-233.33
193.314	136.02
193.702	154.28
194.089	6.95
194.477	72.52
194.864	-22.28
195.252	60.68
195.639	70.28
196.027	320.21
196.414	89.75
196.801	87.59
197.189	424.17
197.576	71.68
197.963	43.03
198.351	-6.73
198.738	-41.1
199.125	4.2
199.512	-42.64
199.899	64.17
200.286	15.27
200.673	136.82
201.06	-13.45
201.447	-44.01
201.833	25.51
202.22	-9.34
202.607	48.56
202.994	379.63
203.38	-21.44
203.767	50.14
204.154	22.85
204.54	44.71
204.927	-0.02
205.313	-60.4
205.699	32.77
206.086	51.92
206.472	27.9
206.858	-17.94
207.245	13.58
207.631	2.09
208.017	38.72
208.403	-7.58
208.789	3.78
209.175	13.17
209.561	-21.14
209.947	46.27
210.333	-14.14
210.719	41.75
211.105	59.96
211.491	-7.74
211.876	13.26
212.262	23.15
212.648	23.1
213.034	17.55
213.419	-28.23
213.805	16.36
214.19	-34.29
214.576	9.57
214.961	-57.65
215.346	-40.46
215.732	12.77
216.117	18.14
216.502	9.26
216.888	-18.21
217.273	34.5
217.658	-8.06
218.043	47.29
218.428	-38.87
218.813	-14.6
219.198	-13.17
219.583	13.93
219.968	15.26
220.353	-5.66
220.738	10.68
221.122	14.5
221.507	-12.55
221.892	-20.89
222.276	-9.48
222.661	6.56
223.046	15.7
223.43	10.04
223.815	22.79
224.199	-5.49
224.583	6.57
224.968	7.36
225.352	24.03
225.736	-5.43
226.121	-0.05
226.505	10.83
226.889	11.91
227.273	9.59
227.657	6.93
228.041	4.21
228.425	6.1
228.809	8.52
229.193	7.97
229.577	3.83
229.961	5.81
230.344	5.83
230.728	4.39
231.112	5.5
231.495	4.9
231.879	3.95
232.263	5.51
232.646	6.41
233.03	5.96
233.413	5.46
233.797	4.33
234.18	4.21
234.563	3.47
234.946	4.88
235.33	7.68
235.713	3.32
236.096	5.36
236.479	6.01
236.862	5.81
237.245	5.7
237.628	3.94
238.011	6.49
238.394	7.04
238.777	6.49
239.16	4.92
239.543	5.45
239.925	4.88
240.308	4.94
240.691	5.83
241.073	5.39
241.456	5.69
241.838	6.1
242.221	4.65
242.603	5.63
242.986	5.1
243.368	5.85
243.75	5.8
244.133	4.91
244.515	5.77
244.897	5.35
245.279	5.09
245.661	4.63
246.043	4.78
246.425	3.93
246.807	5.57
247.189	4.48
247.571	5.6
247.953	5.1
248.335	5.27
248.717	5.4
249.098	5.04
249.48	5.31
249.862	5.38
250.243	4.86
250.625	4.58
251.006	5.55
251.388	4.12
251.769	5.38
252.151	5.73
252.532	5.77
252.913	4.57
253.295	4.47
253.676	4.79
254.057	4.84
254.438	4.63
254.819	4.94
255.2	4.89
255.581	5.31
255.962	4.7
256.343	4.42
256.724	4.13
257.105	5.33
257.486	4.95
257.867	5.27
258.247	4.69
258.628	3.84
259.009	3.85
259.389	5.43
259.77	5.26
260.15	4.2
260.531	4.35
260.911	5.09
261.292	4.57
261.672	4.96
262.052	4.71
262.432	4.99
262.813	5.14
263.193	4.75
263.573	5.18
263.953	4.55
264.333	4.96
264.713	4.47
265.093	3.58
265.473	4.52
265.853	3.59
266.233	5.09
266.612	2.55
266.992	4.27
267.372	5.08
267.752	4.3
268.131	4.7
268.511	4.91
268.89	5.06
269.27	4.6
269.649	4.06
270.029	3.96
270.408	4.99
270.787	5.01
271.167	5.65
271.546	4.8
271.925	4.37
272.304	3.86
272.683	4.66
273.062	4.35
273.441	4.52
273.82	3.95
274.199	4.18
274.578	4.89
274.957	4.47
275.336	4.64
275.715	4.04
276.093	4.91
276.472	4.82
276.851	4.24
277.229	4.57
277.608	3.6
277.986	4.82
278.365	4.51
278.743	4.55
279.122	4.77
279.5	4.7
279.878	4.26
280.257	4.23
280.635	3.73
281.013	3.7
281.391	4.72
281.769	4.46
282.147	4.83
282.525	4.98
282.903	4.18
283.281	5.29
283.659	4.42
284.037	4.52
284.415	4.72
284.792	4.35
285.17	3.15
285.548	4.09
285.925	4.59
286.303	4.9
286.68	3.99
287.058	4.44
287.435	4.74
287.813	4.36
288.19	4.42
288.567	4.03
288.945	4.7
289.322	4.3
289.699	4.57
290.076	4.39
290.453	4.38
290.83	4.41
291.207	4.51
291.584	4.57
291.961	4.75
292.338	4.6
292.715	4.57
293.092	4.06
293.469	4.23
293.845	4.85
294.222	4.41
294.599	4.79
294.975	4.33
295.352	4.75
295.728	4.44
296.105	4.28
296.481	4.84
296.858	4.2
297.234	4.01
297.61	4.23
297.986	4.72
298.363	4.57
298.739	4.66
299.115	4.45
299.491	4.39
299.867	4.09
300.243	4.57
300.619	4.32
300.995	4.26
301.371	4.44
301.746	4.27
302.122	4.94
302.498	4.16
302.874	4.3
303.249	4.58
303.625	4.32
304	4.85
304.376	4.66
304.751	3.99
305.127	4.87
305.502	3.92
305.878	3.66
306.253	4.57
306.628	4.99
307.003	4.13
307.378	5.12
307.754	4.78
308.129	3.66
308.504	4.39
308.879	4.32
309.254	5.62
309.629	4.87
310.003	4.2
310.378	4.23
310.753	4.62
311.128	4.33
311.502	4.77
311.877	4.87
312.252	4.16
312.626	4.11
313.001	4.5
313.375	4.57
313.75	4.17
314.124	4.67
314.498	4.56
314.873	4.62
315.247	4.14
315.621	3.99
315.995	3.74
316.369	4.01
316.743	4.79
317.117	4.38
317.491	4.51
317.865	4.38
318.239	4.57
318.613	4.51
318.987	4.62
319.361	3.96
319.734	4.73
320.108	4.79
320.482	4.38
320.855	4.91
321.229	4.26
321.602	4.12
321.976	4.59
322.349	4.86
322.723	4.53
323.096	4.56
323.469	3.57
323.843	4.69
324.216	5.25
324.589	5.07
324.962	4.44
325.335	4.41
325.708	4.49
326.081	4.92
326.454	4.64
326.827	4.37
327.2	4.56
327.573	4.73
327.945	4.45
328.318	4.35
328.691	3.9
329.063	4.53
329.436	4.07
329.809	4.5
330.181	4.2
330.553	4.63
330.926	4.3
331.298	4.91
331.671	4.09
332.043	5.22
332.415	4.68
332.787	4.58
333.159	5.32
333.532	5.04
333.904	4.84
334.276	4.51
334.648	5
335.02	5.07
335.391	4.82
335.763	4.82
336.135	4.2
336.507	5.35
336.879	4.51
337.25	4.64
337.622	4.43
337.993	4.59
338.365	4.97
338.736	4.3
339.108	4.14
339.479	4.64
339.851	4.03
340.222	4.28
340.593	4.32
340.964	4.01
341.336	4.7
341.707	4.01
342.078	4.65
342.449	5.05
342.82	4.62
343.191	5.23
343.562	4.41
343.933	4.8
344.303	4.52
344.674	4.22
345.045	4.82
345.416	4.86
345.786	4.23
346.157	4.65
346.527	3.83
346.898	4.35
347.268	4.73
347.639	4.58
348.009	5.05
348.38	4.05
348.75	4.81
349.12	3.99
349.49	5.03
349.861	4.92
350.231	4.23
350.601	4.79
350.971	5.19
351.341	4.97
351.711	4.56
352.081	4.18
352.45	4.63
352.82	4.97
353.19	4.87
353.56	4.53
353.929	4.26
354.299	4.32
354.669	3.95
355.038	5.03
355.408	4.75
355.777	4.6
356.147	4.59
356.516	4.8
356.885	4.4
357.254	4.84
357.624	5.13
357.993	4.66
358.362	4.21
358.731	4.45
359.1	4.47
359.469	4.84
359.838	4.77
360.207	4.75
360.576	4.5
360.945	4.65
361.314	4.71
361.682	4.65
362.051	4.52
362.42	4.78
362.788	4.5
363.157	4.7
363.525	4.58
363.894	4.79
364.262	4.76
364.631	4.86
364.999	4.69
365.367	4.35
365.735	5.22
366.104	4.88
366.472	5.04
366.84	4.59
367.208	4.71
367.576	5.09
367.944	5.03
368.312	4.64
368.68	4.49
369.048	5
369.416	4.79
369.783	4.58
370.151	5.34
370.519	5.16
370.886	4.84
371.254	4.42
371.621	5.19
371.989	5.26
372.356	4.51
372.724	5.04
373.091	4.34
373.458	4.39
373.826	4.82
374.193	4.54
374.56	4.84
374.927	5.08
375.294	4.87
375.661	4.86
376.028	4.43
376.395	4.8
376.762	4.73
377.129	4.55
377.496	4.86
377.863	4.83
378.229	4.45
378.596	4.88
378.963	4.71
379.329	4.61
379.696	4.88
380.062	4.9
380.429	4.98
380.795	4.49
381.161	5.31
381.528	4.89
381.894	4.68
382.26	4.64
382.626	4.97
382.993	4.31
383.359	5
383.725	4.61
384.091	5.05
384.457	4.78
384.823	4.63
385.188	4.93
385.554	4.62
385.92	4.7
386.286	5.15
386.651	5.18
387.017	5.18
387.383	4.68
387.748	4.61
388.114	4.94
388.479	4.63
388.845	5.18
389.21	4.93
389.575	4.82
389.94	5.1
390.306	5.01
390.671	5.19
391.036	4.55
391.401	4.61
391.766	4.8
392.131	4.65
392.496	5.02
392.861	4.61
393.226	4.99
393.591	4.85
393.956	4.65
394.32	4.84
394.685	4.62
395.05	4.66
395.414	5.1
395.779	4.63
396.143	5.05
396.508	4.8
396.872	5.02
397.236	5
397.601	4.86
397.965	4.98
398.329	4.92
398.694	4.99
399.058	4.82
399.422	4.59
399.786	4.94
400.15	4.82
400.514	5.11
400.878	4.92
401.242	5.14
401.605	4.84
401.969	4.97
402.333	4.96
402.697	5.01
403.06	4.8
403.424	5
403.787	4.74
404.151	5.04
404.514	4.94
404.878	4.65
405.241	4.98
405.604	4.95
405.968	4.84
406.331	4.96
406.694	5.07
407.057	4.91
407.42	5.17
407.783	4.89
408.146	5.09
408.509	4.77
408.872	4.61
409.235	5
409.598	5.07
409.961	4.83
410.323	5.06
410.686	4.94
411.049	4.68
411.411	4.9
411.774	4.95
412.136	5.02
412.499	4.89
412.861	4.84
413.223	4.63
413.586	4.76
413.948	5.21
414.31	4.77
414.672	4.69
415.035	5.04
415.397	5.29
415.759	4.75
416.121	5.16
416.483	4.73
416.845	4.88
417.206	4.98
417.568	5.16
417.93	4.7
418.292	4.78
418.653	5.1
419.015	5.11
419.377	4.98
419.738	5.17
420.1	4.94
420.461	5.09
420.822	5.05
421.184	5.09
421.545	4.95
421.906	4.86
422.267	4.81
422.629	4.93
422.99	4.94
423.351	4.93
423.712	4.96
424.073	4.97
424.434	4.93
424.795	4.98
425.155	4.88
425.516	4.88
425.877	4.87
426.238	4.87
426.598	4.95
426.959	4.9
427.32	4.86
427.68	5.02
428.041	5
428.401	5.12
428.761	5.02
429.122	5.08
429.482	5.01
429.842	5.14
430.202	5.07
430.563	5.22
430.923	4.79
431.283	5.2
431.643	5.05
432.003	5.05
432.363	5.08
432.722	5.12
433.082	5.28
433.442	5.08
433.802	5
434.161	5.11
434.521	5.2
434.881	5.13
435.24	5.08
435.6	5.1
435.959	5.16
436.319	5.17
436.678	5.11
437.037	5.07
437.396	5.21
437.756	5.21
438.115	5.07
438.474	5.36
438.833	4.98
439.192	5.35
439.551	5.39
439.91	5.15
440.269	5.18
440.628	5.21
440.987	5.17
441.345	5.14
441.704	5.24
442.063	5.21
442.421	5.07
442.78	5.14
443.138	5.06
443.497	5.05
443.855	5.34
444.214	5.3
444.572	5.29
444.93	5.25
445.288	5.29
445.647	5.2
446.005	5.3
446.363	5.28
446.721	5.17
447.079	5.12
447.437	5.16
447.795	5.2
448.153	5.12
448.51	5.14
448.868	5.15
449.226	5.19
449.584	5.23
449.941	5.24
450.299	5.27
450.656	5.26
451.014	5.43
451.371	5.16
451.729	5.16
452.086	5.52
452.443	5.39
452.801	5.26
453.158	5.41
453.515	5.2
453.872	5.53
454.229	5.2
454.586	5.32
454.943	5.27
455.3	5.31
455.657	5.29
456.014	5.27
456.371	5.45
456.727	5.45
457.084	5.52
457.441	5.4
457.797	5.3
458.154	5.73
458.51	5.51
458.867	5.46
459.223	5.36
459.58	5.48
459.936	5.51
460.292	5.33
460.648	5.25
461.005	5.31
461.361	5.37
461.717	5.42
462.073	5.24
462.429	5.34
462.785	5.35
463.141	5.24
463.496	5.37
463.852	5.48
464.208	5.34
464.564	5.5
464.919	5.43
465.275	5.42
465.631	5.52
465.986	5.44
466.342	5.54
466.697	5.52
467.052	5.7
467.408	5.4
467.763	5.31
468.118	5.56
468.473	5.48
468.829	5.45
469.184	5.36
469.539	5.4
469.894	5.18
470.249	5.52
470.603	5.3
470.958	5.37
471.313	5.56
471.668	5.43
472.023	5.61
472.377	5.46
472.732	5.45
473.086	5.39
473.441	5.4
473.795	5.7
474.15	5.59
474.504	5.46
474.859	5.48
475.213	5.42
475.567	5.49
475.921	5.25
476.275	5.48
476.63	5.49
476.984	5.69
477.338	5.6
477.692	5.41
478.045	5.41
478.399	5.62
478.753	5.51
479.107	5.54
479.461	5.49
479.814	5.7
480.168	5.48
480.521	5.46
480.875	5.45
481.228	5.56
481.582	5.63
481.935	5.41
482.289	5.47
482.642	5.5
482.995	5.43
483.348	5.51
483.701	5.5
484.055	5.56
484.408	5.49
484.761	5.39
485.114	5.34
485.466	5.22
485.819	5.17
486.172	5.16
486.525	5.22
486.878	5.34
487.23	5.26
487.583	5.34
487.936	5.43
488.288	5.44
488.641	5.49
488.993	5.34
489.345	5.28
489.698	5.29
490.05	5.27
490.402	5.36
490.754	5.4
491.107	5.47
491.459	5.47
491.811	5.43
492.163	5.54
492.515	5.42
492.866	5.54
493.218	5.45
493.57	5.36
493.922	5.38
494.274	5.46
494.625	5.49
494.977	5.54
495.328	5.58
495.68	5.59
496.031	5.6
496.383	5.76
496.734	5.74
497.086	5.65
497.437	5.67
497.788	5.62
498.139	5.57
498.49	5.63
498.842	5.46
499.193	5.63
499.544	5.65
499.894	5.6
500.245	5.65
500.596	5.55
500.947	5.57
501.298	5.6
501.648	5.74
501.999	5.57
502.35	5.64
502.7	5.68
503.051	5.46
503.401	5.64
503.752	5.68
504.102	5.71
504.452	5.73
504.803	5.72
505.153	5.55
505.503	5.65
505.853	5.79
506.203	5.72
506.553	5.74
506.903	5.68
507.253	5.68
507.603	5.62
507.953	5.75
508.303	5.71
508.652	5.49
509.002	5.8
509.352	5.63
509.701	5.58
510.051	5.54
510.4	5.74
510.75	5.7
511.099	5.73
511.449	5.59
511.798	5.72
512.147	5.67
512.496	5.67
512.846	5.69
513.195	5.69
513.544	5.69
513.893	5.87
514.242	5.8
514.591	5.85
514.939	5.51
515.288	5.58
515.637	5.65
515.986	5.78
516.334	5.7
516.683	5.79
517.032	5.82
517.38	5.76
517.729	5.74
518.077	5.72
518.426	5.82
518.774	5.78
519.122	5.72
519.47	5.66
519.819	5.5
520.167	5.68
520.515	5.64
520.863	5.75
521.211	5.73
521.559	5.75
521.907	5.65
522.255	5.77
522.602	5.67
522.95	5.71
523.298	5.68
523.645	5.9
523.993	5.69
524.341	5.83
524.688	5.79
525.036	5.66
525.383	5.92
525.73	5.98
526.078	5.87
526.425	5.67
526.772	5.88
527.119	5.8
527.466	5.78
527.814	5.7
528.161	5.68
528.508	5.68
528.854	5.64
529.201	5.7
529.548	5.71
529.895	5.6
530.242	5.45
530.588	5.44
530.935	5.51
531.282	5.52
531.628	5.52
531.975	5.63
532.321	5.68
532.667	5.68
533.014	5.73
533.36	5.74
533.706	5.75
534.052	5.72
534.399	5.63
534.745	5.69
535.091	5.58
535.437	5.62
535.783	5.63
536.129	5.69
536.474	5.63
536.82	5.78
537.166	5.78
537.512	5.85
537.857	5.74
538.203	5.81
538.549	5.68
538.894	5.73
539.239	5.84
539.585	5.75
539.93	5.77
540.276	5.8
540.621	5.83
540.966	5.87
541.311	5.82
541.656	5.74
542.001	5.82
542.346	5.79
542.691	5.72
543.036	5.72
543.381	5.53
543.726	5.61
544.071	5.68
544.415	5.78
544.76	5.66
545.105	5.75
545.449	5.84
545.794	5.9
546.138	5.74
546.483	5.93
546.827	5.82
547.171	5.78
547.516	5.95
547.86	5.83
548.204	5.82
548.548	5.73
548.892	5.81
549.236	5.87
549.58	5.83
549.924	5.95
550.268	6.03
550.612	6
550.956	6.02
551.3	5.87
551.643	6.01
551.987	6.16
552.33	5.87
552.674	6.21
553.017	5.89
553.361	5.73
553.704	6.18
554.048	5.94
554.391	6.07
554.734	5.88
555.077	5.93
555.42	5.85
555.764	5.93
556.107	5.79
556.45	6
556.793	5.85
557.135	6.16
557.478	6.09
557.821	6.14
558.164	5.94
558.507	6
558.849	5.84
559.192	5.96
559.534	5.88
559.877	6.28
560.219	5.76
560.562	6.24
560.904	6.08
561.246	6.09
561.589	6.16
561.931	6.07
562.273	5.97
562.615	6.08
562.957	6.09
563.299	5.83
563.641	5.91
563.983	6.1
564.325	5.97
564.667	6.06
565.008	5.98
565.35	5.94
565.692	5.93
566.033	6.02
566.375	6.23
566.716	6.32
567.058	5.87
567.399	5.84
567.741	5.8
568.082	6.02
568.423	6.07
568.764	5.95
569.105	6.07
569.447	6.08
569.788	6.05
570.129	6.12
570.47	6.1
570.811	6.14
571.151	6.01
571.492	6.18
571.833	6.04
572.174	5.99
572.514	6.1
572.855	6.15
573.195	5.86
573.536	6.16
573.876	5.96
574.217	5.88
574.557	6.17
574.898	6.17
575.238	6.14
575.578	5.9
575.918	6.34
576.258	6.14
576.598	6.04
576.938	6.04
577.278	5.99
577.618	5.88
577.958	6.01
578.298	5.89
578.638	6.06
578.977	6.03
579.317	5.92
579.657	6.12
579.996	6.14
580.336	6.17
580.675	6.22
581.014	6.3
581.354	6.29
581.693	6.39
582.032	5.88
582.372	6.33
582.711	6.21
583.05	6.08
583.389	6.22
583.728	5.98
584.067	6.33
584.406	6.27
584.745	6.21
585.083	6.33
585.422	6.19
585.761	6.22
586.1	6.34
586.438	5.95
586.777	6.28
587.115	6.25
587.454	6.3
587.792	6.09
588.13	6.55
588.469	5.83
588.807	6.15
589.145	6.07
589.483	6.32
589.821	6.16
590.159	6.09
590.497	6.45
590.835	6.55
591.173	5.92
591.511	6.41
591.849	6.46
592.187	6.21
592.524	6.25
592.862	6.25
593.2	6.42
593.537	6.21
593.875	6.18
594.212	6.06
594.55	6.2
594.887	6.34
595.224	6.12
595.561	6.28
595.899	6.25
596.236	6.21
596.573	6.28
596.91	5.7
597.247	6.05
597.584	6.58
597.921	6.24
598.258	6.16
598.594	6.07
598.931	5.99
599.268	6.3
599.604	6.1
599.941	6.16
600.277	6.25
600.614	6.2
600.95	6.08
601.287	6.15
601.623	6.2
601.959	6.32
602.296	6.25
602.632	6.17
602.968	6.25
603.304	6.18
603.64	5.97
603.976	6.1
604.312	6.07
604.648	6.08
604.984	6.37
605.319	6.31
605.655	6.24
605.991	6.08
606.326	6.21
606.662	6.07
606.998	6.07
607.333	6.18
607.668	6.31
608.004	6.36
608.339	6.41
608.674	6.38
609.01	6.11
609.345	6.1
609.68	6.39
610.015	6.3
610.35	6.07
610.685	6.24
611.02	6.48
611.355	6.28
611.689	6.15
612.024	6.13
612.359	6.14
612.694	6.2
613.028	6.09
613.363	6.32
613.697	6.54
614.032	6.42
614.366	6.56
614.7	6.7
615.035	6.46
615.369	5.94
615.703	6.27
616.037	6.06
616.371	5.98
616.705	6.31
617.039	6.57
617.373	6.04
617.707	6.21
618.041	6.07
618.375	6.48
618.709	6.48
619.042	5.77
619.376	6.54
619.71	6.2
620.043	6.72
620.377	6
620.71	6.35
621.043	6.21
621.377	6.43
621.71	6.35
622.043	6.14
622.376	5.67
622.709	6.32
623.043	6.69
623.376	6.5
623.709	6.18
624.041	6.72
624.374	6.53
624.707	6.39
625.04	6.32
625.373	5.7
625.705	6.45
626.038	6.55
626.37	6.41
626.703	6.45
627.035	6.38
627.368	6.78
627.7	6.31
628.032	6.27
628.365	6.49
628.697	6.43
629.029	6.25
629.361	6.48
629.693	6.41
630.025	6.12
630.357	6.7
630.689	6.34
631.021	6.28
631.353	6.38
631.684	6.04
632.016	6.15
632.348	6.4
632.679	6.48
633.011	6.42
633.342	6.86
633.674	6.48
634.005	6.72
634.336	6.19
634.668	7.07
634.999	6.32
635.33	6.07
635.661	6.29
635.992	6.34
636.323	6.65
636.654	6.72
636.985	6.36
637.316	6.4
637.647	6.34
637.977	6.62
638.308	6.91
638.639	6.25
638.969	6.55
639.3	6.14
639.63	6.19
639.961	6.71
640.291	6.37
640.622	6.64
640.952	6.08
641.282	6.86
641.612	6.19
641.943	6.4
642.273	6.46
642.603	6.7
642.933	6.71
643.263	6.68
643.592	6.02
643.922	6.55
644.252	6.18
644.582	6.81
644.911	6.04
645.241	6.28
645.571	6.29
645.9	6.2
646.23	6.51
646.559	6.37
646.888	6.01
647.218	5.81
647.547	6.74
647.876	6.23
648.205	6.64
648.534	6.4
648.863	6.51
649.192	6.53
649.521	6.7
649.85	6.59
650.179	6.28
650.508	6.18
650.837	6.38
651.165	6.77
651.494	6.55
651.822	6.35
652.151	6.26
652.479	6.51
652.808	5.84
653.136	6.73
653.465	6.27
653.793	6.38
654.121	6.45
654.449	6.72
654.777	6.7
655.105	6.83
655.433	6.16
655.761	6.55
656.089	7.02
656.417	6.86
656.745	6.06
657.073	6.44
657.4	7.28
657.728	6.61
658.056	6.62
658.383	6.14
658.711	6.45
659.038	6.49
659.365	6.7
659.693	6.57
660.02	6.54
660.347	6.35
660.674	6.74
661.001	6.43
661.329	5.83
661.656	6.84
661.982	6.98
662.309	6.62
662.636	6.02
662.963	7
663.29	6.64
663.616	6.63
663.943	6.15
664.27	6.2
664.596	7.25
664.923	6.23
665.249	6.75
665.576	6.57
665.902	6.91
666.228	6.27
666.554	7.51
666.881	6.62
667.207	7.23
667.533	6.99
667.859	6.91
668.185	7.09
668.511	5.9
668.837	5.84
669.162	6.43
669.488	6
669.814	6.52
670.139	6.6
670.465	6.45
670.791	6.89
671.116	7.55
671.442	6.41
671.767	6.46
672.092	6.84
672.418	7.12
672.743	6.83
673.068	6.75
673.393	6.47
673.718	6.96
674.043	6.52
674.368	7.33
674.693	7.45
675.018	6.71
675.343	6.5
675.667	6.3
675.992	7.44
676.317	6.92
676.641	7.38
676.966	7.35
677.29	6.51
677.615	7.01
677.939	6.77
678.264	6.87
678.588	6.71
678.912	6.99
679.236	7.82
679.56	6.14
679.885	7.01
680.209	6.58
680.532	7.05
680.856	7.16
681.18	6.85
681.504	6.49
681.828	6.9
682.152	6.55
682.475	6.98
682.799	7.14
683.122	6.24
683.446	6.93
683.769	7.32
684.093	5.59
684.416	6.7
684.739	7.26
685.062	6.88
685.386	7.34
685.709	6.58
686.032	6.93
686.355	6.82
686.678	5.8
687.001	7.49
687.324	7.32
687.646	5.93
687.969	6.01
688.292	6.44
688.614	6.5
688.937	7.36
689.26	6.56
689.582	7.4
689.904	6.61
690.227	6.73
690.549	6.84
690.871	7.41
691.194	6.73
691.516	6.92
691.838	7
692.16	6.45
692.482	6.53
692.804	6.84
693.126	6.49
693.448	6.36
693.769	7.96
694.091	6.9
694.413	6.89
694.735	6.64
695.056	6.37
695.378	6.57
695.699	6.8
696.021	5.52
696.342	5.95
696.663	6.71
696.984	6.97
697.306	6.42
697.627	7.15
697.948	8.13
698.269	6.94
698.59	6.98
698.911	6.57
699.232	6.9
699.553	6.82
699.873	6.44
700.194	7.44
700.515	7.05
700.835	6.33
701.156	6.71
701.477	7.09
701.797	6.51
702.117	6.94
702.438	6.61
702.758	6.56
703.078	6.45
703.398	6.01
703.719	7.33
704.039	6.34
704.359	7.19
704.679	7.91
704.999	6.86
705.319	7.08
705.638	6.72
705.958	6.84
706.278	5.71
706.597	6.87
706.917	7.09
707.237	7.02
707.556	7.3
707.876	7.19
708.195	7.01
708.514	7.6
708.834	6.7
709.153	7.98
709.472	7.78
709.791	7.12
710.11	6.09
710.429	7.39
710.748	7.39
711.067	8.02
711.386	6.75
711.705	6.84
712.023	7
712.342	6.56
712.661	6.73
712.979	5.31
713.298	6.33
713.616	6.75
713.935	7.59
714.253	5.92
714.572	7.69
714.89	7.34
715.208	6.76
715.526	6
715.844	7.11
716.162	7.01
716.48	7.26
716.798	7.89
717.116	6.9
717.434	6.57
717.752	5.57
718.069	7.07
718.387	6
718.705	6.93
719.022	5.28
719.34	7.71
719.657	6.23
719.975	8.44
720.292	6.23
720.609	7.01
720.927	7.2
721.244	7.47
721.561	6.04
721.878	8.13
722.195	6.42
722.512	7.77
722.829	7.14
723.146	6.72
723.463	7.78
723.779	6.15
724.096	7.91
724.413	6.28
724.729	6.92
725.046	5.54
725.362	7.41
725.679	7.23
725.995	6.4
726.311	6.62
726.628	6.39
726.944	9.04
727.26	7.51
727.576	9.25
727.892	7.2
728.208	5.43
728.524	7.03
728.84	5.67
729.156	7.12
729.472	6.41
729.787	5.84
730.103	7.95
730.419	6.85
730.734	6.35
731.05	6.45
731.365	6.32
731.681	7.61
731.996	6.35
732.311	7.63
732.626	6.8
732.942	5.75
733.257	6.62
733.572	8.11
733.887	6.88
734.202	7.15
734.517	7.11
734.832	7.48
735.146	9.26
735.461	6.08
735.776	7.92
736.091	7.53
736.405	7.7
736.72	5.62
737.034	7.27
737.349	9.35
737.663	5.82
737.977	7.58
738.292	6.82
738.606	7.72
738.92	6.87
739.234	7.32
739.548	7.59
739.862	6.52
740.176	6.19
740.49	7.53
740.804	9.37
741.117	7.44
741.431	6.61
741.745	5.79
742.058	8.04
742.372	6.48
742.685	7.29
742.999	6.59
743.312	5.92
743.626	7.04
743.939	8.24
744.252	8.22
744.565	5.44
744.878	7.29
745.191	7.1
745.505	6.43
745.817	7.98
746.13	5.6
746.443	7.71
746.756	10.19
747.069	6.64
747.381	7.38
747.694	6.32
748.007	7.06
748.319	7.55
748.632	10.01
748.944	6.05
749.256	8.69
749.569	7.02
749.881	8.41
750.193	8.83
750.505	7.21
750.817	8.46
751.129	7.12
751.441	7.73
751.753	7.45
752.065	8.02
752.377	5.99
752.689	8.56
753	7.04
753.312	6.19
753.624	6.51
753.935	9.41
754.247	6.22
754.558	7.01
754.869	7.45
755.181	8.49
755.492	6.96
755.803	6.17
756.114	7.43
756.425	6.47
756.736	6.08
757.047	8.8
757.358	7.95
757.669	8.44
757.98	6.28
758.291	4.3
758.601	8.01
758.912	7.35
759.223	9.51
759.533	7.43
759.844	6.28
760.154	6.92
760.464	7.6
760.775	8.86
761.085	6.35
761.395	8.57
761.705	6.3
762.016	7.76
762.326	7.39
762.636	8.09
762.945	6.34
763.255	8.97
763.565	4.28
763.875	6.27
764.185	6.33
764.494	7.46
764.804	9.43
765.113	8.68
765.423	6.7
765.732	7.28
766.042	6.47
766.351	8.02
766.66	8.51
766.97	8.59
767.279	7.37
767.588	6.91
767.897	9.37
768.206	5.95
768.515	6.04
768.824	6.57
769.133	6.99
769.441	6.56
769.75	8.41
770.059	5.84
770.367	7.88
770.676	8.68
770.984	8.8
771.293	5.51
771.601	9.99
771.91	7.25
772.218	8.66
772.526	7.01
772.834	8.11
773.142	3.69
773.45	6.68
773.758	7.2
774.066	7.9
774.374	6.38
774.682	6.59
774.99	9.82
775.298	6.27
775.605	11.19
775.913	5.52
776.22	7.72
776.528	7.11
776.835	7.59
777.143	5.14
777.45	9.5
777.757	10.46
778.065	6.97
778.372	6.23
778.679	7.69
778.986	7.14
779.293	7.04
779.6	7.92
779.907	8.01
780.214	7.96
780.52	8
780.827	8.69
781.134	7.27
781.44	6.17
781.747	6.96
782.053	5.27
782.36	6.86
782.666	6.63
782.973	5.7
783.279	8.64
783.585	6.05
783.891	11.66
784.197	10.76
784.503	8.57
784.809	4.93
785.115	10.19
785.421	10.54
785.727	6.34
786.033	10.08
786.339	6.85
786.644	8.65
786.95	2.22
787.255	8.62
787.561	11.79
787.866	8.83
788.172	3.78
788.477	4.21
788.782	6.84
789.088	8.79
789.393	5.49
789.698	4.97
790.003	6.06
790.308	8.5
790.613	7.98
790.918	7.99
791.223	7.88
791.527	3.61
791.832	10.71
792.137	2.73
792.441	8.37
792.746	12.31
793.05	6.29
793.355	9.97
793.659	8.77
793.963	11.6
794.268	8.49
794.572	8.43
794.876	12.32
795.18	13.76
795.484	7.41
795.788	8.93
796.092	6.08
796.396	9.32
796.7	6.06
797.004	5.28
797.307	7.64
797.611	8.88
797.915	5.55
798.218	3.25
798.522	9.48
798.825	4.82
799.128	7.74
799.432	6
799.735	6.17
800.038	9.91
800.341	7.91
800.644	5.75
800.947	8.92
801.25	4.12
801.553	2.88
801.856	0.29
802.159	1.8
802.462	7.8
802.764	5
803.067	8.05
803.37	7.49
803.672	4.42
803.975	6.21
804.277	10.31
804.579	4.14
804.882	7.18
805.184	0.58
805.486	1.43
805.788	11.08
806.09	13.55
806.392	9.21
806.694	9.93
806.996	12.68
807.298	12.03
807.6	10.16
807.902	4.6
808.203	8.45
808.505	8.51
808.807	9.16
809.108	9.19
809.409	10.47
809.711	-1.52
810.012	3.73
810.313	7.36
810.615	7.77
810.916	8.26
811.217	7.26
811.518	9.48
811.819	2.36
812.12	10.59
812.421	5.65
812.722	12.44
813.023	9.72
813.323	5.38
813.624	-0.73
813.925	16.1
814.225	12.63
814.526	11.05
814.826	12.8
815.126	2.56
815.427	9.35
815.727	9.22
816.027	12.81
816.327	6.4
816.627	3.44
816.927	12.54
817.227	8.6
817.527	7.26
817.827	6.82
818.127	4.13
818.427	9.52
818.727	14.17
819.026	9.45
819.326	14.42
819.625	4.99
819.925	4.4
820.224	12.27
820.524	5.46
820.823	8.24
821.122	1.49
821.421	8.74
821.72	3.25
822.019	5.99
822.318	5.26
822.617	7.07
822.916	5.1
823.215	8.52
823.514	9.12
823.813	4.72
824.111	8.4
824.41	10.2
824.709	8.51
825.007	8.61
825.306	8.37
825.604	8.59
825.902	8.87
826.201	8.24
826.499	8.01
826.797	9.13
827.095	7.55
827.393	7.14
827.691	8.43
827.989	6.34
828.287	8.44
828.585	10.38
828.882	7.91
829.18	7.54
829.478	12.25
829.775	10.01
830.073	9.42
830.37	9.13
830.668	7.98
830.965	10.65
831.263	7.73
831.56	9.68
831.857	7.18
832.154	10.13
832.451	10.95
832.748	9.52
833.045	10.67
833.342	10.58
833.639	8.27
833.936	7.63
834.232	11.16
834.529	15.06
834.826	-0.02
835.122	7.86
835.419	5.38
835.715	9.04
836.012	11.66
836.308	5.67
836.604	4.73
836.901	7.34
837.197	6.66
837.493	11.99
837.789	8.11
838.085	7.43
838.381	8.01
838.677	6.89
838.972	9.32
839.268	9.43
839.564	9.63
839.86	12.79
840.155	-1.44
840.451	-0.53
840.746	9.76
841.042	9.95
841.337	17.4
841.632	12.49
841.928	22.2
842.223	6.83
842.518	0.24
842.813	20.33
843.108	1.19
843.403	6.73
843.698	8.85
843.993	11.87
844.287	-1.34
844.582	3.99
844.877	14.03
845.171	3.32
845.466	5.3
845.761	-6.14
846.055	8.55
846.349	8.38
846.644	4.84
846.938	-6.97
847.232	17.27
847.526	-0.24
847.82	27.7
848.114	-5.78
848.408	-0.87
848.702	12.22
848.996	-13.85
849.29	19.73
849.584	-0.56
849.877	-0.16
850.171	11.37
850.465	7.21
850.758	-11.46
851.052	-13.03
851.345	-0.88
851.638	14.64
851.932	-14.12
852.225	0.79
852.518	6.13
852.811	-9.08
853.104	-10.54
853.397	28.95
853.69	6.41
853.983	-15.78
854.276	22.29
854.569	14.24
854.861	1.93
855.154	-8.01
855.447	-34.04
855.739	6.05
856.032	16.94
856.324	20.42
856.616	8.23
856.909	-8.06
857.201	25.55
857.493	-8.31
857.785	-19.68
858.077	17.48
858.369	16.88
858.661	24.26
858.953	-9.82
859.245	-6.74
859.537	2.68
859.829	16.1
860.12	38.01
860.412	27.73
860.703	-11.62
860.995	7.28
861.286	-39.61
861.578	10.92
861.869	22.13
862.16	5.41
862.452	23.73
862.743	5.42
863.034	11.85
863.325	-2.46
863.616	9.03
863.907	17.28
864.198	-13.94
864.488	5.48
864.779	2.76
865.07	12.42
865.36	-21.76
865.651	-9.23
865.941	41.04
866.232	16.39
866.522	-54.21
866.813	-1.25
867.103	12.03
867.393	-25.58
867.683	3.45
867.973	-17.57
868.263	-18.71
868.553	15.54
868.843	20.97
869.133	-40.83
869.423	-14.59
869.713	38.86
870.002	15.23
870.292	-2.98
870.582	21.6
870.871	-16.46
871.161	27.27
871.45	-17.67
871.739	-1.92
872.029	21.61
872.318	16.02
872.607	53.14
872.896	-20.34
873.185	-8.78
873.474	-38.38
873.763	29.89
874.052	15.09
874.341	10.43
874.63	26.49
874.918	29.32
875.207	18.66
875.496	8.22
875.784	9.52
876.073	-38.95
876.361	-42.13
876.649	-13.54
876.938	-15.33
877.226	23.19
877.514	14.81
877.802	9.68
878.09	-0.72
878.378	7.34
878.666	-26.45
878.954	31.19
879.242	5.16
879.53	15.19
879.817	3.3
880.105	-17.78
880.392	17.85
880.68	-9.54
880.967	-1.08
881.255	38.84
881.542	-33.29
881.83	-60.19
882.117	9.7
882.404	-8.11
882.691	7.84
882.978	6.78
883.265	3.74
883.552	5.75
883.839	18.93
884.126	3.6
884.413	14.63
884.699	19.88
884.986	14.38
885.273	9.43
885.559	9.43
885.846	9.43
