Data from 21-2_crown_Reflection__2__173.txt Node

Date: Thu Dec 15 17:51:35 CST 2022
User: ToomeyLab
Spectrometer: FLMS14357
Trigger mode: 0
Integration Time (sec): 1.000000E-2
Scans to average: 100
Electric dark correction enabled: true
Nonlinearity correction enabled: false
Boxcar width: 0
XAxis mode: Wavelengths
Number of Pixels in Spectrum: 2048
>>>>>Begin Spectral Data<<<<<
189.047	-90.38
189.435	-90.38
189.823	-90.38
190.211	-159.65
190.599	2100.64
190.987	44.83
191.375	372.8
191.763	239.38
192.151	277.67
192.538	20.84
192.926	136.17
193.314	270.21
193.702	-166.13
194.089	-23.52
194.477	142.97
194.864	128.82
195.252	-1151.6
195.639	33.55
196.027	-627.59
196.414	46.24
196.801	-59.31
197.189	107.38
197.576	-108.85
197.963	893.05
198.351	-0.44
198.738	-124.73
199.125	-33
199.512	34.82
199.899	1.97
200.286	-21.35
200.673	41.38
201.06	-9.1
201.447	15.55
201.833	-2.38
202.22	-9.1
202.607	-2.94
202.994	22.22
203.38	27.9
203.767	-3.32
204.154	11.88
204.54	11.6
204.927	4.25
205.313	48.54
205.699	13.88
206.086	-11.3
206.472	33.81
206.858	-22.49
207.245	-6.51
207.631	-16.35
208.017	31.25
208.403	-6.57
208.789	15.54
209.175	-32.04
209.561	-27.47
209.947	1.1
210.333	5.46
210.719	9.48
211.105	12.07
211.491	3.57
211.876	-5.2
212.262	-7.33
212.648	-7.32
213.034	-22.64
213.419	-1.94
213.805	-42.99
214.19	-41.79
214.576	-9.04
214.961	4.84
215.346	-0.87
215.732	22.55
216.117	-3.8
216.502	8.59
216.888	-0.67
217.273	-9.14
217.658	-11.26
218.043	-15.66
218.428	-24.35
218.813	19.55
219.198	-17.51
219.583	-3.23
219.968	4.17
220.353	-4.31
220.738	6.69
221.122	-10.62
221.507	-5.44
221.892	-29.21
222.276	-28.76
222.661	-16.95
223.046	-12.98
223.43	8.74
223.815	3.07
224.199	0.68
224.583	-14.48
224.968	-6.23
225.352	-21.6
225.736	6.75
226.121	-0.64
226.505	-1.87
226.889	2.37
227.273	-4.81
227.657	4.41
228.041	-0.69
228.425	-4.33
228.809	-1.66
229.193	1.6
229.577	0.57
229.961	0.26
230.344	0.84
230.728	1.05
231.112	0.78
231.495	-1.15
231.879	1.55
232.263	1.92
232.646	1.24
233.03	2.66
233.413	0.28
233.797	-1.33
234.18	0.22
234.563	-0.33
234.946	-0.43
235.33	-0.15
235.713	0.66
236.096	1.18
236.479	2.21
236.862	-0.46
237.245	-0.63
237.628	-0.27
238.011	0.62
238.394	-0.73
238.777	1.74
239.16	3.59
239.543	1.52
239.925	0.95
240.308	0.08
240.691	-0.6
241.073	-0.05
241.456	1.2
241.838	0.61
242.221	1.24
242.603	0.97
242.986	0.91
243.368	1.58
243.75	0.92
244.133	1.22
244.515	1.2
244.897	0.67
245.279	1.55
245.661	1.22
246.043	0.93
246.425	0.58
246.807	1.33
247.189	1.01
247.571	0.81
247.953	0.7
248.335	0.97
248.717	1.16
249.098	1.07
249.48	0.81
249.862	1.35
250.243	1.3
250.625	1.39
251.006	1.53
251.388	1.05
251.769	-0.49
252.151	1.24
252.532	0.06
252.913	0.74
253.295	0.77
253.676	1.16
254.057	0.89
254.438	0.63
254.819	1.39
255.2	0.92
255.581	2.05
255.962	0.68
256.343	1.46
256.724	1.83
257.105	0.43
257.486	0.01
257.867	0.2
258.247	1.44
258.628	1.27
259.009	0.47
259.389	1.06
259.77	0.65
260.15	1.79
260.531	0.87
260.911	1.02
261.292	1.09
261.672	1.06
262.052	0.98
262.432	0.82
262.813	1.06
263.193	0.41
263.573	0.57
263.953	0.29
264.333	1.35
264.713	0.93
265.093	0.3
265.473	0.09
265.853	1.35
266.233	1.25
266.612	-0.58
266.992	0.91
267.372	1.24
267.752	1.31
268.131	0.99
268.511	0.91
268.89	1.59
269.27	0.5
269.649	0.54
270.029	1.43
270.408	0.88
270.787	1.21
271.167	1.64
271.546	1.38
271.925	1.03
272.304	0.99
272.683	0.75
273.062	0.67
273.441	0.43
273.82	0.97
274.199	0.58
274.578	0.84
274.957	0.86
275.336	1.23
275.715	1.19
276.093	0.98
276.472	0.62
276.851	0.71
277.229	0.71
277.608	0.44
277.986	1.21
278.365	1.29
278.743	1.33
279.122	0.7
279.5	0.53
279.878	0.58
280.257	1.09
280.635	1.15
281.013	0.42
281.391	0.57
281.769	1.49
282.147	0.8
282.525	0.63
282.903	0.75
283.281	0.67
283.659	1.04
284.037	0.41
284.415	0.8
284.792	1.11
285.17	0.92
285.548	0.65
285.925	0.68
286.303	1.58
286.68	0.88
287.058	1.13
287.435	0.9
287.813	1.05
288.19	0.79
288.567	0.91
288.945	0.72
289.322	1.02
289.699	1.05
290.076	1.01
290.453	1.01
290.83	1.18
291.207	0.97
291.584	1.05
291.961	1.12
292.338	0.9
292.715	0.67
293.092	1.2
293.469	0.87
293.845	1.02
294.222	1.25
294.599	0.87
294.975	0.92
295.352	0.99
295.728	1.07
296.105	0.96
296.481	1.23
296.858	1.04
297.234	1.19
297.61	1.12
297.986	1.29
298.363	1.19
298.739	1.38
299.115	1.25
299.491	1.39
299.867	0.9
300.243	0.76
300.619	0.56
300.995	1.6
301.371	1.19
301.746	1.01
302.122	1.13
302.498	1.18
302.874	1.51
303.249	1.16
303.625	0.82
304	1.31
304.376	1.42
304.751	1.18
305.127	0.74
305.502	1.48
305.878	0.91
306.253	0.92
306.628	1.37
307.003	0.99
307.378	0.86
307.754	1.01
308.129	0.81
308.504	1.41
308.879	0.91
309.254	1.38
309.629	0.95
310.003	1.34
310.378	1.61
310.753	1.44
311.128	1.09
311.502	1.38
311.877	1.28
312.252	1.32
312.626	1.61
313.001	1.42
313.375	1.42
313.75	1.23
314.124	1.56
314.498	1.59
314.873	1.25
315.247	1.35
315.621	0.93
315.995	1.13
316.369	0.86
316.743	1.18
317.117	1.53
317.491	1.54
317.865	1.03
318.239	1.33
318.613	0.91
318.987	0.8
319.361	1.29
319.734	1.53
320.108	1.57
320.482	1.11
320.855	1.13
321.229	0.97
321.602	1.32
321.976	1.16
322.349	1.72
322.723	1.16
323.096	1.48
323.469	1.72
323.843	1.32
324.216	1.4
324.589	1.35
324.962	0.92
325.335	1.21
325.708	1.5
326.081	1.6
326.454	1.46
326.827	1.66
327.2	1.36
327.573	1.95
327.945	1.61
328.318	1.35
328.691	1.42
329.063	1.17
329.436	1.17
329.809	1.87
330.181	1.64
330.553	1.51
330.926	1.78
331.298	1.1
331.671	1.26
332.043	0.9
332.415	1.69
332.787	1.59
333.159	1.16
333.532	1.78
333.904	1.71
334.276	1.82
334.648	1.65
335.02	1.28
335.391	1.51
335.763	1.72
336.135	1.67
336.507	1.28
336.879	1.18
337.25	1.38
337.622	1.83
337.993	1.59
338.365	1.6
338.736	2.03
339.108	1.83
339.479	1.38
339.851	2.04
340.222	1.42
340.593	1.62
340.964	1.66
341.336	1.72
341.707	1.3
342.078	1.16
342.449	1.72
342.82	1.85
343.191	1.35
343.562	1.53
343.933	1.05
344.303	1.15
344.674	1.68
345.045	1.6
345.416	1.95
345.786	1.67
346.157	1.62
346.527	1.63
346.898	1.11
347.268	1.45
347.639	1.61
348.009	1.56
348.38	1.55
348.75	1.6
349.12	1.71
349.49	1.19
349.861	1.64
350.231	1.48
350.601	1.59
350.971	0.9
351.341	1.72
351.711	1.76
352.081	1.4
352.45	1.06
352.82	1.18
353.19	1.87
353.56	1.16
353.929	1.49
354.299	1.74
354.669	2
355.038	1.99
355.408	1.73
355.777	1.98
356.147	1.57
356.516	1.29
356.885	1.72
357.254	1.35
357.624	1.06
357.993	1.94
358.362	1.57
358.731	1.84
359.1	1.51
359.469	1.83
359.838	1.76
360.207	1.61
360.576	1.58
360.945	1.74
361.314	1.22
361.682	1.41
362.051	1.58
362.42	1.56
362.788	1.63
363.157	1.44
363.525	1.56
363.894	1.42
364.262	1.66
364.631	1.82
364.999	1.58
365.367	1.24
365.735	1.39
366.104	1.4
366.472	1.27
366.84	1.27
367.208	1.46
367.576	1.69
367.944	1.84
368.312	1.57
368.68	1.82
369.048	1.68
369.416	1.36
369.783	1.51
370.151	1.95
370.519	2.15
370.886	1.36
371.254	1.61
371.621	1.65
371.989	1.66
372.356	1.59
372.724	1.3
373.091	1.43
373.458	1.36
373.826	1.65
374.193	1.51
374.56	1.88
374.927	1.6
375.294	1.96
375.661	1.67
376.028	1.78
376.395	1.54
376.762	1.34
377.129	1.47
377.496	1.72
377.863	1.67
378.229	1.62
378.596	1.78
378.963	1.74
379.329	1.94
379.696	1.32
380.062	1.47
380.429	1.62
380.795	1.69
381.161	1.36
381.528	1.24
381.894	1.38
382.26	1.55
382.626	1.72
382.993	1.93
383.359	1.5
383.725	1.58
384.091	1.83
384.457	1.58
384.823	1.71
385.188	1.68
385.554	1.79
385.92	1.17
386.286	1.92
386.651	1.39
387.017	1.83
387.383	1.54
387.748	1.86
388.114	1.91
388.479	1.52
388.845	1.52
389.21	1.91
389.575	2.01
389.94	1.83
390.306	1.67
390.671	1.66
391.036	1.89
391.401	1.57
391.766	1.52
392.131	1.95
392.496	1.6
392.861	1.72
393.226	1.5
393.591	1.73
393.956	1.64
394.32	1.89
394.685	1.66
395.05	1.97
395.414	1.6
395.779	1.95
396.143	1.69
396.508	1.54
396.872	1.5
397.236	1.89
397.601	1.78
397.965	1.81
398.329	1.84
398.694	1.49
399.058	1.7
399.422	1.58
399.786	1.69
400.15	1.54
400.514	1.85
400.878	1.73
401.242	1.79
401.605	1.7
401.969	1.57
402.333	1.47
402.697	1.89
403.06	1.71
403.424	1.94
403.787	1.77
404.151	1.75
404.514	1.71
404.878	1.51
405.241	1.72
405.604	1.59
405.968	1.78
406.331	1.69
406.694	1.58
407.057	1.61
407.42	1.65
407.783	1.73
408.146	1.77
408.509	1.85
408.872	1.77
409.235	1.88
409.598	1.64
409.961	1.67
410.323	1.58
410.686	1.82
411.049	1.71
411.411	1.85
411.774	1.62
412.136	1.75
412.499	1.95
412.861	1.32
413.223	1.6
413.586	1.69
413.948	1.87
414.31	1.73
414.672	1.62
415.035	1.75
415.397	1.73
415.759	1.5
416.121	1.74
416.483	1.65
416.845	1.79
417.206	1.74
417.568	1.53
417.93	1.83
418.292	1.62
418.653	1.65
419.015	1.57
419.377	1.63
419.738	1.73
420.1	1.73
420.461	1.64
420.822	1.76
421.184	1.67
421.545	1.78
421.906	1.73
422.267	1.74
422.629	1.6
422.99	1.66
423.351	1.66
423.712	1.69
424.073	1.75
424.434	1.76
424.795	1.65
425.155	1.57
425.516	1.6
425.877	1.65
426.238	1.62
426.598	1.72
426.959	1.64
427.32	1.66
427.68	1.77
428.041	1.86
428.401	1.53
428.761	1.68
429.122	1.86
429.482	1.55
429.842	1.71
430.202	1.82
430.563	1.74
430.923	1.84
431.283	1.87
431.643	1.78
432.003	1.8
432.363	1.87
432.722	1.52
433.082	1.67
433.442	1.82
433.802	1.7
434.161	1.8
434.521	1.76
434.881	1.75
435.24	1.82
435.6	1.93
435.959	1.75
436.319	1.67
436.678	1.73
437.037	1.74
437.396	1.77
437.756	1.6
438.115	1.81
438.474	1.74
438.833	1.71
439.192	1.71
439.551	1.66
439.91	1.72
440.269	1.8
440.628	1.75
440.987	1.76
441.345	1.82
441.704	1.76
442.063	1.7
442.421	1.82
442.78	1.63
443.138	1.75
443.497	1.74
443.855	1.92
444.214	1.56
444.572	1.87
444.93	1.68
445.288	1.72
445.647	1.72
446.005	1.78
446.363	1.75
446.721	1.78
447.079	1.63
447.437	1.78
447.795	1.77
448.153	1.67
448.51	1.81
448.868	1.71
449.226	1.76
449.584	1.75
449.941	1.75
450.299	1.74
450.656	1.79
451.014	1.88
451.371	1.84
451.729	1.92
452.086	1.82
452.443	1.81
452.801	1.66
453.158	1.96
453.515	1.72
453.872	1.73
454.229	1.64
454.586	1.65
454.943	1.79
455.3	1.88
455.657	1.81
456.014	1.9
456.371	1.9
456.727	1.85
457.084	1.8
457.441	1.91
457.797	1.78
458.154	1.76
458.51	1.7
458.867	1.89
459.223	1.76
459.58	1.81
459.936	1.71
460.292	1.9
460.648	1.7
461.005	1.72
461.361	1.74
461.717	1.78
462.073	1.83
462.429	1.86
462.785	1.9
463.141	1.8
463.496	1.87
463.852	1.89
464.208	1.73
464.564	1.69
464.919	1.7
465.275	1.75
465.631	2.08
465.986	1.94
466.342	1.75
466.697	1.65
467.052	2.05
467.408	1.94
467.763	1.74
468.118	1.73
468.473	1.94
468.829	1.76
469.184	1.79
469.539	1.75
469.894	1.85
470.249	1.89
470.603	1.96
470.958	1.77
471.313	1.96
471.668	1.85
472.023	1.85
472.377	1.84
472.732	1.96
473.086	1.83
473.441	1.84
473.795	2.1
474.15	1.88
474.504	1.94
474.859	1.67
475.213	2.03
475.567	1.71
475.921	1.91
476.275	2.01
476.63	1.86
476.984	1.75
477.338	1.92
477.692	1.83
478.045	1.97
478.399	1.94
478.753	1.76
479.107	1.82
479.461	1.85
479.814	1.84
480.168	1.87
480.521	1.85
480.875	1.87
481.228	1.91
481.582	1.71
481.935	1.99
482.289	1.93
482.642	1.98
482.995	1.85
483.348	1.87
483.701	1.99
484.055	1.78
484.408	1.85
484.761	1.77
485.114	1.67
485.466	1.67
485.819	1.69
486.172	1.75
486.525	1.75
486.878	1.8
487.23	1.79
487.583	1.85
487.936	1.8
488.288	1.78
488.641	1.7
488.993	1.7
489.345	1.76
489.698	1.75
490.05	1.75
490.402	1.75
490.754	1.76
491.107	1.74
491.459	1.89
491.811	1.85
492.163	1.74
492.515	1.75
492.866	1.71
493.218	1.76
493.57	1.84
493.922	1.8
494.274	1.9
494.625	1.93
494.977	1.82
495.328	1.91
495.68	1.78
496.031	1.85
496.383	1.79
496.734	1.94
497.086	1.87
497.437	1.94
497.788	1.95
498.139	1.88
498.49	2
498.842	1.96
499.193	1.87
499.544	1.89
499.894	1.86
500.245	1.9
500.596	1.91
500.947	1.84
501.298	1.85
501.648	1.87
501.999	1.97
502.35	1.85
502.7	2.09
503.051	1.88
503.401	2.05
503.752	1.83
504.102	1.95
504.452	1.74
504.803	1.9
505.153	1.94
505.503	1.93
505.853	1.95
506.203	1.92
506.553	1.82
506.903	1.88
507.253	1.86
507.603	1.94
507.953	1.89
508.303	1.93
508.652	1.71
509.002	1.85
509.352	1.96
509.701	1.75
510.051	1.9
510.4	2
510.75	1.85
511.099	1.81
511.449	2.04
511.798	1.88
512.147	1.87
512.496	1.9
512.846	1.91
513.195	1.85
513.544	1.99
513.893	1.97
514.242	1.83
514.591	1.92
514.939	1.98
515.288	2.03
515.637	1.91
515.986	2
516.334	1.93
516.683	1.87
517.032	1.91
517.38	1.77
517.729	1.88
518.077	1.92
518.426	2.02
518.774	1.89
519.122	2
519.47	1.84
519.819	1.83
520.167	1.8
520.515	1.9
520.863	1.85
521.211	1.87
521.559	1.88
521.907	1.92
522.255	1.8
522.602	1.92
522.95	1.93
523.298	2.02
523.645	1.89
523.993	1.92
524.341	1.87
524.688	1.86
525.036	1.9
525.383	1.95
525.73	1.83
526.078	1.94
526.425	1.85
526.772	1.87
527.119	1.86
527.466	1.95
527.814	1.88
528.161	1.96
528.508	1.99
528.854	1.86
529.201	1.84
529.548	1.92
529.895	1.81
530.242	1.8
530.588	1.77
530.935	1.82
531.282	1.83
531.628	1.88
531.975	1.84
532.321	1.93
532.667	1.91
533.014	1.93
533.36	1.91
533.706	1.92
534.052	1.88
534.399	1.92
534.745	1.85
535.091	1.86
535.437	1.86
535.783	1.88
536.129	1.86
536.474	1.89
536.82	1.98
537.166	1.86
537.512	1.82
537.857	1.85
538.203	1.87
538.549	1.92
538.894	1.96
539.239	1.95
539.585	1.99
539.93	2.06
540.276	1.9
540.621	1.98
540.966	1.92
541.311	1.95
541.656	1.9
542.001	1.86
542.346	1.83
542.691	1.85
543.036	1.86
543.381	1.87
543.726	1.92
544.071	1.87
544.415	1.96
544.76	1.89
545.105	1.85
545.449	1.82
545.794	1.9
546.138	1.95
546.483	1.99
546.827	1.91
547.171	1.99
547.516	1.94
547.86	1.95
548.204	1.99
548.548	1.84
548.892	1.93
549.236	1.88
549.58	1.98
549.924	2.03
550.268	2.15
550.612	1.9
550.956	2.08
551.3	2.17
551.643	2.04
551.987	2.07
552.33	2.11
552.674	1.98
553.017	2.09
553.361	2.01
553.704	2.08
554.048	1.85
554.391	1.96
554.734	1.98
555.077	2.06
555.42	2.01
555.764	1.98
556.107	2.12
556.45	2.16
556.793	2.07
557.135	1.98
557.478	1.96
557.821	2.03
558.164	2.11
558.507	1.88
558.849	2.11
559.192	2.12
559.534	2.09
559.877	2.07
560.219	2.15
560.562	2.02
560.904	2.17
561.246	2.01
561.589	2.22
561.931	2.03
562.273	2.04
562.615	1.97
562.957	2.02
563.299	1.99
563.641	2.01
563.983	2.01
564.325	2.11
564.667	2.14
565.008	1.94
565.35	1.89
565.692	2.05
566.033	2.17
566.375	1.93
566.716	1.99
567.058	2.03
567.399	1.99
567.741	2
568.082	2.15
568.423	1.97
568.764	2.04
569.105	2.16
569.447	1.92
569.788	2.01
570.129	1.96
570.47	2.14
570.811	2.13
571.151	2.06
571.492	2.16
571.833	1.96
572.174	1.87
572.514	2.1
572.855	2.17
573.195	2.05
573.536	2.21
573.876	1.94
574.217	1.91
574.557	1.97
574.898	2.02
575.238	2.04
575.578	2.02
575.918	1.92
576.258	2.23
576.598	1.95
576.938	1.98
577.278	2.14
577.618	1.99
577.958	2.06
578.298	1.96
578.638	2.05
578.977	2.05
579.317	2.02
579.657	2.09
579.996	2.26
580.336	2.11
580.675	2.01
581.014	2.16
581.354	2.01
581.693	2.24
582.032	2.07
582.372	2.16
582.711	1.97
583.05	2.14
583.389	2.3
583.728	2.18
584.067	2.06
584.406	2.14
584.745	1.89
585.083	2.01
585.422	2.44
585.761	2.2
586.1	2.15
586.438	2.09
586.777	2.04
587.115	2.16
587.454	1.84
587.792	2.14
588.13	2.15
588.469	2.21
588.807	2.29
589.145	2.19
589.483	1.83
589.821	2.07
590.159	2.15
590.497	2.15
590.835	2.31
591.173	2.35
591.511	2.13
591.849	2.19
592.187	2
592.524	2.24
592.862	2
593.2	2.15
593.537	2.13
593.875	2.17
594.212	2.04
594.55	2.18
594.887	2.24
595.224	2.2
595.561	2.13
595.899	2.16
596.236	2.16
596.573	2.14
596.91	2.17
597.247	2.16
597.584	2.27
597.921	2.22
598.258	2.17
598.594	2.02
598.931	1.92
599.268	2.02
599.604	2.07
599.941	2.06
600.277	2.02
600.614	2.08
600.95	1.92
601.287	1.8
601.623	1.94
601.959	2.46
602.296	2.02
602.632	2.29
602.968	2.07
603.304	2.01
603.64	2.02
603.976	1.99
604.312	2.16
604.648	2.33
604.984	2.28
605.319	1.96
605.655	2.17
605.991	1.99
606.326	2.15
606.662	1.81
606.998	2.16
607.333	1.96
607.668	1.92
608.004	1.95
608.339	2.19
608.674	2.12
609.01	2.32
609.345	2.2
609.68	2.08
610.015	2.28
610.35	2.16
610.685	1.88
611.02	2
611.355	2.05
611.689	1.94
612.024	2.21
612.359	2.14
612.694	2.3
613.028	2.16
613.363	1.96
613.697	2.14
614.032	2.3
614.366	2.21
614.7	2.07
615.035	2.01
615.369	2.42
615.703	2.37
616.037	2.01
616.371	2.02
616.705	2.01
617.039	2.3
617.373	2.45
617.707	2.27
618.041	1.85
618.375	1.45
618.709	2.13
619.042	2.22
619.376	2.11
619.71	2.32
620.043	2.56
620.377	2.32
620.71	2.08
621.043	2.19
621.377	2.22
621.71	2.56
622.043	2.14
622.376	2.31
622.709	2.63
623.043	2.03
623.376	2.2
623.709	2.48
624.041	2.09
624.374	2.48
624.707	2.19
625.04	2.33
625.373	2.42
625.705	2.3
626.038	2.44
626.37	2.1
626.703	2.33
627.035	2
627.368	2.32
627.7	2.42
628.032	2.15
628.365	2.46
628.697	2.47
629.029	1.95
629.361	2.22
629.693	2.02
630.025	2.11
630.357	2.25
630.689	1.86
631.021	2.4
631.353	2.56
631.684	2.08
632.016	1.98
632.348	2.05
632.679	2.32
633.011	2.31
633.342	2.11
633.674	2.03
634.005	2.19
634.336	2.42
634.668	2.16
634.999	1.75
635.33	2.28
635.661	2.23
635.992	2.11
636.323	2.34
636.654	2.15
636.985	2.27
637.316	2.31
637.647	2.5
637.977	2.17
638.308	2.37
638.639	2.2
638.969	2.25
639.3	2.2
639.63	2.34
639.961	2.48
640.291	1.88
640.622	2.76
640.952	2.26
641.282	1.91
641.612	2.15
641.943	2.1
642.273	2.15
642.603	2.75
642.933	2.32
643.263	2.47
643.592	2.53
643.922	2.84
644.252	2.21
644.582	2.62
644.911	2.2
645.241	2.15
645.571	2.48
645.9	2.36
646.23	2.26
646.559	1.67
646.888	2.34
647.218	2.17
647.547	2.11
647.876	2.33
648.205	2.1
648.534	2.44
648.863	1.97
649.192	2.22
649.521	2.09
649.85	2.11
650.179	2.39
650.508	2.12
650.837	2.6
651.165	2.11
651.494	2.39
651.822	2.53
652.151	2.15
652.479	2.87
652.808	2.31
653.136	2.06
653.465	2.23
653.793	2.43
654.121	2.16
654.449	2.16
654.777	1.78
655.105	2.17
655.433	3.05
655.761	2.45
656.089	2.41
656.417	2.87
656.745	2.85
657.073	1.85
657.4	1.78
657.728	1.97
658.056	2.4
658.383	1.82
658.711	2.52
659.038	2.67
659.365	2.87
659.693	2.66
660.02	2.24
660.347	2.21
660.674	2.3
661.001	2.09
661.329	2.24
661.656	2.03
661.982	2.1
662.309	2.2
662.636	2.16
662.963	2.09
663.29	2.35
663.616	2.13
663.943	2.17
664.27	2.58
664.596	2.14
664.923	2.33
665.249	2.62
665.576	2.22
665.902	1.87
666.228	2.7
666.554	2.44
666.881	1.88
667.207	1.87
667.533	2.34
667.859	1.9
668.185	1.76
668.511	2.51
668.837	2.43
669.162	2.46
669.488	1.48
669.814	1.93
670.139	1.75
670.465	2.61
670.791	1.79
671.116	2.55
671.442	1.73
671.767	2.65
672.092	2
672.418	2.51
672.743	2.07
673.068	2.41
673.393	2.83
673.718	1.67
674.043	2.02
674.368	2.51
674.693	2.58
675.018	2.52
675.343	2.79
675.667	2.3
675.992	2.69
676.317	1.58
676.641	2.57
676.966	2.46
677.29	2.13
677.615	1.97
677.939	2.62
678.264	2.51
678.588	2.75
678.912	2.38
679.236	1.82
679.56	1.85
679.885	2.66
680.209	2.59
680.532	2.43
680.856	2.34
681.18	3.03
681.504	2.56
681.828	2.34
682.152	1.65
682.475	2.75
682.799	2.26
683.122	2.24
683.446	1.47
683.769	2.56
684.093	2.38
684.416	2.45
684.739	2.25
685.062	2.12
685.386	2.31
685.709	2.96
686.032	2.61
686.355	2.78
686.678	2.93
687.001	2.43
687.324	2.25
687.646	2.63
687.969	2.84
688.292	2.37
688.614	2.66
688.937	2.79
689.26	2.42
689.582	2.91
689.904	2.54
690.227	2.33
690.549	2.12
690.871	1.94
691.194	2.02
691.516	2.74
691.838	2.65
692.16	1.69
692.482	2.4
692.804	3.25
693.126	2.05
693.448	2.74
693.769	1.5
694.091	2.93
694.413	1.84
694.735	1.78
695.056	1.88
695.378	2.29
695.699	3.31
696.021	2.28
696.342	2.31
696.663	2.61
696.984	1.55
697.306	1.26
697.627	3.4
697.948	2.37
698.269	2.29
698.59	2.48
698.911	2.43
699.232	3.22
699.553	2.84
699.873	1.71
700.194	2.81
700.515	2.36
700.835	2.2
701.156	2.49
701.477	2.47
701.797	1.9
702.117	2.49
702.438	2.72
702.758	1.59
703.078	2.79
703.398	2.72
703.719	2.96
704.039	2.7
704.359	2.34
704.679	1.92
704.999	1.99
705.319	1.98
705.638	2.44
705.958	2.67
706.278	2.18
706.597	2.51
706.917	3.3
707.237	2.22
707.556	1.95
707.876	2.56
708.195	2.84
708.514	2.46
708.834	1.63
709.153	3.17
709.472	3.81
709.791	2.35
710.11	2.45
710.429	2.54
710.748	2.39
711.067	3.43
711.386	2.35
711.705	2.9
712.023	2.6
712.342	2.11
712.661	3.06
712.979	3.23
713.298	2.27
713.616	2.46
713.935	3.2
714.253	2.95
714.572	2
714.89	2.38
715.208	1.87
715.526	2.68
715.844	2.49
716.162	2.65
716.48	2.64
716.798	2.1
717.116	2.31
717.434	2.9
717.752	2.17
718.069	2.58
718.387	2.56
718.705	2.72
719.022	2.23
719.34	1.62
719.657	2.93
719.975	3.32
720.292	0.98
720.609	1.42
720.927	1.72
721.244	3.22
721.561	0.22
721.878	2.2
722.195	2.08
722.512	2.57
722.829	2.7
723.146	1.9
723.463	1.73
723.779	1.32
724.096	1.18
724.413	3.69
724.729	3.26
725.046	2.41
725.362	2.2
725.679	1.6
725.995	1.38
726.311	2.35
726.628	2.66
726.944	2.26
727.26	3.57
727.576	2.75
727.892	2.43
728.208	1.75
728.524	1.16
728.84	1.65
729.156	2.09
729.472	1.05
729.787	2.68
730.103	1.44
730.419	1.62
730.734	0.68
731.05	2.89
731.365	3.14
731.681	3.53
731.996	2.9
732.311	1.75
732.626	2.69
732.942	3.01
733.257	2.44
733.572	2.84
733.887	2.35
734.202	2.26
734.517	2.69
734.832	1.7
735.146	3.31
735.461	2.77
735.776	2.3
736.091	3.78
736.405	2.7
736.72	1.07
737.034	3.09
737.349	3.69
737.663	4.48
737.977	3.62
738.292	1.35
738.606	2.46
738.92	3.29
739.234	2.13
739.548	2.32
739.862	2.63
740.176	1.63
740.49	1.82
740.804	3.25
741.117	2.29
741.431	2.36
741.745	1.19
742.058	1.57
742.372	1.58
742.685	3.16
742.999	2.3
743.312	3.11
743.626	3.01
743.939	2.27
744.252	1.22
744.565	2.58
744.878	1.01
745.191	3.2
745.505	2.12
745.817	2.11
746.13	2.41
746.443	1.84
746.756	2.6
747.069	3.81
747.381	2.93
747.694	4.84
748.007	3.46
748.319	3.17
748.632	3.9
748.944	0.24
749.256	3.98
749.569	1.61
749.881	2.01
750.193	3.34
750.505	2.76
750.817	2.18
751.129	2.59
751.441	2.32
751.753	3.28
752.065	2.39
752.377	3.18
752.689	1.19
753	3.76
753.312	2.67
753.624	1.85
753.935	0.86
754.247	2.47
754.558	1.22
754.869	2.1
755.181	2.55
755.492	2.84
755.803	3.44
756.114	0.77
756.425	1.49
756.736	3.77
757.047	2.21
757.358	1.75
757.669	2.07
757.98	1.16
758.291	1.73
758.601	2.21
758.912	2.9
759.223	2.53
759.533	2.49
759.844	1.75
760.154	2.54
760.464	3.63
760.775	3.48
761.085	3.02
761.395	2.24
761.705	2.92
762.016	2.05
762.326	3.05
762.636	3.02
762.945	2.24
763.255	0.89
763.565	4.93
763.875	2.25
764.185	3.76
764.494	3.6
764.804	1.47
765.113	2.53
765.423	2.64
765.732	2.48
766.042	2.93
766.351	3.32
766.66	2.87
766.97	2.61
767.279	1.62
767.588	2.77
767.897	2.48
768.206	1.8
768.515	2.36
768.824	2.5
769.133	0.84
769.441	1.01
769.75	1.51
770.059	2.13
770.367	3.14
770.676	2.33
770.984	-0.22
771.293	2.41
771.601	-0.54
771.91	2.63
772.218	3.83
772.526	-0.26
772.834	1.65
773.142	3.05
773.45	3.83
773.758	3.19
774.066	1.66
774.374	5.37
774.682	3.66
774.99	1.04
775.298	3.34
775.605	1.97
775.913	-0.17
776.22	-0.2
776.528	2.4
776.835	1.95
777.143	5.07
777.45	-0.79
777.757	3.7
778.065	1.99
778.372	3.29
778.679	3.17
778.986	4.21
779.293	0.61
779.6	2.61
779.907	2.66
780.214	1.62
780.52	2.13
780.827	5.35
781.134	2.7
781.44	5.29
781.747	3.65
782.053	0.51
782.36	3.14
782.666	-0.69
782.973	-2.08
783.279	1.72
783.585	2.21
783.891	3.93
784.197	-0.54
784.503	2.47
784.809	4.47
785.115	3.84
785.421	5.01
785.727	3.01
786.033	3.79
786.339	3.35
786.644	2.74
786.95	0.82
787.255	-3.72
787.561	1.3
787.866	1.38
788.172	4.79
788.477	-1.08
788.782	0.54
789.088	2.74
789.393	4.41
789.698	-0.1
790.003	5.57
790.308	2.83
790.613	3.24
790.918	0.96
791.223	1.7
791.527	5.18
791.832	6.27
792.137	4.84
792.441	4.86
792.746	5.34
793.05	2.69
793.355	5.49
793.659	-0.78
793.963	1.83
794.268	2.98
794.572	-0.24
794.876	-1.02
795.18	3.99
795.484	5.16
795.788	9.87
796.092	1.29
796.396	-2.05
796.7	3.49
797.004	-1.13
797.307	-0.02
797.611	4.51
797.915	0.09
798.218	2.28
798.522	-1.74
798.825	4.14
799.128	8.52
799.432	-1.99
799.735	0.25
800.038	1.7
800.341	0.43
800.644	-3.62
800.947	2.45
801.25	0
801.553	5.3
801.856	4.46
802.159	0.5
802.462	-0.14
802.764	2.32
803.067	2.88
803.37	4.79
803.672	-0.36
803.975	2.51
804.277	3.67
804.579	4.16
804.882	0.83
805.184	2.44
805.486	7.51
805.788	1.15
806.09	0.32
806.392	0.06
806.694	2.6
806.996	7.3
807.298	0.93
807.6	8.71
807.902	-0.1
808.203	1.75
808.505	0.38
808.807	3.07
809.108	8.38
809.409	2.48
809.711	3.49
810.012	5.64
810.313	-0.13
810.615	4.85
810.916	3.03
811.217	-3.68
811.518	1.32
811.819	6.48
812.12	3.69
812.421	-2.72
812.722	4.6
813.023	7.55
813.323	4.6
813.624	6.65
813.925	5.41
814.225	4.5
814.526	-4.74
814.826	1.07
815.126	6.15
815.427	0.7
815.727	-4.11
816.027	1.09
816.327	5.41
816.627	3.91
816.927	-0.39
817.227	-3.49
817.527	5.3
817.827	1.6
818.127	2.06
818.427	0.1
818.727	-1.28
819.026	-1.06
819.326	2.87
819.625	1.09
819.925	3.03
820.224	8.17
820.524	3.39
820.823	3.63
821.122	-4.09
821.421	-1.26
821.72	2.59
822.019	-1.26
822.318	5.54
822.617	5.39
822.916	-1.54
823.215	0.98
823.514	5.93
823.813	0.62
824.111	2.91
824.41	2.07
824.709	3.25
825.007	2.99
825.306	4.09
825.604	2.98
825.902	4.27
826.201	3.13
826.499	3.33
826.797	4.04
827.095	3.55
827.393	4.63
827.691	4.73
827.989	3.09
828.287	3.59
828.585	0.89
828.882	0.62
829.18	1.03
829.478	3.46
829.775	3.34
830.073	4.57
830.37	2.96
830.668	2.94
830.965	3.73
831.263	1.98
831.56	7.48
831.857	2.86
832.154	1.77
832.451	2.98
832.748	3.86
833.045	6.72
833.342	2.98
833.639	7.21
833.936	-0.62
834.232	0.99
834.529	-2.88
834.826	5.6
835.122	-2.41
835.419	1.3
835.715	-0.53
836.012	4.81
836.308	6.44
836.604	-0.64
836.901	-1.28
837.197	3.31
837.493	3.67
837.789	7.66
838.085	-1.24
838.381	6.95
838.677	2.85
838.972	1.55
839.268	1.86
839.564	5.12
839.86	-2.85
840.155	9.62
840.451	5.9
840.746	1.02
841.042	0.73
841.337	1.09
841.632	1.79
841.928	2.87
842.223	1.15
842.518	5.42
842.813	0.73
843.108	0.52
843.403	6.96
843.698	0.58
843.993	8.19
844.287	-0.19
844.582	1.65
844.877	-3.5
845.171	5.8
845.466	3.72
845.761	-0.98
846.055	1.27
846.349	1.41
846.644	-4.48
846.938	14.88
847.232	9.81
847.526	-6.03
847.82	-5.15
848.114	1.34
848.408	10.62
848.702	2.63
848.996	13.27
849.29	12.39
849.584	0.62
849.877	-6.69
850.171	6.36
850.465	4.73
850.758	3.05
851.052	-1.52
851.345	2.47
851.638	-15.56
851.932	-6.3
852.225	2.17
852.518	17.88
852.811	-7.54
853.104	2.65
853.397	4.18
853.69	1.19
853.983	-1.43
854.276	-5.02
854.569	-18.74
854.861	12.61
855.154	10.33
855.447	-11.53
855.739	-35.88
856.032	10.44
856.324	-9.95
856.616	-6.73
856.909	-4.74
857.201	-28.68
857.493	-2.85
857.785	-13.91
858.077	-22.7
858.369	-4.13
858.661	-15.95
858.953	1.2
859.245	16.21
859.537	-9.78
859.829	-6.71
860.12	8.78
860.412	-24.44
860.703	17.11
860.995	17.51
861.286	-19.94
861.578	15.18
861.869	-13.98
862.16	4.59
862.452	-17.69
862.743	-10.84
863.034	-5.2
863.325	-2.11
863.616	-4.25
863.907	8.37
864.198	-32.04
864.488	7.42
864.779	3.38
865.07	-1.19
865.36	3.31
865.651	18.68
865.941	-11.87
866.232	19.65
866.522	-17.33
866.813	17.6
867.103	-17.37
867.393	11.82
867.683	-5.79
867.973	5.64
868.263	-4.71
868.553	12.34
868.843	-15.62
869.133	6.54
869.423	-2.86
869.713	-11.13
870.002	10.83
870.292	-15.08
870.582	-18.57
870.871	18.72
871.161	0.94
871.45	-17.98
871.739	11.83
872.029	-21.14
872.318	22.47
872.607	20.8
872.896	6.84
873.185	11.74
873.474	-24.14
873.763	31.39
874.052	19.61
874.341	-18.82
874.63	8.79
874.918	7.4
875.207	-8.47
875.496	8.85
875.784	6.56
876.073	-20.62
876.361	3.21
876.649	-18.21
876.938	-22.94
877.226	-10.75
877.514	9.5
877.802	-20.63
878.09	-22.28
878.378	12.27
878.666	-5.94
878.954	0.46
879.242	12.16
879.53	-5.76
879.817	-16.4
880.105	6
880.392	-12.41
880.68	-6.28
880.967	-7.89
881.255	1.09
881.542	-6.34
881.83	1.64
882.117	9.26
882.404	-22.94
882.691	3.96
882.978	4.18
883.265	-8.36
883.552	-1.26
883.839	14.33
884.126	7.71
884.413	7.71
884.699	3.96
884.986	1.18
885.273	8.92
885.559	8.92
885.846	8.92
