Data from 21-2_forehead_Reflection__4__180.txt Node

Date: Thu Dec 15 17:53:09 CST 2022
User: ToomeyLab
Spectrometer: FLMS14357
Trigger mode: 0
Integration Time (sec): 1.000000E-2
Scans to average: 100
Electric dark correction enabled: true
Nonlinearity correction enabled: false
Boxcar width: 0
XAxis mode: Wavelengths
Number of Pixels in Spectrum: 2048
>>>>>Begin Spectral Data<<<<<
189.047	-92.03
189.435	-92.03
189.823	-92.03
190.211	212.73
190.599	1760.51
190.987	-8.72
191.375	-176
191.763	-569.85
192.151	93.98
192.538	23.31
192.926	-2.9
193.314	282.12
193.702	207.78
194.089	154.55
194.477	53.72
194.864	149.61
195.252	-677.63
195.639	75.7
196.027	-2441.38
196.414	184.59
196.801	-36.42
197.189	83.25
197.576	-113.7
197.963	1465.24
198.351	0.52
198.738	-12.69
199.125	-27.72
199.512	26.66
199.899	-21.38
200.286	2.94
200.673	24.93
201.06	-4.87
201.447	29.61
201.833	6.91
202.22	18.99
202.607	-34.02
202.994	-4.35
203.38	56.55
203.767	17.38
204.154	15.33
204.54	33.06
204.927	26.66
205.313	21.86
205.699	73.32
206.086	31.8
206.472	42.08
206.858	6.85
207.245	17.28
207.631	-6.48
208.017	63.73
208.403	-24.93
208.789	8.11
209.175	43.9
209.561	-18.26
209.947	12.56
210.333	-1.38
210.719	-13.71
211.105	34.5
211.491	4.26
211.876	8.69
212.262	30.45
212.648	-7.13
213.034	-11.06
213.419	3.1
213.805	-35.09
214.19	-12.65
214.576	2.48
214.961	21.13
215.346	-22.51
215.732	3.59
216.117	9.68
216.502	-33.57
216.888	15.97
217.273	3.55
217.658	16.21
218.043	0.41
218.428	-22.17
218.813	17.94
219.198	-11.92
219.583	-19.02
219.968	18.48
220.353	-18.36
220.738	7.13
221.122	-3.62
221.507	20.07
221.892	-3.28
222.276	-12.33
222.661	3.39
223.046	-7.92
223.43	20.59
223.815	2.07
224.199	5.43
224.583	0.17
224.968	-1.24
225.352	-4.52
225.736	16.13
226.121	2.02
226.505	4.55
226.889	-0.97
227.273	-0.21
227.657	4.22
228.041	0.79
228.425	0.32
228.809	1.37
229.193	4.73
229.577	1.91
229.961	1.86
230.344	3.15
230.728	3.8
231.112	2.88
231.495	1.6
231.879	3.8
232.263	1.9
232.646	2.78
233.03	4.23
233.413	2.98
233.797	0.61
234.18	3.16
234.563	4.76
234.946	2.52
235.33	1.72
235.713	3.93
236.096	4.03
236.479	3.23
236.862	2.51
237.245	2.54
237.628	2.29
238.011	3.77
238.394	3.08
238.777	4.21
239.16	2.74
239.543	3.54
239.925	4.64
240.308	1.5
240.691	2.32
241.073	2.2
241.456	3.25
241.838	2.53
242.221	3.07
242.603	2.6
242.986	3.28
243.368	2.94
243.75	3.28
244.133	2.97
244.515	2.78
244.897	2.48
245.279	2.67
245.661	2.85
246.043	2.35
246.425	3.16
246.807	2.78
247.189	3.39
247.571	2.56
247.953	2.78
248.335	2.94
248.717	2.88
249.098	2.86
249.48	2.96
249.862	2.94
250.243	2.91
250.625	3.08
251.006	4.05
251.388	3.46
251.769	2.27
252.151	2.94
252.532	2.27
252.913	3.11
253.295	2.72
253.676	3.17
254.057	2.82
254.438	2.93
254.819	3.34
255.2	3.33
255.581	4.05
255.962	3.69
256.343	2.88
256.724	3.56
257.105	3.04
257.486	2.57
257.867	2.29
258.247	3.22
258.628	4.09
259.009	2.97
259.389	2.64
259.77	3.27
260.15	3.19
260.531	2.74
260.911	2.71
261.292	3.08
261.672	2.99
262.052	2.8
262.432	3.1
262.813	3.02
263.193	3.12
263.573	3.15
263.953	2.96
264.333	3.16
264.713	3.31
265.093	2.85
265.473	2.8
265.853	3.33
266.233	2.66
266.612	2.54
266.992	2.82
267.372	3.06
267.752	3.42
268.131	2.7
268.511	2.49
268.89	3.54
269.27	3.01
269.649	2.07
270.029	2.74
270.408	2.92
270.787	3.57
271.167	3.54
271.546	2.98
271.925	2.52
272.304	3.06
272.683	2.66
273.062	2.83
273.441	2.5
273.82	3.07
274.199	2.66
274.578	3.11
274.957	2.88
275.336	3.35
275.715	2.77
276.093	2.35
276.472	2.55
276.851	3.31
277.229	2.97
277.608	2.93
277.986	3.44
278.365	3.17
278.743	2.88
279.122	2.66
279.5	2.75
279.878	3.14
280.257	3.08
280.635	3.36
281.013	2.28
281.391	2.99
281.769	3.06
282.147	3.53
282.525	2.77
282.903	2.98
283.281	2.95
283.659	3.18
284.037	2.89
284.415	3.17
284.792	2.97
285.17	3.01
285.548	3.24
285.925	3.06
286.303	3.39
286.68	2.76
287.058	3.01
287.435	2.75
287.813	2.88
288.19	2.83
288.567	3.04
288.945	3.03
289.322	3.44
289.699	2.95
290.076	2.79
290.453	2.89
290.83	3.37
291.207	2.94
291.584	3.35
291.961	3.28
292.338	3.37
292.715	3.1
293.092	3.42
293.469	3.37
293.845	3.27
294.222	3.56
294.599	3.24
294.975	3
295.352	3.85
295.728	3.39
296.105	3.5
296.481	3.38
296.858	3.7
297.234	3.55
297.61	3.32
297.986	3.78
298.363	3.63
298.739	3.9
299.115	3.61
299.491	3.93
299.867	3.5
300.243	3.77
300.619	3.32
300.995	3.9
301.371	3.93
301.746	4.09
302.122	3.34
302.498	3.78
302.874	3.94
303.249	4.42
303.625	4.06
304	4.54
304.376	4.82
304.751	3.95
305.127	3.82
305.502	4.05
305.878	4.58
306.253	4.04
306.628	4.71
307.003	4.46
307.378	4.39
307.754	4.95
308.129	4.5
308.504	5.15
308.879	5.16
309.254	4.98
309.629	5.09
310.003	5.36
310.378	5.02
310.753	5.09
311.128	4.93
311.502	5.28
311.877	5.24
312.252	5.34
312.626	5.46
313.001	5.44
313.375	5.57
313.75	5.6
314.124	5.66
314.498	5.91
314.873	5.33
315.247	5.7
315.621	5.32
315.995	5.76
316.369	5.85
316.743	5.84
317.117	6.24
317.491	5.94
317.865	5.6
318.239	6.91
318.613	6.38
318.987	6.24
319.361	6.8
319.734	6.51
320.108	6.46
320.482	7.11
320.855	6.52
321.229	6.8
321.602	6.52
321.976	6.99
322.349	7.61
322.723	7.71
323.096	7.43
323.469	7.19
323.843	6.51
324.216	7.42
324.589	7.68
324.962	7.41
325.335	7.3
325.708	7.64
326.081	7.68
326.454	7.69
326.827	7.45
327.2	7.72
327.573	8.38
327.945	7.78
328.318	7.93
328.691	7.83
329.063	7.47
329.436	7.86
329.809	8.38
330.181	8.42
330.553	8.71
330.926	8.66
331.298	8.42
331.671	8.76
332.043	8.55
332.415	8.61
332.787	9.12
333.159	8.85
333.532	8.87
333.904	8.88
334.276	8.86
334.648	9.16
335.02	9.03
335.391	8.75
335.763	8.94
336.135	9.5
336.507	9.08
336.879	9.52
337.25	9.66
337.622	9.83
337.993	9.99
338.365	9.34
338.736	9.5
339.108	9.54
339.479	9.66
339.851	10.09
340.222	10.14
340.593	9.79
340.964	9.3
341.336	10.05
341.707	10.02
342.078	9.93
342.449	10.01
342.82	10.39
343.191	10.29
343.562	10.42
343.933	9.97
344.303	10.29
344.674	10.17
345.045	10.34
345.416	11.09
345.786	10.51
346.157	10.7
346.527	10.37
346.898	10.49
347.268	10.84
347.639	10.73
348.009	10.69
348.38	10.65
348.75	11.07
349.12	11.23
349.49	10.8
349.861	11.65
350.231	11.38
350.601	11.59
350.971	10.82
351.341	11.52
351.711	11.49
352.081	10.94
352.45	11.12
352.82	10.84
353.19	11.12
353.56	11.39
353.929	11.76
354.299	11.91
354.669	12.36
355.038	12.52
355.408	12.05
355.777	12.01
356.147	12.05
356.516	12.11
356.885	12.22
357.254	11.92
357.624	12.1
357.993	12.5
358.362	12.35
358.731	12.71
359.1	12.38
359.469	12.8
359.838	12.49
360.207	12.51
360.576	12.52
360.945	12.61
361.314	12.36
361.682	12.73
362.051	12.71
362.42	12.79
362.788	12.98
363.157	12.65
363.525	12.99
363.894	12.92
364.262	13.03
364.631	13.48
364.999	13.22
365.367	13.14
365.735	13.03
366.104	13.1
366.472	13.69
366.84	13.55
367.208	13.65
367.576	13.4
367.944	13.61
368.312	13.48
368.68	14.21
369.048	13.56
369.416	13.75
369.783	13.96
370.151	14.43
370.519	14.5
370.886	14.41
371.254	14.45
371.621	14.47
371.989	14.47
372.356	14.38
372.724	14.31
373.091	14.5
373.458	14.5
373.826	14.88
374.193	14.6
374.56	14.95
374.927	14.6
375.294	15.08
375.661	15.09
376.028	15.21
376.395	14.83
376.762	14.9
377.129	15.19
377.496	15.15
377.863	15.29
378.229	15.41
378.596	15.13
378.963	15.6
379.329	15.74
379.696	15.32
380.062	15.54
380.429	15.27
380.795	15.79
381.161	15.45
381.528	15.76
381.894	15.87
382.26	15.72
382.626	15.69
382.993	16.24
383.359	15.94
383.725	16.04
384.091	16.27
384.457	16
384.823	16.09
385.188	16.15
385.554	16.51
385.92	16.29
386.286	16.56
386.651	16.51
387.017	16.89
387.383	16.46
387.748	16.54
388.114	16.72
388.479	16.72
388.845	16.63
389.21	17.01
389.575	17.16
389.94	17.13
390.306	16.88
390.671	17.16
391.036	17.36
391.401	17.15
391.766	17.51
392.131	17.37
392.496	17.25
392.861	17.29
393.226	17.33
393.591	17.48
393.956	17.53
394.32	17.65
394.685	17.61
395.05	17.55
395.414	17.7
395.779	17.62
396.143	17.72
396.508	17.78
396.872	17.77
397.236	18.31
397.601	18.04
397.965	18.31
398.329	18.28
398.694	17.83
399.058	18.3
399.422	18.4
399.786	18.31
400.15	18.29
400.514	18.3
400.878	18.58
401.242	18.54
401.605	18.96
401.969	18.85
402.333	18.5
402.697	18.95
403.06	18.97
403.424	19.1
403.787	18.87
404.151	19.2
404.514	19.01
404.878	18.92
405.241	19.18
405.604	19.07
405.968	19.2
406.331	19.32
406.694	19.3
407.057	19.3
407.42	19.33
407.783	19.42
408.146	19.54
408.509	19.49
408.872	19.65
409.235	19.81
409.598	19.33
409.961	19.81
410.323	19.9
410.686	19.78
411.049	19.88
411.411	20.04
411.774	19.84
412.136	19.86
412.499	20.25
412.861	19.86
413.223	20.29
413.586	20.28
413.948	20.33
414.31	20.32
414.672	20.4
415.035	20.53
415.397	20.67
415.759	20.15
416.121	20.77
416.483	20.52
416.845	20.91
417.206	20.65
417.568	20.87
417.93	20.86
418.292	20.67
418.653	20.77
419.015	20.82
419.377	20.79
419.738	20.83
420.1	20.83
420.461	20.66
420.822	20.88
421.184	20.93
421.545	21
421.906	20.98
422.267	20.85
422.629	20.86
422.99	21
423.351	20.96
423.712	21.19
424.073	21.42
424.434	21.29
424.795	21.33
425.155	21.37
425.516	21.31
425.877	21.44
426.238	21.37
426.598	21.39
426.959	21.72
427.32	21.64
427.68	21.82
428.041	21.94
428.401	22.01
428.761	22.19
429.122	22.34
429.482	22.51
429.842	22.51
430.202	22.3
430.563	22.32
430.923	22.67
431.283	22.85
431.643	22.86
432.003	22.75
432.363	22.78
432.722	22.85
433.082	22.8
433.442	22.95
433.802	23.08
434.161	23.09
434.521	22.84
434.881	23.15
435.24	23.05
435.6	23.14
435.959	23.18
436.319	23.26
436.678	23.47
437.037	23.68
437.396	23.64
437.756	23.45
438.115	23.49
438.474	23.57
438.833	23.85
439.192	23.78
439.551	23.65
439.91	23.74
440.269	23.68
440.628	23.82
440.987	23.8
441.345	23.67
441.704	23.9
442.063	23.83
442.421	23.98
442.78	23.95
443.138	24.04
443.497	24.22
443.855	24.25
444.214	24.17
444.572	24.53
444.93	24.53
445.288	24.48
445.647	24.39
446.005	24.64
446.363	24.5
446.721	24.49
447.079	24.6
447.437	24.63
447.795	24.6
448.153	24.5
448.51	24.67
448.868	24.54
449.226	24.81
449.584	24.86
449.941	25.01
450.299	25.1
450.656	25.11
451.014	25.18
451.371	25.54
451.729	25.45
452.086	25.6
452.443	25.53
452.801	25.73
453.158	25.86
453.515	25.83
453.872	25.63
454.229	25.78
454.586	25.84
454.943	25.85
455.3	26.19
455.657	26.13
456.014	26.03
456.371	26.1
456.727	26.48
457.084	26.39
457.441	26.43
457.797	26.37
458.154	26.7
458.51	26.51
458.867	26.45
459.223	26.52
459.58	26.56
459.936	26.67
460.292	26.6
460.648	26.5
461.005	26.4
461.361	26.37
461.717	26.43
462.073	26.58
462.429	26.8
462.785	26.91
463.141	27.02
463.496	27.2
463.852	27.37
464.208	27.27
464.564	27.33
464.919	27.57
465.275	27.66
465.631	27.58
465.986	27.8
466.342	27.56
466.697	27.67
467.052	27.96
467.408	28.03
467.763	27.94
468.118	27.9
468.473	28
468.829	27.96
469.184	28.08
469.539	28.1
469.894	28.17
470.249	28.42
470.603	28.33
470.958	28.32
471.313	28.52
471.668	28.54
472.023	28.46
472.377	28.5
472.732	28.61
473.086	28.65
473.441	28.58
473.795	29
474.15	28.6
474.504	28.9
474.859	28.75
475.213	28.98
475.567	29.06
475.921	29.08
476.275	29.12
476.63	29.15
476.984	29.12
477.338	29.18
477.692	29.47
478.045	29.45
478.399	29.27
478.753	29.39
479.107	29.4
479.461	29.39
479.814	29.39
480.168	29.35
480.521	29.51
480.875	29.71
481.228	29.67
481.582	29.65
481.935	29.75
482.289	29.78
482.642	29.98
482.995	29.74
483.348	29.61
483.701	29.74
484.055	29.61
484.408	29.39
484.761	29.18
485.114	29.04
485.466	29.07
485.819	29.19
486.172	29.08
486.525	29.08
486.878	29.31
487.23	29.56
487.583	29.72
487.936	29.76
488.288	29.73
488.641	29.75
488.993	29.63
489.345	29.68
489.698	29.75
490.05	29.68
490.402	29.91
490.754	29.94
491.107	30.27
491.459	30.63
491.811	30.61
492.163	30.81
492.515	30.57
492.866	30.39
493.218	30.28
493.57	30.38
493.922	30.43
494.274	30.54
494.625	30.87
494.977	31.05
495.328	31.3
495.68	31.61
496.031	31.49
496.383	31.59
496.734	31.54
497.086	31.99
497.437	31.84
497.788	31.95
498.139	31.67
498.49	31.78
498.842	31.75
499.193	31.88
499.544	31.99
499.894	31.97
500.245	32.06
500.596	32.29
500.947	32.23
501.298	32.34
501.648	32.23
501.999	32.53
502.35	32.33
502.7	32.8
503.051	32.83
503.401	32.92
503.752	32.71
504.102	32.88
504.452	32.96
504.803	32.94
505.153	32.98
505.503	32.91
505.853	33.09
506.203	33.08
506.553	33.25
506.903	33.17
507.253	33.28
507.603	33.28
507.953	33.35
508.303	33.45
508.652	33.55
509.002	33.53
509.352	33.62
509.701	33.37
510.051	33.52
510.4	33.6
510.75	33.4
511.099	33.5
511.449	33.62
511.798	33.51
512.147	33.76
512.496	33.75
512.846	33.98
513.195	34
513.544	34.01
513.893	33.95
514.242	33.84
514.591	33.94
514.939	34.14
515.288	34.34
515.637	34.2
515.986	34.52
516.334	34.49
516.683	34.49
517.032	34.54
517.38	34.76
517.729	34.91
518.077	34.58
518.426	34.86
518.774	34.72
519.122	34.66
519.47	34.44
519.819	34.53
520.167	34.47
520.515	34.48
520.863	34.65
521.211	34.75
521.559	34.73
521.907	34.88
522.255	35.07
522.602	35.11
522.95	35.27
523.298	35.39
523.645	35.61
523.993	35.5
524.341	35.54
524.688	35.45
525.036	35.79
525.383	35.95
525.73	35.5
526.078	35.79
526.425	35.47
526.772	35.43
527.119	35.4
527.466	35.4
527.814	35.44
528.161	35.53
528.508	35.64
528.854	35.44
529.201	35.59
529.548	35.37
529.895	35.33
530.242	35.41
530.588	35.41
530.935	35.31
531.282	35.27
531.628	35.38
531.975	35.61
532.321	35.71
532.667	36.06
533.014	36.13
533.36	36.13
533.706	36.36
534.052	36.3
534.399	36.35
534.745	35.97
535.091	36.13
535.437	36.2
535.783	36.31
536.129	36.53
536.474	36.6
536.82	36.73
537.166	36.93
537.512	36.81
537.857	36.73
538.203	36.99
538.549	36.96
538.894	36.95
539.239	37.06
539.585	37.18
539.93	37.55
540.276	37.67
540.621	37.87
540.966	37.77
541.311	37.83
541.656	37.71
542.001	37.64
542.346	37.49
542.691	37.26
543.036	37.22
543.381	37.35
543.726	37.27
544.071	37.32
544.415	37.5
544.76	37.69
545.105	37.66
545.449	37.84
545.794	37.92
546.138	38.2
546.483	38.31
546.827	38.43
547.171	38.38
547.516	38.66
547.86	38.38
548.204	38.38
548.548	38.44
548.892	38.58
549.236	38.7
549.58	38.79
549.924	39.03
550.268	39.16
550.612	39.28
550.956	39.37
551.3	39.57
551.643	39.54
551.987	39.58
552.33	39.74
552.674	39.86
553.017	39.82
553.361	39.73
553.704	39.91
554.048	39.76
554.391	39.84
554.734	39.69
555.077	39.85
555.42	39.68
555.764	39.87
556.107	40
556.45	40.09
556.793	40.6
557.135	40.32
557.478	40.32
557.821	40.52
558.164	40.57
558.507	40.24
558.849	40.59
559.192	40.66
559.534	40.63
559.877	40.73
560.219	40.41
560.562	40.91
560.904	40.96
561.246	41.01
561.589	41.05
561.931	40.9
562.273	41.12
562.615	41.02
562.957	41.15
563.299	41.21
563.641	40.98
563.983	41.02
564.325	41.16
564.667	41.19
565.008	41.4
565.35	41.19
565.692	41.21
566.033	41.39
566.375	41.66
566.716	41.18
567.058	41.61
567.399	41.63
567.741	41.46
568.082	41.44
568.423	41.56
568.764	41.32
569.105	41.56
569.447	41.6
569.788	41.63
570.129	41.81
570.47	41.83
570.811	41.86
571.151	41.95
571.492	42.13
571.833	42.02
572.174	42.16
572.514	42.03
572.855	42.15
573.195	42.22
573.536	42.42
573.876	42.22
574.217	42.17
574.557	42.15
574.898	42.29
575.238	42.52
575.578	42.35
575.918	42.5
576.258	42.57
576.598	42.73
576.938	42.78
577.278	42.98
577.618	42.98
577.958	42.75
578.298	42.98
578.638	43.36
578.977	43.01
579.317	43.28
579.657	43.08
579.996	43.1
580.336	43.27
580.675	43.51
581.014	43.66
581.354	43.57
581.693	43.7
582.032	43.73
582.372	43.9
582.711	44.01
583.05	44.1
583.389	43.96
583.728	44.23
584.067	43.81
584.406	44.03
584.745	44.06
585.083	43.69
585.422	44.16
585.761	44.02
586.1	44.31
586.438	44.05
586.777	44.59
587.115	44.53
587.454	44.45
587.792	44.45
588.13	44.23
588.469	44.63
588.807	44.78
589.145	44.5
589.483	44.46
589.821	44.51
590.159	44.67
590.497	44.85
590.835	44.98
591.173	45.09
591.511	45.01
591.849	44.86
592.187	45.13
592.524	44.94
592.862	44.84
593.2	45.06
593.537	45.34
593.875	45.28
594.212	45.21
594.55	45.26
594.887	45.56
595.224	45.66
595.561	45.27
595.899	45.76
596.236	45.53
596.573	45.44
596.91	45.47
597.247	45.51
597.584	45.38
597.921	45.3
598.258	45.52
598.594	45.34
598.931	45.35
599.268	45.29
599.604	45.32
599.941	45.53
600.277	45.69
600.614	45.85
600.95	45.98
601.287	45.78
601.623	45.88
601.959	46.57
602.296	46.31
602.632	46.43
602.968	46.27
603.304	46.59
603.64	46.62
603.976	45.92
604.312	46.42
604.648	46.51
604.984	46.4
605.319	46.22
605.655	45.9
605.991	46.45
606.326	45.94
606.662	46.29
606.998	46.32
607.333	46.55
607.668	46.35
608.004	46.48
608.339	46.87
608.674	46.8
609.01	47.04
609.345	46.99
609.68	46.84
610.015	47.26
610.35	47.07
610.685	46.99
611.02	47.04
611.355	46.78
611.689	46.87
612.024	46.89
612.359	47.21
612.694	46.98
613.028	47.09
613.363	47.25
613.697	47.55
614.032	47.4
614.366	47.27
614.7	47.58
615.035	47.66
615.369	47.82
615.703	47.95
616.037	47.94
616.371	47.79
616.705	48.19
617.039	48.14
617.373	48.11
617.707	47.97
618.041	48.02
618.375	47.66
618.709	48.4
619.042	48.11
619.376	48.37
619.71	48.56
620.043	48.27
620.377	48.04
620.71	48.51
621.043	48.45
621.377	48.6
621.71	48.52
622.043	48.7
622.376	48.61
622.709	48.99
623.043	48.9
623.376	48.91
623.709	48.54
624.041	48.83
624.374	48.96
624.707	49.24
625.04	49.17
625.373	49.13
625.705	49.25
626.038	48.91
626.37	48.77
626.703	49.1
627.035	48.81
627.368	49.07
627.7	49.15
628.032	49.28
628.365	48.96
628.697	49.21
629.029	49.21
629.361	49.71
629.693	49.35
630.025	49.16
630.357	49.25
630.689	49.45
631.021	49.73
631.353	49.78
631.684	49.49
632.016	49.53
632.348	49.56
632.679	50.15
633.011	49.98
633.342	50.02
633.674	49.89
634.005	49.99
634.336	49.82
634.668	50.1
634.999	50.01
635.33	50.21
635.661	50.1
635.992	50.05
636.323	50.05
636.654	50.39
636.985	50.21
637.316	50.27
637.647	50.15
637.977	49.56
638.308	50.63
638.639	50.1
638.969	50.07
639.3	50.62
639.63	50.3
639.961	50.66
640.291	50.69
640.622	50.68
640.952	50.63
641.282	50.82
641.612	50.24
641.943	50.62
642.273	50.71
642.603	50.74
642.933	50.62
643.263	51.21
643.592	50.63
643.922	51.82
644.252	50.98
644.582	51.03
644.911	50.36
645.241	50.89
645.571	50.62
645.9	50.86
646.23	51.27
646.559	51.26
646.888	51.19
647.218	50.62
647.547	51.19
647.876	51.56
648.205	51.38
648.534	50.83
648.863	51.09
649.192	51.58
649.521	51.74
649.85	51.4
650.179	51.52
650.508	51.65
650.837	51.55
651.165	52.14
651.494	51.45
651.822	51.38
652.151	51.54
652.479	52.07
652.808	51.96
653.136	51.07
653.465	51.54
653.793	52.12
654.121	52.06
654.449	51.8
654.777	52.46
655.105	51.84
655.433	52.73
655.761	52.54
656.089	52.1
656.417	52.41
656.745	52.49
657.073	52.06
657.4	52.67
657.728	51.97
658.056	52.18
658.383	52.85
658.711	52.52
659.038	52.91
659.365	52.58
659.693	52.58
660.02	52.41
660.347	52.13
660.674	52.83
661.001	52.89
661.329	52.72
661.656	52.46
661.982	52.43
662.309	52.71
662.636	53.1
662.963	52.65
663.29	53.09
663.616	52.81
663.943	52.97
664.27	53
664.596	52.62
664.923	52.72
665.249	53.18
665.576	52.93
665.902	53.12
666.228	53.41
666.554	53.62
666.881	53.32
667.207	52.89
667.533	53.6
667.859	53.4
668.185	53.87
668.511	53.62
668.837	53.62
669.162	53.81
669.488	52.82
669.814	54.24
670.139	52.83
670.465	53.89
670.791	53.1
671.116	53.25
671.442	53.41
671.767	53.25
672.092	53.45
672.418	54.05
672.743	53.69
673.068	53.37
673.393	54.01
673.718	53.84
674.043	53.9
674.368	54.31
674.693	53.8
675.018	53.71
675.343	53.85
675.667	53.99
675.992	54.21
676.317	53.4
676.641	54.03
676.966	53.98
677.29	54.15
677.615	53.72
677.939	54.08
678.264	54.21
678.588	53.82
678.912	54.78
679.236	54.16
679.56	53.53
679.885	54.82
680.209	55.02
680.532	55.23
680.856	54.7
681.18	54.92
681.504	54.51
681.828	54.01
682.152	54.76
682.475	54.48
682.799	54.81
683.122	54.75
683.446	54.45
683.769	54.88
684.093	54.63
684.416	54.51
684.739	55.07
685.062	54.96
685.386	55.45
685.709	54.55
686.032	54.08
686.355	55.35
686.678	55.28
687.001	54.72
687.324	54.91
687.646	55.68
687.969	54.52
688.292	55.39
688.614	54.67
688.937	55.04
689.26	54.07
689.582	55.36
689.904	55.9
690.227	55.08
690.549	55.66
690.871	55.7
691.194	55.23
691.516	55.61
691.838	54.89
692.16	55.01
692.482	55.52
692.804	55.65
693.126	55.98
693.448	55.85
693.769	55.35
694.091	56.33
694.413	56.19
694.735	55.92
695.056	56.04
695.378	55.84
695.699	55.89
696.021	55.43
696.342	55.48
696.663	54.97
696.984	54.03
697.306	55.89
697.627	55.79
697.948	56.12
698.269	56.42
698.59	55.61
698.911	56.07
699.232	56.05
699.553	56.28
699.873	55.92
700.194	56.19
700.515	56.08
700.835	56.1
701.156	55.9
701.477	56.12
701.797	55.85
702.117	55.36
702.438	55.94
702.758	55.7
703.078	55.71
703.398	56.06
703.719	57.02
704.039	56.29
704.359	55.68
704.679	55.96
704.999	56.32
705.319	55.65
705.638	55.84
705.958	56.35
706.278	56.24
706.597	56.62
706.917	56.67
707.237	56.88
707.556	56.29
707.876	56.42
708.195	57.53
708.514	56.56
708.834	56.03
709.153	56.33
709.472	57.06
709.791	57.02
710.11	56.06
710.429	56.54
710.748	56.09
711.067	57.17
711.386	57.44
711.705	57.33
712.023	56.51
712.342	56.83
712.661	56.58
712.979	57.1
713.298	57.08
713.616	57.31
713.935	56.44
714.253	56.59
714.572	57.1
714.89	57.63
715.208	57.33
715.526	56.73
715.844	57.13
716.162	57.78
716.48	56.69
716.798	57.41
717.116	56.74
717.434	57.93
717.752	57.46
718.069	57.66
718.387	56.95
718.705	58.01
719.022	57.34
719.34	56.85
719.657	57.25
719.975	58.31
720.292	58.19
720.609	57.13
720.927	58.25
721.244	57.92
721.561	57.02
721.878	58.18
722.195	58.88
722.512	58.53
722.829	55.94
723.146	58.82
723.463	57.66
723.779	57.71
724.096	56.89
724.413	58.7
724.729	58.12
725.046	58.03
725.362	58.32
725.679	56.02
725.995	58.16
726.311	59.27
726.628	57.64
726.944	58.49
727.26	58.66
727.576	57.27
727.892	57.2
728.208	59.02
728.524	57.23
728.84	57.44
729.156	56.99
729.472	57.39
729.787	57.89
730.103	57.7
730.419	58.48
730.734	56.11
731.05	58.49
731.365	58.07
731.681	58.16
731.996	58.97
732.311	58.82
732.626	58.58
732.942	58.22
733.257	59.04
733.572	58.23
733.887	59.61
734.202	56.41
734.517	59.92
734.832	58.6
735.146	58.19
735.461	57.21
735.776	57.71
736.091	57.97
736.405	57.9
736.72	58.29
737.034	57.28
737.349	58.22
737.663	59.89
737.977	59.51
738.292	58.1
738.606	59.77
738.92	58.72
739.234	59.88
739.548	57.24
739.862	58.86
740.176	59.39
740.49	60.14
740.804	58.71
741.117	58.62
741.431	59.28
741.745	57.94
742.058	59.81
742.372	58.75
742.685	60.05
742.999	59.58
743.312	59.07
743.626	56.4
743.939	59.96
744.252	60.08
744.565	60.35
744.878	59.59
745.191	61.59
745.505	57.04
745.817	58.19
746.13	59.64
746.443	57.28
746.756	60.49
747.069	59.31
747.381	60.16
747.694	59.96
748.007	58.26
748.319	59.14
748.632	58.57
748.944	58.61
749.256	58.37
749.569	59.08
749.881	60.91
750.193	59.38
750.505	59.82
750.817	57.72
751.129	60.43
751.441	58.41
751.753	57.69
752.065	59.85
752.377	60.53
752.689	59.43
753	59.92
753.312	59.38
753.624	58.57
753.935	58.74
754.247	58.1
754.558	59.12
754.869	60.96
755.181	60.86
755.492	59.49
755.803	60.63
756.114	59.61
756.425	57.81
756.736	61.65
757.047	59.8
757.358	59.54
757.669	59.41
757.98	59.41
758.291	57.46
758.601	59.33
758.912	59.06
759.223	59.24
759.533	60.7
759.844	59.33
760.154	59.54
760.464	60.81
760.775	61.26
761.085	61.74
761.395	61.79
761.705	61
762.016	59.53
762.326	61.69
762.636	61.18
762.945	59.35
763.255	59.44
763.565	60.42
763.875	60.64
764.185	59.96
764.494	60.91
764.804	62.33
765.113	61.83
765.423	61.45
765.732	60.24
766.042	60.55
766.351	60.78
766.66	60.97
766.97	60.46
767.279	60.78
767.588	59.78
767.897	59.48
768.206	60.56
768.515	60.36
768.824	59.87
769.133	60.62
769.441	59.69
769.75	60.68
770.059	61.28
770.367	60.33
770.676	58.48
770.984	59.69
771.293	62.46
771.601	61.94
771.91	59.73
772.218	59.42
772.526	62.35
772.834	58.54
773.142	61.17
773.45	60.37
773.758	57.71
774.066	60.84
774.374	61.74
774.682	61.52
774.99	58.41
775.298	57.1
775.605	60.67
775.913	60.05
776.22	57.66
776.528	60.12
776.835	57.53
777.143	60.22
777.45	57.71
777.757	60.91
778.065	61.14
778.372	60.38
778.679	62.97
778.986	61.6
779.293	61.62
779.6	62.31
779.907	61.1
780.214	60.61
780.52	61.45
780.827	61.84
781.134	65.15
781.44	60.26
781.747	59.47
782.053	57.03
782.36	62.32
782.666	59.54
782.973	59.56
783.279	59.42
783.585	65.08
783.891	60.95
784.197	59.49
784.503	60.27
784.809	63.41
785.115	62.91
785.421	62.8
785.727	63.87
786.033	63.18
786.339	62.5
786.644	61.77
786.95	61.2
787.255	60.42
787.561	59.12
787.866	62.62
788.172	62.31
788.477	58.94
788.782	59.25
789.088	62.25
789.393	64.04
789.698	56.22
790.003	60.14
790.308	64.12
790.613	60.25
790.918	60.45
791.223	60.1
791.527	64.59
791.832	62.69
792.137	61.89
792.441	58.99
792.746	58.76
793.05	57.99
793.355	62.07
793.659	60.51
793.963	59.55
794.268	63.9
794.572	59.36
794.876	61.45
795.18	59.76
795.484	62.21
795.788	61.69
796.092	61.23
796.396	62.4
796.7	61.63
797.004	61.41
797.307	62.58
797.611	60.33
797.915	57.27
798.218	62.46
798.522	62.1
798.825	62.81
799.128	61.02
799.432	59.58
799.735	62.13
800.038	63.35
800.341	62.82
800.644	56.81
800.947	59.81
801.25	60.06
801.553	61.7
801.856	61.46
802.159	57.48
802.462	61.76
802.764	60.78
803.067	60.89
803.37	60.94
803.672	61.12
803.975	61.13
804.277	62.98
804.579	64.41
804.882	65.22
805.184	61.63
805.486	65.52
805.788	63.99
806.09	61.59
806.392	64.35
806.694	62.2
806.996	57.2
807.298	59.99
807.6	64.36
807.902	60.59
808.203	63.91
808.505	61.55
808.807	61.11
809.108	65.25
809.409	59.41
809.711	62.53
810.012	62.53
810.313	56.9
810.615	63.4
810.916	62.84
811.217	56.03
811.518	55.87
811.819	61.24
812.12	64.48
812.421	53.61
812.722	63.77
813.023	61.63
813.323	57.19
813.624	60.9
813.925	62.72
814.225	58.52
814.526	57.79
814.826	60.9
815.126	57.43
815.427	58.49
815.727	59.41
816.027	70.82
816.327	65.65
816.627	68.65
816.927	60.53
817.227	55.65
817.527	61.07
817.827	55.19
818.127	65.88
818.427	56.61
818.727	57.55
819.026	63.37
819.326	57.72
819.625	61.52
819.925	61.89
820.224	60.07
820.524	60.46
820.823	59.37
821.122	55.62
821.421	60.3
821.72	59.75
822.019	61.44
822.318	62.64
822.617	66.77
822.916	58.31
823.215	62.81
823.514	64.02
823.813	63.26
824.111	63.56
824.41	65.67
824.709	64.5
825.007	64.79
825.306	64.3
825.604	63.46
825.902	63.14
826.201	62.61
826.499	61.8
826.797	62.33
827.095	63.84
827.393	62.04
827.691	62.93
827.989	61.93
828.287	61.31
828.585	62.46
828.882	62.85
829.18	62.96
829.478	63.62
829.775	64.99
830.073	64.64
830.37	63.43
830.668	60.84
830.965	63.53
831.263	62.78
831.56	61.64
831.857	63.12
832.154	61.5
832.451	60.29
832.748	60.79
833.045	59.18
833.342	62.01
833.639	66.46
833.936	60.58
834.232	59.69
834.529	61.74
834.826	60.26
835.122	61.83
835.419	64.77
835.715	60.05
836.012	65.26
836.308	66.19
836.604	64.51
836.901	63.86
837.197	66.69
837.493	64.02
837.789	60.52
838.085	67.04
838.381	60.71
838.677	59.36
838.972	64.1
839.268	60.75
839.564	61
839.86	66.41
840.155	60.69
840.451	60.79
840.746	59.53
841.042	58.75
841.337	47.85
841.632	62.59
841.928	62.71
842.223	61.14
842.518	62.08
842.813	59.83
843.108	59.91
843.403	70.26
843.698	59.98
843.993	58.67
844.287	64.14
844.582	63.76
844.877	57.62
845.171	75.44
845.466	54.17
845.761	59.75
846.055	67.8
846.349	51.29
846.644	67.25
846.938	60.6
847.232	61.11
847.526	57
847.82	42.6
848.114	54.76
848.408	47.91
848.702	58.91
848.996	60.02
849.29	61.43
849.584	61.74
849.877	64.47
850.171	58.73
850.465	57.61
850.758	42.94
851.052	70.52
851.345	49.46
851.638	47.4
851.932	48.23
852.225	51.67
852.518	66.77
852.811	43.56
853.104	53.33
853.397	43.31
853.69	58.98
853.983	62.46
854.276	63.24
854.569	50.24
854.861	52.68
855.154	70.75
855.447	51.68
855.739	40.2
856.032	58.29
856.324	44.17
856.616	64.47
856.909	69.49
857.201	32.24
857.493	38.33
857.785	52.64
858.077	52.23
858.369	61.52
858.661	58.69
858.953	62.25
859.245	74.16
859.537	41.08
859.829	46.55
860.12	65.56
860.412	48.25
860.703	65.93
860.995	59.18
861.286	56.43
861.578	59.09
861.869	64.61
862.16	53.97
862.452	42.9
862.743	42.7
863.034	40.15
863.325	55.15
863.616	55.04
863.907	69.31
864.198	33.19
864.488	62.62
864.779	50.6
865.07	63.1
865.36	77.6
865.651	63.74
865.941	47.12
866.232	48.89
866.522	64.88
866.813	60.36
867.103	43.48
867.393	55.13
867.683	51.6
867.973	73.04
868.263	71.87
868.553	64.81
868.843	50.02
869.133	68.9
869.423	50.02
869.713	19.14
870.002	58.07
870.292	55.36
870.582	24.26
870.871	68.91
871.161	66.03
871.45	47.1
871.739	56.77
872.029	39.07
872.318	50.21
872.607	66.05
872.896	80.53
873.185	49.35
873.474	56.93
873.763	63.34
874.052	68.41
874.341	46.55
874.63	60.4
874.918	56.58
875.207	65.03
875.496	54.47
875.784	51.28
876.073	39.97
876.361	63.67
876.649	48.73
876.938	29.52
877.226	70.89
877.514	84.09
877.802	43.24
878.09	60.61
878.378	50.89
878.666	54.04
878.954	60.02
879.242	32.22
879.53	43.95
879.817	47.07
880.105	50.83
880.392	52.06
880.68	56.31
880.967	48.48
881.255	59.31
881.542	56.74
881.83	71.41
882.117	62.33
882.404	36.66
882.691	58.38
882.978	68.82
883.265	59.05
883.552	64.84
883.839	68.71
884.126	64.92
884.413	71.08
884.699	62.08
884.986	63.97
885.273	63.24
885.559	63.24
885.846	63.24
