Data from 21-2_crown_Reflection__0__171.txt Node

Date: Thu Dec 15 17:51:13 CST 2022
User: ToomeyLab
Spectrometer: FLMS14357
Trigger mode: 0
Integration Time (sec): 1.000000E-2
Scans to average: 100
Electric dark correction enabled: true
Nonlinearity correction enabled: false
Boxcar width: 0
XAxis mode: Wavelengths
Number of Pixels in Spectrum: 2048
>>>>>Begin Spectral Data<<<<<
189.047	63.61
189.435	63.61
189.823	63.61
190.211	-165.13
190.599	429.3
190.987	15.5
191.375	-209.6
191.763	-728
192.151	353.79
192.538	-34.24
192.926	311.09
193.314	84.72
193.702	189.02
194.089	245.98
194.477	135.33
194.864	200.41
195.252	-954.34
195.639	70.1
196.027	-3772.41
196.414	245.31
196.801	-287.22
197.189	93.67
197.576	66.56
197.963	63.1
198.351	1.66
198.738	-80.57
199.125	-90.69
199.512	30.68
199.899	-56.31
200.286	8.94
200.673	31.47
201.06	-5.35
201.447	-0.78
201.833	-37.25
202.22	-30.21
202.607	-55.52
202.994	2.01
203.38	-25.01
203.767	-3.15
204.154	22.07
204.54	6.95
204.927	7.76
205.313	26.54
205.699	1.07
206.086	8.51
206.472	-7.2
206.858	-3.88
207.245	26.18
207.631	-21.64
208.017	55.14
208.403	-61.43
208.789	-27.98
209.175	16.94
209.561	-84.9
209.947	11.86
210.333	-13.86
210.719	16.19
211.105	14.35
211.491	-33.61
211.876	8.36
212.262	13.35
212.648	0.53
213.034	-25.01
213.419	1.21
213.805	-59.7
214.19	-42
214.576	-47.51
214.961	-21.98
215.346	-31.94
215.732	-8.43
216.117	-7.97
216.502	-40.95
216.888	-19.26
217.273	14.91
217.658	-15.71
218.043	-17.6
218.428	-40.43
218.813	-10.08
219.198	-17.51
219.583	-11.27
219.968	0.46
220.353	-36.99
220.738	-10.1
221.122	-13.2
221.507	-19.71
221.892	-29.47
222.276	-17.13
222.661	-19.98
223.046	-8.14
223.43	6.78
223.815	-0.74
224.199	-1.71
224.583	-0.26
224.968	-14.95
225.352	-6.31
225.736	-1.44
226.121	0.88
226.505	-4.86
226.889	-1.24
227.273	-8.16
227.657	-3.53
228.041	-2.01
228.425	-6.85
228.809	-2.44
229.193	1.27
229.577	-0.3
229.961	-0.71
230.344	0.65
230.728	0.94
231.112	0.86
231.495	-0.98
231.879	-0.52
232.263	0.46
232.646	-1.53
233.03	0.69
233.413	0.71
233.797	-3.88
234.18	0.38
234.563	1.31
234.946	-1.9
235.33	0.35
235.713	0.86
236.096	0.67
236.479	1.51
236.862	-2.51
237.245	-1.45
237.628	0.32
238.011	1.01
238.394	-1.6
238.777	0.46
239.16	0.95
239.543	0.36
239.925	-1.29
240.308	-1.83
240.691	-0.81
241.073	-1.02
241.456	-0.38
241.838	-0.55
242.221	0.87
242.603	0.22
242.986	0.63
243.368	0.07
243.75	0.97
244.133	0.65
244.515	0.35
244.897	-0.14
245.279	-0.36
245.661	0.16
246.043	0.54
246.425	1.01
246.807	-0.23
247.189	0.05
247.571	-0.07
247.953	0.18
248.335	0.51
248.717	0.74
249.098	0.63
249.48	0.2
249.862	0.47
250.243	0.61
250.625	0.71
251.006	0.79
251.388	0.28
251.769	-0.98
252.151	0.76
252.532	-0.35
252.913	-0.07
253.295	0.05
253.676	0.3
254.057	0.23
254.438	0.47
254.819	-0
255.2	0.95
255.581	1.24
255.962	0.82
256.343	0.7
256.724	0.23
257.105	-0.45
257.486	-0.93
257.867	0.31
258.247	0.99
258.628	-0.37
259.009	0.15
259.389	-0.94
259.77	0.13
260.15	1.19
260.531	0.49
260.911	0.63
261.292	0.61
261.672	0.55
262.052	0.52
262.432	0.44
262.813	0.87
263.193	0.04
263.573	0.18
263.953	0.14
264.333	0.38
264.713	0.24
265.093	0.07
265.473	-0.03
265.853	0.4
266.233	0.03
266.612	-0.31
266.992	0.04
267.372	0.56
267.752	0.77
268.131	0.37
268.511	0.2
268.89	0.6
269.27	0.09
269.649	0.63
270.029	0.11
270.408	0.1
270.787	0.05
271.167	0.5
271.546	1.05
271.925	0.41
272.304	0.59
272.683	0.21
273.062	0.22
273.441	0.13
273.82	0.88
274.199	-0.09
274.578	0.65
274.957	0.57
275.336	0.7
275.715	0.66
276.093	0.36
276.472	0.12
276.851	0.52
277.229	0.69
277.608	-0.43
277.986	0.17
278.365	0.27
278.743	0.39
279.122	-0.06
279.5	0.26
279.878	-0.09
280.257	0.27
280.635	0.72
281.013	0.28
281.391	0.35
281.769	0.62
282.147	0.38
282.525	0.5
282.903	0.05
283.281	0.69
283.659	0.84
284.037	0.48
284.415	0.46
284.792	0.37
285.17	0.13
285.548	0.11
285.925	0.55
286.303	0.88
286.68	0.01
287.058	0.62
287.435	0.33
287.813	0.31
288.19	0.27
288.567	0.37
288.945	0.34
289.322	0.45
289.699	0.86
290.076	0.35
290.453	0.09
290.83	0.47
291.207	0.7
291.584	0.94
291.961	0.66
292.338	0.31
292.715	0.33
293.092	0.67
293.469	0.42
293.845	0.37
294.222	0.73
294.599	0.51
294.975	-0.41
295.352	0.32
295.728	0.52
296.105	0.7
296.481	0.77
296.858	0.42
297.234	0.2
297.61	0.47
297.986	0.71
298.363	0.73
298.739	0.86
299.115	0.55
299.491	0.66
299.867	0.39
300.243	0.42
300.619	0.21
300.995	0.7
301.371	0.59
301.746	0.54
302.122	0.14
302.498	0.23
302.874	0.47
303.249	0.92
303.625	0.4
304	1.12
304.376	0.81
304.751	0.54
305.127	0.27
305.502	0.1
305.878	0.68
306.253	0.4
306.628	0.89
307.003	0.53
307.378	0.29
307.754	0.81
308.129	0.23
308.504	0.89
308.879	0.74
309.254	1.02
309.629	0.78
310.003	0.11
310.378	0.67
310.753	0.66
311.128	0.04
311.502	0.65
311.877	0.78
312.252	0.57
312.626	1.05
313.001	0.67
313.375	0.4
313.75	0.74
314.124	0.8
314.498	0.81
314.873	0.21
315.247	0.5
315.621	0.44
315.995	0.64
316.369	0.43
316.743	0.24
317.117	0.41
317.491	0.69
317.865	0.31
318.239	0.65
318.613	0.25
318.987	0.06
319.361	0.73
319.734	0.75
320.108	0.92
320.482	1.05
320.855	0.59
321.229	0.31
321.602	0.23
321.976	0.7
322.349	0.91
322.723	0.69
323.096	0.48
323.469	-0.07
323.843	0.15
324.216	0.91
324.589	0.43
324.962	0.35
325.335	0.48
325.708	0.55
326.081	0.85
326.454	0.74
326.827	0.85
327.2	0.55
327.573	0.55
327.945	0.3
328.318	1.1
328.691	0.54
329.063	0.5
329.436	0.49
329.809	0.81
330.181	1.06
330.553	0.34
330.926	0.98
331.298	0.52
331.671	0.74
332.043	-0.1
332.415	0.28
332.787	1.25
333.159	0.34
333.532	1.02
333.904	1.11
334.276	0.9
334.648	0.75
335.02	0.35
335.391	0.32
335.763	1.01
336.135	1
336.507	0.58
336.879	0.52
337.25	1.18
337.622	0.52
337.993	0.6
338.365	0.86
338.736	0.69
339.108	0.99
339.479	0.67
339.851	0.93
340.222	0.84
340.593	1.07
340.964	0.39
341.336	0.42
341.707	0.77
342.078	0.55
342.449	0.7
342.82	0.76
343.191	0.65
343.562	0.72
343.933	0.36
344.303	0.64
344.674	0.35
345.045	0.9
345.416	0.91
345.786	0.54
346.157	1.17
346.527	0.73
346.898	0.32
347.268	0.9
347.639	0.83
348.009	0.86
348.38	1.04
348.75	0.93
349.12	0.91
349.49	0.84
349.861	0.98
350.231	0.72
350.601	0.98
350.971	0.36
351.341	0.89
351.711	0.44
352.081	0.74
352.45	0.46
352.82	0.25
353.19	0.52
353.56	0.94
353.929	0.66
354.299	0.68
354.669	0.87
355.038	1.23
355.408	0.95
355.777	0.8
356.147	0.86
356.516	0.87
356.885	0.73
357.254	0.77
357.624	0.62
357.993	0.83
358.362	1.1
358.731	1.13
359.1	0.78
359.469	1.04
359.838	0.99
360.207	0.9
360.576	1.01
360.945	0.97
361.314	0.88
361.682	0.72
362.051	0.75
362.42	0.9
362.788	0.76
363.157	0.71
363.525	0.88
363.894	0.63
364.262	0.87
364.631	1.15
364.999	0.75
365.367	0.79
365.735	0.59
366.104	0.74
366.472	0.82
366.84	0.66
367.208	1.04
367.576	0.73
367.944	0.79
368.312	0.93
368.68	0.95
369.048	0.56
369.416	0.69
369.783	1.1
370.151	1.21
370.519	1.1
370.886	1
371.254	1.56
371.621	1.1
371.989	1.07
372.356	0.78
372.724	1
373.091	0.58
373.458	0.45
373.826	1.15
374.193	0.56
374.56	0.98
374.927	0.8
375.294	0.77
375.661	0.99
376.028	0.74
376.395	1.08
376.762	0.65
377.129	0.66
377.496	0.98
377.863	0.87
378.229	1.22
378.596	1.06
378.963	0.93
379.329	1
379.696	0.99
380.062	0.82
380.429	0.69
380.795	1.11
381.161	0.56
381.528	0.76
381.894	0.65
382.26	1.02
382.626	1.07
382.993	1.19
383.359	0.93
383.725	0.51
384.091	0.8
384.457	0.67
384.823	1.05
385.188	0.94
385.554	1.1
385.92	0.67
386.286	0.75
386.651	0.96
387.017	1.01
387.383	0.85
387.748	1.08
388.114	0.97
388.479	0.98
388.845	0.55
389.21	1.22
389.575	1.28
389.94	1.1
390.306	1.02
390.671	0.75
391.036	0.9
391.401	0.93
391.766	0.7
392.131	1.08
392.496	0.96
392.861	0.84
393.226	0.87
393.591	0.91
393.956	0.87
394.32	1.17
394.685	0.84
395.05	1
395.414	0.82
395.779	1.17
396.143	0.64
396.508	0.88
396.872	0.95
397.236	1.17
397.601	1.07
397.965	0.86
398.329	1.06
398.694	0.53
399.058	0.9
399.422	1
399.786	0.82
400.15	1.09
400.514	1.19
400.878	1.03
401.242	1.02
401.605	1.12
401.969	0.67
402.333	0.78
402.697	1.16
403.06	1.18
403.424	0.98
403.787	0.91
404.151	0.96
404.514	0.97
404.878	0.73
405.241	1.05
405.604	0.92
405.968	1
406.331	1.03
406.694	0.96
407.057	0.79
407.42	0.99
407.783	1.23
408.146	0.98
408.509	1.06
408.872	0.97
409.235	1.01
409.598	1.07
409.961	1.26
410.323	0.82
410.686	1.01
411.049	1.15
411.411	0.94
411.774	0.92
412.136	0.92
412.499	1.23
412.861	0.83
413.223	0.8
413.586	0.97
413.948	1.02
414.31	0.9
414.672	0.79
415.035	1.13
415.397	0.91
415.759	0.93
416.121	1.05
416.483	0.97
416.845	0.94
417.206	1.07
417.568	0.89
417.93	1.06
418.292	0.97
418.653	0.86
419.015	0.95
419.377	0.86
419.738	1.09
420.1	0.96
420.461	1
420.822	1.13
421.184	1.14
421.545	1.17
421.906	1.1
422.267	1.05
422.629	1.07
422.99	0.93
423.351	1.03
423.712	1.06
424.073	1.02
424.434	1.11
424.795	0.9
425.155	1
425.516	1
425.877	1.03
426.238	0.96
426.598	1.06
426.959	1.04
427.32	1.07
427.68	1.02
428.041	1.09
428.401	1.06
428.761	1.27
429.122	1.02
429.482	0.86
429.842	0.95
430.202	1.08
430.563	1.16
430.923	1.09
431.283	1.09
431.643	1.15
432.003	1.22
432.363	1.18
432.722	0.93
433.082	1.05
433.442	1.15
433.802	1.1
434.161	1.01
434.521	1.02
434.881	1.12
435.24	0.95
435.6	1.16
435.959	1.14
436.319	1.09
436.678	1.16
437.037	1.06
437.396	1.12
437.756	0.94
438.115	1.15
438.474	1.15
438.833	0.97
439.192	0.99
439.551	0.97
439.91	1.06
440.269	1.19
440.628	0.93
440.987	1.13
441.345	1.08
441.704	1.06
442.063	1.09
442.421	1.15
442.78	1.11
443.138	1.03
443.497	1.12
443.855	1.18
444.214	0.96
444.572	1.25
444.93	1.1
445.288	0.99
445.647	0.87
446.005	1.13
446.363	1.09
446.721	1.16
447.079	0.94
447.437	1.15
447.795	1.15
448.153	1.05
448.51	1.14
448.868	1.01
449.226	1.12
449.584	1.09
449.941	1.11
450.299	1.06
450.656	1.1
451.014	1.2
451.371	1.21
451.729	1.08
452.086	1.04
452.443	1.18
452.801	1.11
453.158	1.3
453.515	1.02
453.872	1.19
454.229	0.91
454.586	0.93
454.943	1.08
455.3	1.08
455.657	0.94
456.014	0.93
456.371	1.11
456.727	1.15
457.084	1.25
457.441	1.29
457.797	1.1
458.154	1.1
458.51	1.03
458.867	1.11
459.223	1.15
459.58	1.08
459.936	1.09
460.292	0.99
460.648	1.03
461.005	1.01
461.361	1.09
461.717	1.09
462.073	1.12
462.429	1.2
462.785	1.24
463.141	1.09
463.496	1.19
463.852	1.22
464.208	1.2
464.564	1.03
464.919	1.11
465.275	1.09
465.631	1.26
465.986	1.25
466.342	1.11
466.697	1.12
467.052	1.19
467.408	1.24
467.763	1.11
468.118	1.02
468.473	1.02
468.829	1.02
469.184	1.11
469.539	0.94
469.894	1.17
470.249	1.11
470.603	1.05
470.958	1.26
471.313	1.16
471.668	1.28
472.023	1.2
472.377	1.04
472.732	1.25
473.086	1.21
473.441	1.07
473.795	1.3
474.15	1.12
474.504	1.2
474.859	0.89
475.213	1.16
475.567	1
475.921	1.22
476.275	1.14
476.63	1.22
476.984	0.94
477.338	1.2
477.692	1.02
478.045	1.16
478.399	1.11
478.753	0.97
479.107	1.1
479.461	1.15
479.814	1.12
480.168	1.08
480.521	1.2
480.875	1.16
481.228	1.18
481.582	1.13
481.935	1.28
482.289	1.17
482.642	1.28
482.995	1.12
483.348	1.15
483.701	1.19
484.055	1.16
484.408	1.17
484.761	1.13
485.114	1.04
485.466	1.07
485.819	1.07
486.172	1.11
486.525	1.12
486.878	1.16
487.23	1.18
487.583	1.16
487.936	1.18
488.288	1.17
488.641	1.08
488.993	1.12
489.345	1.13
489.698	1.09
490.05	1.11
490.402	1.15
490.754	1.08
491.107	1.14
491.459	1.16
491.811	1.18
492.163	1.16
492.515	1.14
492.866	1.09
493.218	1.1
493.57	1.15
493.922	1.12
494.274	1.18
494.625	1.27
494.977	1.29
495.328	1.25
495.68	1.14
496.031	1.08
496.383	1.14
496.734	1.17
497.086	1.17
497.437	1.24
497.788	1.3
498.139	1.19
498.49	1.16
498.842	1.28
499.193	1.17
499.544	1.17
499.894	1.24
500.245	1.15
500.596	1.2
500.947	1.24
501.298	1.06
501.648	1.23
501.999	1.23
502.35	1.06
502.7	1.29
503.051	1.2
503.401	1.2
503.752	1.08
504.102	1.14
504.452	1.03
504.803	1.1
505.153	1.19
505.503	1.21
505.853	1.3
506.203	1.28
506.553	1.22
506.903	1.25
507.253	1.13
507.603	1.24
507.953	1.16
508.303	1.28
508.652	0.97
509.002	1.25
509.352	1.21
509.701	1.05
510.051	1.2
510.4	1.32
510.75	1.13
511.099	1.14
511.449	1.21
511.798	1.1
512.147	1.16
512.496	1.19
512.846	1.15
513.195	1.24
513.544	1.31
513.893	1.23
514.242	1.08
514.591	1.14
514.939	1.3
515.288	1.31
515.637	1.19
515.986	1.17
516.334	1.27
516.683	1.23
517.032	1.17
517.38	1.05
517.729	1.15
518.077	1.18
518.426	1.25
518.774	1.18
519.122	1.2
519.47	1.19
519.819	1.19
520.167	1.19
520.515	1.2
520.863	1.08
521.211	1.15
521.559	1.11
521.907	1.19
522.255	1.13
522.602	1.25
522.95	1.31
523.298	1.28
523.645	1.31
523.993	1.24
524.341	1.3
524.688	1.2
525.036	1.23
525.383	1.32
525.73	1.17
526.078	1.28
526.425	1.19
526.772	1.19
527.119	1.24
527.466	1.2
527.814	1.26
528.161	1.28
528.508	1.28
528.854	1.18
529.201	1.17
529.548	1.21
529.895	1.15
530.242	1.15
530.588	1.13
530.935	1.16
531.282	1.16
531.628	1.2
531.975	1.2
532.321	1.21
532.667	1.25
533.014	1.25
533.36	1.22
533.706	1.21
534.052	1.27
534.399	1.19
534.745	1.23
535.091	1.18
535.437	1.2
535.783	1.22
536.129	1.13
536.474	1.28
536.82	1.29
537.166	1.04
537.512	1.2
537.857	1.29
538.203	1.13
538.549	1.19
538.894	1.2
539.239	1.23
539.585	1.3
539.93	1.38
540.276	1.24
540.621	1.35
540.966	1.2
541.311	1.3
541.656	1.2
542.001	1.26
542.346	1.2
542.691	1.15
543.036	1.2
543.381	1.21
543.726	1.21
544.071	1.19
544.415	1.25
544.76	1.21
545.105	1.19
545.449	1.26
545.794	1.32
546.138	1.2
546.483	1.23
546.827	1.22
547.171	1.23
547.516	1.27
547.86	1.37
548.204	1.27
548.548	1.26
548.892	1.27
549.236	1.21
549.58	1.26
549.924	1.29
550.268	1.39
550.612	1.26
550.956	1.3
551.3	1.46
551.643	1.28
551.987	1.48
552.33	1.38
552.674	1.27
553.017	1.31
553.361	1.19
553.704	1.14
554.048	1.24
554.391	1.51
554.734	1.23
555.077	1.38
555.42	1.24
555.764	1.2
556.107	1.38
556.45	1.33
556.793	1.38
557.135	1.28
557.478	1.29
557.821	1.36
558.164	1.26
558.507	1.31
558.849	1.49
559.192	1.25
559.534	1.26
559.877	1.14
560.219	1.28
560.562	1.19
560.904	1.49
561.246	1.14
561.589	1.51
561.931	1.31
562.273	1.31
562.615	1.16
562.957	1.18
563.299	1.32
563.641	1.33
563.983	1.1
564.325	1.32
564.667	1.16
565.008	1.18
565.35	1.21
565.692	1.38
566.033	1.32
566.375	1.39
566.716	1.18
567.058	1.2
567.399	1.25
567.741	1.3
568.082	1.38
568.423	1.18
568.764	1.33
569.105	1.42
569.447	1.08
569.788	1.31
570.129	1.29
570.47	1.27
570.811	1.3
571.151	1.18
571.492	1.31
571.833	1.22
572.174	1.38
572.514	1.2
572.855	1.42
573.195	1.25
573.536	1.31
573.876	1.25
574.217	1.21
574.557	1.18
574.898	1.28
575.238	1.39
575.578	1.41
575.918	1.32
576.258	1.53
576.598	1.3
576.938	1.24
577.278	1.24
577.618	1.24
577.958	1.38
578.298	1.35
578.638	1.43
578.977	1.34
579.317	1.44
579.657	1.26
579.996	1.52
580.336	1.25
580.675	1.21
581.014	1.31
581.354	1.23
581.693	1.45
582.032	1.43
582.372	1.45
582.711	1.4
583.05	1.43
583.389	1.32
583.728	1.61
584.067	1.12
584.406	1.53
584.745	1.26
585.083	1.38
585.422	1.44
585.761	1.46
586.1	1.42
586.438	1.35
586.777	1.44
587.115	1.34
587.454	1.2
587.792	1.23
588.13	1.22
588.469	1.29
588.807	1.25
589.145	1.29
589.483	1.03
589.821	1.29
590.159	1.53
590.497	1.29
590.835	1.58
591.173	1.61
591.511	1.57
591.849	1.43
592.187	1.25
592.524	1.39
592.862	1.17
593.2	1.39
593.537	1.39
593.875	1.3
594.212	1.32
594.55	1.49
594.887	1.68
595.224	1.36
595.561	1.42
595.899	1.23
596.236	1.52
596.573	1.32
596.91	1.3
597.247	1.34
597.584	1.42
597.921	1.46
598.258	1.47
598.594	1.26
598.931	1.11
599.268	1.23
599.604	1.37
599.941	1.4
600.277	1.35
600.614	1.41
600.95	1.32
601.287	1.04
601.623	1.18
601.959	1.7
602.296	1.52
602.632	1.45
602.968	1.32
603.304	1.33
603.64	1.46
603.976	1.35
604.312	1.12
604.648	1.45
604.984	1.51
605.319	1.36
605.655	1.26
605.991	1.17
606.326	1.41
606.662	1.07
606.998	1.45
607.333	1.3
607.668	1.26
608.004	1.25
608.339	1.31
608.674	1.51
609.01	1.64
609.345	1.29
609.68	1.33
610.015	1.44
610.35	1.3
610.685	1.13
611.02	1.4
611.355	1.3
611.689	1.24
612.024	1.5
612.359	1.29
612.694	1.64
613.028	1.18
613.363	1.34
613.697	1.28
614.032	1.3
614.366	1.18
614.7	1.39
615.035	1.51
615.369	1.54
615.703	1.66
616.037	1.36
616.371	1.01
616.705	1.35
617.039	1.2
617.373	1.55
617.707	1.24
618.041	1.4
618.375	0.9
618.709	1.54
619.042	1.38
619.376	1.33
619.71	1.31
620.043	1.66
620.377	1.37
620.71	1.56
621.043	1.45
621.377	1.46
621.71	1.52
622.043	1.33
622.376	1.21
622.709	1.88
623.043	1.5
623.376	1.44
623.709	1.57
624.041	1.21
624.374	1.75
624.707	1.43
625.04	0.95
625.373	1.78
625.705	1.62
626.038	1.43
626.37	1
626.703	1.44
627.035	1.43
627.368	1.84
627.7	1.36
628.032	1.24
628.365	1.7
628.697	1.68
629.029	1.46
629.361	1.51
629.693	1.45
630.025	1.46
630.357	1.36
630.689	1.27
631.021	1.61
631.353	1.57
631.684	1.16
632.016	1.29
632.348	1.13
632.679	1.44
633.011	1.16
633.342	1.04
633.674	1.32
634.005	1.57
634.336	1.74
634.668	1.39
634.999	1.34
635.33	1.42
635.661	1.24
635.992	1.63
636.323	1.56
636.654	1.46
636.985	1.12
637.316	1.25
637.647	1.45
637.977	1.34
638.308	1.66
638.639	1.39
638.969	0.74
639.3	1.35
639.63	1.5
639.961	1.37
640.291	1.3
640.622	1.57
640.952	1.54
641.282	0.97
641.612	1.27
641.943	1.33
642.273	1.21
642.603	1.35
642.933	1.62
643.263	1.31
643.592	1.58
643.922	1.73
644.252	1.34
644.582	1.67
644.911	1.33
645.241	1.34
645.571	1.39
645.9	1.55
646.23	1.73
646.559	1.16
646.888	1.48
647.218	1.4
647.547	1.27
647.876	1.14
648.205	1.44
648.534	1.49
648.863	1.25
649.192	1.69
649.521	1.49
649.85	1.49
650.179	1.84
650.508	0.97
650.837	1.5
651.165	1.29
651.494	1.34
651.822	1.74
652.151	0.98
652.479	1.61
652.808	1.53
653.136	1.31
653.465	1.14
653.793	1.88
654.121	1.22
654.449	1.1
654.777	0.95
655.105	1
655.433	1.76
655.761	1.09
656.089	1.37
656.417	1.93
656.745	1.82
657.073	1.32
657.4	1.02
657.728	0.94
658.056	1.37
658.383	1.65
658.711	1.59
659.038	1.4
659.365	1.55
659.693	1.35
660.02	1.29
660.347	1.54
660.674	1.35
661.001	1.31
661.329	1.58
661.656	1
661.982	1.17
662.309	1.24
662.636	1.26
662.963	1.37
663.29	1.24
663.616	0.98
663.943	1.43
664.27	0.95
664.596	1.47
664.923	1.4
665.249	1.48
665.576	1.41
665.902	1.05
666.228	1.36
666.554	1.82
666.881	0.93
667.207	1.78
667.533	1.72
667.859	1.3
668.185	1.74
668.511	1.68
668.837	1.7
669.162	1.73
669.488	0.93
669.814	0.89
670.139	0.79
670.465	1.65
670.791	1.35
671.116	1.41
671.442	1.13
671.767	1.16
672.092	1.07
672.418	1.66
672.743	1.48
673.068	0.8
673.393	1.74
673.718	0.6
674.043	1.56
674.368	0.96
674.693	1.49
675.018	1.81
675.343	1.61
675.667	1.78
675.992	1.54
676.317	0.57
676.641	1.58
676.966	1.51
677.29	1.26
677.615	1.31
677.939	1.45
678.264	0.92
678.588	0.99
678.912	1.56
679.236	0.92
679.56	1.03
679.885	0.71
680.209	1.47
680.532	2.36
680.856	1.87
681.18	2.08
681.504	1.47
681.828	1.12
682.152	1.57
682.475	1.48
682.799	1.37
683.122	1.63
683.446	1.29
683.769	1.75
684.093	1.72
684.416	1.18
684.739	1.4
685.062	1.31
685.386	1.34
685.709	1.71
686.032	1.9
686.355	1.34
686.678	1.4
687.001	1.2
687.324	1.38
687.646	1.49
687.969	1.48
688.292	0.72
688.614	1.53
688.937	1.34
689.26	1.69
689.582	1.74
689.904	1.61
690.227	1.65
690.549	1.64
690.871	1.98
691.194	1.23
691.516	1.52
691.838	1.31
692.16	0.96
692.482	1.09
692.804	1.35
693.126	0.79
693.448	1.91
693.769	1.39
694.091	0.95
694.413	1.06
694.735	1.36
695.056	1.03
695.378	0.76
695.699	1.73
696.021	1.58
696.342	1.59
696.663	2.38
696.984	0.74
697.306	1.3
697.627	1.91
697.948	1.29
698.269	1.35
698.59	1.47
698.911	1.06
699.232	1.32
699.553	1.94
699.873	1.72
700.194	1.42
700.515	1.39
700.835	1.52
701.156	1.85
701.477	1.45
701.797	1.14
702.117	0.76
702.438	1.58
702.758	1.19
703.078	1.18
703.398	0.74
703.719	2.69
704.039	1.48
704.359	1.23
704.679	0.96
704.999	1.64
705.319	1.13
705.638	0.82
705.958	1.18
706.278	1.28
706.597	1.64
706.917	1.37
707.237	1.7
707.556	1.36
707.876	1.57
708.195	2.28
708.514	0.9
708.834	0.78
709.153	1.14
709.472	1.81
709.791	1.35
710.11	1.25
710.429	1.08
710.748	2.49
711.067	1.55
711.386	1.95
711.705	1.57
712.023	2.23
712.342	1.38
712.661	2.07
712.979	1.33
713.298	1.05
713.616	1.68
713.935	1.33
714.253	1.28
714.572	1.44
714.89	0.82
715.208	1.04
715.526	1.23
715.844	1.59
716.162	1.69
716.48	1.47
716.798	1.57
717.116	0.91
717.434	1.2
717.752	1.49
718.069	1.49
718.387	2.16
718.705	1.88
719.022	0.82
719.34	0.93
719.657	1.49
719.975	0.83
720.292	0.94
720.609	0.05
720.927	1.5
721.244	1.42
721.561	-0.31
721.878	2.29
722.195	1.85
722.512	1.55
722.829	0.39
723.146	1.32
723.463	0.91
723.779	-0.24
724.096	0.35
724.413	2.08
724.729	1.48
725.046	1.29
725.362	1.6
725.679	1.06
725.995	0.7
726.311	1.54
726.628	1.91
726.944	2.05
727.26	1.21
727.576	1.75
727.892	1.52
728.208	0.25
728.524	-0.21
728.84	-0.15
729.156	0.74
729.472	-0.24
729.787	1.35
730.103	1.16
730.419	0.19
730.734	0.69
731.05	0.25
731.365	2.1
731.681	2.01
731.996	2.43
732.311	0.36
732.626	1.1
732.942	0.86
733.257	1.08
733.572	1.37
733.887	1.63
734.202	1.5
734.517	1.47
734.832	0.75
735.146	1.25
735.461	1.42
735.776	2.64
736.091	1.95
736.405	1.2
736.72	0.71
737.034	1.33
737.349	2.3
737.663	2.51
737.977	2.53
738.292	-0.4
738.606	1.97
738.92	2.2
739.234	1.16
739.548	2.38
739.862	0.78
740.176	1.92
740.49	0.9
740.804	1.3
741.117	1.29
741.431	0.99
741.745	0.55
742.058	1.18
742.372	0.32
742.685	2.16
742.999	0.26
743.312	2.51
743.626	2.87
743.939	0.08
744.252	-0.14
744.565	1.83
744.878	1.48
745.191	2.27
745.505	-0.63
745.817	0.27
746.13	1.31
746.443	0.52
746.756	2.05
747.069	0.81
747.381	-0.14
747.694	1.27
748.007	0.47
748.319	1.07
748.632	1.1
748.944	-0.39
749.256	1.18
749.569	1.89
749.881	1.59
750.193	0.39
750.505	1.51
750.817	0.94
751.129	1.82
751.441	1.74
751.753	2.03
752.065	1.25
752.377	1.33
752.689	0.23
753	2.88
753.312	1.03
753.624	-1.04
753.935	1.05
754.247	1.67
754.558	0.68
754.869	1.67
755.181	1.59
755.492	-0.37
755.803	2.59
756.114	1
756.425	-1.1
756.736	2.34
757.047	0.72
757.358	1.22
757.669	1.82
757.98	1.63
758.291	1.3
758.601	1.87
758.912	1.91
759.223	0.35
759.533	2.2
759.844	-0.39
760.154	0.82
760.464	2.14
760.775	2.54
761.085	1.86
761.395	0.35
761.705	0.74
762.016	1.56
762.326	2.26
762.636	2.41
762.945	0.08
763.255	0.11
763.565	1
763.875	2.47
764.185	1.83
764.494	-1.38
764.804	0.57
765.113	1.78
765.423	2.24
765.732	1.83
766.042	2.44
766.351	2.21
766.66	1.46
766.97	1.3
767.279	1.08
767.588	-0.83
767.897	0.41
768.206	1.67
768.515	1.73
768.824	1.04
769.133	-1.56
769.441	0.12
769.75	0.17
770.059	0.67
770.367	2.76
770.676	-0.12
770.984	1.36
771.293	2.44
771.601	-0.58
771.91	-1.1
772.218	1.13
772.526	-1.43
772.834	-0.11
773.142	0.07
773.45	1.67
773.758	0.62
774.066	1.81
774.374	5.26
774.682	2.29
774.99	-1.55
775.298	-0.61
775.605	-0.42
775.913	-0.38
776.22	-1.07
776.528	0.45
776.835	1.57
777.143	3.93
777.45	-1.53
777.757	3.34
778.065	-0.91
778.372	-1.87
778.679	2.31
778.986	3.05
779.293	-1.35
779.6	-0.84
779.907	5.31
780.214	0.26
780.52	0.08
780.827	0.21
781.134	2.59
781.44	1.18
781.747	0.08
782.053	-1.14
782.36	0.94
782.666	-1.59
782.973	-0.12
783.279	0.74
783.585	4.02
783.891	5.07
784.197	-0.85
784.503	-1.53
784.809	2.79
785.115	1.19
785.421	4.37
785.727	2.35
786.033	0.91
786.339	2.7
786.644	-1.16
786.95	-3.4
787.255	-4.51
787.561	1.66
787.866	3.04
788.172	3.27
788.477	1.4
788.782	0.47
789.088	-2.08
789.393	0.91
789.698	-2.31
790.003	-0.17
790.308	-1.61
790.613	0.7
790.918	-1.97
791.223	1.85
791.527	3.74
791.832	4.47
792.137	2.28
792.441	1.13
792.746	-0.04
793.05	-1.3
793.355	-0.84
793.659	3.13
793.963	-3.67
794.268	3.38
794.572	-0.33
794.876	-1.12
795.18	-0.89
795.484	2.03
795.788	3.99
796.092	-3.13
796.396	-1.95
796.7	-0.1
797.004	-3.96
797.307	-0.58
797.611	2.34
797.915	-0.66
798.218	2.33
798.522	-2.9
798.825	2.4
799.128	2.71
799.432	-4.59
799.735	-5.17
800.038	2.09
800.341	2.28
800.644	-3.74
800.947	0.67
801.25	-0.47
801.553	1.35
801.856	1.59
802.159	0.64
802.462	2.21
802.764	-0.29
803.067	1.07
803.37	0.78
803.672	0.45
803.975	-1.46
804.277	-1.6
804.579	-1.57
804.882	-2.57
805.184	2.14
805.486	3.31
805.788	6.82
806.09	-4.57
806.392	-3.02
806.694	0.61
806.996	5.57
807.298	-0.26
807.6	0.63
807.902	-1.38
808.203	-2.12
808.505	-3.97
808.807	5.99
809.108	-2.59
809.409	1.45
809.711	-3.65
810.012	-0.29
810.313	-1.65
810.615	3.61
810.916	2.38
811.217	-3.03
811.518	-7.25
811.819	-0.9
812.12	1
812.421	-6.34
812.722	-3.33
813.023	0.27
813.323	-1.57
813.624	2.38
813.925	-2.61
814.225	0.29
814.526	-10.29
814.826	-2.9
815.126	5.39
815.427	-6.66
815.727	-1.57
816.027	2.96
816.327	6.11
816.627	-1.86
816.927	3.47
817.227	1.17
817.527	2.1
817.827	0.26
818.127	-3.82
818.427	-2.81
818.727	-5.27
819.026	-0.48
819.326	-2.75
819.625	-7.44
819.925	8.89
820.224	4.95
820.524	-1.51
820.823	0.65
821.122	-5.2
821.421	-0.85
821.72	1.55
822.019	-5.93
822.318	2.33
822.617	1.84
822.916	-2.43
823.215	0.3
823.514	2.22
823.813	0.19
824.111	-0.4
824.41	1.16
824.709	1.65
825.007	2.12
825.306	2.45
825.604	2.42
825.902	2.41
826.201	1.64
826.499	1.67
826.797	1.79
827.095	3.31
827.393	5.56
827.691	4.92
827.989	2.8
828.287	1.71
828.585	0.73
828.882	0.13
829.18	0.23
829.478	2.05
829.775	2.08
830.073	3.86
830.37	1.74
830.668	2.05
830.965	3.17
831.263	1.43
831.56	2.98
831.857	2.22
832.154	0
832.451	3.95
832.748	1.43
833.045	3.11
833.342	1.63
833.639	1.25
833.936	0.52
834.232	-0.53
834.529	-2.94
834.826	3.55
835.122	-2.98
835.419	4.39
835.715	0.34
836.012	-0.83
836.308	2.77
836.604	-0.36
836.901	0.28
837.197	2.96
837.493	3.56
837.789	2.14
838.085	-3.62
838.381	-1.24
838.677	0.03
838.972	1.96
839.268	1.82
839.564	1.05
839.86	-7.75
840.155	7.25
840.451	1.05
840.746	-1.01
841.042	-0.37
841.337	0.3
841.632	0.37
841.928	-6.66
842.223	-3.59
842.518	-3.56
842.813	-1.34
843.108	-6.22
843.403	-1.95
843.698	2.78
843.993	3.47
844.287	-11.13
844.582	1.81
844.877	1.58
845.171	9.73
845.466	-3.77
845.761	-1.68
846.055	3.54
846.349	-4.35
846.644	-5.09
846.938	1
847.232	7.07
847.526	12.91
847.82	-0.31
848.114	-2.88
848.408	-7.37
848.702	7.37
848.996	-18.12
849.29	9.58
849.584	-9.99
849.877	0.36
850.171	-1.85
850.465	0.12
850.758	-12.67
851.052	-22.94
851.345	-6.11
851.638	-13.38
851.932	-6.3
852.225	4.69
852.518	-5.5
852.811	-24.39
853.104	-11.11
853.397	1.54
853.69	3.2
853.983	-2.54
854.276	15.79
854.569	-24.69
854.861	-16.7
855.154	13.18
855.447	-8.19
855.739	-40.68
856.032	-1.28
856.324	5.6
856.616	5.6
856.909	-24.53
857.201	-14.46
857.493	-24.65
857.785	-14.11
858.077	-9.76
858.369	-2.02
858.661	-7.78
858.953	1.76
859.245	-2.93
859.537	-35.66
859.829	-26.7
860.12	-20.56
860.412	-8.13
860.703	-6.76
860.995	9.78
861.286	-34.06
861.578	2.87
861.869	-8.83
862.16	-14.3
862.452	-17.14
862.743	-27.29
863.034	8.36
863.325	0.87
863.616	16.78
863.907	10.48
864.198	-33.71
864.488	-12.89
864.779	-22.31
865.07	-13.75
865.36	14.99
865.651	16.42
865.941	8.95
866.232	-5.04
866.522	-29.5
866.813	-1.04
867.103	-13.7
867.393	-8.44
867.683	-5.67
867.973	8.09
868.263	-14.92
868.553	0.94
868.843	-14.26
869.133	-3.32
869.423	2.65
869.713	-29.34
870.002	-1.54
870.292	-21.34
870.582	-17.12
870.871	-6.29
871.161	-18.61
871.45	-20.68
871.739	13.47
872.029	-34.34
872.318	4.49
872.607	1.34
872.896	-28.2
873.185	-0.93
873.474	-36.97
873.763	32.43
874.052	-2.59
874.341	-12.43
874.63	-1.34
874.918	1.04
875.207	-14.79
875.496	5.47
875.784	12.48
876.073	-33.59
876.361	6.67
876.649	-28.33
876.938	-2.48
877.226	-10.75
877.514	13.57
877.802	-41.37
878.09	0.92
878.378	18.95
878.666	2.52
878.954	-0.74
879.242	13.09
879.53	-0.3
879.817	-45.22
880.105	15.76
880.392	-27.54
880.68	-1.18
880.967	-24.14
881.255	23.8
881.542	-33.72
881.83	-5.36
882.117	3.02
882.404	-17.73
882.691	-7.94
882.978	-7.92
883.265	5.42
883.552	-0.49
883.839	-5.45
884.126	-13.3
884.413	3.93
884.699	-1.27
884.986	2.21
885.273	5.4
885.559	5.4
885.846	5.4
