Data from 1844-1_chest_Reflection__4__110.txt Node

Date: Fri Sep 30 18:38:55 CDT 2022
User: ToomeyLab
Spectrometer: FLMS14357
Trigger mode: 0
Integration Time (sec): 1.000000E-2
Scans to average: 100
Electric dark correction enabled: true
Nonlinearity correction enabled: false
Boxcar width: 0
XAxis mode: Wavelengths
Number of Pixels in Spectrum: 2048
>>>>>Begin Spectral Data<<<<<
189.047	113.53
189.435	113.53
189.823	113.53
190.211	-73.98
190.599	-710.24
190.987	153
191.375	102.84
191.763	-362.86
192.151	12.39
192.538	6.04
192.926	181.06
193.314	25.61
193.702	85.51
194.089	-247.78
194.477	-3086.53
194.864	44.88
195.252	65.52
195.639	20.04
196.027	-462.1
196.414	19.77
196.801	64
197.189	-18.33
197.576	295.3
197.963	-7.43
198.351	1.52
198.738	-40.25
199.125	62.69
199.512	47.69
199.899	-20.62
200.286	-1.68
200.673	32.08
201.06	33.85
201.447	9.62
201.833	55.49
202.22	4.71
202.607	9.58
202.994	35.95
203.38	24.95
203.767	16.02
204.154	26.76
204.54	31.02
204.927	62.91
205.313	-8.07
205.699	24.34
206.086	-32.57
206.472	39.08
206.858	23.93
207.245	40.01
207.631	22.45
208.017	-18.94
208.403	20.13
208.789	8.46
209.175	25.42
209.561	-3.42
209.947	11.38
210.333	5.2
210.719	-8.17
211.105	-37.65
211.491	17.03
211.876	5.49
212.262	24.77
212.648	14.47
213.034	6.23
213.419	34.08
213.805	19.28
214.19	6.72
214.576	34.5
214.961	21.12
215.346	50.6
215.732	29.86
216.117	31.87
216.502	25.84
216.888	4.78
217.273	35.93
217.658	38.63
218.043	22.6
218.428	12.31
218.813	32.67
219.198	-2.25
219.583	26.91
219.968	17.51
220.353	18.18
220.738	23.32
221.122	20.63
221.507	25.72
221.892	18.51
222.276	-2.28
222.661	13.26
223.046	-3.74
223.43	-4.79
223.815	15.8
224.199	10.04
224.583	4.94
224.968	8.2
225.352	6.29
225.736	9.83
226.121	11.67
226.505	4.77
226.889	3.34
227.273	-0.75
227.657	6.15
228.041	4.01
228.425	9.52
228.809	7.42
229.193	8.45
229.577	1.28
229.961	5.03
230.344	4.41
230.728	4.54
231.112	4.07
231.495	3.11
231.879	6.68
232.263	5.16
232.646	4.37
233.03	5.75
233.413	4.73
233.797	3.66
234.18	4.43
234.563	3.91
234.946	4.19
235.33	3.36
235.713	5.76
236.096	3.65
236.479	5.54
236.862	3.67
237.245	4.56
237.628	4.53
238.011	5.25
238.394	4.55
238.777	2.33
239.16	4.51
239.543	6.41
239.925	3.53
240.308	3.89
240.691	5.48
241.073	5.32
241.456	3.68
241.838	4.88
242.221	4.96
242.603	5.51
242.986	4.48
243.368	3.89
243.75	4.01
244.133	4.58
244.515	3.81
244.897	3.88
245.279	4.73
245.661	4.09
246.043	3.95
246.425	3.58
246.807	4.83
247.189	4.5
247.571	4.59
247.953	4.1
248.335	3.67
248.717	3.86
249.098	3.99
249.48	3.91
249.862	4.02
250.243	3.83
250.625	3.86
251.006	4.33
251.388	3.23
251.769	4.34
252.151	4.21
252.532	4.25
252.913	4.51
253.295	4.34
253.676	3.92
254.057	3.75
254.438	3.72
254.819	4.22
255.2	4.03
255.581	5.27
255.962	4.71
256.343	3.98
256.724	4.31
257.105	4.44
257.486	4.18
257.867	4.97
258.247	3.74
258.628	4.15
259.009	4.43
259.389	3.59
259.77	3.76
260.15	3.54
260.531	3.98
260.911	3.89
261.292	3.68
261.672	3.43
262.052	3.53
262.432	3.71
262.813	4.41
263.193	3.32
263.573	3.91
263.953	3.81
264.333	4.42
264.713	2.97
265.093	3.45
265.473	3.45
265.853	3.93
266.233	2.82
266.612	3.75
266.992	2.97
267.372	3.22
267.752	3.2
268.131	3.48
268.511	3.16
268.89	2.87
269.27	3.67
269.649	3.28
270.029	3.78
270.408	3.23
270.787	3.59
271.167	3.59
271.546	3.22
271.925	3.77
272.304	3.53
272.683	3.49
273.062	3.26
273.441	3.05
273.82	3.02
274.199	3.93
274.578	3.58
274.957	3.44
275.336	3.52
275.715	3.96
276.093	3.86
276.472	3.53
276.851	3.08
277.229	2.89
277.608	3.82
277.986	3.5
278.365	3.8
278.743	3.2
279.122	3.72
279.5	3.78
279.878	3.26
280.257	3.36
280.635	3.69
281.013	3.93
281.391	3.34
281.769	3.71
282.147	3.77
282.525	3.66
282.903	3.49
283.281	3
283.659	3.46
284.037	3.41
284.415	4.36
284.792	3.78
285.17	2.66
285.548	3.68
285.925	3.62
286.303	3.29
286.68	3.43
287.058	3.26
287.435	3.33
287.813	3.19
288.19	3.23
288.567	3.4
288.945	2.73
289.322	3.01
289.699	3.75
290.076	3.17
290.453	3.35
290.83	3.63
291.207	3.58
291.584	2.93
291.961	3.46
292.338	3.53
292.715	3.45
293.092	3.2
293.469	3.5
293.845	3.99
294.222	3.66
294.599	4.09
294.975	3.92
295.352	3.42
295.728	3.77
296.105	3.26
296.481	3.64
296.858	3.7
297.234	4.06
297.61	3.29
297.986	3.25
298.363	3.61
298.739	3.11
299.115	3.07
299.491	3.52
299.867	3.58
300.243	3.08
300.619	3.38
300.995	3.97
301.371	3.71
301.746	3.41
302.122	3.73
302.498	3.7
302.874	3.81
303.249	3.61
303.625	3.49
304	4.04
304.376	3.6
304.751	3.65
305.127	3.39
305.502	3.83
305.878	3.73
306.253	3.46
306.628	3.6
307.003	3.71
307.378	3.83
307.754	3.53
308.129	3.97
308.504	3.13
308.879	4.39
309.254	3.76
309.629	3.55
310.003	3.21
310.378	3.36
310.753	3.56
311.128	3.53
311.502	3.98
311.877	3.82
312.252	3.92
312.626	3.84
313.001	3.48
313.375	3.56
313.75	3.98
314.124	3.72
314.498	3.39
314.873	3.71
315.247	3.68
315.621	3.92
315.995	4.01
316.369	3.18
316.743	3.79
317.117	4.44
317.491	4.57
317.865	4.58
318.239	4.28
318.613	4.16
318.987	3.65
319.361	3.85
319.734	3.59
320.108	4.09
320.482	3.48
320.855	3.37
321.229	4.29
321.602	3.64
321.976	3.64
322.349	3.73
322.723	3.87
323.096	4.59
323.469	3.84
323.843	4.11
324.216	3.7
324.589	4.39
324.962	4.22
325.335	4.11
325.708	3.75
326.081	4.46
326.454	4.05
326.827	3.65
327.2	3.58
327.573	3.47
327.945	3.79
328.318	3.75
328.691	4.06
329.063	4.1
329.436	3.94
329.809	4.47
330.181	3.84
330.553	3.53
330.926	3.99
331.298	3.88
331.671	4.04
332.043	3.46
332.415	3.51
332.787	4.03
333.159	3.89
333.532	3.88
333.904	3.85
334.276	4.64
334.648	4.08
335.02	4.12
335.391	4.64
335.763	3.54
336.135	4.44
336.507	4.1
336.879	3.71
337.25	3.77
337.622	4.15
337.993	3.66
338.365	3.89
338.736	3.92
339.108	3.96
339.479	4.06
339.851	4.25
340.222	4.14
340.593	3.98
340.964	3.28
341.336	3.41
341.707	3.5
342.078	4.04
342.449	3.84
342.82	3.61
343.191	3.58
343.562	4
343.933	3.96
344.303	4.1
344.674	3.84
345.045	3.76
345.416	4.24
345.786	4.22
346.157	4.3
346.527	3.64
346.898	3.9
347.268	3.61
347.639	3.95
348.009	3.65
348.38	4.33
348.75	4.49
349.12	3.94
349.49	4.1
349.861	3.6
350.231	4.03
350.601	4.11
350.971	3.49
351.341	3.93
351.711	3.59
352.081	4.02
352.45	4.01
352.82	4.07
353.19	4.24
353.56	3.94
353.929	3.68
354.299	4.27
354.669	3.82
355.038	4.12
355.408	4.05
355.777	3.75
356.147	3.95
356.516	4.4
356.885	3.68
357.254	4.5
357.624	4.17
357.993	3.71
358.362	4.08
358.731	3.74
359.1	3.6
359.469	3.74
359.838	4.16
360.207	3.9
360.576	3.72
360.945	3.72
361.314	4.1
361.682	3.98
362.051	3.99
362.42	3.97
362.788	3.84
363.157	3.78
363.525	3.67
363.894	3.95
364.262	4.03
364.631	3.93
364.999	4.1
365.367	4.33
365.735	3.91
366.104	3.56
366.472	3.93
366.84	4.13
367.208	4.08
367.576	4.45
367.944	3.93
368.312	3.9
368.68	3.83
369.048	3.64
369.416	4.16
369.783	3.88
370.151	4.05
370.519	4.24
370.886	4.16
371.254	4.1
371.621	4.49
371.989	4.05
372.356	3.99
372.724	4.02
373.091	3.93
373.458	3.8
373.826	4.14
374.193	4.2
374.56	4.32
374.927	4.29
375.294	4.34
375.661	3.74
376.028	4.1
376.395	4.32
376.762	4.05
377.129	4.27
377.496	4.11
377.863	4.13
378.229	4.32
378.596	4.22
378.963	4.12
379.329	3.75
379.696	4.07
380.062	4.17
380.429	4.14
380.795	3.9
381.161	3.98
381.528	4.18
381.894	3.92
382.26	4.19
382.626	4.12
382.993	4.21
383.359	4.15
383.725	3.75
384.091	4.12
384.457	4.23
384.823	4.22
385.188	4.2
385.554	4.1
385.92	4.15
386.286	4.34
386.651	4.41
387.017	3.88
387.383	4
387.748	3.69
388.114	4.27
388.479	3.99
388.845	3.95
389.21	4.18
389.575	3.94
389.94	4.34
390.306	4.18
390.671	3.96
391.036	4.33
391.401	3.86
391.766	4.08
392.131	4.12
392.496	4.21
392.861	4.07
393.226	4.02
393.591	4.1
393.956	4.45
394.32	4.08
394.685	4.04
395.05	4.44
395.414	4.18
395.779	4.27
396.143	4.43
396.508	4.23
396.872	4.2
397.236	4.29
397.601	4.32
397.965	4.23
398.329	4.12
398.694	4.33
399.058	4.15
399.422	4.61
399.786	4.15
400.15	4.12
400.514	4.09
400.878	4.32
401.242	3.88
401.605	4.28
401.969	4.1
402.333	4.42
402.697	4.48
403.06	4.16
403.424	4.34
403.787	4.49
404.151	4.5
404.514	4.4
404.878	4.33
405.241	4.28
405.604	4.33
405.968	4.31
406.331	4.24
406.694	4.4
407.057	4.25
407.42	4.25
407.783	4.28
408.146	4.19
408.509	4.21
408.872	4.2
409.235	4.43
409.598	4.45
409.961	4.28
410.323	4.55
410.686	4.5
411.049	4.16
411.411	4.18
411.774	4.38
412.136	4.49
412.499	4.37
412.861	4.35
413.223	4
413.586	4.15
413.948	4.48
414.31	4.5
414.672	4.28
415.035	4.53
415.397	4.41
415.759	4.42
416.121	4.26
416.483	4.31
416.845	4.11
417.206	4.34
417.568	4.35
417.93	4.25
418.292	4.21
418.653	4.12
419.015	4.26
419.377	4.29
419.738	4.28
420.1	4.39
420.461	4.26
420.822	4.42
421.184	4.23
421.545	4.07
421.906	4.13
422.267	4.24
422.629	4.25
422.99	4.22
423.351	4.1
423.712	4.15
424.073	4.24
424.434	4.11
424.795	4.16
425.155	4.22
425.516	4.31
425.877	4.34
426.238	4.22
426.598	4.28
426.959	4.18
427.32	4.39
427.68	4.25
428.041	4.23
428.401	4.37
428.761	4.44
429.122	4.36
429.482	4.38
429.842	4.44
430.202	4.45
430.563	4.39
430.923	4.24
431.283	4.46
431.643	4.24
432.003	4.36
432.363	4.46
432.722	4.54
433.082	4.63
433.442	4.41
433.802	4.37
434.161	4.43
434.521	4.5
434.881	4.32
435.24	4.4
435.6	4.4
435.959	4.33
436.319	4.43
436.678	4.48
437.037	4.48
437.396	4.34
437.756	4.51
438.115	4.35
438.474	4.59
438.833	4.49
439.192	4.47
439.551	4.41
439.91	4.43
440.269	4.06
440.628	4.43
440.987	4.39
441.345	4.42
441.704	4.49
442.063	4.49
442.421	4.45
442.78	4.39
443.138	4.3
443.497	4.47
443.855	4.46
444.214	4.45
444.572	4.48
444.93	4.39
445.288	4.5
445.647	4.45
446.005	4.54
446.363	4.56
446.721	4.35
447.079	4.44
447.437	4.56
447.795	4.36
448.153	4.37
448.51	4.3
448.868	4.37
449.226	4.41
449.584	4.44
449.941	4.4
450.299	4.43
450.656	4.56
451.014	4.59
451.371	4.57
451.729	4.66
452.086	4.56
452.443	4.64
452.801	4.55
453.158	4.41
453.515	4.45
453.872	4.56
454.229	4.44
454.586	4.59
454.943	4.58
455.3	4.48
455.657	4.69
456.014	4.57
456.371	4.58
456.727	4.51
457.084	4.49
457.441	4.64
457.797	4.65
458.154	4.4
458.51	4.48
458.867	4.63
459.223	4.62
459.58	4.78
459.936	4.81
460.292	4.59
460.648	4.6
461.005	4.58
461.361	4.59
461.717	4.48
462.073	4.51
462.429	4.52
462.785	4.57
463.141	4.57
463.496	4.57
463.852	4.64
464.208	4.63
464.564	4.61
464.919	4.71
465.275	4.77
465.631	4.8
465.986	4.76
466.342	4.87
466.697	4.73
467.052	4.68
467.408	4.84
467.763	4.52
468.118	4.85
468.473	4.74
468.829	4.73
469.184	4.72
469.539	4.77
469.894	4.82
470.249	4.85
470.603	4.87
470.958	4.7
471.313	4.81
471.668	4.77
472.023	4.78
472.377	4.67
472.732	4.78
473.086	4.89
473.441	4.88
473.795	4.8
474.15	4.83
474.504	4.88
474.859	4.89
475.213	4.79
475.567	4.84
475.921	4.77
476.275	4.79
476.63	4.73
476.984	4.89
477.338	4.7
477.692	4.92
478.045	4.95
478.399	4.75
478.753	4.81
479.107	4.76
479.461	4.79
479.814	4.72
480.168	4.91
480.521	4.7
480.875	5
481.228	4.8
481.582	4.92
481.935	4.87
482.289	4.96
482.642	4.76
482.995	4.84
483.348	4.88
483.701	4.89
484.055	4.78
484.408	4.79
484.761	4.71
485.114	4.63
485.466	4.61
485.819	4.55
486.172	4.57
486.525	4.61
486.878	4.6
487.23	4.7
487.583	4.69
487.936	4.83
488.288	4.82
488.641	4.75
488.993	4.72
489.345	4.67
489.698	4.64
490.05	4.71
490.402	4.76
490.754	4.78
491.107	4.8
491.459	4.81
491.811	4.89
492.163	4.96
492.515	4.88
492.866	4.88
493.218	4.74
493.57	4.75
493.922	4.84
494.274	4.82
494.625	4.93
494.977	4.96
495.328	4.93
495.68	4.89
496.031	5.07
496.383	5.08
496.734	4.94
497.086	5.13
497.437	5.14
497.788	5.08
498.139	4.98
498.49	4.97
498.842	5.04
499.193	5.17
499.544	5.03
499.894	5.08
500.245	5.13
500.596	5.01
500.947	5.09
501.298	5.31
501.648	5.05
501.999	5.03
502.35	5.14
502.7	5.25
503.051	5.3
503.401	5.17
503.752	5.19
504.102	5.18
504.452	5.17
504.803	5.26
505.153	5.28
505.503	5.24
505.853	5.3
506.203	5.04
506.553	5.26
506.903	5.28
507.253	5.34
507.603	5.32
507.953	5.41
508.303	5.42
508.652	5.28
509.002	5.45
509.352	5.37
509.701	5.29
510.051	5.46
510.4	5.32
510.75	5.28
511.099	5.3
511.449	5.33
511.798	5.18
512.147	5.26
512.496	5.35
512.846	5.33
513.195	5.48
513.544	5.46
513.893	5.46
514.242	5.31
514.591	5.48
514.939	5.35
515.288	5.36
515.637	5.36
515.986	5.48
516.334	5.34
516.683	5.4
517.032	5.41
517.38	5.45
517.729	5.53
518.077	5.5
518.426	5.61
518.774	5.59
519.122	5.35
519.47	5.52
519.819	5.56
520.167	5.51
520.515	5.47
520.863	5.54
521.211	5.45
521.559	5.5
521.907	5.58
522.255	5.44
522.602	5.63
522.95	5.6
523.298	5.72
523.645	5.69
523.993	5.63
524.341	5.77
524.688	5.67
525.036	5.59
525.383	5.55
525.73	5.65
526.078	5.74
526.425	5.51
526.772	5.65
527.119	5.54
527.466	5.56
527.814	5.58
528.161	5.56
528.508	5.56
528.854	5.61
529.201	5.64
529.548	5.63
529.895	5.62
530.242	5.6
530.588	5.59
530.935	5.58
531.282	5.58
531.628	5.59
531.975	5.6
532.321	5.61
532.667	5.78
533.014	5.71
533.36	5.81
533.706	5.83
534.052	5.74
534.399	5.8
534.745	5.81
535.091	5.77
535.437	5.8
535.783	5.73
536.129	5.82
536.474	5.73
536.82	5.85
537.166	5.89
537.512	6.06
537.857	6.1
538.203	6.05
538.549	5.92
538.894	5.98
539.239	6.02
539.585	5.94
539.93	5.96
540.276	6.11
540.621	6.24
540.966	6.19
541.311	6.16
541.656	6.2
542.001	6.27
542.346	6.17
542.691	6.07
543.036	6.03
543.381	6.07
543.726	6.03
544.071	6.11
544.415	6.03
544.76	6.07
545.105	6.17
545.449	6.21
545.794	6.2
546.138	6.34
546.483	6.38
546.827	6.33
547.171	6.46
547.516	6.41
547.86	6.36
548.204	6.38
548.548	6.41
548.892	6.41
549.236	6.44
549.58	6.56
549.924	6.47
550.268	6.66
550.612	6.71
550.956	6.72
551.3	6.59
551.643	6.79
551.987	6.54
552.33	6.85
552.674	6.7
553.017	6.81
553.361	6.59
553.704	6.72
554.048	6.77
554.391	6.98
554.734	6.76
555.077	6.77
555.42	6.93
555.764	6.95
556.107	6.87
556.45	6.82
556.793	6.76
557.135	7.06
557.478	7.15
557.821	6.94
558.164	7.21
558.507	7.12
558.849	7.09
559.192	7.06
559.534	7.09
559.877	7.07
560.219	6.97
560.562	7.31
560.904	7.12
561.246	7.16
561.589	7.17
561.931	7.23
562.273	7.34
562.615	7.45
562.957	7.22
563.299	7.23
563.641	7.26
563.983	7.22
564.325	7.35
564.667	7.45
565.008	7.28
565.35	7.45
565.692	7.45
566.033	7.4
566.375	7.29
566.716	7.62
567.058	7.5
567.399	7.41
567.741	7.44
568.082	7.61
568.423	7.66
568.764	7.72
569.105	7.6
569.447	7.5
569.788	7.88
570.129	7.67
570.47	7.77
570.811	7.64
571.151	7.87
571.492	7.88
571.833	7.72
572.174	7.5
572.514	7.93
572.855	7.67
573.195	7.83
573.536	7.88
573.876	7.94
574.217	7.74
574.557	8.01
574.898	7.97
575.238	8.08
575.578	8.05
575.918	7.9
576.258	8.03
576.598	7.99
576.938	8.07
577.278	8.25
577.618	8.38
577.958	7.98
578.298	8.14
578.638	8.29
578.977	8.4
579.317	8.14
579.657	8.34
579.996	8.03
580.336	8.47
580.675	8.41
581.014	8.38
581.354	8.48
581.693	8.62
582.032	8.45
582.372	8.54
582.711	8.53
583.05	8.71
583.389	8.51
583.728	8.67
584.067	8.71
584.406	8.75
584.745	8.79
585.083	8.62
585.422	8.9
585.761	8.59
586.1	8.86
586.438	9.01
586.777	9.02
587.115	8.89
587.454	8.84
587.792	8.73
588.13	8.91
588.469	9.05
588.807	9.21
589.145	8.8
589.483	9.29
589.821	9.02
590.159	9.23
590.497	9.11
590.835	9.23
591.173	9.05
591.511	9.02
591.849	9.33
592.187	9.22
592.524	9.18
592.862	9.41
593.2	9.5
593.537	9.39
593.875	9.48
594.212	9.23
594.55	9.4
594.887	9.71
595.224	9.45
595.561	9.52
595.899	9.39
596.236	9.67
596.573	9.49
596.91	9.54
597.247	9.47
597.584	9.48
597.921	9.62
598.258	9.62
598.594	9.74
598.931	9.74
599.268	9.71
599.604	9.77
599.941	9.75
600.277	9.74
600.614	9.98
600.95	10.02
601.287	9.96
601.623	9.94
601.959	10.01
602.296	10.35
602.632	9.85
602.968	10.24
603.304	10.04
603.64	10.3
603.976	10.06
604.312	10.2
604.648	10.25
604.984	10.36
605.319	10.49
605.655	10.39
605.991	10.29
606.326	10.33
606.662	10.25
606.998	10.26
607.333	10.22
607.668	10.22
608.004	10.55
608.339	10.57
608.674	10.53
609.01	10.74
609.345	10.37
609.68	10.72
610.015	10.99
610.35	10.44
610.685	10.59
611.02	10.59
611.355	10.64
611.689	10.5
612.024	10.76
612.359	10.83
612.694	10.92
613.028	10.99
613.363	10.95
613.697	11
614.032	10.94
614.366	11.42
614.7	10.78
615.035	11.49
615.369	11.15
615.703	11.28
616.037	11.47
616.371	11.33
616.705	11.13
617.039	11.42
617.373	11.39
617.707	11.42
618.041	11.28
618.375	11.36
618.709	11.38
619.042	11.53
619.376	11.56
619.71	12.08
620.043	11.41
620.377	11.95
620.71	11.69
621.043	11.8
621.377	11.59
621.71	11.6
622.043	11.61
622.376	11.64
622.709	11.77
623.043	11.99
623.376	11.47
623.709	11.99
624.041	12.42
624.374	12.09
624.707	11.4
625.04	12.29
625.373	11.87
625.705	11.82
626.038	12.18
626.37	11.92
626.703	12.55
627.035	12.28
627.368	12.54
627.7	12.38
628.032	12.56
628.365	12.06
628.697	12.52
629.029	12.21
629.361	12.35
629.693	12.49
630.025	12.82
630.357	12.39
630.689	12.57
631.021	12.55
631.353	12.66
631.684	12.59
632.016	12.82
632.348	12.48
632.679	12.6
633.011	12.59
633.342	12.72
633.674	13.38
634.005	13.03
634.336	12.91
634.668	12.96
634.999	13.08
635.33	13.34
635.661	13.05
635.992	12.91
636.323	13.1
636.654	13.17
636.985	13.2
637.316	13.27
637.647	13.02
637.977	13.33
638.308	13.04
638.639	13.41
638.969	13.34
639.3	13.67
639.63	13.23
639.961	13.45
640.291	13.25
640.622	13.84
640.952	13.82
641.282	13.84
641.612	13.93
641.943	13.46
642.273	13.75
642.603	13.84
642.933	13.57
643.263	13.95
643.592	14
643.922	13.65
644.252	14.31
644.582	14.04
644.911	13.99
645.241	14.29
645.571	13.88
645.9	13.73
646.23	13.76
646.559	14.18
646.888	14.45
647.218	14.45
647.547	14.34
647.876	14.28
648.205	14
648.534	14.38
648.863	14.22
649.192	13.78
649.521	14.58
649.85	14.54
650.179	14.69
650.508	14.19
650.837	14.18
651.165	14.3
651.494	15.08
651.822	14.75
652.151	14.87
652.479	15.34
652.808	15.2
653.136	14.76
653.465	14.74
653.793	14.43
654.121	14.6
654.449	14.91
654.777	14.1
655.105	14.54
655.433	15.09
655.761	15.28
656.089	15.38
656.417	14.54
656.745	15.01
657.073	14.81
657.4	15.29
657.728	15.33
658.056	14.71
658.383	15.17
658.711	15.47
659.038	14.89
659.365	15.37
659.693	15.64
660.02	15.64
660.347	15.76
660.674	15.66
661.001	15.74
661.329	15.57
661.656	15.32
661.982	15.7
662.309	15.83
662.636	15.8
662.963	15.63
663.29	15.27
663.616	15.6
663.943	15.73
664.27	15.59
664.596	15.6
664.923	15.69
665.249	16.06
665.576	16.61
665.902	16.3
666.228	16.29
666.554	16.14
666.881	16.17
667.207	16.02
667.533	16.19
667.859	16.71
668.185	16.38
668.511	16.11
668.837	16.36
669.162	16.73
669.488	16.46
669.814	16.46
670.139	15.83
670.465	17.5
670.791	16.54
671.116	16.33
671.442	16.39
671.767	16.79
672.092	16.5
672.418	16.56
672.743	16.36
673.068	17.02
673.393	16.69
673.718	16.51
674.043	17.08
674.368	17.12
674.693	16.49
675.018	16.93
675.343	17.2
675.667	17.38
675.992	16.75
676.317	17.64
676.641	17.02
676.966	17.05
677.29	16.52
677.615	17.16
677.939	17.33
678.264	17.21
678.588	17.29
678.912	17.59
679.236	16.77
679.56	17.52
679.885	17.18
680.209	17.58
680.532	17.71
680.856	17.46
681.18	17.41
681.504	17.42
681.828	17.44
682.152	17.18
682.475	17.79
682.799	17.46
683.122	17.44
683.446	17.93
683.769	18.35
684.093	18.25
684.416	18.15
684.739	18.19
685.062	17.64
685.386	18.09
685.709	18.15
686.032	17.66
686.355	18.37
686.678	17.84
687.001	18.34
687.324	18.46
687.646	17.89
687.969	18.37
688.292	18.5
688.614	18.31
688.937	18.17
689.26	18.24
689.582	18.58
689.904	18.54
690.227	17.89
690.549	18.14
690.871	18.9
691.194	18.53
691.516	18.44
691.838	18
692.16	18.92
692.482	18.74
692.804	19.46
693.126	18.89
693.448	18.1
693.769	19.33
694.091	18.64
694.413	18.71
694.735	18.95
695.056	19.52
695.378	18.05
695.699	19.07
696.021	17.82
696.342	19.14
696.663	19.15
696.984	18.48
697.306	20.32
697.627	19.42
697.948	18.71
698.269	19.11
698.59	19.62
698.911	20.26
699.232	19.96
699.553	19.31
699.873	19.13
700.194	19.62
700.515	19.5
700.835	19.18
701.156	19.22
701.477	19.69
701.797	19.18
702.117	19.68
702.438	19.91
702.758	20.02
703.078	19.52
703.398	19.69
703.719	19.57
704.039	20.04
704.359	19.77
704.679	19.59
704.999	19.66
705.319	20.5
705.638	20.57
705.958	20.91
706.278	21.39
706.597	21.05
706.917	20.19
707.237	19.54
707.556	19.83
707.876	20.5
708.195	20.92
708.514	20.27
708.834	20.12
709.153	19.5
709.472	20.93
709.791	20.59
710.11	20.17
710.429	20.43
710.748	20.66
711.067	20.26
711.386	20.33
711.705	21.38
712.023	20.66
712.342	21.3
712.661	20.9
712.979	21.3
713.298	20.78
713.616	21.34
713.935	21.24
714.253	21.94
714.572	20.87
714.89	21.45
715.208	20.91
715.526	20.15
715.844	22.03
716.162	21.32
716.48	20.68
716.798	21.32
717.116	21.02
717.434	21.93
717.752	21.25
718.069	20.89
718.387	20.64
718.705	21.25
719.022	21.26
719.34	22.08
719.657	21.66
719.975	21.64
720.292	22.58
720.609	21.43
720.927	20.33
721.244	21.63
721.561	22.6
721.878	22.38
722.195	22.33
722.512	21.97
722.829	21.01
723.146	23.17
723.463	21.75
723.779	22.83
724.096	22.46
724.413	22.31
724.729	21.98
725.046	21.58
725.362	22.39
725.679	21.85
725.995	23
726.311	21.46
726.628	22.5
726.944	21.16
727.26	22.74
727.576	21.35
727.892	23.42
728.208	22.59
728.524	21.74
728.84	22.17
729.156	23.17
729.472	22.77
729.787	22.3
730.103	23.46
730.419	22.1
730.734	23.69
731.05	22.85
731.365	23.95
731.681	23.38
731.996	22.88
732.311	23.16
732.626	22.83
732.942	23.79
733.257	24.23
733.572	24.74
733.887	22.77
734.202	22.81
734.517	23.82
734.832	23.16
735.146	23.77
735.461	22.18
735.776	25.17
736.091	24.16
736.405	22.79
736.72	21.92
737.034	23.31
737.349	22.81
737.663	23.99
737.977	23.24
738.292	23.46
738.606	22.95
738.92	24.56
739.234	23.47
739.548	23.67
739.862	24.57
740.176	23.01
740.49	23.96
740.804	24.15
741.117	24.77
741.431	24.54
741.745	23.8
742.058	25.5
742.372	23.09
742.685	24
742.999	25.93
743.312	24.45
743.626	24.73
743.939	22.74
744.252	23.66
744.565	24.68
744.878	24.31
745.191	24.38
745.505	24.11
745.817	23.48
746.13	24.72
746.443	22.62
746.756	22.4
747.069	22.96
747.381	23.37
747.694	23.18
748.007	24.22
748.319	24.3
748.632	25.74
748.944	24.33
749.256	27.03
749.569	24.05
749.881	24.5
750.193	24.6
750.505	25.15
750.817	25.27
751.129	25.08
751.441	25.66
751.753	24.41
752.065	24.66
752.377	25.2
752.689	25.99
753	24.86
753.312	25.34
753.624	25.12
753.935	24.73
754.247	23.38
754.558	26.02
754.869	24.45
755.181	23.41
755.492	25.06
755.803	25.5
756.114	25.28
756.425	25.3
756.736	25.81
757.047	23.98
757.358	25.2
757.669	26.59
757.98	25.28
758.291	26.99
758.601	26.57
758.912	26.88
759.223	26.42
759.533	25.37
759.844	25.67
760.154	24.39
760.464	24.88
760.775	25.37
761.085	24.74
761.395	27.01
761.705	26.32
762.016	25.15
762.326	24.55
762.636	24.53
762.945	27.15
763.255	25.92
763.565	27.14
763.875	27.18
764.185	25.1
764.494	24.17
764.804	27.23
765.113	26.76
765.423	27.1
765.732	27.11
766.042	25.05
766.351	27.7
766.66	27
766.97	26.72
767.279	26.91
767.588	25.78
767.897	23.82
768.206	25.22
768.515	26.81
768.824	26.54
769.133	27.48
769.441	26.38
769.75	25.37
770.059	26.03
770.367	25.96
770.676	24.73
770.984	28.44
771.293	27.21
771.601	25.79
771.91	25.86
772.218	26.11
772.526	25.2
772.834	26.36
773.142	28.16
773.45	26.21
773.758	25.04
774.066	26.93
774.374	28.03
774.682	25.52
774.99	26.9
775.298	25.88
775.605	26.76
775.913	29.03
776.22	25.83
776.528	25.78
776.835	28.66
777.143	28.28
777.45	26.99
777.757	27.17
778.065	24.99
778.372	24.64
778.679	29.36
778.986	26.32
779.293	26.77
779.6	29.15
779.907	27.99
780.214	27.19
780.52	28.17
780.827	26.08
781.134	27.45
781.44	28.8
781.747	28.73
782.053	29.15
782.36	25.45
782.666	30.42
782.973	27.39
783.279	26.24
783.585	27.35
783.891	23.91
784.197	26.8
784.503	26.53
784.809	25.88
785.115	26.77
785.421	29.91
785.727	25.62
786.033	29.06
786.339	25.79
786.644	28.99
786.95	30.75
787.255	29.3
787.561	24.09
787.866	27.73
788.172	30.15
788.477	30.7
788.782	27.9
789.088	31.44
789.393	27
789.698	26.65
790.003	29.8
790.308	29.34
790.613	27.79
790.918	26.03
791.223	30.78
791.527	30.99
791.832	30.73
792.137	28.91
792.441	27.53
792.746	27.07
793.05	30.65
793.355	30.02
793.659	30.23
793.963	31.45
794.268	32.52
794.572	32.41
794.876	29.55
795.18	31.84
795.484	31.46
795.788	30.81
796.092	30.11
796.396	28.59
796.7	31.61
797.004	31.21
797.307	23.65
797.611	27.47
797.915	28.47
798.218	33.45
798.522	25.77
798.825	28.1
799.128	32.1
799.432	28.72
799.735	29.25
800.038	31.21
800.341	29.32
800.644	32.54
800.947	29.05
801.25	26.33
801.553	33.45
801.856	29.47
802.159	30.05
802.462	28.68
802.764	31.19
803.067	32.62
803.37	28.85
803.672	25.84
803.975	26.68
804.277	26.57
804.579	26.54
804.882	32.37
805.184	29.16
805.486	34.36
805.788	27.1
806.09	25.87
806.392	29.65
806.694	34.69
806.996	34.36
807.298	30.66
807.6	32.35
807.902	31.14
808.203	27.67
808.505	27.22
808.807	34.05
809.108	32.73
809.409	31.58
809.711	28.35
810.012	31.92
810.313	28.38
810.615	33.82
810.916	31.55
811.217	32.67
811.518	33.84
811.819	32.66
812.12	32.05
812.421	35.99
812.722	35.96
813.023	35.37
813.323	34.78
813.624	34.12
813.925	26.96
814.225	35.45
814.526	28.29
814.826	29.54
815.126	28.47
815.427	33.25
815.727	38.67
816.027	31.3
816.327	30.89
816.627	36.49
816.927	34.58
817.227	32.56
817.527	25.42
817.827	29.23
818.127	29.92
818.427	27.28
818.727	31.79
819.026	34.66
819.326	32.36
819.625	31.17
819.925	33.33
820.224	33.39
820.524	37.46
820.823	32.66
821.122	31.9
821.421	35.43
821.72	32.31
822.019	29.47
822.318	32.83
822.617	30.82
822.916	30.93
823.215	32.25
823.514	30.65
823.813	28.6
824.111	32.4
824.41	31.44
824.709	31.36
825.007	31.77
825.306	30.47
825.604	31.26
825.902	31.84
826.201	31.02
826.499	29.73
826.797	28.63
827.095	29.94
827.393	31.28
827.691	32.3
827.989	29.68
828.287	30.36
828.585	29.86
828.882	31.46
829.18	29.04
829.478	30.5
829.775	31.82
830.073	31.05
830.37	30.17
830.668	31.69
830.965	28.91
831.263	28.32
831.56	29.93
831.857	30.94
832.154	35.81
832.451	36.08
832.748	32.68
833.045	34.3
833.342	34.46
833.639	30.22
833.936	27.22
834.232	32.72
834.529	36.62
834.826	31.78
835.122	30.52
835.419	32.45
835.715	35.35
836.012	31.67
836.308	33.24
836.604	30.08
836.901	32.45
837.197	34.44
837.493	31.38
837.789	30.98
838.085	31.07
838.381	31.26
838.677	29.06
838.972	30.48
839.268	33.52
839.564	30.47
839.86	34.95
840.155	31.15
840.451	35.83
840.746	31.93
841.042	43.48
841.337	36.26
841.632	33
841.928	47.36
842.223	27.84
842.518	32.65
842.813	34.76
843.108	37.09
843.403	30.05
843.698	29.06
843.993	35.26
844.287	31.9
844.582	23.73
844.877	27.89
845.171	31.78
845.466	30.13
845.761	29.37
846.055	44.63
846.349	30.39
846.644	35.08
846.938	22.28
847.232	27.05
847.526	47.2
847.82	38.12
848.114	32.46
848.408	39.12
848.702	33.14
848.996	28.57
849.29	36.11
849.584	29.69
849.877	44.29
850.171	16.42
850.465	26.24
850.758	38.94
851.052	13.85
851.345	38.38
851.638	51
851.932	40.51
852.225	43.99
852.518	44.63
852.811	33.18
853.104	30.18
853.397	24.35
853.69	30.25
853.983	25.36
854.276	26.3
854.569	33.25
854.861	44.11
855.154	38.55
855.447	44.02
855.739	12.99
856.032	25.51
856.324	31.47
856.616	58.88
856.909	51.98
857.201	32.89
857.493	6.78
857.785	51.12
858.077	28.15
858.369	23.61
858.661	25.15
858.953	46.89
859.245	43.64
859.537	16.77
859.829	36.89
860.12	37.83
860.412	35.87
860.703	29.81
860.995	24.44
861.286	28.09
861.578	8.12
861.869	42.83
862.16	34.98
862.452	32.74
862.743	22.07
863.034	23.58
863.325	13.53
863.616	20.12
863.907	36.96
864.198	21.72
864.488	36.21
864.779	42.67
865.07	41.51
865.36	28.65
865.651	34.96
865.941	41.42
866.232	39.44
866.522	36.92
866.813	48.11
867.103	51.35
867.393	32.37
867.683	10.54
867.973	39.76
868.263	15.05
868.553	21.25
868.843	22.25
869.133	59.62
869.423	45.04
869.713	26.61
870.002	29.48
870.292	42.54
870.582	37.79
870.871	19.21
871.161	28.18
871.45	32.9
871.739	43.67
872.029	36.4
872.318	50.41
872.607	43.38
872.896	31.1
873.185	39.4
873.474	54.75
873.763	24.2
874.052	56.05
874.341	29.87
874.63	47.99
874.918	56.1
875.207	2.76
875.496	55.14
875.784	58.21
876.073	56.74
876.361	48.51
876.649	40.99
876.938	31.79
877.226	35.4
877.514	19.93
877.802	30.01
878.09	54.62
878.378	45.47
878.666	17.02
878.954	40
879.242	8.7
879.53	42.93
879.817	30.61
880.105	4.33
880.392	49.07
880.68	18.41
880.967	31.85
881.255	17.92
881.542	34.45
881.83	45.45
882.117	42.89
882.404	39.11
882.691	71.07
882.978	49.34
883.265	36.15
883.552	22.38
883.839	41.8
884.126	44.78
884.413	26.09
884.699	40.58
884.986	34.54
885.273	38
885.559	38
885.846	38
