Data from 1844-1_forehead_Reflection__3__119.txt Node

Date: Fri Sep 30 18:42:15 CDT 2022
User: ToomeyLab
Spectrometer: FLMS14357
Trigger mode: 0
Integration Time (sec): 1.000000E-2
Scans to average: 100
Electric dark correction enabled: true
Nonlinearity correction enabled: false
Boxcar width: 0
XAxis mode: Wavelengths
Number of Pixels in Spectrum: 2048
>>>>>Begin Spectral Data<<<<<
189.047	81.15
189.435	81.15
189.823	81.15
190.211	-109.04
190.599	-271.71
190.987	161.9
191.375	59.08
191.763	211.7
192.151	37.64
192.538	15.58
192.926	36.02
193.314	82.42
193.702	110.18
194.089	83.21
194.477	-1270.47
194.864	198.17
195.252	-122.46
195.639	133.17
196.027	379.7
196.414	25.56
196.801	72.72
197.189	8.13
197.576	-309.2
197.963	313.02
198.351	-16.34
198.738	6.22
199.125	68.26
199.512	48.47
199.899	44.42
200.286	57.14
200.673	74.9
201.06	37.1
201.447	56.8
201.833	57.59
202.22	31.06
202.607	36.25
202.994	67.03
203.38	22.46
203.767	64.35
204.154	44.88
204.54	24.24
204.927	47.82
205.313	12.53
205.699	18.17
206.086	14.65
206.472	35.57
206.858	20.58
207.245	32.35
207.631	-22.12
208.017	5.44
208.403	39.8
208.789	9.24
209.175	34.15
209.561	-7.78
209.947	-4.82
210.333	-17.83
210.719	31.53
211.105	11.02
211.491	16.04
211.876	46.37
212.262	30.3
212.648	27.12
213.034	-0.23
213.419	37.82
213.805	-7.58
214.19	10.28
214.576	49.16
214.961	28.26
215.346	23.83
215.732	32.48
216.117	43.5
216.502	38.13
216.888	43.39
217.273	-13.96
217.658	35.71
218.043	8.93
218.428	42.48
218.813	24.24
219.198	49.7
219.583	12.49
219.968	28.07
220.353	14.56
220.738	18.52
221.122	14.56
221.507	30.76
221.892	10.33
222.276	11.65
222.661	11.83
223.046	2.03
223.43	6.5
223.815	19.93
224.199	14.28
224.583	0.39
224.968	5.77
225.352	4.84
225.736	4.21
226.121	13.1
226.505	9.02
226.889	2.01
227.273	1.22
227.657	12.6
228.041	6.24
228.425	6.06
228.809	6.33
229.193	6.28
229.577	1.89
229.961	2.77
230.344	3.32
230.728	2.86
231.112	3.4
231.495	3.09
231.879	5.91
232.263	3.1
232.646	2.28
233.03	4.29
233.413	4.09
233.797	6.81
234.18	4.21
234.563	5.71
234.946	4.38
235.33	3.01
235.713	5.29
236.096	4.64
236.479	4.48
236.862	4.43
237.245	3.85
237.628	3.03
238.011	5.81
238.394	5.42
238.777	2.23
239.16	5.91
239.543	5.35
239.925	4.12
240.308	2.45
240.691	4.93
241.073	4.68
241.456	3.96
241.838	3.39
242.221	4.22
242.603	4.38
242.986	4.37
243.368	2.38
243.75	3.13
244.133	3.85
244.515	3.27
244.897	3.5
245.279	4.15
245.661	3.53
246.043	4.48
246.425	3.05
246.807	4.07
247.189	3.57
247.571	3.5
247.953	3.83
248.335	3.17
248.717	2.96
249.098	3.22
249.48	3.1
249.862	3.27
250.243	3
250.625	3.43
251.006	3.35
251.388	2.6
251.769	3.29
252.151	4.18
252.532	3.49
252.913	3.46
253.295	3.47
253.676	3.18
254.057	3.69
254.438	3.21
254.819	4.21
255.2	3.05
255.581	4.15
255.962	3.31
256.343	2.93
256.724	4.3
257.105	3.62
257.486	3.67
257.867	4.47
258.247	3.52
258.628	4.15
259.009	5
259.389	3.23
259.77	3.33
260.15	3.67
260.531	3.59
260.911	3.24
261.292	3.06
261.672	2.85
262.052	3.2
262.432	3.01
262.813	4.03
263.193	2.99
263.573	2.88
263.953	3
264.333	3.97
264.713	2.25
265.093	3.21
265.473	3.09
265.853	2.82
266.233	3.52
266.612	2.85
266.992	3.32
267.372	2.64
267.752	3.44
268.131	3.33
268.511	3.29
268.89	2.94
269.27	3.75
269.649	2.93
270.029	3.45
270.408	3.09
270.787	3.42
271.167	3.25
271.546	3.66
271.925	3.71
272.304	3.25
272.683	3.25
273.062	2.87
273.441	3.15
273.82	2.67
274.199	3.15
274.578	2.84
274.957	3.23
275.336	2.99
275.715	3.65
276.093	3.38
276.472	3.2
276.851	3.29
277.229	2.98
277.608	3.26
277.986	3.5
278.365	3.5
278.743	2.85
279.122	3.24
279.5	3.22
279.878	2.84
280.257	3.48
280.635	3.36
281.013	3.83
281.391	2.96
281.769	2.76
282.147	2.77
282.525	3.62
282.903	3.13
283.281	2.6
283.659	3.29
284.037	3.31
284.415	3.59
284.792	3.5
285.17	2.61
285.548	3.14
285.925	3.37
286.303	3.12
286.68	2.61
287.058	3.05
287.435	2.96
287.813	3.16
288.19	3.12
288.567	3.02
288.945	2.76
289.322	2.88
289.699	2.88
290.076	3.19
290.453	3.61
290.83	3.36
291.207	3.21
291.584	3.07
291.961	3.52
292.338	3.47
292.715	3.29
293.092	3.33
293.469	3.9
293.845	4.01
294.222	3.84
294.599	4.08
294.975	4.55
295.352	3.83
295.728	3.62
296.105	3.57
296.481	3.65
296.858	4.11
297.234	3.74
297.61	3.75
297.986	3.77
298.363	3.39
298.739	3.59
299.115	3.35
299.491	3.56
299.867	3.38
300.243	3.78
300.619	3.62
300.995	4.94
301.371	3.65
301.746	4.05
302.122	4.09
302.498	4.08
302.874	4.03
303.249	4.35
303.625	4.69
304	4.38
304.376	4.36
304.751	5.21
305.127	4.17
305.502	4.12
305.878	4.65
306.253	4.09
306.628	4.59
307.003	4.67
307.378	5.44
307.754	5.06
308.129	4.94
308.504	4.71
308.879	5.17
309.254	4.78
309.629	4.75
310.003	4.84
310.378	4.47
310.753	4.99
311.128	5.07
311.502	5.09
311.877	4.91
312.252	5.43
312.626	5.28
313.001	5.02
313.375	5.06
313.75	5.85
314.124	5.21
314.498	5.06
314.873	5.5
315.247	5.93
315.621	6.13
315.995	6.27
316.369	5.82
316.743	6.22
317.117	6.6
317.491	6.68
317.865	7.2
318.239	6.53
318.613	6.62
318.987	6.39
319.361	5.8
319.734	6.3
320.108	6.32
320.482	6.5
320.855	6.8
321.229	6.51
321.602	6.51
321.976	6.22
322.349	6.93
322.723	6.68
323.096	7.48
323.469	7.11
323.843	6.66
324.216	7.05
324.589	7.54
324.962	7.66
325.335	7.04
325.708	7.19
326.081	7.55
326.454	7.44
326.827	6.92
327.2	7.54
327.573	7.28
327.945	7.26
328.318	7.34
328.691	7.92
329.063	7.28
329.436	7.34
329.809	8.03
330.181	7.72
330.553	7.77
330.926	8.46
331.298	7.66
331.671	7.98
332.043	7.93
332.415	8.34
332.787	7.93
333.159	8.14
333.532	8.47
333.904	8.11
334.276	8.52
334.648	8.26
335.02	8.81
335.391	8.49
335.763	7.89
336.135	8.47
336.507	8.54
336.879	8.84
337.25	8.42
337.622	8.58
337.993	8.46
338.365	8.92
338.736	8.61
339.108	8.91
339.479	9.08
339.851	8.52
340.222	9.24
340.593	8.86
340.964	9.09
341.336	9.14
341.707	9.3
342.078	8.8
342.449	9.47
342.82	9.25
343.191	8.99
343.562	9.5
343.933	9.46
344.303	9.36
344.674	9.12
345.045	9.26
345.416	9.7
345.786	9.57
346.157	10.16
346.527	9.81
346.898	9.68
347.268	9.31
347.639	9.67
348.009	9.79
348.38	10.41
348.75	10.25
349.12	10.29
349.49	10.3
349.861	10.08
350.231	10.15
350.601	10.5
350.971	10.22
351.341	10.36
351.711	10.08
352.081	10.11
352.45	10.4
352.82	10.98
353.19	10.69
353.56	10.36
353.929	10.21
354.299	10.58
354.669	10.81
355.038	11.47
355.408	10.84
355.777	10.75
356.147	10.77
356.516	11.03
356.885	10.39
357.254	10.91
357.624	11.04
357.993	10.56
358.362	11.39
358.731	11.21
359.1	11.07
359.469	11.01
359.838	11.46
360.207	11.23
360.576	11.17
360.945	11.51
361.314	11.53
361.682	11.55
362.051	11.52
362.42	11.52
362.788	11.67
363.157	11.48
363.525	11.47
363.894	11.43
364.262	12.02
364.631	12.29
364.999	12.01
365.367	12.46
365.735	12.15
366.104	12.04
366.472	12.4
366.84	12.53
367.208	12.14
367.576	12.75
367.944	12.31
368.312	12.33
368.68	12.48
369.048	12.54
369.416	12.66
369.783	12.7
370.151	12.59
370.519	13.1
370.886	12.74
371.254	12.78
371.621	13.16
371.989	13.19
372.356	12.99
372.724	13.12
373.091	12.72
373.458	13.06
373.826	13.23
374.193	13.41
374.56	13.35
374.927	13.7
375.294	13.59
375.661	13.64
376.028	13.48
376.395	13.51
376.762	13.64
377.129	13.86
377.496	13.87
377.863	13.53
378.229	13.67
378.596	14.17
378.963	13.87
379.329	13.72
379.696	14.18
380.062	14.07
380.429	14.16
380.795	14.22
381.161	13.89
381.528	14.35
381.894	14.19
382.26	14.15
382.626	14.14
382.993	14.34
383.359	14.3
383.725	14.41
384.091	14.53
384.457	14.56
384.823	14.86
385.188	14.55
385.554	14.86
385.92	14.93
386.286	15.2
386.651	14.96
387.017	15.32
387.383	14.74
387.748	14.66
388.114	15.14
388.479	15.17
388.845	14.9
389.21	15.38
389.575	15.45
389.94	15.18
390.306	15.37
390.671	15.58
391.036	15.29
391.401	15.5
391.766	15.71
392.131	15.68
392.496	15.69
392.861	15.81
393.226	15.69
393.591	15.71
393.956	16.12
394.32	15.95
394.685	15.92
395.05	16.19
395.414	16.18
395.779	16.04
396.143	16.24
396.508	16.23
396.872	16.2
397.236	16.52
397.601	16.62
397.965	16.54
398.329	16.4
398.694	16.67
399.058	16.98
399.422	17.05
399.786	16.88
400.15	16.77
400.514	16.7
400.878	17.21
401.242	16.63
401.605	17.06
401.969	17.26
402.333	17.26
402.697	17.34
403.06	17.14
403.424	17.44
403.787	17.3
404.151	17.32
404.514	17.28
404.878	17.54
405.241	17.5
405.604	17.58
405.968	17.36
406.331	17.45
406.694	17.86
407.057	17.34
407.42	17.77
407.783	17.97
408.146	17.74
408.509	18.11
408.872	18.06
409.235	18.21
409.598	18.06
409.961	18
410.323	18.42
410.686	18.48
411.049	18.49
411.411	18.12
411.774	18.41
412.136	18.42
412.499	18.29
412.861	18.37
413.223	18.49
413.586	18.61
413.948	18.92
414.31	18.58
414.672	19.03
415.035	19.09
415.397	18.97
415.759	18.86
416.121	18.94
416.483	18.83
416.845	18.95
417.206	19.11
417.568	19.1
417.93	19.13
418.292	19.23
418.653	19.14
419.015	19.2
419.377	19.37
419.738	19.19
420.1	19.27
420.461	19.2
420.822	19.34
421.184	19.38
421.545	19.3
421.906	19.21
422.267	19.41
422.629	19.4
422.99	19.32
423.351	19.39
423.712	19.69
424.073	19.65
424.434	19.85
424.795	19.76
425.155	19.85
425.516	19.6
425.877	19.78
426.238	19.81
426.598	19.95
426.959	20.04
427.32	20.14
427.68	20.25
428.041	20.29
428.401	20.38
428.761	20.75
429.122	20.79
429.482	20.65
429.842	20.87
430.202	20.93
430.563	20.87
430.923	21.03
431.283	20.96
431.643	21.14
432.003	21.03
432.363	21.28
432.722	21.52
433.082	21.4
433.442	21.39
433.802	21.5
434.161	21.54
434.521	21.59
434.881	21.3
435.24	21.52
435.6	21.48
435.959	21.63
436.319	21.68
436.678	21.67
437.037	21.91
437.396	21.98
437.756	21.76
438.115	21.97
438.474	22.12
438.833	22.13
439.192	22.1
439.551	22.29
439.91	22.39
440.269	22.04
440.628	22.27
440.987	22.48
441.345	22.38
441.704	22.21
442.063	22.29
442.421	22.31
442.78	22.34
443.138	22.32
443.497	22.48
443.855	22.61
444.214	22.64
444.572	22.99
444.93	23.03
445.288	22.98
445.647	22.94
446.005	22.99
446.363	23.17
446.721	22.94
447.079	22.89
447.437	22.94
447.795	22.85
448.153	22.88
448.51	22.69
448.868	23.04
449.226	22.99
449.584	23.12
449.941	23.4
450.299	23.52
450.656	23.53
451.014	23.8
451.371	23.78
451.729	24.02
452.086	23.74
452.443	24.15
452.801	24.13
453.158	24.24
453.515	24.09
453.872	24.19
454.229	24.19
454.586	24.28
454.943	24.46
455.3	24.43
455.657	24.45
456.014	24.57
456.371	24.45
456.727	24.45
457.084	24.48
457.441	24.97
457.797	24.55
458.154	24.48
458.51	24.98
458.867	25.1
459.223	24.98
459.58	25.34
459.936	25.18
460.292	25.19
460.648	24.72
461.005	24.86
461.361	24.86
461.717	24.79
462.073	24.97
462.429	25.08
462.785	25.49
463.141	25.47
463.496	25.34
463.852	25.54
464.208	25.76
464.564	25.79
464.919	25.94
465.275	26.08
465.631	26.24
465.986	25.92
466.342	26.21
466.697	26.09
467.052	26.24
467.408	26.29
467.763	26.17
468.118	26.5
468.473	26.45
468.829	26.4
469.184	26.56
469.539	26.46
469.894	26.71
470.249	26.6
470.603	26.9
470.958	26.88
471.313	26.91
471.668	27.1
472.023	26.96
472.377	26.99
472.732	26.99
473.086	27.3
473.441	27.24
473.795	27.14
474.15	27.12
474.504	27.43
474.859	27.33
475.213	27.36
475.567	27.52
475.921	27.37
476.275	27.43
476.63	27.79
476.984	27.64
477.338	27.58
477.692	27.89
478.045	28.13
478.399	27.82
478.753	27.82
479.107	27.81
479.461	28.01
479.814	27.83
480.168	28.04
480.521	27.88
480.875	27.99
481.228	28.04
481.582	28.01
481.935	28.17
482.289	28.31
482.642	28.29
482.995	28.25
483.348	28.25
483.701	28.23
484.055	28.12
484.408	27.91
484.761	27.74
485.114	27.4
485.466	27.32
485.819	27.35
486.172	27.49
486.525	27.71
486.878	27.9
487.23	28.03
487.583	28.15
487.936	28.39
488.288	28.23
488.641	28.22
488.993	28.09
489.345	28.03
489.698	28.07
490.05	28.23
490.402	28.35
490.754	28.69
491.107	28.78
491.459	29.11
491.811	29.2
492.163	29.32
492.515	29.15
492.866	29.03
493.218	28.71
493.57	28.76
493.922	28.86
494.274	29.07
494.625	29.47
494.977	29.66
495.328	29.86
495.68	30.02
496.031	30.16
496.383	30.37
496.734	30.41
497.086	30.56
497.437	30.52
497.788	30.35
498.139	30.31
498.49	30.19
498.842	30.25
499.193	30.54
499.544	30.48
499.894	30.71
500.245	30.69
500.596	30.76
500.947	30.85
501.298	31.02
501.648	30.96
501.999	31.19
502.35	31.22
502.7	31.37
503.051	31.39
503.401	31.59
503.752	31.3
504.102	31.63
504.452	31.46
504.803	31.83
505.153	31.75
505.503	31.6
505.853	31.78
506.203	31.62
506.553	31.86
506.903	31.9
507.253	31.91
507.603	31.98
507.953	32.2
508.303	32.32
508.652	32.16
509.002	32.22
509.352	32.06
509.701	32.23
510.051	32.07
510.4	32.03
510.75	32.15
511.099	32.3
511.449	32.2
511.798	32.34
512.147	32.55
512.496	32.64
512.846	32.77
513.195	32.71
513.544	32.63
513.893	32.63
514.242	32.73
514.591	32.89
514.939	32.71
515.288	33.12
515.637	32.94
515.986	33.1
516.334	33.21
516.683	33.22
517.032	33.51
517.38	33.57
517.729	33.57
518.077	33.44
518.426	33.51
518.774	33.58
519.122	33.35
519.47	33.38
519.819	33.16
520.167	33.27
520.515	33.11
520.863	33.39
521.211	33.58
521.559	33.47
521.907	33.69
522.255	33.57
522.602	33.97
522.95	34.13
523.298	34.29
523.645	34.1
523.993	34.46
524.341	34.4
524.688	34.49
525.036	34.5
525.383	34.62
525.73	34.51
526.078	34.69
526.425	34.54
526.772	34.39
527.119	34.15
527.466	33.99
527.814	34.09
528.161	34.17
528.508	34.16
528.854	34.33
529.201	34.22
529.548	34.1
529.895	33.96
530.242	33.9
530.588	33.88
530.935	34.02
531.282	34.06
531.628	34.3
531.975	34.48
532.321	34.64
532.667	34.93
533.014	34.88
533.36	35.01
533.706	35.24
534.052	35.08
534.399	34.94
534.745	34.87
535.091	34.79
535.437	34.88
535.783	34.91
536.129	35.24
536.474	35.47
536.82	35.69
537.166	35.8
537.512	35.7
537.857	35.86
538.203	35.65
538.549	35.64
538.894	35.75
539.239	35.9
539.585	36.09
539.93	36.35
540.276	36.36
540.621	36.74
540.966	36.73
541.311	36.68
541.656	36.62
542.001	36.65
542.346	36.22
542.691	36.01
543.036	35.84
543.381	35.9
543.726	36.06
544.071	36.12
544.415	36.24
544.76	36.44
545.105	36.58
545.449	36.65
545.794	36.98
546.138	36.98
546.483	37.29
546.827	37.33
547.171	37.28
547.516	37.47
547.86	37.28
548.204	37.29
548.548	37.17
548.892	37.44
549.236	37.45
549.58	37.74
549.924	38.03
550.268	38.08
550.612	38.32
550.956	38.37
551.3	38.27
551.643	38.42
551.987	38.58
552.33	38.59
552.674	38.69
553.017	38.9
553.361	38.84
553.704	39.12
554.048	38.9
554.391	38.71
554.734	38.63
555.077	38.79
555.42	38.65
555.764	39.02
556.107	39.27
556.45	39.26
556.793	39.12
557.135	39.17
557.478	39.56
557.821	39.38
558.164	39.67
558.507	39.78
558.849	39.61
559.192	39.81
559.534	39.62
559.877	39.87
560.219	40
560.562	39.86
560.904	39.89
561.246	39.97
561.589	40.04
561.931	40.13
562.273	39.86
562.615	40.31
562.957	40.13
563.299	40.42
563.641	40.42
563.983	40.36
564.325	40.35
564.667	40.55
565.008	40.47
565.35	40.64
565.692	40.71
566.033	40.52
566.375	40.87
566.716	40.86
567.058	40.79
567.399	40.68
567.741	40.66
568.082	40.56
568.423	40.9
568.764	40.98
569.105	40.72
569.447	40.93
569.788	40.96
570.129	41.06
570.47	41.15
570.811	41.25
571.151	41.22
571.492	41.56
571.833	41.5
572.174	41.28
572.514	41.69
572.855	41.44
573.195	41.52
573.536	41.42
573.876	41.47
574.217	41.5
574.557	41.51
574.898	41.64
575.238	41.76
575.578	41.9
575.918	41.98
576.258	41.78
576.598	41.9
576.938	41.8
577.278	41.83
577.618	42.29
577.958	42.07
578.298	42.52
578.638	42.5
578.977	42.44
579.317	42.54
579.657	42.69
579.996	42.65
580.336	43.06
580.675	42.79
581.014	42.91
581.354	43.33
581.693	43.18
582.032	43.18
582.372	43.36
582.711	43.19
583.05	43.1
583.389	43.48
583.728	43.58
584.067	43.61
584.406	43.48
584.745	43.6
585.083	43.72
585.422	43.98
585.761	43.69
586.1	43.76
586.438	44.06
586.777	44.33
587.115	43.75
587.454	44.14
587.792	44.15
588.13	44.08
588.469	44.39
588.807	44.37
589.145	44.06
589.483	44.63
589.821	44.11
590.159	44.13
590.497	44.27
590.835	44.46
591.173	44.22
591.511	44.38
591.849	44.74
592.187	44.72
592.524	44.49
592.862	44.7
593.2	44.84
593.537	44.74
593.875	45.01
594.212	44.62
594.55	45.05
594.887	45.05
595.224	44.83
595.561	44.87
595.899	45.08
596.236	45.32
596.573	45.07
596.91	45
597.247	45.21
597.584	45.38
597.921	45.28
598.258	45.17
598.594	45.22
598.931	44.97
599.268	45.19
599.604	45.28
599.941	45.28
600.277	45.49
600.614	45.9
600.95	45.93
601.287	45.83
601.623	46.02
601.959	46.3
602.296	46.22
602.632	46.28
602.968	46.67
603.304	46.13
603.64	46.26
603.976	45.82
604.312	46.25
604.648	46.38
604.984	46.32
605.319	46.14
605.655	45.97
605.991	45.9
606.326	46.09
606.662	46.3
606.998	46.09
607.333	46.17
607.668	46.35
608.004	46.7
608.339	46.66
608.674	46.63
609.01	46.7
609.345	46.56
609.68	46.79
610.015	46.72
610.35	47.05
610.685	46.84
611.02	46.85
611.355	46.77
611.689	46.75
612.024	46.74
612.359	47.4
612.694	46.97
613.028	47.43
613.363	47.58
613.697	47.38
614.032	47.46
614.366	47.69
614.7	47.97
615.035	47.55
615.369	47.79
615.703	47.96
616.037	48.23
616.371	48.4
616.705	47.73
617.039	48.02
617.373	48.14
617.707	48.51
618.041	48.06
618.375	47.89
618.709	48.63
619.042	48.42
619.376	48.65
619.71	48.94
620.043	48.49
620.377	48.58
620.71	48.72
621.043	48.7
621.377	48.8
621.71	49.16
622.043	49.07
622.376	48.73
622.709	49.37
623.043	49.22
623.376	49.04
623.709	49.02
624.041	48.9
624.374	49.34
624.707	49.27
625.04	48.96
625.373	49.32
625.705	48.88
626.038	48.82
626.37	49.29
626.703	49.67
627.035	49.6
627.368	50.17
627.7	49.37
628.032	49.33
628.365	49.53
628.697	49.3
629.029	49.52
629.361	49.34
629.693	49.97
630.025	49.81
630.357	50.17
630.689	49.58
631.021	50.07
631.353	49.97
631.684	50.3
632.016	50.4
632.348	50.62
632.679	50.01
633.011	50.65
633.342	50.43
633.674	50.37
634.005	50.33
634.336	50.82
634.668	50.72
634.999	50.67
635.33	50.67
635.661	50.6
635.992	50.48
636.323	50.6
636.654	50.62
636.985	50.81
637.316	50.97
637.647	50.77
637.977	51.02
638.308	50.91
638.639	50.65
638.969	51.01
639.3	51.04
639.63	50.66
639.961	51.05
640.291	51.33
640.622	51.57
640.952	51.88
641.282	51.62
641.612	51.59
641.943	51.29
642.273	51.74
642.603	51.14
642.933	51.97
643.263	51.62
643.592	51.95
643.922	51.54
644.252	52.53
644.582	52.57
644.911	52
645.241	52.27
645.571	51.61
645.9	51.91
646.23	51.42
646.559	51.81
646.888	52.21
647.218	52.12
647.547	52.43
647.876	52.74
648.205	52.82
648.534	52.17
648.863	52.41
649.192	52.77
649.521	52.4
649.85	52.58
650.179	53
650.508	52.57
650.837	52.33
651.165	52.42
651.494	53.3
651.822	52.82
652.151	52.87
652.479	53.81
652.808	52.73
653.136	53.09
653.465	53.67
653.793	52.7
654.121	52.92
654.449	53.14
654.777	53.1
655.105	53.28
655.433	52.97
655.761	53.76
656.089	53.73
656.417	52.96
656.745	53.32
657.073	53.7
657.4	53.21
657.728	53.33
658.056	53.43
658.383	53.87
658.711	53.4
659.038	53.56
659.365	54.06
659.693	53.76
660.02	53.58
660.347	53.69
660.674	54.01
661.001	54.15
661.329	53.75
661.656	53.87
661.982	54.11
662.309	53.41
662.636	53.95
662.963	54.04
663.29	54.36
663.616	53.79
663.943	53.84
664.27	54.02
664.596	54.48
664.923	54.18
665.249	54.62
665.576	54.86
665.902	54.85
666.228	54.81
666.554	55.01
666.881	55.07
667.207	54.42
667.533	55.17
667.859	54.99
668.185	54.88
668.511	54.71
668.837	55.12
669.162	54.88
669.488	55.31
669.814	55.53
670.139	55.23
670.465	55.38
670.791	55.19
671.116	54.7
671.442	55.1
671.767	55.27
672.092	54.99
672.418	54.72
672.743	55.27
673.068	55.38
673.393	55.72
673.718	55.1
674.043	55.63
674.368	55.2
674.693	55.76
675.018	55.61
675.343	55.58
675.667	55.32
675.992	55.02
676.317	55.67
676.641	55.56
676.966	55.71
677.29	55.41
677.615	55.84
677.939	56.51
678.264	55.36
678.588	56.57
678.912	55.6
679.236	56.13
679.56	55.82
679.885	56.7
680.209	56.22
680.532	55.68
680.856	56
681.18	56.63
681.504	55.91
681.828	56.72
682.152	56.2
682.475	56.42
682.799	56.62
683.122	56.35
683.446	56.38
683.769	57.27
684.093	57.02
684.416	57.66
684.739	56.96
685.062	56.36
685.386	56.08
685.709	56.32
686.032	56.49
686.355	56.58
686.678	56.83
687.001	57.09
687.324	57.67
687.646	56.63
687.969	56.63
688.292	56.64
688.614	57.09
688.937	57.06
689.26	56.68
689.582	57.72
689.904	56.95
690.227	57.64
690.549	57.26
690.871	57.76
691.194	56.94
691.516	56.54
691.838	57.24
692.16	57.21
692.482	57.7
692.804	57.41
693.126	57.07
693.448	57.83
693.769	58.1
694.091	57.38
694.413	58
694.735	57.16
695.056	58.01
695.378	57.44
695.699	58.73
696.021	56.85
696.342	59
696.663	57.71
696.984	58.58
697.306	57.82
697.627	58.31
697.948	57.52
698.269	58.7
698.59	59.46
698.911	58.66
699.232	58.01
699.553	58.95
699.873	57.67
700.194	57.79
700.515	59.2
700.835	58.06
701.156	58.06
701.477	58.72
701.797	57.86
702.117	59.06
702.438	59.04
702.758	59.13
703.078	59
703.398	58.54
703.719	58.14
704.039	58.4
704.359	58.81
704.679	58.42
704.999	58.38
705.319	58.92
705.638	58.81
705.958	59.26
706.278	59
706.597	58.99
706.917	59.19
707.237	58.39
707.556	58.3
707.876	59.37
708.195	58.44
708.514	60.02
708.834	58.19
709.153	58.98
709.472	59.82
709.791	59.22
710.11	59.79
710.429	59.08
710.748	59.96
711.067	59
711.386	59.81
711.705	59.42
712.023	59.19
712.342	60.02
712.661	60.94
712.979	60.27
713.298	59.05
713.616	59.81
713.935	61.31
714.253	60.6
714.572	59.81
714.89	59.48
715.208	60.91
715.526	59.71
715.844	59.66
716.162	59.99
716.48	60.67
716.798	60.96
717.116	59.52
717.434	60.4
717.752	60.11
718.069	60.84
718.387	59.8
718.705	60.58
719.022	59.67
719.34	59.99
719.657	59.7
719.975	60.14
720.292	60.21
720.609	60.74
720.927	60.26
721.244	60.25
721.561	61.41
721.878	60.56
722.195	61.11
722.512	60.91
722.829	60.43
723.146	61.89
723.463	61.6
723.779	60.79
724.096	60.29
724.413	60.14
724.729	61.38
725.046	58.66
725.362	60.65
725.679	59.06
725.995	61.81
726.311	60.48
726.628	60.55
726.944	60.11
727.26	61.65
727.576	61.69
727.892	61.69
728.208	61.24
728.524	61.37
728.84	61.87
729.156	61.97
729.472	61.1
729.787	61.57
730.103	62.21
730.419	60.31
730.734	62.27
731.05	61.54
731.365	63
731.681	60.25
731.996	61.78
732.311	61.99
732.626	61.01
732.942	62.02
733.257	62.5
733.572	64.09
733.887	62.3
734.202	60.66
734.517	61.12
734.832	61.39
735.146	61.06
735.461	61.1
735.776	61.03
736.091	61.24
736.405	61.25
736.72	62.27
737.034	61.19
737.349	61.9
737.663	62.7
737.977	62.53
738.292	61.67
738.606	62.42
738.92	62.83
739.234	61.46
739.548	62.86
739.862	64.06
740.176	62.87
740.49	61.79
740.804	63.29
741.117	62.1
741.431	63.4
741.745	61.63
742.058	63.74
742.372	61.68
742.685	61.33
742.999	60.92
743.312	65.24
743.626	61.45
743.939	62.38
744.252	64.7
744.565	63.39
744.878	61.38
745.191	63.21
745.505	62.05
745.817	63.58
746.13	63.47
746.443	59.4
746.756	63.17
747.069	61.01
747.381	62.03
747.694	60.68
748.007	62.79
748.319	64.65
748.632	62.4
748.944	64.16
749.256	64.7
749.569	62.96
749.881	62.91
750.193	63.62
750.505	62.98
750.817	63.78
751.129	61.31
751.441	64.98
751.753	63.31
752.065	63.14
752.377	63.4
752.689	62.78
753	63.12
753.312	62.83
753.624	65.76
753.935	64.18
754.247	61.57
754.558	63.48
754.869	63.25
755.181	62.36
755.492	62.67
755.803	62.96
756.114	64.44
756.425	64.35
756.736	62.92
757.047	64.2
757.358	64.67
757.669	63.18
757.98	65.41
758.291	62.85
758.601	63.45
758.912	65.29
759.223	62.92
759.533	63.72
759.844	63.98
760.154	63.68
760.464	64.62
760.775	62.94
761.085	61.87
761.395	65.4
761.705	65.41
762.016	64.24
762.326	63.88
762.636	62.84
762.945	63.95
763.255	65.53
763.565	64.08
763.875	66.36
764.185	65.03
764.494	64.92
764.804	64.51
765.113	63.73
765.423	64.94
765.732	64.95
766.042	64.62
766.351	66.28
766.66	64.72
766.97	64.3
767.279	63.42
767.588	63.92
767.897	63.93
768.206	64.97
768.515	63.31
768.824	66.45
769.133	64.53
769.441	65.2
769.75	62.61
770.059	64.9
770.367	61.77
770.676	65.74
770.984	64.18
771.293	64.53
771.601	64.28
771.91	65.3
772.218	63.44
772.526	62.42
772.834	64.23
773.142	64.78
773.45	66.94
773.758	63.45
774.066	65.69
774.374	63.1
774.682	63.92
774.99	64.17
775.298	62.53
775.605	62.35
775.913	63.87
776.22	63.99
776.528	66.2
776.835	66.73
777.143	68.22
777.45	66.34
777.757	64.44
778.065	61.24
778.372	63.31
778.679	65.21
778.986	64.79
779.293	64.1
779.6	61.53
779.907	65.03
780.214	63.36
780.52	65.54
780.827	65.85
781.134	63.22
781.44	66.43
781.747	61.05
782.053	62.39
782.36	64.9
782.666	66.44
782.973	64.29
783.279	64.9
783.585	62.61
783.891	64.02
784.197	66.47
784.503	67.63
784.809	65.35
785.115	61.06
785.421	66.05
785.727	65.64
786.033	61.57
786.339	63.45
786.644	63.12
786.95	65.5
787.255	64.77
787.561	62.73
787.866	62.97
788.172	65.71
788.477	64.49
788.782	62.86
789.088	72.43
789.393	65.12
789.698	64.73
790.003	67.97
790.308	64.93
790.613	63.69
790.918	64.56
791.223	63.13
791.527	65.79
791.832	64.79
792.137	62.92
792.441	64.59
792.746	64.87
793.05	66.44
793.355	64.32
793.659	65.32
793.963	66.27
794.268	69.15
794.572	66.7
794.876	65.43
795.18	66.53
795.484	64.04
795.788	67.75
796.092	66.08
796.396	60.62
796.7	68.62
797.004	64.49
797.307	63.74
797.611	68.28
797.915	64.41
798.218	63.71
798.522	68.64
798.825	66.26
799.128	64.37
799.432	64.59
799.735	64.51
800.038	70.48
800.341	63.66
800.644	60.8
800.947	64.8
801.25	64.7
801.553	67.14
801.856	66.07
802.159	65.6
802.462	68.44
802.764	69.29
803.067	66.81
803.37	65.4
803.672	64.43
803.975	64.67
804.277	61.84
804.579	59.61
804.882	70.73
805.184	66.55
805.486	67.23
805.788	63.2
806.09	64.09
806.392	67.1
806.694	69.22
806.996	66.81
807.298	63.01
807.6	67.71
807.902	64.46
808.203	61.87
808.505	64.88
808.807	69.58
809.108	69.26
809.409	67.31
809.711	66.9
810.012	68.9
810.313	66.96
810.615	72.62
810.916	67.14
811.217	73.23
811.518	67.32
811.819	63.42
812.12	67.05
812.421	67.66
812.722	67.83
813.023	66.85
813.323	67.05
813.624	71.81
813.925	68.13
814.225	70.55
814.526	57.57
814.826	71.19
815.126	63.53
815.427	68.11
815.727	65.89
816.027	64.73
816.327	67.38
816.627	68.29
816.927	65.7
817.227	62.73
817.527	61.49
817.827	68.85
818.127	63.67
818.427	71.84
818.727	65.23
819.026	64.57
819.326	66.65
819.625	65.46
819.925	67.87
820.224	66.85
820.524	67.42
820.823	67.9
821.122	68.33
821.421	71.32
821.72	67.98
822.019	64.91
822.318	70.44
822.617	63.52
822.916	66.83
823.215	68.39
823.514	65.56
823.813	67.97
824.111	69.46
824.41	68.99
824.709	69.44
825.007	69.64
825.306	69.01
825.604	68.27
825.902	68.72
826.201	68.31
826.499	69.01
826.797	67.42
827.095	66.23
827.393	66.16
827.691	68.46
827.989	66.54
828.287	66.47
828.585	65.89
828.882	66.47
829.18	66.61
829.478	66.81
829.775	69.78
830.073	69.23
830.37	68.78
830.668	67.87
830.965	65.95
831.263	68.97
831.56	66.29
831.857	65.46
832.154	68.81
832.451	68.61
832.748	68.07
833.045	68.74
833.342	69.38
833.639	66.2
833.936	72.29
834.232	68.82
834.529	72.18
834.826	68.17
835.122	71.99
835.419	68.73
835.715	68.43
836.012	67.23
836.308	68.25
836.604	70.56
836.901	68.17
837.197	69.18
837.493	68.53
837.789	66.05
838.085	65.69
838.381	66.94
838.677	62.54
838.972	64.91
839.268	64.9
839.564	69.02
839.86	63.62
840.155	68.32
840.451	69.21
840.746	63.15
841.042	64.03
841.337	65.94
841.632	70.44
841.928	72.27
842.223	56.01
842.518	69.49
842.813	67.98
843.108	71.96
843.403	74.41
843.698	73.62
843.993	71.14
844.287	64.38
844.582	57.8
844.877	61.05
845.171	69.64
845.466	61.08
845.761	64.83
846.055	71.71
846.349	64.67
846.644	71.39
846.938	60
847.232	58.31
847.526	70.62
847.82	67.85
848.114	63.09
848.408	68.12
848.702	70.44
848.996	64.56
849.29	56.2
849.584	77.16
849.877	79.29
850.171	63.5
850.465	74.18
850.758	67.05
851.052	67.75
851.345	72.82
851.638	79.11
851.932	74.41
852.225	65.71
852.518	72.77
852.811	56.32
853.104	61.25
853.397	68.39
853.69	67.87
853.983	56.53
854.276	61.11
854.569	67.62
854.861	71.76
855.154	70.24
855.447	71.74
855.739	73
856.032	65.9
856.324	72.14
856.616	80.05
856.909	68.63
857.201	57.07
857.493	44.99
857.785	70.23
858.077	65.75
858.369	58.75
858.661	81.55
858.953	86.72
859.245	77.42
859.537	50.32
859.829	55.7
860.12	83.17
860.412	79.74
860.703	74.95
860.995	78.07
861.286	71.71
861.578	61.69
861.869	65.04
862.16	65.68
862.452	69.83
862.743	62.25
863.034	60.75
863.325	73.38
863.616	63.54
863.907	67.9
864.198	85.61
864.488	56.17
864.779	74.34
865.07	68.7
865.36	91.28
865.651	63.37
865.941	105.81
866.232	83.94
866.522	69.28
866.813	58.95
867.103	60.32
867.393	70.64
867.683	50.1
867.973	59.85
868.263	96.27
868.553	62.34
868.843	64.65
869.133	71.02
869.423	71.21
869.713	61.84
870.002	69.76
870.292	67.28
870.582	35.06
870.871	64.07
871.161	64.19
871.45	73.72
871.739	53.62
872.029	61.42
872.318	81.77
872.607	66.69
872.896	78.9
873.185	67.36
873.474	77.42
873.763	69.24
874.052	80.01
874.341	73.81
874.63	77.38
874.918	70.08
875.207	47.82
875.496	91.63
875.784	58.58
876.073	81.91
876.361	49.7
876.649	78.56
876.938	86.55
877.226	77.29
877.514	84.29
877.802	49.73
878.09	82.09
878.378	82.7
878.666	64.2
878.954	65.23
879.242	56.89
879.53	47.81
879.817	75.25
880.105	60.34
880.392	58.45
880.68	34.94
880.967	58.8
881.255	42.59
881.542	15.14
881.83	83.96
882.117	69.37
882.404	54.2
882.691	91.62
882.978	46.28
883.265	73.29
883.552	67.96
883.839	69.94
884.126	82.39
884.413	72.59
884.699	69.63
884.986	73.18
885.273	69.88
885.559	69.88
885.846	69.88
