Data from 1844-1_crown_Reflection__3__114.txt Node

Date: Fri Sep 30 18:40:54 CDT 2022
User: ToomeyLab
Spectrometer: FLMS14357
Trigger mode: 0
Integration Time (sec): 1.000000E-2
Scans to average: 100
Electric dark correction enabled: true
Nonlinearity correction enabled: false
Boxcar width: 0
XAxis mode: Wavelengths
Number of Pixels in Spectrum: 2048
>>>>>Begin Spectral Data<<<<<
189.047	82.77
189.435	82.77
189.823	82.77
190.211	238.31
190.599	13.14
190.987	126.41
191.375	67.58
191.763	451.29
192.151	43.28
192.538	-2.77
192.926	82.47
193.314	60.37
193.702	132.8
194.089	-71.35
194.477	-674.09
194.864	-294.84
195.252	-146.76
195.639	96.28
196.027	-402.54
196.414	95.71
196.801	75.96
197.189	35.16
197.576	-190.02
197.963	323.25
198.351	-15.59
198.738	-51.26
199.125	32.58
199.512	-4.68
199.899	-21.29
200.286	-19.18
200.673	37.63
201.06	-20.38
201.447	10.06
201.833	49.99
202.22	65.49
202.607	27.74
202.994	53.91
203.38	-2.24
203.767	0.84
204.154	43.19
204.54	34.83
204.927	51.62
205.313	-19.22
205.699	7.05
206.086	-8.95
206.472	7.69
206.858	15.61
207.245	10.63
207.631	22.32
208.017	7.09
208.403	29.31
208.789	17.28
209.175	21.38
209.561	-11.23
209.947	0.59
210.333	-32.79
210.719	-17.32
211.105	-8.9
211.491	39.23
211.876	24.65
212.262	45.56
212.648	46.58
213.034	3.34
213.419	37.99
213.805	4.16
214.19	-16.8
214.576	8.24
214.961	21.62
215.346	-16.73
215.732	9.21
216.117	-27.52
216.502	26.04
216.888	33.27
217.273	6.6
217.658	40.13
218.043	-26.39
218.428	-3.48
218.813	36.43
219.198	13.98
219.583	18.74
219.968	16.63
220.353	30.78
220.738	22.74
221.122	25.32
221.507	6.39
221.892	3.1
222.276	-23.5
222.661	22.53
223.046	7.81
223.43	7.96
223.815	7.61
224.199	11.48
224.583	7.51
224.968	5.55
225.352	2.34
225.736	11.68
226.121	8.64
226.505	1.59
226.889	9.53
227.273	2.54
227.657	8.26
228.041	3.64
228.425	10.09
228.809	11.6
229.193	10.34
229.577	6.07
229.961	8.34
230.344	6.27
230.728	7.7
231.112	7.46
231.495	7.32
231.879	7.86
232.263	7.14
232.646	7.01
233.03	8.35
233.413	8.27
233.797	6.09
234.18	6.28
234.563	6.34
234.946	7.88
235.33	7.16
235.713	7
236.096	6.83
236.479	8.67
236.862	6.57
237.245	7.33
237.628	6.83
238.011	9.64
238.394	7.2
238.777	4.03
239.16	5.98
239.543	7.16
239.925	7.22
240.308	6.4
240.691	8.05
241.073	7.03
241.456	6.51
241.838	8.35
242.221	6.53
242.603	7.06
242.986	7.38
243.368	5.53
243.75	6.6
244.133	6.79
244.515	6.51
244.897	6.92
245.279	6.81
245.661	6.85
246.043	6.6
246.425	6.6
246.807	7.9
247.189	6.79
247.571	6.78
247.953	6.77
248.335	6.12
248.717	6.02
249.098	6.43
249.48	6.24
249.862	6.4
250.243	5.91
250.625	6.24
251.006	6.13
251.388	4.6
251.769	6.69
252.151	5.85
252.532	6.43
252.913	5.78
253.295	6.06
253.676	5.45
254.057	6.12
254.438	5.64
254.819	6.8
255.2	5.86
255.581	5.95
255.962	7.23
256.343	6.08
256.724	6.75
257.105	7.03
257.486	6.21
257.867	7.39
258.247	6.12
258.628	7.02
259.009	7.32
259.389	6.13
259.77	6.69
260.15	5.24
260.531	6.45
260.911	5.85
261.292	5.47
261.672	5.73
262.052	5.88
262.432	5.66
262.813	6.76
263.193	5.68
263.573	5.18
263.953	5.38
264.333	6.13
264.713	5.77
265.093	5.99
265.473	5.9
265.853	5.29
266.233	5.34
266.612	5.08
266.992	5.84
267.372	5.43
267.752	5.35
268.131	5.59
268.511	5.55
268.89	4.77
269.27	5.82
269.649	5.59
270.029	6.36
270.408	4.88
270.787	6.15
271.167	5.82
271.546	5.78
271.925	6
272.304	6.23
272.683	5.68
273.062	5.66
273.441	5.3
273.82	5.4
274.199	6.11
274.578	5.36
274.957	5.44
275.336	5.4
275.715	5.59
276.093	5.66
276.472	5.5
276.851	5.54
277.229	6.01
277.608	5.64
277.986	5.31
278.365	5.37
278.743	4.91
279.122	5.42
279.5	5.96
279.878	5.31
280.257	5.2
280.635	6.27
281.013	5.59
281.391	5.76
281.769	5.61
282.147	5.3
282.525	5.51
282.903	5.14
283.281	5.53
283.659	5.56
284.037	5.63
284.415	5.4
284.792	5.57
285.17	4.84
285.548	5.21
285.925	5.62
286.303	5.3
286.68	4.98
287.058	5.41
287.435	5.57
287.813	5.34
288.19	5.53
288.567	5.24
288.945	4.7
289.322	5.06
289.699	5.51
290.076	5.49
290.453	5.49
290.83	5.74
291.207	5.29
291.584	5.16
291.961	5.26
292.338	5.43
292.715	5.22
293.092	4.94
293.469	5.09
293.845	5.58
294.222	5.13
294.599	5.96
294.975	5.54
295.352	5.24
295.728	5.5
296.105	4.92
296.481	5.74
296.858	5.73
297.234	5.17
297.61	4.92
297.986	4.81
298.363	5.14
298.739	5.16
299.115	4.59
299.491	5.25
299.867	5.3
300.243	4.65
300.619	4.87
300.995	5.61
301.371	4.92
301.746	5.1
302.122	5.74
302.498	5.19
302.874	5.15
303.249	5.36
303.625	5.42
304	5.4
304.376	5.17
304.751	5.09
305.127	5.08
305.502	5.65
305.878	5.32
306.253	4.81
306.628	5.22
307.003	5.17
307.378	5.28
307.754	4.66
308.129	5.34
308.504	5.07
308.879	5.65
309.254	4.94
309.629	5.45
310.003	4.67
310.378	4.86
310.753	5.07
311.128	5.04
311.502	5.35
311.877	5.57
312.252	5.19
312.626	5
313.001	5.04
313.375	4.76
313.75	5.35
314.124	5.16
314.498	4.65
314.873	4.96
315.247	4.96
315.621	5.63
315.995	5.7
316.369	5.08
316.743	5.5
317.117	5.47
317.491	6.43
317.865	5.82
318.239	5.39
318.613	5.69
318.987	5.01
319.361	5.01
319.734	4.69
320.108	5.41
320.482	4.94
320.855	5.35
321.229	5.32
321.602	5.45
321.976	5.23
322.349	5.11
322.723	4.96
323.096	5.45
323.469	5.94
323.843	5.38
324.216	4.92
324.589	5.38
324.962	4.98
325.335	5.08
325.708	4.97
326.081	5.52
326.454	5.48
326.827	4.87
327.2	4.8
327.573	5.2
327.945	5
328.318	5.09
328.691	5.8
329.063	5.55
329.436	4.57
329.809	5.28
330.181	5.41
330.553	5.53
330.926	5.37
331.298	5.62
331.671	5.3
332.043	5.39
332.415	4.89
332.787	5.36
333.159	4.63
333.532	5.06
333.904	4.75
334.276	5.04
334.648	4.73
335.02	5.68
335.391	5.49
335.763	5.26
336.135	4.94
336.507	5.61
336.879	5.88
337.25	4.99
337.622	5.46
337.993	5.38
338.365	5.42
338.736	5.34
339.108	5.25
339.479	5.2
339.851	4.69
340.222	5.68
340.593	5.27
340.964	4.78
341.336	5.35
341.707	4.97
342.078	5.63
342.449	5.56
342.82	5.47
343.191	5.07
343.562	5.59
343.933	5.09
344.303	5.25
344.674	5.51
345.045	5.39
345.416	5.84
345.786	5.56
346.157	5.8
346.527	5.45
346.898	5.28
347.268	5.54
347.639	4.9
348.009	5.63
348.38	5.8
348.75	5.72
349.12	5.56
349.49	6.09
349.861	5.2
350.231	5.01
350.601	5.68
350.971	5.65
351.341	5.49
351.711	5.16
352.081	5.35
352.45	5.78
352.82	5.52
353.19	5.58
353.56	5.19
353.929	4.97
354.299	5.73
354.669	5.26
355.038	5.63
355.408	5.93
355.777	5.3
356.147	5.41
356.516	6.03
356.885	5.26
357.254	5.85
357.624	5.51
357.993	5.15
358.362	5.57
358.731	5.52
359.1	5.25
359.469	4.94
359.838	5.45
360.207	5.45
360.576	5.19
360.945	5.5
361.314	5.41
361.682	5.29
362.051	5.46
362.42	5.57
362.788	5.55
363.157	5.36
363.525	5.29
363.894	5.3
364.262	5.65
364.631	5.94
364.999	5.25
365.367	5.64
365.735	5.52
366.104	5.19
366.472	5.93
366.84	5.63
367.208	5.53
367.576	6.04
367.944	5.38
368.312	5.17
368.68	5.29
369.048	5.02
369.416	5.67
369.783	5.32
370.151	5.45
370.519	5.58
370.886	5.7
371.254	5.44
371.621	5.93
371.989	5.72
372.356	5.47
372.724	5.57
373.091	5.24
373.458	5.18
373.826	5.45
374.193	6.05
374.56	5.96
374.927	6.13
375.294	5.53
375.661	5.51
376.028	5.55
376.395	5.75
376.762	5.67
377.129	6.06
377.496	5.96
377.863	5.53
378.229	5.67
378.596	5.96
378.963	5.51
379.329	5.67
379.696	5.95
380.062	5.66
380.429	5.7
380.795	5.64
381.161	5.19
381.528	5.44
381.894	5.62
382.26	5.45
382.626	5.53
382.993	5.63
383.359	5.36
383.725	5.72
384.091	5.61
384.457	5.53
384.823	5.51
385.188	5.5
385.554	5.52
385.92	5.74
386.286	5.75
386.651	5.72
387.017	5.47
387.383	5.67
387.748	5.11
388.114	5.58
388.479	5.51
388.845	5.35
389.21	5.5
389.575	5.63
389.94	5.59
390.306	5.63
390.671	5.61
391.036	5.61
391.401	5.46
391.766	5.67
392.131	5.51
392.496	5.6
392.861	5.51
393.226	5.61
393.591	5.45
393.956	5.67
394.32	5.74
394.685	5.42
395.05	5.84
395.414	5.53
395.779	5.38
396.143	5.62
396.508	5.67
396.872	5.82
397.236	5.36
397.601	5.62
397.965	5.68
398.329	5.19
398.694	5.7
399.058	5.92
399.422	5.6
399.786	5.6
400.15	5.56
400.514	5.23
400.878	5.7
401.242	5.38
401.605	5.51
401.969	5.47
402.333	5.54
402.697	5.62
403.06	5.66
403.424	5.52
403.787	5.55
404.151	5.69
404.514	5.5
404.878	5.46
405.241	5.74
405.604	5.59
405.968	5.67
406.331	5.83
406.694	5.59
407.057	5.69
407.42	5.66
407.783	5.41
408.146	5.3
408.509	5.73
408.872	5.61
409.235	5.47
409.598	5.62
409.961	5.41
410.323	5.91
410.686	5.62
411.049	5.5
411.411	5.64
411.774	5.83
412.136	5.62
412.499	5.61
412.861	5.45
413.223	5.38
413.586	5.53
413.948	5.68
414.31	5.77
414.672	5.59
415.035	6
415.397	5.74
415.759	5.52
416.121	5.73
416.483	5.59
416.845	5.53
417.206	5.91
417.568	5.52
417.93	5.37
418.292	5.53
418.653	5.39
419.015	5.82
419.377	5.63
419.738	5.55
420.1	5.6
420.461	5.39
420.822	5.51
421.184	5.45
421.545	5.41
421.906	5.29
422.267	5.33
422.629	5.49
422.99	5.47
423.351	5.4
423.712	5.42
424.073	5.47
424.434	5.51
424.795	5.43
425.155	5.33
425.516	5.42
425.877	5.42
426.238	5.4
426.598	5.39
426.959	5.45
427.32	5.56
427.68	5.53
428.041	5.46
428.401	5.63
428.761	5.68
429.122	5.46
429.482	5.7
429.842	5.61
430.202	5.5
430.563	5.6
430.923	5.49
431.283	5.35
431.643	5.61
432.003	5.47
432.363	5.7
432.722	5.64
433.082	5.7
433.442	5.59
433.802	5.52
434.161	5.52
434.521	5.44
434.881	5.51
435.24	5.4
435.6	5.63
435.959	5.46
436.319	5.61
436.678	5.52
437.037	5.81
437.396	5.67
437.756	5.5
438.115	5.3
438.474	5.49
438.833	5.46
439.192	5.51
439.551	5.38
439.91	5.49
440.269	5.22
440.628	5.36
440.987	5.52
441.345	5.49
441.704	5.47
442.063	5.53
442.421	5.41
442.78	5.42
443.138	5.26
443.497	5.41
443.855	5.54
444.214	5.37
444.572	5.58
444.93	5.35
445.288	5.48
445.647	5.49
446.005	5.37
446.363	5.53
446.721	5.39
447.079	5.31
447.437	5.46
447.795	5.27
448.153	5.37
448.51	5.23
448.868	5.31
449.226	5.28
449.584	5.37
449.941	5.37
450.299	5.37
450.656	5.49
451.014	5.56
451.371	5.51
451.729	5.54
452.086	5.45
452.443	5.55
452.801	5.42
453.158	5.28
453.515	5.43
453.872	5.43
454.229	5.35
454.586	5.46
454.943	5.41
455.3	5.5
455.657	5.52
456.014	5.27
456.371	5.34
456.727	5.51
457.084	5.21
457.441	5.39
457.797	5.31
458.154	5.11
458.51	5.3
458.867	5.44
459.223	5.28
459.58	5.5
459.936	5.47
460.292	5.45
460.648	5.28
461.005	5.37
461.361	5.3
461.717	5.24
462.073	5.31
462.429	5.37
462.785	5.49
463.141	5.55
463.496	5.38
463.852	5.21
464.208	5.41
464.564	5.11
464.919	5.41
465.275	5.37
465.631	5.59
465.986	5.32
466.342	5.48
466.697	5.61
467.052	5.4
467.408	5.17
467.763	5.23
468.118	5.42
468.473	5.32
468.829	5.4
469.184	5.45
469.539	5.42
469.894	5.4
470.249	5.45
470.603	5.56
470.958	5.37
471.313	5.37
471.668	5.32
472.023	5.15
472.377	5.36
472.732	5.4
473.086	5.46
473.441	5.33
473.795	5.33
474.15	5.21
474.504	5.43
474.859	5.44
475.213	5.25
475.567	5.31
475.921	5.17
476.275	5.15
476.63	5.13
476.984	5.16
477.338	5.19
477.692	5.42
478.045	5.34
478.399	5.36
478.753	5.42
479.107	5.14
479.461	5.29
479.814	5.15
480.168	5.27
480.521	5.22
480.875	5.34
481.228	5.18
481.582	5.38
481.935	5.4
482.289	5.17
482.642	5.31
482.995	5.25
483.348	5.18
483.701	5.19
484.055	5.1
484.408	5.04
484.761	4.93
485.114	4.85
485.466	4.87
485.819	4.88
486.172	4.98
486.525	5.04
486.878	5.06
487.23	5.1
487.583	5.04
487.936	5.18
488.288	5.13
488.641	5.01
488.993	4.91
489.345	4.92
489.698	4.94
490.05	5.04
490.402	5.1
490.754	5.09
491.107	5.13
491.459	5.18
491.811	5.09
492.163	5.16
492.515	5.05
492.866	5.02
493.218	4.94
493.57	4.94
493.922	4.96
494.274	5.08
494.625	5.21
494.977	5.19
495.328	5.26
495.68	5.16
496.031	5.27
496.383	5.2
496.734	5.15
497.086	5.15
497.437	5.26
497.788	5.2
498.139	5
498.49	5
498.842	5.11
499.193	5.16
499.544	5.16
499.894	5.15
500.245	5.04
500.596	5.18
500.947	5.09
501.298	5.29
501.648	5.24
501.999	5.23
502.35	5.1
502.7	5.08
503.051	5.07
503.401	5.21
503.752	5.13
504.102	5.23
504.452	5.16
504.803	5.19
505.153	5.23
505.503	5.1
505.853	5.15
506.203	5.03
506.553	5.13
506.903	5.16
507.253	5.17
507.603	5.16
507.953	5.2
508.303	5.26
508.652	5.25
509.002	5.33
509.352	5.13
509.701	5.03
510.051	5.16
510.4	5.1
510.75	5.05
511.099	4.92
511.449	5.07
511.798	5.1
512.147	5.06
512.496	5.02
512.846	5.05
513.195	5.14
513.544	5.11
513.893	5.08
514.242	5.06
514.591	5.2
514.939	5
515.288	5.14
515.637	5.03
515.986	5.17
516.334	5.06
516.683	5.02
517.032	5.1
517.38	5.1
517.729	5.12
518.077	5.15
518.426	5.08
518.774	5.08
519.122	4.92
519.47	5.07
519.819	5.06
520.167	5
520.515	4.95
520.863	5.03
521.211	5.07
521.559	5.01
521.907	5.15
522.255	4.99
522.602	5.17
522.95	5.13
523.298	5.1
523.645	4.95
523.993	5.12
524.341	5.05
524.688	5.09
525.036	4.96
525.383	4.92
525.73	5.05
526.078	5.08
526.425	4.91
526.772	5.01
527.119	4.81
527.466	4.84
527.814	4.81
528.161	4.9
528.508	4.98
528.854	4.89
529.201	4.94
529.548	4.83
529.895	4.74
530.242	4.7
530.588	4.74
530.935	4.8
531.282	4.85
531.628	4.87
531.975	4.89
532.321	4.98
532.667	4.9
533.014	4.92
533.36	4.97
533.706	4.96
534.052	4.89
534.399	4.86
534.745	4.75
535.091	4.78
535.437	4.86
535.783	4.91
536.129	4.91
536.474	4.93
536.82	4.94
537.166	5.02
537.512	4.93
537.857	5
538.203	4.83
538.549	4.78
538.894	4.94
539.239	4.98
539.585	4.92
539.93	5.03
540.276	4.98
540.621	4.99
540.966	5.02
541.311	4.94
541.656	4.88
542.001	4.8
542.346	4.87
542.691	4.75
543.036	4.65
543.381	4.7
543.726	4.79
544.071	4.88
544.415	4.88
544.76	4.82
545.105	4.9
545.449	4.91
545.794	4.81
546.138	4.8
546.483	4.96
546.827	4.85
547.171	4.92
547.516	4.93
547.86	4.76
548.204	4.74
548.548	4.91
548.892	4.89
549.236	5
549.58	5.03
549.924	4.87
550.268	5.09
550.612	5.03
550.956	5.01
551.3	5.04
551.643	5.03
551.987	5.06
552.33	4.94
552.674	5.07
553.017	4.91
553.361	4.8
553.704	5.04
554.048	4.91
554.391	5.02
554.734	4.87
555.077	4.99
555.42	5.03
555.764	5.09
556.107	5.02
556.45	4.99
556.793	4.84
557.135	5.04
557.478	4.94
557.821	4.84
558.164	5.11
558.507	5.17
558.849	4.86
559.192	4.92
559.534	4.92
559.877	5.12
560.219	4.85
560.562	4.97
560.904	4.86
561.246	4.8
561.589	4.75
561.931	5.04
562.273	5.05
562.615	4.97
562.957	4.92
563.299	4.86
563.641	4.96
563.983	4.94
564.325	4.95
564.667	5.03
565.008	4.9
565.35	4.92
565.692	4.92
566.033	4.87
566.375	4.75
566.716	4.85
567.058	4.85
567.399	4.84
567.741	4.88
568.082	4.96
568.423	4.89
568.764	4.94
569.105	4.81
569.447	4.65
569.788	4.92
570.129	5.07
570.47	4.86
570.811	4.78
571.151	4.87
571.492	5.03
571.833	4.97
572.174	4.69
572.514	4.92
572.855	4.78
573.195	4.77
573.536	4.92
573.876	4.97
574.217	4.87
574.557	4.91
574.898	4.83
575.238	4.94
575.578	4.84
575.918	4.74
576.258	4.89
576.598	4.77
576.938	4.83
577.278	4.95
577.618	5.01
577.958	4.9
578.298	4.94
578.638	4.86
578.977	4.93
579.317	4.79
579.657	4.87
579.996	4.82
580.336	4.96
580.675	4.95
581.014	4.8
581.354	4.99
581.693	4.88
582.032	4.89
582.372	4.72
582.711	4.8
583.05	4.82
583.389	4.91
583.728	4.72
584.067	4.89
584.406	4.93
584.745	4.84
585.083	4.71
585.422	4.87
585.761	4.66
586.1	4.7
586.438	5.03
586.777	5.11
587.115	5.19
587.454	4.73
587.792	4.77
588.13	5.07
588.469	4.74
588.807	4.77
589.145	4.75
589.483	5.12
589.821	4.97
590.159	5.07
590.497	4.68
590.835	4.73
591.173	4.73
591.511	4.6
591.849	4.85
592.187	4.7
592.524	4.72
592.862	5
593.2	4.9
593.537	4.76
593.875	4.81
594.212	4.75
594.55	4.84
594.887	5.03
595.224	4.82
595.561	4.53
595.899	4.67
596.236	5.14
596.573	4.82
596.91	4.62
597.247	4.5
597.584	4.7
597.921	4.73
598.258	4.74
598.594	4.71
598.931	4.68
599.268	4.67
599.604	4.51
599.941	4.63
600.277	4.73
600.614	4.81
600.95	4.95
601.287	4.75
601.623	5.08
601.959	4.65
602.296	4.93
602.632	4.58
602.968	4.87
603.304	4.77
603.64	4.83
603.976	4.78
604.312	4.61
604.648	4.7
604.984	4.79
605.319	4.68
605.655	4.72
605.991	4.73
606.326	4.72
606.662	4.78
606.998	4.68
607.333	4.59
607.668	4.65
608.004	4.87
608.339	4.89
608.674	4.78
609.01	4.53
609.345	4.62
609.68	4.85
610.015	4.94
610.35	4.52
610.685	4.55
611.02	4.6
611.355	4.54
611.689	4.48
612.024	4.86
612.359	4.9
612.694	4.79
613.028	4.85
613.363	4.67
613.697	4.86
614.032	4.91
614.366	4.8
614.7	4.71
615.035	4.96
615.369	4.62
615.703	4.89
616.037	4.84
616.371	4.57
616.705	4.74
617.039	4.96
617.373	5.06
617.707	4.45
618.041	4.72
618.375	4.89
618.709	4.77
619.042	4.93
619.376	5.04
619.71	4.56
620.043	4.81
620.377	5
620.71	4.53
621.043	4.91
621.377	4.62
621.71	4.56
622.043	4.9
622.376	4.49
622.709	4.8
623.043	4.99
623.376	4.69
623.709	4.89
624.041	5.06
624.374	5.04
624.707	4.67
625.04	4.87
625.373	5.02
625.705	4.71
626.038	4.76
626.37	4.73
626.703	5
627.035	4.56
627.368	4.78
627.7	4.96
628.032	4.62
628.365	4.52
628.697	4.89
629.029	4.52
629.361	4.8
629.693	4.76
630.025	4.92
630.357	4.77
630.689	4.68
631.021	4.61
631.353	4.41
631.684	4.85
632.016	5.22
632.348	4.88
632.679	4.6
633.011	4.8
633.342	4.67
633.674	4.71
634.005	4.86
634.336	4.79
634.668	4.88
634.999	4.84
635.33	4.93
635.661	4.56
635.992	5.06
636.323	4.85
636.654	4.71
636.985	4.48
637.316	5.12
637.647	4.64
637.977	4.99
638.308	4.5
638.639	4.57
638.969	4.89
639.3	5.32
639.63	4.41
639.961	5.08
640.291	4.45
640.622	5.26
640.952	5.14
641.282	4.79
641.612	4.52
641.943	4.84
642.273	4.76
642.603	4.81
642.933	4.39
643.263	5.08
643.592	4.8
643.922	4.27
644.252	5.08
644.582	4.87
644.911	4.95
645.241	5.18
645.571	4.59
645.9	4.9
646.23	4.55
646.559	4.11
646.888	4.98
647.218	4.79
647.547	4.56
647.876	4.99
648.205	4.85
648.534	4.57
648.863	4.62
649.192	4.79
649.521	4.56
649.85	5.01
650.179	5.16
650.508	4.92
650.837	5.08
651.165	4.72
651.494	5.15
651.822	4.93
652.151	4.63
652.479	4.8
652.808	4.99
653.136	4.83
653.465	4.96
653.793	4.84
654.121	4.82
654.449	4.79
654.777	4.26
655.105	4.89
655.433	4.53
655.761	4.99
656.089	5.16
656.417	4.42
656.745	4.59
657.073	4.43
657.4	4.9
657.728	4.85
658.056	4.32
658.383	4.9
658.711	4.56
659.038	4.76
659.365	4.71
659.693	4.45
660.02	4.89
660.347	5.13
660.674	4.82
661.001	4.94
661.329	5.12
661.656	4.88
661.982	5.05
662.309	5.27
662.636	5.26
662.963	4.58
663.29	4.19
663.616	3.75
663.943	4.93
664.27	4.81
664.596	4.78
664.923	4.78
665.249	4.79
665.576	5.3
665.902	4.96
666.228	4.72
666.554	5.1
666.881	4.91
667.207	4.9
667.533	4.68
667.859	5.25
668.185	4.72
668.511	4.52
668.837	4.69
669.162	5.2
669.488	4.88
669.814	4.86
670.139	4.92
670.465	5.38
670.791	4.92
671.116	4.52
671.442	4.98
671.767	4.95
672.092	4.65
672.418	4.9
672.743	5.08
673.068	5.63
673.393	5.27
673.718	4.48
674.043	5.24
674.368	4.69
674.693	4.87
675.018	5.45
675.343	4.93
675.667	5.38
675.992	4.91
676.317	4.65
676.641	5.43
676.966	4.63
677.29	4.48
677.615	4.27
677.939	5.27
678.264	4.92
678.588	4.88
678.912	4.89
679.236	4.97
679.56	4.61
679.885	5.11
680.209	4.44
680.532	4.73
680.856	4.68
681.18	4.84
681.504	4.8
681.828	5.04
682.152	5.06
682.475	4.73
682.799	4.83
683.122	5
683.446	5.03
683.769	5.35
684.093	5.43
684.416	5.41
684.739	5.07
685.062	4.87
685.386	5.93
685.709	4.9
686.032	4.89
686.355	4.63
686.678	4.51
687.001	5.28
687.324	5.57
687.646	4.5
687.969	4.69
688.292	5.3
688.614	4.85
688.937	5
689.26	4.84
689.582	4.89
689.904	4.73
690.227	4.92
690.549	4.28
690.871	5.14
691.194	5.08
691.516	4.99
691.838	4.43
692.16	5.39
692.482	4.94
692.804	5.03
693.126	4.77
693.448	4.49
693.769	5.13
694.091	4.08
694.413	5.28
694.735	5.79
695.056	5.73
695.378	5.22
695.699	5.85
696.021	4.43
696.342	4.65
696.663	5.25
696.984	4.97
697.306	5.23
697.627	5.26
697.948	5.53
698.269	5.47
698.59	4.93
698.911	4.96
699.232	5.54
699.553	5.57
699.873	4.82
700.194	5.18
700.515	4.76
700.835	4.47
701.156	4.7
701.477	4.69
701.797	5.34
702.117	5.39
702.438	5.16
702.758	5.52
703.078	5.17
703.398	4.67
703.719	4.45
704.039	5.27
704.359	4.56
704.679	4.79
704.999	4.28
705.319	4.51
705.638	5.92
705.958	4.5
706.278	6.41
706.597	5.49
706.917	5.16
707.237	4.48
707.556	3.8
707.876	5.26
708.195	6.09
708.514	5.02
708.834	5.5
709.153	4.81
709.472	4.78
709.791	5.11
710.11	5.88
710.429	4.3
710.748	5.63
711.067	4.39
711.386	5.9
711.705	5.74
712.023	5.13
712.342	5.28
712.661	5.46
712.979	5.37
713.298	4.63
713.616	5.4
713.935	5.53
714.253	5.05
714.572	4.57
714.89	5.16
715.208	4.36
715.526	4.74
715.844	6.59
716.162	5.6
716.48	5.37
716.798	5.22
717.116	4.91
717.434	4.98
717.752	4.03
718.069	4.53
718.387	4.41
718.705	5.49
719.022	5.12
719.34	5.87
719.657	5.44
719.975	5.38
720.292	5.65
720.609	3.93
720.927	5.52
721.244	5.69
721.561	5.57
721.878	7.31
722.195	6.39
722.512	4.84
722.829	5.74
723.146	5.35
723.463	6.42
723.779	5.46
724.096	4.82
724.413	6.12
724.729	4.37
725.046	4.72
725.362	4.66
725.679	5.22
725.995	5.99
726.311	5.32
726.628	5.99
726.944	5.34
727.26	6.28
727.576	4.67
727.892	5.75
728.208	5.25
728.524	5.41
728.84	4.7
729.156	4.78
729.472	5.24
729.787	5.42
730.103	5.87
730.419	4.52
730.734	4.99
731.05	5.51
731.365	5.94
731.681	5.29
731.996	5.38
732.311	5.35
732.626	5.9
732.942	6.01
733.257	6.27
733.572	6.43
733.887	5.81
734.202	6.69
734.517	5.12
734.832	5.61
735.146	5.04
735.461	3.89
735.776	5.55
736.091	6.33
736.405	5.01
736.72	5.08
737.034	5.38
737.349	4.39
737.663	6.9
737.977	5.73
738.292	5.87
738.606	5.7
738.92	7.59
739.234	5.41
739.548	5.18
739.862	6.77
740.176	5.31
740.49	6.42
740.804	7.3
741.117	5.67
741.431	5.39
741.745	5.7
742.058	6.67
742.372	5.41
742.685	5.12
742.999	7.64
743.312	6.95
743.626	4.76
743.939	5.83
744.252	5.44
744.565	6.57
744.878	7.01
745.191	6.54
745.505	6.05
745.817	3.36
746.13	4.09
746.443	4.69
746.756	2.57
747.069	4.66
747.381	6
747.694	3.86
748.007	7.22
748.319	4.28
748.632	6.21
748.944	5.8
749.256	6.14
749.569	5.36
749.881	5.56
750.193	5.41
750.505	6.36
750.817	5.66
751.129	4.47
751.441	6.31
751.753	5.49
752.065	4.68
752.377	5.22
752.689	5.65
753	6.25
753.312	5.84
753.624	5
753.935	5.59
754.247	4.63
754.558	5.54
754.869	4.82
755.181	5.96
755.492	4.45
755.803	5.62
756.114	3.8
756.425	8.46
756.736	6.43
757.047	5.25
757.358	5.69
757.669	6.23
757.98	5.37
758.291	6.83
758.601	5.81
758.912	5.19
759.223	6.99
759.533	4.07
759.844	6.17
760.154	4.12
760.464	6.94
760.775	6.72
761.085	6.47
761.395	7.13
761.705	7.72
762.016	6.58
762.326	4.68
762.636	3.97
762.945	5.06
763.255	5.49
763.565	6.25
763.875	6.21
764.185	5.65
764.494	4.4
764.804	5.89
765.113	6.22
765.423	6.27
765.732	6.18
766.042	6.28
766.351	6.24
766.66	7.03
766.97	6.27
767.279	6.4
767.588	5.97
767.897	3.78
768.206	4.27
768.515	4.48
768.824	8.69
769.133	5.08
769.441	4.13
769.75	6.13
770.059	5.49
770.367	2.74
770.676	5.62
770.984	8.88
771.293	5.56
771.601	5.46
771.91	5.37
772.218	6.8
772.526	5.81
772.834	6.01
773.142	8.43
773.45	6.01
773.758	5.63
774.066	3.97
774.374	5.27
774.682	1.5
774.99	5.31
775.298	4.57
775.605	6.85
775.913	6.77
776.22	2.1
776.528	7.36
776.835	9.88
777.143	10.02
777.45	8.02
777.757	3.77
778.065	6.55
778.372	5.95
778.679	6.12
778.986	4.59
779.293	6.09
779.6	5.81
779.907	8.62
780.214	3.67
780.52	7.16
780.827	7.31
781.134	3.74
781.44	10.15
781.747	5.41
782.053	5.08
782.36	8.15
782.666	7.72
782.973	7.65
783.279	8.1
783.585	4.72
783.891	4.36
784.197	5.45
784.503	9.24
784.809	6.94
785.115	4.92
785.421	5.26
785.727	7.04
786.033	9
786.339	5.92
786.644	3.92
786.95	11.52
787.255	4.81
787.561	3.29
787.866	7.53
788.172	4.92
788.477	7.59
788.782	6.65
789.088	7.13
789.393	3.57
789.698	4.59
790.003	5.64
790.308	4.22
790.613	5.93
790.918	3.63
791.223	8.18
791.527	9.78
791.832	9.07
792.137	7.7
792.441	7.68
792.746	6.82
793.05	7.1
793.355	5.43
793.659	5.47
793.963	4.87
794.268	5.83
794.572	10.44
794.876	6.52
795.18	8.24
795.484	8.81
795.788	3.83
796.092	7.92
796.396	6.24
796.7	6.29
797.004	7.46
797.307	6.12
797.611	7.47
797.915	4.87
798.218	11.98
798.522	6.56
798.825	7.51
799.128	5.21
799.432	4.22
799.735	7.8
800.038	2.71
800.341	4.68
800.644	6
800.947	4.14
801.25	3.8
801.553	6.71
801.856	4.85
802.159	3.54
802.462	7.14
802.764	9.42
803.067	6.69
803.37	3.99
803.672	8.81
803.975	5.6
804.277	4.32
804.579	2.19
804.882	7.97
805.184	0.17
805.486	12.4
805.788	2.34
806.09	6.35
806.392	7.77
806.694	5.96
806.996	10.26
807.298	10.33
807.6	7.48
807.902	6.78
808.203	1.25
808.505	6.09
808.807	8.89
809.108	7.98
809.409	7.34
809.711	0.46
810.012	7.52
810.313	6.43
810.615	4.71
810.916	15.25
811.217	7.38
811.518	6.6
811.819	6.61
812.12	6.89
812.421	11.24
812.722	11.66
813.023	4.71
813.323	12.61
813.624	12.83
813.925	3.15
814.225	13.24
814.526	5.94
814.826	13.1
815.126	4.74
815.427	2.53
815.727	6.99
816.027	5.86
816.327	11.14
816.627	8.54
816.927	5.62
817.227	10.36
817.527	2.36
817.827	6.08
818.127	9.23
818.427	3.66
818.727	1.27
819.026	2.61
819.326	9.45
819.625	9.35
819.925	12.36
820.224	10.67
820.524	19.45
820.823	4.34
821.122	4.92
821.421	18.57
821.72	10.21
822.019	4.22
822.318	8.61
822.617	7.14
822.916	5.67
823.215	5.45
823.514	6.65
823.813	8.01
824.111	6.02
824.41	6.58
824.709	5.73
825.007	6.94
825.306	6.76
825.604	6.77
825.902	7.21
826.201	6.56
826.499	7.72
826.797	5.55
827.095	5.89
827.393	6.55
827.691	7.6
827.989	7.38
828.287	8.01
828.585	7
828.882	6.89
829.18	7.76
829.478	7.8
829.775	6.48
830.073	7.99
830.37	6.53
830.668	8.73
830.965	5.28
831.263	6.78
831.56	3.92
831.857	10.5
832.154	7.42
832.451	6.25
832.748	5.14
833.045	7.45
833.342	10.99
833.639	8.15
833.936	8.31
834.232	5.28
834.529	8.34
834.826	3.61
835.122	4.6
835.419	6.91
835.715	9.36
836.012	5.01
836.308	8.53
836.604	10.18
836.901	6.91
837.197	10.45
837.493	5.15
837.789	8.23
838.085	7.46
838.381	7.68
838.677	4.92
838.972	6.25
839.268	9.15
839.564	14.49
839.86	3.9
840.155	2.54
840.451	10.33
840.746	14.35
841.042	15.02
841.337	6.84
841.632	-4.75
841.928	16.6
842.223	3.46
842.518	16.6
842.813	6.76
843.108	8.81
843.403	8.5
843.698	7.8
843.993	-4.54
844.287	-3.38
844.582	13.13
844.877	10.25
845.171	-0.31
845.466	5.16
845.761	17.49
846.055	16.15
846.349	19.99
846.644	0.01
846.938	5.51
847.232	12.73
847.526	15.26
847.82	7.44
848.114	20.41
848.408	3.43
848.702	12.66
848.996	1.5
849.29	11.47
849.584	-7.13
849.877	14.17
850.171	-11.66
850.465	16.82
850.758	10.62
851.052	-5.35
851.345	6.33
851.638	28.81
851.932	6.12
852.225	6.49
852.518	16.14
852.811	1.44
853.104	-5.66
853.397	15.49
853.69	5.98
853.983	7.88
854.276	16.96
854.569	20.67
854.861	21.04
855.154	14.25
855.447	29.86
855.739	11.02
856.032	7.97
856.324	-4.51
856.616	31.5
856.909	17.56
857.201	8.02
857.493	-25.05
857.785	13.4
858.077	9.93
858.369	-9.7
858.661	19.31
858.953	21.75
859.245	12.25
859.537	-23.09
859.829	7.69
860.12	5.99
860.412	7.43
860.703	16.09
860.995	0.78
861.286	3.14
861.578	1.88
861.869	18.35
862.16	-5.96
862.452	18.27
862.743	0.73
863.034	-18.75
863.325	8.08
863.616	17.42
863.907	29.84
864.198	-17.3
864.488	21.63
864.779	-9.73
865.07	13.69
865.36	24.15
865.651	25.48
865.941	32.08
866.232	31.59
866.522	29
866.813	34.44
867.103	21.16
867.393	-3.74
867.683	20.09
867.973	33.6
868.263	17.06
868.553	-8.24
868.843	17.26
869.133	20.27
869.423	13.25
869.713	14.2
870.002	14.6
870.292	11.24
870.582	11.12
870.871	-5.11
871.161	1.62
871.45	26.11
871.739	10.99
872.029	6.03
872.318	29.51
872.607	-0.12
872.896	1.03
873.185	-10.38
873.474	7.16
873.763	12.92
874.052	-12.11
874.341	20.93
874.63	16.06
874.918	8.81
875.207	7.93
875.496	20.39
875.784	26.06
876.073	-7.34
876.361	21.12
876.649	29.44
876.938	-3.43
877.226	8.48
877.514	-18.98
877.802	20.84
878.09	14.09
878.378	18.98
878.666	17.57
878.954	8.15
879.242	32.64
879.53	-13.16
879.817	1.57
880.105	7.48
880.392	4.18
880.68	-25.54
880.967	15.03
881.255	9.52
881.542	-44.41
881.83	11.28
882.117	28.02
882.404	3.89
882.691	16.14
882.978	6.52
883.265	15.14
883.552	-19.91
883.839	16.26
884.126	18.82
884.413	10.29
884.699	8.82
884.986	16.45
885.273	9.25
885.559	9.25
885.846	9.25
