Data from 0045_crown_Reflection__2__153.txt Node

Date: Fri Nov 04 16:05:36 CDT 2022
User: ToomeyLab
Spectrometer: FLMS14357
Trigger mode: 0
Integration Time (sec): 1.000000E-2
Scans to average: 100
Electric dark correction enabled: true
Nonlinearity correction enabled: false
Boxcar width: 0
XAxis mode: Wavelengths
Number of Pixels in Spectrum: 2048
>>>>>Begin Spectral Data<<<<<
189.047	91.34
189.435	91.34
189.823	91.34
190.211	155.99
190.599	0.28
190.987	282.07
191.375	24.84
191.763	269.04
192.151	-18.2
192.538	159.5
192.926	-80.03
193.314	47.63
193.702	100.76
194.089	-36.06
194.477	35.77
194.864	-214.09
195.252	254.92
195.639	32.5
196.027	96.3
196.414	172.01
196.801	36.2
197.189	-383.99
197.576	37.95
197.963	-170.14
198.351	2.42
198.738	29.81
199.125	18.24
199.512	-116.34
199.899	-9.42
200.286	-13.88
200.673	-13.68
201.06	-20.14
201.447	-41.33
201.833	5.11
202.22	23.52
202.607	22.57
202.994	24.9
203.38	26.89
203.767	15.06
204.154	16.63
204.54	-140.42
204.927	7.79
205.313	48.67
205.699	39.89
206.086	-8.75
206.472	-36.01
206.858	-9.14
207.245	17.47
207.631	18.15
208.017	1.42
208.403	26.57
208.789	18.38
209.175	-10.25
209.561	-88.3
209.947	-116.83
210.333	19.97
210.719	23.92
211.105	-91.59
211.491	17.63
211.876	9.02
212.262	0.86
212.648	7.75
213.034	32.84
213.419	-14.91
213.805	-38.04
214.19	-35.75
214.576	13.5
214.961	20.33
215.346	-3.09
215.732	-0.74
216.117	-10.56
216.502	-8.95
216.888	-10.7
217.273	7.96
217.658	-23.88
218.043	-13.59
218.428	26.59
218.813	-0.83
219.198	-11.37
219.583	-18.3
219.968	4.65
220.353	-39.61
220.738	-73.44
221.122	2.78
221.507	-9.99
221.892	-5.23
222.276	-6.75
222.661	15.58
223.046	9.82
223.43	6.18
223.815	-8.31
224.199	3.09
224.583	6.14
224.968	-4.16
225.352	-4.53
225.736	-2.02
226.121	-6.73
226.505	5.01
226.889	0.23
227.273	3.09
227.657	-7.85
228.041	5.88
228.425	2.99
228.809	4.06
229.193	3.66
229.577	1.49
229.961	3.57
230.344	5.09
230.728	3.6
231.112	3.02
231.495	3.33
231.879	4
232.263	2.1
232.646	2.72
233.03	2.88
233.413	0.92
233.797	1.88
234.18	1.28
234.563	2.37
234.946	1.81
235.33	5.68
235.713	3.47
236.096	2.68
236.479	3.92
236.862	2.4
237.245	2.88
237.628	3.98
238.011	1.1
238.394	4.58
238.777	2.42
239.16	2.58
239.543	2.26
239.925	3.67
240.308	3.83
240.691	2.76
241.073	3.56
241.456	2.93
241.838	2.14
242.221	2.72
242.603	2.95
242.986	3.32
243.368	3.43
243.75	3.8
244.133	3.74
244.515	3.56
244.897	3.71
245.279	3.35
245.661	4.09
246.043	4.54
246.425	2.73
246.807	4.09
247.189	3.56
247.571	3.41
247.953	3.48
248.335	3.52
248.717	3.75
249.098	3.54
249.48	3.51
249.862	3.84
250.243	3.61
250.625	3.22
251.006	3.39
251.388	3.69
251.769	4.32
252.151	3.8
252.532	4.14
252.913	3.01
253.295	3.42
253.676	3.97
254.057	3.2
254.438	3.64
254.819	3.52
255.2	2.74
255.581	3.09
255.962	3.74
256.343	2.9
256.724	3.61
257.105	2.92
257.486	3.97
257.867	4.9
258.247	3.8
258.628	3.17
259.009	3.43
259.389	3.55
259.77	3.71
260.15	3.35
260.531	3.47
260.911	3.04
261.292	3.5
261.672	3.33
262.052	3.43
262.432	3.52
262.813	3.46
263.193	2.74
263.573	3.39
263.953	3.17
264.333	4.17
264.713	3.68
265.093	3.16
265.473	3.56
265.853	2.78
266.233	3.67
266.612	4.19
266.992	3.67
267.372	3.4
267.752	3.39
268.131	3.72
268.511	3.48
268.89	3.78
269.27	3.36
269.649	3.45
270.029	3.14
270.408	3.57
270.787	3.34
271.167	3.27
271.546	3.83
271.925	3.37
272.304	2.92
272.683	3.11
273.062	3.36
273.441	3.42
273.82	2.84
274.199	3.32
274.578	3.08
274.957	2.95
275.336	2.95
275.715	2.92
276.093	3.06
276.472	3.19
276.851	2.98
277.229	3.39
277.608	2.97
277.986	3.29
278.365	3.42
278.743	3.63
279.122	3.36
279.5	3.64
279.878	3.23
280.257	3.19
280.635	2.87
281.013	2.92
281.391	3.14
281.769	2.98
282.147	2.89
282.525	3.74
282.903	3.43
283.281	3.41
283.659	3.15
284.037	3.02
284.415	3.27
284.792	3.36
285.17	2.95
285.548	3.46
285.925	3.24
286.303	3.2
286.68	3.45
287.058	3.34
287.435	3.25
287.813	3.14
288.19	3.21
288.567	3.12
288.945	3.06
289.322	3.64
289.699	3.58
290.076	3.48
290.453	3.54
290.83	3.24
291.207	3.25
291.584	3.12
291.961	3.28
292.338	3.25
292.715	3.42
293.092	3.59
293.469	3.32
293.845	3.09
294.222	3.04
294.599	3.09
294.975	3.31
295.352	3.33
295.728	3.46
296.105	3.55
296.481	3.21
296.858	3.19
297.234	4.01
297.61	3.87
297.986	3.16
298.363	2.97
298.739	3.78
299.115	3.53
299.491	3.54
299.867	3.5
300.243	3.59
300.619	3.77
300.995	4
301.371	3.68
301.746	3.54
302.122	3.84
302.498	3.71
302.874	3.15
303.249	3.34
303.625	3.75
304	3.53
304.376	3.63
304.751	3.02
305.127	3.06
305.502	3.4
305.878	3.64
306.253	3.56
306.628	3.25
307.003	3.62
307.378	3.7
307.754	3.74
308.129	2.96
308.504	3.62
308.879	3.5
309.254	3.19
309.629	3.9
310.003	3.98
310.378	3.76
310.753	4.11
311.128	3.72
311.502	3.44
311.877	3.61
312.252	3.27
312.626	3.87
313.001	3.52
313.375	3.5
313.75	3.71
314.124	3.52
314.498	3.99
314.873	3.92
315.247	4.18
315.621	3.67
315.995	4.01
316.369	4.05
316.743	3.98
317.117	3.9
317.491	3.77
317.865	3.8
318.239	3.66
318.613	4.13
318.987	3.86
319.361	3.75
319.734	3.95
320.108	3.57
320.482	3.03
320.855	3.9
321.229	3.97
321.602	3.5
321.976	3.72
322.349	4.43
322.723	3.62
323.096	3.96
323.469	3.79
323.843	3.45
324.216	3.81
324.589	3.71
324.962	4.04
325.335	4.18
325.708	3.68
326.081	3.8
326.454	3.53
326.827	3.69
327.2	3.91
327.573	3.85
327.945	3.98
328.318	3.49
328.691	3.82
329.063	3.69
329.436	3.79
329.809	3.79
330.181	4.19
330.553	3.46
330.926	3.96
331.298	4.09
331.671	3.48
332.043	3.6
332.415	3.53
332.787	3.27
333.159	3.32
333.532	3.32
333.904	3.96
334.276	3.79
334.648	4.45
335.02	3.23
335.391	3.74
335.763	3.91
336.135	3.67
336.507	3.68
336.879	4.3
337.25	4.18
337.622	3.72
337.993	3.69
338.365	3.72
338.736	4.74
339.108	4.13
339.479	3.83
339.851	3.91
340.222	3.56
340.593	4.22
340.964	4.19
341.336	3.95
341.707	3.73
342.078	3.93
342.449	3.85
342.82	3.89
343.191	3.64
343.562	3.91
343.933	4.07
344.303	4.33
344.674	3.61
345.045	3.61
345.416	3.33
345.786	4.14
346.157	3.79
346.527	3.99
346.898	4.37
347.268	3.79
347.639	3.87
348.009	4.14
348.38	3.72
348.75	3.78
349.12	3.4
349.49	3.93
349.861	3.52
350.231	3.97
350.601	4.1
350.971	3.72
351.341	3.91
351.711	4.14
352.081	4.12
352.45	4.05
352.82	4.02
353.19	4.21
353.56	4.03
353.929	3.81
354.299	4.46
354.669	4.38
355.038	4.36
355.408	3.8
355.777	3.91
356.147	4.01
356.516	4.07
356.885	3.55
357.254	4.21
357.624	4.13
357.993	3.93
358.362	3.6
358.731	3.88
359.1	3.93
359.469	3.94
359.838	4.19
360.207	3.87
360.576	4.05
360.945	4.16
361.314	4.22
361.682	3.9
362.051	3.91
362.42	3.88
362.788	3.91
363.157	4.09
363.525	4.27
363.894	3.94
364.262	4.03
364.631	4.19
364.999	4.01
365.367	4.04
365.735	4.1
366.104	3.84
366.472	3.91
366.84	3.76
367.208	4.17
367.576	4
367.944	4.19
368.312	3.94
368.68	4.01
369.048	4.03
369.416	3.69
369.783	3.78
370.151	4
370.519	4.65
370.886	3.91
371.254	4.14
371.621	3.91
371.989	4.03
372.356	3.97
372.724	4.17
373.091	4.16
373.458	4
373.826	4.24
374.193	4.01
374.56	3.76
374.927	4.19
375.294	3.71
375.661	4.34
376.028	4.14
376.395	4
376.762	4.3
377.129	4.07
377.496	4.48
377.863	4.09
378.229	4.05
378.596	4.07
378.963	4.01
379.329	3.99
379.696	4.05
380.062	4.41
380.429	4.48
380.795	4.05
381.161	4.2
381.528	4.27
381.894	3.98
382.26	4.47
382.626	3.94
382.993	4.34
383.359	4.09
383.725	4.32
384.091	4.13
384.457	4.17
384.823	4.25
385.188	4.34
385.554	4.16
385.92	4.09
386.286	4.05
386.651	4.14
387.017	4.25
387.383	4.11
387.748	4.13
388.114	4.26
388.479	4.86
388.845	4.45
389.21	4.78
389.575	4.4
389.94	4.23
390.306	4.47
390.671	4.49
391.036	4.22
391.401	4.25
391.766	4.11
392.131	4.25
392.496	4.25
392.861	4.35
393.226	4.22
393.591	4.33
393.956	4.35
394.32	4.18
394.685	4.2
395.05	4.42
395.414	4.44
395.779	4.15
396.143	4.33
396.508	4.33
396.872	4.21
397.236	4.37
397.601	4.21
397.965	4.44
398.329	4.63
398.694	4.43
399.058	4.51
399.422	4.34
399.786	4.45
400.15	4.22
400.514	4.51
400.878	4.56
401.242	4.43
401.605	4.16
401.969	4.51
402.333	4.5
402.697	4.64
403.06	4.5
403.424	4.56
403.787	4.42
404.151	4.55
404.514	4.4
404.878	4.61
405.241	4.53
405.604	4.55
405.968	4.4
406.331	4.5
406.694	4.25
407.057	4.56
407.42	4.37
407.783	4.33
408.146	4.53
408.509	4.49
408.872	4.53
409.235	4.5
409.598	4.6
409.961	4.55
410.323	4.39
410.686	4.32
411.049	4.48
411.411	4.47
411.774	4.65
412.136	4.61
412.499	4.68
412.861	4.49
413.223	4.57
413.586	4.41
413.948	4.58
414.31	4.47
414.672	4.73
415.035	4.79
415.397	4.44
415.759	4.53
416.121	4.55
416.483	4.69
416.845	4.6
417.206	4.46
417.568	4.55
417.93	4.59
418.292	4.48
418.653	4.66
419.015	4.47
419.377	4.67
419.738	4.57
420.1	4.68
420.461	4.71
420.822	4.45
421.184	4.64
421.545	4.48
421.906	4.61
422.267	4.5
422.629	4.62
422.99	4.44
423.351	4.46
423.712	4.52
424.073	4.59
424.434	4.6
424.795	4.66
425.155	4.63
425.516	4.62
425.877	4.59
426.238	4.6
426.598	4.56
426.959	4.57
427.32	4.59
427.68	4.67
428.041	4.6
428.401	4.64
428.761	4.75
429.122	4.59
429.482	4.73
429.842	4.47
430.202	4.86
430.563	4.6
430.923	4.76
431.283	4.87
431.643	4.81
432.003	5.1
432.363	4.94
432.722	4.78
433.082	5.02
433.442	4.76
433.802	4.59
434.161	4.68
434.521	4.84
434.881	4.75
435.24	4.65
435.6	4.85
435.959	4.75
436.319	4.78
436.678	4.85
437.037	4.81
437.396	4.86
437.756	4.91
438.115	4.78
438.474	4.74
438.833	4.92
439.192	4.95
439.551	4.82
439.91	4.86
440.269	4.83
440.628	4.98
440.987	4.76
441.345	4.73
441.704	4.77
442.063	4.72
442.421	4.75
442.78	4.79
443.138	4.89
443.497	4.86
443.855	4.79
444.214	5.05
444.572	4.88
444.93	4.84
445.288	4.84
445.647	4.92
446.005	4.76
446.363	4.83
446.721	4.82
447.079	4.86
447.437	4.86
447.795	4.87
448.153	4.77
448.51	4.86
448.868	4.79
449.226	4.83
449.584	4.83
449.941	4.8
450.299	4.9
450.656	4.93
451.014	4.96
451.371	5.06
451.729	5.16
452.086	4.95
452.443	5.1
452.801	5.1
453.158	5.14
453.515	5.08
453.872	4.85
454.229	5.14
454.586	5.08
454.943	5.08
455.3	5.04
455.657	4.92
456.014	5.08
456.371	5.09
456.727	5.04
457.084	5.16
457.441	5.14
457.797	5
458.154	4.94
458.51	5.13
458.867	4.97
459.223	5.16
459.58	5.35
459.936	4.94
460.292	5.06
460.648	5.1
461.005	5.08
461.361	5.05
461.717	5.07
462.073	5.03
462.429	5.16
462.785	5.09
463.141	5.15
463.496	5.11
463.852	5.15
464.208	5.03
464.564	5.1
464.919	5.31
465.275	5.19
465.631	5.15
465.986	5.18
466.342	5.27
466.697	5.21
467.052	5.07
467.408	5.23
467.763	5.23
468.118	5.31
468.473	5.37
468.829	5.1
469.184	5.25
469.539	5.17
469.894	5.34
470.249	5.19
470.603	5.3
470.958	5.18
471.313	5.37
471.668	5.18
472.023	5.2
472.377	5.49
472.732	5.34
473.086	5.19
473.441	5.3
473.795	5.31
474.15	5.39
474.504	5.34
474.859	5.23
475.213	5.35
475.567	5.24
475.921	5.3
476.275	5.46
476.63	5.31
476.984	5.31
477.338	5.38
477.692	5.34
478.045	5.28
478.399	5.23
478.753	5.46
479.107	5.46
479.461	5.48
479.814	5.57
480.168	5.42
480.521	5.3
480.875	5.42
481.228	5.56
481.582	5.51
481.935	5.25
482.289	5.37
482.642	5.53
482.995	5.47
483.348	5.44
483.701	5.48
484.055	5.33
484.408	5.32
484.761	5.39
485.114	5.27
485.466	5.22
485.819	5.15
486.172	5.16
486.525	5.2
486.878	5.32
487.23	5.32
487.583	5.32
487.936	5.41
488.288	5.41
488.641	5.38
488.993	5.39
489.345	5.38
489.698	5.28
490.05	5.37
490.402	5.39
490.754	5.41
491.107	5.41
491.459	5.52
491.811	5.46
492.163	5.6
492.515	5.64
492.866	5.46
493.218	5.5
493.57	5.48
493.922	5.51
494.274	5.45
494.625	5.53
494.977	5.58
495.328	5.71
495.68	5.63
496.031	5.67
496.383	5.71
496.734	5.62
497.086	5.85
497.437	5.76
497.788	5.82
498.139	5.69
498.49	5.74
498.842	5.79
499.193	5.73
499.544	5.78
499.894	5.69
500.245	5.83
500.596	5.79
500.947	5.79
501.298	5.83
501.648	5.94
501.999	6.01
502.35	5.95
502.7	5.8
503.051	5.88
503.401	5.86
503.752	5.89
504.102	6.05
504.452	5.91
504.803	6.02
505.153	5.96
505.503	6.04
505.853	5.91
506.203	6.05
506.553	6.01
506.903	5.96
507.253	6.02
507.603	5.95
507.953	6.05
508.303	6.11
508.652	5.97
509.002	6.25
509.352	6.11
509.701	6.11
510.051	6.14
510.4	6.13
510.75	6.1
511.099	6.07
511.449	6.07
511.798	6.1
512.147	6.08
512.496	6.15
512.846	6
513.195	6.14
513.544	6.18
513.893	6.25
514.242	6.21
514.591	6.23
514.939	6.32
515.288	6.26
515.637	6.21
515.986	6.23
516.334	6.34
516.683	6.21
517.032	6.33
517.38	6.41
517.729	6.42
518.077	6.36
518.426	6.42
518.774	6.45
519.122	6.41
519.47	6.37
519.819	6.36
520.167	6.42
520.515	6.29
520.863	6.32
521.211	6.37
521.559	6.35
521.907	6.41
522.255	6.55
522.602	6.45
522.95	6.51
523.298	6.58
523.645	6.56
523.993	6.58
524.341	6.6
524.688	6.66
525.036	6.72
525.383	6.72
525.73	6.65
526.078	6.77
526.425	6.68
526.772	6.6
527.119	6.64
527.466	6.63
527.814	6.58
528.161	6.54
528.508	6.62
528.854	6.61
529.201	6.67
529.548	6.65
529.895	6.56
530.242	6.53
530.588	6.52
530.935	6.53
531.282	6.59
531.628	6.53
531.975	6.71
532.321	6.73
532.667	6.81
533.014	6.85
533.36	6.83
533.706	6.92
534.052	6.96
534.399	7.01
534.745	6.88
535.091	6.82
535.437	6.82
535.783	6.84
536.129	6.98
536.474	6.99
536.82	6.96
537.166	6.94
537.512	7.13
537.857	7.05
538.203	7.02
538.549	7.05
538.894	7.09
539.239	7.25
539.585	7.09
539.93	7.2
540.276	7.29
540.621	7.26
540.966	7.25
541.311	7.29
541.656	7.41
542.001	7.46
542.346	7.32
542.691	7.29
543.036	7.18
543.381	7.22
543.726	7.24
544.071	7.27
544.415	7.34
544.76	7.35
545.105	7.37
545.449	7.51
545.794	7.5
546.138	7.45
546.483	7.6
546.827	7.54
547.171	7.63
547.516	7.64
547.86	7.73
548.204	7.74
548.548	7.7
548.892	7.68
549.236	7.72
549.58	7.76
549.924	7.85
550.268	7.94
550.612	7.76
550.956	7.86
551.3	7.96
551.643	7.94
551.987	7.8
552.33	8.21
552.674	8.08
553.017	8.16
553.361	8.32
553.704	8.2
554.048	8.1
554.391	8.16
554.734	8.25
555.077	8.26
555.42	8.17
555.764	8.43
556.107	8.26
556.45	8.34
556.793	8.36
557.135	8.44
557.478	8.25
557.821	8.53
558.164	8.52
558.507	8.48
558.849	8.69
559.192	8.69
559.534	8.53
559.877	8.6
560.219	8.65
560.562	8.81
560.904	8.96
561.246	8.63
561.589	8.64
561.931	8.7
562.273	8.99
562.615	8.68
562.957	9.01
563.299	8.89
563.641	8.86
563.983	8.95
564.325	8.87
564.667	9.1
565.008	8.84
565.35	9.05
565.692	9.22
566.033	9.22
566.375	9.18
566.716	9.23
567.058	9.27
567.399	9.3
567.741	9.28
568.082	9.4
568.423	9.34
568.764	9.29
569.105	9.4
569.447	9.36
569.788	9.5
570.129	9.42
570.47	9.54
570.811	9.49
571.151	9.54
571.492	9.59
571.833	9.49
572.174	9.9
572.514	9.67
572.855	9.59
573.195	9.51
573.536	9.7
573.876	9.57
574.217	9.84
574.557	9.86
574.898	9.95
575.238	9.83
575.578	10.08
575.918	10.02
576.258	9.91
576.598	10.12
576.938	10.06
577.278	10.03
577.618	10.06
577.958	10.11
578.298	10.26
578.638	10.16
578.977	10.32
579.317	10.34
579.657	10.35
579.996	10.41
580.336	10.39
580.675	10.42
581.014	10.91
581.354	10.59
581.693	10.64
582.032	10.82
582.372	10.82
582.711	10.51
583.05	10.85
583.389	10.69
583.728	10.5
584.067	10.87
584.406	10.85
584.745	11.15
585.083	10.91
585.422	11.05
585.761	10.94
586.1	10.9
586.438	11.1
586.777	10.96
587.115	10.93
587.454	11.26
587.792	11.26
588.13	11.41
588.469	11.41
588.807	11.49
589.145	11.27
589.483	11.11
589.821	11.45
590.159	11.42
590.497	11.52
590.835	11.45
591.173	11.22
591.511	11.86
591.849	11.7
592.187	11.77
592.524	11.77
592.862	11.61
593.2	11.92
593.537	11.69
593.875	11.81
594.212	11.88
594.55	11.87
594.887	12.07
595.224	11.92
595.561	11.77
595.899	12.05
596.236	12.08
596.573	12.14
596.91	12.12
597.247	12.17
597.584	11.93
597.921	12.26
598.258	12.2
598.594	12.08
598.931	12.39
599.268	12.34
599.604	12.36
599.941	12.43
600.277	12.41
600.614	12.37
600.95	12.52
601.287	12.46
601.623	12.83
601.959	12.69
602.296	12.56
602.632	12.94
602.968	12.95
603.304	12.85
603.64	13.12
603.976	12.7
604.312	12.88
604.648	12.95
604.984	13.02
605.319	13.06
605.655	12.96
605.991	13.2
606.326	12.97
606.662	13.02
606.998	13.1
607.333	13.08
607.668	13.25
608.004	13.21
608.339	13.23
608.674	13.56
609.01	13.62
609.345	13.51
609.68	13.55
610.015	13.55
610.35	13.44
610.685	13.71
611.02	13.54
611.355	13.56
611.689	13.82
612.024	13.81
612.359	13.66
612.694	13.89
613.028	13.87
613.363	14.1
613.697	13.75
614.032	13.92
614.366	14.14
614.7	14.18
615.035	14.34
615.369	14.19
615.703	14.31
616.037	14.36
616.371	14.34
616.705	14.17
617.039	14.53
617.373	14.57
617.707	14.78
618.041	14.77
618.375	14.69
618.709	14.68
619.042	14.9
619.376	14.89
619.71	14.7
620.043	15.12
620.377	15.1
620.71	15.09
621.043	14.5
621.377	14.82
621.71	15.27
622.043	15.17
622.376	15.25
622.709	15
623.043	15.15
623.376	15.34
623.709	15.1
624.041	15.29
624.374	15.59
624.707	15.03
625.04	15.55
625.373	15.4
625.705	15.09
626.038	15.61
626.37	15.62
626.703	15.69
627.035	15.46
627.368	15.72
627.7	15.76
628.032	15.48
628.365	15.9
628.697	15.91
629.029	15.75
629.361	15.92
629.693	15.69
630.025	15.92
630.357	15.9
630.689	16.04
631.021	15.66
631.353	16.04
631.684	16.31
632.016	16.14
632.348	16.08
632.679	16.35
633.011	16.13
633.342	16.16
633.674	16.13
634.005	16.34
634.336	16.26
634.668	16.12
634.999	16.5
635.33	16.66
635.661	16.94
635.992	16.56
636.323	16.98
636.654	16.29
636.985	16.91
637.316	16.8
637.647	16.62
637.977	17.38
638.308	17.03
638.639	16.86
638.969	16.75
639.3	16.88
639.63	17.01
639.961	17.34
640.291	17.29
640.622	17.16
640.952	17.01
641.282	16.76
641.612	17.29
641.943	17.07
642.273	17.39
642.603	17.45
642.933	17.33
643.263	17.57
643.592	17.42
643.922	18.09
644.252	17.62
644.582	17.84
644.911	17.93
645.241	17.32
645.571	17.49
645.9	18.06
646.23	17.82
646.559	18.45
646.888	17.94
647.218	17.97
647.547	17.93
647.876	17.74
648.205	17.64
648.534	17.97
648.863	18.3
649.192	18.21
649.521	18.17
649.85	18.52
650.179	18.25
650.508	18.2
650.837	18.52
651.165	18.43
651.494	18.49
651.822	18.78
652.151	18.84
652.479	18.21
652.808	18.09
653.136	18.54
653.465	18.66
653.793	18.9
654.121	18.65
654.449	18.53
654.777	18.93
655.105	18.7
655.433	18.94
655.761	18.58
656.089	18.67
656.417	18.95
656.745	18.57
657.073	18.65
657.4	18.97
657.728	19.1
658.056	18.82
658.383	19.27
658.711	19.45
659.038	18.73
659.365	20.03
659.693	20.04
660.02	19.91
660.347	19.26
660.674	19.46
661.001	19.55
661.329	19.28
661.656	19.51
661.982	18.97
662.309	19.53
662.636	19.16
662.963	19.42
663.29	19.18
663.616	20.29
663.943	19.85
664.27	20.49
664.596	20.21
664.923	19.97
665.249	20.6
665.576	19.97
665.902	20.14
666.228	19.64
666.554	20.96
666.881	20.28
667.207	19.99
667.533	19.9
667.859	20.2
668.185	20.26
668.511	20.2
668.837	20.17
669.162	21.01
669.488	20.62
669.814	20.32
670.139	20.6
670.465	20.59
670.791	20.77
671.116	20.59
671.442	20.72
671.767	20.83
672.092	20.62
672.418	20.93
672.743	21.09
673.068	20.68
673.393	21.1
673.718	21.37
674.043	21.59
674.368	20.51
674.693	21.41
675.018	21.03
675.343	21.28
675.667	21.01
675.992	21.51
676.317	21.3
676.641	20.76
676.966	21.12
677.29	21.33
677.615	21.96
677.939	21.57
678.264	21.53
678.588	21.52
678.912	21.86
679.236	21.5
679.56	22.02
679.885	21.79
680.209	21.65
680.532	21.68
680.856	21.26
681.18	21.89
681.504	22.15
681.828	21.77
682.152	22.29
682.475	21.02
682.799	22.15
683.122	22.15
683.446	21.71
683.769	21.89
684.093	22.08
684.416	22.34
684.739	22.45
685.062	23.01
685.386	21.65
685.709	21.91
686.032	22.72
686.355	22.82
686.678	22.68
687.001	22.24
687.324	23.39
687.646	23.12
687.969	22.08
688.292	22.36
688.614	22.93
688.937	23.28
689.26	22.23
689.582	23.55
689.904	22.37
690.227	22.75
690.549	23.08
690.871	23.05
691.194	22.49
691.516	22.45
691.838	22.92
692.16	23.07
692.482	23.07
692.804	22.38
693.126	22.58
693.448	22.73
693.769	23.58
694.091	23.45
694.413	23.42
694.735	22.55
695.056	22.93
695.378	23.53
695.699	24.6
696.021	23.76
696.342	23.8
696.663	23.28
696.984	23.14
697.306	22.6
697.627	24.02
697.948	22.59
698.269	23.92
698.59	24.79
698.911	24
699.232	24.09
699.553	24.52
699.873	23.53
700.194	23.79
700.515	23.94
700.835	23.79
701.156	23.74
701.477	23.87
701.797	24.47
702.117	24.01
702.438	23.94
702.758	24.34
703.078	24.08
703.398	24.24
703.719	24.64
704.039	24.49
704.359	25.06
704.679	24
704.999	23.52
705.319	24.28
705.638	25.14
705.958	24.27
706.278	24.17
706.597	23.89
706.917	24.41
707.237	24.48
707.556	25.35
707.876	24.25
708.195	24.22
708.514	25.08
708.834	24.89
709.153	25.25
709.472	25.69
709.791	25.32
710.11	24.42
710.429	25.98
710.748	25.19
711.067	26.06
711.386	24.96
711.705	25.25
712.023	26.09
712.342	25.93
712.661	26.84
712.979	25.58
713.298	25.79
713.616	25
713.935	24.94
714.253	25.3
714.572	25.98
714.89	25.82
715.208	26.02
715.526	25.66
715.844	25.99
716.162	25.47
716.48	26.15
716.798	26.17
717.116	26.31
717.434	25.73
717.752	25.52
718.069	26.2
718.387	26.02
718.705	26.48
719.022	26.95
719.34	26.54
719.657	26.43
719.975	26.68
720.292	27.56
720.609	26.75
720.927	25.69
721.244	27.11
721.561	26.33
721.878	27.09
722.195	25.58
722.512	26.41
722.829	27.52
723.146	25.52
723.463	26.69
723.779	26.66
724.096	26.15
724.413	27.29
724.729	27.37
725.046	26.36
725.362	27.13
725.679	27.24
725.995	26.6
726.311	26.94
726.628	27.6
726.944	27.82
727.26	27.45
727.576	26.78
727.892	28.5
728.208	27.6
728.524	26.7
728.84	27.11
729.156	28.07
729.472	26.84
729.787	27.55
730.103	26.14
730.419	28.35
730.734	26.98
731.05	27.42
731.365	26.08
731.681	27.01
731.996	27.19
732.311	28.4
732.626	28.23
732.942	27.21
733.257	27.73
733.572	28.48
733.887	28.68
734.202	27.71
734.517	27.45
734.832	30.11
735.146	28.11
735.461	28.57
735.776	28.09
736.091	28.95
736.405	28.78
736.72	28.66
737.034	27.63
737.349	27.49
737.663	28.88
737.977	28.76
738.292	27.78
738.606	29.43
738.92	28.89
739.234	28.77
739.548	29.34
739.862	30.25
740.176	27.78
740.49	27.06
740.804	28.5
741.117	28.83
741.431	27.84
741.745	29.11
742.058	30
742.372	28.43
742.685	29.73
742.999	29.43
743.312	28.45
743.626	30.41
743.939	29.07
744.252	29.29
744.565	27.36
744.878	28.18
745.191	28.71
745.505	28.21
745.817	30.02
746.13	28.81
746.443	30.4
746.756	28.41
747.069	28.5
747.381	29.5
747.694	30.11
748.007	29.21
748.319	28.5
748.632	30.55
748.944	29.57
749.256	29.43
749.569	30.35
749.881	26.29
750.193	30.51
750.505	29.24
750.817	29.41
751.129	29.19
751.441	29.34
751.753	30.6
752.065	29.83
752.377	29.83
752.689	28.87
753	30.52
753.312	30.17
753.624	30.77
753.935	29.81
754.247	30.22
754.558	30.99
754.869	29.14
755.181	31.81
755.492	30.24
755.803	30.76
756.114	30.36
756.425	29.42
756.736	31.48
757.047	30.81
757.358	31.16
757.669	31.83
757.98	30.41
758.291	29.96
758.601	30.36
758.912	30.08
759.223	31.73
759.533	32.36
759.844	30.21
760.154	33.29
760.464	30.85
760.775	30.44
761.085	31.16
761.395	30.78
761.705	31.18
762.016	32.65
762.326	33.01
762.636	31.28
762.945	31.51
763.255	31.73
763.565	31.97
763.875	31.76
764.185	31.74
764.494	31.95
764.804	34.54
765.113	32.04
765.423	32.18
765.732	31.28
766.042	32.5
766.351	32.56
766.66	32.11
766.97	31.97
767.279	32.73
767.588	32.01
767.897	32.01
768.206	32.27
768.515	32.28
768.824	31.67
769.133	32.15
769.441	32.67
769.75	31.05
770.059	32.74
770.367	31.68
770.676	34.34
770.984	35.28
771.293	33.88
771.601	32.07
771.91	32.07
772.218	31.49
772.526	32.86
772.834	32.18
773.142	30.66
773.45	32.07
773.758	32.47
774.066	33.3
774.374	32.17
774.682	30.82
774.99	30.92
775.298	33.77
775.605	30.39
775.913	33.18
776.22	32.7
776.528	32.6
776.835	36.48
777.143	32.77
777.45	30.69
777.757	31.15
778.065	33.13
778.372	34.59
778.679	36.82
778.986	31.33
779.293	30.45
779.6	33.48
779.907	33.68
780.214	35.52
780.52	38.33
780.827	32.83
781.134	33.01
781.44	30.22
781.747	30.18
782.053	30.43
782.36	32.79
782.666	33.96
782.973	34.92
783.279	31.71
783.585	35.27
783.891	33.98
784.197	31.97
784.503	32.85
784.809	33.41
785.115	34.44
785.421	34.87
785.727	32.58
786.033	30.65
786.339	32.94
786.644	32.27
786.95	34.54
787.255	31.31
787.561	33.44
787.866	32.45
788.172	32.52
788.477	33.44
788.782	32.28
789.088	36.55
789.393	30.73
789.698	34.01
790.003	32.33
790.308	35.25
790.613	33.83
790.918	35.92
791.223	36.11
791.527	34.05
791.832	31.8
792.137	33.96
792.441	36.39
792.746	32.86
793.05	31.49
793.355	31.33
793.659	34.83
793.963	35.69
794.268	37.24
794.572	37.44
794.876	36.17
795.18	37.76
795.484	30.51
795.788	34.87
796.092	36.29
796.396	36.7
796.7	36.59
797.004	36.83
797.307	33.06
797.611	31.57
797.915	32.75
798.218	32.87
798.522	31.46
798.825	31.27
799.128	33.45
799.432	35.97
799.735	34.74
800.038	36.34
800.341	36.76
800.644	33.62
800.947	36.78
801.25	34.4
801.553	35.27
801.856	35.13
802.159	37.99
802.462	32.66
802.764	34.89
803.067	31.04
803.37	31.09
803.672	34.41
803.975	33.37
804.277	32.78
804.579	37.16
804.882	29.22
805.184	34.68
805.486	32.8
805.788	36.52
806.09	36.94
806.392	37.92
806.694	29.13
806.996	33.21
807.298	35.7
807.6	34.83
807.902	38.88
808.203	30.25
808.505	36.13
808.807	34.65
809.108	44.69
809.409	36.26
809.711	38.79
810.012	38.65
810.313	41.85
810.615	33.64
810.916	34.96
811.217	32.66
811.518	35.34
811.819	34.62
812.12	30.93
812.421	42.26
812.722	38.9
813.023	38.46
813.323	43.37
813.624	38.56
813.925	35.35
814.225	41.42
814.526	34.86
814.826	29.81
815.126	34.54
815.427	39.04
815.727	29.87
816.027	33.13
816.327	38.42
816.627	36.33
816.927	36.31
817.227	38.99
817.527	33.84
817.827	35.47
818.127	45.25
818.427	39.5
818.727	39.05
819.026	34.88
819.326	35.72
819.625	36.25
819.925	32.69
820.224	39.2
820.524	41.94
820.823	39.9
821.122	35.78
821.421	35.32
821.72	37.04
822.019	36.94
822.318	38.21
822.617	37.29
822.916	40.67
823.215	35.73
823.514	37.82
823.813	35.72
824.111	39.26
824.41	37.97
824.709	39.51
825.007	40.42
825.306	39.77
825.604	39.78
825.902	40.51
826.201	40.44
826.499	38.97
826.797	38.81
827.095	39.8
827.393	38.31
827.691	38.81
827.989	37.27
828.287	39.55
828.585	40.46
828.882	38.1
829.18	39.12
829.478	38.31
829.775	41.09
830.073	39.19
830.37	40.91
830.668	39.61
830.965	40.31
831.263	39.05
831.56	39.71
831.857	38.56
832.154	43.57
832.451	39.33
832.748	39.06
833.045	45.75
833.342	42.1
833.639	37.52
833.936	39.67
834.232	40.56
834.529	42.99
834.826	33.91
835.122	45.76
835.419	40.6
835.715	35.01
836.012	38.75
836.308	39.64
836.604	41.67
836.901	43.01
837.197	40.32
837.493	41.3
837.789	41.05
838.085	39.62
838.381	41.21
838.677	38.64
838.972	39.78
839.268	39.66
839.564	36.6
839.86	39.78
840.155	40.99
840.451	41.08
840.746	36.72
841.042	41.66
841.337	39.7
841.632	41.45
841.928	30.39
842.223	33.36
842.518	37.28
842.813	40.19
843.108	40.58
843.403	38.12
843.698	30.43
843.993	38.35
844.287	39.1
844.582	36.13
844.877	39.62
845.171	41.39
845.466	42.73
845.761	42.72
846.055	41.45
846.349	41.71
846.644	36.49
846.938	37.58
847.232	23.99
847.526	27.16
847.82	38.38
848.114	48.92
848.408	47.77
848.702	42.92
848.996	40.4
849.29	36.13
849.584	34.82
849.877	38.18
850.171	39.54
850.465	52.8
850.758	46.96
851.052	41.81
851.345	47.18
851.638	23.06
851.932	36.83
852.225	29.17
852.518	49.06
852.811	36.52
853.104	52.06
853.397	15
853.69	43.19
853.983	47.83
854.276	48.21
854.569	50.29
854.861	36.33
855.154	38.96
855.447	34.63
855.739	35.76
856.032	48.41
856.324	23.71
856.616	34.69
856.909	50
857.201	29.19
857.493	56.73
857.785	39.57
858.077	33.38
858.369	26.44
858.661	16.85
858.953	18.11
859.245	19.16
859.537	27.35
859.829	47.48
860.12	36.89
860.412	26.39
860.703	35.5
860.995	41.02
861.286	24.05
861.578	44.53
861.869	47.11
862.16	32.72
862.452	33.16
862.743	40.36
863.034	42.34
863.325	21.83
863.616	49.63
863.907	32.14
864.198	43.94
864.488	20.43
864.779	31.31
865.07	39.02
865.36	39.58
865.651	24.19
865.941	49.57
866.232	28.04
866.522	51.21
866.813	50.88
867.103	36.75
867.393	43.68
867.683	37.93
867.973	22.66
868.263	34.75
868.553	19.58
868.843	34.98
869.133	25.15
869.423	58.2
869.713	51.74
870.002	52.68
870.292	-3.91
870.582	44.76
870.871	24.98
871.161	26.33
871.45	16.07
871.739	32.41
872.029	8.6
872.318	26.77
872.607	19.67
872.896	31.91
873.185	34.23
873.474	29.86
873.763	21.01
874.052	26.57
874.341	57.7
874.63	55.58
874.918	40.52
875.207	28.88
875.496	28.57
875.784	42.68
876.073	46.29
876.361	19.41
876.649	27.21
876.938	16.88
877.226	37.6
877.514	46.95
877.802	23.61
878.09	44.15
878.378	26.57
878.666	37.59
878.954	44.54
879.242	21.15
879.53	17.55
879.817	24.78
880.105	19.1
880.392	26.06
880.68	19.74
880.967	14.11
881.255	50.67
881.542	33.52
881.83	46.71
882.117	43.65
882.404	69.44
882.691	15.93
882.978	55.13
883.265	47.18
883.552	28.12
883.839	60.25
884.126	29.19
884.413	36.16
884.699	42.16
884.986	44.11
885.273	38.97
885.559	38.97
885.846	38.97
