Data from 0045_crown_Reflection__2__158.txt Node

Date: Fri Nov 04 16:08:16 CDT 2022
User: ToomeyLab
Spectrometer: FLMS14357
Trigger mode: 0
Integration Time (sec): 1.000000E-2
Scans to average: 100
Electric dark correction enabled: true
Nonlinearity correction enabled: false
Boxcar width: 0
XAxis mode: Wavelengths
Number of Pixels in Spectrum: 2048
>>>>>Begin Spectral Data<<<<<
189.047	-9.77
189.435	-9.77
189.823	-9.77
190.211	-137.91
190.599	42.07
190.987	-614.83
191.375	67.98
191.763	73.59
192.151	34.33
192.538	-127.95
192.926	249.66
193.314	238.71
193.702	118.93
194.089	0.29
194.477	37.9
194.864	-143.07
195.252	576.98
195.639	23
196.027	-23.8
196.414	-77.77
196.801	11.7
197.189	4.26
197.576	113.02
197.963	-31.46
198.351	24.03
198.738	27.51
199.125	-36.69
199.512	-36.85
199.899	-63.37
200.286	-64.07
200.673	7.5
201.06	-5.47
201.447	-17.87
201.833	-1.71
202.22	-5.38
202.607	28
202.994	35.1
203.38	15.81
203.767	-3.07
204.154	34.63
204.54	52.12
204.927	-1.16
205.313	40.54
205.699	14.11
206.086	3.98
206.472	7.43
206.858	12.82
207.245	-3.54
207.631	17.98
208.017	42.93
208.403	38.94
208.789	19.84
209.175	1.59
209.561	-93.99
209.947	-49.42
210.333	31.97
210.719	-8.18
211.105	-63.22
211.491	12.99
211.876	-17.23
212.262	-24.5
212.648	-21.49
213.034	6.09
213.419	-42.47
213.805	-36.61
214.19	-4.84
214.576	1.48
214.961	36.84
215.346	25.55
215.732	5.68
216.117	-17.93
216.502	27.81
216.888	-17.06
217.273	7.02
217.658	-1.27
218.043	-16.7
218.428	-1.44
218.813	-21.23
219.198	-8.91
219.583	-9.76
219.968	5.89
220.353	-1.46
220.738	-56.3
221.122	3.83
221.507	14.1
221.892	-36.25
222.276	1.46
222.661	-10.94
223.046	-3.13
223.43	-1.75
223.815	-11.6
224.199	6.28
224.583	1.25
224.968	-1.94
225.352	4.82
225.736	-4.02
226.121	-3.45
226.505	9.33
226.889	0.54
227.273	-0.85
227.657	-2.97
228.041	-0.07
228.425	4.78
228.809	4.49
229.193	3.49
229.577	-0.6
229.961	3.59
230.344	4.35
230.728	3.21
231.112	3.46
231.495	3.41
231.879	3.71
232.263	2.59
232.646	3.08
233.03	2.71
233.413	1.89
233.797	2.88
234.18	3.95
234.563	3.32
234.946	1.06
235.33	3.26
235.713	3.64
236.096	2.93
236.479	4
236.862	1.23
237.245	1.5
237.628	3.82
238.011	0.34
238.394	4.05
238.777	3.02
239.16	1.66
239.543	2.86
239.925	3.81
240.308	5.44
240.691	3.35
241.073	3.14
241.456	2.79
241.838	3.46
242.221	3.36
242.603	4.2
242.986	3.53
243.368	3.82
243.75	3.15
244.133	3.4
244.515	3.96
244.897	3.41
245.279	3.98
245.661	3.43
246.043	3.9
246.425	4.14
246.807	4.22
247.189	3.71
247.571	3.77
247.953	3.74
248.335	3.44
248.717	3.6
249.098	3.45
249.48	3.39
249.862	3.53
250.243	3.29
250.625	3.35
251.006	3.52
251.388	3.86
251.769	4.05
252.151	3.8
252.532	3.47
252.913	2.79
253.295	3.28
253.676	3.11
254.057	3.08
254.438	3.3
254.819	3.54
255.2	2.32
255.581	4.15
255.962	3.65
256.343	3.02
256.724	3.67
257.105	3.31
257.486	4.13
257.867	5.05
258.247	3.82
258.628	3.34
259.009	2.91
259.389	3.72
259.77	3.46
260.15	2.95
260.531	3.45
260.911	2.75
261.292	3.18
261.672	2.94
262.052	3.21
262.432	3.45
262.813	3.21
263.193	2.56
263.573	2.91
263.953	3.28
264.333	4.18
264.713	3.79
265.093	2.64
265.473	3.22
265.853	2.69
266.233	3.54
266.612	3.75
266.992	3.57
267.372	2.25
267.752	3.5
268.131	3.55
268.511	3.23
268.89	3.37
269.27	3.54
269.649	2.96
270.029	3.02
270.408	2.74
270.787	3.09
271.167	2.94
271.546	3.57
271.925	3.72
272.304	3.08
272.683	3.3
273.062	2.99
273.441	3.12
273.82	2.9
274.199	3.15
274.578	2.72
274.957	3.21
275.336	2.48
275.715	3.28
276.093	2.93
276.472	2.4
276.851	2.84
277.229	2.98
277.608	3.25
277.986	3.48
278.365	3.1
278.743	3.08
279.122	3.42
279.5	3.44
279.878	3.18
280.257	2.25
280.635	2.7
281.013	2.61
281.391	3.07
281.769	2.91
282.147	2.55
282.525	3.29
282.903	3.24
283.281	3.63
283.659	2.58
284.037	3.1
284.415	2.58
284.792	3.05
285.17	2.61
285.548	3.04
285.925	3.14
286.303	3.07
286.68	3.31
287.058	2.82
287.435	2.81
287.813	2.79
288.19	2.89
288.567	2.81
288.945	2.74
289.322	3.09
289.699	3.08
290.076	2.8
290.453	2.44
290.83	3.05
291.207	2.72
291.584	3.26
291.961	3.27
292.338	3.19
292.715	3.21
293.092	2.83
293.469	2.64
293.845	2.28
294.222	2.57
294.599	2.38
294.975	2.97
295.352	3.14
295.728	2.93
296.105	3.05
296.481	2.78
296.858	2.88
297.234	3.23
297.61	3.11
297.986	2.49
298.363	2.58
298.739	2.8
299.115	2.76
299.491	2.79
299.867	2.71
300.243	2.8
300.619	2.84
300.995	3.03
301.371	3.21
301.746	2.78
302.122	2.94
302.498	2.81
302.874	2.79
303.249	2.38
303.625	2.6
304	2.46
304.376	2.8
304.751	3.14
305.127	2.33
305.502	3.27
305.878	2.84
306.253	2.76
306.628	2.53
307.003	2.67
307.378	2.7
307.754	2.91
308.129	2.51
308.504	2.66
308.879	2.48
309.254	2.77
309.629	2.56
310.003	2.78
310.378	2.45
310.753	3.01
311.128	2.43
311.502	2.07
311.877	2.91
312.252	2.34
312.626	2.82
313.001	2.55
313.375	2.62
313.75	2.8
314.124	2.63
314.498	2.49
314.873	2.73
315.247	2.43
315.621	3.04
315.995	2.84
316.369	2.98
316.743	3.21
317.117	2.84
317.491	2.63
317.865	2.28
318.239	2.61
318.613	3.1
318.987	2.6
319.361	2.48
319.734	2.59
320.108	2.57
320.482	1.97
320.855	3
321.229	2.44
321.602	2.37
321.976	2.14
322.349	3.25
322.723	2.57
323.096	2.73
323.469	2.37
323.843	2.82
324.216	2.51
324.589	2.77
324.962	2.73
325.335	2.49
325.708	2.13
326.081	2.86
326.454	2.63
326.827	2.41
327.2	2.43
327.573	2.26
327.945	2.76
328.318	2.64
328.691	2.55
329.063	2.44
329.436	2.9
329.809	2.59
330.181	2.49
330.553	2.43
330.926	2.64
331.298	2.87
331.671	2.54
332.043	2.62
332.415	2.9
332.787	2.32
333.159	2.06
333.532	2.07
333.904	2.95
334.276	2.54
334.648	3.13
335.02	1.91
335.391	2.85
335.763	2.54
336.135	2.75
336.507	2.86
336.879	2.68
337.25	3.4
337.622	2.47
337.993	3.09
338.365	2.75
338.736	3.05
339.108	2.85
339.479	2.57
339.851	2.49
340.222	2.45
340.593	2.69
340.964	2.97
341.336	2.51
341.707	2.36
342.078	2.71
342.449	2.38
342.82	2.45
343.191	2.31
343.562	2.79
343.933	3.21
344.303	2.94
344.674	2.85
345.045	2.14
345.416	2.51
345.786	2.9
346.157	2.79
346.527	2.7
346.898	2.94
347.268	1.89
347.639	2.76
348.009	3
348.38	2.18
348.75	2.35
349.12	2.06
349.49	2.73
349.861	2.41
350.231	2.79
350.601	2.83
350.971	2.64
351.341	2.62
351.711	2.29
352.081	2.76
352.45	2.8
352.82	2.73
353.19	2.63
353.56	3.08
353.929	2.65
354.299	3.14
354.669	2.75
355.038	2.87
355.408	2.45
355.777	2.53
356.147	2.47
356.516	2.6
356.885	2.5
357.254	2.6
357.624	2.79
357.993	2.42
358.362	2.52
358.731	2.53
359.1	2.7
359.469	2.71
359.838	2.72
360.207	2.35
360.576	2.88
360.945	2.83
361.314	3.01
361.682	2.52
362.051	2.81
362.42	2.69
362.788	2.64
363.157	2.59
363.525	2.69
363.894	2.58
364.262	2.86
364.631	3.14
364.999	2.65
365.367	2.66
365.735	2.79
366.104	2.77
366.472	2.82
366.84	2.32
367.208	2.71
367.576	2.51
367.944	2.87
368.312	2.82
368.68	2.3
369.048	2.67
369.416	2.5
369.783	2.51
370.151	2.53
370.519	3.28
370.886	2.77
371.254	2.8
371.621	3.01
371.989	2.77
372.356	2.43
372.724	2.62
373.091	2.76
373.458	2.87
373.826	2.81
374.193	2.56
374.56	2.55
374.927	3.12
375.294	2.77
375.661	2.78
376.028	2.38
376.395	2.99
376.762	2.97
377.129	2.88
377.496	3.27
377.863	2.84
378.229	2.59
378.596	2.81
378.963	2.97
379.329	2.55
379.696	2.91
380.062	3.31
380.429	2.58
380.795	2.9
381.161	2.75
381.528	3.04
381.894	2.68
382.26	2.91
382.626	2.69
382.993	2.94
383.359	3.05
383.725	2.72
384.091	2.94
384.457	3.18
384.823	2.9
385.188	2.77
385.554	2.82
385.92	2.81
386.286	3.1
386.651	3.07
387.017	2.87
387.383	2.73
387.748	2.82
388.114	2.77
388.479	3.36
388.845	3.02
389.21	3.48
389.575	3.24
389.94	2.93
390.306	2.92
390.671	3.08
391.036	2.88
391.401	3.11
391.766	2.96
392.131	3.04
392.496	3.03
392.861	3.01
393.226	2.72
393.591	3.04
393.956	3.07
394.32	2.8
394.685	3.03
395.05	3.2
395.414	3
395.779	3.04
396.143	2.93
396.508	3.09
396.872	3.03
397.236	3.08
397.601	3.12
397.965	2.98
398.329	2.97
398.694	3.2
399.058	2.97
399.422	3.07
399.786	3.08
400.15	2.9
400.514	3.15
400.878	2.96
401.242	3.34
401.605	3.06
401.969	3.03
402.333	3
402.697	3.14
403.06	3.4
403.424	2.96
403.787	3.13
404.151	3.22
404.514	2.86
404.878	3.07
405.241	3.13
405.604	3.18
405.968	3.05
406.331	2.99
406.694	2.9
407.057	3.08
407.42	3.22
407.783	3.05
408.146	3.12
408.509	3.31
408.872	3.09
409.235	3.28
409.598	3.18
409.961	3.27
410.323	3.18
410.686	3.27
411.049	3.15
411.411	3.01
411.774	3.12
412.136	3.43
412.499	3.22
412.861	3.3
413.223	3.12
413.586	3.08
413.948	3.28
414.31	3.21
414.672	3.39
415.035	3.24
415.397	3.18
415.759	3.11
416.121	3.24
416.483	3.14
416.845	3.23
417.206	3.19
417.568	3.38
417.93	3.35
418.292	3.1
418.653	3.37
419.015	3.2
419.377	3.17
419.738	3.19
420.1	3.31
420.461	3.15
420.822	3.05
421.184	3.22
421.545	3.1
421.906	3.2
422.267	3.07
422.629	3.29
422.99	3.11
423.351	3.06
423.712	3.16
424.073	3.25
424.434	3.11
424.795	3.22
425.155	3.28
425.516	3.33
425.877	3.17
426.238	3.17
426.598	3.19
426.959	3.15
427.32	3.14
427.68	3.24
428.041	3.33
428.401	3.37
428.761	3.24
429.122	3.16
429.482	3.26
429.842	3.1
430.202	3.31
430.563	3.31
430.923	3.49
431.283	3.18
431.643	3.46
432.003	3.64
432.363	3.42
432.722	3.36
433.082	3.47
433.442	3.22
433.802	3.31
434.161	3.28
434.521	3.34
434.881	3.39
435.24	3.28
435.6	3.49
435.959	3.36
436.319	3.31
436.678	3.44
437.037	3.37
437.396	3.49
437.756	3.53
438.115	3.19
438.474	3.46
438.833	3.62
439.192	3.43
439.551	3.42
439.91	3.49
440.269	3.47
440.628	3.6
440.987	3.47
441.345	3.38
441.704	3.4
442.063	3.33
442.421	3.44
442.78	3.47
443.138	3.43
443.497	3.42
443.855	3.32
444.214	3.45
444.572	3.45
444.93	3.31
445.288	3.39
445.647	3.35
446.005	3.49
446.363	3.43
446.721	3.42
447.079	3.46
447.437	3.34
447.795	3.39
448.153	3.29
448.51	3.42
448.868	3.39
449.226	3.42
449.584	3.43
449.941	3.45
450.299	3.57
450.656	3.51
451.014	3.57
451.371	3.59
451.729	3.57
452.086	3.43
452.443	3.66
452.801	3.69
453.158	3.52
453.515	3.48
453.872	3.54
454.229	3.51
454.586	3.53
454.943	3.51
455.3	3.42
455.657	3.45
456.014	3.59
456.371	3.63
456.727	3.53
457.084	3.57
457.441	3.52
457.797	3.48
458.154	3.48
458.51	3.48
458.867	3.42
459.223	3.58
459.58	3.82
459.936	3.47
460.292	3.52
460.648	3.52
461.005	3.46
461.361	3.56
461.717	3.53
462.073	3.57
462.429	3.64
462.785	3.59
463.141	3.63
463.496	3.63
463.852	3.64
464.208	3.66
464.564	3.61
464.919	3.71
465.275	3.75
465.631	3.74
465.986	3.84
466.342	3.66
466.697	3.82
467.052	3.6
467.408	3.68
467.763	3.75
468.118	3.93
468.473	3.81
468.829	3.58
469.184	3.61
469.539	3.62
469.894	3.74
470.249	3.82
470.603	3.78
470.958	3.68
471.313	3.64
471.668	3.63
472.023	3.48
472.377	3.67
472.732	3.82
473.086	3.69
473.441	3.73
473.795	3.79
474.15	3.78
474.504	3.75
474.859	3.7
475.213	3.68
475.567	3.67
475.921	3.7
476.275	3.75
476.63	3.8
476.984	3.65
477.338	3.8
477.692	3.83
478.045	3.57
478.399	3.73
478.753	3.8
479.107	3.75
479.461	3.83
479.814	3.78
480.168	3.74
480.521	3.72
480.875	3.79
481.228	3.94
481.582	3.71
481.935	3.79
482.289	3.68
482.642	3.77
482.995	3.78
483.348	3.65
483.701	3.75
484.055	3.59
484.408	3.78
484.761	3.72
485.114	3.49
485.466	3.46
485.819	3.4
486.172	3.45
486.525	3.58
486.878	3.67
487.23	3.68
487.583	3.74
487.936	3.73
488.288	3.66
488.641	3.65
488.993	3.63
489.345	3.52
489.698	3.54
490.05	3.59
490.402	3.6
490.754	3.71
491.107	3.71
491.459	3.78
491.811	3.67
492.163	3.79
492.515	3.86
492.866	3.7
493.218	3.62
493.57	3.58
493.922	3.59
494.274	3.62
494.625	3.75
494.977	3.83
495.328	3.88
495.68	3.74
496.031	3.79
496.383	3.92
496.734	3.85
497.086	3.96
497.437	3.94
497.788	3.89
498.139	3.83
498.49	3.79
498.842	3.93
499.193	3.86
499.544	3.9
499.894	3.71
500.245	3.89
500.596	3.83
500.947	3.83
501.298	3.86
501.648	3.94
501.999	4.01
502.35	3.89
502.7	3.78
503.051	3.98
503.401	3.88
503.752	3.96
504.102	3.9
504.452	3.95
504.803	3.92
505.153	3.94
505.503	3.86
505.853	3.9
506.203	3.86
506.553	3.89
506.903	3.93
507.253	3.88
507.603	3.92
507.953	3.91
508.303	3.98
508.652	3.86
509.002	4.05
509.352	3.98
509.701	3.84
510.051	3.88
510.4	3.95
510.75	3.84
511.099	3.93
511.449	3.88
511.798	3.81
512.147	3.97
512.496	3.95
512.846	3.83
513.195	3.99
513.544	3.8
513.893	3.96
514.242	3.87
514.591	3.81
514.939	3.95
515.288	3.92
515.637	3.99
515.986	3.98
516.334	3.98
516.683	3.9
517.032	3.87
517.38	3.99
517.729	3.96
518.077	4.06
518.426	3.94
518.774	3.99
519.122	3.95
519.47	3.92
519.819	3.85
520.167	3.88
520.515	3.87
520.863	3.81
521.211	3.82
521.559	3.93
521.907	3.94
522.255	3.96
522.602	3.98
522.95	3.92
523.298	3.98
523.645	3.96
523.993	3.97
524.341	3.95
524.688	4.01
525.036	3.89
525.383	4
525.73	3.98
526.078	3.95
526.425	3.94
526.772	3.86
527.119	3.88
527.466	3.82
527.814	3.87
528.161	3.85
528.508	3.87
528.854	3.84
529.201	3.86
529.548	3.79
529.895	3.75
530.242	3.71
530.588	3.65
530.935	3.71
531.282	3.79
531.628	3.8
531.975	3.89
532.321	4.04
532.667	3.93
533.014	3.98
533.36	3.96
533.706	3.89
534.052	3.91
534.399	3.91
534.745	3.8
535.091	3.75
535.437	3.75
535.783	3.81
536.129	3.99
536.474	3.92
536.82	3.95
537.166	4.03
537.512	3.98
537.857	3.95
538.203	3.89
538.549	3.78
538.894	3.92
539.239	3.96
539.585	3.92
539.93	4
540.276	4.04
540.621	4.02
540.966	4.08
541.311	3.86
541.656	4
542.001	4.04
542.346	3.85
542.691	3.83
543.036	3.69
543.381	3.76
543.726	3.74
544.071	3.79
544.415	3.88
544.76	3.96
545.105	3.9
545.449	3.91
545.794	3.93
546.138	3.92
546.483	4.02
546.827	4.03
547.171	4.01
547.516	3.92
547.86	3.92
548.204	3.99
548.548	3.89
548.892	3.85
549.236	3.97
549.58	3.97
549.924	4.11
550.268	4.14
550.612	3.95
550.956	4.03
551.3	3.94
551.643	4.13
551.987	4.1
552.33	4.13
552.674	4.09
553.017	4.14
553.361	4.16
553.704	4.03
554.048	4.12
554.391	3.83
554.734	3.98
555.077	4.05
555.42	4.06
555.764	4.13
556.107	3.97
556.45	4.06
556.793	4.11
557.135	4.1
557.478	3.88
557.821	4.02
558.164	4.11
558.507	4.04
558.849	4.19
559.192	4.04
559.534	3.96
559.877	4.06
560.219	4.17
560.562	4.15
560.904	4.27
561.246	3.97
561.589	4.06
561.931	3.92
562.273	4.02
562.615	3.96
562.957	4.11
563.299	4
563.641	4.1
563.983	4.25
564.325	4.04
564.667	3.98
565.008	4.01
565.35	4.02
565.692	4.09
566.033	4.21
566.375	3.98
566.716	4.22
567.058	4.11
567.399	4.07
567.741	4.14
568.082	4.13
568.423	4.08
568.764	3.84
569.105	4
569.447	4.3
569.788	4.14
570.129	4.16
570.47	4.04
570.811	4.19
571.151	4.17
571.492	4.23
571.833	4.05
572.174	4.2
572.514	4.04
572.855	4
573.195	3.98
573.536	4.03
573.876	3.96
574.217	3.99
574.557	3.98
574.898	4.02
575.238	3.93
575.578	4.19
575.918	3.92
576.258	4.12
576.598	3.98
576.938	4.02
577.278	3.91
577.618	3.92
577.958	4.1
578.298	4.01
578.638	3.97
578.977	4.16
579.317	4.31
579.657	3.99
579.996	4.07
580.336	3.98
580.675	3.88
581.014	4
581.354	4.05
581.693	4.5
582.032	4.18
582.372	4.18
582.711	4.15
583.05	4.03
583.389	4.04
583.728	3.96
584.067	4.54
584.406	4.22
584.745	4.25
585.083	4.08
585.422	4.26
585.761	4.26
586.1	4.12
586.438	3.83
586.777	4.15
587.115	4.09
587.454	4.14
587.792	4.41
588.13	4.32
588.469	4.28
588.807	4.3
589.145	4.16
589.483	3.97
589.821	4.31
590.159	4.16
590.497	4.15
590.835	4.01
591.173	4.07
591.511	4.14
591.849	3.92
592.187	4.02
592.524	4.09
592.862	4.17
593.2	4.25
593.537	4.05
593.875	4.18
594.212	4.12
594.55	3.98
594.887	4.13
595.224	4.19
595.561	3.89
595.899	4.14
596.236	4.19
596.573	4.17
596.91	3.95
597.247	4.18
597.584	3.87
597.921	4.21
598.258	4.23
598.594	3.82
598.931	4.12
599.268	4.24
599.604	4
599.941	4.19
600.277	3.88
600.614	4.28
600.95	4.1
601.287	4.02
601.623	4.11
601.959	3.97
602.296	4.39
602.632	4.23
602.968	4.24
603.304	4.14
603.64	4.11
603.976	3.89
604.312	4.33
604.648	3.8
604.984	4.1
605.319	4.03
605.655	3.95
605.991	4.12
606.326	4.13
606.662	4.04
606.998	3.95
607.333	3.88
607.668	4.1
608.004	4.16
608.339	4.06
608.674	4.14
609.01	4.22
609.345	4.21
609.68	4.29
610.015	4.04
610.35	4.2
610.685	4.16
611.02	4.11
611.355	4.01
611.689	4.01
612.024	4.08
612.359	3.98
612.694	4.09
613.028	3.98
613.363	4.38
613.697	4.01
614.032	3.99
614.366	3.97
614.7	3.78
615.035	4.1
615.369	4.03
615.703	4.28
616.037	4.1
616.371	4.31
616.705	4.14
617.039	4.24
617.373	4.32
617.707	4.37
618.041	4.22
618.375	4.19
618.709	4.28
619.042	4.2
619.376	4.28
619.71	4.22
620.043	4.29
620.377	4.57
620.71	4.51
621.043	3.73
621.377	4.08
621.71	4.5
622.043	4.5
622.376	4.15
622.709	4.23
623.043	4.16
623.376	4.1
623.709	4.19
624.041	4.15
624.374	4.04
624.707	3.91
625.04	4.38
625.373	4.44
625.705	4.08
626.038	4.17
626.37	4.47
626.703	4.08
627.035	4.1
627.368	4.08
627.7	3.85
628.032	4.2
628.365	4.5
628.697	4.13
629.029	3.93
629.361	4.17
629.693	4.09
630.025	4.28
630.357	4.11
630.689	4.52
631.021	4.32
631.353	4.14
631.684	4.34
632.016	4.26
632.348	4.32
632.679	4.53
633.011	4.08
633.342	4.13
633.674	4.22
634.005	4.14
634.336	4.36
634.668	4.05
634.999	4.1
635.33	3.95
635.661	4.33
635.992	4.16
636.323	4.24
636.654	3.86
636.985	4.16
637.316	4.36
637.647	4.12
637.977	4.53
638.308	4.25
638.639	4.39
638.969	4.28
639.3	4.24
639.63	4.22
639.961	4.43
640.291	4.39
640.622	4.41
640.952	4.39
641.282	4.22
641.612	4.46
641.943	4.32
642.273	4.03
642.603	4.49
642.933	4.57
643.263	4.12
643.592	4.26
643.922	4.49
644.252	4.5
644.582	3.94
644.911	4.17
645.241	4.13
645.571	4.11
645.9	4.42
646.23	4.51
646.559	4.72
646.888	4.09
647.218	4.6
647.547	4.52
647.876	4.48
648.205	3.98
648.534	4.44
648.863	4.39
649.192	4.46
649.521	4.32
649.85	4.25
650.179	4.19
650.508	4.46
650.837	4.55
651.165	4.54
651.494	4.16
651.822	4.13
652.151	4.49
652.479	4.28
652.808	3.91
653.136	4.42
653.465	4.09
653.793	4.66
654.121	4.2
654.449	4.16
654.777	4.34
655.105	4.21
655.433	4.33
655.761	4.61
656.089	4.67
656.417	4.14
656.745	3.89
657.073	4.02
657.4	4.38
657.728	4.56
658.056	3.88
658.383	4.66
658.711	4.15
659.038	3.98
659.365	4.95
659.693	4.61
660.02	4.68
660.347	4.01
660.674	4.35
661.001	4.31
661.329	4.58
661.656	4.28
661.982	3.85
662.309	4.44
662.636	4.63
662.963	4.4
663.29	4.11
663.616	4.45
663.943	4.61
664.27	4.84
664.596	4.66
664.923	4.52
665.249	5.25
665.576	4.53
665.902	3.62
666.228	4.06
666.554	5.23
666.881	4
667.207	4.77
667.533	4.5
667.859	4.39
668.185	4.19
668.511	4.62
668.837	4.53
669.162	4.53
669.488	3.68
669.814	3.9
670.139	4.47
670.465	4.53
670.791	4.25
671.116	3.94
671.442	4.47
671.767	5.04
672.092	4.3
672.418	4.33
672.743	4.84
673.068	4.4
673.393	4.81
673.718	4.99
674.043	4.44
674.368	4.13
674.693	4.41
675.018	4.04
675.343	5.03
675.667	4.97
675.992	4.48
676.317	4.55
676.641	4.78
676.966	4.03
677.29	4.73
677.615	4.89
677.939	4.68
678.264	4.83
678.588	4.65
678.912	4.48
679.236	4.36
679.56	4.52
679.885	4.53
680.209	4.59
680.532	4.76
680.856	4.27
681.18	4.44
681.504	4.43
681.828	4.37
682.152	5.12
682.475	4.61
682.799	5.04
683.122	4.58
683.446	4.99
683.769	3.91
684.093	5.27
684.416	4.28
684.739	4.53
685.062	5.06
685.386	4.44
685.709	4.57
686.032	4.63
686.355	5.88
686.678	5.16
687.001	4.67
687.324	5.06
687.646	4.79
687.969	4.6
688.292	4.23
688.614	5.01
688.937	4.94
689.26	4.61
689.582	5.28
689.904	4.96
690.227	4.67
690.549	4.55
690.871	4.5
691.194	4.83
691.516	4.89
691.838	4.22
692.16	4.99
692.482	4.08
692.804	4.71
693.126	5.32
693.448	4.61
693.769	4.97
694.091	4.55
694.413	3.89
694.735	5.26
695.056	3.96
695.378	5.19
695.699	5.76
696.021	5.66
696.342	5.21
696.663	4.29
696.984	4.94
697.306	4.66
697.627	5.13
697.948	4.04
698.269	4.92
698.59	5.18
698.911	5.09
699.232	4.81
699.553	5
699.873	4.31
700.194	4.28
700.515	4.73
700.835	4.53
701.156	4.65
701.477	4.83
701.797	5.06
702.117	5.22
702.438	5.42
702.758	5.1
703.078	4.65
703.398	5.13
703.719	4.19
704.039	5.08
704.359	6.12
704.679	4.37
704.999	5.73
705.319	4.85
705.638	5.26
705.958	4.61
706.278	4.56
706.597	4.64
706.917	4.49
707.237	4.9
707.556	4.88
707.876	4.61
708.195	4.77
708.514	4.93
708.834	4.95
709.153	5.12
709.472	5.72
709.791	4.29
710.11	5.12
710.429	5.7
710.748	5.22
711.067	5
711.386	4.81
711.705	4.72
712.023	5.6
712.342	4.98
712.661	4.36
712.979	4.54
713.298	5.2
713.616	4.52
713.935	4.06
714.253	5.48
714.572	4.78
714.89	4.66
715.208	5.88
715.526	5.07
715.844	5.33
716.162	5.09
716.48	4.85
716.798	5.37
717.116	5.48
717.434	4.86
717.752	4.14
718.069	4.94
718.387	4.03
718.705	5.35
719.022	5.67
719.34	6.18
719.657	5.73
719.975	5.09
720.292	6.24
720.609	5.59
720.927	5.13
721.244	5.09
721.561	6.23
721.878	4.42
722.195	5.66
722.512	4.77
722.829	6.37
723.146	4.3
723.463	5.89
723.779	5.28
724.096	5.84
724.413	4.91
724.729	4.52
725.046	3.92
725.362	4.73
725.679	5
725.995	5.19
726.311	5.27
726.628	5.34
726.944	4.57
727.26	5.73
727.576	5.26
727.892	5.72
728.208	5.98
728.524	4.61
728.84	4.69
729.156	5.54
729.472	6.01
729.787	4.6
730.103	4.61
730.419	5.77
730.734	4.41
731.05	5.64
731.365	4.3
731.681	5.3
731.996	7
732.311	5.88
732.626	5.52
732.942	5.31
733.257	5.08
733.572	6.02
733.887	5.41
734.202	5.42
734.517	4.69
734.832	8.43
735.146	5.16
735.461	5.57
735.776	4.53
736.091	5.36
736.405	4.69
736.72	3.61
737.034	4.29
737.349	4.5
737.663	6.02
737.977	4.99
738.292	6.63
738.606	5.98
738.92	5.24
739.234	5.48
739.548	5.74
739.862	6.44
740.176	5.24
740.49	3.48
740.804	6.37
741.117	6.11
741.431	6.57
741.745	5.7
742.058	5.73
742.372	3.69
742.685	5.87
742.999	5.41
743.312	6.6
743.626	6.32
743.939	6.76
744.252	4.35
744.565	3.47
744.878	5.15
745.191	7.31
745.505	5.15
745.817	4.96
746.13	3.75
746.443	5.25
746.756	3.98
747.069	6.5
747.381	5.89
747.694	6.37
748.007	5.38
748.319	4.65
748.632	5.59
748.944	5.49
749.256	4.37
749.569	4.78
749.881	5.48
750.193	6.83
750.505	6
750.817	5.94
751.129	5.15
751.441	6.39
751.753	3.9
752.065	6.97
752.377	2.59
752.689	5.97
753	3.04
753.312	7.02
753.624	6.61
753.935	7.82
754.247	5.2
754.558	4.31
754.869	3.89
755.181	6.81
755.492	6.54
755.803	4.99
756.114	7.71
756.425	3.88
756.736	6.13
757.047	5.85
757.358	5.64
757.669	6.58
757.98	6.94
758.291	6.61
758.601	5.59
758.912	6.88
759.223	6.78
759.533	6.67
759.844	4.38
760.154	6.8
760.464	6.67
760.775	6.1
761.085	4.85
761.395	5.99
761.705	4.91
762.016	6.35
762.326	6.79
762.636	6.42
762.945	7.21
763.255	6.52
763.565	7.84
763.875	8.65
764.185	5.39
764.494	6.21
764.804	7.03
765.113	6.14
765.423	7.53
765.732	6.24
766.042	5.92
766.351	6.27
766.66	7.47
766.97	5.34
767.279	5.26
767.588	6.09
767.897	5.23
768.206	7.65
768.515	6.75
768.824	5.85
769.133	6.5
769.441	5.24
769.75	7.68
770.059	4.81
770.367	4.74
770.676	5.02
770.984	8.47
771.293	6.72
771.601	5.82
771.91	7.84
772.218	5.04
772.526	5.98
772.834	5.52
773.142	6.11
773.45	6.28
773.758	2.75
774.066	3.84
774.374	5.94
774.682	4.79
774.99	7.24
775.298	4.64
775.605	5.18
775.913	7.66
776.22	6.42
776.528	7.35
776.835	7.45
777.143	6.37
777.45	7.22
777.757	4.07
778.065	5.21
778.372	6.27
778.679	9.5
778.986	7.67
779.293	7.24
779.6	6.36
779.907	7.96
780.214	5.09
780.52	4.72
780.827	6.39
781.134	6.06
781.44	2.7
781.747	5.81
782.053	3.79
782.36	8.22
782.666	3.99
782.973	4.54
783.279	6.46
783.585	3.75
783.891	6.97
784.197	6.58
784.503	8.59
784.809	7.57
785.115	6.83
785.421	6.74
785.727	7.31
786.033	0.59
786.339	4.63
786.644	7.11
786.95	3.84
787.255	2.36
787.561	4.48
787.866	3.2
788.172	5.84
788.477	5.49
788.782	6.69
789.088	9.15
789.393	8.01
789.698	2.74
790.003	4.19
790.308	8.36
790.613	3.96
790.918	6.21
791.223	7.6
791.527	7.11
791.832	5.5
792.137	6.52
792.441	8.53
792.746	5.08
793.05	5.53
793.355	1.84
793.659	5.93
793.963	8.79
794.268	7.61
794.572	12.87
794.876	4.58
795.18	7.47
795.484	1.58
795.788	4.51
796.092	6.17
796.396	7.8
796.7	5.43
797.004	11
797.307	8.25
797.611	3.21
797.915	10.43
798.218	2.28
798.522	4.4
798.825	6.27
799.128	4.88
799.432	7.26
799.735	7.69
800.038	4.49
800.341	7.21
800.644	6.5
800.947	7.08
801.25	7.88
801.553	6.66
801.856	6.73
802.159	7.08
802.462	5.36
802.764	6.2
803.067	0.85
803.37	2.13
803.672	8.85
803.975	10.96
804.277	9.41
804.579	7.03
804.882	4.91
805.184	8.4
805.486	8.13
805.788	8.58
806.09	2.43
806.392	2.72
806.694	8.07
806.996	4.51
807.298	5.44
807.6	6.27
807.902	6.69
808.203	1.58
808.505	9.14
808.807	6.62
809.108	11
809.409	8.37
809.711	0.93
810.012	9.1
810.313	5.37
810.615	6.2
810.916	1.76
811.217	8.49
811.518	7.54
811.819	6.88
812.12	4.98
812.421	12.09
812.722	7.8
813.023	4.35
813.323	11.44
813.624	9.65
813.925	3.63
814.225	5.08
814.526	6.54
814.826	2.32
815.126	6.79
815.427	6.08
815.727	2.91
816.027	3.58
816.327	7.85
816.627	2.76
816.927	1.03
817.227	5.83
817.527	-1.8
817.827	6.3
818.127	8.55
818.427	12.68
818.727	6.25
819.026	-0.43
819.326	3.81
819.625	5.15
819.925	1.72
820.224	8.61
820.524	14.11
820.823	7.52
821.122	8.41
821.421	4.9
821.72	9.29
822.019	9.46
822.318	8.09
822.617	5.39
822.916	6.43
823.215	3.24
823.514	7.5
823.813	8.07
824.111	10.12
824.41	6.67
824.709	8.04
825.007	7.71
825.306	7.47
825.604	9.22
825.902	8.2
826.201	8.62
826.499	7.56
826.797	7.97
827.095	8.44
827.393	6.08
827.691	7.46
827.989	7.46
828.287	7.98
828.585	8.67
828.882	4.74
829.18	6.83
829.478	7.28
829.775	8.93
830.073	7.51
830.37	9.36
830.668	7.58
830.965	7.41
831.263	7.63
831.56	8.41
831.857	7.19
832.154	10.97
832.451	6.11
832.748	9.39
833.045	10.8
833.342	9.76
833.639	11.08
833.936	8.43
834.232	9.07
834.529	17.14
834.826	6.75
835.122	12.02
835.419	7.51
835.715	5.33
836.012	10.22
836.308	2.83
836.604	8.23
836.901	6.59
837.197	8.07
837.493	6.29
837.789	10.21
838.085	8.05
838.381	7.83
838.677	12.86
838.972	4.91
839.268	11.15
839.564	7.73
839.86	5.74
840.155	9.79
840.451	7.35
840.746	6.89
841.042	-1.3
841.337	-1.9
841.632	4.04
841.928	0.94
842.223	5.4
842.518	11.03
842.813	10.07
843.108	7.98
843.403	10.65
843.698	1.78
843.993	15.48
844.287	6.86
844.582	7.29
844.877	9.48
845.171	2.43
845.466	-0.85
845.761	5.05
846.055	4.74
846.349	13.18
846.644	8.1
846.938	-8.44
847.232	-6.79
847.526	9.21
847.82	1.98
848.114	17.84
848.408	4.65
848.702	-2.87
848.996	-4.12
849.29	-1.78
849.584	6.48
849.877	6.75
850.171	12.96
850.465	19.45
850.758	-8.47
851.052	26.4
851.345	2.8
851.638	5.06
851.932	10.21
852.225	-1.65
852.518	9.1
852.811	15.24
853.104	22.66
853.397	-22.8
853.69	13.03
853.983	-0.86
854.276	8.73
854.569	-3.41
854.861	-35.48
855.154	-1.08
855.447	-14.47
855.739	12.2
856.032	5.57
856.324	20.82
856.616	15.98
856.909	16.99
857.201	-5.74
857.493	15.74
857.785	22.56
858.077	-8.81
858.369	23.66
858.661	10.56
858.953	-8.42
859.245	-0.35
859.537	5.63
859.829	7.6
860.12	5.45
860.412	1.05
860.703	-28.72
860.995	-34.29
861.286	0.15
861.578	26.75
861.869	9.27
862.16	18.58
862.452	0.85
862.743	38.86
863.034	-3.12
863.325	3.48
863.616	14.59
863.907	-18.97
864.198	-3.56
864.488	-1.78
864.779	14.95
865.07	16.36
865.36	-7.21
865.651	-8.57
865.941	-14.22
866.232	-9.63
866.522	6.16
866.813	1.38
867.103	8.45
867.393	-12.52
867.683	-10.4
867.973	-9.02
868.263	-3.23
868.553	8.04
868.843	13.19
869.133	0.29
869.423	5.79
869.713	3.29
870.002	-3.37
870.292	-16.91
870.582	9.84
870.871	-5.29
871.161	26.52
871.45	10.08
871.739	-0.03
872.029	-8.27
872.318	-11.18
872.607	1.32
872.896	17.36
873.185	-3.2
873.474	-3.65
873.763	12.32
874.052	-10.56
874.341	0.2
874.63	11.18
874.918	26.37
875.207	18.47
875.496	-17.3
875.784	-1.03
876.073	-0.03
876.361	5.49
876.649	-6.51
876.938	23.4
877.226	21.23
877.514	15.05
877.802	-21.54
878.09	-46.18
878.378	15.77
878.666	-3.12
878.954	10.72
879.242	5.48
879.53	-8.11
879.817	6.3
880.105	-11.08
880.392	4.04
880.68	-35.46
880.967	-10.94
881.255	20.92
881.542	-1.22
881.83	3.48
882.117	-1.15
882.404	7.41
882.691	12.68
882.978	17.85
883.265	5.93
883.552	-3.94
883.839	-0.86
884.126	9.91
884.413	13.75
884.699	-1.31
884.986	11.4
885.273	7.88
885.559	7.88
885.846	7.88
