Data from 0045_forehead_Reflection__3__164.txt Node

Date: Fri Nov 04 16:10:02 CDT 2022
User: ToomeyLab
Spectrometer: FLMS14357
Trigger mode: 0
Integration Time (sec): 1.000000E-2
Scans to average: 100
Electric dark correction enabled: true
Nonlinearity correction enabled: false
Boxcar width: 0
XAxis mode: Wavelengths
Number of Pixels in Spectrum: 2048
>>>>>Begin Spectral Data<<<<<
189.047	78.32
189.435	78.32
189.823	78.32
190.211	-70.57
190.599	-142.35
190.987	238.28
191.375	74.61
191.763	-6.27
192.151	73.45
192.538	-163.41
192.926	131.05
193.314	150.6
193.702	47.68
194.089	146.4
194.477	134.15
194.864	144.46
195.252	301.53
195.639	96.17
196.027	-19.35
196.414	5.98
196.801	80.3
197.189	105.09
197.576	70.12
197.963	-156.57
198.351	-33.21
198.738	36.06
199.125	41.49
199.512	-16.71
199.899	57.7
200.286	-28.53
200.673	27.46
201.06	5.11
201.447	-10.12
201.833	-3.14
202.22	18.05
202.607	48.57
202.994	63.6
203.38	39.24
203.767	-3.26
204.154	71.77
204.54	-75.07
204.927	-31.45
205.313	28.57
205.699	-0.4
206.086	-25.09
206.472	11.24
206.858	-26.21
207.245	35.25
207.631	-0.52
208.017	41.49
208.403	32.44
208.789	44.03
209.175	37.13
209.561	-131.58
209.947	-38.11
210.333	33.18
210.719	27.34
211.105	9.4
211.491	-21.77
211.876	28.69
212.262	-20.05
212.648	2.96
213.034	48.98
213.419	22.34
213.805	-19.57
214.19	-30.69
214.576	-0.69
214.961	44.69
215.346	35.51
215.732	34.06
216.117	10.59
216.502	32.18
216.888	-1.5
217.273	-6.81
217.658	-8.94
218.043	9.39
218.428	34.15
218.813	7.7
219.198	14.78
219.583	-2.04
219.968	20.27
220.353	-0.87
220.738	-19.62
221.122	13.29
221.507	16.62
221.892	-23.63
222.276	-2.85
222.661	22.19
223.046	23.04
223.43	-8.06
223.815	5.39
224.199	13.23
224.583	-0.88
224.968	7.85
225.352	11.29
225.736	-1.47
226.121	-2.35
226.505	9.45
226.889	11.94
227.273	6.54
227.657	-2.71
228.041	5.71
228.425	6.95
228.809	3.97
229.193	5.16
229.577	4.18
229.961	4.53
230.344	4.7
230.728	4.1
231.112	3.84
231.495	4.11
231.879	4.2
232.263	2.87
232.646	3.35
233.03	5.27
233.413	3.19
233.797	4.32
234.18	2.75
234.563	7.01
234.946	2.88
235.33	5.04
235.713	4.62
236.096	4.04
236.479	3.06
236.862	3.53
237.245	3.57
237.628	2.87
238.011	2.07
238.394	4.41
238.777	4.41
239.16	3.69
239.543	3.13
239.925	5.08
240.308	5.71
240.691	3.72
241.073	4.32
241.456	3.28
241.838	4.69
242.221	3.9
242.603	4.52
242.986	4.02
243.368	3.98
243.75	4.16
244.133	3.92
244.515	4.16
244.897	3.85
245.279	3.93
245.661	4.59
246.043	4.98
246.425	4.35
246.807	5.06
247.189	3.67
247.571	4.43
247.953	4.35
248.335	3.85
248.717	3.96
249.098	4.31
249.48	4.19
249.862	4.41
250.243	4.35
250.625	4.01
251.006	4.45
251.388	4.41
251.769	5.09
252.151	4.94
252.532	4.35
252.913	3.85
253.295	4.81
253.676	4.01
254.057	4.27
254.438	4.03
254.819	4.49
255.2	3.46
255.581	5.03
255.962	5.22
256.343	4.54
256.724	5.1
257.105	4.66
257.486	5.34
257.867	5.69
258.247	5.45
258.628	3.47
259.009	4.28
259.389	3.97
259.77	4.76
260.15	5.21
260.531	4.51
260.911	4.16
261.292	4.11
261.672	4.22
262.052	4.26
262.432	4.16
262.813	3.86
263.193	3.76
263.573	4.34
263.953	4.07
264.333	4.64
264.713	4.85
265.093	4.33
265.473	4.83
265.853	4
266.233	5
266.612	5.21
266.992	5.33
267.372	3.58
267.752	4.26
268.131	4.71
268.511	4.69
268.89	4.83
269.27	4.32
269.649	4.45
270.029	4.3
270.408	4.4
270.787	4.54
271.167	4.25
271.546	5.28
271.925	4.64
272.304	4.45
272.683	4.67
273.062	4.55
273.441	4.47
273.82	3.77
274.199	4.57
274.578	4.08
274.957	4.13
275.336	4.13
275.715	3.94
276.093	4.75
276.472	4.51
276.851	4.13
277.229	3.81
277.608	4.45
277.986	4.45
278.365	4.75
278.743	4.83
279.122	4.27
279.5	4.72
279.878	4.65
280.257	4.51
280.635	4.06
281.013	4.68
281.391	4.52
281.769	4.26
282.147	4.29
282.525	4.76
282.903	4.47
283.281	4.8
283.659	4.31
284.037	4
284.415	4.36
284.792	4.55
285.17	4.09
285.548	4.87
285.925	4.74
286.303	4.69
286.68	4.87
287.058	4.41
287.435	4.37
287.813	4.37
288.19	4.4
288.567	4.51
288.945	4.63
289.322	4.48
289.699	4.92
290.076	4.99
290.453	4.38
290.83	4.96
291.207	4.45
291.584	4.94
291.961	4.8
292.338	5.05
292.715	4.91
293.092	4.89
293.469	5.14
293.845	4.36
294.222	4.94
294.599	4.97
294.975	5.45
295.352	5.28
295.728	5.38
296.105	5.44
296.481	4.77
296.858	5.34
297.234	5.52
297.61	5.65
297.986	4.97
298.363	5.11
298.739	5.25
299.115	5.75
299.491	5.29
299.867	5.46
300.243	5.27
300.619	5.62
300.995	6.1
301.371	6.11
301.746	6.23
302.122	5.91
302.498	5.61
302.874	6.18
303.249	5.61
303.625	6.02
304	5.98
304.376	6.08
304.751	5.65
305.127	5.6
305.502	6.7
305.878	5.94
306.253	6.31
306.628	5.94
307.003	6.24
307.378	6.35
307.754	6.37
308.129	6.08
308.504	6.41
308.879	6.35
309.254	6.66
309.629	7
310.003	6.56
310.378	6.68
310.753	6.97
311.128	6.56
311.502	6.46
311.877	6.65
312.252	6.87
312.626	6.89
313.001	6.87
313.375	7.1
313.75	6.86
314.124	6.8
314.498	7.64
314.873	7.52
315.247	7.66
315.621	7.41
315.995	7.96
316.369	7.45
316.743	7.75
317.117	7.71
317.491	7.96
317.865	7.93
318.239	7.42
318.613	8.22
318.987	8.33
319.361	8.07
319.734	8.13
320.108	7.66
320.482	7.16
320.855	8.32
321.229	7.98
321.602	8.14
321.976	8.44
322.349	9.08
322.723	8.26
323.096	8.62
323.469	8.15
323.843	8.55
324.216	8.46
324.589	8.64
324.962	9.16
325.335	8.78
325.708	8.36
326.081	9.11
326.454	8.9
326.827	8.83
327.2	8.85
327.573	9.04
327.945	9.16
328.318	8.76
328.691	9.37
329.063	8.96
329.436	9.22
329.809	9.17
330.181	9.01
330.553	9.14
330.926	9.5
331.298	9.52
331.671	8.98
332.043	9.29
332.415	9.3
332.787	9.42
333.159	9.43
333.532	9.45
333.904	10.05
334.276	9.74
334.648	9.88
335.02	9.5
335.391	10.13
335.763	9.82
336.135	9.75
336.507	9.99
336.879	10.39
337.25	10.49
337.622	9.93
337.993	10.31
338.365	9.97
338.736	10.14
339.108	10.49
339.479	10.46
339.851	9.88
340.222	10.44
340.593	10.61
340.964	10.26
341.336	9.94
341.707	10.21
342.078	10.59
342.449	10.65
342.82	10.95
343.191	10.37
343.562	10.96
343.933	10.99
344.303	10.62
344.674	11.04
345.045	10.37
345.416	10.51
345.786	11.53
346.157	11.13
346.527	11.16
346.898	11.33
347.268	11.06
347.639	11.4
348.009	11.79
348.38	11.29
348.75	11.24
349.12	11.22
349.49	11.35
349.861	11.19
350.231	11.63
350.601	11.6
350.971	11.62
351.341	11.97
351.711	11.78
352.081	11.84
352.45	11.88
352.82	12.3
353.19	11.96
353.56	12.34
353.929	11.87
354.299	12.51
354.669	12.32
355.038	12.53
355.408	12.12
355.777	12.26
356.147	12.21
356.516	12.27
356.885	12.42
357.254	12.44
357.624	12.6
357.993	12.56
358.362	12.46
358.731	12.56
359.1	12.75
359.469	12.65
359.838	12.71
360.207	12.9
360.576	12.49
360.945	12.96
361.314	13.02
361.682	12.93
362.051	12.77
362.42	13.1
362.788	12.95
363.157	13.27
363.525	12.94
363.894	13.05
364.262	13.35
364.631	13.41
364.999	13.43
365.367	13.34
365.735	13.74
366.104	13.21
366.472	13.62
366.84	13.21
367.208	13.59
367.576	13.5
367.944	14
368.312	13.66
368.68	13.85
369.048	13.81
369.416	13.77
369.783	13.79
370.151	13.78
370.519	14.5
370.886	14.08
371.254	14.34
371.621	14.23
371.989	14.34
372.356	14.33
372.724	14.69
373.091	14.29
373.458	14.3
373.826	14.52
374.193	14.2
374.56	14.25
374.927	14.64
375.294	14.25
375.661	14.63
376.028	14.58
376.395	14.96
376.762	15.29
377.129	14.88
377.496	14.99
377.863	14.96
378.229	14.74
378.596	14.83
378.963	15.18
379.329	14.86
379.696	14.94
380.062	15.13
380.429	15.23
380.795	15.38
381.161	15.45
381.528	15.41
381.894	15.52
382.26	15.55
382.626	15.65
382.993	15.83
383.359	15.53
383.725	15.68
384.091	16.03
384.457	15.98
384.823	15.69
385.188	15.91
385.554	15.92
385.92	15.94
386.286	16.01
386.651	16
387.017	16
387.383	16.32
387.748	16.03
388.114	16.02
388.479	16.38
388.845	16.38
389.21	16.82
389.575	16.52
389.94	16.6
390.306	16.48
390.671	16.69
391.036	16.5
391.401	17.02
391.766	16.59
392.131	16.64
392.496	16.87
392.861	16.89
393.226	16.83
393.591	17.11
393.956	17.05
394.32	17.04
394.685	17.18
395.05	17.21
395.414	17.13
395.779	17.24
396.143	17.18
396.508	17.32
396.872	17.44
397.236	17.42
397.601	17.33
397.965	17.44
398.329	17.48
398.694	17.6
399.058	17.49
399.422	17.98
399.786	17.63
400.15	17.78
400.514	17.82
400.878	17.88
401.242	17.99
401.605	17.97
401.969	17.83
402.333	18.12
402.697	18.42
403.06	18.06
403.424	18.25
403.787	18.35
404.151	18.26
404.514	18.29
404.878	18.34
405.241	18.6
405.604	18.47
405.968	18.27
406.331	18.23
406.694	18.28
407.057	18.29
407.42	18.55
407.783	18.53
408.146	18.5
408.509	18.98
408.872	19.06
409.235	19.08
409.598	19
409.961	19.12
410.323	19.11
410.686	19.29
411.049	19.21
411.411	19.01
411.774	19.16
412.136	19.24
412.499	19.2
412.861	19.3
413.223	19.48
413.586	19.44
413.948	19.61
414.31	19.39
414.672	19.33
415.035	19.85
415.397	19.49
415.759	19.84
416.121	19.72
416.483	19.85
416.845	19.93
417.206	19.63
417.568	19.95
417.93	19.94
418.292	19.9
418.653	20.04
419.015	19.86
419.377	19.95
419.738	19.84
420.1	19.94
420.461	19.96
420.822	19.71
421.184	20
421.545	19.97
421.906	19.98
422.267	19.83
422.629	19.96
422.99	19.86
423.351	19.82
423.712	20.04
424.073	20.2
424.434	20.14
424.795	20.25
425.155	20.32
425.516	20.23
425.877	20.23
426.238	20.33
426.598	20.33
426.959	20.31
427.32	20.41
427.68	20.51
428.041	20.62
428.401	20.78
428.761	20.99
429.122	20.94
429.482	21.06
429.842	21.21
430.202	21.24
430.563	21.33
430.923	21.52
431.283	21.22
431.643	21.57
432.003	21.59
432.363	21.57
432.722	21.47
433.082	21.66
433.442	21.48
433.802	21.59
434.161	21.57
434.521	21.7
434.881	21.7
435.24	21.67
435.6	21.88
435.959	21.77
436.319	21.69
436.678	21.95
437.037	22.05
437.396	22.09
437.756	22.16
438.115	22.1
438.474	22.07
438.833	22.26
439.192	22.26
439.551	22.22
439.91	22.27
440.269	22.17
440.628	22.29
440.987	22.29
441.345	22.37
441.704	22.29
442.063	22.19
442.421	22.27
442.78	22.23
443.138	22.43
443.497	22.39
443.855	22.4
444.214	22.74
444.572	22.55
444.93	22.67
445.288	22.87
445.647	22.84
446.005	22.7
446.363	22.88
446.721	22.78
447.079	22.81
447.437	22.67
447.795	22.61
448.153	22.66
448.51	22.78
448.868	22.74
449.226	22.9
449.584	22.96
449.941	22.99
450.299	23.11
450.656	23.21
451.014	23.38
451.371	23.51
451.729	23.53
452.086	23.62
452.443	23.76
452.801	23.75
453.158	23.95
453.515	23.94
453.872	23.9
454.229	23.95
454.586	23.92
454.943	24.05
455.3	23.92
455.657	24.04
456.014	24.03
456.371	24.03
456.727	24.15
457.084	24.18
457.441	24.46
457.797	24.35
458.154	24.4
458.51	24.38
458.867	24.41
459.223	24.52
459.58	24.61
459.936	24.47
460.292	24.44
460.648	24.52
461.005	24.37
461.361	24.35
461.717	24.13
462.073	24.27
462.429	24.46
462.785	24.41
463.141	24.79
463.496	24.61
463.852	24.95
464.208	25.14
464.564	25.06
464.919	25.31
465.275	25.19
465.631	25.42
465.986	25.42
466.342	25.2
466.697	25.24
467.052	25.63
467.408	25.52
467.763	25.67
468.118	25.57
468.473	25.58
468.829	25.48
469.184	25.38
469.539	25.53
469.894	25.55
470.249	25.63
470.603	25.64
470.958	25.79
471.313	25.81
471.668	25.96
472.023	25.72
472.377	26.18
472.732	25.92
473.086	26.09
473.441	26.13
473.795	26.12
474.15	26.09
474.504	26.19
474.859	26.34
475.213	26.55
475.567	26.22
475.921	26.49
476.275	26.23
476.63	26.37
476.984	26.44
477.338	26.57
477.692	26.73
478.045	26.63
478.399	26.71
478.753	26.55
479.107	26.71
479.461	26.7
479.814	26.72
480.168	26.83
480.521	26.64
480.875	26.79
481.228	26.98
481.582	26.82
481.935	26.69
482.289	26.72
482.642	26.88
482.995	26.88
483.348	26.75
483.701	26.86
484.055	26.76
484.408	26.54
484.761	26.65
485.114	26.31
485.466	26.11
485.819	26.1
486.172	26.18
486.525	26.28
486.878	26.42
487.23	26.42
487.583	26.64
487.936	26.74
488.288	26.92
488.641	26.76
488.993	26.82
489.345	26.63
489.698	26.68
490.05	26.71
490.402	26.79
490.754	26.96
491.107	26.99
491.459	27.26
491.811	27.26
492.163	27.65
492.515	27.82
492.866	27.37
493.218	27.27
493.57	27.3
493.922	27.31
494.274	27.36
494.625	27.57
494.977	27.76
495.328	27.95
495.68	28.07
496.031	28.35
496.383	28.42
496.734	28.71
497.086	28.75
497.437	28.71
497.788	28.68
498.139	28.71
498.49	28.49
498.842	28.49
499.193	28.5
499.544	28.69
499.894	28.48
500.245	28.81
500.596	28.82
500.947	28.89
501.298	28.96
501.648	29.15
501.999	29.14
502.35	29.13
502.7	29.18
503.051	29.29
503.401	29.4
503.752	29.29
504.102	29.57
504.452	29.44
504.803	29.34
505.153	29.56
505.503	29.57
505.853	29.75
506.203	29.65
506.553	29.71
506.903	29.74
507.253	29.71
507.603	29.89
507.953	29.68
508.303	29.71
508.652	29.98
509.002	30.06
509.352	30.03
509.701	29.91
510.051	29.96
510.4	29.93
510.75	29.92
511.099	29.96
511.449	29.97
511.798	29.82
512.147	29.93
512.496	30.17
512.846	30.14
513.195	30.3
513.544	30.07
513.893	30.34
514.242	30.31
514.591	30.14
514.939	30.4
515.288	30.38
515.637	30.52
515.986	30.7
516.334	30.67
516.683	30.76
517.032	30.92
517.38	30.9
517.729	30.86
518.077	31
518.426	31.01
518.774	31.1
519.122	31.03
519.47	30.73
519.819	30.61
520.167	30.68
520.515	30.59
520.863	30.67
521.211	30.69
521.559	30.78
521.907	30.93
522.255	31.09
522.602	31.06
522.95	31.34
523.298	31.51
523.645	31.53
523.993	31.45
524.341	31.53
524.688	31.72
525.036	31.65
525.383	31.72
525.73	31.69
526.078	31.82
526.425	31.82
526.772	31.6
527.119	31.59
527.466	31.28
527.814	31.39
528.161	31.47
528.508	31.57
528.854	31.49
529.201	31.47
529.548	31.42
529.895	31.27
530.242	31.13
530.588	31.13
530.935	31.29
531.282	31.3
531.628	31.34
531.975	31.5
532.321	31.56
532.667	31.89
533.014	31.88
533.36	32.09
533.706	32.14
534.052	32.24
534.399	32.22
534.745	32.03
535.091	31.87
535.437	31.88
535.783	31.99
536.129	32.17
536.474	32.3
536.82	32.28
537.166	32.39
537.512	32.68
537.857	32.65
538.203	32.63
538.549	32.61
538.894	32.71
539.239	32.72
539.585	32.78
539.93	32.83
540.276	33.23
540.621	33.17
540.966	33.42
541.311	33.19
541.656	33.57
542.001	33.4
542.346	33.18
542.691	33.08
543.036	32.73
543.381	32.77
543.726	32.75
544.071	32.9
544.415	32.97
544.76	33.12
545.105	33.26
545.449	33.35
545.794	33.38
546.138	33.51
546.483	33.67
546.827	33.74
547.171	33.83
547.516	34.03
547.86	33.92
548.204	33.85
548.548	34.04
548.892	33.75
549.236	33.96
549.58	34.04
549.924	34.34
550.268	34.33
550.612	34.39
550.956	34.65
551.3	34.72
551.643	34.85
551.987	34.82
552.33	34.88
552.674	35.3
553.017	35.32
553.361	35.26
553.704	35.13
554.048	35.01
554.391	34.97
554.734	35.01
555.077	35.08
555.42	34.9
555.764	35.26
556.107	35.33
556.45	35.3
556.793	35.39
557.135	35.62
557.478	35.48
557.821	35.8
558.164	35.91
558.507	35.72
558.849	35.73
559.192	35.68
559.534	35.75
559.877	35.89
560.219	36.01
560.562	36.09
560.904	36.26
561.246	36.02
561.589	36.09
561.931	36.03
562.273	36.24
562.615	35.95
562.957	36.33
563.299	36.25
563.641	36.38
563.983	36.41
564.325	36.33
564.667	36.37
565.008	36.43
565.35	36.59
565.692	36.81
566.033	36.83
566.375	36.52
566.716	36.64
567.058	36.55
567.399	36.67
567.741	36.79
568.082	36.62
568.423	36.63
568.764	36.73
569.105	36.69
569.447	36.77
569.788	36.91
570.129	37.02
570.47	36.84
570.811	36.93
571.151	37.29
571.492	37.22
571.833	36.94
572.174	37.39
572.514	37.12
572.855	36.96
573.195	37.06
573.536	37.19
573.876	37.16
574.217	37.42
574.557	37.18
574.898	37.27
575.238	37.28
575.578	37.42
575.918	37.3
576.258	37.45
576.598	37.69
576.938	37.51
577.278	37.51
577.618	37.98
577.958	37.65
578.298	37.7
578.638	37.69
578.977	37.82
579.317	38.04
579.657	38.08
579.996	38.06
580.336	38.02
580.675	37.99
581.014	38.51
581.354	38.43
581.693	38.65
582.032	38.59
582.372	38.53
582.711	38.71
583.05	38.82
583.389	38.54
583.728	38.74
584.067	39.03
584.406	38.91
584.745	38.85
585.083	38.83
585.422	39.08
585.761	38.89
586.1	38.99
586.438	38.91
586.777	39.17
587.115	39.11
587.454	39.25
587.792	39.41
588.13	39.23
588.469	39.61
588.807	39.35
589.145	39.41
589.483	39.43
589.821	39.65
590.159	39.25
590.497	39.7
590.835	39.29
591.173	39.42
591.511	39.26
591.849	39.41
592.187	39.5
592.524	39.65
592.862	39.84
593.2	39.72
593.537	39.48
593.875	39.81
594.212	40.02
594.55	39.67
594.887	39.87
595.224	39.9
595.561	39.88
595.899	40.09
596.236	40.15
596.573	39.88
596.91	40.01
597.247	39.99
597.584	40.05
597.921	40.37
598.258	40.12
598.594	39.62
598.931	39.81
599.268	40.07
599.604	39.77
599.941	40.34
600.277	40.18
600.614	40.23
600.95	40.44
601.287	40.38
601.623	40.72
601.959	40.87
602.296	40.56
602.632	40.62
602.968	41.02
603.304	41.09
603.64	40.84
603.976	40.77
604.312	41.18
604.648	40.97
604.984	40.73
605.319	40.91
605.655	40.58
605.991	40.77
606.326	40.87
606.662	40.62
606.998	40.65
607.333	40.78
607.668	40.9
608.004	40.85
608.339	40.86
608.674	41.16
609.01	41.08
609.345	41.34
609.68	41.62
610.015	41.58
610.35	41.25
610.685	41.77
611.02	41.55
611.355	41.46
611.689	41.42
612.024	41.54
612.359	41.26
612.694	41.8
613.028	41.46
613.363	41.88
613.697	41.91
614.032	42.05
614.366	41.87
614.7	42.01
615.035	42.51
615.369	42.02
615.703	42.26
616.037	42.33
616.371	42.18
616.705	42.63
617.039	42.26
617.373	42.7
617.707	42.42
618.041	42.43
618.375	42.46
618.709	42.65
619.042	42.44
619.376	42.82
619.71	42.59
620.043	43.11
620.377	42.9
620.71	43.24
621.043	42.38
621.377	42.86
621.71	43.6
622.043	42.98
622.376	43.06
622.709	43.07
623.043	42.77
623.376	43.29
623.709	43.41
624.041	42.69
624.374	43.06
624.707	43.09
625.04	43.4
625.373	43.46
625.705	43.14
626.038	43.26
626.37	43.45
626.703	43.24
627.035	43.41
627.368	43.17
627.7	43.11
628.032	43.01
628.365	43.48
628.697	43.47
629.029	43.18
629.361	43.22
629.693	43.52
630.025	43.61
630.357	43.55
630.689	43.63
631.021	43.33
631.353	43.41
631.684	43.72
632.016	43.66
632.348	43.97
632.679	44.01
633.011	44.06
633.342	43.72
633.674	44.26
634.005	44.26
634.336	44.28
634.668	44.24
634.999	44.34
635.33	43.84
635.661	44.33
635.992	44
636.323	44.57
636.654	43.94
636.985	43.9
637.316	43.78
637.647	44
637.977	44.68
638.308	44.57
638.639	44.42
638.969	44.33
639.3	44.57
639.63	44.58
639.961	44.84
640.291	45.42
640.622	44.89
640.952	44.86
641.282	44.94
641.612	44.78
641.943	44.79
642.273	44.81
642.603	45.09
642.933	44.64
643.263	44.54
643.592	44.3
643.922	45.25
644.252	44.68
644.582	45.38
644.911	45.26
645.241	45.37
645.571	45.08
645.9	45.58
646.23	45.15
646.559	45.93
646.888	45.24
647.218	45.36
647.547	45.43
647.876	45.89
648.205	44.29
648.534	45.23
648.863	45.39
649.192	45.41
649.521	45.51
649.85	45.71
650.179	45.52
650.508	44.92
650.837	45.86
651.165	45.49
651.494	45.88
651.822	45.82
652.151	45.82
652.479	45.34
652.808	45.67
653.136	45.66
653.465	46.38
653.793	46.26
654.121	45.09
654.449	45.53
654.777	45.67
655.105	45.93
655.433	45.25
655.761	46.12
656.089	46.31
656.417	46.24
656.745	46.13
657.073	46.11
657.4	46.32
657.728	46.08
658.056	46.39
658.383	46.21
658.711	46.55
659.038	45.78
659.365	46.76
659.693	46.41
660.02	46.24
660.347	46.27
660.674	46.47
661.001	46.38
661.329	46.33
661.656	46.31
661.982	46.24
662.309	46.46
662.636	46.45
662.963	46.05
663.29	46.05
663.616	46.13
663.943	47.17
664.27	47.04
664.596	46.84
664.923	46.7
665.249	47.12
665.576	46.99
665.902	46.42
666.228	46.49
666.554	47.11
666.881	46.94
667.207	47.26
667.533	46.65
667.859	47.03
668.185	47.28
668.511	47.15
668.837	46.96
669.162	47.53
669.488	46.89
669.814	46.98
670.139	46.96
670.465	47.95
670.791	47.24
671.116	47.07
671.442	47.3
671.767	47
672.092	47.39
672.418	47.48
672.743	47.83
673.068	47.58
673.393	48.21
673.718	47.85
674.043	48.14
674.368	47.5
674.693	47.52
675.018	47.11
675.343	48.03
675.667	47.65
675.992	48.01
676.317	48.23
676.641	47.54
676.966	48.62
677.29	47.34
677.615	48.22
677.939	47.96
678.264	48.55
678.588	48.1
678.912	47.1
679.236	48.7
679.56	47.68
679.885	47.84
680.209	48.08
680.532	48.38
680.856	47.24
681.18	48.75
681.504	47.96
681.828	48.33
682.152	47.91
682.475	48.23
682.799	47.85
683.122	48.14
683.446	48.62
683.769	48.02
684.093	48.6
684.416	48.51
684.739	48.25
685.062	48.52
685.386	48.5
685.709	48.01
686.032	47.97
686.355	48.74
686.678	48.68
687.001	49.02
687.324	49.02
687.646	49.24
687.969	48.29
688.292	48.53
688.614	49.52
688.937	49.07
689.26	48.54
689.582	49.32
689.904	48.72
690.227	48.78
690.549	49.86
690.871	49.36
691.194	49.12
691.516	49.05
691.838	48.64
692.16	48.88
692.482	49.17
692.804	49.69
693.126	48.61
693.448	49.45
693.769	49.23
694.091	49.44
694.413	48.98
694.735	49.76
695.056	50.25
695.378	49.63
695.699	50.07
696.021	49.6
696.342	49.2
696.663	49.46
696.984	49.34
697.306	48.27
697.627	49.68
697.948	48.99
698.269	49.53
698.59	50.48
698.911	49.19
699.232	49.27
699.553	50.08
699.873	49.63
700.194	49.42
700.515	49.25
700.835	49.59
701.156	49.61
701.477	49.3
701.797	49.43
702.117	49.39
702.438	49.52
702.758	49.91
703.078	49.08
703.398	49.58
703.719	50.07
704.039	50.84
704.359	50.49
704.679	50.37
704.999	50.45
705.319	50.26
705.638	49.49
705.958	48.72
706.278	49.01
706.597	48.83
706.917	50.21
707.237	50.4
707.556	50.71
707.876	50.43
708.195	50.37
708.514	50.96
708.834	50.44
709.153	50.17
709.472	51.43
709.791	51.38
710.11	50.01
710.429	50.95
710.748	50.8
711.067	51.33
711.386	51.19
711.705	50.13
712.023	51.28
712.342	51
712.661	49.73
712.979	50.41
713.298	50.31
713.616	51.56
713.935	50.24
714.253	50.77
714.572	49.93
714.89	50.74
715.208	50.92
715.526	50.3
715.844	51.37
716.162	50.44
716.48	50.35
716.798	51.31
717.116	50.63
717.434	51.09
717.752	50.93
718.069	50.25
718.387	50.39
718.705	50.85
719.022	50.92
719.34	51.07
719.657	50.81
719.975	50.76
720.292	51.56
720.609	51.07
720.927	50.99
721.244	51.87
721.561	52.12
721.878	50.83
722.195	51.2
722.512	51.34
722.829	51.19
723.146	50.76
723.463	51.31
723.779	52.26
724.096	52.25
724.413	50.97
724.729	52.05
725.046	49.67
725.362	51.69
725.679	50.76
725.995	51.81
726.311	51.17
726.628	51.34
726.944	51.75
727.26	50.52
727.576	51.14
727.892	51.71
728.208	51.78
728.524	51.17
728.84	52.36
729.156	51.22
729.472	51.57
729.787	50.76
730.103	51.58
730.419	51.33
730.734	51.38
731.05	51.04
731.365	51.87
731.681	52.08
731.996	53.49
732.311	51.24
732.626	52.52
732.942	51.32
733.257	51.31
733.572	53.42
733.887	52.81
734.202	53.03
734.517	50.27
734.832	52.95
735.146	52.37
735.461	52.43
735.776	51.63
736.091	51.86
736.405	52.85
736.72	50.75
737.034	52.5
737.349	51.45
737.663	51.96
737.977	52.71
738.292	51.86
738.606	53.2
738.92	51.85
739.234	52.95
739.548	54.11
739.862	53.73
740.176	51.98
740.49	51.76
740.804	54.08
741.117	54.34
741.431	52.86
741.745	51.2
742.058	54.21
742.372	51.58
742.685	53.09
742.999	52.19
743.312	51.44
743.626	52.62
743.939	51.73
744.252	53.49
744.565	52.34
744.878	53.16
745.191	52.17
745.505	52.65
745.817	52.86
746.13	52.01
746.443	53.5
746.756	52.02
747.069	53.09
747.381	51.14
747.694	55.61
748.007	53.22
748.319	52.46
748.632	51.44
748.944	54.16
749.256	52.23
749.569	53.03
749.881	50.14
750.193	52.13
750.505	53.17
750.817	53.27
751.129	53.89
751.441	52.99
751.753	53.35
752.065	52.24
752.377	53.37
752.689	54.28
753	53.02
753.312	53.29
753.624	53.54
753.935	52.05
754.247	54.05
754.558	54.5
754.869	53.74
755.181	52.75
755.492	53.97
755.803	52.89
756.114	53.62
756.425	52.04
756.736	53.47
757.047	53.85
757.358	53.64
757.669	52.27
757.98	53.09
758.291	52.15
758.601	52.98
758.912	52.92
759.223	54.38
759.533	54.34
759.844	55.6
760.154	54.54
760.464	54.78
760.775	54.58
761.085	51.54
761.395	54.55
761.705	52.99
762.016	55.07
762.326	53.4
762.636	53.68
762.945	53.22
763.255	55.43
763.565	56.9
763.875	55.1
764.185	55.06
764.494	54.33
764.804	53.54
765.113	54.68
765.423	52.86
765.732	55.44
766.042	54.2
766.351	54.42
766.66	54.76
766.97	54.79
767.279	53.45
767.588	53.76
767.897	55.04
768.206	53.17
768.515	54.1
768.824	54.88
769.133	56.32
769.441	54.25
769.75	53.15
770.059	54.05
770.367	54.39
770.676	55.98
770.984	56.4
771.293	56.28
771.601	52.79
771.91	55.52
772.218	54.46
772.526	54.67
772.834	53.11
773.142	52.82
773.45	55.87
773.758	52.87
774.066	55.13
774.374	55.27
774.682	52.38
774.99	53.37
775.298	53.67
775.605	52.49
775.913	55.96
776.22	52.61
776.528	56
776.835	53.53
777.143	52.47
777.45	52.59
777.757	51.96
778.065	52.98
778.372	56.24
778.679	55.41
778.986	51.44
779.293	52.53
779.6	53.21
779.907	54.51
780.214	53.74
780.52	57.16
780.827	55.23
781.134	52.85
781.44	52.65
781.747	53.77
782.053	57.39
782.36	56.52
782.666	54.3
782.973	57.35
783.279	53.77
783.585	54.75
783.891	57.58
784.197	53.62
784.503	56.65
784.809	53
785.115	57.47
785.421	54.6
785.727	55.17
786.033	51.6
786.339	55.61
786.644	50.97
786.95	54.33
787.255	54.78
787.561	55.32
787.866	51.17
788.172	56.14
788.477	52.07
788.782	55.93
789.088	60.42
789.393	56.58
789.698	57.11
790.003	53.84
790.308	55.14
790.613	53.96
790.918	54.61
791.223	56.32
791.527	57.96
791.832	55.78
792.137	56.21
792.441	57.18
792.746	51.8
793.05	55.31
793.355	53.19
793.659	56.81
793.963	56.96
794.268	57.01
794.572	54.77
794.876	55.53
795.18	55.32
795.484	56.06
795.788	51.59
796.092	54.36
796.396	58.16
796.7	61
797.004	58.81
797.307	56.48
797.611	53.33
797.915	57.83
798.218	53.33
798.522	55.64
798.825	56.5
799.128	53.81
799.432	54.91
799.735	57.73
800.038	55.6
800.341	54.4
800.644	53.93
800.947	54.94
801.25	56.9
801.553	60.13
801.856	52.32
802.159	60.56
802.462	53.36
802.764	52.8
803.067	51.29
803.37	57.59
803.672	55.48
803.975	53.53
804.277	60.96
804.579	56.21
804.882	50.76
805.184	55.59
805.486	55.64
805.788	57.71
806.09	56.3
806.392	53.92
806.694	55.06
806.996	56.48
807.298	54.35
807.6	54.64
807.902	57.79
808.203	54.82
808.505	56.06
808.807	55.74
809.108	57.93
809.409	56.85
809.711	55.66
810.012	56.85
810.313	58.31
810.615	56.37
810.916	54.49
811.217	55.16
811.518	55.48
811.819	56.75
812.12	55.2
812.421	58.39
812.722	52.82
813.023	55.74
813.323	61.05
813.624	50.79
813.925	56.09
814.225	54.96
814.526	58.06
814.826	59.33
815.126	56.43
815.427	57.18
815.727	54.23
816.027	52.18
816.327	59.78
816.627	58.79
816.927	57.02
817.227	61.26
817.527	51.9
817.827	58.53
818.127	54.04
818.427	58.96
818.727	58.98
819.026	52.03
819.326	49.72
819.625	61.17
819.925	56.47
820.224	59.4
820.524	52.55
820.823	57.17
821.122	61.85
821.421	52.02
821.72	55.41
822.019	52.21
822.318	57.36
822.617	60.66
822.916	59.57
823.215	53.98
823.514	54.31
823.813	58.7
824.111	57.58
824.41	56.45
824.709	58.06
825.007	58.85
825.306	57.74
825.604	58.04
825.902	58.34
826.201	58.19
826.499	58
826.797	55.84
827.095	57.53
827.393	57.69
827.691	59.14
827.989	57.76
828.287	58.27
828.585	59.7
828.882	55.83
829.18	56.54
829.478	56.24
829.775	59.05
830.073	56.66
830.37	58.98
830.668	57.92
830.965	57.36
831.263	59.22
831.56	58.5
831.857	58.36
832.154	59.84
832.451	57.38
832.748	59.99
833.045	57.32
833.342	57.07
833.639	58.65
833.936	55.98
834.232	59.87
834.529	57.45
834.826	54.87
835.122	60.91
835.419	57.39
835.715	56.14
836.012	58.29
836.308	56.7
836.604	56.73
836.901	59.66
837.197	57.64
837.493	58.56
837.789	57.47
838.085	57.2
838.381	57.07
838.677	58.55
838.972	60.94
839.268	59.62
839.564	55.36
839.86	60.36
840.155	57.77
840.451	57.8
840.746	58.05
841.042	57.98
841.337	67.88
841.632	70.46
841.928	60.07
842.223	60.66
842.518	58.34
842.813	54.46
843.108	58.56
843.403	64.92
843.698	61.13
843.993	50.53
844.287	55.47
844.582	61.14
844.877	55.74
845.171	61.09
845.466	54.35
845.761	62.57
846.055	59.8
846.349	58.71
846.644	60.53
846.938	52.37
847.232	52.17
847.526	49.35
847.82	61.59
848.114	57.46
848.408	44.68
848.702	69.3
848.996	46.86
849.29	62.93
849.584	45.75
849.877	43.26
850.171	50.63
850.465	55.7
850.758	79.94
851.052	93.01
851.345	65.42
851.638	57.39
851.932	54.48
852.225	62.13
852.518	73.96
852.811	45.38
853.104	61.01
853.397	40.43
853.69	64.23
853.983	64.69
854.276	66.7
854.569	52.79
854.861	50.78
855.154	68.62
855.447	23.03
855.739	56.97
856.032	60.21
856.324	64.68
856.616	86.57
856.909	82.99
857.201	53.63
857.493	60.3
857.785	63.44
858.077	45.46
858.369	56.21
858.661	57.9
858.953	46.44
859.245	49.46
859.537	43.39
859.829	61.74
860.12	61.23
860.412	57.04
860.703	50.5
860.995	59.35
861.286	59.24
861.578	64.87
861.869	71.45
862.16	56.23
862.452	56.84
862.743	55.01
863.034	50.46
863.325	38.25
863.616	60.54
863.907	58.36
864.198	70.02
864.488	57.43
864.779	61.62
865.07	62.73
865.36	40.59
865.651	73.73
865.941	67.48
866.232	48.53
866.522	64.76
866.813	52.09
867.103	43.88
867.393	60.11
867.683	39.68
867.973	67.2
868.263	71.94
868.553	54.77
868.843	81.65
869.133	57.56
869.423	44
869.713	38.39
870.002	60.18
870.292	56.13
870.582	57.21
870.871	62.4
871.161	63.25
871.45	66.41
871.739	31.67
872.029	56.72
872.318	52.11
872.607	31.25
872.896	46.42
873.185	46.56
873.474	57.74
873.763	77.83
874.052	69.16
874.341	31.32
874.63	57.52
874.918	58.13
875.207	58.76
875.496	35.92
875.784	65.37
876.073	76.1
876.361	52.48
876.649	53.8
876.938	50.63
877.226	53.61
877.514	72.53
877.802	51.34
878.09	59.5
878.378	55.43
878.666	46.84
878.954	68
879.242	51.2
879.53	26.54
879.817	40.24
880.105	66.31
880.392	56.04
880.68	30.53
880.967	46.45
881.255	67.63
881.542	66.77
881.83	38.3
882.117	16.94
882.404	78.71
882.691	51.18
882.978	66.7
883.265	64.37
883.552	52.59
883.839	57.42
884.126	61.58
884.413	52.6
884.699	52.87
884.986	57.38
885.273	58.48
885.559	58.48
885.846	58.48
