Data from 0419_chest_Reflection__0__00.txt Node

Date: Fri Dec 15 16:29:00 CST 2023
User: ToomeyLab
Spectrometer: FLMS14357
Trigger mode: 0
Integration Time (sec): 1.000000E-2
Scans to average: 100
Electric dark correction enabled: true
Nonlinearity correction enabled: false
Boxcar width: 0
XAxis mode: Wavelengths
Number of Pixels in Spectrum: 2048
>>>>>Begin Spectral Data<<<<<
189.047	-12.36
189.435	-12.36
189.823	-12.36
190.211	-5.04
190.599	-160.21
190.987	29.21
191.375	-104.23
191.763	273.76
192.151	109.24
192.538	362.71
192.926	-278.66
193.314	1895.92
193.702	84.55
194.089	621.93
194.477	18.07
194.864	-343.8
195.252	236.05
195.639	72.41
196.027	45.25
196.414	130.34
196.801	62.64
197.189	773.22
197.576	-230.22
197.963	-110.48
198.351	-43.39
198.738	-2.8
199.125	30.58
199.512	-4.64
199.899	58.35
200.286	10.05
200.673	8.35
201.06	5.99
201.447	-8.34
201.833	33.21
202.22	36.82
202.607	46.98
202.994	32.19
203.38	-13.23
203.767	51.4
204.154	31.27
204.54	15.18
204.927	13.32
205.313	9.05
205.699	13.35
206.086	40.19
206.472	3.86
206.858	16.29
207.245	24.46
207.631	57.17
208.017	12.14
208.403	-12.19
208.789	32.24
209.175	12.37
209.561	16.96
209.947	0.87
210.333	22.06
210.719	7.05
211.105	31.07
211.491	9.95
211.876	30.64
212.262	35.8
212.648	6.86
213.034	23.65
213.419	7.51
213.805	3.91
214.19	14.78
214.576	10.72
214.961	2.39
215.346	-40.1
215.732	16.77
216.117	24.82
216.502	14.87
216.888	41.49
217.273	26.3
217.658	31.84
218.043	21.4
218.428	-2.41
218.813	-2.04
219.198	-7.87
219.583	0.42
219.968	4.82
220.353	8.2
220.738	17.89
221.122	18.76
221.507	-10.52
221.892	-18.29
222.276	0.88
222.661	9.49
223.046	13.75
223.43	17.88
223.815	16.16
224.199	6.62
224.583	1.16
224.968	8.87
225.352	14.9
225.736	9.09
226.121	0.5
226.505	12.01
226.889	14.61
227.273	4.65
227.657	14.25
228.041	4.06
228.425	6.14
228.809	9.48
229.193	3.03
229.577	5.14
229.961	6.44
230.344	6.48
230.728	5.13
231.112	6.43
231.495	5.87
231.879	5.57
232.263	6.95
232.646	8.07
233.03	5.28
233.413	6.05
233.797	8.03
234.18	5.15
234.563	5.39
234.946	4.61
235.33	8.8
235.713	7.62
236.096	6.43
236.479	6.24
236.862	4.29
237.245	5.55
237.628	5.74
238.011	8.99
238.394	7.4
238.777	7.55
239.16	6.15
239.543	6.42
239.925	8.43
240.308	5.18
240.691	6.88
241.073	5.42
241.456	5.06
241.838	4.78
242.221	5.31
242.603	6.38
242.986	5.95
243.368	5.25
243.75	6.38
244.133	5.6
244.515	6.13
244.897	6.5
245.279	5.73
245.661	5.54
246.043	4.98
246.425	5.33
246.807	5.85
247.189	6.72
247.571	6.62
247.953	5.75
248.335	5.21
248.717	5.37
249.098	5.17
249.48	5.54
249.862	5.66
250.243	5.65
250.625	5.72
251.006	5.38
251.388	4.48
251.769	5.58
252.151	5.79
252.532	5.08
252.913	4.84
253.295	4.25
253.676	4.62
254.057	5.17
254.438	4.98
254.819	5.31
255.2	4.81
255.581	5.19
255.962	4.4
256.343	4.48
256.724	5.54
257.105	5.22
257.486	4.62
257.867	5.67
258.247	5.11
258.628	5.24
259.009	4.79
259.389	5.39
259.77	4.98
260.15	4.57
260.531	4.55
260.911	5.09
261.292	5.11
261.672	5.08
262.052	5.07
262.432	5.37
262.813	5.14
263.193	5.18
263.573	4.97
263.953	4.07
264.333	5.84
264.713	4.94
265.093	4.52
265.473	4.47
265.853	4.52
266.233	5.92
266.612	4.05
266.992	4.56
267.372	4.92
267.752	4.26
268.131	4.53
268.511	5.68
268.89	5.13
269.27	4.79
269.649	4.25
270.029	4.6
270.408	5.95
270.787	4.91
271.167	5.61
271.546	5.99
271.925	4.82
272.304	4.68
272.683	5.24
273.062	4.63
273.441	5.02
273.82	4.44
274.199	5.15
274.578	4.78
274.957	4.64
275.336	4.6
275.715	4.78
276.093	4.6
276.472	4.67
276.851	4.84
277.229	4.51
277.608	3.96
277.986	4.6
278.365	4.95
278.743	4.41
279.122	4.32
279.5	4.75
279.878	4.45
280.257	5.15
280.635	4.85
281.013	3.79
281.391	4.83
281.769	5.07
282.147	5.2
282.525	5.92
282.903	4.65
283.281	4.77
283.659	4.9
284.037	4.85
284.415	5.23
284.792	4.88
285.17	4.74
285.548	4.15
285.925	4.47
286.303	4.86
286.68	4.6
287.058	4.53
287.435	4.66
287.813	4.59
288.19	4.48
288.567	4.62
288.945	4.53
289.322	4.62
289.699	4.26
290.076	4.51
290.453	4.58
290.83	3.92
291.207	4.38
291.584	4.82
291.961	4.29
292.338	4.49
292.715	5.06
293.092	4.39
293.469	4.75
293.845	4.94
294.222	3.91
294.599	4.89
294.975	4.14
295.352	5.31
295.728	4.43
296.105	4.2
296.481	5.05
296.858	4.88
297.234	4.25
297.61	4.05
297.986	4.73
298.363	4.97
298.739	4.68
299.115	4.17
299.491	4.09
299.867	4.71
300.243	4.79
300.619	4.22
300.995	4.42
301.371	4.76
301.746	4.54
302.122	5.18
302.498	4.38
302.874	4.62
303.249	4.48
303.625	4.72
304	4.84
304.376	4.6
304.751	4.1
305.127	4.95
305.502	3.94
305.878	3.82
306.253	4.58
306.628	5.04
307.003	4.33
307.378	5.1
307.754	4.88
308.129	3.9
308.504	4.4
308.879	4.34
309.254	5.35
309.629	4.47
310.003	4.54
310.378	4.79
310.753	4.82
311.128	4.65
311.502	4.97
311.877	4.74
312.252	4.36
312.626	4.58
313.001	4.65
313.375	4.85
313.75	4.24
314.124	4.53
314.498	4.8
314.873	4.14
315.247	4.07
315.621	4.96
315.995	4.19
316.369	4.49
316.743	4.45
317.117	4.82
317.491	4.23
317.865	4.49
318.239	3.82
318.613	4.63
318.987	4.92
319.361	4.23
319.734	4.88
320.108	4.57
320.482	4.87
320.855	4.34
321.229	4.64
321.602	4.59
321.976	5.11
322.349	4.42
322.723	4.18
323.096	4.88
323.469	3.42
323.843	4.02
324.216	4.86
324.589	4.25
324.962	4.61
325.335	4.17
325.708	4.7
326.081	4.34
326.454	4.72
326.827	4.2
327.2	5.09
327.573	4.62
327.945	4.54
328.318	4.29
328.691	4.44
329.063	4.2
329.436	3.99
329.809	5.08
330.181	4.45
330.553	4.69
330.926	4.61
331.298	4.72
331.671	4.36
332.043	4.65
332.415	4.89
332.787	4.61
333.159	4.98
333.532	4.65
333.904	4.37
334.276	4.97
334.648	4.67
335.02	4.52
335.391	4.21
335.763	4.32
336.135	4.85
336.507	4.71
336.879	4.44
337.25	4.36
337.622	4.31
337.993	4.31
338.365	4.44
338.736	4.26
339.108	4.77
339.479	4.37
339.851	4.62
340.222	4.25
340.593	4.79
340.964	4.44
341.336	5.28
341.707	4.52
342.078	5.07
342.449	4.88
342.82	4.51
343.191	4.85
343.562	4.97
343.933	4.36
344.303	4.54
344.674	5.04
345.045	4.64
345.416	4.91
345.786	4.35
346.157	4.31
346.527	4.1
346.898	4.12
347.268	4.91
347.639	4.89
348.009	4.52
348.38	4.61
348.75	4.83
349.12	4.52
349.49	5.18
349.861	4.9
350.231	4.86
350.601	4.77
350.971	4.69
351.341	4.5
351.711	4.63
352.081	4.71
352.45	3.81
352.82	4.56
353.19	4.62
353.56	4.58
353.929	4.69
354.299	4.81
354.669	4.18
355.038	4.82
355.408	4.5
355.777	4.94
356.147	4.41
356.516	4.46
356.885	4.7
357.254	4.63
357.624	4.94
357.993	4.85
358.362	4.35
358.731	4.82
359.1	4.33
359.469	4.82
359.838	4.63
360.207	4.31
360.576	4.56
360.945	4.41
361.314	5.18
361.682	4.18
362.051	4.45
362.42	4.81
362.788	4.6
363.157	4.71
363.525	4.77
363.894	4.64
364.262	4.48
364.631	4.47
364.999	4.71
365.367	4.13
365.735	5.26
366.104	4.72
366.472	4.69
366.84	4.86
367.208	4.39
367.576	4.77
367.944	4.53
368.312	4.51
368.68	4.41
369.048	4.9
369.416	4.63
369.783	4.15
370.151	4.75
370.519	4.92
370.886	4.84
371.254	4.36
371.621	4.74
371.989	5.29
372.356	4.22
372.724	4.53
373.091	4.36
373.458	4.85
373.826	4.41
374.193	4.28
374.56	4.55
374.927	4.69
375.294	4.68
375.661	4.44
376.028	4.35
376.395	4.41
376.762	4.49
377.129	4.68
377.496	4.44
377.863	4.69
378.229	4.36
378.596	4.69
378.963	4.27
379.329	4.48
379.696	4.65
380.062	4.79
380.429	4.68
380.795	4.53
381.161	4.82
381.528	4.98
381.894	4.39
382.26	4.25
382.626	5.02
382.993	4.44
383.359	4.98
383.725	4.2
384.091	4.35
384.457	4.6
384.823	4.82
385.188	4.47
385.554	4.55
385.92	4.6
386.286	4.86
386.651	4.71
387.017	4.88
387.383	4.71
387.748	4.73
388.114	4.79
388.479	4.47
388.845	4.87
389.21	4.52
389.575	4.65
389.94	4.56
390.306	4.88
390.671	4.95
391.036	4.36
391.401	4.56
391.766	4.66
392.131	4.28
392.496	4.71
392.861	4.32
393.226	4.63
393.591	4.66
393.956	4.65
394.32	4.65
394.685	4.53
395.05	4.21
395.414	4.55
395.779	4.4
396.143	4.57
396.508	4.71
396.872	4.66
397.236	4.52
397.601	4.47
397.965	4.63
398.329	4.62
398.694	4.81
399.058	4.63
399.422	4.47
399.786	4.95
400.15	4.83
400.514	4.56
400.878	4.64
401.242	5
401.605	4.73
401.969	4.78
402.333	4.61
402.697	4.59
403.06	4.62
403.424	4.58
403.787	4.53
404.151	4.72
404.514	4.54
404.878	4.63
405.241	4.69
405.604	4.72
405.968	4.67
406.331	4.7
406.694	4.71
407.057	4.55
407.42	4.76
407.783	4.79
408.146	4.48
408.509	4.57
408.872	4.36
409.235	4.75
409.598	4.81
409.961	4.56
410.323	4.91
410.686	4.59
411.049	4.59
411.411	4.57
411.774	4.54
412.136	4.79
412.499	4.76
412.861	4.53
413.223	4.6
413.586	4.64
413.948	4.69
414.31	4.64
414.672	4.63
415.035	4.53
415.397	4.7
415.759	4.48
416.121	5.03
416.483	4.53
416.845	4.73
417.206	4.61
417.568	4.85
417.93	4.4
418.292	4.35
418.653	4.71
419.015	4.62
419.377	4.37
419.738	4.68
420.1	4.68
420.461	4.7
420.822	4.73
421.184	4.55
421.545	4.61
421.906	4.42
422.267	4.62
422.629	4.61
422.99	4.57
423.351	4.55
423.712	4.59
424.073	4.56
424.434	4.53
424.795	4.7
425.155	4.51
425.516	4.48
425.877	4.56
426.238	4.58
426.598	4.63
426.959	4.62
427.32	4.65
427.68	4.54
428.041	4.71
428.401	4.8
428.761	4.81
429.122	4.85
429.482	4.54
429.842	4.84
430.202	4.79
430.563	4.76
430.923	4.69
431.283	4.87
431.643	4.53
432.003	4.67
432.363	4.86
432.722	4.64
433.082	4.94
433.442	4.74
433.802	4.6
434.161	4.56
434.521	4.96
434.881	4.83
435.24	4.57
435.6	4.75
435.959	4.69
436.319	4.84
436.678	4.87
437.037	4.85
437.396	4.88
437.756	5
438.115	4.77
438.474	4.9
438.833	4.61
439.192	4.68
439.551	4.88
439.91	4.77
440.269	4.73
440.628	4.69
440.987	4.73
441.345	4.69
441.704	4.84
442.063	4.69
442.421	4.74
442.78	4.74
443.138	4.77
443.497	4.81
443.855	4.76
444.214	4.87
444.572	4.75
444.93	4.93
445.288	4.82
445.647	4.88
446.005	4.84
446.363	4.87
446.721	4.83
447.079	4.73
447.437	4.71
447.795	4.69
448.153	4.71
448.51	4.75
448.868	4.64
449.226	4.7
449.584	4.8
449.941	4.87
450.299	4.84
450.656	4.82
451.014	4.96
451.371	4.79
451.729	4.73
452.086	5
452.443	4.89
452.801	4.9
453.158	4.84
453.515	4.81
453.872	5.12
454.229	4.76
454.586	4.71
454.943	4.95
455.3	4.89
455.657	4.94
456.014	4.85
456.371	4.89
456.727	4.89
457.084	5.06
457.441	4.96
457.797	4.89
458.154	5.12
458.51	4.99
458.867	5.11
459.223	5.14
459.58	4.96
459.936	4.86
460.292	4.79
460.648	4.91
461.005	4.88
461.361	4.88
461.717	4.81
462.073	4.85
462.429	4.8
462.785	4.92
463.141	4.86
463.496	4.95
463.852	4.97
464.208	4.86
464.564	5.02
464.919	5.04
465.275	4.98
465.631	5.07
465.986	5.08
466.342	4.93
466.697	4.89
467.052	5.01
467.408	5.09
467.763	4.92
468.118	5.01
468.473	5.01
468.829	5.13
469.184	4.79
469.539	4.97
469.894	4.93
470.249	5.14
470.603	5.1
470.958	5
471.313	5.07
471.668	5.25
472.023	5.05
472.377	4.91
472.732	5.08
473.086	4.97
473.441	4.76
473.795	5.15
474.15	5.06
474.504	4.92
474.859	4.99
475.213	4.89
475.567	5.05
475.921	4.9
476.275	5.09
476.63	5.11
476.984	5.19
477.338	5.2
477.692	4.88
478.045	4.99
478.399	5
478.753	5.09
479.107	5.06
479.461	4.89
479.814	5
480.168	5.13
480.521	4.99
480.875	5.03
481.228	5.01
481.582	5.02
481.935	5.11
482.289	5.07
482.642	5.03
482.995	4.9
483.348	4.83
483.701	4.98
484.055	4.96
484.408	5.07
484.761	4.82
485.114	4.76
485.466	4.62
485.819	4.7
486.172	4.76
486.525	4.76
486.878	4.89
487.23	4.91
487.583	4.91
487.936	4.94
488.288	4.95
488.641	4.93
488.993	4.88
489.345	4.82
489.698	4.85
490.05	4.82
490.402	4.95
490.754	4.89
491.107	5.05
491.459	5.1
491.811	5.04
492.163	5.1
492.515	5.05
492.866	4.98
493.218	4.93
493.57	4.93
493.922	4.88
494.274	5.1
494.625	5.12
494.977	5.09
495.328	5.16
495.68	5.23
496.031	5.38
496.383	5.17
496.734	5.31
497.086	5.33
497.437	5.18
497.788	5.19
498.139	5.05
498.49	5.14
498.842	5.07
499.193	5.05
499.544	5.23
499.894	5.16
500.245	5.31
500.596	5.08
500.947	5.34
501.298	5.21
501.648	5.17
501.999	5.21
502.35	5.25
502.7	5.23
503.051	4.97
503.401	5.08
503.752	5.31
504.102	5.32
504.452	5.43
504.803	5.31
505.153	5.2
505.503	5.34
505.853	5.11
506.203	5.1
506.553	5.23
506.903	5.3
507.253	5.35
507.603	5.15
507.953	5.24
508.303	5.43
508.652	5.23
509.002	5.43
509.352	5.51
509.701	5.3
510.051	5.28
510.4	5.21
510.75	5.2
511.099	5.25
511.449	5.21
511.798	5.3
512.147	5.4
512.496	5.39
512.846	5.36
513.195	5.29
513.544	5.31
513.893	5.37
514.242	5.31
514.591	5.44
514.939	5.26
515.288	5.34
515.637	5.43
515.986	5.36
516.334	5.48
516.683	5.46
517.032	5.51
517.38	5.44
517.729	5.44
518.077	5.32
518.426	5.45
518.774	5.41
519.122	5.39
519.47	5.35
519.819	5.22
520.167	5.34
520.515	5.37
520.863	5.49
521.211	5.36
521.559	5.51
521.907	5.37
522.255	5.35
522.602	5.53
522.95	5.44
523.298	5.5
523.645	5.6
523.993	5.47
524.341	5.53
524.688	5.57
525.036	5.41
525.383	5.59
525.73	5.65
526.078	5.49
526.425	5.41
526.772	5.52
527.119	5.41
527.466	5.36
527.814	5.45
528.161	5.57
528.508	5.62
528.854	5.44
529.201	5.38
529.548	5.37
529.895	5.31
530.242	5.18
530.588	5.3
530.935	5.41
531.282	5.42
531.628	5.38
531.975	5.52
532.321	5.58
532.667	5.56
533.014	5.63
533.36	5.62
533.706	5.59
534.052	5.65
534.399	5.49
534.745	5.42
535.091	5.45
535.437	5.58
535.783	5.6
536.129	5.65
536.474	5.57
536.82	5.75
537.166	5.74
537.512	5.73
537.857	5.64
538.203	5.6
538.549	5.6
538.894	5.67
539.239	5.69
539.585	5.67
539.93	5.71
540.276	5.91
540.621	5.92
540.966	5.96
541.311	5.72
541.656	5.91
542.001	5.66
542.346	5.88
542.691	5.67
543.036	5.54
543.381	5.59
543.726	5.69
544.071	5.8
544.415	5.84
544.76	5.82
545.105	5.86
545.449	5.89
545.794	5.9
546.138	5.87
546.483	6.03
546.827	5.92
547.171	5.97
547.516	6.15
547.86	5.95
548.204	5.9
548.548	5.77
548.892	6.09
549.236	5.95
549.58	5.97
549.924	6.11
550.268	6.16
550.612	6.14
550.956	6.26
551.3	6.11
551.643	6.23
551.987	6.22
552.33	6.12
552.674	6.18
553.017	6.04
553.361	6.04
553.704	6.31
554.048	6.17
554.391	6.16
554.734	6.25
555.077	6.3
555.42	6.08
555.764	6.31
556.107	6.29
556.45	6.22
556.793	6.29
557.135	6.21
557.478	6.4
557.821	6.44
558.164	6.23
558.507	6.37
558.849	6.25
559.192	6.43
559.534	6.54
559.877	6.56
560.219	6.37
560.562	6.62
560.904	6.36
561.246	6.57
561.589	6.54
561.931	6.5
562.273	6.47
562.615	6.56
562.957	6.47
563.299	6.34
563.641	6.56
563.983	6.65
564.325	6.56
564.667	6.41
565.008	6.62
565.35	6.67
565.692	6.6
566.033	6.58
566.375	6.73
566.716	6.83
567.058	6.7
567.399	6.71
567.741	6.57
568.082	6.86
568.423	6.71
568.764	6.7
569.105	6.81
569.447	7.07
569.788	6.98
570.129	6.92
570.47	6.81
570.811	6.94
571.151	6.98
571.492	6.9
571.833	7.08
572.174	7.02
572.514	7.1
572.855	6.96
573.195	7.02
573.536	6.99
573.876	6.84
574.217	7.12
574.557	6.97
574.898	7.04
575.238	7.1
575.578	7
575.918	7.22
576.258	7.35
576.598	7.15
576.938	7.23
577.278	7.27
577.618	7.21
577.958	7.12
578.298	7.33
578.638	7.26
578.977	7.17
579.317	7.06
579.657	7.46
579.996	7.38
580.336	7.46
580.675	7.41
581.014	7.52
581.354	7.34
581.693	7.44
582.032	7.33
582.372	7.49
582.711	7.52
583.05	7.4
583.389	7.79
583.728	7.42
584.067	7.71
584.406	7.68
584.745	7.45
585.083	7.62
585.422	7.75
585.761	7.88
586.1	7.65
586.438	7.66
586.777	8.01
587.115	7.92
587.454	7.72
587.792	7.7
588.13	7.79
588.469	7.76
588.807	7.78
589.145	7.57
589.483	8.01
589.821	7.78
590.159	8.05
590.497	8.36
590.835	8.21
591.173	7.87
591.511	8.06
591.849	8.04
592.187	8.09
592.524	8.13
592.862	7.98
593.2	8.26
593.537	8.24
593.875	8.26
594.212	8.06
594.55	8.26
594.887	8.36
595.224	8.38
595.561	8.36
595.899	8.38
596.236	8.19
596.573	8.56
596.91	7.88
597.247	8.15
597.584	8.72
597.921	8.34
598.258	8.33
598.594	8.35
598.931	8.43
599.268	8.59
599.604	8.47
599.941	8.6
600.277	8.47
600.614	8.39
600.95	8.48
601.287	8.72
601.623	8.4
601.959	8.66
602.296	8.82
602.632	8.73
602.968	8.71
603.304	8.81
603.64	8.77
603.976	9.06
604.312	8.84
604.648	8.85
604.984	8.92
605.319	8.78
605.655	8.99
605.991	8.84
606.326	9.14
606.662	8.86
606.998	8.93
607.333	9.2
607.668	9.09
608.004	9.26
608.339	9.38
608.674	9.46
609.01	9.07
609.345	8.83
609.68	9.13
610.015	9.18
610.35	9.32
610.685	9.13
611.02	9.15
611.355	9.3
611.689	9.44
612.024	9.3
612.359	9.42
612.694	9.6
613.028	9.52
613.363	9.82
613.697	9.66
614.032	9.73
614.366	9.59
614.7	9.71
615.035	9.64
615.369	9.69
615.703	10.01
616.037	9.59
616.371	9.54
616.705	9.71
617.039	9.94
617.373	9.79
617.707	9.89
618.041	9.95
618.375	9.85
618.709	10.09
619.042	9.55
619.376	10.21
619.71	10.2
620.043	10.29
620.377	9.95
620.71	10.34
621.043	9.97
621.377	10.32
621.71	10.03
622.043	10.14
622.376	10.13
622.709	10.1
623.043	10.27
623.376	10.32
623.709	9.92
624.041	10.65
624.374	10.47
624.707	10.45
625.04	10.8
625.373	10.25
625.705	10.46
626.038	10.5
626.37	10.61
626.703	10.74
627.035	10.59
627.368	11.21
627.7	10.69
628.032	10.53
628.365	10.86
628.697	10.99
629.029	10.39
629.361	10.78
629.693	11.27
630.025	10.9
630.357	11.37
630.689	11.03
631.021	10.96
631.353	11.02
631.684	11.12
632.016	10.88
632.348	11.58
632.679	10.98
633.011	11.45
633.342	11.64
633.674	11.32
634.005	11.64
634.336	11.19
634.668	11.54
634.999	11.05
635.33	11.15
635.661	11.54
635.992	11.21
636.323	11.65
636.654	11.75
636.985	11.35
637.316	11.48
637.647	11.24
637.977	12
638.308	11.72
638.639	11.39
638.969	11.05
639.3	11.58
639.63	11.67
639.961	12.08
640.291	11.86
640.622	12.05
640.952	11.44
641.282	12.03
641.612	12
641.943	11.59
642.273	11.83
642.603	12.31
642.933	12.26
643.263	12.53
643.592	12.15
643.922	11.36
644.252	11.9
644.582	12.4
644.911	11.92
645.241	12.5
645.571	12.4
645.9	12.03
646.23	12.19
646.559	12.55
646.888	12.21
647.218	12.55
647.547	12.3
647.876	12.36
648.205	12.51
648.534	12.23
648.863	12.26
649.192	12.86
649.521	12.16
649.85	12.53
650.179	12.79
650.508	12.57
650.837	12.52
651.165	12.48
651.494	12.91
651.822	13.11
652.151	12.76
652.479	12.91
652.808	12.55
653.136	12.62
653.465	12.43
653.793	13.1
654.121	13.22
654.449	13.28
654.777	13.08
655.105	13.06
655.433	13.16
655.761	12.96
656.089	13.43
656.417	13.33
656.745	13.28
657.073	13.01
657.4	13.97
657.728	13.33
658.056	13.01
658.383	13.71
658.711	13.88
659.038	13.81
659.365	13.58
659.693	13.47
660.02	13.24
660.347	13.74
660.674	13.65
661.001	13.99
661.329	13.27
661.656	13.59
661.982	13.77
662.309	14.1
662.636	13.72
662.963	14.42
663.29	14.19
663.616	14.48
663.943	13.64
664.27	14.41
664.596	14.73
664.923	14.42
665.249	14.21
665.576	14.2
665.902	14.67
666.228	14.35
666.554	13.96
666.881	14.26
667.207	14.22
667.533	14.62
667.859	14.7
668.185	14.65
668.511	14.29
668.837	13.76
669.162	14.17
669.488	13.93
669.814	14.63
670.139	15.02
670.465	14.8
670.791	15.17
671.116	15.32
671.442	14.63
671.767	14.74
672.092	15.52
672.418	15.5
672.743	15.3
673.068	14.1
673.393	14.97
673.718	15.01
674.043	15.14
674.368	14.88
674.693	16.02
675.018	14.88
675.343	15.54
675.667	15.45
675.992	15.59
676.317	16.17
676.641	15.67
676.966	15.82
677.29	15.59
677.615	16.7
677.939	16.03
678.264	16.36
678.588	15.94
678.912	15.41
679.236	15.81
679.56	15.5
679.885	16.31
680.209	15.39
680.532	16.15
680.856	16.49
681.18	15.75
681.504	16.11
681.828	16.25
682.152	15.75
682.475	16.48
682.799	15.63
683.122	15.72
683.446	15.96
683.769	16.67
684.093	16.11
684.416	17
684.739	15.82
685.062	16.41
685.386	16.97
685.709	16.31
686.032	17.19
686.355	17.06
686.678	16.5
687.001	16.48
687.324	16.4
687.646	16.07
687.969	16.16
688.292	16.85
688.614	15.9
688.937	17.46
689.26	16.78
689.582	16.69
689.904	16.18
690.227	16.42
690.549	16.63
690.871	17.33
691.194	17.18
691.516	16.79
691.838	16.99
692.16	17.23
692.482	16.2
692.804	17.24
693.126	17.85
693.448	17.14
693.769	17.42
694.091	17.46
694.413	17.36
694.735	17.36
695.056	17.54
695.378	17.13
695.699	16.29
696.021	16.64
696.342	17.31
696.663	18.04
696.984	17.44
697.306	17.41
697.627	18.42
697.948	18.55
698.269	17.2
698.59	17.15
698.911	17.48
699.232	17.68
699.553	17.52
699.873	17.76
700.194	18.36
700.515	17.84
700.835	17.91
701.156	17.48
701.477	18.28
701.797	18.15
702.117	18.7
702.438	17.81
702.758	18.2
703.078	17.85
703.398	17.81
703.719	18.37
704.039	17.91
704.359	18.13
704.679	18.97
704.999	19.03
705.319	18.48
705.638	18.51
705.958	18.57
706.278	18.52
706.597	17.97
706.917	18.46
707.237	19.07
707.556	18.87
707.876	18.83
708.195	18.75
708.514	18.74
708.834	17.93
709.153	20.11
709.472	17.84
709.791	19.37
710.11	18.21
710.429	18.86
710.748	19.91
711.067	19.09
711.386	19.13
711.705	19.96
712.023	18.54
712.342	18.39
712.661	19.03
712.979	19.45
713.298	18.43
713.616	19.49
713.935	18.95
714.253	19.26
714.572	19.2
714.89	20.16
715.208	20.54
715.526	19.7
715.844	20.11
716.162	19.63
716.48	19.66
716.798	20.38
717.116	19.38
717.434	20.46
717.752	19.28
718.069	20.62
718.387	19.55
718.705	20.31
719.022	19.35
719.34	18.96
719.657	19.1
719.975	20.61
720.292	20.54
720.609	20.41
720.927	20.45
721.244	21.28
721.561	19.89
721.878	22
722.195	19.62
722.512	20.52
722.829	20.13
723.146	21.15
723.463	21.14
723.779	19.55
724.096	21.53
724.413	20.56
724.729	20.19
725.046	19.26
725.362	20.91
725.679	20.13
725.995	20
726.311	19.14
726.628	20.73
726.944	22.69
727.26	22.34
727.576	22.01
727.892	21.69
728.208	20.7
728.524	20.36
728.84	20.05
729.156	23.11
729.472	21.02
729.787	21.52
730.103	22.51
730.419	20.67
730.734	20.27
731.05	21.07
731.365	20.42
731.681	22.17
731.996	21.33
732.311	23.07
732.626	21.9
732.942	20.56
733.257	22.85
733.572	21.72
733.887	21.97
734.202	21.83
734.517	21.62
734.832	21.76
735.146	22.33
735.461	21.96
735.776	21.97
736.091	22.16
736.405	22.83
736.72	22.98
737.034	23
737.349	23.68
737.663	23.14
737.977	21.43
738.292	21.71
738.606	23.43
738.92	23.26
739.234	22.33
739.548	24.04
739.862	22.19
740.176	21.8
740.49	22.44
740.804	22.88
741.117	23.22
741.431	22.69
741.745	22.31
742.058	22.55
742.372	23.12
742.685	23.39
742.999	23.4
743.312	23.53
743.626	22.73
743.939	21.57
744.252	23.05
744.565	22.83
744.878	24.49
745.191	23.08
745.505	24.13
745.817	23.19
746.13	22.14
746.443	24.31
746.756	24.72
747.069	23.27
747.381	22.68
747.694	23.33
748.007	24.37
748.319	25.1
748.632	25.21
748.944	23.61
749.256	24.31
749.569	21.86
749.881	24.48
750.193	23.71
750.505	22.75
750.817	24.53
751.129	25.44
751.441	22.94
751.753	25.23
752.065	24.83
752.377	23.38
752.689	24.34
753	24.76
753.312	22.96
753.624	23.95
753.935	26.55
754.247	26.4
754.558	23.93
754.869	23.77
755.181	24.55
755.492	25.57
755.803	23.02
756.114	24.3
756.425	22.81
756.736	24.77
757.047	25.36
757.358	25.75
757.669	23.27
757.98	24.41
758.291	24.65
758.601	22.56
758.912	24.89
759.223	26.79
759.533	24.95
759.844	24.43
760.154	25.37
760.464	26.74
760.775	23.94
761.085	24.98
761.395	26.29
761.705	24.47
762.016	24.94
762.326	25.32
762.636	24.96
762.945	24.27
763.255	27.29
763.565	23.51
763.875	26.54
764.185	24.87
764.494	25.34
764.804	27.65
765.113	26.17
765.423	24.64
765.732	24.08
766.042	25.97
766.351	25.94
766.66	26.3
766.97	27.25
767.279	25.75
767.588	25.92
767.897	25.76
768.206	25.21
768.515	26.44
768.824	25.56
769.133	24.48
769.441	25.42
769.75	26.68
770.059	27.48
770.367	26.71
770.676	28.01
770.984	28
771.293	27.64
771.601	28.89
771.91	24.89
772.218	28
772.526	27.47
772.834	26.88
773.142	27
773.45	23.24
773.758	22.29
774.066	26.97
774.374	23.83
774.682	27.28
774.99	27.18
775.298	24.91
775.605	26.1
775.913	23.59
776.22	31.03
776.528	27
776.835	27.32
777.143	28.57
777.45	26.13
777.757	28.31
778.065	26.17
778.372	25.76
778.679	23.96
778.986	29.19
779.293	25.55
779.6	28.19
779.907	27.02
780.214	29.13
780.52	28.88
780.827	30.77
781.134	29.32
781.44	26.59
781.747	26.3
782.053	28.2
782.36	24.53
782.666	27.69
782.973	29.81
783.279	28.64
783.585	28.15
783.891	29.93
784.197	28
784.503	31.24
784.809	25.21
785.115	28.86
785.421	29.77
785.727	27.2
786.033	26.06
786.339	27.1
786.644	28.66
786.95	29.58
787.255	31.28
787.561	33.14
787.866	28.59
788.172	30.54
788.477	25.8
788.782	29.02
789.088	29.12
789.393	29.81
789.698	29.33
790.003	27.4
790.308	27.09
790.613	29.16
790.918	33.31
791.223	30.96
791.527	27.08
791.832	30.16
792.137	27.38
792.441	30.52
792.746	26.53
793.05	28.33
793.355	28.21
793.659	31.76
793.963	27.9
794.268	29.87
794.572	29.59
794.876	28.08
795.18	30.93
795.484	31.06
795.788	31.43
796.092	28.75
796.396	26.25
796.7	25.58
797.004	33.31
797.307	31.8
797.611	32.4
797.915	28.86
798.218	34.34
798.522	29.27
798.825	31.79
799.128	31.05
799.432	29.76
799.735	31.22
800.038	33.59
800.341	32.35
800.644	26.54
800.947	32.7
801.25	26.41
801.553	26.87
801.856	28.08
802.159	29.01
802.462	28.1
802.764	28.76
803.067	29.62
803.37	27.84
803.672	28.74
803.975	31.15
804.277	33.86
804.579	23.84
804.882	31.7
805.184	30.2
805.486	29.05
805.788	32.04
806.09	30.58
806.392	34.16
806.694	33.14
806.996	30.91
807.298	35.32
807.6	31.78
807.902	33.82
808.203	27.25
808.505	29.22
808.807	32.84
809.108	27.66
809.409	34.94
809.711	30.6
810.012	28.51
810.313	30.42
810.615	29.16
810.916	28.94
811.217	32.6
811.518	34.74
811.819	28.62
812.12	30.78
812.421	28.15
812.722	31.2
813.023	32.61
813.323	31.6
813.624	34.19
813.925	36.39
814.225	34.12
814.526	34.62
814.826	35.23
815.126	27.53
815.427	29.37
815.727	33.06
816.027	33.99
816.327	36.1
816.627	27.52
816.927	34.96
817.227	33
817.527	30.4
817.827	34.91
818.127	34.18
818.427	27.9
818.727	29.92
819.026	34.91
819.326	39.6
819.625	35.58
819.925	35.28
820.224	34.97
820.524	37.73
820.823	35.45
821.122	30.84
821.421	34.65
821.72	28.06
822.019	32.57
822.318	29.76
822.617	32.09
822.916	33.46
823.215	29.96
823.514	33.59
823.813	32.43
824.111	33.66
824.41	31.21
824.709	31.2
825.007	31.92
825.306	32.7
825.604	33.55
825.902	33.63
826.201	35.21
826.499	33.17
826.797	33.58
827.095	33.78
827.393	32.38
827.691	32.61
827.989	32.5
828.287	33.73
828.585	32.86
828.882	35.69
829.18	34.25
829.478	34.06
829.775	32.92
830.073	33.17
830.37	35.44
830.668	31.8
830.965	34.47
831.263	32.09
831.56	35.44
831.857	32.27
832.154	32.77
832.451	33.04
832.748	39.13
833.045	37.43
833.342	35.7
833.639	29.17
833.936	29.83
834.232	38.52
834.529	32.63
834.826	41.96
835.122	32.69
835.419	37.33
835.715	32.42
836.012	35.4
836.308	34.37
836.604	32.14
836.901	34.29
837.197	33.91
837.493	36.47
837.789	32.26
838.085	35.37
838.381	39.31
838.677	37.93
838.972	33.71
839.268	31.33
839.564	34.7
839.86	39.57
840.155	30.13
840.451	34.83
840.746	42.4
841.042	37.18
841.337	44.79
841.632	38.33
841.928	45.75
842.223	32.19
842.518	32.24
842.813	35.88
843.108	30.42
843.403	43.6
843.698	34.8
843.993	35.87
844.287	35.6
844.582	38.62
844.877	33.36
845.171	38.59
845.466	30.93
845.761	23.18
846.055	41.27
846.349	40.41
846.644	27.55
846.938	26.26
847.232	26.7
847.526	25.37
847.82	42.19
848.114	25.77
848.408	37.05
848.702	41.35
848.996	22.2
849.29	34.48
849.584	46.28
849.877	23.87
850.171	32.57
850.465	41.55
850.758	35.82
851.052	32.17
851.345	37.63
851.638	46.69
851.932	8.55
852.225	21.31
852.518	35.63
852.811	44.07
853.104	32.39
853.397	30.29
853.69	20.38
853.983	45.37
854.276	26.09
854.569	19.34
854.861	39.01
855.154	34.89
855.447	22.27
855.739	33.4
856.032	22.9
856.324	49.01
856.616	27.21
856.909	39.09
857.201	51.53
857.493	21.7
857.785	25.8
858.077	47.15
858.369	30.74
858.661	42.97
858.953	25.63
859.245	41.67
859.537	35.9
859.829	18.61
860.12	28.16
860.412	26.4
860.703	24.11
860.995	35.38
861.286	44.13
861.578	43.39
861.869	40.62
862.16	52.82
862.452	48.39
862.743	39.21
863.034	12.79
863.325	24.04
863.616	27.19
863.907	35.37
864.198	41.48
864.488	29.67
864.779	43.29
865.07	31.07
865.36	15.06
865.651	17.53
865.941	31.14
866.232	44.21
866.522	14.43
866.813	23.28
867.103	41.9
867.393	36.47
867.683	41.51
867.973	21.2
868.263	50.78
868.553	54.55
868.843	48.77
869.133	21.64
869.423	23.24
869.713	54.22
870.002	36.01
870.292	60.59
870.582	30.79
870.871	38.94
871.161	24.37
871.45	37.72
871.739	23.28
872.029	17.6
872.318	50.93
872.607	68.59
872.896	36.16
873.185	16.47
873.474	5.58
873.763	37.55
874.052	31.27
874.341	52.95
874.63	9.93
874.918	20.39
875.207	55.31
875.496	29.92
875.784	22.56
876.073	6.99
876.361	4.97
876.649	12.43
876.938	45.7
877.226	26.17
877.514	35.83
877.802	27.1
878.09	34.18
878.378	40.16
878.666	57.83
878.954	16.27
879.242	24.52
879.53	32.19
879.817	28.73
880.105	32.33
880.392	37.67
880.68	20.23
880.967	20.54
881.255	60.87
881.542	37.93
881.83	4.52
882.117	12.07
882.404	-10.82
882.691	62.19
882.978	42.71
883.265	38.82
883.552	30.93
883.839	42.73
884.126	41.36
884.413	46.21
884.699	29.59
884.986	42.88
885.273	34.58
885.559	34.58
885.846	34.58
