Data from 0419_crown_Reflection__0__05.txt Node

Date: Fri Dec 15 16:30:57 CST 2023
User: ToomeyLab
Spectrometer: FLMS14357
Trigger mode: 0
Integration Time (sec): 1.000000E-2
Scans to average: 100
Electric dark correction enabled: true
Nonlinearity correction enabled: false
Boxcar width: 0
XAxis mode: Wavelengths
Number of Pixels in Spectrum: 2048
>>>>>Begin Spectral Data<<<<<
189.047	-58.39
189.435	-58.39
189.823	-58.39
190.211	14.27
190.599	77.09
190.987	39.28
191.375	297.04
191.763	406.33
192.151	32.61
192.538	406.53
192.926	-54.73
193.314	2099.32
193.702	75.14
194.089	396.79
194.477	-53.33
194.864	291.48
195.252	91.56
195.639	101.74
196.027	-161.18
196.414	-4.17
196.801	232.21
197.189	434.61
197.576	-217.27
197.963	-32.61
198.351	4.48
198.738	-0.81
199.125	15.75
199.512	19.94
199.899	3.04
200.286	19.23
200.673	13.98
201.06	-4.98
201.447	0.75
201.833	14.07
202.22	57.7
202.607	76.25
202.994	-8.43
203.38	-14.88
203.767	45.13
204.154	-1.06
204.54	19.39
204.927	-31.47
205.313	33.01
205.699	17.52
206.086	19.08
206.472	23.45
206.858	18.96
207.245	1.67
207.631	4.33
208.017	7.15
208.403	-0.04
208.789	27.08
209.175	28.96
209.561	-23.57
209.947	13.12
210.333	-19.28
210.719	51.34
211.105	26.9
211.491	-15.52
211.876	29.4
212.262	0.1
212.648	35.88
213.034	34.9
213.419	-2.7
213.805	5.58
214.19	-20.91
214.576	-16.09
214.961	-8.42
215.346	-31.7
215.732	30.42
216.117	18.24
216.502	0.34
216.888	28.47
217.273	28.97
217.658	20.11
218.043	16.9
218.428	-3.69
218.813	9.74
219.198	22.69
219.583	9.11
219.968	13.72
220.353	-1.75
220.738	33.49
221.122	14.84
221.507	5.57
221.892	-21.16
222.276	-9.53
222.661	6.8
223.046	17.38
223.43	16.28
223.815	20.96
224.199	13.86
224.583	1.96
224.968	21.03
225.352	18.86
225.736	3.58
226.121	-1.93
226.505	12.12
226.889	12.18
227.273	1.57
227.657	11.99
228.041	5.94
228.425	1.1
228.809	5.27
229.193	4.71
229.577	4.48
229.961	6.59
230.344	5.59
230.728	4.61
231.112	5.22
231.495	4.79
231.879	5.25
232.263	6.43
232.646	6.33
233.03	4.97
233.413	4.47
233.797	5.81
234.18	4.2
234.563	8.1
234.946	3.81
235.33	3.61
235.713	5.78
236.096	4.31
236.479	7.58
236.862	3.79
237.245	8.01
237.628	4.87
238.011	5.39
238.394	5.61
238.777	4.61
239.16	3.87
239.543	5.36
239.925	4.87
240.308	5.07
240.691	6.42
241.073	5.87
241.456	4.8
241.838	4.32
242.221	4.41
242.603	4.98
242.986	5.23
243.368	4.59
243.75	5.26
244.133	4.43
244.515	4.93
244.897	5.11
245.279	5.12
245.661	4.9
246.043	3.88
246.425	2.36
246.807	5.68
247.189	4.98
247.571	4.57
247.953	4.66
248.335	4.3
248.717	4.27
249.098	4.23
249.48	4.49
249.862	4.15
250.243	4.42
250.625	4.35
251.006	4.46
251.388	3.36
251.769	4.33
252.151	4.7
252.532	4.82
252.913	3.89
253.295	3.64
253.676	4.23
254.057	4.28
254.438	4.46
254.819	4.83
255.2	3.48
255.581	3.69
255.962	3.32
256.343	4.66
256.724	4.64
257.105	5.02
257.486	4
257.867	5.33
258.247	4.28
258.628	3.9
259.009	3.96
259.389	4.45
259.77	3.73
260.15	4.07
260.531	3.6
260.911	4.44
261.292	3.82
261.672	3.99
262.052	4.01
262.432	4.56
262.813	4.4
263.193	4.27
263.573	4.8
263.953	3.41
264.333	4.21
264.713	4.37
265.093	3.98
265.473	4.38
265.853	3.85
266.233	4.46
266.612	2.83
266.992	3.23
267.372	4.01
267.752	4.25
268.131	4.12
268.511	4.45
268.89	4.45
269.27	3.4
269.649	3.87
270.029	3.91
270.408	5.03
270.787	4.49
271.167	4.54
271.546	4.63
271.925	3.22
272.304	3.55
272.683	3.81
273.062	3.42
273.441	3.75
273.82	3.56
274.199	3.89
274.578	3.7
274.957	3.85
275.336	3.97
275.715	3.57
276.093	3.64
276.472	3.65
276.851	3.43
277.229	3.76
277.608	3.09
277.986	4.16
278.365	4
278.743	3.4
279.122	3.08
279.5	4
279.878	4.27
280.257	3.65
280.635	3.88
281.013	3.34
281.391	4.12
281.769	3.71
282.147	3.82
282.525	4.4
282.903	3.97
283.281	3.84
283.659	4.19
284.037	4.16
284.415	4.31
284.792	3.82
285.17	3.3
285.548	3.73
285.925	4.01
286.303	3.48
286.68	3.73
287.058	3.58
287.435	3.7
287.813	3.99
288.19	3.76
288.567	3.94
288.945	4.24
289.322	4.11
289.699	3.69
290.076	3.47
290.453	3.48
290.83	3.68
291.207	3.41
291.584	4.06
291.961	3.56
292.338	3.85
292.715	4.1
293.092	3.68
293.469	4.03
293.845	3.68
294.222	3.28
294.599	3.68
294.975	3.47
295.352	3.99
295.728	3.21
296.105	3.85
296.481	3.88
296.858	3.79
297.234	3.77
297.61	3.71
297.986	3.08
298.363	4.13
298.739	3.64
299.115	3.28
299.491	3.07
299.867	3.78
300.243	3.75
300.619	3.26
300.995	3.91
301.371	3.78
301.746	3.55
302.122	3.82
302.498	3.54
302.874	3.91
303.249	2.71
303.625	3.64
304	3.79
304.376	3.56
304.751	2.93
305.127	3.94
305.502	3.13
305.878	3.11
306.253	3.34
306.628	3.86
307.003	3.23
307.378	4.02
307.754	3.52
308.129	3.11
308.504	3.75
308.879	3.51
309.254	4.13
309.629	4.05
310.003	3.7
310.378	3.67
310.753	4.33
311.128	3.33
311.502	3.16
311.877	3.91
312.252	3.49
312.626	3.65
313.001	3.56
313.375	3.85
313.75	3.13
314.124	3.58
314.498	3.32
314.873	3.66
315.247	3
315.621	3.37
315.995	3.3
316.369	3.63
316.743	2.94
317.117	3.4
317.491	2.93
317.865	3.75
318.239	3.42
318.613	3.54
318.987	3.64
319.361	3.06
319.734	3.73
320.108	3.27
320.482	3.31
320.855	3.6
321.229	3.88
321.602	3.15
321.976	3.61
322.349	3.19
322.723	3.56
323.096	4.01
323.469	2.99
323.843	3.46
324.216	3.7
324.589	3.23
324.962	3.57
325.335	3.41
325.708	3.4
326.081	3.07
326.454	3.37
326.827	2.98
327.2	3.57
327.573	3.46
327.945	2.9
328.318	2.99
328.691	2.77
329.063	3.44
329.436	2.75
329.809	4.2
330.181	3.08
330.553	3.46
330.926	3.48
331.298	3.06
331.671	3.21
332.043	4.37
332.415	3.24
332.787	3.05
333.159	4.18
333.532	3.71
333.904	3.77
334.276	3.37
334.648	3.64
335.02	4.2
335.391	3.23
335.763	3.4
336.135	3.45
336.507	3.13
336.879	3.59
337.25	3.09
337.622	3.18
337.993	3.5
338.365	3.77
338.736	3.38
339.108	3.75
339.479	3.05
339.851	2.89
340.222	3.58
340.593	3.63
340.964	3.27
341.336	4.19
341.707	2.84
342.078	3.91
342.449	3.69
342.82	3.16
343.191	3.7
343.562	3.1
343.933	3.33
344.303	3.67
344.674	3.25
345.045	3.41
345.416	3.47
345.786	3.01
346.157	3.64
346.527	2.83
346.898	3.04
347.268	3.47
347.639	3.23
348.009	3.53
348.38	3.42
348.75	3.53
349.12	2.9
349.49	3.81
349.861	3.3
350.231	3.14
350.601	3.27
350.971	3.85
351.341	3.62
351.711	3.17
352.081	3.3
352.45	3.43
352.82	3.7
353.19	3.67
353.56	3.19
353.929	3.28
354.299	3.54
354.669	2.93
355.038	3.66
355.408	3.53
355.777	3.33
356.147	3.65
356.516	3.43
356.885	3.46
357.254	3.41
357.624	3.73
357.993	3.51
358.362	3.17
358.731	3.18
359.1	3.29
359.469	3.2
359.838	3.52
360.207	3.43
360.576	3.14
360.945	3.61
361.314	3.56
361.682	3.33
362.051	3.19
362.42	3.33
362.788	3.24
363.157	3.65
363.525	3.42
363.894	3.59
364.262	3.29
364.631	3.31
364.999	3.43
365.367	3.15
365.735	4.06
366.104	3.5
366.472	3.38
366.84	3.48
367.208	3.56
367.576	3.34
367.944	3.57
368.312	3.07
368.68	3.52
369.048	3.39
369.416	3.43
369.783	3.34
370.151	3.6
370.519	3.68
370.886	3.66
371.254	3.34
371.621	3.5
371.989	3.1
372.356	3.1
372.724	3.69
373.091	3.16
373.458	3.26
373.826	3.59
374.193	3.21
374.56	3.36
374.927	3.58
375.294	3.48
375.661	3.4
376.028	3.17
376.395	3.66
376.762	3.54
377.129	3.58
377.496	3.32
377.863	3.44
378.229	2.94
378.596	3.36
378.963	3.36
379.329	3.34
379.696	3.71
380.062	3.5
380.429	3.31
380.795	3.06
381.161	3.36
381.528	3.6
381.894	3.56
382.26	3.4
382.626	3.52
382.993	3.34
383.359	4.01
383.725	3.24
384.091	3.42
384.457	3.72
384.823	3.29
385.188	3.61
385.554	3.34
385.92	4.01
386.286	3.72
386.651	3.65
387.017	3.8
387.383	3.53
387.748	3.35
388.114	3.72
388.479	3.39
388.845	3.76
389.21	3.61
389.575	3.59
389.94	3.48
390.306	3.39
390.671	3.74
391.036	3.37
391.401	3.35
391.766	3.51
392.131	3.26
392.496	3.46
392.861	3.46
393.226	3.47
393.591	3.55
393.956	3.49
394.32	3.42
394.685	3.45
395.05	3.25
395.414	3.67
395.779	3.36
396.143	3.3
396.508	3.4
396.872	3.4
397.236	3.73
397.601	3.18
397.965	3.53
398.329	3.27
398.694	3.56
399.058	3.35
399.422	3.4
399.786	3.69
400.15	3.56
400.514	3.42
400.878	3.43
401.242	3.79
401.605	3.63
401.969	3.61
402.333	3.56
402.697	3.2
403.06	3.56
403.424	3.38
403.787	3.69
404.151	3.7
404.514	3.44
404.878	3.6
405.241	3.76
405.604	3.72
405.968	3.77
406.331	3.52
406.694	3.62
407.057	3.54
407.42	3.6
407.783	3.54
408.146	3.35
408.509	3.62
408.872	3.57
409.235	3.54
409.598	3.7
409.961	3.55
410.323	3.72
410.686	3.4
411.049	3.66
411.411	3.61
411.774	3.68
412.136	3.55
412.499	3.44
412.861	3.51
413.223	3.62
413.586	3.67
413.948	3.66
414.31	3.44
414.672	3.36
415.035	3.37
415.397	3.88
415.759	3.21
416.121	3.73
416.483	3.41
416.845	3.71
417.206	3.58
417.568	3.68
417.93	3.41
418.292	3.38
418.653	3.67
419.015	3.51
419.377	3.49
419.738	3.42
420.1	3.46
420.461	3.56
420.822	3.59
421.184	3.52
421.545	3.47
421.906	3.38
422.267	3.46
422.629	3.37
422.99	3.42
423.351	3.38
423.712	3.46
424.073	3.48
424.434	3.53
424.795	3.52
425.155	3.48
425.516	3.33
425.877	3.38
426.238	3.29
426.598	3.51
426.959	3.42
427.32	3.42
427.68	3.43
428.041	3.52
428.401	3.72
428.761	3.62
429.122	3.64
429.482	3.52
429.842	3.62
430.202	3.61
430.563	3.52
430.923	3.56
431.283	3.73
431.643	3.45
432.003	3.22
432.363	3.74
432.722	3.59
433.082	3.61
433.442	3.54
433.802	3.5
434.161	3.4
434.521	3.74
434.881	3.62
435.24	3.47
435.6	3.46
435.959	3.49
436.319	3.64
436.678	3.5
437.037	3.59
437.396	3.66
437.756	3.6
438.115	3.54
438.474	3.77
438.833	3.4
439.192	3.57
439.551	3.65
439.91	3.66
440.269	3.67
440.628	3.52
440.987	3.66
441.345	3.51
441.704	3.51
442.063	3.54
442.421	3.45
442.78	3.48
443.138	3.55
443.497	3.5
443.855	3.5
444.214	3.58
444.572	3.64
444.93	3.6
445.288	3.63
445.647	3.69
446.005	3.5
446.363	3.6
446.721	3.62
447.079	3.53
447.437	3.45
447.795	3.55
448.153	3.41
448.51	3.49
448.868	3.41
449.226	3.53
449.584	3.54
449.941	3.67
450.299	3.53
450.656	3.64
451.014	3.71
451.371	3.57
451.729	3.64
452.086	3.79
452.443	3.74
452.801	3.68
453.158	3.6
453.515	3.46
453.872	3.72
454.229	3.53
454.586	3.58
454.943	3.58
455.3	3.68
455.657	3.68
456.014	3.59
456.371	3.71
456.727	3.56
457.084	3.84
457.441	3.65
457.797	3.57
458.154	3.86
458.51	3.55
458.867	3.82
459.223	3.76
459.58	3.63
459.936	3.75
460.292	3.85
460.648	3.59
461.005	3.62
461.361	3.58
461.717	3.47
462.073	3.59
462.429	3.58
462.785	3.7
463.141	3.72
463.496	3.66
463.852	3.81
464.208	3.65
464.564	3.74
464.919	3.74
465.275	3.72
465.631	4.01
465.986	3.66
466.342	3.56
466.697	3.58
467.052	3.58
467.408	3.71
467.763	3.72
468.118	3.49
468.473	3.57
468.829	3.77
469.184	3.66
469.539	3.72
469.894	3.68
470.249	3.83
470.603	3.63
470.958	3.63
471.313	3.82
471.668	3.78
472.023	3.59
472.377	3.61
472.732	3.61
473.086	3.67
473.441	3.53
473.795	3.88
474.15	3.74
474.504	3.64
474.859	3.73
475.213	3.65
475.567	3.65
475.921	3.6
476.275	3.6
476.63	3.76
476.984	3.73
477.338	3.66
477.692	3.7
478.045	3.6
478.399	3.67
478.753	3.75
479.107	3.64
479.461	3.59
479.814	3.6
480.168	3.63
480.521	3.68
480.875	3.61
481.228	3.64
481.582	3.83
481.935	3.65
482.289	3.64
482.642	3.68
482.995	3.51
483.348	3.52
483.701	3.71
484.055	3.62
484.408	3.62
484.761	3.45
485.114	3.38
485.466	3.26
485.819	3.3
486.172	3.38
486.525	3.48
486.878	3.59
487.23	3.64
487.583	3.7
487.936	3.59
488.288	3.54
488.641	3.54
488.993	3.42
489.345	3.39
489.698	3.45
490.05	3.44
490.402	3.59
490.754	3.58
491.107	3.68
491.459	3.67
491.811	3.68
492.163	3.68
492.515	3.62
492.866	3.54
493.218	3.41
493.57	3.45
493.922	3.54
494.274	3.7
494.625	3.72
494.977	3.82
495.328	3.82
495.68	3.71
496.031	3.83
496.383	3.72
496.734	3.83
497.086	3.84
497.437	3.61
497.788	3.69
498.139	3.64
498.49	3.71
498.842	3.55
499.193	3.62
499.544	3.74
499.894	3.66
500.245	3.75
500.596	3.59
500.947	3.74
501.298	3.67
501.648	3.82
501.999	3.84
502.35	3.7
502.7	3.7
503.051	3.59
503.401	3.77
503.752	3.83
504.102	3.77
504.452	3.84
504.803	3.68
505.153	3.67
505.503	3.72
505.853	3.64
506.203	3.7
506.553	3.75
506.903	3.83
507.253	3.75
507.603	3.56
507.953	3.81
508.303	3.92
508.652	3.64
509.002	3.93
509.352	3.8
509.701	3.59
510.051	3.67
510.4	3.55
510.75	3.67
511.099	3.82
511.449	3.74
511.798	3.79
512.147	3.72
512.496	3.73
512.846	3.82
513.195	3.65
513.544	3.68
513.893	3.83
514.242	3.73
514.591	3.86
514.939	3.75
515.288	3.73
515.637	3.88
515.986	3.8
516.334	3.93
516.683	3.92
517.032	3.84
517.38	3.88
517.729	3.85
518.077	3.64
518.426	3.8
518.774	3.81
519.122	3.74
519.47	3.73
519.819	3.61
520.167	3.61
520.515	3.64
520.863	3.69
521.211	3.85
521.559	3.78
521.907	3.68
522.255	3.7
522.602	3.79
522.95	3.79
523.298	3.83
523.645	3.77
523.993	3.78
524.341	3.87
524.688	3.87
525.036	3.8
525.383	3.85
525.73	3.9
526.078	3.82
526.425	3.69
526.772	3.77
527.119	3.71
527.466	3.64
527.814	3.75
528.161	3.69
528.508	3.74
528.854	3.69
529.201	3.76
529.548	3.63
529.895	3.52
530.242	3.41
530.588	3.46
530.935	3.6
531.282	3.62
531.628	3.71
531.975	3.75
532.321	3.8
532.667	3.82
533.014	3.8
533.36	3.77
533.706	3.81
534.052	3.72
534.399	3.64
534.745	3.57
535.091	3.58
535.437	3.64
535.783	3.72
536.129	3.84
536.474	3.8
536.82	3.79
537.166	3.84
537.512	3.8
537.857	3.72
538.203	3.73
538.549	3.62
538.894	3.72
539.239	3.84
539.585	3.85
539.93	3.82
540.276	3.86
540.621	3.89
540.966	3.91
541.311	3.7
541.656	3.72
542.001	3.81
542.346	3.78
542.691	3.53
543.036	3.5
543.381	3.53
543.726	3.66
544.071	3.76
544.415	3.81
544.76	3.7
545.105	3.8
545.449	3.91
545.794	3.92
546.138	3.81
546.483	3.88
546.827	3.87
547.171	3.86
547.516	3.99
547.86	3.75
548.204	3.83
548.548	3.72
548.892	3.83
549.236	3.84
549.58	3.86
549.924	4.01
550.268	4.07
550.612	4
550.956	4.06
551.3	3.93
551.643	4.02
551.987	4.04
552.33	3.83
552.674	4.15
553.017	3.86
553.361	3.7
553.704	3.91
554.048	3.71
554.391	3.66
554.734	3.83
555.077	3.94
555.42	3.84
555.764	3.95
556.107	3.81
556.45	3.74
556.793	3.83
557.135	3.88
557.478	3.94
557.821	3.89
558.164	3.97
558.507	3.73
558.849	4
559.192	3.92
559.534	3.71
559.877	3.98
560.219	3.83
560.562	4.01
560.904	3.86
561.246	3.91
561.589	3.91
561.931	3.93
562.273	3.97
562.615	4.1
562.957	3.88
563.299	3.8
563.641	3.81
563.983	4.09
564.325	3.87
564.667	3.82
565.008	3.78
565.35	4.03
565.692	3.68
566.033	3.84
566.375	4.05
566.716	4.1
567.058	3.82
567.399	3.87
567.741	3.64
568.082	3.89
568.423	3.91
568.764	3.82
569.105	4.01
569.447	4.1
569.788	3.92
570.129	4.03
570.47	3.99
570.811	3.99
571.151	3.95
571.492	3.96
571.833	3.88
572.174	3.94
572.514	4.08
572.855	3.97
573.195	3.97
573.536	3.83
573.876	3.71
574.217	3.82
574.557	3.92
574.898	4.11
575.238	4.01
575.578	3.88
575.918	4.25
576.258	4.12
576.598	3.89
576.938	3.72
577.278	3.87
577.618	3.8
577.958	3.94
578.298	3.84
578.638	3.87
578.977	3.89
579.317	3.83
579.657	4.03
579.996	4.1
580.336	4.23
580.675	3.97
581.014	4.09
581.354	4
581.693	4.06
582.032	3.77
582.372	3.9
582.711	4.04
583.05	3.75
583.389	4.03
583.728	3.76
584.067	4.11
584.406	4.02
584.745	3.99
585.083	3.98
585.422	4.22
585.761	4.16
586.1	4.1
586.438	4.09
586.777	4.1
587.115	4.1
587.454	3.98
587.792	3.82
588.13	4.28
588.469	4.03
588.807	4.05
589.145	4.03
589.483	4.09
589.821	3.9
590.159	3.88
590.497	4.22
590.835	4.33
591.173	3.87
591.511	4.22
591.849	3.96
592.187	4.09
592.524	4.06
592.862	4.07
593.2	4.06
593.537	3.86
593.875	4
594.212	3.91
594.55	4.02
594.887	4.34
595.224	3.77
595.561	4.08
595.899	3.88
596.236	3.79
596.573	4.26
596.91	3.68
597.247	3.72
597.584	4.09
597.921	3.92
598.258	3.94
598.594	3.84
598.931	3.88
599.268	4.11
599.604	3.89
599.941	4.08
600.277	3.99
600.614	4.15
600.95	3.72
601.287	4.2
601.623	4
601.959	4.02
602.296	4.07
602.632	4.09
602.968	4.21
603.304	3.9
603.64	4.09
603.976	3.99
604.312	3.88
604.648	3.78
604.984	3.92
605.319	3.91
605.655	3.86
605.991	4.07
606.326	3.92
606.662	4.06
606.998	3.81
607.333	4.1
607.668	4.05
608.004	4.2
608.339	4.25
608.674	4
609.01	3.93
609.345	3.55
609.68	4.2
610.015	3.83
610.35	4.17
610.685	4
611.02	4
611.355	4.1
611.689	3.83
612.024	3.79
612.359	4.02
612.694	4.02
613.028	3.99
613.363	4.16
613.697	4.31
614.032	3.9
614.366	3.95
614.7	4.39
615.035	4.34
615.369	4.03
615.703	3.81
616.037	4.3
616.371	3.65
616.705	4.01
617.039	4.18
617.373	4
617.707	3.8
618.041	3.76
618.375	3.86
618.709	3.94
619.042	3.94
619.376	4.08
619.71	4.39
620.043	4.23
620.377	3.8
620.71	4.12
621.043	4.12
621.377	3.96
621.71	4.05
622.043	3.76
622.376	3.73
622.709	4.32
623.043	4.32
623.376	4.05
623.709	3.63
624.041	4.4
624.374	4.05
624.707	3.91
625.04	4.4
625.373	3.48
625.705	4
626.038	4.28
626.37	3.62
626.703	4.26
627.035	4.05
627.368	4.73
627.7	4.13
628.032	3.9
628.365	4.09
628.697	4.21
629.029	4.05
629.361	4.14
629.693	4.14
630.025	4.25
630.357	4.4
630.689	4.2
631.021	3.83
631.353	4.4
631.684	3.97
632.016	3.92
632.348	4.48
632.679	4.42
633.011	4.32
633.342	4.35
633.674	4.02
634.005	4.57
634.336	4.34
634.668	4.34
634.999	3.9
635.33	4.53
635.661	4.46
635.992	3.95
636.323	4.12
636.654	4.32
636.985	4.23
637.316	4.1
637.647	3.79
637.977	4.48
638.308	4.4
638.639	3.74
638.969	3.92
639.3	3.79
639.63	4.02
639.961	4.39
640.291	4.21
640.622	4.25
640.952	4.26
641.282	4.21
641.612	4.39
641.943	4.26
642.273	4.11
642.603	4.1
642.933	4.43
643.263	4.14
643.592	4.05
643.922	3.95
644.252	4.05
644.582	4.04
644.911	4.21
645.241	4.42
645.571	4.27
645.9	3.78
646.23	4.5
646.559	4.65
646.888	3.9
647.218	4.35
647.547	4.65
647.876	4
648.205	3.91
648.534	4.07
648.863	3.88
649.192	4.6
649.521	4.39
649.85	4.01
650.179	4.42
650.508	4.18
650.837	4
651.165	4.23
651.494	4.24
651.822	4.29
652.151	4.3
652.479	4.52
652.808	3.95
653.136	4.16
653.465	3.66
653.793	3.75
654.121	3.78
654.449	4.52
654.777	4.1
655.105	4.63
655.433	3.74
655.761	3.86
656.089	4.92
656.417	4.13
656.745	4.4
657.073	4.19
657.4	5.23
657.728	3.87
658.056	4.05
658.383	4.43
658.711	3.6
659.038	4.8
659.365	4.34
659.693	4.36
660.02	4.17
660.347	4.32
660.674	4.06
661.001	4.4
661.329	3.75
661.656	4.2
661.982	4.64
662.309	4.3
662.636	3.67
662.963	4.57
663.29	4.5
663.616	4.67
663.943	4.37
664.27	4.49
664.596	4.69
664.923	4.2
665.249	4.18
665.576	4.58
665.902	4.9
666.228	4.6
666.554	4.3
666.881	3.63
667.207	4.49
667.533	4.01
667.859	4.79
668.185	4.48
668.511	3.79
668.837	3.54
669.162	4.2
669.488	3.47
669.814	4.41
670.139	5.04
670.465	4.35
670.791	5.06
671.116	4.92
671.442	3.78
671.767	4.58
672.092	4.65
672.418	5.26
672.743	4.44
673.068	4.36
673.393	4.37
673.718	4.69
674.043	4.24
674.368	4.09
674.693	5.13
675.018	4.36
675.343	4.36
675.667	4.76
675.992	4.57
676.317	4.96
676.641	4.79
676.966	5.11
677.29	4.12
677.615	5
677.939	4.6
678.264	4.43
678.588	4.53
678.912	4.45
679.236	5.23
679.56	3.4
679.885	5.3
680.209	4.55
680.532	5
680.856	4.89
681.18	4.34
681.504	4.2
681.828	4.51
682.152	4.37
682.475	4.52
682.799	4.73
683.122	4.46
683.446	4.69
683.769	5.57
684.093	4.01
684.416	5.07
684.739	4.25
685.062	4.14
685.386	4.87
685.709	4.25
686.032	3.98
686.355	4.7
686.678	4.86
687.001	4.9
687.324	5.01
687.646	3.74
687.969	4.06
688.292	4.62
688.614	4.38
688.937	4.66
689.26	4.57
689.582	4.87
689.904	4.62
690.227	4.31
690.549	4.88
690.871	4.9
691.194	4.78
691.516	3.92
691.838	4.88
692.16	4.05
692.482	3.99
692.804	4.7
693.126	4.44
693.448	4.16
693.769	5.83
694.091	4.52
694.413	4.66
694.735	4.11
695.056	5.12
695.378	4.21
695.699	3.97
696.021	4.33
696.342	4.27
696.663	4.63
696.984	3.89
697.306	3.62
697.627	5.2
697.948	5.87
698.269	5.15
698.59	5.08
698.911	3.78
699.232	3.86
699.553	5.11
699.873	4.75
700.194	5.21
700.515	4.41
700.835	4.17
701.156	4.86
701.477	4.22
701.797	4.06
702.117	4.62
702.438	4.76
702.758	4.51
703.078	4.41
703.398	4.02
703.719	4.02
704.039	4.32
704.359	5.71
704.679	5.22
704.999	5.73
705.319	3.73
705.638	4.88
705.958	4.85
706.278	4.62
706.597	3.66
706.917	4.25
707.237	5.63
707.556	5.09
707.876	5.3
708.195	4.6
708.514	4.23
708.834	4.12
709.153	4.88
709.472	5.23
709.791	4.5
710.11	3.83
710.429	4.66
710.748	4.9
711.067	4.82
711.386	4.57
711.705	4.47
712.023	5.27
712.342	3.66
712.661	3.98
712.979	4.44
713.298	4.88
713.616	4.54
713.935	4.65
714.253	3.89
714.572	4.9
714.89	4.33
715.208	5.34
715.526	5.03
715.844	5.49
716.162	4.8
716.48	4.84
716.798	5.08
717.116	4.47
717.434	3.95
717.752	3.8
718.069	4.33
718.387	3.91
718.705	4.05
719.022	3.63
719.34	4.72
719.657	4
719.975	5.14
720.292	4.48
720.609	3.93
720.927	4.41
721.244	5.25
721.561	5.23
721.878	6.35
722.195	3.63
722.512	4.84
722.829	4.89
723.146	5.06
723.463	6.68
723.779	3.81
724.096	6.09
724.413	4.54
724.729	4.48
725.046	3.79
725.362	5.9
725.679	5.08
725.995	3.87
726.311	3.29
726.628	3.5
726.944	4.77
727.26	5.63
727.576	7.06
727.892	4.45
728.208	5.09
728.524	3.84
728.84	5.21
729.156	4.78
729.472	2.9
729.787	5.39
730.103	5.92
730.419	4.46
730.734	4.08
731.05	4.43
731.365	3.36
731.681	4.65
731.996	3.93
732.311	4.58
732.626	4.86
732.942	4.79
733.257	4.61
733.572	5.42
733.887	5.21
734.202	4.79
734.517	5.09
734.832	5.08
735.146	4.43
735.461	5.59
735.776	4.32
736.091	4
736.405	5.11
736.72	3.56
737.034	6.95
737.349	6.62
737.663	5.58
737.977	4.87
738.292	4.76
738.606	5.72
738.92	5.79
739.234	4.63
739.548	4.62
739.862	3.82
740.176	4.57
740.49	4.4
740.804	6.98
741.117	5.63
741.431	5.31
741.745	4.25
742.058	5.48
742.372	5.56
742.685	5.3
742.999	2.99
743.312	6.22
743.626	5.31
743.939	4.95
744.252	5.93
744.565	5.82
744.878	6.21
745.191	5.1
745.505	4.69
745.817	5.21
746.13	6.55
746.443	6.62
746.756	7.05
747.069	5.39
747.381	5.5
747.694	4.42
748.007	5.16
748.319	5.59
748.632	5.03
748.944	5.17
749.256	6.28
749.569	5.01
749.881	5.64
750.193	5.06
750.505	3.87
750.817	5.01
751.129	6.82
751.441	4.4
751.753	5.53
752.065	5.94
752.377	6.76
752.689	7
753	5.51
753.312	3.09
753.624	4.68
753.935	6.95
754.247	5.22
754.558	4.14
754.869	6.36
755.181	6.76
755.492	4.29
755.803	5.82
756.114	7.23
756.425	5.58
756.736	3.41
757.047	7.22
757.358	6.43
757.669	5.41
757.98	3.97
758.291	4.32
758.601	5.67
758.912	4.77
759.223	6.1
759.533	5.04
759.844	4.49
760.154	4.94
760.464	5.62
760.775	6.95
761.085	5.35
761.395	5.91
761.705	5.7
762.016	5.01
762.326	6.69
762.636	6.32
762.945	2.39
763.255	5.09
763.565	2.91
763.875	5.77
764.185	6.27
764.494	6.77
764.804	6.24
765.113	5.38
765.423	4.8
765.732	5.58
766.042	4.39
766.351	4.96
766.66	5.78
766.97	9.15
767.279	5.16
767.588	6.83
767.897	5.82
768.206	5.18
768.515	4.76
768.824	4.9
769.133	5.28
769.441	5.57
769.75	5.55
770.059	6.74
770.367	5.46
770.676	4.87
770.984	5.62
771.293	5.32
771.601	8.73
771.91	4.11
772.218	9.03
772.526	9.94
772.834	4.86
773.142	4.28
773.45	3.32
773.758	5.35
774.066	6.05
774.374	5.53
774.682	6.41
774.99	9.9
775.298	6.74
775.605	5.75
775.913	3.28
776.22	7.33
776.528	7.99
776.835	6.78
777.143	4.3
777.45	5.04
777.757	5.48
778.065	3.48
778.372	5.3
778.679	4.48
778.986	4.62
779.293	6.65
779.6	10.21
779.907	7.78
780.214	6.68
780.52	7.59
780.827	10.77
781.134	6.87
781.44	1.79
781.747	5.8
782.053	4.06
782.36	5.36
782.666	6.39
782.973	3.49
783.279	8.28
783.585	7.61
783.891	7.03
784.197	7.64
784.503	7.21
784.809	6.33
785.115	7.64
785.421	9.49
785.727	5.93
786.033	5.67
786.339	8.33
786.644	5.95
786.95	6.73
787.255	9.53
787.561	8.86
787.866	5.34
788.172	4.26
788.477	5.48
788.782	6.05
789.088	8.11
789.393	5.2
789.698	5.73
790.003	5.27
790.308	4.55
790.613	5.61
790.918	7.04
791.223	8.09
791.527	5.02
791.832	10.52
792.137	3.88
792.441	8.41
792.746	6.05
793.05	5.79
793.355	9.63
793.659	7.14
793.963	5.42
794.268	5.27
794.572	8.67
794.876	8.09
795.18	9.86
795.484	4.33
795.788	7.78
796.092	5.3
796.396	4.55
796.7	4.43
797.004	7.27
797.307	2.89
797.611	5.66
797.915	8.42
798.218	4.27
798.522	6.55
798.825	4.14
799.128	7.46
799.432	1.33
799.735	1.51
800.038	8.78
800.341	6.39
800.644	7.05
800.947	5.93
801.25	1.78
801.553	5.22
801.856	5.45
802.159	6.39
802.462	6.13
802.764	7.7
803.067	5.2
803.37	6.71
803.672	4.31
803.975	3.65
804.277	8.42
804.579	3.47
804.882	5.23
805.184	7.63
805.486	6.03
805.788	6.27
806.09	11.53
806.392	8.34
806.694	8
806.996	12.23
807.298	7.34
807.6	5.66
807.902	12.61
808.203	4.84
808.505	7.03
808.807	8.16
809.108	6.89
809.409	8.39
809.711	6.75
810.012	2.89
810.313	7.85
810.615	10.76
810.916	2.42
811.217	1.27
811.518	3.87
811.819	3.12
812.12	8.23
812.421	9.72
812.722	9.82
813.023	6.67
813.323	5.3
813.624	5.25
813.925	10.07
814.225	9.83
814.526	9.71
814.826	13.38
815.126	2.72
815.427	3.86
815.727	10.76
816.027	9.85
816.327	9.45
816.627	6.09
816.927	14.6
817.227	7.21
817.527	10.92
817.827	14.64
818.127	10.35
818.427	4.73
818.727	7.45
819.026	12.46
819.326	5.96
819.625	6.79
819.925	2.62
820.224	11.18
820.524	7.67
820.823	10.44
821.122	7.33
821.421	5.62
821.72	7.39
822.019	7.58
822.318	3.21
822.617	3.79
822.916	4.87
823.215	5.09
823.514	10
823.813	5.97
824.111	5.09
824.41	7.01
824.709	4.87
825.007	5.49
825.306	6.11
825.604	6.84
825.902	6.38
826.201	6.24
826.499	7.51
826.797	6.43
827.095	7.3
827.393	6.21
827.691	7.43
827.989	4.86
828.287	8.86
828.585	4.71
828.882	7.39
829.18	8.05
829.478	5.42
829.775	7.8
830.073	8.07
830.37	9.89
830.668	4.44
830.965	8.22
831.263	4.87
831.56	5.45
831.857	5.23
832.154	9.12
832.451	6.42
832.748	9.27
833.045	10.95
833.342	11.11
833.639	11.89
833.936	4.94
834.232	10.9
834.529	6.47
834.826	5.03
835.122	11.09
835.419	2.37
835.715	5.58
836.012	9.95
836.308	4.44
836.604	3.85
836.901	4.43
837.197	5.51
837.493	8.91
837.789	10.84
838.085	7.04
838.381	5.19
838.677	9.09
838.972	9.25
839.268	5.69
839.564	7.28
839.86	2.11
840.155	9.39
840.451	-3.66
840.746	5.29
841.042	9.26
841.337	15.94
841.632	17.96
841.928	12.52
842.223	6.28
842.518	4.73
842.813	17.39
843.108	4.55
843.403	16.15
843.698	5.66
843.993	5.58
844.287	5.72
844.582	-0.36
844.877	8.43
845.171	14.59
845.466	1.1
845.761	9.09
846.055	22.67
846.349	-0.22
846.644	7.22
846.938	-14.09
847.232	13.73
847.526	14.54
847.82	31.33
848.114	8.13
848.408	12.27
848.702	22.93
848.996	4.52
849.29	19.82
849.584	17.7
849.877	18.11
850.171	19.1
850.465	6.12
850.758	26.56
851.052	12.57
851.345	2.48
851.638	1.15
851.932	-7.14
852.225	19.83
852.518	11.89
852.811	-0.83
853.104	-11.5
853.397	19.63
853.69	4.1
853.983	1.37
854.276	17.91
854.569	6.56
854.861	11.72
855.154	-5.23
855.447	5
855.739	-1.54
856.032	17.19
856.324	42.2
856.616	19.38
856.909	19.96
857.201	27.27
857.493	23.31
857.785	-11.01
858.077	15.49
858.369	9.37
858.661	9.23
858.953	0.05
859.245	-20.39
859.537	12.24
859.829	29.69
860.12	6.93
860.412	-2.13
860.703	-5.52
860.995	4.89
861.286	-2.26
861.578	10.11
861.869	4.4
862.16	4.39
862.452	29.97
862.743	4.96
863.034	11.61
863.325	5.73
863.616	24.62
863.907	16.5
864.198	-4.93
864.488	5.03
864.779	-3.93
865.07	6.95
865.36	2.25
865.651	2.61
865.941	-3.93
866.232	14.99
866.522	-13.45
866.813	21
867.103	39.01
867.393	2.03
867.683	8.97
867.973	-11.98
868.263	2.1
868.553	30.91
868.843	24.97
869.133	-11.67
869.423	1.25
869.713	6.08
870.002	15.28
870.292	21.82
870.582	18.1
870.871	-4.07
871.161	39.22
871.45	21.19
871.739	1.88
872.029	1.14
872.318	14.69
872.607	38.23
872.896	2.6
873.185	12.27
873.474	-9.32
873.763	18.24
874.052	21.01
874.341	40.09
874.63	6.53
874.918	7.33
875.207	28.73
875.496	11.06
875.784	-20.58
876.073	-25.81
876.361	-56.87
876.649	19.14
876.938	-3.82
877.226	-10.67
877.514	41.68
877.802	36.58
878.09	13.84
878.378	31.55
878.666	8.11
878.954	22.18
879.242	-8.64
879.53	14.8
879.817	22.4
880.105	13.35
880.392	20.54
880.68	-8.76
880.967	5.73
881.255	21.52
881.542	14.02
881.83	-0.88
882.117	30.64
882.404	-17.8
882.691	26.79
882.978	26.81
883.265	9.64
883.552	8.43
883.839	1.88
884.126	11.02
884.413	22.51
884.699	17
884.986	13.36
885.273	8.91
885.559	8.91
885.846	8.91
