Data from 0065_forehead_Reflection__2__251.txt Node

Date: Fri Dec 16 15:53:06 CST 2022
User: ToomeyLab
Spectrometer: FLMS14357
Trigger mode: 0
Integration Time (sec): 1.000000E-2
Scans to average: 100
Electric dark correction enabled: true
Nonlinearity correction enabled: false
Boxcar width: 0
XAxis mode: Wavelengths
Number of Pixels in Spectrum: 2048
>>>>>Begin Spectral Data<<<<<
189.047	508.62
189.435	508.62
189.823	508.62
190.211	27.89
190.599	-69.32
190.987	73.69
191.375	127.64
191.763	74.92
192.151	-192.89
192.538	42.3
192.926	-73.04
193.314	74.63
193.702	-55.31
194.089	39.66
194.477	-151.81
194.864	108.86
195.252	107.2
195.639	22.98
196.027	2.87
196.414	-2591.23
196.801	-511.59
197.189	144.4
197.576	11.19
197.963	225.81
198.351	38.91
198.738	57.83
199.125	71.26
199.512	2.63
199.899	62.8
200.286	-2.38
200.673	49.17
201.06	49.88
201.447	67.88
201.833	3.6
202.22	47.65
202.607	-8.63
202.994	16.81
203.38	62.29
203.767	-16.7
204.154	33.52
204.54	18.96
204.927	24.9
205.313	30.3
205.699	3.22
206.086	16.6
206.472	2.74
206.858	45.87
207.245	11.96
207.631	-2.56
208.017	43.82
208.403	66.85
208.789	30.62
209.175	65.47
209.561	26.25
209.947	-2.93
210.333	19.93
210.719	43.62
211.105	-32.34
211.491	57.08
211.876	39.81
212.262	13.23
212.648	10.05
213.034	29.08
213.419	24.75
213.805	13.45
214.19	7.18
214.576	35.79
214.961	-3.14
215.346	4.66
215.732	-3.31
216.117	11.12
216.502	36.04
216.888	-14.73
217.273	25.77
217.658	13.66
218.043	12.2
218.428	7.32
218.813	12.77
219.198	-6.87
219.583	46.77
219.968	5.03
220.353	12.55
220.738	1.93
221.122	15.11
221.507	29.52
221.892	15.75
222.276	15.85
222.661	10.7
223.046	8.74
223.43	-4.88
223.815	16.11
224.199	8.41
224.583	5.21
224.968	20.26
225.352	7.66
225.736	7.83
226.121	1.13
226.505	1.58
226.889	10.88
227.273	8.93
227.657	1.81
228.041	5.36
228.425	12.31
228.809	7.34
229.193	3.67
229.577	5.74
229.961	6.21
230.344	5.14
230.728	5.11
231.112	4.85
231.495	4.59
231.879	6.58
232.263	6.85
232.646	4.95
233.03	2.72
233.413	4.48
233.797	7.22
234.18	5.73
234.563	4.34
234.946	5.94
235.33	8.27
235.713	4.33
236.096	6.08
236.479	6.68
236.862	6.9
237.245	6.42
237.628	7.24
238.011	6.96
238.394	5.78
238.777	6.18
239.16	3.48
239.543	6.1
239.925	5.96
240.308	6.69
240.691	5.63
241.073	7.36
241.456	6.69
241.838	7.27
242.221	5.64
242.603	5.68
242.986	6.76
243.368	6.31
243.75	5.63
244.133	6.05
244.515	5.79
244.897	5.58
245.279	5.59
245.661	6.56
246.043	6.28
246.425	6.04
246.807	6.33
247.189	6.05
247.571	6.43
247.953	6.04
248.335	6.32
248.717	6.3
249.098	6.12
249.48	6.34
249.862	6.32
250.243	6.32
250.625	6.79
251.006	6.93
251.388	7.59
251.769	6.79
252.151	7.52
252.532	6.81
252.913	6.74
253.295	6.71
253.676	6.4
254.057	5.87
254.438	5.72
254.819	6.84
255.2	5.97
255.581	6.11
255.962	7.65
256.343	7.44
256.724	6.49
257.105	6.64
257.486	6.13
257.867	5.01
258.247	6.72
258.628	6.49
259.009	6.13
259.389	7.01
259.77	6.19
260.15	6.91
260.531	6.41
260.911	6.4
261.292	6.32
261.672	6.08
262.052	6.1
262.432	5.85
262.813	6.6
263.193	6.08
263.573	6.23
263.953	6.33
264.333	6.79
264.713	5.87
265.093	6.11
265.473	6.84
265.853	6.24
266.233	6.22
266.612	6.7
266.992	6.52
267.372	6.43
267.752	5.82
268.131	6.32
268.511	6.2
268.89	6.29
269.27	6.16
269.649	5.49
270.029	6.4
270.408	5.88
270.787	6.15
271.167	5.81
271.546	5.72
271.925	6.55
272.304	6.02
272.683	5.54
273.062	5.97
273.441	6.2
273.82	6.55
274.199	6.04
274.578	5.97
274.957	5.86
275.336	5.87
275.715	6.32
276.093	6.28
276.472	5.88
276.851	6.67
277.229	6.69
277.608	6.32
277.986	5.63
278.365	5.87
278.743	6.24
279.122	5.39
279.5	5.72
279.878	5.74
280.257	6.25
280.635	5.42
281.013	5.98
281.391	6.04
281.769	5.42
282.147	6.04
282.525	6.07
282.903	6.23
283.281	6.18
283.659	5.86
284.037	6.19
284.415	6.14
284.792	6.37
285.17	5.55
285.548	6.31
285.925	6.07
286.303	6.01
286.68	6.26
287.058	6.12
287.435	5.83
287.813	6.01
288.19	6.47
288.567	6.05
288.945	6.28
289.322	6.41
289.699	6.44
290.076	6.77
290.453	6.73
290.83	6.75
291.207	6.66
291.584	6.43
291.961	7.15
292.338	7.1
292.715	7.11
293.092	7.13
293.469	7
293.845	7.62
294.222	7.27
294.599	7.7
294.975	7.33
295.352	7.14
295.728	7.26
296.105	7.23
296.481	8.02
296.858	7.85
297.234	8.13
297.61	7.81
297.986	7.98
298.363	7.54
298.739	8.05
299.115	7.97
299.491	8.03
299.867	8.08
300.243	7.81
300.619	8.27
300.995	8.39
301.371	8.62
301.746	8.21
302.122	8.31
302.498	8.96
302.874	9.2
303.249	9.01
303.625	8.87
304	8.84
304.376	8.59
304.751	8.95
305.127	9.27
305.502	9.11
305.878	8.98
306.253	9.42
306.628	9.64
307.003	9.6
307.378	9.73
307.754	9.91
308.129	9.27
308.504	9.38
308.879	10
309.254	10.3
309.629	9.78
310.003	10.03
310.378	10.16
310.753	9.86
311.128	10.44
311.502	10.13
311.877	10.23
312.252	10.52
312.626	10.42
313.001	10.65
313.375	10.51
313.75	10.76
314.124	11.05
314.498	10.68
314.873	10.66
315.247	10.59
315.621	11.55
315.995	11.33
316.369	11.44
316.743	11.7
317.117	11.66
317.491	11.96
317.865	10.91
318.239	11.69
318.613	11.96
318.987	12.13
319.361	11.75
319.734	12.28
320.108	12.04
320.482	11.82
320.855	12.58
321.229	12.62
321.602	12.18
321.976	12.47
322.349	12.13
322.723	11.46
323.096	12.09
323.469	12.32
323.843	12.82
324.216	12.03
324.589	12.81
324.962	13.12
325.335	13
325.708	13.21
326.081	13.41
326.454	12.98
326.827	13.63
327.2	13.47
327.573	13.48
327.945	13.75
328.318	13.98
328.691	13.56
329.063	13.59
329.436	13.65
329.809	13.66
330.181	13.81
330.553	14.04
330.926	13.73
331.298	13.4
331.671	13.85
332.043	14.2
332.415	14.7
332.787	14.15
333.159	14.03
333.532	14.37
333.904	14.01
334.276	14.13
334.648	13.85
335.02	14.5
335.391	14.62
335.763	14.31
336.135	14.85
336.507	15.2
336.879	14.75
337.25	14.96
337.622	14.57
337.993	14.44
338.365	14.92
338.736	15.02
339.108	14.81
339.479	14.72
339.851	15.48
340.222	15.17
340.593	14.84
340.964	15.33
341.336	14.74
341.707	15.28
342.078	14.72
342.449	15.16
342.82	15.4
343.191	14.89
343.562	15.32
343.933	15.53
344.303	15.85
344.674	15.61
345.045	15.82
345.416	15.67
345.786	15.73
346.157	15.87
346.527	15.55
346.898	15.68
347.268	15.24
347.639	15.72
348.009	16.34
348.38	15.61
348.75	15.86
349.12	16.11
349.49	16.09
349.861	16.58
350.231	16.54
350.601	16.01
350.971	16.41
351.341	16.68
351.711	16.49
352.081	16.53
352.45	16.74
352.82	16.63
353.19	16.64
353.56	16.48
353.929	16.7
354.299	16.78
354.669	16.69
355.038	16.64
355.408	16.97
355.777	16.88
356.147	17.11
356.516	17.02
356.885	16.93
357.254	16.89
357.624	17.17
357.993	16.91
358.362	17.14
358.731	16.82
359.1	17.18
359.469	17.36
359.838	16.92
360.207	16.96
360.576	17.37
360.945	17.44
361.314	17.49
361.682	17.42
362.051	17.17
362.42	18.01
362.788	17.69
363.157	17.56
363.525	17.29
363.894	17.39
364.262	17.41
364.631	18.23
364.999	17.7
365.367	17.97
365.735	17.67
366.104	17.49
366.472	18.19
366.84	18.1
367.208	17.72
367.576	17.65
367.944	18.48
368.312	18.09
368.68	18.15
369.048	18.51
369.416	18.34
369.783	18.69
370.151	18.1
370.519	18.12
370.886	18.33
371.254	18.76
371.621	18.5
371.989	18.65
372.356	18.82
372.724	18.78
373.091	18.31
373.458	18.84
373.826	18.72
374.193	18.92
374.56	18.63
374.927	18.65
375.294	19.04
375.661	18.69
376.028	18.83
376.395	18.91
376.762	19.62
377.129	19.35
377.496	18.94
377.863	19.6
378.229	19.27
378.596	19.06
378.963	19.5
379.329	19.22
379.696	19.42
380.062	19.47
380.429	19.54
380.795	19.16
381.161	19.32
381.528	19.04
381.894	19.48
382.26	19.56
382.626	19.5
382.993	19.73
383.359	19.31
383.725	20.15
384.091	19.85
384.457	19.98
384.823	19.76
385.188	20.01
385.554	20.11
385.92	20.26
386.286	19.93
386.651	20.08
387.017	20.51
387.383	20.23
387.748	20.34
388.114	20.59
388.479	20.15
388.845	20.69
389.21	20.24
389.575	20.55
389.94	20.66
390.306	20.43
390.671	20.86
391.036	20.71
391.401	20.66
391.766	20.54
392.131	20.75
392.496	20.7
392.861	20.65
393.226	20.84
393.591	20.89
393.956	20.89
394.32	21.01
394.685	21.19
395.05	20.91
395.414	21.52
395.779	21.01
396.143	20.8
396.508	21.2
396.872	21.13
397.236	21.22
397.601	21.85
397.965	21.29
398.329	21.62
398.694	21.26
399.058	21.59
399.422	21.53
399.786	21.89
400.15	21.53
400.514	21.82
400.878	21.67
401.242	22.15
401.605	21.96
401.969	21.65
402.333	21.77
402.697	22.09
403.06	22.22
403.424	21.94
403.787	22.17
404.151	21.9
404.514	22.09
404.878	22.11
405.241	22.28
405.604	22.23
405.968	22.3
406.331	22.09
406.694	22.22
407.057	22.52
407.42	22.41
407.783	22.2
408.146	22.28
408.509	22.62
408.872	22.28
409.235	22.74
409.598	22.61
409.961	22.75
410.323	22.92
410.686	22.59
411.049	22.72
411.411	22.77
411.774	22.89
412.136	22.85
412.499	22.85
412.861	22.59
413.223	23.19
413.586	22.66
413.948	23.03
414.31	23.17
414.672	23.18
415.035	23.34
415.397	23.51
415.759	23.28
416.121	23.3
416.483	23.4
416.845	23.44
417.206	23.2
417.568	23.52
417.93	23.32
418.292	23.44
418.653	23.49
419.015	23.43
419.377	23.31
419.738	23.35
420.1	23.41
420.461	23.39
420.822	23.44
421.184	23.43
421.545	23.39
421.906	23.57
422.267	23.38
422.629	23.36
422.99	23.24
423.351	23.61
423.712	23.51
424.073	23.63
424.434	23.52
424.795	23.72
425.155	23.64
425.516	23.66
425.877	23.65
426.238	23.64
426.598	23.75
426.959	23.72
427.32	23.9
427.68	24.04
428.041	24.25
428.401	24.06
428.761	24.19
429.122	24.23
429.482	24.24
429.842	24.46
430.202	24.65
430.563	24.39
430.923	24.36
431.283	24.75
431.643	24.78
432.003	24.68
432.363	24.6
432.722	24.54
433.082	24.67
433.442	24.84
433.802	24.72
434.161	24.97
434.521	25.13
434.881	25.01
435.24	24.82
435.6	24.89
435.959	24.91
436.319	24.82
436.678	25.16
437.037	25.24
437.396	25.33
437.756	25.35
438.115	25.37
438.474	25.24
438.833	25.43
439.192	25.39
439.551	25.38
439.91	25.59
440.269	25.57
440.628	25.52
440.987	25.46
441.345	25.34
441.704	25.51
442.063	25.3
442.421	25.39
442.78	25.3
443.138	25.48
443.497	25.5
443.855	25.71
444.214	25.88
444.572	25.69
444.93	26.13
445.288	26.06
445.647	26.09
446.005	25.91
446.363	26.01
446.721	25.68
447.079	25.9
447.437	25.92
447.795	25.66
448.153	25.7
448.51	25.78
448.868	25.9
449.226	26.01
449.584	26.04
449.941	26.08
450.299	26.3
450.656	26.38
451.014	26.4
451.371	26.38
451.729	26.61
452.086	26.41
452.443	26.61
452.801	26.92
453.158	26.76
453.515	26.79
453.872	27.03
454.229	26.79
454.586	26.83
454.943	27.06
455.3	26.84
455.657	26.93
456.014	27.03
456.371	27.07
456.727	27.02
457.084	27.04
457.441	27.17
457.797	27.31
458.154	27.16
458.51	27.39
458.867	27.46
459.223	27.5
459.58	27.53
459.936	27.51
460.292	27.43
460.648	27.28
461.005	27.33
461.361	27.19
461.717	27.07
462.073	27.22
462.429	27.41
462.785	27.45
463.141	27.54
463.496	27.54
463.852	28.03
464.208	27.71
464.564	27.89
464.919	27.91
465.275	28.16
465.631	28.28
465.986	28.16
466.342	28.2
466.697	28.26
467.052	28.1
467.408	28.37
467.763	28.16
468.118	28.38
468.473	28.53
468.829	28.42
469.184	28.46
469.539	28.28
469.894	28.48
470.249	28.75
470.603	28.84
470.958	28.61
471.313	28.83
471.668	28.81
472.023	28.85
472.377	28.96
472.732	28.93
473.086	28.84
473.441	29.03
473.795	29.29
474.15	29.12
474.504	29.19
474.859	29.11
475.213	29.16
475.567	29.1
475.921	29.2
476.275	29.44
476.63	29.36
476.984	29.47
477.338	29.57
477.692	29.68
478.045	29.3
478.399	29.48
478.753	29.19
479.107	29.25
479.461	29.67
479.814	29.39
480.168	29.63
480.521	29.54
480.875	29.75
481.228	29.88
481.582	29.6
481.935	29.74
482.289	29.69
482.642	29.92
482.995	29.84
483.348	29.7
483.701	29.44
484.055	29.6
484.408	29.52
484.761	29.36
485.114	29.2
485.466	29.14
485.819	28.89
486.172	28.81
486.525	28.86
486.878	29.19
487.23	29.32
487.583	29.57
487.936	29.64
488.288	29.65
488.641	29.65
488.993	29.55
489.345	29.58
489.698	29.65
490.05	29.5
490.402	29.69
490.754	30.01
491.107	30.1
491.459	30.27
491.811	30.32
492.163	30.37
492.515	30.29
492.866	30.18
493.218	30
493.57	30.12
493.922	29.99
494.274	30.3
494.625	30.46
494.977	30.77
495.328	30.98
495.68	31.23
496.031	31.41
496.383	31.33
496.734	31.26
497.086	31.28
497.437	31.57
497.788	31.39
498.139	31.34
498.49	31.35
498.842	31.28
499.193	31.21
499.544	31.57
499.894	31.57
500.245	31.53
500.596	31.75
500.947	31.66
501.298	31.83
501.648	31.58
501.999	32.03
502.35	32.18
502.7	31.99
503.051	32.18
503.401	32.19
503.752	32.31
504.102	32.35
504.452	32.09
504.803	31.9
505.153	32.1
505.503	32.33
505.853	32.19
506.203	32.41
506.553	32.45
506.903	32.51
507.253	32.32
507.603	32.53
507.953	32.5
508.303	32.62
508.652	32.73
509.002	32.76
509.352	32.6
509.701	32.65
510.051	32.73
510.4	32.74
510.75	32.79
511.099	32.88
511.449	32.75
511.798	32.95
512.147	32.83
512.496	33.01
512.846	32.95
513.195	33.08
513.544	32.96
513.893	32.96
514.242	33.25
514.591	33.14
514.939	33.19
515.288	33.22
515.637	33.46
515.986	33.55
516.334	33.42
516.683	33.57
517.032	33.62
517.38	33.71
517.729	33.6
518.077	33.87
518.426	33.73
518.774	33.73
519.122	33.6
519.47	33.72
519.819	33.6
520.167	33.5
520.515	33.6
520.863	33.36
521.211	33.54
521.559	33.6
521.907	33.86
522.255	34.15
522.602	34.12
522.95	34.16
523.298	34.12
523.645	34.3
523.993	34.35
524.341	34.45
524.688	34.47
525.036	34.37
525.383	34.57
525.73	34.56
526.078	34.59
526.425	34.5
526.772	34.34
527.119	34.28
527.466	34.28
527.814	34.15
528.161	34.21
528.508	34.36
528.854	34.35
529.201	34.42
529.548	34.28
529.895	34.27
530.242	34.27
530.588	34.04
530.935	34.08
531.282	34.03
531.628	34.22
531.975	34.48
532.321	34.57
532.667	34.65
533.014	34.97
533.36	34.88
533.706	34.91
534.052	34.94
534.399	35.11
534.745	34.89
535.091	34.95
535.437	34.76
535.783	34.97
536.129	35.04
536.474	35.35
536.82	35.33
537.166	35.54
537.512	35.55
537.857	35.66
538.203	35.58
538.549	35.6
538.894	35.61
539.239	35.81
539.585	35.76
539.93	36.05
540.276	36
540.621	36.2
540.966	36.3
541.311	36.32
541.656	36.35
542.001	36.26
542.346	36.03
542.691	36.01
543.036	35.77
543.381	35.66
543.726	35.8
544.071	35.83
544.415	35.97
544.76	36.06
545.105	36.33
545.449	36.25
545.794	36.38
546.138	36.86
546.483	36.97
546.827	37.03
547.171	37.04
547.516	36.97
547.86	37.09
548.204	37.03
548.548	36.99
548.892	37.19
549.236	37.27
549.58	37.15
549.924	37.28
550.268	37.72
550.612	37.66
550.956	37.63
551.3	37.91
551.643	37.95
551.987	37.92
552.33	38
552.674	38.09
553.017	38.15
553.361	38.1
553.704	38.44
554.048	38.04
554.391	38
554.734	38.26
555.077	38.18
555.42	38.1
555.764	38.07
556.107	38.26
556.45	38.36
556.793	38.43
557.135	38.58
557.478	38.66
557.821	38.47
558.164	38.7
558.507	38.63
558.849	38.8
559.192	38.84
559.534	38.72
559.877	38.95
560.219	38.86
560.562	38.98
560.904	39.06
561.246	39.1
561.589	38.95
561.931	39.33
562.273	39.25
562.615	39.18
562.957	39.15
563.299	39.31
563.641	39.38
563.983	39.39
564.325	38.99
564.667	39.2
565.008	39.25
565.35	39.36
565.692	39.53
566.033	39.86
566.375	39.46
566.716	39.61
567.058	39.76
567.399	39.58
567.741	39.81
568.082	39.43
568.423	39.53
568.764	39.57
569.105	39.78
569.447	39.91
569.788	39.89
570.129	39.97
570.47	40.04
570.811	40.18
571.151	40.18
571.492	40.2
571.833	40.15
572.174	40.21
572.514	40.66
572.855	40.56
573.195	40.39
573.536	40.34
573.876	40.18
574.217	40.24
574.557	40.65
574.898	40.45
575.238	40.44
575.578	40.59
575.918	40.57
576.258	40.84
576.598	40.59
576.938	40.82
577.278	40.77
577.618	40.69
577.958	40.82
578.298	41.16
578.638	40.91
578.977	40.94
579.317	41.26
579.657	41.2
579.996	41.29
580.336	41.47
580.675	41.57
581.014	41.69
581.354	41.52
581.693	41.74
582.032	41.81
582.372	42.02
582.711	41.7
583.05	42.14
583.389	41.7
583.728	42.11
584.067	42.02
584.406	42.1
584.745	41.82
585.083	42.49
585.422	41.76
585.761	42.38
586.1	42.41
586.438	42.14
586.777	42
587.115	42.04
587.454	42.25
587.792	42.62
588.13	42.68
588.469	42.43
588.807	42.78
589.145	42.29
589.483	42.53
589.821	42.21
590.159	42.6
590.497	42.57
590.835	42.7
591.173	42.82
591.511	42.73
591.849	42.73
592.187	42.92
592.524	42.74
592.862	42.34
593.2	42.64
593.537	43.05
593.875	42.72
594.212	42.98
594.55	42.84
594.887	43.37
595.224	43.21
595.561	43.36
595.899	43.2
596.236	43.2
596.573	42.91
596.91	43.44
597.247	43.16
597.584	43.64
597.921	43.09
598.258	43.34
598.594	43.37
598.931	43.05
599.268	43.06
599.604	43.26
599.941	43.48
600.277	43.29
600.614	43.42
600.95	43.56
601.287	43.39
601.623	43.64
601.959	43.75
602.296	43.79
602.632	44.02
602.968	43.92
603.304	43.89
603.64	44.37
603.976	44.11
604.312	44.1
604.648	43.92
604.984	44.15
605.319	43.79
605.655	44.09
605.991	43.75
606.326	43.97
606.662	43.83
606.998	44.11
607.333	43.95
607.668	44.48
608.004	43.89
608.339	44.08
608.674	44.35
609.01	44.55
609.345	44.76
609.68	44.61
610.015	44.9
610.35	44.81
610.685	44.51
611.02	45.03
611.355	44.62
611.689	44.46
612.024	44.59
612.359	44.84
612.694	44.82
613.028	45.11
613.363	44.79
613.697	45.01
614.032	45.46
614.366	45.42
614.7	45.54
615.035	45.2
615.369	45.09
615.703	45.36
616.037	45.26
616.371	45.45
616.705	45.33
617.039	45.5
617.373	45.66
617.707	45.59
618.041	45.53
618.375	45.34
618.709	45.29
619.042	45.75
619.376	45.79
619.71	45.87
620.043	45.92
620.377	46.12
620.71	45.89
621.043	46.12
621.377	46.07
621.71	46.03
622.043	46.18
622.376	46.02
622.709	46.49
623.043	46.12
623.376	46.14
623.709	46.42
624.041	46.14
624.374	46.32
624.707	46.01
625.04	46.1
625.373	46.41
625.705	46.75
626.038	46.44
626.37	46.44
626.703	46.49
627.035	46.42
627.368	46.56
627.7	46.77
628.032	46.71
628.365	46.51
628.697	46.58
629.029	46.75
629.361	47
629.693	46.54
630.025	46.9
630.357	46.7
630.689	47.05
631.021	46.95
631.353	47.22
631.684	47.2
632.016	47.13
632.348	47.07
632.679	47.12
633.011	47.6
633.342	47.04
633.674	47.12
634.005	47.02
634.336	47.2
634.668	47.06
634.999	47.75
635.33	47.24
635.661	47.8
635.992	47.4
636.323	47.23
636.654	47.26
636.985	47.51
637.316	47.31
637.647	47.53
637.977	47.56
638.308	47.38
638.639	47.4
638.969	47.94
639.3	47.76
639.63	47.82
639.961	47.85
640.291	48.54
640.622	47.77
640.952	48.13
641.282	48.13
641.612	47.65
641.943	48.17
642.273	48.25
642.603	48.52
642.933	48.15
643.263	48.13
643.592	48.57
643.922	48.49
644.252	48.21
644.582	47.97
644.911	47.74
645.241	47.96
645.571	48.56
645.9	48.24
646.23	48.48
646.559	48.2
646.888	48.91
647.218	48.76
647.547	48.48
647.876	48.77
648.205	48.52
648.534	48.63
648.863	48.68
649.192	48.9
649.521	48.37
649.85	49.44
650.179	48.46
650.508	48.97
650.837	49.01
651.165	48.73
651.494	48.83
651.822	49.23
652.151	49.57
652.479	48.74
652.808	48.61
653.136	49.2
653.465	48.94
653.793	49.43
654.121	49.1
654.449	49
654.777	48.79
655.105	49.5
655.433	49.17
655.761	49.19
656.089	49.6
656.417	49.27
656.745	49.39
657.073	49.63
657.4	49.68
657.728	49.52
658.056	49.3
658.383	49.73
658.711	49.65
659.038	49.3
659.365	49.41
659.693	49.48
660.02	49.33
660.347	49.85
660.674	49.77
661.001	49.4
661.329	49.99
661.656	49.26
661.982	49.56
662.309	49.8
662.636	49.8
662.963	49.56
663.29	50.08
663.616	50.25
663.943	49.75
664.27	49.65
664.596	49.93
664.923	50.21
665.249	50.08
665.576	50.23
665.902	50.12
666.228	49.54
666.554	50.69
666.881	50.07
667.207	50.26
667.533	50.03
667.859	50.4
668.185	50.03
668.511	50.63
668.837	50.34
669.162	50.86
669.488	50.45
669.814	50.41
670.139	50.91
670.465	51.05
670.791	50.52
671.116	50.26
671.442	50.74
671.767	50.86
672.092	50.63
672.418	50.87
672.743	51
673.068	50.31
673.393	50.72
673.718	50.36
674.043	49.98
674.368	50.96
674.693	50.71
675.018	51.52
675.343	51.5
675.667	51.06
675.992	50.13
676.317	50.89
676.641	50.3
676.966	51.11
677.29	51.38
677.615	51
677.939	50.8
678.264	51.34
678.588	50.95
678.912	51.23
679.236	51.33
679.56	51.42
679.885	51.24
680.209	51.46
680.532	51.12
680.856	51.39
681.18	51.34
681.504	51.12
681.828	51.53
682.152	51.08
682.475	52
682.799	51.89
683.122	51.5
683.446	51.09
683.769	51.35
684.093	51.72
684.416	51.69
684.739	52.39
685.062	51.92
685.386	52.76
685.709	51.24
686.032	51.42
686.355	50.98
686.678	51.54
687.001	50.91
687.324	51.56
687.646	51.17
687.969	52.19
688.292	52.85
688.614	51.96
688.937	52.02
689.26	52.39
689.582	50.98
689.904	51.75
690.227	52.34
690.549	52.15
690.871	51.98
691.194	52.64
691.516	52.31
691.838	52.33
692.16	52.09
692.482	51.83
692.804	52.51
693.126	51.96
693.448	53.02
693.769	51.65
694.091	52.07
694.413	52.61
694.735	52.93
695.056	52.52
695.378	53.1
695.699	53.13
696.021	53.44
696.342	52.33
696.663	52.74
696.984	53.81
697.306	52.58
697.627	53.59
697.948	53.14
698.269	52.92
698.59	53.11
698.911	53.07
699.232	52.96
699.553	52.43
699.873	52.56
700.194	52.89
700.515	52.78
700.835	52.51
701.156	53.1
701.477	52.37
701.797	53.48
702.117	52.33
702.438	52.93
702.758	53.09
703.078	52.6
703.398	53.04
703.719	53.24
704.039	53.21
704.359	52.73
704.679	53.65
704.999	53.86
705.319	54.65
705.638	52.98
705.958	54.21
706.278	53.3
706.597	54.28
706.917	53.82
707.237	52.65
707.556	53.85
707.876	54.34
708.195	53.5
708.514	53.6
708.834	53.31
709.153	54.11
709.472	54.19
709.791	54.91
710.11	53.7
710.429	53.01
710.748	53.24
711.067	53.61
711.386	55.01
711.705	53.76
712.023	54.17
712.342	53.17
712.661	54.89
712.979	54.75
713.298	53.82
713.616	53.83
713.935	54.66
714.253	53.52
714.572	52.72
714.89	53.61
715.208	54.61
715.526	54.15
715.844	54.54
716.162	54.53
716.48	53.51
716.798	53.53
717.116	54.31
717.434	53.79
717.752	54.75
718.069	54.84
718.387	54.21
718.705	54.22
719.022	55.83
719.34	53.94
719.657	54.49
719.975	53.24
720.292	54.96
720.609	54.28
720.927	53.31
721.244	53.84
721.561	53.43
721.878	54.71
722.195	55.31
722.512	53.9
722.829	55.02
723.146	55.19
723.463	55.1
723.779	53.31
724.096	53.71
724.413	54.82
724.729	54.62
725.046	54.24
725.362	53.58
725.679	54.81
725.995	53.98
726.311	55.29
726.628	53.08
726.944	54.87
727.26	55.5
727.576	55.17
727.892	55.71
728.208	55.06
728.524	55.03
728.84	53.91
729.156	54.01
729.472	55.23
729.787	54.82
730.103	54.83
730.419	55.09
730.734	55.15
731.05	54.24
731.365	54.92
731.681	54.88
731.996	54.89
732.311	53.87
732.626	55.49
732.942	55.65
733.257	56.1
733.572	54.31
733.887	55.73
734.202	55.72
734.517	55.12
734.832	54.17
735.146	56.05
735.461	54.13
735.776	55.41
736.091	55.8
736.405	53.95
736.72	54.93
737.034	55.57
737.349	56.54
737.663	54.4
737.977	55.82
738.292	56.14
738.606	54.16
738.92	55.73
739.234	55.47
739.548	56.88
739.862	57.05
740.176	56.46
740.49	56.29
740.804	55.52
741.117	55.94
741.431	55.82
741.745	55.17
742.058	54.61
742.372	55.83
742.685	54.39
742.999	56.88
743.312	57.1
743.626	55.42
743.939	57.92
744.252	56.04
744.565	57.92
744.878	55.91
745.191	54.47
745.505	56.19
745.817	55.88
746.13	57.94
746.443	52.94
746.756	57.54
747.069	57.76
747.381	56.44
747.694	54.43
748.007	56.67
748.319	56.93
748.632	56.39
748.944	56.82
749.256	57.2
749.569	55.53
749.881	55.71
750.193	56.3
750.505	58.65
750.817	56.8
751.129	57.27
751.441	56.55
751.753	58.66
752.065	55.63
752.377	54.66
752.689	57.03
753	55.1
753.312	56.26
753.624	57.14
753.935	56.75
754.247	56.15
754.558	57.46
754.869	56.24
755.181	57.62
755.492	56.02
755.803	54.89
756.114	56.42
756.425	57.33
756.736	56.57
757.047	56.04
757.358	56.82
757.669	56.13
757.98	57.06
758.291	56.49
758.601	54.32
758.912	57.21
759.223	57.61
759.533	56.55
759.844	56.29
760.154	56.16
760.464	56.95
760.775	56.44
761.085	56.75
761.395	56.99
761.705	57.45
762.016	56.63
762.326	57.43
762.636	59.45
762.945	57.09
763.255	55.47
763.565	57.71
763.875	56.87
764.185	57
764.494	56.52
764.804	57.01
765.113	57.8
765.423	58.45
765.732	57.52
766.042	57.98
766.351	57.82
766.66	56.93
766.97	56.36
767.279	56.82
767.588	59.95
767.897	57.99
768.206	57.84
768.515	57.16
768.824	56.18
769.133	57
769.441	59.49
769.75	58.74
770.059	57.19
770.367	57.93
770.676	55.96
770.984	56.66
771.293	57.19
771.601	57.4
771.91	59.38
772.218	54.75
772.526	56.1
772.834	58.63
773.142	57.31
773.45	53.91
773.758	57.28
774.066	56.41
774.374	56.64
774.682	58.13
774.99	56.55
775.298	58.18
775.605	56.02
775.913	57.03
776.22	58
776.528	58.42
776.835	55.83
777.143	58.34
777.45	53.29
777.757	55.11
778.065	57.65
778.372	56.13
778.679	60.19
778.986	55.44
779.293	56.11
779.6	57.11
779.907	56.5
780.214	60.56
780.52	57.47
780.827	57.8
781.134	58.41
781.44	54.55
781.747	57.2
782.053	59.34
782.36	59.02
782.666	54.03
782.973	59.13
783.279	59.21
783.585	56.57
783.891	60.91
784.197	56.71
784.503	58.87
784.809	61.1
785.115	54.46
785.421	57.34
785.727	57.14
786.033	57.28
786.339	58.46
786.644	55.92
786.95	61.6
787.255	59.85
787.561	61.17
787.866	56.62
788.172	56.01
788.477	54.64
788.782	58.81
789.088	58.47
789.393	58.31
789.698	58.83
790.003	61.27
790.308	59.7
790.613	59.27
790.918	60.69
791.223	61.44
791.527	59.51
791.832	57.49
792.137	58.65
792.441	57.71
792.746	56.96
793.05	59.63
793.355	59.02
793.659	58
793.963	58.15
794.268	55.57
794.572	62.83
794.876	58.48
795.18	54.83
795.484	59.57
795.788	56.23
796.092	60.78
796.396	59.21
796.7	54.47
797.004	62.09
797.307	56.45
797.611	60.96
797.915	60.18
798.218	61.92
798.522	58.82
798.825	55.33
799.128	59.45
799.432	59.79
799.735	57.92
800.038	58.81
800.341	56.63
800.644	57.81
800.947	58.14
801.25	62.58
801.553	53.63
801.856	55.51
802.159	55.95
802.462	58.27
802.764	61.88
803.067	54.44
803.37	55.25
803.672	59.05
803.975	57.94
804.277	63.59
804.579	61.77
804.882	57.2
805.184	59.69
805.486	56.99
805.788	61.37
806.09	59.27
806.392	59.17
806.694	57.28
806.996	53.22
807.298	55.29
807.6	65.4
807.902	54.47
808.203	61.03
808.505	57.08
808.807	55.78
809.108	56.88
809.409	57.86
809.711	59.8
810.012	60.66
810.313	61.71
810.615	62.46
810.916	58.93
811.217	61.33
811.518	65.01
811.819	57.71
812.12	58.1
812.421	58.78
812.722	54.04
813.023	60.21
813.323	61.62
813.624	58.22
813.925	57.62
814.225	63.78
814.526	65.2
814.826	54.88
815.126	53.69
815.427	59.95
815.727	55.9
816.027	59.73
816.327	53.48
816.627	58.11
816.927	58.01
817.227	62.07
817.527	57.56
817.827	54.52
818.127	65.55
818.427	64.11
818.727	59.51
819.026	61.81
819.326	63.11
819.625	61.47
819.925	56.84
820.224	58.48
820.524	60.68
820.823	58.85
821.122	57.28
821.421	60.9
821.72	60.17
822.019	56.46
822.318	63.5
822.617	62.41
822.916	60.51
823.215	59.76
823.514	58.26
823.813	62.47
824.111	60.24
824.41	61.17
824.709	62.5
825.007	61.48
825.306	60.41
825.604	61.14
825.902	60.77
826.201	59.09
826.499	59.48
826.797	60.92
827.095	61.35
827.393	60.1
827.691	58.34
827.989	58.18
828.287	61.79
828.585	57.64
828.882	60.03
829.18	58.89
829.478	58.98
829.775	59.5
830.073	61.35
830.37	59.34
830.668	60.85
830.965	59.04
831.263	59.7
831.56	60.21
831.857	64.65
832.154	62.49
832.451	61.4
832.748	58.52
833.045	57.52
833.342	56.54
833.639	61.16
833.936	65.65
834.232	57.97
834.529	58.14
834.826	55.31
835.122	59.62
835.419	63.33
835.715	60.98
836.012	58.92
836.308	61.04
836.604	59.09
836.901	63.33
837.197	59.69
837.493	60.95
837.789	61.43
838.085	58.4
838.381	59.59
838.677	60.56
838.972	61.9
839.268	59.92
839.564	68.33
839.86	65.1
840.155	55.54
840.451	51.83
840.746	62.74
841.042	68.55
841.337	55.83
841.632	66.76
841.928	61.5
842.223	59.65
842.518	52.08
842.813	55.14
843.108	56.64
843.403	58.84
843.698	62.48
843.993	52.39
844.287	61.23
844.582	64.13
844.877	64
845.171	65.26
845.466	62.05
845.761	57.05
846.055	57.48
846.349	56.73
846.644	59.26
846.938	57.97
847.232	68.63
847.526	51.71
847.82	63.67
848.114	46.81
848.408	58.35
848.702	58.63
848.996	61.36
849.29	59.71
849.584	54.9
849.877	69.6
850.171	57.59
850.465	50.25
850.758	59.7
851.052	60.49
851.345	57.44
851.638	56.98
851.932	59.97
852.225	51.89
852.518	73.4
852.811	74
853.104	43.23
853.397	64.04
853.69	39.24
853.983	49.92
854.276	65.86
854.569	57.4
854.861	63.87
855.154	73.47
855.447	40.84
855.739	49.93
856.032	50.13
856.324	65.28
856.616	57.93
856.909	76.39
857.201	46.34
857.493	49.77
857.785	53.4
858.077	42.27
858.369	46.74
858.661	69.85
858.953	80.98
859.245	67.16
859.537	85.25
859.829	88.08
860.12	78.51
860.412	53.71
860.703	77.72
860.995	60.96
861.286	94.24
861.578	48.66
861.869	51.92
862.16	53.84
862.452	64.27
862.743	75.87
863.034	91.12
863.325	60.03
863.616	75.35
863.907	61.52
864.198	41.43
864.488	88.23
864.779	30.2
865.07	56.58
865.36	51.33
865.651	77.21
865.941	49.86
866.232	31.88
866.522	65.18
866.813	77.8
867.103	42.71
867.393	51.96
867.683	77.7
867.973	80.66
868.263	52.82
868.553	81.03
868.843	50.81
869.133	35.07
869.423	51.58
869.713	66.27
870.002	30
870.292	75.31
870.582	42.73
870.871	62.46
871.161	57.62
871.45	55.21
871.739	39.79
872.029	41.52
872.318	50.88
872.607	58.47
872.896	73.54
873.185	79.72
873.474	44.08
873.763	44.07
874.052	49.73
874.341	8.39
874.63	81.77
874.918	64.23
875.207	70.8
875.496	59.78
875.784	61.61
876.073	57.81
876.361	45.23
876.649	71.23
876.938	73.78
877.226	61.95
877.514	86.38
877.802	48.21
878.09	36.01
878.378	61.47
878.666	43.36
878.954	71.4
879.242	62.14
879.53	55.61
879.817	52.57
880.105	47.8
880.392	67.16
880.68	55.56
880.967	60.32
881.255	44.05
881.542	58.56
881.83	42.66
882.117	58.52
882.404	52.66
882.691	48.64
882.978	48.95
883.265	41.76
883.552	42.15
883.839	63.68
884.126	51.33
884.413	61.88
884.699	62.47
884.986	60.03
885.273	58.5
885.559	58.5
885.846	58.5
