Data from 0019_forehead_Reflection__2__12.txt Node

Date: Thu Oct 20 20:25:11 CDT 2022
User: ToomeyLab
Spectrometer: FLMS14357
Trigger mode: 0
Integration Time (sec): 1.000000E-2
Scans to average: 100
Electric dark correction enabled: true
Nonlinearity correction enabled: false
Boxcar width: 0
XAxis mode: Wavelengths
Number of Pixels in Spectrum: 2048
>>>>>Begin Spectral Data<<<<<
189.047	52.07
189.435	52.07
189.823	52.07
190.211	-272.03
190.599	112.49
190.987	6569.81
191.375	-51.38
191.763	-60.53
192.151	117.84
192.538	-11.67
192.926	276.42
193.314	275.04
193.702	139.07
194.089	21.41
194.477	1474.87
194.864	90.57
195.252	1078.43
195.639	-28.39
196.027	98.27
196.414	-4.96
196.801	-80.42
197.189	100.53
197.576	276.94
197.963	-25.59
198.351	40.12
198.738	31.94
199.125	25.53
199.512	35.66
199.899	88.5
200.286	-10.16
200.673	41.85
201.06	47.69
201.447	3.31
201.833	93.61
202.22	19.04
202.607	23.27
202.994	32.42
203.38	56.95
203.767	11.39
204.154	0.5
204.54	39.04
204.927	16.38
205.313	35.3
205.699	66
206.086	35.28
206.472	27.76
206.858	50.83
207.245	52.8
207.631	-0.68
208.017	36.34
208.403	26.41
208.789	8.82
209.175	69.73
209.561	5.33
209.947	41.48
210.333	17.41
210.719	15.99
211.105	3.04
211.491	2.68
211.876	46.55
212.262	15.92
212.648	28.69
213.034	8.11
213.419	9.59
213.805	0.94
214.19	37.09
214.576	23.72
214.961	20.63
215.346	-19.51
215.732	22.02
216.117	28.14
216.502	21.66
216.888	33.66
217.273	31.8
217.658	27.31
218.043	-2.54
218.428	19.08
218.813	-17.08
219.198	23.69
219.583	36.63
219.968	16.95
220.353	7.09
220.738	14.67
221.122	20.06
221.507	2.99
221.892	11.64
222.276	7.89
222.661	13.86
223.046	5.13
223.43	18.14
223.815	-3.08
224.199	5.51
224.583	6.57
224.968	6.74
225.352	9.09
225.736	8.17
226.121	7.16
226.505	3.04
226.889	-1.26
227.273	2.56
227.657	7.78
228.041	4.42
228.425	5.86
228.809	4.54
229.193	2.25
229.577	2.61
229.961	0.96
230.344	2.3
230.728	2.12
231.112	2.04
231.495	2.52
231.879	1.78
232.263	3.36
232.646	2.53
233.03	0.42
233.413	1.38
233.797	1.8
234.18	5.63
234.563	2.88
234.946	2.91
235.33	2.64
235.713	4.62
236.096	2.51
236.479	0.56
236.862	4.7
237.245	3.03
237.628	2.86
238.011	1.89
238.394	1.85
238.777	-0.15
239.16	3.08
239.543	1.58
239.925	4.18
240.308	3.33
240.691	3.14
241.073	2.2
241.456	1.68
241.838	2.62
242.221	3.08
242.603	2.17
242.986	1.58
243.368	1.97
243.75	1.87
244.133	1.87
244.515	2.07
244.897	1.9
245.279	1.73
245.661	2.41
246.043	1.84
246.425	2.25
246.807	2.7
247.189	2.08
247.571	1.66
247.953	1.88
248.335	1.88
248.717	1.69
249.098	1.84
249.48	1.63
249.862	2.33
250.243	1.7
250.625	2.17
251.006	2.62
251.388	2.94
251.769	1.59
252.151	2.67
252.532	0.83
252.913	1.54
253.295	2.03
253.676	2.16
254.057	2.13
254.438	2.61
254.819	3.84
255.2	1.43
255.581	2.45
255.962	1.09
256.343	3.2
256.724	2.78
257.105	2
257.486	2.78
257.867	2.8
258.247	2.16
258.628	2.13
259.009	2.16
259.389	1.58
259.77	2.24
260.15	2.3
260.531	2.22
260.911	1.58
261.292	1.67
261.672	1.61
262.052	1.89
262.432	2.36
262.813	2.49
263.193	2.53
263.573	1.8
263.953	1.54
264.333	2.52
264.713	2.07
265.093	2.04
265.473	2.22
265.853	2.61
266.233	2.3
266.612	1.44
266.992	3.17
267.372	2.78
267.752	1.97
268.131	1.67
268.511	1.9
268.89	2.63
269.27	2.37
269.649	1.79
270.029	2.79
270.408	1.74
270.787	2.18
271.167	2.71
271.546	1.88
271.925	1.87
272.304	1.86
272.683	1.59
273.062	2.45
273.441	2.23
273.82	1.97
274.199	2.19
274.578	2.32
274.957	2.49
275.336	1.51
275.715	1.87
276.093	1.85
276.472	2.37
276.851	2.26
277.229	1.5
277.608	1.65
277.986	1.11
278.365	1.73
278.743	2.1
279.122	2.75
279.5	1.44
279.878	1.95
280.257	2.37
280.635	2.64
281.013	2.5
281.391	1.83
281.769	1.75
282.147	1.97
282.525	1.63
282.903	2.71
283.281	1.61
283.659	1.67
284.037	2.06
284.415	1.96
284.792	1.59
285.17	1.87
285.548	1.83
285.925	1.98
286.303	2.23
286.68	1.94
287.058	1.91
287.435	2.06
287.813	1.9
288.19	2.54
288.567	1.88
288.945	2.32
289.322	1.55
289.699	2.73
290.076	2.42
290.453	2.21
290.83	2.36
291.207	2.2
291.584	1.8
291.961	1.97
292.338	2.11
292.715	2.27
293.092	2.65
293.469	2.39
293.845	1.99
294.222	2.57
294.599	2.83
294.975	2.34
295.352	2.58
295.728	2.52
296.105	2.64
296.481	3.01
296.858	2.44
297.234	2.77
297.61	2.31
297.986	2.39
298.363	2.48
298.739	2.85
299.115	2.79
299.491	2.62
299.867	2.43
300.243	2.28
300.619	3.45
300.995	3.4
301.371	2.95
301.746	2.93
302.122	2.89
302.498	3.53
302.874	2.89
303.249	3.18
303.625	2.77
304	2.95
304.376	3.15
304.751	3.23
305.127	2.66
305.502	3.13
305.878	3.09
306.253	3.64
306.628	3.35
307.003	3.4
307.378	3.76
307.754	3.7
308.129	3.29
308.504	3.15
308.879	4.03
309.254	3.61
309.629	4.02
310.003	3.72
310.378	4.1
310.753	3.62
311.128	3.26
311.502	3.84
311.877	3.8
312.252	3.98
312.626	3.67
313.001	3.86
313.375	4.08
313.75	4.18
314.124	4.22
314.498	4.43
314.873	5.06
315.247	4.65
315.621	4.66
315.995	4.52
316.369	4.65
316.743	4.77
317.117	4.46
317.491	4.04
317.865	4.86
318.239	5.46
318.613	5.26
318.987	5.14
319.361	5.04
319.734	5.06
320.108	5.56
320.482	5.19
320.855	5
321.229	5.49
321.602	6.08
321.976	5.1
322.349	5
322.723	5.73
323.096	4.86
323.469	5.42
323.843	5.54
324.216	5.41
324.589	6.16
324.962	6.31
325.335	5.55
325.708	5.85
326.081	5.95
326.454	6.02
326.827	5.56
327.2	6.09
327.573	6.11
327.945	6.11
328.318	5.64
328.691	5.85
329.063	5.67
329.436	6.04
329.809	6.26
330.181	6.96
330.553	6.35
330.926	6.89
331.298	5.87
331.671	6.64
332.043	6.17
332.415	6.9
332.787	7.11
333.159	6.33
333.532	6.97
333.904	6.66
334.276	6.16
334.648	6.89
335.02	6.62
335.391	7.35
335.763	6.81
336.135	7.01
336.507	6.82
336.879	6.6
337.25	6.76
337.622	6.98
337.993	7.44
338.365	6.61
338.736	7.36
339.108	7.08
339.479	7.47
339.851	7.89
340.222	7.51
340.593	7.02
340.964	7.11
341.336	7.63
341.707	7.47
342.078	7.46
342.449	7.8
342.82	7.57
343.191	7.77
343.562	7.65
343.933	7.82
344.303	8
344.674	7.45
345.045	8.49
345.416	7.76
345.786	8.11
346.157	7.85
346.527	7.81
346.898	7.82
347.268	7.99
347.639	7.84
348.009	7.95
348.38	8.41
348.75	8.24
349.12	7.98
349.49	8.34
349.861	8.52
350.231	8.3
350.601	8.78
350.971	8.32
351.341	8.35
351.711	8.74
352.081	9.21
352.45	8.46
352.82	8.53
353.19	8.78
353.56	8.53
353.929	9.23
354.299	8.49
354.669	9.08
355.038	8.84
355.408	8.87
355.777	8.92
356.147	9.18
356.516	9.05
356.885	9.38
357.254	9.59
357.624	8.94
357.993	8.93
358.362	9.07
358.731	9.48
359.1	9.39
359.469	9.29
359.838	9.62
360.207	9.83
360.576	9.26
360.945	9.29
361.314	9.81
361.682	9.44
362.051	9.64
362.42	9.53
362.788	9.66
363.157	9.62
363.525	9.67
363.894	9.87
364.262	9.87
364.631	10.29
364.999	9.64
365.367	9.75
365.735	10.23
366.104	10.18
366.472	10.35
366.84	10.16
367.208	10.55
367.576	10.21
367.944	10.64
368.312	10.48
368.68	10.37
369.048	10.3
369.416	10.7
369.783	10.92
370.151	10.86
370.519	11.03
370.886	10.86
371.254	11.07
371.621	10.79
371.989	10.86
372.356	10.9
372.724	11.13
373.091	11.07
373.458	11.02
373.826	11.37
374.193	11.2
374.56	11.38
374.927	11.19
375.294	11.55
375.661	11.29
376.028	11.37
376.395	11.59
376.762	11.26
377.129	11.52
377.496	11.48
377.863	11.5
378.229	11.72
378.596	11.38
378.963	11.87
379.329	11.45
379.696	12.1
380.062	12.19
380.429	12.32
380.795	11.89
381.161	12.02
381.528	11.83
381.894	12.03
382.26	11.79
382.626	12.06
382.993	12.55
383.359	12.52
383.725	12.66
384.091	12.21
384.457	12.05
384.823	12.33
385.188	12.54
385.554	12.71
385.92	12.68
386.286	12.86
386.651	12.74
387.017	12.41
387.383	12.9
387.748	12.36
388.114	12.98
388.479	13.19
388.845	13.04
389.21	12.92
389.575	13.03
389.94	13.15
390.306	13.13
390.671	12.93
391.036	13.15
391.401	13.29
391.766	13.44
392.131	12.95
392.496	13.2
392.861	13.55
393.226	13.26
393.591	13.3
393.956	13.58
394.32	13.5
394.685	13.73
395.05	13.7
395.414	13.72
395.779	13.69
396.143	13.78
396.508	13.78
396.872	13.56
397.236	14.09
397.601	13.8
397.965	14.09
398.329	13.86
398.694	14.05
399.058	14.46
399.422	14.1
399.786	14.22
400.15	14.13
400.514	14.07
400.878	14.16
401.242	14.78
401.605	14.69
401.969	14.33
402.333	14.63
402.697	14.59
403.06	14.62
403.424	14.64
403.787	14.74
404.151	14.87
404.514	14.61
404.878	14.77
405.241	14.72
405.604	15.07
405.968	14.79
406.331	14.97
406.694	15.16
407.057	15.09
407.42	14.94
407.783	15.21
408.146	15.39
408.509	15.44
408.872	15.37
409.235	15.41
409.598	15.54
409.961	15.69
410.323	15.38
410.686	15.41
411.049	15.59
411.411	15.74
411.774	15.72
412.136	15.76
412.499	15.82
412.861	15.92
413.223	15.98
413.586	16.12
413.948	16.02
414.31	16.08
414.672	16
415.035	16.11
415.397	16
415.759	16.25
416.121	15.89
416.483	16.22
416.845	16.39
417.206	16.12
417.568	16.34
417.93	15.94
418.292	16.32
418.653	16.08
419.015	16.17
419.377	16.17
419.738	16.22
420.1	16.15
420.461	16.37
420.822	16.31
421.184	16.34
421.545	16.44
421.906	16.35
422.267	16.2
422.629	16.38
422.99	16.47
423.351	16.48
423.712	16.58
424.073	16.66
424.434	16.63
424.795	16.65
425.155	16.64
425.516	16.56
425.877	16.6
426.238	16.78
426.598	16.93
426.959	17.01
427.32	17.35
427.68	17.41
428.041	17.59
428.401	17.6
428.761	17.9
429.122	17.66
429.482	17.79
429.842	17.82
430.202	17.94
430.563	18.08
430.923	17.75
431.283	18.02
431.643	17.84
432.003	18.04
432.363	18.15
432.722	18.18
433.082	18.11
433.442	18.27
433.802	18.21
434.161	17.99
434.521	17.94
434.881	17.91
435.24	18.07
435.6	18.35
435.959	18.25
436.319	18.55
436.678	18.69
437.037	18.62
437.396	18.58
437.756	18.69
438.115	18.45
438.474	18.88
438.833	18.81
439.192	18.67
439.551	18.68
439.91	18.88
440.269	18.75
440.628	18.56
440.987	18.55
441.345	18.65
441.704	18.7
442.063	18.75
442.421	18.77
442.78	19.06
443.138	18.98
443.497	19.22
443.855	19.37
444.214	19.23
444.572	19.38
444.93	19.46
445.288	19.38
445.647	19.38
446.005	19.34
446.363	19.26
446.721	19.25
447.079	19.02
447.437	19.05
447.795	19.03
448.153	19.1
448.51	19.15
448.868	19.57
449.226	19.67
449.584	19.79
449.941	19.89
450.299	19.99
450.656	20.14
451.014	20.16
451.371	20.35
451.729	20.02
452.086	20.42
452.443	20.43
452.801	20.5
453.158	20.38
453.515	20.29
453.872	20.31
454.229	20.56
454.586	20.48
454.943	20.44
455.3	20.56
455.657	20.5
456.014	20.72
456.371	20.7
456.727	20.81
457.084	20.79
457.441	20.64
457.797	21.05
458.154	20.96
458.51	21.04
458.867	21.03
459.223	21.03
459.58	20.81
459.936	20.91
460.292	20.7
460.648	20.69
461.005	20.34
461.361	20.37
461.717	20.72
462.073	20.93
462.429	21.17
462.785	21.35
463.141	21.28
463.496	21.39
463.852	21.71
464.208	21.76
464.564	21.71
464.919	21.79
465.275	21.72
465.631	21.79
465.986	21.76
466.342	21.94
466.697	21.82
467.052	22.07
467.408	21.72
467.763	22.12
468.118	21.95
468.473	21.99
468.829	21.85
469.184	21.93
469.539	21.92
469.894	22.29
470.249	22.17
470.603	22.31
470.958	22.41
471.313	22.45
471.668	22.5
472.023	22.43
472.377	22.61
472.732	22.44
473.086	22.54
473.441	22.49
473.795	22.59
474.15	22.63
474.504	22.59
474.859	22.55
475.213	22.84
475.567	22.82
475.921	23.04
476.275	23.05
476.63	23.02
476.984	23.14
477.338	22.94
477.692	23.01
478.045	23.06
478.399	23.06
478.753	23.06
479.107	23.14
479.461	22.94
479.814	22.98
480.168	23.17
480.521	23.26
480.875	23.28
481.228	23.34
481.582	23.35
481.935	23.33
482.289	23.33
482.642	23.26
482.995	23.25
483.348	23.11
483.701	23.26
484.055	23.04
484.408	22.61
484.761	22.21
485.114	21.98
485.466	22.21
485.819	22.4
486.172	22.84
486.525	23.19
486.878	23.31
487.23	23.53
487.583	23.33
487.936	23.15
488.288	23
488.641	22.95
488.993	22.83
489.345	23
489.698	23.12
490.05	23.45
490.402	23.7
490.754	23.95
491.107	24.09
491.459	24.26
491.811	24.34
492.163	24.05
492.515	23.5
492.866	23.26
493.218	23.39
493.57	23.74
493.922	24.02
494.274	24.36
494.625	24.55
494.977	24.72
495.328	25
495.68	24.99
496.031	25.2
496.383	25.15
496.734	25.15
497.086	25.1
497.437	24.94
497.788	24.74
498.139	24.92
498.49	24.89
498.842	24.93
499.193	25.15
499.544	25.34
499.894	25.27
500.245	25.29
500.596	25.39
500.947	25.51
501.298	25.75
501.648	25.57
501.999	25.79
502.35	25.79
502.7	25.86
503.051	25.94
503.401	26.02
503.752	25.82
504.102	25.96
504.452	26.1
504.803	26.03
505.153	25.79
505.503	25.99
505.853	25.98
506.203	26.06
506.553	26.14
506.903	26.36
507.253	26.33
507.603	26.4
507.953	26.35
508.303	26.49
508.652	26.14
509.002	26.37
509.352	26.15
509.701	26.21
510.051	26.07
510.4	26.14
510.75	26.43
511.099	26.48
511.449	26.51
511.798	26.63
512.147	26.75
512.496	26.76
512.846	26.63
513.195	26.64
513.544	26.73
513.893	26.6
514.242	26.93
514.591	27.07
514.939	27.07
515.288	27.17
515.637	27.16
515.986	27.23
516.334	27.42
516.683	27.25
517.032	27.44
517.38	27.57
517.729	27.65
518.077	27.41
518.426	27.3
518.774	27.36
519.122	27.2
519.47	27.05
519.819	26.97
520.167	27.06
520.515	27.14
520.863	27.19
521.211	27.44
521.559	27.46
521.907	27.68
522.255	27.88
522.602	27.89
522.95	27.92
523.298	28.33
523.645	28.11
523.993	28.24
524.341	28.3
524.688	28.13
525.036	28.37
525.383	28.26
525.73	28.23
526.078	28.23
526.425	27.93
526.772	27.9
527.119	27.74
527.466	27.97
527.814	27.93
528.161	28.17
528.508	28.21
528.854	28.04
529.201	27.88
529.548	27.35
529.895	27.06
530.242	27.41
530.588	27.57
530.935	27.71
531.282	27.98
531.628	28.14
531.975	28.41
532.321	28.64
532.667	28.73
533.014	28.73
533.36	28.63
533.706	28.79
534.052	28.39
534.399	28.03
534.745	27.96
535.091	28.22
535.437	28.54
535.783	28.76
536.129	29.08
536.474	29.27
536.82	29.42
537.166	29.33
537.512	29.17
537.857	28.91
538.203	28.97
538.549	29.06
538.894	29.39
539.239	29.58
539.585	29.63
539.93	29.82
540.276	29.79
540.621	30.05
540.966	30
541.311	30.1
541.656	29.9
542.001	29.44
542.346	28.9
542.691	28.68
543.036	28.96
543.381	29.3
543.726	29.54
544.071	29.6
544.415	29.67
544.76	29.79
545.105	30.01
545.449	30.16
545.794	30.27
546.138	30.47
546.483	30.62
546.827	30.36
547.171	30.49
547.516	30.7
547.86	30.52
548.204	30.33
548.548	30.46
548.892	30.77
549.236	30.94
549.58	31.09
549.924	31.05
550.268	31.25
550.612	31.46
550.956	31.45
551.3	31.59
551.643	31.62
551.987	31.6
552.33	31.79
552.674	31.51
553.017	31.65
553.361	31.43
553.704	31.46
554.048	31.34
554.391	31.44
554.734	31.5
555.077	31.72
555.42	31.73
555.764	31.87
556.107	31.96
556.45	31.98
556.793	32.15
557.135	32.11
557.478	32.32
557.821	31.96
558.164	32.16
558.507	32.39
558.849	32.21
559.192	32.44
559.534	32.51
559.877	32.52
560.219	32.58
560.562	32.55
560.904	32.57
561.246	32.72
561.589	32.85
561.931	32.74
562.273	32.58
562.615	32.51
562.957	32.91
563.299	32.76
563.641	33.12
563.983	32.99
564.325	32.94
564.667	33.07
565.008	33.02
565.35	33.05
565.692	32.96
566.033	33.28
566.375	32.88
566.716	32.85
567.058	32.85
567.399	33.15
567.741	33.15
568.082	32.98
568.423	33.16
568.764	33.2
569.105	33.64
569.447	33.69
569.788	33.59
570.129	33.67
570.47	33.54
570.811	33.62
571.151	33.74
571.492	33.68
571.833	33.74
572.174	33.61
572.514	33.78
572.855	33.55
573.195	33.53
573.536	33.47
573.876	33.51
574.217	33.65
574.557	33.89
574.898	33.89
575.238	34.32
575.578	34.19
575.918	33.85
576.258	34.26
576.598	34.02
576.938	34.18
577.278	34.23
577.618	34.37
577.958	34.67
578.298	34.66
578.638	34.59
578.977	34.6
579.317	34.43
579.657	34.78
579.996	34.65
580.336	34.63
580.675	34.82
581.014	35.38
581.354	35.15
581.693	35.11
582.032	35.16
582.372	35.2
582.711	35.05
583.05	35.13
583.389	35.16
583.728	35.27
584.067	35.35
584.406	35.4
584.745	35.21
585.083	35.36
585.422	35.18
585.761	35.58
586.1	35.57
586.438	35.51
586.777	35.63
587.115	35.71
587.454	35.86
587.792	35.6
588.13	35.82
588.469	36.07
588.807	35.7
589.145	36.08
589.483	35.89
589.821	35.86
590.159	35.74
590.497	36.13
590.835	36.1
591.173	35.59
591.511	36
591.849	36.26
592.187	35.9
592.524	36.13
592.862	36.12
593.2	36.11
593.537	36.61
593.875	36.32
594.212	36.44
594.55	36.35
594.887	36.44
595.224	36.35
595.561	36.39
595.899	36.3
596.236	36.65
596.573	36.58
596.91	36.76
597.247	36.49
597.584	36.92
597.921	36.54
598.258	36.33
598.594	36.13
598.931	36.45
599.268	36.68
599.604	36.61
599.941	36.92
600.277	36.94
600.614	36.96
600.95	37.31
601.287	37.06
601.623	37.55
601.959	37.32
602.296	36.94
602.632	37.16
602.968	37.43
603.304	37.43
603.64	37.21
603.976	37.35
604.312	37.44
604.648	37.14
604.984	37.38
605.319	37.42
605.655	37.13
605.991	36.7
606.326	37.04
606.662	37.12
606.998	37.23
607.333	37.58
607.668	37.8
608.004	37.86
608.339	37.92
608.674	38.36
609.01	38.17
609.345	38.28
609.68	38.47
610.015	38.09
610.35	37.95
610.685	37.62
611.02	37.42
611.355	37.81
611.689	38.03
612.024	37.89
612.359	38.06
612.694	38.24
613.028	38.41
613.363	38.48
613.697	38.61
614.032	38.73
614.366	38.71
614.7	38.95
615.035	38.96
615.369	38.68
615.703	38.84
616.037	38.7
616.371	38.99
616.705	38.93
617.039	38.81
617.373	39.12
617.707	38.7
618.041	38.85
618.375	38.63
618.709	39.11
619.042	39.15
619.376	39.12
619.71	39.34
620.043	39.08
620.377	39.1
620.71	39.16
621.043	39.54
621.377	39.44
621.71	39.84
622.043	39.38
622.376	39.57
622.709	39.46
623.043	39.81
623.376	39.25
623.709	39.47
624.041	39.53
624.374	39.81
624.707	39.63
625.04	39.76
625.373	39.88
625.705	39.86
626.038	40.03
626.37	40.05
626.703	39.91
627.035	39.77
627.368	39.55
627.7	39.98
628.032	39.43
628.365	39.69
628.697	39.66
629.029	40.14
629.361	40.02
629.693	39.53
630.025	40.07
630.357	40.16
630.689	39.89
631.021	40.06
631.353	40.03
631.684	40.48
632.016	40.66
632.348	40.71
632.679	40.75
633.011	40.82
633.342	40.2
633.674	40.34
634.005	41.15
634.336	40.56
634.668	40.71
634.999	40.3
635.33	40.29
635.661	40.72
635.992	40.54
636.323	41.48
636.654	40.54
636.985	41.04
637.316	40.62
637.647	40.93
637.977	41.31
638.308	40.92
638.639	41.09
638.969	41.18
639.3	41.22
639.63	41.13
639.961	41.15
640.291	41.26
640.622	40.87
640.952	41.24
641.282	41.95
641.612	41.7
641.943	41.52
642.273	42.14
642.603	41.31
642.933	41.66
643.263	41.21
643.592	40.93
643.922	41.96
644.252	41.88
644.582	41.61
644.911	41.81
645.241	42.27
645.571	42.09
645.9	41.77
646.23	41.44
646.559	42.17
646.888	41.93
647.218	41.62
647.547	42.11
647.876	42.06
648.205	41.93
648.534	42.06
648.863	41.61
649.192	42.14
649.521	42.36
649.85	42.67
650.179	42.49
650.508	42
650.837	42.05
651.165	42.75
651.494	42.62
651.822	42.26
652.151	42.29
652.479	42.47
652.808	41.91
653.136	42.81
653.465	42.01
653.793	42.42
654.121	43.03
654.449	42.8
654.777	42.44
655.105	42.37
655.433	42.86
655.761	42.63
656.089	43.18
656.417	43.1
656.745	42.54
657.073	43.52
657.4	43.29
657.728	42.94
658.056	43.18
658.383	43.42
658.711	42.95
659.038	43.21
659.365	43.3
659.693	42.75
660.02	43.08
660.347	42.87
660.674	42.56
661.001	42.97
661.329	43.35
661.656	42.98
661.982	43.05
662.309	43.64
662.636	43.43
662.963	43.41
663.29	43.22
663.616	43.82
663.943	43.55
664.27	43.92
664.596	43.87
664.923	43.6
665.249	44.32
665.576	44.04
665.902	43.76
666.228	43.81
666.554	43.04
666.881	43.44
667.207	44.12
667.533	43.79
667.859	43.57
668.185	43.63
668.511	42.77
668.837	44.2
669.162	44.04
669.488	44.26
669.814	44.26
670.139	43.76
670.465	43.75
670.791	43.71
671.116	43.81
671.442	44.22
671.767	44.27
672.092	44.59
672.418	44.1
672.743	44.02
673.068	44.7
673.393	44.24
673.718	45.03
674.043	44.43
674.368	44.39
674.693	43.65
675.018	44.54
675.343	44.22
675.667	44.55
675.992	44.17
676.317	44.69
676.641	43.54
676.966	46.01
677.29	43.84
677.615	44.49
677.939	44.22
678.264	44.3
678.588	45.12
678.912	45.08
679.236	44.46
679.56	44.59
679.885	44.69
680.209	44.96
680.532	44.18
680.856	44.24
681.18	44.45
681.504	44.01
681.828	44.62
682.152	44.59
682.475	44.8
682.799	44.55
683.122	45.45
683.446	44.59
683.769	44.69
684.093	45.33
684.416	45.36
684.739	45.08
685.062	45.56
685.386	45.24
685.709	44.74
686.032	45.81
686.355	44.55
686.678	45.44
687.001	45.12
687.324	45.87
687.646	45.77
687.969	45.79
688.292	45.3
688.614	44.83
688.937	44.99
689.26	44.66
689.582	45.51
689.904	44.89
690.227	45.23
690.549	44.73
690.871	45.58
691.194	45.36
691.516	45.6
691.838	45.84
692.16	46.42
692.482	46.02
692.804	45.69
693.126	45.84
693.448	45.21
693.769	45.04
694.091	45.62
694.413	46
694.735	46.03
695.056	45.77
695.378	45.52
695.699	46.05
696.021	45.56
696.342	45.47
696.663	46.8
696.984	45.57
697.306	47.15
697.627	46.29
697.948	45.61
698.269	45.67
698.59	45.59
698.911	46.07
699.232	45.99
699.553	45.62
699.873	45.33
700.194	45.94
700.515	45.84
700.835	45.95
701.156	46.44
701.477	46.81
701.797	47.11
702.117	46.47
702.438	46.69
702.758	47.6
703.078	47.18
703.398	47.08
703.719	47.56
704.039	46.44
704.359	47.2
704.679	47
704.999	45.66
705.319	47.18
705.638	46.48
705.958	47.19
706.278	46.58
706.597	46.45
706.917	47.33
707.237	46.83
707.556	46.62
707.876	46.86
708.195	47.33
708.514	46.44
708.834	47.61
709.153	47.11
709.472	46.66
709.791	47.87
710.11	46.68
710.429	46.65
710.748	48.06
711.067	47.6
711.386	47.45
711.705	46.79
712.023	47.71
712.342	46.6
712.661	46.36
712.979	46.97
713.298	46.85
713.616	46.36
713.935	47.27
714.253	47.17
714.572	47.45
714.89	47.58
715.208	46.96
715.526	47.86
715.844	47.6
716.162	47.19
716.48	47.67
716.798	48.66
717.116	48.62
717.434	47.79
717.752	47.37
718.069	47.33
718.387	47.97
718.705	48.2
719.022	48.73
719.34	47.52
719.657	48.24
719.975	47.84
720.292	47.45
720.609	47.67
720.927	48.33
721.244	48.19
721.561	48.03
721.878	47.63
722.195	48.47
722.512	49.1
722.829	50.1
723.146	48.48
723.463	47.78
723.779	49.74
724.096	48.89
724.413	48.95
724.729	46.49
725.046	47.78
725.362	49.82
725.679	48.52
725.995	47.71
726.311	47.78
726.628	48.1
726.944	49.31
727.26	48.49
727.576	48.83
727.892	47.91
728.208	48.48
728.524	47.83
728.84	49.23
729.156	48.28
729.472	48.12
729.787	49
730.103	49.64
730.419	49.05
730.734	47.44
731.05	48.84
731.365	48.83
731.681	49
731.996	47.94
732.311	48.42
732.626	48.39
732.942	48.51
733.257	48.12
733.572	49.12
733.887	48.84
734.202	49.7
734.517	47.91
734.832	49.54
735.146	48.2
735.461	48.83
735.776	49.4
736.091	49.31
736.405	49.63
736.72	48.62
737.034	49.74
737.349	49.47
737.663	50.16
737.977	50.1
738.292	48.76
738.606	49.63
738.92	48.9
739.234	49.7
739.548	48.81
739.862	48.19
740.176	49.91
740.49	49.79
740.804	50.67
741.117	48.63
741.431	51.14
741.745	48.93
742.058	49.55
742.372	50.39
742.685	49.59
742.999	50.05
743.312	49.49
743.626	50.83
743.939	50.72
744.252	49.23
744.565	50.48
744.878	49.26
745.191	49.93
745.505	52.24
745.817	51.17
746.13	50.6
746.443	50.14
746.756	51.38
747.069	50.61
747.381	50.83
747.694	48.75
748.007	50.08
748.319	49.56
748.632	50.5
748.944	51.2
749.256	50.98
749.569	48.5
749.881	49.38
750.193	50.27
750.505	48.73
750.817	49.74
751.129	48.65
751.441	50.97
751.753	50.04
752.065	49.61
752.377	48.82
752.689	49.24
753	50.99
753.312	51.74
753.624	50.05
753.935	49.45
754.247	50.83
754.558	51.37
754.869	50.57
755.181	52.13
755.492	51.39
755.803	51.1
756.114	49.03
756.425	52.54
756.736	50.2
757.047	49.32
757.358	50.6
757.669	52.23
757.98	51.04
758.291	51.16
758.601	50.01
758.912	48.98
759.223	50.09
759.533	51
759.844	50.83
760.154	47.71
760.464	50.51
760.775	49.54
761.085	50.68
761.395	51.34
761.705	51.87
762.016	48.6
762.326	50.16
762.636	51.75
762.945	50.48
763.255	50.35
763.565	51.28
763.875	51.54
764.185	49.74
764.494	52.08
764.804	50.33
765.113	49.99
765.423	51.2
765.732	50.76
766.042	50.84
766.351	51.19
766.66	50.98
766.97	50.56
767.279	49.88
767.588	51.21
767.897	49.64
768.206	52.93
768.515	50.17
768.824	52.91
769.133	50.13
769.441	49.7
769.75	50.86
770.059	51.66
770.367	50.8
770.676	51.02
770.984	51.17
771.293	53.82
771.601	51.77
771.91	52.95
772.218	51.24
772.526	51.76
772.834	52.65
773.142	49.88
773.45	51.61
773.758	55.41
774.066	49.8
774.374	51.59
774.682	48.78
774.99	51.48
775.298	48.43
775.605	51.65
775.913	49.9
776.22	50.74
776.528	53.22
776.835	53.35
777.143	52.15
777.45	52.12
777.757	52.04
778.065	49.46
778.372	53.6
778.679	50.51
778.986	51.97
779.293	51.16
779.6	53.46
779.907	52.16
780.214	51.93
780.52	52.03
780.827	53.33
781.134	48.01
781.44	49.32
781.747	51.06
782.053	50.08
782.36	49.69
782.666	52.09
782.973	51.3
783.279	57.27
783.585	52.71
783.891	55.27
784.197	52.58
784.503	51.29
784.809	50.63
785.115	53.95
785.421	52.01
785.727	51.64
786.033	51.94
786.339	47.91
786.644	54.23
786.95	51.15
787.255	51.6
787.561	54
787.866	50.11
788.172	52.05
788.477	48.89
788.782	53.02
789.088	56.24
789.393	52.82
789.698	52.32
790.003	54.84
790.308	49.82
790.613	53.52
790.918	53.56
791.223	55.43
791.527	49.11
791.832	51.64
792.137	51.53
792.441	53.97
792.746	54.42
793.05	53.55
793.355	50.21
793.659	51.93
793.963	54.11
794.268	51.89
794.572	53.82
794.876	54.69
795.18	50.04
795.484	54.2
795.788	51.93
796.092	49.39
796.396	52.23
796.7	52.66
797.004	51.52
797.307	53.79
797.611	53.56
797.915	55.08
798.218	48.88
798.522	55.58
798.825	51.96
799.128	50.22
799.432	50.97
799.735	53.89
800.038	53.71
800.341	53.9
800.644	55.29
800.947	52.99
801.25	53.75
801.553	49.7
801.856	54.9
802.159	51.86
802.462	51.83
802.764	54.21
803.067	46.84
803.37	55.22
803.672	49.81
803.975	54.97
804.277	54.11
804.579	54.54
804.882	54.83
805.184	57.1
805.486	51.97
805.788	51.4
806.09	55.32
806.392	54.24
806.694	57.56
806.996	53.18
807.298	48.56
807.6	53.5
807.902	54.13
808.203	48.28
808.505	52.76
808.807	54.69
809.108	52.42
809.409	54.96
809.711	53.54
810.012	56.8
810.313	50.11
810.615	53.46
810.916	56.93
811.217	52.26
811.518	54.33
811.819	50.35
812.12	48.07
812.421	52.08
812.722	58.22
813.023	47.53
813.323	54.21
813.624	53.61
813.925	53.23
814.225	52.46
814.526	56.52
814.826	51.7
815.126	55.94
815.427	50.28
815.727	58.71
816.027	51.61
816.327	55.09
816.627	54.15
816.927	50.54
817.227	57.95
817.527	51.6
817.827	51.43
818.127	53.91
818.427	52.55
818.727	58.65
819.026	53.9
819.326	55.68
819.625	50.28
819.925	51.83
820.224	51.76
820.524	55.13
820.823	51.16
821.122	62.29
821.421	54.04
821.72	54.52
822.019	52.95
822.318	54.72
822.617	52.21
822.916	52.33
823.215	51.96
823.514	57.02
823.813	54.12
824.111	52.09
824.41	51.89
824.709	52.08
825.007	53.65
825.306	54.19
825.604	53.63
825.902	52.47
826.201	53.75
826.499	52.62
826.797	54.71
827.095	54.33
827.393	53.92
827.691	54.94
827.989	52.77
828.287	53.99
828.585	54.82
828.882	54.67
829.18	51.17
829.478	52.34
829.775	55.47
830.073	53.7
830.37	53.13
830.668	52.48
830.965	55.49
831.263	55.31
831.56	51.3
831.857	56.03
832.154	54.05
832.451	55.17
832.748	52.9
833.045	54.95
833.342	53.31
833.639	54.61
833.936	52.59
834.232	55.23
834.529	55.61
834.826	50.01
835.122	54.39
835.419	51.71
835.715	54.78
836.012	53.59
836.308	50.83
836.604	53.79
836.901	55.98
837.197	50.37
837.493	51.6
837.789	51.2
838.085	57.65
838.381	54.76
838.677	51.62
838.972	56.14
839.268	53.24
839.564	55.69
839.86	59.33
840.155	56.93
840.451	53.54
840.746	58.16
841.042	61.3
841.337	56.68
841.632	47.27
841.928	51.6
842.223	52.44
842.518	51.18
842.813	59.04
843.108	56.16
843.403	52.84
843.698	51.09
843.993	56.87
844.287	55.27
844.582	53.08
844.877	54.66
845.171	64.38
845.466	49.07
845.761	52.9
846.055	57.53
846.349	50.04
846.644	55.87
846.938	58.02
847.232	51.89
847.526	51.8
847.82	49.96
848.114	63.85
848.408	51.04
848.702	62.67
848.996	55.33
849.29	59.38
849.584	52.95
849.877	50.59
850.171	42.5
850.465	46.11
850.758	50.29
851.052	48.41
851.345	38.55
851.638	70.19
851.932	54.82
852.225	47.71
852.518	54.89
852.811	53.56
853.104	52.26
853.397	57.96
853.69	62.27
853.983	52.8
854.276	56.57
854.569	65.71
854.861	61.97
855.154	58.66
855.447	50.1
855.739	41.1
856.032	64.85
856.324	64.75
856.616	67.37
856.909	61.31
857.201	53.38
857.493	46.47
857.785	49.84
858.077	54.95
858.369	60.56
858.661	53.5
858.953	52.54
859.245	73.3
859.537	66.28
859.829	42.1
860.12	41.86
860.412	56.01
860.703	37.79
860.995	50.41
861.286	74.21
861.578	62.57
861.869	64.21
862.16	52.84
862.452	53.23
862.743	57.55
863.034	53.85
863.325	64.37
863.616	54.41
863.907	61.27
864.198	33.11
864.488	51.71
864.779	54.03
865.07	56.99
865.36	51.6
865.651	53.93
865.941	53.81
866.232	51.16
866.522	77.56
866.813	46.4
867.103	68.62
867.393	50.2
867.683	80.09
867.973	53.37
868.263	31.22
868.553	47.62
868.843	51.47
869.133	67.69
869.423	51.78
869.713	41.38
870.002	46.98
870.292	62.45
870.582	69.33
870.871	60.43
871.161	48.2
871.45	50.74
871.739	40.12
872.029	44.08
872.318	57.13
872.607	57.43
872.896	69.77
873.185	36.71
873.474	69.19
873.763	78.97
874.052	59.14
874.341	52.8
874.63	63.24
874.918	57.83
875.207	57.94
875.496	54.04
875.784	41.77
876.073	30.11
876.361	70.03
876.649	45.92
876.938	54.35
877.226	50.16
877.514	57.66
877.802	51.41
878.09	38.05
878.378	58.07
878.666	43.86
878.954	57.04
879.242	53.78
879.53	62.57
879.817	55.98
880.105	69.69
880.392	58.82
880.68	63.55
880.967	47.24
881.255	60.32
881.542	36.58
881.83	64.36
882.117	53.64
882.404	41.78
882.691	51.9
882.978	47.1
883.265	57.5
883.552	51.29
883.839	57.59
884.126	65.78
884.413	52.03
884.699	49.56
884.986	56.8
885.273	54.29
885.559	54.29
885.846	54.29
