Data from 0019_forehead_Reflection__1__11.txt Node

Date: Thu Oct 20 20:24:57 CDT 2022
User: ToomeyLab
Spectrometer: FLMS14357
Trigger mode: 0
Integration Time (sec): 1.000000E-2
Scans to average: 100
Electric dark correction enabled: true
Nonlinearity correction enabled: false
Boxcar width: 0
XAxis mode: Wavelengths
Number of Pixels in Spectrum: 2048
>>>>>Begin Spectral Data<<<<<
189.047	71.03
189.435	71.03
189.823	71.03
190.211	138.7
190.599	135.67
190.987	7203.77
191.375	34.7
191.763	-396.08
192.151	55.96
192.538	-60.35
192.926	146.51
193.314	-41.21
193.702	232.81
194.089	89.94
194.477	807.49
194.864	105.57
195.252	213.45
195.639	188.8
196.027	429.86
196.414	-64.3
196.801	-31.37
197.189	117.63
197.576	-210.36
197.963	128.28
198.351	32.68
198.738	17.74
199.125	36.22
199.512	10.03
199.899	27.98
200.286	24.33
200.673	31.13
201.06	40.69
201.447	54.65
201.833	69.56
202.22	-3.65
202.607	18.37
202.994	32
203.38	-13.66
203.767	33.32
204.154	7.53
204.54	6.74
204.927	20.58
205.313	33.2
205.699	15.17
206.086	46.9
206.472	34.35
206.858	51.71
207.245	31.67
207.631	-5.63
208.017	20
208.403	29.01
208.789	36.7
209.175	47.62
209.561	7.04
209.947	40.88
210.333	0.03
210.719	32.73
211.105	-30.82
211.491	22.83
211.876	22.41
212.262	3.44
212.648	41.35
213.034	23.52
213.419	-0.3
213.805	31.51
214.19	28.93
214.576	25.8
214.961	32.43
215.346	1.74
215.732	13.46
216.117	24.37
216.502	24.56
216.888	40.2
217.273	28.17
217.658	9.43
218.043	-5.62
218.428	21.79
218.813	-6.24
219.198	20.45
219.583	41.82
219.968	13.74
220.353	-2.57
220.738	16.94
221.122	37.91
221.507	15.08
221.892	19.98
222.276	14.36
222.661	12.9
223.046	15.75
223.43	22.37
223.815	5.48
224.199	22.43
224.583	9.61
224.968	8.09
225.352	10.01
225.736	2.84
226.121	11.15
226.505	9.77
226.889	7.27
227.273	4.87
227.657	11.56
228.041	4.94
228.425	6.65
228.809	4.82
229.193	5.34
229.577	5.7
229.961	3.69
230.344	3.97
230.728	4.7
231.112	3.76
231.495	4.9
231.879	4.86
232.263	4.38
232.646	4.38
233.03	3.28
233.413	3.6
233.797	1.79
234.18	4.51
234.563	5.74
234.946	3.05
235.33	3.89
235.713	6
236.096	4.15
236.479	3.75
236.862	4.84
237.245	4.71
237.628	5
238.011	3.3
238.394	3.64
238.777	4.53
239.16	4.89
239.543	4.98
239.925	5.51
240.308	5.48
240.691	4.19
241.073	5.4
241.456	3.63
241.838	3.84
242.221	5.21
242.603	4.81
242.986	4.15
243.368	3.97
243.75	4.13
244.133	3.85
244.515	4.34
244.897	4.45
245.279	4.04
245.661	4.64
246.043	4.41
246.425	3.83
246.807	5.08
247.189	4.82
247.571	4.17
247.953	3.99
248.335	3.94
248.717	3.85
249.098	3.99
249.48	3.8
249.862	3.93
250.243	4.06
250.625	4.77
251.006	5.06
251.388	5.85
251.769	4.76
252.151	5.47
252.532	4.32
252.913	4.12
253.295	4.1
253.676	4.1
254.057	4.1
254.438	5.28
254.819	5.22
255.2	5.14
255.581	5.24
255.962	4.41
256.343	6.47
256.724	4.13
257.105	4.72
257.486	4.58
257.867	4.6
258.247	4.74
258.628	4.22
259.009	4.3
259.389	3.73
259.77	4.73
260.15	4.41
260.531	4.4
260.911	3.61
261.292	3.81
261.672	3.94
262.052	4.19
262.432	4.28
262.813	4.09
263.193	3.8
263.573	4.08
263.953	3.85
264.333	3.71
264.713	4.3
265.093	3.78
265.473	5.24
265.853	4.6
266.233	4.16
266.612	4.36
266.992	5.13
267.372	4.94
267.752	4.05
268.131	4.11
268.511	4.07
268.89	4.12
269.27	4.37
269.649	4.5
270.029	4.82
270.408	4.2
270.787	3.74
271.167	4.12
271.546	4.18
271.925	3.85
272.304	3.82
272.683	4
273.062	4.27
273.441	4.17
273.82	3.82
274.199	3.72
274.578	4.54
274.957	4.63
275.336	4.19
275.715	4.03
276.093	4.38
276.472	4.53
276.851	4.64
277.229	3.57
277.608	3.99
277.986	4.07
278.365	3.51
278.743	4.13
279.122	4.47
279.5	4.06
279.878	4.11
280.257	4.15
280.635	4.59
281.013	4.29
281.391	4.16
281.769	4.32
282.147	4.08
282.525	3.95
282.903	4.27
283.281	4.19
283.659	3.55
284.037	4.12
284.415	4.31
284.792	4.24
285.17	4.34
285.548	3.94
285.925	4.34
286.303	4.19
286.68	3.98
287.058	3.92
287.435	3.79
287.813	3.76
288.19	4.23
288.567	4.07
288.945	4.82
289.322	3.78
289.699	4.63
290.076	4.61
290.453	4.75
290.83	4.37
291.207	4.71
291.584	4.11
291.961	4.62
292.338	4.69
292.715	4.38
293.092	4.92
293.469	5.05
293.845	4.5
294.222	4.97
294.599	5.09
294.975	5.13
295.352	5.54
295.728	5.18
296.105	4.67
296.481	5.14
296.858	5.25
297.234	5.05
297.61	4.74
297.986	4.96
298.363	4.68
298.739	5.23
299.115	5.09
299.491	5.24
299.867	5.05
300.243	5.21
300.619	5.42
300.995	5.85
301.371	5.07
301.746	5.65
302.122	5.43
302.498	6.39
302.874	5.6
303.249	6.23
303.625	5.96
304	6.21
304.376	5.78
304.751	5.79
305.127	5.21
305.502	6.22
305.878	6.59
306.253	6.46
306.628	6.25
307.003	6.58
307.378	6.96
307.754	6.89
308.129	6.4
308.504	6.54
308.879	7.01
309.254	6.85
309.629	7.08
310.003	7.33
310.378	6.98
310.753	7.41
311.128	6.72
311.502	7.13
311.877	7.46
312.252	7.72
312.626	7.18
313.001	7.04
313.375	7.79
313.75	7.8
314.124	7.7
314.498	7.72
314.873	8.18
315.247	8.16
315.621	8.15
315.995	8.27
316.369	8.2
316.743	8.76
317.117	8.34
317.491	8.71
317.865	9.1
318.239	8.91
318.613	8.95
318.987	8.84
319.361	9.2
319.734	9.11
320.108	9.8
320.482	8.27
320.855	9.05
321.229	8.99
321.602	8.89
321.976	9.31
322.349	9.53
322.723	9.83
323.096	9.58
323.469	9.7
323.843	9.96
324.216	10.26
324.589	10.02
324.962	10.23
325.335	9.4
325.708	10.43
326.081	10.23
326.454	10.32
326.827	10.21
327.2	10.72
327.573	10.37
327.945	10.48
328.318	10.46
328.691	10.84
329.063	9.55
329.436	10.25
329.809	10.7
330.181	11.25
330.553	11
330.926	10.92
331.298	10.5
331.671	11.19
332.043	11.31
332.415	11.38
332.787	11.23
333.159	11.06
333.532	11.37
333.904	11.2
334.276	11.77
334.648	11.63
335.02	11.61
335.391	12.35
335.763	11.55
336.135	11.57
336.507	11.38
336.879	11.93
337.25	12.04
337.622	12.24
337.993	12.02
338.365	11.88
338.736	12.8
339.108	11.91
339.479	12.25
339.851	12.54
340.222	11.88
340.593	11.86
340.964	12.91
341.336	12.26
341.707	12.54
342.078	12.48
342.449	12.58
342.82	12.72
343.191	12.99
343.562	12.95
343.933	12.85
344.303	13
344.674	12.37
345.045	12.76
345.416	13.12
345.786	13.21
346.157	12.9
346.527	13.23
346.898	13.04
347.268	13.17
347.639	13.56
348.009	12.77
348.38	13.81
348.75	13.4
349.12	13.67
349.49	13.88
349.861	14.03
350.231	13.83
350.601	14.02
350.971	13.85
351.341	13.92
351.711	14.16
352.081	14.29
352.45	14.08
352.82	14.07
353.19	14.17
353.56	14.38
353.929	14.49
354.299	14.24
354.669	14.64
355.038	14.46
355.408	14.41
355.777	14.27
356.147	14.47
356.516	14.79
356.885	15.16
357.254	15.03
357.624	14.45
357.993	14.82
358.362	15.03
358.731	14.82
359.1	15.07
359.469	15.09
359.838	15.44
360.207	15.59
360.576	15.43
360.945	14.78
361.314	15.29
361.682	15.19
362.051	15.35
362.42	15.18
362.788	15.22
363.157	15.37
363.525	15.63
363.894	15.83
364.262	15.89
364.631	16.17
364.999	15.44
365.367	15.71
365.735	16.15
366.104	15.85
366.472	16.1
366.84	16.21
367.208	16.08
367.576	15.95
367.944	16.52
368.312	16.38
368.68	16.6
369.048	16.21
369.416	16.92
369.783	16.82
370.151	16.82
370.519	16.93
370.886	17.06
371.254	17.14
371.621	16.75
371.989	16.42
372.356	16.8
372.724	16.81
373.091	17.22
373.458	17.39
373.826	17.29
374.193	17.52
374.56	17.31
374.927	17.9
375.294	17.37
375.661	17.37
376.028	17.91
376.395	17.7
376.762	17.45
377.129	17.95
377.496	17.52
377.863	17.83
378.229	17.85
378.596	17.69
378.963	17.85
379.329	17.64
379.696	18.53
380.062	18.43
380.429	18.12
380.795	18.2
381.161	18.45
381.528	18.32
381.894	18.28
382.26	18.2
382.626	18.51
382.993	18.71
383.359	18.68
383.725	18.99
384.091	18.61
384.457	18.56
384.823	18.64
385.188	19.23
385.554	18.65
385.92	18.91
386.286	19.2
386.651	19
387.017	18.95
387.383	19.4
387.748	19.36
388.114	19.09
388.479	19.53
388.845	19.66
389.21	19.29
389.575	19.12
389.94	19.97
390.306	19.27
390.671	19.71
391.036	19.96
391.401	19.56
391.766	20.13
392.131	19.42
392.496	19.69
392.861	20.11
393.226	19.87
393.591	19.99
393.956	20.24
394.32	20.36
394.685	20.48
395.05	20.1
395.414	20.29
395.779	20.08
396.143	20.63
396.508	20.54
396.872	20.32
397.236	20.86
397.601	20.64
397.965	20.7
398.329	20.63
398.694	20.93
399.058	21.02
399.422	20.99
399.786	21.1
400.15	20.86
400.514	21.04
400.878	21.35
401.242	21.23
401.605	21.09
401.969	21.47
402.333	21.53
402.697	21.44
403.06	21.51
403.424	21.43
403.787	21.28
404.151	21.9
404.514	21.16
404.878	21.76
405.241	21.52
405.604	21.83
405.968	21.69
406.331	21.77
406.694	21.96
407.057	21.78
407.42	22.29
407.783	22.03
408.146	22.35
408.509	22.57
408.872	22.55
409.235	22.62
409.598	22.49
409.961	22.61
410.323	22.64
410.686	22.41
411.049	22.57
411.411	22.51
411.774	22.73
412.136	22.68
412.499	22.92
412.861	23.02
413.223	23.14
413.586	23.2
413.948	23.34
414.31	23.21
414.672	23.19
415.035	23.19
415.397	23.53
415.759	23.37
416.121	23.5
416.483	23.4
416.845	23.29
417.206	23.22
417.568	23.41
417.93	23.09
418.292	23.31
418.653	23.19
419.015	23.25
419.377	23.16
419.738	23.15
420.1	23.26
420.461	23.34
420.822	23.54
421.184	23.39
421.545	23.34
421.906	23.31
422.267	23.22
422.629	23.22
422.99	23.52
423.351	23.7
423.712	23.85
424.073	23.92
424.434	23.81
424.795	23.75
425.155	23.67
425.516	23.54
425.877	23.46
426.238	24.03
426.598	24.1
426.959	24.41
427.32	24.53
427.68	24.74
428.041	24.97
428.401	24.98
428.761	25.21
429.122	25.22
429.482	25.36
429.842	25.34
430.202	25.4
430.563	25.27
430.923	25.17
431.283	25.22
431.643	25.4
432.003	25.43
432.363	25.31
432.722	25.28
433.082	25.45
433.442	25.3
433.802	25.31
434.161	25.07
434.521	25.14
434.881	25.3
435.24	25.17
435.6	25.73
435.959	25.83
436.319	25.92
436.678	26.08
437.037	26.17
437.396	26.06
437.756	25.97
438.115	26.15
438.474	26.21
438.833	26.2
439.192	25.98
439.551	26.19
439.91	26.17
440.269	25.96
440.628	26.1
440.987	25.95
441.345	26.07
441.704	26.04
442.063	25.84
442.421	26
442.78	26.41
443.138	26.54
443.497	26.69
443.855	27.11
444.214	26.87
444.572	26.97
444.93	27.06
445.288	26.7
445.647	26.65
446.005	26.55
446.363	26.29
446.721	26.48
447.079	26.42
447.437	26.28
447.795	26.35
448.153	26.48
448.51	26.48
448.868	26.96
449.226	27.2
449.584	27.56
449.941	27.69
450.299	27.78
450.656	27.77
451.014	27.82
451.371	28.01
451.729	27.91
452.086	28.08
452.443	28.04
452.801	28.04
453.158	27.74
453.515	27.63
453.872	27.73
454.229	27.87
454.586	28.03
454.943	28.3
455.3	28.26
455.657	28.22
456.014	28.24
456.371	28.07
456.727	28.19
457.084	28.42
457.441	28.41
457.797	28.71
458.154	28.75
458.51	28.6
458.867	28.48
459.223	28.59
459.58	28.55
459.936	28.28
460.292	28.17
460.648	27.9
461.005	27.71
461.361	27.79
461.717	28.3
462.073	28.78
462.429	29.22
462.785	28.97
463.141	29.33
463.496	29.27
463.852	29.69
464.208	29.55
464.564	29.56
464.919	29.79
465.275	29.54
465.631	29.59
465.986	29.51
466.342	29.36
466.697	29.54
467.052	29.75
467.408	29.57
467.763	29.37
468.118	29.51
468.473	29.49
468.829	29.7
469.184	29.68
469.539	29.78
469.894	30.14
470.249	29.97
470.603	30.34
470.958	29.79
471.313	30.08
471.668	30.17
472.023	30.44
472.377	30.23
472.732	30.13
473.086	30.35
473.441	30.46
473.795	30.43
474.15	30.49
474.504	30.58
474.859	30.79
475.213	30.94
475.567	30.93
475.921	31.02
476.275	31.13
476.63	30.9
476.984	31.03
477.338	30.93
477.692	30.83
478.045	30.78
478.399	31.21
478.753	31.07
479.107	31.05
479.461	30.99
479.814	31.07
480.168	31.12
480.521	31.29
480.875	31.42
481.228	31.29
481.582	31.22
481.935	31.18
482.289	31.24
482.642	31.29
482.995	31.06
483.348	31.15
483.701	31.14
484.055	30.95
484.408	30.3
484.761	29.6
485.114	29.26
485.466	29.82
485.819	30.45
486.172	31.19
486.525	31.6
486.878	31.7
487.23	31.84
487.583	31.58
487.936	31.16
488.288	30.62
488.641	30.56
488.993	30.57
489.345	30.77
489.698	31.08
490.05	31.54
490.402	31.96
490.754	32.43
491.107	32.64
491.459	32.6
491.811	32.45
492.163	31.97
492.515	31.36
492.866	30.82
493.218	31.19
493.57	31.9
493.922	32.47
494.274	32.89
494.625	32.95
494.977	33.23
495.328	33.41
495.68	33.54
496.031	33.4
496.383	33.35
496.734	33.44
497.086	33.3
497.437	33.18
497.788	32.94
498.139	32.86
498.49	33
498.842	33.28
499.193	33.39
499.544	33.43
499.894	33.41
500.245	33.67
500.596	33.65
500.947	33.82
501.298	33.94
501.648	34.14
501.999	34.19
502.35	34.14
502.7	34.41
503.051	34.46
503.401	34.39
503.752	34.37
504.102	34.34
504.452	34.57
504.803	34.49
505.153	34.35
505.503	34.39
505.853	34.27
506.203	34.48
506.553	34.58
506.903	34.62
507.253	34.78
507.603	34.66
507.953	34.7
508.303	34.78
508.652	34.75
509.002	34.66
509.352	34.5
509.701	34.52
510.051	34.54
510.4	34.6
510.75	34.5
511.099	34.82
511.449	34.88
511.798	35.13
512.147	35.04
512.496	35.31
512.846	35.09
513.195	35.13
513.544	35.17
513.893	35.22
514.242	35.39
514.591	35.57
514.939	35.47
515.288	35.95
515.637	36
515.986	36.07
516.334	36.01
516.683	36.07
517.032	35.95
517.38	36.39
517.729	36.21
518.077	36.2
518.426	35.78
518.774	35.82
519.122	35.6
519.47	35.39
519.819	35.33
520.167	35.38
520.515	35.63
520.863	35.85
521.211	36.05
521.559	36.28
521.907	36.33
522.255	36.55
522.602	36.89
522.95	36.87
523.298	36.99
523.645	36.82
523.993	37.1
524.341	36.87
524.688	37.08
525.036	37.1
525.383	36.9
525.73	37.17
526.078	36.84
526.425	36.41
526.772	36.26
527.119	36.21
527.466	36.52
527.814	36.74
528.161	36.97
528.508	36.96
528.854	36.71
529.201	36.37
529.548	35.54
529.895	35.02
530.242	35.77
530.588	36.25
530.935	36.76
531.282	37.13
531.628	37.29
531.975	37.6
532.321	37.74
532.667	37.61
533.014	37.62
533.36	37.35
533.706	37.36
534.052	36.98
534.399	36.42
534.745	36.33
535.091	37
535.437	37.56
535.783	38.05
536.129	38.25
536.474	38.5
536.82	38.65
537.166	38.56
537.512	37.99
537.857	37.65
538.203	37.63
538.549	38.19
538.894	38.46
539.239	38.79
539.585	38.82
539.93	39.06
540.276	39.01
540.621	39.2
540.966	39.07
541.311	38.98
541.656	38.65
542.001	38.23
542.346	37.4
542.691	37.03
543.036	37.61
543.381	38.28
543.726	38.79
544.071	38.84
544.415	38.97
544.76	38.99
545.105	39.19
545.449	39.4
545.794	39.59
546.138	39.7
546.483	39.69
546.827	39.54
547.171	39.26
547.516	39.65
547.86	39.25
548.204	39.14
548.548	39.45
548.892	39.83
549.236	40.04
549.58	40.21
549.924	40.31
550.268	40.7
550.612	40.78
550.956	40.6
551.3	40.63
551.643	41
551.987	40.89
552.33	41.06
552.674	40.77
553.017	40.67
553.361	40.75
553.704	40.58
554.048	40.19
554.391	40.49
554.734	40.84
555.077	41.06
555.42	41.07
555.764	41.23
556.107	41.41
556.45	41.34
556.793	41.4
557.135	41.56
557.478	41.51
557.821	41.3
558.164	41.49
558.507	41.77
558.849	41.53
559.192	41.62
559.534	41.62
559.877	41.68
560.219	41.66
560.562	41.89
560.904	41.96
561.246	41.89
561.589	41.88
561.931	41.89
562.273	41.75
562.615	42.29
562.957	42.28
563.299	42.11
563.641	42.27
563.983	42.44
564.325	42.3
564.667	42.4
565.008	42.46
565.35	42.5
565.692	42.6
566.033	42.26
566.375	42.38
566.716	42.11
567.058	42.39
567.399	42.09
567.741	42.05
568.082	42.28
568.423	42.83
568.764	42.92
569.105	43.14
569.447	43.08
569.788	42.81
570.129	42.98
570.47	42.95
570.811	43.22
571.151	42.99
571.492	43.16
571.833	43.22
572.174	43.3
572.514	43.18
572.855	42.79
573.195	42.77
573.536	42.78
573.876	42.77
574.217	43.15
574.557	43.17
574.898	43.29
575.238	43.67
575.578	43.69
575.918	43.61
576.258	43.5
576.598	43.33
576.938	43.43
577.278	43.5
577.618	44.14
577.958	44.05
578.298	44.71
578.638	44.17
578.977	44.19
579.317	44.15
579.657	44.41
579.996	44.53
580.336	44.06
580.675	44.27
581.014	44.96
581.354	44.74
581.693	44.5
582.032	44.73
582.372	44.53
582.711	44.8
583.05	44.89
583.389	45.05
583.728	45.07
584.067	44.91
584.406	45.42
584.745	44.9
585.083	45.24
585.422	45.19
585.761	45.1
586.1	45.14
586.438	45.46
586.777	45.3
587.115	45.44
587.454	45.82
587.792	45.44
588.13	45.57
588.469	45.36
588.807	45.66
589.145	45.6
589.483	45.39
589.821	45.54
590.159	45.32
590.497	45.7
590.835	45.7
591.173	45.39
591.511	45.65
591.849	45.48
592.187	46.02
592.524	45.84
592.862	46.18
593.2	46.22
593.537	46.47
593.875	46.01
594.212	46.52
594.55	46.26
594.887	46.27
595.224	46.18
595.561	45.79
595.899	46.03
596.236	46.35
596.573	46.08
596.91	46.3
597.247	46.56
597.584	46.45
597.921	46.43
598.258	45.79
598.594	45.57
598.931	46.31
599.268	46.38
599.604	46.87
599.941	46.73
600.277	47.3
600.614	47.29
600.95	47.31
601.287	47.12
601.623	47.36
601.959	47.03
602.296	46.87
602.632	46.92
602.968	47.34
603.304	47.08
603.64	47.34
603.976	46.91
604.312	47
604.648	46.78
604.984	46.83
605.319	47.09
605.655	46.76
605.991	46.43
606.326	46.79
606.662	46.85
606.998	47.83
607.333	47.71
607.668	47.98
608.004	48.43
608.339	48.1
608.674	48.13
609.01	48.13
609.345	48.31
609.68	48.5
610.015	48.22
610.35	47.54
610.685	47.18
611.02	47.32
611.355	47.7
611.689	47.83
612.024	48.29
612.359	48.21
612.694	48.51
613.028	48.42
613.363	48.91
613.697	48.57
614.032	48.94
614.366	49.17
614.7	49.25
615.035	48.81
615.369	48.92
615.703	49.15
616.037	49.12
616.371	48.79
616.705	48.78
617.039	49.36
617.373	49.28
617.707	48.88
618.041	48.94
618.375	48.68
618.709	49.29
619.042	49.02
619.376	49.13
619.71	49.2
620.043	49.38
620.377	49.19
620.71	49.15
621.043	49.4
621.377	49.67
621.71	49.41
622.043	49.73
622.376	49.58
622.709	50
623.043	50.05
623.376	49.71
623.709	49.69
624.041	49.74
624.374	50.23
624.707	49.94
625.04	50.37
625.373	50.15
625.705	50.29
626.038	50.33
626.37	50.41
626.703	49.9
627.035	50.61
627.368	50.05
627.7	49.71
628.032	50.16
628.365	49.95
628.697	49.98
629.029	49.87
629.361	49.99
629.693	50.33
630.025	50.36
630.357	50.43
630.689	50.69
631.021	50.85
631.353	50.58
631.684	50.62
632.016	50.77
632.348	50.54
632.679	50.62
633.011	50.69
633.342	50.91
633.674	50.82
634.005	51.2
634.336	50.93
634.668	50.24
634.999	50.64
635.33	51.04
635.661	50.92
635.992	50.79
636.323	51.16
636.654	51.07
636.985	51.09
637.316	50.94
637.647	51.29
637.977	51.51
638.308	51.36
638.639	51.08
638.969	51.21
639.3	51.54
639.63	51.6
639.961	51.64
640.291	51.52
640.622	52.05
640.952	51.64
641.282	51.47
641.612	52.04
641.943	52.18
642.273	52.32
642.603	51.85
642.933	52.03
643.263	51.9
643.592	51.97
643.922	51.92
644.252	52.38
644.582	51.87
644.911	52.31
645.241	52.97
645.571	52.74
645.9	52.2
646.23	52.23
646.559	52.12
646.888	52.17
647.218	51.76
647.547	52.76
647.876	53.06
648.205	52.23
648.534	52.56
648.863	52.52
649.192	52.46
649.521	52.95
649.85	52.57
650.179	52.95
650.508	52.06
650.837	52.6
651.165	53.04
651.494	52.2
651.822	52.86
652.151	52.85
652.479	53.05
652.808	52.77
653.136	52.76
653.465	52.55
653.793	53
654.121	52.96
654.449	53.01
654.777	53.43
655.105	53.31
655.433	53.08
655.761	53.21
656.089	52.93
656.417	53.37
656.745	53.44
657.073	53.29
657.4	53.58
657.728	53.99
658.056	53.66
658.383	53.55
658.711	54
659.038	53.96
659.365	53.57
659.693	53.79
660.02	53.57
660.347	53.27
660.674	52.89
661.001	53.32
661.329	53.7
661.656	53.72
661.982	54.15
662.309	54
662.636	54.42
662.963	54.72
663.29	53.99
663.616	54.91
663.943	54.37
664.27	54.37
664.596	54.68
664.923	54.66
665.249	54.71
665.576	54.65
665.902	54.24
666.228	55.6
666.554	53.7
666.881	53.98
667.207	54.88
667.533	54.69
667.859	54.9
668.185	53.94
668.511	54.63
668.837	54.98
669.162	54.66
669.488	54.48
669.814	54.61
670.139	54.35
670.465	54.71
670.791	53.97
671.116	55.24
671.442	54.77
671.767	55.16
672.092	55.08
672.418	55.27
672.743	54.87
673.068	55.49
673.393	55.09
673.718	55.83
674.043	55.31
674.368	55.29
674.693	55.34
675.018	55.53
675.343	55.55
675.667	55.27
675.992	55.48
676.317	56.08
676.641	55.25
676.966	55.72
677.29	56.11
677.615	55.02
677.939	55.76
678.264	55.3
678.588	55.39
678.912	55.7
679.236	55.75
679.56	55.36
679.885	55.06
680.209	56
680.532	54.87
680.856	55.34
681.18	54.52
681.504	55.16
681.828	55.55
682.152	55.24
682.475	56.08
682.799	55.79
683.122	56.13
683.446	55.67
683.769	56.54
684.093	55.81
684.416	56.52
684.739	56.19
685.062	56.17
685.386	56.31
685.709	54.9
686.032	56.11
686.355	56.14
686.678	56.48
687.001	56.67
687.324	56.64
687.646	56.24
687.969	56.28
688.292	56.16
688.614	56.14
688.937	56.05
689.26	56.18
689.582	56.17
689.904	56.22
690.227	56.42
690.549	56.19
690.871	56.37
691.194	56.39
691.516	56.18
691.838	56.37
692.16	56.48
692.482	56.45
692.804	56.97
693.126	56.22
693.448	56.78
693.769	56.87
694.091	56.41
694.413	56.57
694.735	57.75
695.056	55.43
695.378	56.9
695.699	56.36
696.021	57.16
696.342	57.13
696.663	57.42
696.984	57.34
697.306	57.99
697.627	57.04
697.948	57.05
698.269	56.45
698.59	56.5
698.911	57.68
699.232	57.01
699.553	56.03
699.873	56.6
700.194	56.46
700.515	57.03
700.835	56.96
701.156	57.02
701.477	57.82
701.797	58.85
702.117	57.96
702.438	58.01
702.758	58.9
703.078	58.04
703.398	58.72
703.719	58.4
704.039	57.86
704.359	57.06
704.679	58.31
704.999	58.29
705.319	58.01
705.638	57.56
705.958	57.89
706.278	58.25
706.597	58.35
706.917	58.2
707.237	58.25
707.556	58.33
707.876	57.83
708.195	57.49
708.514	58.28
708.834	58.46
709.153	58.09
709.472	58.36
709.791	57.7
710.11	58.47
710.429	58.5
710.748	57.53
711.067	58.21
711.386	57.59
711.705	58.67
712.023	58.85
712.342	57.82
712.661	58.06
712.979	58.32
713.298	58.06
713.616	56.86
713.935	58.8
714.253	57.82
714.572	59.87
714.89	58.28
715.208	58.71
715.526	57.97
715.844	59.13
716.162	59.42
716.48	58.07
716.798	58.57
717.116	59.3
717.434	58.88
717.752	58.32
718.069	59.2
718.387	59.7
718.705	58.48
719.022	59.67
719.34	58.88
719.657	60.01
719.975	59.25
720.292	58.99
720.609	58.48
720.927	58.81
721.244	59.31
721.561	58.87
721.878	59.62
722.195	59.69
722.512	58.61
722.829	59.79
723.146	59.76
723.463	59.55
723.779	60.02
724.096	59.37
724.413	59.36
724.729	59.5
725.046	59.4
725.362	60.84
725.679	60.16
725.995	58.72
726.311	60.19
726.628	59.38
726.944	58.88
727.26	60.02
727.576	60.51
727.892	58.71
728.208	59.38
728.524	58.7
728.84	59.3
729.156	60.32
729.472	58.58
729.787	59.52
730.103	60.38
730.419	59.84
730.734	60.01
731.05	60.35
731.365	59.69
731.681	58.6
731.996	58.67
732.311	59.31
732.626	60.22
732.942	60.16
733.257	59.2
733.572	59.92
733.887	60.3
734.202	58.89
734.517	58.99
734.832	59.04
735.146	59.61
735.461	61.02
735.776	60.29
736.091	62.09
736.405	62.06
736.72	60.99
737.034	60.8
737.349	59.3
737.663	60.38
737.977	60.86
738.292	60.57
738.606	61.42
738.92	59.67
739.234	61.5
739.548	59.38
739.862	59.52
740.176	61.01
740.49	59.62
740.804	60.36
741.117	59.21
741.431	61.71
741.745	60.06
742.058	60.69
742.372	61.14
742.685	59.45
742.999	62.16
743.312	59.99
743.626	61.72
743.939	61.93
744.252	60.17
744.565	60.72
744.878	60
745.191	63.08
745.505	63.04
745.817	60.46
746.13	61.85
746.443	59.05
746.756	62.63
747.069	61.18
747.381	62.66
747.694	61.83
748.007	60.72
748.319	61.22
748.632	59.02
748.944	61.57
749.256	61.23
749.569	60.36
749.881	60.14
750.193	63.02
750.505	60.45
750.817	60.43
751.129	60.99
751.441	63.23
751.753	61
752.065	62.75
752.377	61.32
752.689	62.5
753	62.29
753.312	62.17
753.624	63.5
753.935	62.23
754.247	61.2
754.558	62.29
754.869	63.42
755.181	63.98
755.492	61.5
755.803	63.26
756.114	60.86
756.425	61.38
756.736	63.04
757.047	62.92
757.358	63.37
757.669	63.59
757.98	60.46
758.291	62.86
758.601	62.27
758.912	62.54
759.223	62.52
759.533	61.02
759.844	62.8
760.154	62.21
760.464	63.26
760.775	60.61
761.085	61.59
761.395	60.45
761.705	63.14
762.016	62.33
762.326	61.6
762.636	61.99
762.945	62.49
763.255	62.12
763.565	61.94
763.875	63.87
764.185	61.36
764.494	64.03
764.804	60
765.113	60.69
765.423	61.69
765.732	61.66
766.042	61.91
766.351	63.28
766.66	62.63
766.97	61.99
767.279	62.31
767.588	65.18
767.897	60.92
768.206	64.14
768.515	61.35
768.824	63.82
769.133	63.72
769.441	63.26
769.75	62.82
770.059	63.04
770.367	62.75
770.676	63.31
770.984	63.2
771.293	63.3
771.601	63.1
771.91	62.41
772.218	63.1
772.526	62.94
772.834	63.3
773.142	61.39
773.45	65.09
773.758	63.31
774.066	64.83
774.374	62.84
774.682	63.85
774.99	64.25
775.298	62.76
775.605	66.48
775.913	62.81
776.22	62.63
776.528	62.59
776.835	63.92
777.143	63.02
777.45	64.71
777.757	64.59
778.065	62.21
778.372	64.63
778.679	61
778.986	65.19
779.293	63.26
779.6	62.01
779.907	62.4
780.214	63.8
780.52	64.06
780.827	64.54
781.134	59.3
781.44	62.76
781.747	64.94
782.053	63.19
782.36	61.56
782.666	62.43
782.973	63.9
783.279	67.24
783.585	64.31
783.891	66.71
784.197	63.94
784.503	63.56
784.809	62.25
785.115	66.75
785.421	68.39
785.727	61.24
786.033	65.34
786.339	63.82
786.644	69.18
786.95	63.41
787.255	62.29
787.561	65.36
787.866	61.79
788.172	63.96
788.477	59.86
788.782	67.63
789.088	67.04
789.393	64.77
789.698	65.41
790.003	64.85
790.308	63.6
790.613	67.37
790.918	66.78
791.223	65.98
791.527	63.45
791.832	62.64
792.137	62.09
792.441	67.64
792.746	67.5
793.05	62.35
793.355	63.61
793.659	62.72
793.963	71.22
794.268	62.99
794.572	64.73
794.876	60.92
795.18	58.36
795.484	64.43
795.788	63.12
796.092	61.79
796.396	61.53
796.7	65.77
797.004	64.86
797.307	61.16
797.611	68.58
797.915	64.2
798.218	63.17
798.522	66.82
798.825	64.68
799.128	67.54
799.432	65.3
799.735	67.27
800.038	68.49
800.341	62.86
800.644	65.84
800.947	63.27
801.25	65.83
801.553	66.02
801.856	66.4
802.159	60.36
802.462	63.12
802.764	64.82
803.067	65.27
803.37	66.49
803.672	60.77
803.975	67.08
804.277	67.43
804.579	64.85
804.882	67.63
805.184	62.26
805.486	62.08
805.788	66.83
806.09	67.52
806.392	64.9
806.694	67.29
806.996	67.51
807.298	61.51
807.6	64.97
807.902	65.33
808.203	65.6
808.505	62.22
808.807	62.72
809.108	66.16
809.409	65.14
809.711	67.31
810.012	66.61
810.313	65.68
810.615	66.9
810.916	68.82
811.217	62.59
811.518	61.21
811.819	68.76
812.12	66.19
812.421	57.06
812.722	63.37
813.023	61.61
813.323	65.12
813.624	65.51
813.925	64.5
814.225	67.38
814.526	68.85
814.826	64.44
815.126	68.72
815.427	58.94
815.727	68.23
816.027	60.41
816.327	63.08
816.627	74.87
816.927	69.22
817.227	64.17
817.527	64.32
817.827	60.08
818.127	59.5
818.427	70.11
818.727	71.64
819.026	65.02
819.326	68.4
819.625	66.87
819.925	60.88
820.224	64.02
820.524	68.76
820.823	69.4
821.122	75.04
821.421	66.78
821.72	61.8
822.019	66.55
822.318	67.33
822.617	64.74
822.916	64.01
823.215	63.28
823.514	67.24
823.813	64.09
824.111	63.16
824.41	63.55
824.709	64.55
825.007	65.61
825.306	66.16
825.604	66.95
825.902	65.51
826.201	67.29
826.499	65.48
826.797	68.37
827.095	68.15
827.393	69.34
827.691	66.92
827.989	68.01
828.287	66.03
828.585	67.3
828.882	65.79
829.18	64.89
829.478	63.65
829.775	67.08
830.073	67.27
830.37	66.55
830.668	65.03
830.965	66.95
831.263	68.03
831.56	67.3
831.857	69.2
832.154	68.75
832.451	66.56
832.748	63.53
833.045	69.13
833.342	63.26
833.639	65.83
833.936	67.92
834.232	68.59
834.529	67.04
834.826	64.83
835.122	63.91
835.419	67.17
835.715	69.12
836.012	68.43
836.308	65.04
836.604	70.41
836.901	66.44
837.197	62.02
837.493	68.28
837.789	64.35
838.085	67.93
838.381	67.98
838.677	65.71
838.972	67.87
839.268	65.67
839.564	73.11
839.86	69.47
840.155	63.5
840.451	71.13
840.746	74.87
841.042	57.55
841.337	69.33
841.632	64.98
841.928	63.95
842.223	64.21
842.518	69.97
842.813	71.49
843.108	68.16
843.403	61.18
843.698	70.78
843.993	75.98
844.287	62.27
844.582	64.16
844.877	68.49
845.171	70.44
845.466	71.51
845.761	64.29
846.055	66.46
846.349	74.61
846.644	67.29
846.938	55.68
847.232	78.32
847.526	70
847.82	71.36
848.114	99.22
848.408	54.82
848.702	60.21
848.996	58.18
849.29	60.74
849.584	55.56
849.877	65.44
850.171	63.9
850.465	69.98
850.758	64.25
851.052	62.02
851.345	69.05
851.638	82.67
851.932	63.26
852.225	65.49
852.518	61.08
852.811	70.06
853.104	65.97
853.397	57.52
853.69	62.48
853.983	68.74
854.276	80.02
854.569	60.8
854.861	72.07
855.154	81.77
855.447	64.35
855.739	59.48
856.032	79.72
856.324	86.25
856.616	85.64
856.909	53.21
857.201	59.05
857.493	81.84
857.785	55.91
858.077	81.63
858.369	78.62
858.661	63.43
858.953	81.7
859.245	88.98
859.537	74.18
859.829	75.71
860.12	54.09
860.412	82.67
860.703	58.31
860.995	67.04
861.286	75.74
861.578	68.05
861.869	59.87
862.16	72.76
862.452	74.61
862.743	70.83
863.034	60.25
863.325	84.96
863.616	64.57
863.907	57.28
864.198	46.13
864.488	68.47
864.779	73.25
865.07	65.28
865.36	50.46
865.651	58.01
865.941	65.56
866.232	81.92
866.522	68.54
866.813	54.26
867.103	57.43
867.393	53.91
867.683	84.17
867.973	77.35
868.263	48.86
868.553	76.53
868.843	76.18
869.133	57.55
869.423	77.59
869.713	53.48
870.002	94.14
870.292	64.88
870.582	84.97
870.871	75.8
871.161	55.75
871.45	46.36
871.739	46.07
872.029	69.7
872.318	63.53
872.607	57.27
872.896	85.41
873.185	54.41
873.474	69.32
873.763	66.99
874.052	61.21
874.341	64.48
874.63	72.83
874.918	85.54
875.207	81.79
875.496	79.43
875.784	57.09
876.073	60.52
876.361	74.55
876.649	70.16
876.938	49.41
877.226	80
877.514	48.41
877.802	45.05
878.09	54.35
878.378	69.52
878.666	66.87
878.954	124.2
879.242	63.16
879.53	71.06
879.817	55.44
880.105	87.98
880.392	46.88
880.68	66.44
880.967	71.81
881.255	68.37
881.542	95.99
881.83	71.04
882.117	59.58
882.404	70.66
882.691	62.37
882.978	75.3
883.265	74.88
883.552	66.62
883.839	58.26
884.126	67.85
884.413	62.75
884.699	73.08
884.986	73.06
885.273	68.65
885.559	68.65
885.846	68.65
