Data from 21-3_crown_Reflection__1__111.txt Node

Date: Thu Dec 15 17:21:54 CST 2022
User: ToomeyLab
Spectrometer: FLMS14357
Trigger mode: 0
Integration Time (sec): 1.000000E-2
Scans to average: 100
Electric dark correction enabled: true
Nonlinearity correction enabled: false
Boxcar width: 0
XAxis mode: Wavelengths
Number of Pixels in Spectrum: 2048
>>>>>Begin Spectral Data<<<<<
189.047	381.21
189.435	381.21
189.823	381.21
190.211	323.12
190.599	9.65
190.987	104.44
191.375	-58.68
191.763	237.83
192.151	-152.67
192.538	-22.42
192.926	44.69
193.314	48.16
193.702	262.67
194.089	-55.49
194.477	-70.03
194.864	98.36
195.252	5.42
195.639	111.86
196.027	44.41
196.414	-20.94
196.801	58.58
197.189	-17.61
197.576	-95.39
197.963	-417.73
198.351	44.84
198.738	-64.32
199.125	3.11
199.512	13.58
199.899	-8.15
200.286	-12.52
200.673	27.06
201.06	-8.86
201.447	4.2
201.833	29.65
202.22	16.18
202.607	4.71
202.994	-21.61
203.38	-14
203.767	-0.95
204.154	2.75
204.54	10.7
204.927	-29.66
205.313	53.03
205.699	29.23
206.086	26.27
206.472	8.49
206.858	-15.25
207.245	6.79
207.631	51.91
208.017	24.82
208.403	-34.11
208.789	13.94
209.175	0.51
209.561	-17.89
209.947	-4.23
210.333	-8.74
210.719	15.49
211.105	24.98
211.491	16.48
211.876	-6.53
212.262	28.26
212.648	13.28
213.034	20.58
213.419	-5.35
213.805	-30.87
214.19	-27.86
214.576	-55.49
214.961	-9.46
215.346	-22.79
215.732	-12.74
216.117	12.76
216.502	-3.7
216.888	-21.95
217.273	-24.05
217.658	-11.21
218.043	-21.38
218.428	-22.63
218.813	14.64
219.198	-21.21
219.583	-27.5
219.968	2.41
220.353	-11.76
220.738	0.83
221.122	-23.37
221.507	-8.73
221.892	-30.77
222.276	-20.05
222.661	-8.84
223.046	-20
223.43	11.7
223.815	-1.98
224.199	-2.21
224.583	2.54
224.968	-4.45
225.352	-11.91
225.736	2.59
226.121	3.29
226.505	1.28
226.889	0
227.273	-0.99
227.657	9.02
228.041	4.79
228.425	-1.56
228.809	-0.89
229.193	3.61
229.577	4.37
229.961	3.75
230.344	5.43
230.728	4.97
231.112	4.91
231.495	2.88
231.879	2.11
232.263	5.1
232.646	4.69
233.03	6.13
233.413	3.47
233.797	0.49
234.18	6.21
234.563	3.91
234.946	2.25
235.33	4.5
235.713	4.73
236.096	3.97
236.479	4.87
236.862	3.3
237.245	4.23
237.628	3.6
238.011	3.41
238.394	2.37
238.777	4.94
239.16	6.14
239.543	3.2
239.925	3.59
240.308	3.72
240.691	4.54
241.073	3.38
241.456	4.15
241.838	3.82
242.221	4.02
242.603	4.28
242.986	4.21
243.368	4.91
243.75	4.33
244.133	4.71
244.515	4.44
244.897	4.33
245.279	4.13
245.661	4.37
246.043	4.34
246.425	5.13
246.807	3.95
247.189	3.81
247.571	4
247.953	4.05
248.335	4.16
248.717	4.45
249.098	4.05
249.48	3.95
249.862	4.48
250.243	4.27
250.625	4.36
251.006	5.23
251.388	3.6
251.769	3.85
252.151	3.78
252.532	3.37
252.913	4.1
253.295	3.85
253.676	4.07
254.057	3.55
254.438	3.7
254.819	3.83
255.2	4.42
255.581	4.72
255.962	5.05
256.343	2.74
256.724	4.42
257.105	3.93
257.486	3.9
257.867	3.38
258.247	3.95
258.628	4.27
259.009	4.16
259.389	3.31
259.77	4.2
260.15	4.44
260.531	4.31
260.911	4.02
261.292	4.01
261.672	3.96
262.052	3.99
262.432	3.87
262.813	3.99
263.193	4.23
263.573	3.54
263.953	3.6
264.333	4.34
264.713	3.91
265.093	3.56
265.473	2.9
265.853	4.28
266.233	4.94
266.612	3.52
266.992	3.7
267.372	3.9
267.752	4.41
268.131	3.68
268.511	3.98
268.89	4.32
269.27	3.84
269.649	3.63
270.029	3.96
270.408	3.97
270.787	4
271.167	4.03
271.546	4.43
271.925	4.46
272.304	3.72
272.683	3.58
273.062	3.57
273.441	3.61
273.82	3.71
274.199	3.48
274.578	4.03
274.957	3.93
275.336	3.98
275.715	3.79
276.093	3.63
276.472	3.43
276.851	3.92
277.229	3.48
277.608	3.91
277.986	4.13
278.365	4.34
278.743	3.79
279.122	3.93
279.5	3.59
279.878	3.48
280.257	3.69
280.635	3.92
281.013	3.15
281.391	3.1
281.769	4.19
282.147	3.52
282.525	2.92
282.903	3.47
283.281	4.16
283.659	4.09
284.037	3.68
284.415	3.68
284.792	3.65
285.17	4.11
285.548	3.85
285.925	3.17
286.303	4.13
286.68	3.59
287.058	3.73
287.435	3.48
287.813	3.31
288.19	3.45
288.567	3.89
288.945	3.54
289.322	3.66
289.699	3.54
290.076	3.56
290.453	3.07
290.83	3.81
291.207	3.82
291.584	3.87
291.961	3.81
292.338	3.77
292.715	3.6
293.092	3.35
293.469	3.79
293.845	3.68
294.222	3.95
294.599	2.93
294.975	3.14
295.352	3.77
295.728	3.93
296.105	3.6
296.481	3.5
296.858	3.72
297.234	3.32
297.61	3.83
297.986	3.65
298.363	3.98
298.739	3.82
299.115	3.72
299.491	3.91
299.867	3.5
300.243	3.24
300.619	3.26
300.995	3.55
301.371	4.05
301.746	3.45
302.122	3.13
302.498	3.6
302.874	3.8
303.249	3.7
303.625	3.49
304	3.59
304.376	4.06
304.751	4.16
305.127	3.41
305.502	3.37
305.878	3.63
306.253	3.05
306.628	3.58
307.003	3.34
307.378	3.3
307.754	3.56
308.129	3.27
308.504	3.51
308.879	4
309.254	3.96
309.629	3.37
310.003	3.46
310.378	3.63
310.753	3.57
311.128	3.36
311.502	3.7
311.877	3.61
312.252	3.69
312.626	3.87
313.001	3.42
313.375	3.72
313.75	3.49
314.124	4.16
314.498	3.96
314.873	3.05
315.247	3.21
315.621	3.25
315.995	3.19
316.369	3.04
316.743	3.4
317.117	3.42
317.491	3.57
317.865	2.82
318.239	4.07
318.613	3.24
318.987	3.12
319.361	3.04
319.734	3.04
320.108	3.77
320.482	4.03
320.855	3.58
321.229	3.04
321.602	3.89
321.976	2.86
322.349	3.6
322.723	3.93
323.096	3.6
323.469	2.98
323.843	3.23
324.216	3.13
324.589	3.33
324.962	3.25
325.335	3.07
325.708	3.47
326.081	3.46
326.454	3.92
326.827	3.57
327.2	3.42
327.573	4.07
327.945	3.1
328.318	3.19
328.691	3.58
329.063	2.76
329.436	3.12
329.809	3.4
330.181	3.84
330.553	3.6
330.926	3.42
331.298	3.11
331.671	3.46
332.043	3.55
332.415	3.79
332.787	3.27
333.159	2.91
333.532	3.7
333.904	3.47
334.276	3.43
334.648	3.35
335.02	3.21
335.391	3.03
335.763	3.18
336.135	3.72
336.507	3.2
336.879	3.72
337.25	3.21
337.622	3.8
337.993	3.52
338.365	3.07
338.736	3.55
339.108	3.35
339.479	3.55
339.851	3.16
340.222	3.3
340.593	3.49
340.964	3.55
341.336	3.28
341.707	3.06
342.078	3.15
342.449	3.58
342.82	3.48
343.191	3.41
343.562	3.4
343.933	3.06
344.303	3.37
344.674	3.53
345.045	3.71
345.416	3.32
345.786	3.26
346.157	3.52
346.527	3.35
346.898	3.01
347.268	3.43
347.639	3.2
348.009	3.55
348.38	3.57
348.75	3.5
349.12	3.47
349.49	3.49
349.861	3.25
350.231	3.16
350.601	3.62
350.971	3.26
351.341	3.41
351.711	3.2
352.081	3.21
352.45	3.05
352.82	3.02
353.19	3.31
353.56	3.42
353.929	3.09
354.299	3.53
354.669	3.46
355.038	3.47
355.408	3.19
355.777	3.43
356.147	3.32
356.516	3.07
356.885	3.36
357.254	3.28
357.624	3.13
357.993	3.55
358.362	3.19
358.731	3.77
359.1	3.57
359.469	3.47
359.838	3.56
360.207	3.46
360.576	3.4
360.945	3.59
361.314	3.44
361.682	3.31
362.051	3.51
362.42	3.47
362.788	3.71
363.157	3.3
363.525	3.59
363.894	3.36
364.262	3.36
364.631	3.68
364.999	3.43
365.367	3.33
365.735	3.38
366.104	3.34
366.472	3.35
366.84	3.48
367.208	3.71
367.576	3.27
367.944	3.17
368.312	3.23
368.68	3.72
369.048	3.64
369.416	3.43
369.783	3.46
370.151	3.73
370.519	3.88
370.886	3.33
371.254	3.61
371.621	3.66
371.989	3.39
372.356	3.58
372.724	3.43
373.091	3.27
373.458	3.3
373.826	3.66
374.193	3.36
374.56	3.68
374.927	3.47
375.294	3.79
375.661	3.76
376.028	3.6
376.395	3.72
376.762	3.39
377.129	3.5
377.496	3.51
377.863	3.71
378.229	3.89
378.596	3.75
378.963	3.55
379.329	3.74
379.696	3.48
380.062	3.57
380.429	3.84
380.795	3.85
381.161	3.14
381.528	3.23
381.894	3.32
382.26	3.62
382.626	3.6
382.993	4.08
383.359	3.69
383.725	3.4
384.091	3.3
384.457	3.38
384.823	3.65
385.188	4.02
385.554	3.98
385.92	3.71
386.286	3.5
386.651	3.76
387.017	4.02
387.383	3.64
387.748	3.91
388.114	3.82
388.479	3.77
388.845	3.4
389.21	3.78
389.575	4.05
389.94	3.88
390.306	3.49
390.671	3.82
391.036	3.59
391.401	3.48
391.766	3.54
392.131	3.79
392.496	3.93
392.861	3.8
393.226	3.58
393.591	3.61
393.956	3.75
394.32	3.91
394.685	3.7
395.05	3.82
395.414	3.57
395.779	3.95
396.143	3.66
396.508	3.5
396.872	3.69
397.236	4.05
397.601	3.88
397.965	3.66
398.329	3.7
398.694	3.43
399.058	3.81
399.422	3.8
399.786	3.73
400.15	3.73
400.514	3.75
400.878	3.66
401.242	3.92
401.605	3.8
401.969	3.93
402.333	3.69
402.697	4.04
403.06	3.83
403.424	3.92
403.787	3.72
404.151	4.07
404.514	3.67
404.878	3.72
405.241	3.9
405.604	3.8
405.968	3.87
406.331	3.89
406.694	3.84
407.057	3.87
407.42	3.91
407.783	3.89
408.146	3.57
408.509	3.91
408.872	3.77
409.235	3.92
409.598	3.63
409.961	3.97
410.323	3.64
410.686	3.74
411.049	3.84
411.411	3.69
411.774	3.86
412.136	3.8
412.499	3.95
412.861	3.6
413.223	3.97
413.586	4.18
413.948	3.92
414.31	4
414.672	3.84
415.035	4.16
415.397	3.64
415.759	3.45
416.121	4.15
416.483	3.92
416.845	3.91
417.206	3.89
417.568	3.7
417.93	3.87
418.292	3.73
418.653	3.71
419.015	3.83
419.377	3.82
419.738	3.86
420.1	3.77
420.461	3.64
420.822	3.84
421.184	3.79
421.545	3.89
421.906	3.82
422.267	3.79
422.629	3.8
422.99	3.82
423.351	3.83
423.712	3.9
424.073	3.94
424.434	4.02
424.795	3.82
425.155	3.7
425.516	3.83
425.877	3.85
426.238	3.75
426.598	3.88
426.959	3.89
427.32	3.84
427.68	3.93
428.041	3.95
428.401	3.61
428.761	3.95
429.122	4.03
429.482	3.82
429.842	4.02
430.202	3.84
430.563	3.91
430.923	4.05
431.283	3.97
431.643	4.06
432.003	3.87
432.363	4.03
432.722	3.87
433.082	3.97
433.442	4.05
433.802	3.95
434.161	4.08
434.521	3.95
434.881	3.95
435.24	4
435.6	4.05
435.959	4
436.319	4.01
436.678	4.06
437.037	3.96
437.396	3.95
437.756	3.9
438.115	4.05
438.474	4.03
438.833	4.06
439.192	4.07
439.551	3.94
439.91	3.97
440.269	3.9
440.628	3.99
440.987	4.03
441.345	4.01
441.704	3.94
442.063	3.87
442.421	4.01
442.78	4
443.138	3.96
443.497	3.98
443.855	4.02
444.214	3.89
444.572	4.03
444.93	4
445.288	4.06
445.647	3.87
446.005	4
446.363	3.91
446.721	4
447.079	3.91
447.437	4
447.795	4.01
448.153	3.98
448.51	4
448.868	3.86
449.226	3.98
449.584	3.97
449.941	3.93
450.299	4
450.656	4.08
451.014	4.1
451.371	4.17
451.729	4.04
452.086	4.1
452.443	4.19
452.801	4.13
453.158	4.2
453.515	4.07
453.872	4.08
454.229	4.07
454.586	4.04
454.943	4.05
455.3	4
455.657	4.01
456.014	4.08
456.371	4.03
456.727	4.25
457.084	4.26
457.441	4.04
457.797	4.04
458.154	4.11
458.51	3.98
458.867	3.98
459.223	3.93
459.58	4.02
459.936	4.01
460.292	4.09
460.648	4
461.005	3.97
461.361	3.95
461.717	4
462.073	4.02
462.429	4.04
462.785	4.14
463.141	4.14
463.496	4.12
463.852	4.18
464.208	4.06
464.564	4.15
464.919	4.1
465.275	4.24
465.631	4.27
465.986	4.14
466.342	4.02
466.697	4.05
467.052	4.32
467.408	4.23
467.763	4.21
468.118	4.04
468.473	4.27
468.829	4.06
469.184	4.25
469.539	4.01
469.894	4.13
470.249	4.13
470.603	4.24
470.958	4.17
471.313	4.28
471.668	4.19
472.023	4.13
472.377	4.08
472.732	4.33
473.086	4.17
473.441	4.21
473.795	4.41
474.15	4.11
474.504	4.11
474.859	4.08
475.213	4.26
475.567	4.22
475.921	4.12
476.275	4.22
476.63	4.17
476.984	4.18
477.338	4.33
477.692	4.07
478.045	4.13
478.399	4.15
478.753	4.13
479.107	4.22
479.461	4.05
479.814	4.22
480.168	4.09
480.521	4.13
480.875	4.23
481.228	4.2
481.582	4.21
481.935	4.32
482.289	4.14
482.642	4.28
482.995	4.07
483.348	4.12
483.701	4.08
484.055	4.05
484.408	4
484.761	3.96
485.114	3.84
485.466	3.8
485.819	3.84
486.172	3.95
486.525	4.02
486.878	4.01
487.23	4.01
487.583	4.07
487.936	4.06
488.288	3.95
488.641	3.93
488.993	3.9
489.345	3.94
489.698	3.93
490.05	3.94
490.402	4.02
490.754	4.02
491.107	4.03
491.459	4.17
491.811	4.08
492.163	4.11
492.515	4
492.866	3.89
493.218	3.91
493.57	4.02
493.922	4.05
494.274	4.15
494.625	4.19
494.977	4.15
495.328	4.23
495.68	4.18
496.031	4.24
496.383	4.1
496.734	4.22
497.086	4.27
497.437	4.17
497.788	4.26
498.139	4.16
498.49	4.22
498.842	4.21
499.193	4.08
499.544	4.3
499.894	4.16
500.245	4.19
500.596	4.27
500.947	4.1
501.298	4.22
501.648	4.27
501.999	4.28
502.35	4.16
502.7	4.33
503.051	4.21
503.401	4.22
503.752	4.21
504.102	4.2
504.452	4.12
504.803	4.23
505.153	4.21
505.503	4.29
505.853	4.16
506.203	4.23
506.553	4.15
506.903	4.23
507.253	4.23
507.603	4.17
507.953	4.33
508.303	4.25
508.652	4.1
509.002	4.22
509.352	4.26
509.701	4.17
510.051	4.28
510.4	4.26
510.75	4.1
511.099	4.12
511.449	4.28
511.798	4.19
512.147	4.15
512.496	4.29
512.846	4.17
513.195	4.16
513.544	4.17
513.893	4.18
514.242	4.14
514.591	4.15
514.939	4.32
515.288	4.35
515.637	4.27
515.986	4.28
516.334	4.34
516.683	4.24
517.032	4.14
517.38	4.17
517.729	4.23
518.077	4.23
518.426	4.23
518.774	4.15
519.122	4.26
519.47	4.23
519.819	4.2
520.167	4.13
520.515	4.13
520.863	4.15
521.211	4.19
521.559	4.1
521.907	4.22
522.255	4.05
522.602	4.26
522.95	4.26
523.298	4.35
523.645	4.21
523.993	4.27
524.341	4.25
524.688	4.17
525.036	4.25
525.383	4.17
525.73	4.25
526.078	4.25
526.425	4.2
526.772	4.16
527.119	4.15
527.466	4.2
527.814	4.13
528.161	4.17
528.508	4.18
528.854	4.21
529.201	4.09
529.548	4.07
529.895	3.93
530.242	3.93
530.588	3.98
530.935	4.04
531.282	4.04
531.628	4.09
531.975	4.07
532.321	4.19
532.667	4.17
533.014	4.24
533.36	4.25
533.706	4.17
534.052	4.15
534.399	4.14
534.745	4
535.091	4.03
535.437	4.03
535.783	4.1
536.129	4.12
536.474	4.23
536.82	4.23
537.166	4.19
537.512	4.22
537.857	4.13
538.203	4.11
538.549	4.08
538.894	4.1
539.239	4.18
539.585	4.29
539.93	4.38
540.276	4.16
540.621	4.28
540.966	4.22
541.311	4.26
541.656	4.08
542.001	4.1
542.346	3.97
542.691	4.03
543.036	4.03
543.381	4.07
543.726	4.12
544.071	4.1
544.415	4.12
544.76	4.11
545.105	4.13
545.449	4.16
545.794	4.2
546.138	4.12
546.483	4.19
546.827	4.1
547.171	4.2
547.516	4.29
547.86	4.23
548.204	4.27
548.548	4.19
548.892	4.22
549.236	4.27
549.58	4.36
549.924	4.44
550.268	4.46
550.612	4.33
550.956	4.36
551.3	4.4
551.643	4.37
551.987	4.4
552.33	4.43
552.674	4.31
553.017	4.32
553.361	4.33
553.704	4.59
554.048	4.44
554.391	4.44
554.734	4.29
555.077	4.41
555.42	4.23
555.764	4.32
556.107	4.46
556.45	4.35
556.793	4.39
557.135	4.36
557.478	4.37
557.821	4.41
558.164	4.24
558.507	4.26
558.849	4.44
559.192	4.37
559.534	4.34
559.877	4.25
560.219	4.35
560.562	4.45
560.904	4.41
561.246	4.24
561.589	4.62
561.931	4.34
562.273	4.24
562.615	4.19
562.957	4.36
563.299	4.37
563.641	4.34
563.983	4.17
564.325	4.4
564.667	4.37
565.008	4.19
565.35	4.22
565.692	4.36
566.033	4.31
566.375	4.24
566.716	4.02
567.058	4.33
567.399	4.39
567.741	4.17
568.082	4.29
568.423	4.24
568.764	4.39
569.105	4.34
569.447	4.09
569.788	4.18
570.129	4.17
570.47	4.29
570.811	4.27
571.151	4.32
571.492	4.42
571.833	4.24
572.174	4.38
572.514	4.31
572.855	4.42
573.195	4.14
573.536	4.34
573.876	4.26
574.217	4.17
574.557	4.27
574.898	4.18
575.238	4.28
575.578	4.34
575.918	4.33
576.258	4.5
576.598	4.36
576.938	4.21
577.278	4.39
577.618	4.25
577.958	4.28
578.298	4.41
578.638	4.37
578.977	4.39
579.317	4.45
579.657	4.29
579.996	4.46
580.336	4.5
580.675	4.41
581.014	4.51
581.354	4.21
581.693	4.66
582.032	4.57
582.372	4.35
582.711	4.41
583.05	4.29
583.389	4.45
583.728	4.54
584.067	4.48
584.406	4.37
584.745	4.26
585.083	4.45
585.422	4.62
585.761	4.49
586.1	4.43
586.438	4.16
586.777	4.37
587.115	4.53
587.454	4.18
587.792	4.22
588.13	4.38
588.469	4.34
588.807	4.46
589.145	4.43
589.483	4.19
589.821	4.42
590.159	4.4
590.497	4.43
590.835	4.42
591.173	4.41
591.511	4.49
591.849	4.42
592.187	4.2
592.524	4.51
592.862	4.31
593.2	4.55
593.537	4.34
593.875	4.31
594.212	4.22
594.55	4.32
594.887	4.59
595.224	4.44
595.561	4.36
595.899	4.31
596.236	4.48
596.573	4.27
596.91	4.29
597.247	4.42
597.584	4.43
597.921	4.25
598.258	4.44
598.594	4.21
598.931	4.19
599.268	4.31
599.604	4.4
599.941	4.39
600.277	4.3
600.614	4.27
600.95	4.24
601.287	4.13
601.623	4.03
601.959	4.58
602.296	4.12
602.632	4.46
602.968	4.32
603.304	4.46
603.64	4.28
603.976	4.25
604.312	4.17
604.648	4.33
604.984	4.48
605.319	4.36
605.655	4.22
605.991	4.16
606.326	4.22
606.662	4.13
606.998	4.27
607.333	4.09
607.668	4.3
608.004	4.41
608.339	4.27
608.674	4.14
609.01	4.55
609.345	4.28
609.68	4.28
610.015	4.3
610.35	4.22
610.685	3.98
611.02	4.17
611.355	4.29
611.689	4.19
612.024	4.39
612.359	4.2
612.694	4.43
613.028	4.26
613.363	4.24
613.697	4.41
614.032	4.36
614.366	4.15
614.7	4.53
615.035	4.2
615.369	4.21
615.703	4.66
616.037	4.15
616.371	4.18
616.705	4.53
617.039	4.25
617.373	4.28
617.707	4.22
618.041	3.92
618.375	4.02
618.709	4.34
619.042	4.29
619.376	4.25
619.71	4.24
620.043	4.64
620.377	4.21
620.71	4.12
621.043	4.45
621.377	4.42
621.71	4.52
622.043	4.29
622.376	4.56
622.709	4.85
623.043	4.34
623.376	4.18
623.709	4.7
624.041	4.34
624.374	4.35
624.707	4.28
625.04	4.37
625.373	4.3
625.705	4.47
626.038	4.24
626.37	4.13
626.703	4.39
627.035	4.49
627.368	4.69
627.7	4.21
628.032	4.1
628.365	4.33
628.697	4.4
629.029	4.23
629.361	4.45
629.693	4.33
630.025	4.29
630.357	4.26
630.689	4.36
631.021	4.52
631.353	4.36
631.684	4.26
632.016	3.98
632.348	4.05
632.679	4.37
633.011	4.28
633.342	4.34
633.674	4.02
634.005	4.46
634.336	4.44
634.668	4.21
634.999	4.01
635.33	4.35
635.661	4.17
635.992	4.27
636.323	4.12
636.654	4.06
636.985	3.95
637.316	4.35
637.647	4.37
637.977	4.16
638.308	4.2
638.639	4.08
638.969	4.15
639.3	4.17
639.63	4.08
639.961	4.23
640.291	4.18
640.622	4.3
640.952	4.31
641.282	4.12
641.612	4.48
641.943	4.19
642.273	4.25
642.603	4.51
642.933	4.39
643.263	4.33
643.592	4.79
643.922	4.57
644.252	3.9
644.582	3.99
644.911	4.24
645.241	3.83
645.571	4.27
645.9	4.3
646.23	4.75
646.559	3.95
646.888	4.63
647.218	4.04
647.547	4.07
647.876	3.95
648.205	4.46
648.534	4.61
648.863	3.94
649.192	4.11
649.521	4.23
649.85	4.18
650.179	4.63
650.508	4.02
650.837	4.71
651.165	4.4
651.494	4.46
651.822	4.57
652.151	3.96
652.479	4.66
652.808	4.15
653.136	4.12
653.465	4.15
653.793	4.25
654.121	4.33
654.449	3.98
654.777	4.16
655.105	4.01
655.433	4.42
655.761	4.23
656.089	4.48
656.417	4.59
656.745	4.57
657.073	4.46
657.4	4.02
657.728	3.8
658.056	4.45
658.383	4.13
658.711	4.2
659.038	4.6
659.365	4.38
659.693	4.2
660.02	3.88
660.347	4.26
660.674	4.05
661.001	3.93
661.329	3.99
661.656	3.61
661.982	3.94
662.309	4.05
662.636	4.13
662.963	4.52
663.29	4.28
663.616	4.01
663.943	4.13
664.27	4.06
664.596	4.05
664.923	4.16
665.249	4.24
665.576	4.26
665.902	3.92
666.228	4.47
666.554	4.57
666.881	4.06
667.207	4.47
667.533	4.36
667.859	4.08
668.185	4.34
668.511	4.71
668.837	4.5
669.162	3.99
669.488	3.88
669.814	4.17
670.139	3.8
670.465	4.72
670.791	4.23
671.116	4.03
671.442	3.99
671.767	3.85
672.092	3.81
672.418	4.2
672.743	3.84
673.068	4.4
673.393	4.32
673.718	3.47
674.043	3.97
674.368	4.17
674.693	4.3
675.018	4.66
675.343	4.58
675.667	3.91
675.992	4.13
676.317	3.63
676.641	4.95
676.966	3.33
677.29	3.34
677.615	4.45
677.939	4.15
678.264	3.91
678.588	4.68
678.912	4.22
679.236	4.08
679.56	3.48
679.885	4.08
680.209	4.9
680.532	4.46
680.856	3.95
681.18	4.55
681.504	4.03
681.828	3.84
682.152	4.4
682.475	4.01
682.799	3.82
683.122	4.18
683.446	3.23
683.769	3.88
684.093	4.56
684.416	3.61
684.739	3.8
685.062	4.34
685.386	4.41
685.709	4.75
686.032	3.71
686.355	4.21
686.678	4.51
687.001	4.36
687.324	4.06
687.646	4.25
687.969	4.27
688.292	4.23
688.614	4.17
688.937	4.36
689.26	4.7
689.582	4.1
689.904	4.2
690.227	4.45
690.549	4.36
690.871	4.1
691.194	3.79
691.516	3.84
691.838	4.11
692.16	3.42
692.482	3.87
692.804	3.9
693.126	3.75
693.448	4.16
693.769	3.93
694.091	4.22
694.413	4.48
694.735	4.1
695.056	4.03
695.378	3.89
695.699	4.43
696.021	4.36
696.342	4.6
696.663	5.13
696.984	3.9
697.306	3.89
697.627	4.62
697.948	3.39
698.269	4.24
698.59	4.13
698.911	3.52
699.232	4.41
699.553	4.4
699.873	4.02
700.194	4.21
700.515	4.1
700.835	4.23
701.156	4.36
701.477	4.02
701.797	3.94
702.117	4.02
702.438	4.15
702.758	3.86
703.078	4.69
703.398	3.57
703.719	4.22
704.039	4.48
704.359	4.02
704.679	4.16
704.999	4.05
705.319	3.72
705.638	3.99
705.958	3.34
706.278	3.91
706.597	3.87
706.917	4.78
707.237	4.4
707.556	4.62
707.876	3.76
708.195	4.76
708.514	3.8
708.834	4.29
709.153	4.12
709.472	4.69
709.791	3.71
710.11	3.98
710.429	4.34
710.748	4.18
711.067	4.57
711.386	4.26
711.705	3.9
712.023	4.55
712.342	4.03
712.661	4.58
712.979	3.6
713.298	4.54
713.616	4.08
713.935	4.04
714.253	3.94
714.572	4.33
714.89	4.37
715.208	3.57
715.526	4.78
715.844	4.29
716.162	4.34
716.48	4.55
716.798	3.94
717.116	3.48
717.434	4.02
717.752	4.13
718.069	4.02
718.387	3.93
718.705	4.94
719.022	4.22
719.34	3.99
719.657	4.46
719.975	3.94
720.292	3.81
720.609	2.72
720.927	4
721.244	4.81
721.561	2.78
721.878	3.91
722.195	4.34
722.512	5.15
722.829	3.33
723.146	4.18
723.463	4.02
723.779	2.82
724.096	3.51
724.413	4.62
724.729	5.71
725.046	4.87
725.362	3.36
725.679	3.19
725.995	2.5
726.311	3.79
726.628	4.15
726.944	4.43
727.26	4.11
727.576	3.34
727.892	4.12
728.208	4.1
728.524	2.78
728.84	3.54
729.156	2.85
729.472	3.68
729.787	4.37
730.103	4.05
730.419	3.52
730.734	3.89
731.05	3.24
731.365	4.53
731.681	4.02
731.996	5.4
732.311	3.69
732.626	4.57
732.942	3.95
733.257	4.43
733.572	4.27
733.887	4.8
734.202	5.16
734.517	4.34
734.832	3.91
735.146	3.84
735.461	3.17
735.776	5.49
736.091	4.49
736.405	3.65
736.72	3.66
737.034	4.61
737.349	4.4
737.663	4.39
737.977	5.02
738.292	3.81
738.606	4.25
738.92	4.53
739.234	4.95
739.548	3.91
739.862	3.62
740.176	4.16
740.49	3.08
740.804	4.63
741.117	4.22
741.431	4.75
741.745	4.36
742.058	2.07
742.372	2.74
742.685	4.83
742.999	4.48
743.312	2.43
743.626	5.08
743.939	3.42
744.252	4.18
744.565	4.3
744.878	3.4
745.191	4.02
745.505	3.79
745.817	4.32
746.13	4.75
746.443	4.08
746.756	5.38
747.069	4.21
747.381	3.32
747.694	4.95
748.007	4.58
748.319	4.42
748.632	3.42
748.944	3.41
749.256	3.94
749.569	3.42
749.881	3.69
750.193	3.65
750.505	4.73
750.817	3.45
751.129	3.9
751.441	5.71
751.753	5.54
752.065	3.7
752.377	5.24
752.689	3.4
753	5.68
753.312	3.79
753.624	4.18
753.935	2.57
754.247	3.84
754.558	3.25
754.869	3.4
755.181	3.44
755.492	3.62
755.803	4.51
756.114	3.12
756.425	2.42
756.736	5.86
757.047	4.6
757.358	4.13
757.669	5.69
757.98	3.01
758.291	1.98
758.601	3.77
758.912	3.44
759.223	2.88
759.533	4.87
759.844	3
760.154	4.77
760.464	4.16
760.775	4.05
761.085	4.48
761.395	2.72
761.705	2.79
762.016	2.89
762.326	3.91
762.636	4.61
762.945	4.29
763.255	2.22
763.565	4.7
763.875	2.48
764.185	6.54
764.494	3.17
764.804	2.93
765.113	4.6
765.423	4.58
765.732	4.27
766.042	5.03
766.351	4.41
766.66	4.09
766.97	4.24
767.279	4.14
767.588	3.48
767.897	3.46
768.206	2.99
768.515	4.35
768.824	5.1
769.133	0.49
769.441	3.26
769.75	2.08
770.059	3.75
770.367	3.83
770.676	1.81
770.984	3.58
771.293	3.43
771.601	1.23
771.91	2.93
772.218	3.19
772.526	4.27
772.834	4.39
773.142	1.22
773.45	5.54
773.758	4.4
774.066	2.95
774.374	6.71
774.682	3.19
774.99	1.85
775.298	3.9
775.605	-0.48
775.913	1.99
776.22	3.19
776.528	4.56
776.835	3.04
777.143	5.78
777.45	3.1
777.757	6.34
778.065	3.25
778.372	1.79
778.679	5.6
778.986	7.11
779.293	2.18
779.6	4.16
779.907	5.43
780.214	4.33
780.52	3.06
780.827	2.72
781.134	5.07
781.44	9.14
781.747	4.71
782.053	3.61
782.36	2.48
782.666	3.2
782.973	-0.07
783.279	3.96
783.585	7.48
783.891	0.14
784.197	2.63
784.503	3.75
784.809	3.35
785.115	4.9
785.421	4.05
785.727	4.63
786.033	2.91
786.339	3.27
786.644	-0.48
786.95	1.31
787.255	-1.46
787.561	2.44
787.866	6.17
788.172	6.53
788.477	5.43
788.782	1.18
789.088	0.57
789.393	2.05
789.698	-0.05
790.003	1.91
790.308	2.09
790.613	4.46
790.918	4.6
791.223	4.53
791.527	5.2
791.832	5.06
792.137	5.97
792.441	5.17
792.746	3.08
793.05	1.87
793.355	2.96
793.659	6.54
793.963	1.1
794.268	4.21
794.572	2.14
794.876	3.23
795.18	4.2
795.484	7.69
795.788	3.87
796.092	-2.72
796.396	0
796.7	0.39
797.004	-1.38
797.307	2.19
797.611	6.29
797.915	1.4
798.218	3.23
798.522	-1.94
798.825	7.56
799.128	5.81
799.432	0.39
799.735	3.36
800.038	3.63
800.341	3.85
800.644	4.72
800.947	6.93
801.25	4.03
801.553	6.65
801.856	3.96
802.159	3.46
802.462	4.85
802.764	5.84
803.067	6.29
803.37	4.25
803.672	-4.01
803.975	4.73
804.277	1.36
804.579	1.17
804.882	4.26
805.184	5.45
805.486	4.82
805.788	1.3
806.09	2.53
806.392	4.68
806.694	2.27
806.996	8.12
807.298	2.12
807.6	6.62
807.902	1.48
808.203	-0.06
808.505	-1.14
808.807	4.93
809.108	7.43
809.409	4.97
809.711	2.95
810.012	3.3
810.313	-0.06
810.615	11.14
810.916	-0.08
811.217	0.34
811.518	-2.05
811.819	2.31
812.12	5.74
812.421	-2.77
812.722	7.77
813.023	7.75
813.323	3.62
813.624	7.9
813.925	3.96
814.225	8.28
814.526	-5.57
814.826	0.13
815.126	2.66
815.427	-2.96
815.727	2.4
816.027	2.82
816.327	10.42
816.627	7.33
816.927	0.28
817.227	0.26
817.527	4.44
817.827	6.14
818.127	-0.23
818.427	-2.13
818.727	-6.82
819.026	-1.33
819.326	1.15
819.625	4.4
819.925	6.66
820.224	6.39
820.524	3.29
820.823	3.83
821.122	-2.12
821.421	0.2
821.72	3.21
822.019	0.24
822.318	8.83
822.617	5.46
822.916	0.03
823.215	3.96
823.514	5.81
823.813	2.53
824.111	3.12
824.41	4.53
824.709	4.87
825.007	4.71
825.306	5.52
825.604	5.65
825.902	5.12
826.201	4.82
826.499	4.91
826.797	4.9
827.095	6.16
827.393	6.23
827.691	6.59
827.989	3.83
828.287	4.58
828.585	2.25
828.882	1.71
829.18	4.86
829.478	5.46
829.775	3.88
830.073	4.92
830.37	3.68
830.668	4.77
830.965	6.21
831.263	5.44
831.56	2.99
831.857	6.85
832.154	4.27
832.451	3.99
832.748	2.82
833.045	5.76
833.342	-4.39
833.639	1.88
833.936	2.73
834.232	4.56
834.529	-2.27
834.826	10.53
835.122	3.89
835.419	6.25
835.715	4.05
836.012	6.18
836.308	9.14
836.604	1.9
836.901	0.98
837.197	3.98
837.493	3.95
837.789	4.05
838.085	-1.45
838.381	5.03
838.677	5.77
838.972	2.11
839.268	3.41
839.564	7.45
839.86	4.38
840.155	11
840.451	5.7
840.746	3.53
841.042	-3.07
841.337	-1.91
841.632	2.04
841.928	-3.48
842.223	4.09
842.518	6.27
842.813	-2.46
843.108	-3.1
843.403	0.91
843.698	3.96
843.993	6.95
844.287	1.46
844.582	3.67
844.877	6.76
845.171	3.13
845.466	0.48
845.761	-2.22
846.055	16.51
846.349	7.34
846.644	1.3
846.938	12.77
847.232	7.02
847.526	2.79
847.82	5.13
848.114	7.9
848.408	-1.28
848.702	4.75
848.996	5.2
849.29	16.2
849.584	-4.62
849.877	-9.62
850.171	9.48
850.465	-1.31
850.758	-5.34
851.052	-0.1
851.345	-3.38
851.638	4.75
851.932	4.55
852.225	14.72
852.518	4.39
852.811	-28.95
853.104	-6.87
853.397	14.53
853.69	17.68
853.983	-14.05
854.276	8.29
854.569	-8.81
854.861	-6.08
855.154	23.52
855.447	-21.71
855.739	-14.92
856.032	6.92
856.324	5.01
856.616	20.46
856.909	-12.13
857.201	0.75
857.493	-40.87
857.785	-0.49
858.077	-6.07
858.369	-6.06
858.661	8.39
858.953	13.52
859.245	0.53
859.537	-22.72
859.829	-5.83
860.12	0.08
860.412	2.99
860.703	4.73
860.995	10.16
861.286	-17.59
861.578	3.45
861.869	4.77
862.16	-2.93
862.452	-28.4
862.743	-32.38
863.034	7.3
863.325	17.3
863.616	9.74
863.907	30.42
864.198	-25.24
864.488	-3.82
864.779	6.16
865.07	-7.59
865.36	12
865.651	17.22
865.941	-1.88
866.232	5.74
866.522	-23.96
866.813	5.46
867.103	-4.18
867.393	-1.01
867.683	12.68
867.973	1.44
868.263	-7.19
868.553	25.74
868.843	-36.01
869.133	-2.37
869.423	9.15
869.713	-16.56
870.002	-3.16
870.292	-4.92
870.582	-19.97
870.871	-4.3
871.161	-26.03
871.45	-37.46
871.739	27.24
872.029	-12.58
872.318	7.62
872.607	22.11
872.896	-3.14
873.185	3.96
873.474	-8.64
873.763	29.51
874.052	9.85
874.341	-25.72
874.63	-22.89
874.918	4.92
875.207	-28.37
875.496	21.77
875.784	9.5
876.073	-16.52
876.361	16.22
876.649	0.28
876.938	-23
877.226	14.07
877.514	19.96
877.802	-14.97
878.09	-2.95
878.378	8.31
878.666	23.56
878.954	25.09
879.242	10.54
879.53	4.04
879.817	-33.52
880.105	12.82
880.392	4.74
880.68	15.4
880.967	-6.49
881.255	29.84
881.542	-7.98
881.83	11.85
882.117	-2.96
882.404	-10.21
882.691	-7.16
882.978	6.48
883.265	4.37
883.552	-5.59
883.839	7.49
884.126	-0.21
884.413	3.31
884.699	5.74
884.986	4.37
885.273	4.82
885.559	4.82
885.846	4.82
