Data from 0158_crown_Reflection__3__74.txt Node

Date: Fri Sep 22 20:54:05 CDT 2023
User: ToomeyLab
Spectrometer: FLMS14357
Trigger mode: 0
Integration Time (sec): 1.000000E-2
Scans to average: 100
Electric dark correction enabled: true
Nonlinearity correction enabled: false
Boxcar width: 0
XAxis mode: Wavelengths
Number of Pixels in Spectrum: 2048
>>>>>Begin Spectral Data<<<<<
189.047	135.46
189.435	135.46
189.823	135.46
190.211	-388.58
190.599	344.86
190.987	18.44
191.375	-1242.86
191.763	-5.73
192.151	45.17
192.538	-202.13
192.926	55.58
193.314	50.11
193.702	742.31
194.089	80.04
194.477	-45.95
194.864	105.01
195.252	111.06
195.639	95.27
196.027	167.78
196.414	-169.72
196.801	-1330.06
197.189	57.87
197.576	102.57
197.963	-439.77
198.351	32.51
198.738	75.67
199.125	32.81
199.512	5.97
199.899	73.1
200.286	16.29
200.673	-11.71
201.06	6.79
201.447	63.64
201.833	-9.77
202.22	44.52
202.607	40.33
202.994	40.7
203.38	26.21
203.767	17.24
204.154	42.9
204.54	14.08
204.927	30.42
205.313	11.34
205.699	40.95
206.086	45.22
206.472	35.56
206.858	26.53
207.245	-4.51
207.631	45.87
208.017	19.39
208.403	30.51
208.789	73.51
209.175	30.29
209.561	38.08
209.947	62.66
210.333	63.02
210.719	7.86
211.105	56.4
211.491	15.43
211.876	54.56
212.262	37.97
212.648	37.97
213.034	29.9
213.419	37.09
213.805	43.16
214.19	12.65
214.576	31.1
214.961	43.99
215.346	17.48
215.732	20.23
216.117	25.86
216.502	42.05
216.888	27.39
217.273	44.94
217.658	9.85
218.043	19.2
218.428	37.78
218.813	-23.99
219.198	16.17
219.583	17.09
219.968	16.08
220.353	40.79
220.738	26.69
221.122	7.68
221.507	8.09
221.892	10.34
222.276	3.69
222.661	-18.94
223.046	18.83
223.43	31.37
223.815	11.33
224.199	9.12
224.583	10.91
224.968	17.94
225.352	6.25
225.736	15.72
226.121	5.28
226.505	7.94
226.889	4.93
227.273	5.97
227.657	9.3
228.041	6.71
228.425	12.37
228.809	8.57
229.193	10.48
229.577	6.44
229.961	7.84
230.344	9.68
230.728	5.13
231.112	6.75
231.495	5.96
231.879	5.51
232.263	6.47
232.646	6.45
233.03	5.59
233.413	5.85
233.797	7.17
234.18	6.54
234.563	9.24
234.946	8.42
235.33	4.97
235.713	5.32
236.096	6.49
236.479	6.2
236.862	8.53
237.245	6.08
237.628	6.46
238.011	7.17
238.394	6.58
238.777	7.44
239.16	6.42
239.543	6.57
239.925	6.75
240.308	8.78
240.691	7.34
241.073	7.39
241.456	6.53
241.838	6.21
242.221	5.99
242.603	6.17
242.986	5.23
243.368	5.86
243.75	5.85
244.133	5.92
244.515	6.22
244.897	5.45
245.279	5.83
245.661	5.71
246.043	5.25
246.425	6.17
246.807	5.31
247.189	4.99
247.571	6.32
247.953	5.94
248.335	6.01
248.717	5.85
249.098	5.61
249.48	5.5
249.862	5.59
250.243	5.33
250.625	5.66
251.006	5.14
251.388	6.26
251.769	6.01
252.151	5.67
252.532	5.49
252.913	6.44
253.295	7.29
253.676	5.76
254.057	5.49
254.438	6.01
254.819	5.15
255.2	5.19
255.581	4.76
255.962	5.78
256.343	5.87
256.724	6.33
257.105	5.64
257.486	6.32
257.867	5.21
258.247	5.56
258.628	5.63
259.009	5.52
259.389	5.7
259.77	5.02
260.15	6.03
260.531	4.96
260.911	5.25
261.292	5.41
261.672	4.75
262.052	5.05
262.432	4.98
262.813	5.1
263.193	4.85
263.573	5.58
263.953	4.69
264.333	5.25
264.713	5.6
265.093	5.01
265.473	5.09
265.853	4.88
266.233	5.67
266.612	4.67
266.992	5.46
267.372	5.31
267.752	5.3
268.131	4.82
268.511	5.26
268.89	5.73
269.27	4.79
269.649	4.67
270.029	5.13
270.408	4.95
270.787	5.25
271.167	5.07
271.546	4.64
271.925	4.63
272.304	4.86
272.683	4.6
273.062	4.9
273.441	4.93
273.82	5.1
274.199	5
274.578	4.56
274.957	4.85
275.336	4.66
275.715	4.9
276.093	4.61
276.472	4.5
276.851	4.97
277.229	4.3
277.608	5.24
277.986	4.51
278.365	4.83
278.743	4.79
279.122	4.81
279.5	5.08
279.878	4.77
280.257	5.73
280.635	4.32
281.013	5.44
281.391	4.26
281.769	5.1
282.147	4.53
282.525	4.35
282.903	4.83
283.281	4.91
283.659	5.01
284.037	4.85
284.415	4.78
284.792	4.86
285.17	5.16
285.548	4.87
285.925	4.49
286.303	4.6
286.68	4.63
287.058	4.51
287.435	4.57
287.813	4.35
288.19	4.19
288.567	4.54
288.945	4.48
289.322	4.63
289.699	4.68
290.076	4.44
290.453	4.43
290.83	4.54
291.207	4.56
291.584	4.44
291.961	4.13
292.338	4.72
292.715	5.01
293.092	4.98
293.469	4.81
293.845	4.96
294.222	4.86
294.599	4.68
294.975	5.48
295.352	4.99
295.728	4.9
296.105	4.8
296.481	4.82
296.858	5.46
297.234	4.93
297.61	4.92
297.986	4.94
298.363	4.84
298.739	5.25
299.115	5.26
299.491	4.97
299.867	5.11
300.243	4.26
300.619	4.82
300.995	4.83
301.371	5.17
301.746	5.04
302.122	4.61
302.498	4.61
302.874	4.57
303.249	5.08
303.625	4.43
304	5.48
304.376	5.01
304.751	5.23
305.127	5.06
305.502	5.08
305.878	5.05
306.253	5.49
306.628	4.58
307.003	5.19
307.378	4.75
307.754	4.79
308.129	5.03
308.504	5.16
308.879	5.02
309.254	4.96
309.629	4.95
310.003	5.26
310.378	5.12
310.753	5.19
311.128	5.06
311.502	5.43
311.877	4.52
312.252	5.33
312.626	5.29
313.001	5.55
313.375	5.32
313.75	5.46
314.124	5.45
314.498	4.54
314.873	5.12
315.247	5.27
315.621	5.19
315.995	5.23
316.369	5.13
316.743	5.14
317.117	4.93
317.491	5.54
317.865	5.1
318.239	5.24
318.613	5.16
318.987	5.19
319.361	5
319.734	5.01
320.108	5.45
320.482	5.12
320.855	4.86
321.229	5.7
321.602	5.58
321.976	5.28
322.349	5.24
322.723	5.2
323.096	5.5
323.469	5.69
323.843	4.95
324.216	5.93
324.589	5.49
324.962	4.75
325.335	5.26
325.708	5.32
326.081	5.5
326.454	4.93
326.827	5.03
327.2	5.4
327.573	5.49
327.945	4.77
328.318	5.13
328.691	5.43
329.063	4.99
329.436	4.99
329.809	5.28
330.181	5.17
330.553	4.97
330.926	5.3
331.298	5.67
331.671	5.62
332.043	4.62
332.415	5.35
332.787	5.74
333.159	4.95
333.532	4.84
333.904	5.38
334.276	5.27
334.648	4.65
335.02	4.98
335.391	5.15
335.763	5.8
336.135	5.25
336.507	5.22
336.879	4.99
337.25	5.62
337.622	5.27
337.993	5.2
338.365	5.16
338.736	5.45
339.108	5.26
339.479	4.86
339.851	4.78
340.222	5.29
340.593	5.23
340.964	4.84
341.336	5.37
341.707	5.34
342.078	5.47
342.449	5.27
342.82	5.1
343.191	4.62
343.562	4.9
343.933	4.94
344.303	5.04
344.674	5.48
345.045	5.34
345.416	5.14
345.786	5.24
346.157	5.18
346.527	5.01
346.898	5.16
347.268	5.11
347.639	4.85
348.009	4.89
348.38	5.09
348.75	5.59
349.12	5.02
349.49	5.37
349.861	5.19
350.231	5.35
350.601	5
350.971	5.43
351.341	5.08
351.711	5.16
352.081	4.98
352.45	5.01
352.82	5.5
353.19	5.46
353.56	5.12
353.929	5.43
354.299	5.17
354.669	5.39
355.038	4.97
355.408	5.1
355.777	5.71
356.147	5.51
356.516	5.52
356.885	5.2
357.254	5.33
357.624	4.98
357.993	5.1
358.362	5.09
358.731	5.26
359.1	4.83
359.469	5.12
359.838	4.85
360.207	4.93
360.576	5.14
360.945	5.15
361.314	5.17
361.682	5.17
362.051	5.17
362.42	5.2
362.788	4.94
363.157	5.15
363.525	5.06
363.894	5.07
364.262	5.13
364.631	5.13
364.999	5.03
365.367	5.21
365.735	5.19
366.104	5.14
366.472	5.56
366.84	5.34
367.208	5.24
367.576	5.34
367.944	5.16
368.312	5.26
368.68	5.32
369.048	5.12
369.416	5.09
369.783	5.15
370.151	5.23
370.519	5.08
370.886	5.22
371.254	5.61
371.621	5.33
371.989	5.14
372.356	5.44
372.724	5.6
373.091	5.35
373.458	5.44
373.826	5.25
374.193	5.43
374.56	5.35
374.927	5.54
375.294	5.54
375.661	5.28
376.028	5.45
376.395	5.12
376.762	4.97
377.129	5.52
377.496	5.73
377.863	5.52
378.229	5.51
378.596	5.42
378.963	5.58
379.329	5.39
379.696	5.64
380.062	5.18
380.429	5.32
380.795	5.39
381.161	5.2
381.528	5.51
381.894	4.95
382.26	5.45
382.626	5.47
382.993	5.62
383.359	4.91
383.725	5.23
384.091	5.37
384.457	5.54
384.823	5.61
385.188	5.49
385.554	5.28
385.92	5.74
386.286	5.39
386.651	5.42
387.017	5.45
387.383	5.45
387.748	5.34
388.114	5.38
388.479	5.4
388.845	5.25
389.21	5.09
389.575	5.61
389.94	5.28
390.306	5.72
390.671	5.86
391.036	5.06
391.401	5.29
391.766	5.37
392.131	5.33
392.496	5.37
392.861	5.24
393.226	5.58
393.591	5.28
393.956	5.39
394.32	5.3
394.685	5.25
395.05	5.6
395.414	5.44
395.779	5.44
396.143	5.53
396.508	5.2
396.872	5.27
397.236	5.43
397.601	5.47
397.965	5.61
398.329	5.58
398.694	5.37
399.058	5.31
399.422	5.62
399.786	5.46
400.15	5.76
400.514	5.5
400.878	5.61
401.242	5.55
401.605	5.21
401.969	5.2
402.333	5.57
402.697	5.28
403.06	5.45
403.424	5.48
403.787	5.54
404.151	5.52
404.514	5.57
404.878	5.72
405.241	5.73
405.604	5.6
405.968	5.69
406.331	5.47
406.694	5.61
407.057	5.54
407.42	5.63
407.783	5.58
408.146	5.59
408.509	5.74
408.872	5.44
409.235	5.43
409.598	5.23
409.961	5.7
410.323	5.67
410.686	5.5
411.049	5.86
411.411	5.8
411.774	5.67
412.136	5.53
412.499	5.39
412.861	5.6
413.223	5.65
413.586	5.52
413.948	5.9
414.31	5.44
414.672	5.89
415.035	5.54
415.397	5.56
415.759	6.22
416.121	5.46
416.483	5.59
416.845	5.46
417.206	5.53
417.568	5.58
417.93	5.48
418.292	5.56
418.653	5.36
419.015	5.7
419.377	5.51
419.738	5.59
420.1	5.38
420.461	5.49
420.822	5.49
421.184	5.44
421.545	5.51
421.906	5.57
422.267	5.4
422.629	5.56
422.99	5.54
423.351	5.47
423.712	5.34
424.073	5.38
424.434	5.54
424.795	5.6
425.155	5.57
425.516	5.56
425.877	5.54
426.238	5.41
426.598	5.42
426.959	5.47
427.32	5.55
427.68	5.41
428.041	5.44
428.401	5.5
428.761	5.59
429.122	5.71
429.482	5.66
429.842	5.43
430.202	5.62
430.563	5.76
430.923	5.71
431.283	5.8
431.643	5.67
432.003	5.67
432.363	5.8
432.722	5.76
433.082	5.64
433.442	5.85
433.802	5.7
434.161	5.74
434.521	5.65
434.881	5.75
435.24	5.62
435.6	5.51
435.959	5.54
436.319	5.63
436.678	5.71
437.037	5.78
437.396	5.58
437.756	5.62
438.115	5.63
438.474	5.75
438.833	5.89
439.192	5.63
439.551	5.72
439.91	5.81
440.269	5.87
440.628	5.47
440.987	5.67
441.345	5.9
441.704	6.03
442.063	5.6
442.421	5.57
442.78	5.74
443.138	5.69
443.497	5.65
443.855	5.72
444.214	5.68
444.572	5.84
444.93	5.92
445.288	5.9
445.647	5.82
446.005	5.77
446.363	5.66
446.721	5.76
447.079	5.54
447.437	5.79
447.795	5.86
448.153	5.73
448.51	5.77
448.868	5.59
449.226	5.66
449.584	5.75
449.941	5.64
450.299	5.82
450.656	5.78
451.014	5.84
451.371	5.7
451.729	5.78
452.086	5.78
452.443	5.84
452.801	5.74
453.158	5.68
453.515	6.04
453.872	5.86
454.229	5.94
454.586	5.84
454.943	5.72
455.3	5.8
455.657	5.86
456.014	5.8
456.371	5.99
456.727	5.98
457.084	5.87
457.441	5.74
457.797	6.01
458.154	5.89
458.51	5.84
458.867	5.82
459.223	5.77
459.58	5.99
459.936	6.01
460.292	6
460.648	6.01
461.005	5.92
461.361	5.91
461.717	5.66
462.073	5.75
462.429	5.57
462.785	5.8
463.141	5.86
463.496	5.87
463.852	5.94
464.208	5.82
464.564	5.94
464.919	6.04
465.275	5.98
465.631	6.16
465.986	6.17
466.342	6.08
466.697	6.12
467.052	6.04
467.408	6.17
467.763	5.91
468.118	6.17
468.473	5.98
468.829	6.07
469.184	5.84
469.539	5.93
469.894	5.87
470.249	5.83
470.603	5.92
470.958	5.94
471.313	6.05
471.668	6.13
472.023	6.01
472.377	5.97
472.732	6.08
473.086	6.2
473.441	5.87
473.795	6.21
474.15	6.16
474.504	5.87
474.859	5.94
475.213	5.85
475.567	6.01
475.921	6.05
476.275	6.03
476.63	5.84
476.984	5.95
477.338	5.99
477.692	6.19
478.045	6.31
478.399	6.09
478.753	6.06
479.107	6.22
479.461	6
479.814	6.25
480.168	6.04
480.521	6.15
480.875	6.24
481.228	6.19
481.582	6.05
481.935	6
482.289	6.02
482.642	5.89
482.995	5.92
483.348	6.06
483.701	6.02
484.055	6
484.408	5.94
484.761	6.02
485.114	5.84
485.466	5.81
485.819	5.72
486.172	5.71
486.525	5.72
486.878	5.71
487.23	5.73
487.583	5.84
487.936	5.9
488.288	5.97
488.641	5.91
488.993	5.91
489.345	5.87
489.698	5.82
490.05	5.87
490.402	5.85
490.754	5.79
491.107	5.78
491.459	5.94
491.811	5.94
492.163	6.03
492.515	6
492.866	6.06
493.218	6.07
493.57	5.98
493.922	5.88
494.274	5.97
494.625	5.93
494.977	6.03
495.328	6.05
495.68	6.13
496.031	6.01
496.383	6.18
496.734	6.18
497.086	6.03
497.437	6.1
497.788	6.15
498.139	6.2
498.49	6.25
498.842	6.13
499.193	6.11
499.544	6.19
499.894	6.12
500.245	6.2
500.596	6.2
500.947	6.28
501.298	6.11
501.648	6.23
501.999	6.25
502.35	6.2
502.7	6.2
503.051	6.22
503.401	6.44
503.752	6.27
504.102	6.21
504.452	6.37
504.803	6.28
505.153	6.26
505.503	6.29
505.853	6.27
506.203	6.23
506.553	6.29
506.903	6.27
507.253	6.2
507.603	6.29
507.953	6.3
508.303	6.27
508.652	6.23
509.002	6.3
509.352	6.29
509.701	6.25
510.051	6.19
510.4	6.19
510.75	6.26
511.099	6.1
511.449	6.27
511.798	6.31
512.147	6.18
512.496	6.3
512.846	6.17
513.195	6.33
513.544	6.24
513.893	6.35
514.242	6.26
514.591	6.31
514.939	6.29
515.288	6.21
515.637	6.17
515.986	6.12
516.334	6.35
516.683	6.39
517.032	6.43
517.38	6.32
517.729	6.23
518.077	6.22
518.426	6.36
518.774	6.33
519.122	6.23
519.47	6.31
519.819	6.28
520.167	6.34
520.515	6.29
520.863	6.16
521.211	6.14
521.559	6.19
521.907	6.17
522.255	6.22
522.602	6.29
522.95	6.25
523.298	6.42
523.645	6.37
523.993	6.36
524.341	6.27
524.688	6.35
525.036	6.34
525.383	6.36
525.73	6.34
526.078	6.26
526.425	6.3
526.772	6.41
527.119	6.36
527.466	6.22
527.814	6.22
528.161	6.24
528.508	6.23
528.854	6.22
529.201	6.25
529.548	6.27
529.895	6.24
530.242	6.16
530.588	6.07
530.935	6.01
531.282	6.02
531.628	6.11
531.975	6.02
532.321	6.07
532.667	6.19
533.014	6.21
533.36	6.23
533.706	6.31
534.052	6.32
534.399	6.33
534.745	6.28
535.091	6.2
535.437	6.22
535.783	6.21
536.129	6.15
536.474	6.24
536.82	6.19
537.166	6.27
537.512	6.32
537.857	6.31
538.203	6.34
538.549	6.25
538.894	6.29
539.239	6.33
539.585	6.34
539.93	6.39
540.276	6.3
540.621	6.49
540.966	6.45
541.311	6.48
541.656	6.39
542.001	6.44
542.346	6.38
542.691	6.45
543.036	6.39
543.381	6.26
543.726	6.15
544.071	6.23
544.415	6.16
544.76	6.15
545.105	6.22
545.449	6.18
545.794	6.34
546.138	6.3
546.483	6.4
546.827	6.37
547.171	6.46
547.516	6.57
547.86	6.47
548.204	6.47
548.548	6.42
548.892	6.56
549.236	6.41
549.58	6.44
549.924	6.51
550.268	6.55
550.612	6.41
550.956	6.5
551.3	6.63
551.643	6.48
551.987	6.55
552.33	6.65
552.674	6.49
553.017	6.51
553.361	6.48
553.704	6.65
554.048	6.64
554.391	6.55
554.734	6.54
555.077	6.35
555.42	6.43
555.764	6.45
556.107	6.57
556.45	6.62
556.793	6.26
557.135	6.47
557.478	6.5
557.821	6.65
558.164	6.65
558.507	6.66
558.849	6.56
559.192	6.8
559.534	6.66
559.877	6.76
560.219	6.58
560.562	6.66
560.904	6.78
561.246	6.74
561.589	6.71
561.931	6.67
562.273	6.52
562.615	6.53
562.957	6.41
563.299	6.71
563.641	6.72
563.983	6.63
564.325	6.66
564.667	6.75
565.008	6.51
565.35	6.69
565.692	6.77
566.033	6.74
566.375	6.59
566.716	6.75
567.058	6.65
567.399	6.79
567.741	6.87
568.082	6.67
568.423	6.68
568.764	6.78
569.105	6.45
569.447	6.64
569.788	6.61
570.129	6.77
570.47	6.65
570.811	6.58
571.151	6.76
571.492	6.6
571.833	6.69
572.174	6.68
572.514	6.79
572.855	6.75
573.195	6.59
573.536	6.73
573.876	6.75
574.217	6.68
574.557	6.79
574.898	6.69
575.238	6.6
575.578	6.72
575.918	6.69
576.258	6.54
576.598	6.86
576.938	6.8
577.278	6.91
577.618	6.68
577.958	6.76
578.298	6.78
578.638	6.78
578.977	6.77
579.317	6.8
579.657	6.91
579.996	6.94
580.336	6.77
580.675	6.98
581.014	6.67
581.354	6.7
581.693	6.92
582.032	7.03
582.372	6.87
582.711	7
583.05	6.82
583.389	6.83
583.728	6.69
584.067	6.89
584.406	7.01
584.745	6.69
585.083	7.08
585.422	6.93
585.761	6.72
586.1	6.81
586.438	6.86
586.777	6.92
587.115	6.93
587.454	6.71
587.792	7.02
588.13	7.06
588.469	6.74
588.807	7.01
589.145	7.1
589.483	7.04
589.821	6.93
590.159	6.98
590.497	6.89
590.835	6.87
591.173	6.92
591.511	6.92
591.849	6.96
592.187	6.98
592.524	6.89
592.862	6.8
593.2	6.68
593.537	6.88
593.875	6.91
594.212	7.08
594.55	7.26
594.887	6.91
595.224	7.16
595.561	7.21
595.899	7.25
596.236	7.23
596.573	7.25
596.91	6.99
597.247	6.92
597.584	7.13
597.921	7.12
598.258	7.16
598.594	7.03
598.931	7.02
599.268	7.06
599.604	7.04
599.941	7.02
600.277	6.74
600.614	6.92
600.95	6.97
601.287	6.84
601.623	7.09
601.959	7.24
602.296	6.95
602.632	7.05
602.968	6.99
603.304	7.13
603.64	6.82
603.976	7.06
604.312	7.06
604.648	6.97
604.984	7.26
605.319	7.12
605.655	6.86
605.991	7.08
606.326	7.04
606.662	7.02
606.998	6.9
607.333	7.18
607.668	6.96
608.004	7.18
608.339	6.92
608.674	7.17
609.01	7
609.345	7.16
609.68	7.35
610.015	7.14
610.35	6.94
610.685	7.52
611.02	7.22
611.355	7.33
611.689	7.1
612.024	7.21
612.359	7.14
612.694	6.97
613.028	6.95
613.363	7.02
613.697	6.94
614.032	6.94
614.366	7.09
614.7	7.07
615.035	7.28
615.369	7.16
615.703	7.06
616.037	7.31
616.371	7.34
616.705	7.47
617.039	7.22
617.373	7.28
617.707	7.13
618.041	7.32
618.375	7.06
618.709	6.89
619.042	7.33
619.376	7.53
619.71	7.24
620.043	6.8
620.377	7.31
620.71	7.32
621.043	7.63
621.377	7.32
621.71	7.55
622.043	6.93
622.376	7.54
622.709	7.25
623.043	7.34
623.376	7.65
623.709	7.7
624.041	7.35
624.374	7.23
624.707	7.46
625.04	7.34
625.373	7.04
625.705	7.3
626.038	7.29
626.37	7.41
626.703	7.44
627.035	7.66
627.368	7.46
627.7	7.63
628.032	7.54
628.365	7.65
628.697	7.42
629.029	7.32
629.361	7.39
629.693	7.45
630.025	7.35
630.357	7.07
630.689	7.56
631.021	7.26
631.353	7.73
631.684	7.66
632.016	7.54
632.348	7.69
632.679	7.56
633.011	7.65
633.342	7.39
633.674	7.67
634.005	7.35
634.336	7.38
634.668	7.72
634.999	7.8
635.33	7.98
635.661	7.67
635.992	7.46
636.323	7.37
636.654	7.49
636.985	7.17
637.316	7.45
637.647	7.64
637.977	7.14
638.308	7.68
638.639	7.61
638.969	7.51
639.3	7.42
639.63	7.62
639.961	7.72
640.291	7.84
640.622	7.81
640.952	7.55
641.282	7.42
641.612	7.55
641.943	7.72
642.273	7.73
642.603	7.87
642.933	7.65
643.263	7.24
643.592	7.36
643.922	7.54
644.252	7.71
644.582	7.72
644.911	7.68
645.241	7.92
645.571	7.38
645.9	7.82
646.23	8.17
646.559	7.82
646.888	8.32
647.218	7.69
647.547	7.37
647.876	7.83
648.205	7.71
648.534	8.59
648.863	7.6
649.192	7.41
649.521	8.03
649.85	8.05
650.179	8.03
650.508	7.28
650.837	7.72
651.165	7.82
651.494	8.05
651.822	7.77
652.151	7.48
652.479	7.14
652.808	7.79
653.136	8.21
653.465	7.9
653.793	8.08
654.121	8.39
654.449	7.39
654.777	8.18
655.105	7.75
655.433	7.5
655.761	8.59
656.089	7.69
656.417	7.4
656.745	7.91
657.073	8.27
657.4	8.51
657.728	8.18
658.056	8.06
658.383	8.5
658.711	7.76
659.038	7.86
659.365	8.04
659.693	8.06
660.02	7.83
660.347	7.79
660.674	7.55
661.001	7.95
661.329	7.82
661.656	7.95
661.982	7.75
662.309	8.13
662.636	7.96
662.963	7.92
663.29	8.07
663.616	7.77
663.943	7.87
664.27	8.08
664.596	7.87
664.923	7.88
665.249	7.56
665.576	7.16
665.902	8.31
666.228	8.08
666.554	7.73
666.881	8.58
667.207	8.01
667.533	8.06
667.859	8.51
668.185	7.92
668.511	8.26
668.837	7.8
669.162	7.95
669.488	8.23
669.814	7.87
670.139	8.08
670.465	8.46
670.791	8.19
671.116	8.07
671.442	8.6
671.767	7.93
672.092	8.78
672.418	8.88
672.743	8.43
673.068	8.78
673.393	7.83
673.718	8.66
674.043	8.71
674.368	8.42
674.693	8.23
675.018	8.08
675.343	8.61
675.667	8.07
675.992	8.17
676.317	8.57
676.641	8.4
676.966	8.23
677.29	8.08
677.615	9.04
677.939	8.6
678.264	8.06
678.588	9.01
678.912	8.53
679.236	8.49
679.56	8.49
679.885	8
680.209	8.81
680.532	8.6
680.856	8.09
681.18	8.29
681.504	8.54
681.828	8.5
682.152	8.09
682.475	8.9
682.799	8.6
683.122	8.68
683.446	8.5
683.769	8.32
684.093	8.88
684.416	8.81
684.739	8.71
685.062	9.05
685.386	8.01
685.709	8.63
686.032	8.23
686.355	8.19
686.678	8.56
687.001	8.92
687.324	9.04
687.646	8.88
687.969	8.7
688.292	8.61
688.614	9.18
688.937	8.76
689.26	8.21
689.582	8.56
689.904	8.8
690.227	9.03
690.549	9.46
690.871	8.86
691.194	9.07
691.516	8.38
691.838	9.07
692.16	8.99
692.482	8.72
692.804	8.79
693.126	8.15
693.448	8.62
693.769	8.78
694.091	8.78
694.413	9.33
694.735	8.59
695.056	9.01
695.378	9.4
695.699	9.28
696.021	8.06
696.342	9.13
696.663	8.27
696.984	8.49
697.306	8.91
697.627	7.57
697.948	7.93
698.269	8.68
698.59	8.34
698.911	8.8
699.232	8.82
699.553	8.7
699.873	8.87
700.194	8.65
700.515	8.44
700.835	9.45
701.156	9.19
701.477	8.91
701.797	8.83
702.117	9.16
702.438	8.77
702.758	8.75
703.078	8.8
703.398	9.38
703.719	8.96
704.039	9.29
704.359	8.56
704.679	7.87
704.999	9.92
705.319	9.2
705.638	8.64
705.958	9.69
706.278	10.61
706.597	9.24
706.917	9.91
707.237	9.54
707.556	8.85
707.876	7.7
708.195	9.75
708.514	9.23
708.834	8.92
709.153	10.2
709.472	9.33
709.791	8.15
710.11	9.19
710.429	9.78
710.748	9.53
711.067	9.23
711.386	9.96
711.705	10.05
712.023	9.2
712.342	10.39
712.661	9.64
712.979	9.41
713.298	11.51
713.616	9.54
713.935	9.8
714.253	10.02
714.572	10.04
714.89	10.23
715.208	10.35
715.526	8.3
715.844	9.47
716.162	8.95
716.48	9.47
716.798	8.89
717.116	9.44
717.434	9.06
717.752	9.73
718.069	9.2
718.387	9.32
718.705	9.73
719.022	10.1
719.34	10.2
719.657	8.13
719.975	10.01
720.292	10.23
720.609	10.19
720.927	10.17
721.244	10.61
721.561	10.62
721.878	9.68
722.195	8.92
722.512	10.05
722.829	10.55
723.146	10.61
723.463	8.65
723.779	10.26
724.096	8.82
724.413	12.22
724.729	10.99
725.046	10
725.362	9.48
725.679	9.73
725.995	11.34
726.311	8.93
726.628	8.89
726.944	8.89
727.26	10.06
727.576	9.6
727.892	8.17
728.208	10.12
728.524	9.75
728.84	9.02
729.156	11.32
729.472	11.32
729.787	10.95
730.103	10.31
730.419	10.56
730.734	10.63
731.05	10.16
731.365	10.23
731.681	10.43
731.996	10.97
732.311	10.9
732.626	10.15
732.942	9.5
733.257	9.79
733.572	10.36
733.887	9.48
734.202	11.15
734.517	11.6
734.832	10.58
735.146	9.54
735.461	10.27
735.776	10.12
736.091	9.13
736.405	10.61
736.72	10.86
737.034	9.28
737.349	9.81
737.663	10.24
737.977	10.17
738.292	10.96
738.606	10.18
738.92	10.3
739.234	9.55
739.548	11.38
739.862	10.29
740.176	9.31
740.49	9.46
740.804	10.95
741.117	9.42
741.431	10.57
741.745	11.67
742.058	10.33
742.372	9.36
742.685	9.49
742.999	9.97
743.312	10.81
743.626	10.75
743.939	11.18
744.252	10.69
744.565	9.89
744.878	10.84
745.191	11.35
745.505	10.31
745.817	10.8
746.13	12.6
746.443	11.75
746.756	12.48
747.069	10.75
747.381	9.1
747.694	11.98
748.007	10.54
748.319	11.25
748.632	11.17
748.944	11.79
749.256	11.78
749.569	10.02
749.881	11.06
750.193	11.5
750.505	12.19
750.817	12.52
751.129	11.79
751.441	13.28
751.753	11.08
752.065	12.94
752.377	12.42
752.689	9.61
753	10.15
753.312	11.69
753.624	9.3
753.935	13.56
754.247	9.53
754.558	11.83
754.869	10.08
755.181	12.48
755.492	11.38
755.803	13.32
756.114	12.2
756.425	12.3
756.736	9.79
757.047	10.56
757.358	11.03
757.669	10.31
757.98	10.32
758.291	10.22
758.601	12.53
758.912	10.68
759.223	14.49
759.533	9.77
759.844	12.11
760.154	11.12
760.464	10.37
760.775	11.7
761.085	12.68
761.395	11.9
761.705	11.77
762.016	9.98
762.326	11.65
762.636	12.61
762.945	9.99
763.255	13
763.565	10.74
763.875	9.78
764.185	13
764.494	13.02
764.804	9.04
765.113	10.65
765.423	9.89
765.732	11.45
766.042	10.82
766.351	10.99
766.66	11.63
766.97	10.82
767.279	10.26
767.588	11.23
767.897	11.21
768.206	12.1
768.515	9.97
768.824	11.44
769.133	12.17
769.441	11.47
769.75	12.67
770.059	13.55
770.367	11.6
770.676	11.68
770.984	12.51
771.293	10.44
771.601	13.53
771.91	13.3
772.218	13.3
772.526	12.23
772.834	13.23
773.142	10.91
773.45	13.84
773.758	11.86
774.066	12.45
774.374	10.36
774.682	10.13
774.99	14.24
775.298	12.31
775.605	12.59
775.913	16.47
776.22	11.53
776.528	11.78
776.835	10.72
777.143	12.43
777.45	12.13
777.757	10.5
778.065	11.64
778.372	13.88
778.679	11.19
778.986	13.34
779.293	13.62
779.6	11.34
779.907	14.43
780.214	15.95
780.52	9.74
780.827	13.35
781.134	15.29
781.44	14.25
781.747	13.51
782.053	12.6
782.36	16.89
782.666	14.41
782.973	14.42
783.279	14.17
783.585	14.74
783.891	14.85
784.197	10.45
784.503	11.95
784.809	13.53
785.115	14.09
785.421	15.51
785.727	11.83
786.033	15.62
786.339	12.47
786.644	13.3
786.95	7.86
787.255	10.36
787.561	15.3
787.866	12.56
788.172	14.46
788.477	11.2
788.782	12.51
789.088	13.1
789.393	11.88
789.698	12.76
790.003	15.32
790.308	11.98
790.613	13.09
790.918	13.42
791.223	11.42
791.527	10.76
791.832	11.97
792.137	13.55
792.441	17.32
792.746	14.38
793.05	14.09
793.355	15.21
793.659	13.52
793.963	15.83
794.268	13.25
794.572	11.5
794.876	14.03
795.18	14.28
795.484	11.68
795.788	10.03
796.092	14.26
796.396	20.86
796.7	17.6
797.004	14.49
797.307	6.89
797.611	8.21
797.915	12.94
798.218	15.68
798.522	14.26
798.825	12.97
799.128	18.55
799.432	16.31
799.735	14.07
800.038	13.98
800.341	15.15
800.644	15.26
800.947	12.85
801.25	15.64
801.553	19.06
801.856	17.07
802.159	10.76
802.462	15.76
802.764	15.82
803.067	15.22
803.37	17.29
803.672	15.93
803.975	13.25
804.277	19.8
804.579	14.12
804.882	15.98
805.184	16.21
805.486	15.58
805.788	19.59
806.09	22.57
806.392	8.95
806.694	16.79
806.996	16.39
807.298	16.29
807.6	20.21
807.902	18.28
808.203	14.53
808.505	16.96
808.807	15.71
809.108	16.69
809.409	16.48
809.711	15.28
810.012	19.26
810.313	10.86
810.615	14.12
810.916	16.34
811.217	19.47
811.518	12.17
811.819	20.87
812.12	14.66
812.421	12.75
812.722	14.37
813.023	10.79
813.323	15.27
813.624	18.72
813.925	19.91
814.225	19.31
814.526	17.66
814.826	17.87
815.126	16.01
815.427	11.79
815.727	10.71
816.027	8.52
816.327	12.3
816.627	20.39
816.927	15.64
817.227	21.59
817.527	23.58
817.827	6.17
818.127	11.39
818.427	20.86
818.727	14.85
819.026	18.15
819.326	17.05
819.625	20.48
819.925	10.83
820.224	14.52
820.524	21.49
820.823	13.33
821.122	7.28
821.421	10.73
821.72	20.85
822.019	15.5
822.318	14.47
822.617	13.81
822.916	18.39
823.215	13.78
823.514	13.15
823.813	16.3
824.111	14.82
824.41	14.81
824.709	12.45
825.007	13.41
825.306	13.63
825.604	12.45
825.902	12.98
826.201	13.08
826.499	13.35
826.797	13.24
827.095	14.1
827.393	13.6
827.691	13.55
827.989	11.28
828.287	13.34
828.585	14.68
828.882	14.05
829.18	16.36
829.478	13.94
829.775	13.74
830.073	12.18
830.37	12.97
830.668	13.04
830.965	15.35
831.263	12.03
831.56	12.52
831.857	14.69
832.154	13.85
832.451	13.51
832.748	14.76
833.045	13.7
833.342	15.98
833.639	16.45
833.936	18.89
834.232	16.79
834.529	16.84
834.826	14.92
835.122	19.36
835.419	10.41
835.715	20.86
836.012	12.95
836.308	20.28
836.604	18.57
836.901	14.83
837.197	16.6
837.493	16.51
837.789	15.25
838.085	10.89
838.381	13.14
838.677	13.3
838.972	16.56
839.268	16.43
839.564	14.41
839.86	22.94
840.155	20.14
840.451	19.76
840.746	17.12
841.042	14.03
841.337	23.35
841.632	18.24
841.928	17.68
842.223	23.67
842.518	20.77
842.813	22.49
843.108	23.61
843.403	15.73
843.698	19.56
843.993	17.06
844.287	19.9
844.582	15.36
844.877	11.03
845.171	18.86
845.466	15.69
845.761	13.2
846.055	16.65
846.349	11.48
846.644	21.05
846.938	21.94
847.232	18.58
847.526	26.23
847.82	15.44
848.114	20.28
848.408	25.54
848.702	19.97
848.996	30.02
849.29	21.71
849.584	20.51
849.877	27.15
850.171	35.3
850.465	36.78
850.758	24.08
851.052	12.03
851.345	39.82
851.638	25.77
851.932	37.92
852.225	38.44
852.518	38.5
852.811	22.25
853.104	21.33
853.397	28.87
853.69	16.74
853.983	24.87
854.276	27.17
854.569	32.48
854.861	-1.05
855.154	18.3
855.447	18.89
855.739	-6.04
856.032	31.44
856.324	26.78
856.616	23.46
856.909	32.85
857.201	6.36
857.493	10.28
857.785	29.11
858.077	20.63
858.369	37.68
858.661	39.16
858.953	27.75
859.245	22.17
859.537	25.28
859.829	15.86
860.12	28.81
860.412	34.45
860.703	-19.63
860.995	19.29
861.286	33.1
861.578	19.89
861.869	35.69
862.16	6.82
862.452	21.44
862.743	47.38
863.034	54.34
863.325	50.38
863.616	36.58
863.907	19.88
864.198	40.77
864.488	19.98
864.779	12.2
865.07	30.08
865.36	23.51
865.651	36.26
865.941	18.62
866.232	28.84
866.522	34.16
866.813	52.12
867.103	47.91
867.393	21.36
867.683	28.77
867.973	46.67
868.263	24.79
868.553	17.27
868.843	53.09
869.133	58.62
869.423	43.87
869.713	12.52
870.002	31.45
870.292	17.01
870.582	7.73
870.871	14.9
871.161	39.66
871.45	33.95
871.739	43.85
872.029	36.58
872.318	40.32
872.607	36.88
872.896	10.04
873.185	35.18
873.474	64.48
873.763	22.33
874.052	14.66
874.341	39.08
874.63	46.81
874.918	-5.42
875.207	22.87
875.496	17.25
875.784	16.95
876.073	13.77
876.361	45.12
876.649	21.49
876.938	41.33
877.226	26.1
877.514	24.93
877.802	14.17
878.09	49.11
878.378	23.31
878.666	50.34
878.954	13.71
879.242	50.52
879.53	22.66
879.817	29.11
880.105	-18.87
880.392	32.28
880.68	17.83
880.967	51.87
881.255	36.78
881.542	22.48
881.83	85.44
882.117	22.68
882.404	38.14
882.691	16.67
882.978	37.39
883.265	30
883.552	34.64
883.839	16.47
884.126	22.84
884.413	11.46
884.699	29.18
884.986	29.91
885.273	16.27
885.559	16.27
885.846	16.27
