Data from 0158_chest_Reflection__0__66.txt Node

Date: Fri Sep 22 20:51:58 CDT 2023
User: ToomeyLab
Spectrometer: FLMS14357
Trigger mode: 0
Integration Time (sec): 1.000000E-2
Scans to average: 100
Electric dark correction enabled: true
Nonlinearity correction enabled: false
Boxcar width: 0
XAxis mode: Wavelengths
Number of Pixels in Spectrum: 2048
>>>>>Begin Spectral Data<<<<<
189.047	-8.79
189.435	-8.79
189.823	-8.79
190.211	-168.34
190.599	-7.93
190.987	100.57
191.375	-1502.65
191.763	-1.28
192.151	234.27
192.538	3920.57
192.926	143.24
193.314	117.05
193.702	376.89
194.089	70.82
194.477	-73.75
194.864	85.79
195.252	-16.52
195.639	149.28
196.027	132.41
196.414	-66.44
196.801	-1946.82
197.189	-49.92
197.576	681.31
197.963	4.87
198.351	1.25
198.738	-0.46
199.125	17.39
199.512	73.92
199.899	40.91
200.286	39.9
200.673	3.24
201.06	43.58
201.447	76.8
201.833	-53.63
202.22	53.65
202.607	5.89
202.994	22.24
203.38	43.02
203.767	-11.71
204.154	58.34
204.54	35.42
204.927	49.77
205.313	7.45
205.699	37.28
206.086	73.71
206.472	58.48
206.858	31.28
207.245	7.26
207.631	23.52
208.017	20.83
208.403	11.49
208.789	24.56
209.175	44.3
209.561	35.11
209.947	36.31
210.333	33.94
210.719	9.4
211.105	37.23
211.491	6.81
211.876	21.91
212.262	23.92
212.648	55.5
213.034	35.19
213.419	33.55
213.805	15.56
214.19	11.24
214.576	44.86
214.961	24.39
215.346	9.59
215.732	40.79
216.117	8.97
216.502	41.63
216.888	36.43
217.273	20.92
217.658	4.23
218.043	27.86
218.428	25.79
218.813	-10.24
219.198	27.77
219.583	11.26
219.968	6.43
220.353	33.12
220.738	-3.57
221.122	10.65
221.507	2.97
221.892	8.62
222.276	1.6
222.661	-14.81
223.046	10.88
223.43	30.18
223.815	-1.21
224.199	3.72
224.583	11.55
224.968	14.2
225.352	12.4
225.736	8.91
226.121	5.85
226.505	1.02
226.889	3.97
227.273	6.55
227.657	4.51
228.041	6.48
228.425	9.16
228.809	1.8
229.193	3.57
229.577	5.22
229.961	5.1
230.344	3.41
230.728	1.8
231.112	2.43
231.495	1.76
231.879	2.3
232.263	1.94
232.646	3.05
233.03	2.02
233.413	2.23
233.797	2.9
234.18	2.28
234.563	6.61
234.946	5.2
235.33	1.06
235.713	2.56
236.096	2.67
236.479	2.26
236.862	3.44
237.245	2.92
237.628	4.36
238.011	3.67
238.394	3.09
238.777	4.29
239.16	3.86
239.543	3.89
239.925	3.87
240.308	2.51
240.691	4.61
241.073	5.35
241.456	2.84
241.838	2.08
242.221	2.68
242.603	3
242.986	2.12
243.368	2.18
243.75	3.58
244.133	2.74
244.515	2.22
244.897	2.2
245.279	2.39
245.661	2.66
246.043	2.98
246.425	2.61
246.807	2.95
247.189	0.89
247.571	2.45
247.953	3.24
248.335	2.41
248.717	2.35
249.098	2.46
249.48	2.2
249.862	2.13
250.243	2.55
250.625	2.77
251.006	2.16
251.388	2.66
251.769	2.84
252.151	2.59
252.532	3.09
252.913	2.76
253.295	3.57
253.676	3.04
254.057	2.44
254.438	3.19
254.819	2.01
255.2	2.65
255.581	2.32
255.962	3.4
256.343	2.6
256.724	2.62
257.105	2.86
257.486	2.53
257.867	2.05
258.247	3.27
258.628	3.94
259.009	2.72
259.389	2.62
259.77	2.33
260.15	3.38
260.531	2.44
260.911	2.02
261.292	2.18
261.672	2.08
262.052	2.21
262.432	2.24
262.813	2.12
263.193	2.04
263.573	3.05
263.953	2.67
264.333	2.95
264.713	2.52
265.093	2.52
265.473	2.19
265.853	2.32
266.233	2.09
266.612	2.44
266.992	2.98
267.372	2.24
267.752	3.36
268.131	2.31
268.511	2.4
268.89	2.07
269.27	2.2
269.649	2.14
270.029	2.53
270.408	2.38
270.787	3.15
271.167	2.1
271.546	2.12
271.925	2.33
272.304	2.14
272.683	2.35
273.062	2.78
273.441	2.38
273.82	2.55
274.199	2.42
274.578	2.46
274.957	2.37
275.336	2.19
275.715	2.35
276.093	1.9
276.472	2.38
276.851	2.6
277.229	1.55
277.608	2.8
277.986	1.98
278.365	1.91
278.743	2.37
279.122	2.38
279.5	2.57
279.878	1.89
280.257	2.56
280.635	1.88
281.013	3.12
281.391	1.97
281.769	2.36
282.147	2.03
282.525	2.34
282.903	2.65
283.281	2.05
283.659	2.87
284.037	2.36
284.415	2.49
284.792	2.39
285.17	2.11
285.548	2.69
285.925	2.15
286.303	2.22
286.68	1.83
287.058	2.11
287.435	2.27
287.813	2.19
288.19	1.84
288.567	2.34
288.945	2.27
289.322	2.44
289.699	2.74
290.076	2.85
290.453	1.88
290.83	2.03
291.207	2.31
291.584	1.98
291.961	2.4
292.338	2.32
292.715	2.54
293.092	2.2
293.469	2.52
293.845	2.44
294.222	2.77
294.599	2.46
294.975	2.97
295.352	2.57
295.728	2.96
296.105	2.94
296.481	2.77
296.858	2.45
297.234	2.49
297.61	2.92
297.986	2.61
298.363	3.03
298.739	2.85
299.115	2.78
299.491	2.73
299.867	2.74
300.243	2.66
300.619	2.29
300.995	2.3
301.371	2.59
301.746	2.62
302.122	2.83
302.498	2.69
302.874	2.72
303.249	2.62
303.625	1.95
304	2.9
304.376	3.06
304.751	3.03
305.127	2.71
305.502	2.96
305.878	2.29
306.253	2.64
306.628	2.63
307.003	3.1
307.378	3.19
307.754	2.55
308.129	2.99
308.504	3.07
308.879	3.27
309.254	2.99
309.629	2.83
310.003	3.27
310.378	3.6
310.753	2.8
311.128	3.41
311.502	3.3
311.877	2.57
312.252	2.88
312.626	2.71
313.001	3.29
313.375	3.08
313.75	3.36
314.124	3.45
314.498	2.88
314.873	3
315.247	3.14
315.621	3
315.995	3.18
316.369	3.34
316.743	2.74
317.117	3.59
317.491	3.44
317.865	2.87
318.239	2.98
318.613	3.27
318.987	3.57
319.361	3.27
319.734	3
320.108	3.37
320.482	2.98
320.855	3.09
321.229	3.68
321.602	3.75
321.976	3.13
322.349	3.48
322.723	3.17
323.096	3.53
323.469	2.92
323.843	3.67
324.216	3.64
324.589	3.29
324.962	2.81
325.335	2.93
325.708	3
326.081	3.47
326.454	2.87
326.827	3.31
327.2	3.37
327.573	3.97
327.945	3.2
328.318	3.58
328.691	3.38
329.063	2.75
329.436	3.94
329.809	3.83
330.181	3.6
330.553	3.68
330.926	3.17
331.298	3.45
331.671	3.95
332.043	3
332.415	3.7
332.787	3.56
333.159	3.26
333.532	3.18
333.904	3.62
334.276	3.13
334.648	2.76
335.02	3.45
335.391	3.16
335.763	3.81
336.135	3.85
336.507	3.72
336.879	3.23
337.25	3.42
337.622	3.45
337.993	3.48
338.365	3.83
338.736	3.61
339.108	3.51
339.479	3.51
339.851	3.14
340.222	3.08
340.593	3.49
340.964	3.08
341.336	3.32
341.707	3.28
342.078	3.63
342.449	3.69
342.82	3.29
343.191	2.83
343.562	3.57
343.933	3.44
344.303	3.29
344.674	3.71
345.045	3.26
345.416	3.91
345.786	3.31
346.157	3.08
346.527	3.35
346.898	3.27
347.268	3.32
347.639	3.74
348.009	3.14
348.38	3.59
348.75	3.48
349.12	3.43
349.49	3.76
349.861	3.28
350.231	3.6
350.601	3.88
350.971	3.94
351.341	2.93
351.711	3.49
352.081	3.37
352.45	3.37
352.82	3.92
353.19	3.93
353.56	3.64
353.929	3.6
354.299	3.77
354.669	3.34
355.038	3.23
355.408	3.23
355.777	3.68
356.147	3.43
356.516	3.65
356.885	3.63
357.254	3.91
357.624	3.3
357.993	3.56
358.362	3.63
358.731	3.63
359.1	3.55
359.469	3.74
359.838	3.36
360.207	3.37
360.576	3.6
360.945	3.67
361.314	3.61
361.682	3.57
362.051	3.63
362.42	3.64
362.788	3.28
363.157	3.74
363.525	3.52
363.894	3.29
364.262	3.44
364.631	3.5
364.999	3.57
365.367	3.85
365.735	3.65
366.104	3.77
366.472	4.04
366.84	3.28
367.208	3.85
367.576	3.68
367.944	3.43
368.312	3.74
368.68	3.71
369.048	3.69
369.416	3.84
369.783	3.41
370.151	3.52
370.519	3.82
370.886	3.79
371.254	3.65
371.621	3.58
371.989	3.74
372.356	3.61
372.724	3.48
373.091	3.84
373.458	3.53
373.826	3.48
374.193	3.99
374.56	4.19
374.927	4.1
375.294	3.94
375.661	3.44
376.028	3.77
376.395	4.05
376.762	3.39
377.129	3.81
377.496	4.01
377.863	3.92
378.229	3.96
378.596	3.83
378.963	4.15
379.329	3.89
379.696	4.01
380.062	3.5
380.429	3.96
380.795	3.86
381.161	3.66
381.528	3.75
381.894	3.16
382.26	3.87
382.626	3.86
382.993	4.17
383.359	3.5
383.725	3.64
384.091	4.04
384.457	4
384.823	3.7
385.188	3.82
385.554	4.16
385.92	4.22
386.286	4.02
386.651	3.83
387.017	4.03
387.383	3.43
387.748	3.79
388.114	4.18
388.479	4.05
388.845	3.83
389.21	3.91
389.575	4.19
389.94	3.73
390.306	3.87
390.671	4.5
391.036	3.61
391.401	4.09
391.766	3.81
392.131	3.93
392.496	3.87
392.861	3.82
393.226	4.24
393.591	4.12
393.956	3.88
394.32	3.79
394.685	3.88
395.05	4.05
395.414	4.11
395.779	3.87
396.143	4.17
396.508	3.85
396.872	3.93
397.236	3.9
397.601	3.94
397.965	4.15
398.329	3.82
398.694	4.14
399.058	3.84
399.422	3.84
399.786	4.08
400.15	4.22
400.514	4.1
400.878	4.1
401.242	4.09
401.605	3.96
401.969	3.91
402.333	3.86
402.697	3.84
403.06	3.89
403.424	3.95
403.787	4.25
404.151	4.02
404.514	4.06
404.878	4.19
405.241	4.2
405.604	4.22
405.968	4.16
406.331	4.01
406.694	4.09
407.057	4.01
407.42	4.26
407.783	4.11
408.146	4.13
408.509	3.82
408.872	4.11
409.235	4.31
409.598	4.06
409.961	4.42
410.323	4.33
410.686	4.07
411.049	4.33
411.411	4.34
411.774	4.28
412.136	4.05
412.499	4.2
412.861	4.24
413.223	4.28
413.586	4.22
413.948	4.11
414.31	3.98
414.672	4.35
415.035	4.21
415.397	4.4
415.759	4.47
416.121	3.93
416.483	4.34
416.845	4.48
417.206	4.19
417.568	4.11
417.93	4.37
418.292	4.27
418.653	4.06
419.015	4.33
419.377	4.11
419.738	4.22
420.1	4.07
420.461	4.13
420.822	4.17
421.184	4.23
421.545	4.13
421.906	4.18
422.267	3.99
422.629	4.23
422.99	4.06
423.351	4.12
423.712	3.97
424.073	4.1
424.434	4.11
424.795	4.15
425.155	4.3
425.516	4.12
425.877	4.14
426.238	4.08
426.598	4.13
426.959	4.15
427.32	4.22
427.68	4.07
428.041	4.03
428.401	4.26
428.761	4.43
429.122	4.25
429.482	4.26
429.842	4.25
430.202	4.39
430.563	4.34
430.923	4.36
431.283	4.42
431.643	4.43
432.003	4.43
432.363	4.42
432.722	4.39
433.082	4.38
433.442	4.34
433.802	4.39
434.161	4.39
434.521	4.37
434.881	4.42
435.24	4.32
435.6	4.39
435.959	4.13
436.319	4.32
436.678	4.45
437.037	4.48
437.396	4.18
437.756	4.41
438.115	4.48
438.474	4.39
438.833	4.3
439.192	4.38
439.551	4.43
439.91	4.4
440.269	4.47
440.628	4.37
440.987	4.46
441.345	4.41
441.704	4.57
442.063	4.44
442.421	4.51
442.78	4.33
443.138	4.51
443.497	4.43
443.855	4.37
444.214	4.33
444.572	4.45
444.93	4.52
445.288	4.62
445.647	4.58
446.005	4.32
446.363	4.41
446.721	4.55
447.079	4.32
447.437	4.48
447.795	4.56
448.153	4.33
448.51	4.41
448.868	4.36
449.226	4.4
449.584	4.43
449.941	4.43
450.299	4.54
450.656	4.54
451.014	4.58
451.371	4.52
451.729	4.48
452.086	4.49
452.443	4.56
452.801	4.66
453.158	4.63
453.515	4.72
453.872	4.49
454.229	4.73
454.586	4.64
454.943	4.6
455.3	4.68
455.657	4.57
456.014	4.64
456.371	4.72
456.727	4.77
457.084	4.74
457.441	4.54
457.797	4.78
458.154	4.78
458.51	4.52
458.867	4.85
459.223	4.7
459.58	4.83
459.936	4.87
460.292	4.82
460.648	4.84
461.005	4.63
461.361	4.85
461.717	4.42
462.073	4.57
462.429	4.49
462.785	4.57
463.141	4.59
463.496	4.78
463.852	4.8
464.208	4.86
464.564	4.88
464.919	4.92
465.275	5
465.631	4.86
465.986	4.86
466.342	5
466.697	4.96
467.052	4.82
467.408	4.83
467.763	4.78
468.118	5.04
468.473	4.91
468.829	4.91
469.184	4.83
469.539	4.94
469.894	4.77
470.249	4.98
470.603	4.67
470.958	4.76
471.313	4.96
471.668	5.03
472.023	5.04
472.377	5.02
472.732	4.93
473.086	5.16
473.441	4.72
473.795	5.33
474.15	4.95
474.504	4.91
474.859	5.1
475.213	4.76
475.567	4.86
475.921	4.95
476.275	4.94
476.63	4.96
476.984	4.93
477.338	5
477.692	5.13
478.045	5.08
478.399	5.02
478.753	5.09
479.107	5
479.461	4.93
479.814	5.14
480.168	5.03
480.521	5.12
480.875	5.02
481.228	5.04
481.582	5.01
481.935	4.97
482.289	5.01
482.642	5
482.995	5.05
483.348	5.01
483.701	5.18
484.055	4.98
484.408	5.02
484.761	5.01
485.114	4.94
485.466	4.81
485.819	4.71
486.172	4.68
486.525	4.68
486.878	4.75
487.23	4.79
487.583	4.88
487.936	4.91
488.288	4.99
488.641	5
488.993	4.93
489.345	4.83
489.698	4.82
490.05	4.9
490.402	4.91
490.754	4.85
491.107	4.87
491.459	4.98
491.811	5.02
492.163	5.14
492.515	5.15
492.866	5.07
493.218	5.05
493.57	5.07
493.922	4.95
494.274	4.97
494.625	5.01
494.977	5.15
495.328	5.24
495.68	5.29
496.031	5.28
496.383	5.31
496.734	5.3
497.086	5.25
497.437	5.44
497.788	5.34
498.139	5.52
498.49	5.47
498.842	5.31
499.193	5.27
499.544	5.3
499.894	5.26
500.245	5.31
500.596	5.42
500.947	5.44
501.298	5.47
501.648	5.42
501.999	5.46
502.35	5.39
502.7	5.52
503.051	5.45
503.401	5.54
503.752	5.56
504.102	5.46
504.452	5.5
504.803	5.53
505.153	5.48
505.503	5.52
505.853	5.52
506.203	5.47
506.553	5.5
506.903	5.54
507.253	5.57
507.603	5.49
507.953	5.71
508.303	5.58
508.652	5.59
509.002	5.75
509.352	5.62
509.701	5.78
510.051	5.51
510.4	5.5
510.75	5.71
511.099	5.45
511.449	5.65
511.798	5.67
512.147	5.62
512.496	5.59
512.846	5.73
513.195	5.68
513.544	5.81
513.893	5.71
514.242	5.69
514.591	5.71
514.939	5.7
515.288	5.6
515.637	5.73
515.986	5.67
516.334	5.67
516.683	5.82
517.032	5.92
517.38	5.85
517.729	5.83
518.077	5.94
518.426	5.9
518.774	5.86
519.122	5.81
519.47	5.86
519.819	5.79
520.167	5.88
520.515	5.81
520.863	5.77
521.211	5.71
521.559	5.86
521.907	5.91
522.255	5.87
522.602	5.93
522.95	5.83
523.298	5.98
523.645	6.04
523.993	5.99
524.341	6.02
524.688	6.04
525.036	6.09
525.383	5.89
525.73	6.16
526.078	6.02
526.425	6.07
526.772	6.14
527.119	5.97
527.466	6.04
527.814	5.94
528.161	5.91
528.508	6
528.854	6.05
529.201	6.02
529.548	6.01
529.895	5.95
530.242	5.93
530.588	5.82
530.935	5.74
531.282	5.79
531.628	5.87
531.975	5.91
532.321	5.91
532.667	6.06
533.014	6.11
533.36	6.18
533.706	6.19
534.052	6.27
534.399	6.24
534.745	6.2
535.091	6.1
535.437	6.08
535.783	5.99
536.129	6.11
536.474	6.22
536.82	6.11
537.166	6.42
537.512	6.41
537.857	6.33
538.203	6.41
538.549	6.28
538.894	6.31
539.239	6.29
539.585	6.36
539.93	6.47
540.276	6.46
540.621	6.55
540.966	6.54
541.311	6.58
541.656	6.49
542.001	6.54
542.346	6.64
542.691	6.62
543.036	6.41
543.381	6.34
543.726	6.34
544.071	6.35
544.415	6.38
544.76	6.42
545.105	6.44
545.449	6.49
545.794	6.62
546.138	6.59
546.483	6.74
546.827	6.64
547.171	6.8
547.516	6.86
547.86	6.84
548.204	6.78
548.548	6.81
548.892	6.82
549.236	6.73
549.58	6.72
549.924	6.78
550.268	6.97
550.612	7.03
550.956	6.95
551.3	7.02
551.643	6.92
551.987	7.14
552.33	7.33
552.674	7.11
553.017	7.01
553.361	6.99
553.704	7.15
554.048	7.34
554.391	7.2
554.734	7.09
555.077	7.06
555.42	7.07
555.764	7.18
556.107	7.26
556.45	7.18
556.793	7.27
557.135	7.39
557.478	7.3
557.821	7.52
558.164	7.48
558.507	7.59
558.849	7.32
559.192	7.55
559.534	7.71
559.877	7.36
560.219	7.42
560.562	7.49
560.904	7.5
561.246	7.9
561.589	7.63
561.931	7.54
562.273	7.48
562.615	7.68
562.957	7.58
563.299	7.69
563.641	7.72
563.983	7.8
564.325	7.78
564.667	7.81
565.008	7.81
565.35	7.9
565.692	7.74
566.033	7.79
566.375	7.81
566.716	7.65
567.058	7.84
567.399	7.99
567.741	8.01
568.082	7.8
568.423	7.86
568.764	7.99
569.105	7.81
569.447	7.79
569.788	7.74
570.129	8.12
570.47	8.23
570.811	7.96
571.151	8.07
571.492	7.98
571.833	7.9
572.174	8.17
572.514	8.07
572.855	8.02
573.195	8.06
573.536	8.04
573.876	8.05
574.217	8.1
574.557	8.13
574.898	8.19
575.238	8.2
575.578	8.16
575.918	8.26
576.258	8.11
576.598	8.4
576.938	8.27
577.278	8.39
577.618	8.14
577.958	8.38
578.298	8.53
578.638	8.33
578.977	8.6
579.317	8.54
579.657	8.5
579.996	8.47
580.336	8.55
580.675	8.77
581.014	8.51
581.354	8.53
581.693	8.64
582.032	8.65
582.372	9
582.711	8.71
583.05	8.76
583.389	8.9
583.728	8.76
584.067	8.82
584.406	8.81
584.745	8.75
585.083	9.05
585.422	8.82
585.761	8.72
586.1	8.96
586.438	9.09
586.777	8.96
587.115	9.08
587.454	8.92
587.792	9.27
588.13	9.29
588.469	9.47
588.807	9.17
589.145	9.22
589.483	9.09
589.821	9.02
590.159	9.28
590.497	9.5
590.835	9.3
591.173	9.06
591.511	9.41
591.849	9.37
592.187	9.18
592.524	9.37
592.862	9.47
593.2	9.29
593.537	9.24
593.875	9.39
594.212	9.43
594.55	9.58
594.887	9.34
595.224	9.66
595.561	9.76
595.899	9.78
596.236	9.95
596.573	9.68
596.91	9.6
597.247	9.57
597.584	9.73
597.921	9.81
598.258	9.82
598.594	9.55
598.931	9.7
599.268	9.65
599.604	9.83
599.941	9.66
600.277	9.7
600.614	9.93
600.95	9.68
601.287	9.85
601.623	9.98
601.959	10.18
602.296	10.23
602.632	10.02
602.968	10.08
603.304	10.18
603.64	9.87
603.976	10.25
604.312	10.19
604.648	10.17
604.984	9.99
605.319	10
605.655	9.93
605.991	10.16
606.326	10.41
606.662	10.09
606.998	10.03
607.333	10.08
607.668	10.01
608.004	10.32
608.339	10.19
608.674	10.49
609.01	10.34
609.345	10.49
609.68	10.61
610.015	10.55
610.35	10.47
610.685	10.76
611.02	10.5
611.355	10.55
611.689	10.4
612.024	10.67
612.359	10.43
612.694	10.54
613.028	10.65
613.363	10.67
613.697	10.71
614.032	10.86
614.366	10.79
614.7	10.74
615.035	10.91
615.369	10.64
615.703	10.5
616.037	10.93
616.371	11.12
616.705	11.14
617.039	11.33
617.373	11.06
617.707	10.95
618.041	11.19
618.375	10.81
618.709	11.21
619.042	11.2
619.376	11.24
619.71	11.43
620.043	11.02
620.377	11.25
620.71	11.52
621.043	11.28
621.377	11.22
621.71	11.37
622.043	11.44
622.376	11.51
622.709	11.49
623.043	11.26
623.376	11.51
623.709	11.93
624.041	11.5
624.374	11.51
624.707	11.67
625.04	11.74
625.373	11.47
625.705	11.86
626.038	12.16
626.37	11.66
626.703	11.62
627.035	12.07
627.368	11.64
627.7	12.25
628.032	11.88
628.365	11.8
628.697	11.54
629.029	11.84
629.361	11.87
629.693	11.76
630.025	11.83
630.357	11.59
630.689	11.67
631.021	11.8
631.353	12.08
631.684	11.93
632.016	12.18
632.348	12.09
632.679	12.1
633.011	11.87
633.342	12.44
633.674	12.11
634.005	11.95
634.336	12.48
634.668	11.96
634.999	12.04
635.33	12.32
635.661	12.26
635.992	12.32
636.323	12.11
636.654	12.61
636.985	12.12
637.316	12.34
637.647	12.48
637.977	12.15
638.308	12.77
638.639	12.42
638.969	13.01
639.3	12.7
639.63	12.99
639.961	12.38
640.291	12.39
640.622	12.93
640.952	12.72
641.282	12.4
641.612	12.46
641.943	12.95
642.273	12.89
642.603	12.58
642.933	12.83
643.263	12.46
643.592	13.08
643.922	13.11
644.252	12.81
644.582	13.04
644.911	13.07
645.241	13.09
645.571	13
645.9	13.58
646.23	13.22
646.559	12.9
646.888	13.38
647.218	13.18
647.547	13.12
647.876	13.35
648.205	13.45
648.534	13.44
648.863	13.39
649.192	12.63
649.521	13.44
649.85	13.48
650.179	13.97
650.508	13.38
650.837	13.96
651.165	13.13
651.494	13.6
651.822	13.71
652.151	13.61
652.479	13.86
652.808	13.48
653.136	13.9
653.465	13.84
653.793	13.82
654.121	13.73
654.449	13.14
654.777	13.75
655.105	14.12
655.433	13.9
655.761	14.12
656.089	13.9
656.417	13.78
656.745	13.39
657.073	14
657.4	14.2
657.728	13.93
658.056	13.92
658.383	14.24
658.711	13.89
659.038	14
659.365	14.02
659.693	14.21
660.02	14.5
660.347	14.09
660.674	13.87
661.001	13.89
661.329	13.84
661.656	14.35
661.982	13.61
662.309	14.24
662.636	14.11
662.963	14.07
663.29	14.5
663.616	14.05
663.943	14.63
664.27	14.23
664.596	14.58
664.923	14.6
665.249	14.34
665.576	14.11
665.902	14.81
666.228	14.01
666.554	14.15
666.881	15.43
667.207	14.86
667.533	14.7
667.859	14.98
668.185	15.11
668.511	14.78
668.837	14.8
669.162	14.83
669.488	14.7
669.814	15.04
670.139	15.17
670.465	15.5
670.791	14.99
671.116	14.83
671.442	14.99
671.767	14.55
672.092	14.93
672.418	16
672.743	15.5
673.068	15.05
673.393	14.8
673.718	15.6
674.043	15.75
674.368	14.96
674.693	14.86
675.018	14.99
675.343	15.8
675.667	15.75
675.992	15.73
676.317	15.49
676.641	15.41
676.966	15.42
677.29	15.49
677.615	15.29
677.939	15.71
678.264	15.41
678.588	15.49
678.912	15.75
679.236	15.45
679.56	15.61
679.885	15.89
680.209	16.41
680.532	15.04
680.856	15.31
681.18	15.31
681.504	15.72
681.828	15.39
682.152	15.41
682.475	16.66
682.799	15.83
683.122	15.83
683.446	15.9
683.769	16.31
684.093	16.32
684.416	15.72
684.739	16.14
685.062	16.69
685.386	16.14
685.709	15.57
686.032	15.8
686.355	16.36
686.678	15.95
687.001	16.22
687.324	16.39
687.646	16.97
687.969	16.62
688.292	16.17
688.614	16.64
688.937	16.14
689.26	15.47
689.582	16.4
689.904	16.33
690.227	17.13
690.549	17.25
690.871	16.36
691.194	16.5
691.516	16.47
691.838	16.41
692.16	16.52
692.482	16.64
692.804	16.62
693.126	16.67
693.448	17.37
693.769	16.01
694.091	17.38
694.413	16.93
694.735	17.27
695.056	17.49
695.378	16.98
695.699	16.37
696.021	17.06
696.342	17.87
696.663	16.4
696.984	16.31
697.306	16.79
697.627	16.7
697.948	17.71
698.269	17.78
698.59	16.31
698.911	16.63
699.232	17.02
699.553	17.08
699.873	17.57
700.194	16.81
700.515	16.42
700.835	17.44
701.156	16.97
701.477	17.23
701.797	16.8
702.117	17.19
702.438	17.03
702.758	17.11
703.078	17.95
703.398	17.38
703.719	17.69
704.039	17.73
704.359	17.65
704.679	16.46
704.999	17.84
705.319	17.9
705.638	16.97
705.958	18.33
706.278	19.28
706.597	17.87
706.917	17.44
707.237	17.16
707.556	17.85
707.876	16.76
708.195	18.68
708.514	18.16
708.834	17.35
709.153	18.15
709.472	17.48
709.791	17.72
710.11	18.08
710.429	18.7
710.748	19.28
711.067	18.07
711.386	18.21
711.705	18.91
712.023	18.27
712.342	18.26
712.661	18.57
712.979	18.89
713.298	18.66
713.616	18.23
713.935	18.64
714.253	19.72
714.572	19.45
714.89	19.29
715.208	19
715.526	17.84
715.844	18.22
716.162	18.1
716.48	18.22
716.798	18.13
717.116	18.45
717.434	18.32
717.752	18.29
718.069	18.88
718.387	18.84
718.705	19.56
719.022	18.83
719.34	19.1
719.657	18.11
719.975	19.68
720.292	19.64
720.609	19.06
720.927	20.15
721.244	19.89
721.561	19.77
721.878	19.53
722.195	18.54
722.512	19.34
722.829	20.03
723.146	19.18
723.463	18.84
723.779	18.33
724.096	18.4
724.413	20.3
724.729	19.59
725.046	19.22
725.362	20.24
725.679	19.05
725.995	18.98
726.311	18.97
726.628	18.63
726.944	19.46
727.26	18.47
727.576	18.79
727.892	18.82
728.208	20.29
728.524	20.37
728.84	19.58
729.156	20.11
729.472	20.27
729.787	20.17
730.103	18.88
730.419	20.21
730.734	19.7
731.05	18.39
731.365	19.07
731.681	20.26
731.996	20.07
732.311	19.83
732.626	19.36
732.942	19.16
733.257	19.75
733.572	19.54
733.887	20.19
734.202	19.73
734.517	20.71
734.832	20.22
735.146	20.63
735.461	21.05
735.776	20.47
736.091	20.27
736.405	19.09
736.72	20.76
737.034	19.42
737.349	20.71
737.663	20.27
737.977	21.47
738.292	20.48
738.606	20.6
738.92	21.12
739.234	21
739.548	21.6
739.862	20.54
740.176	21.97
740.49	19.49
740.804	20.51
741.117	20.97
741.431	21.01
741.745	21.92
742.058	19.85
742.372	19.15
742.685	20.3
742.999	19.06
743.312	20.44
743.626	21.99
743.939	19.7
744.252	20.24
744.565	20.09
744.878	22.52
745.191	21.55
745.505	21.62
745.817	21.12
746.13	22.41
746.443	22.44
746.756	21.81
747.069	20.95
747.381	19.66
747.694	22.3
748.007	21.64
748.319	21.82
748.632	20.58
748.944	21.4
749.256	20.79
749.569	20.45
749.881	22.58
750.193	21.87
750.505	23.26
750.817	21.83
751.129	21.8
751.441	23.24
751.753	22.71
752.065	22.96
752.377	22.01
752.689	22.04
753	21.92
753.312	23.41
753.624	20.88
753.935	23.73
754.247	20.5
754.558	21.65
754.869	21.98
755.181	21.48
755.492	21.26
755.803	23.29
756.114	23.6
756.425	24.72
756.736	21.52
757.047	23.29
757.358	21.25
757.669	21.71
757.98	23.4
758.291	20.94
758.601	23.95
758.912	21.77
759.223	24.33
759.533	22.51
759.844	21.79
760.154	22.67
760.464	21.57
760.775	22.93
761.085	21.95
761.395	22.91
761.705	21.3
762.016	21.79
762.326	22.62
762.636	23.69
762.945	21.54
763.255	23.53
763.565	23.56
763.875	21.45
764.185	23.5
764.494	25.11
764.804	23.27
765.113	21.42
765.423	21.65
765.732	21.95
766.042	22.37
766.351	22.01
766.66	23.01
766.97	22.93
767.279	22.67
767.588	22.3
767.897	23.13
768.206	22.64
768.515	22.54
768.824	23.24
769.133	24.95
769.441	24.32
769.75	23.23
770.059	24.82
770.367	22
770.676	24.49
770.984	21.05
771.293	26.7
771.601	23.73
771.91	24.2
772.218	21.45
772.526	24.05
772.834	22.43
773.142	23.64
773.45	24.77
773.758	22.66
774.066	22.68
774.374	22
774.682	23.16
774.99	22.54
775.298	24.48
775.605	23.93
775.913	24.9
776.22	18.63
776.528	23.03
776.835	23.39
777.143	26.41
777.45	22.95
777.757	25.5
778.065	23.95
778.372	26.53
778.679	25.41
778.986	25.82
779.293	26.04
779.6	25.35
779.907	24.47
780.214	29.06
780.52	23.14
780.827	24.29
781.134	26.93
781.44	22.29
781.747	26.42
782.053	22.87
782.36	26.36
782.666	24.32
782.973	27.54
783.279	27.58
783.585	27.9
783.891	25.75
784.197	25.56
784.503	21.63
784.809	23.34
785.115	25.15
785.421	28.95
785.727	26.67
786.033	24.25
786.339	19.68
786.644	25.62
786.95	27.69
787.255	23.12
787.561	27.79
787.866	22.26
788.172	27.71
788.477	26.1
788.782	23.2
789.088	24.2
789.393	19.33
789.698	22.06
790.003	25.87
790.308	24.36
790.613	25.42
790.918	24.94
791.223	24.73
791.527	26.12
791.832	27.26
792.137	23.97
792.441	27.62
792.746	27.85
793.05	27.42
793.355	29.87
793.659	28.2
793.963	26.65
794.268	24.98
794.572	24.88
794.876	28.62
795.18	21.66
795.484	21.67
795.788	23.37
796.092	27.46
796.396	33.41
796.7	28.2
797.004	24.18
797.307	22.57
797.611	22.89
797.915	25.98
798.218	25.26
798.522	27.85
798.825	25.76
799.128	28.58
799.432	27.46
799.735	25.65
800.038	27.74
800.341	23.99
800.644	24.2
800.947	25.16
801.25	25.94
801.553	27.6
801.856	29.57
802.159	26.44
802.462	24.6
802.764	26.25
803.067	26.43
803.37	27.56
803.672	25.04
803.975	27.74
804.277	29.33
804.579	31.02
804.882	23.24
805.184	29.18
805.486	24.72
805.788	32.22
806.09	29.26
806.392	25.28
806.694	24.86
806.996	30.75
807.298	27.47
807.6	25.73
807.902	27.73
808.203	25.28
808.505	24.47
808.807	28.14
809.108	29.59
809.409	29.14
809.711	26.69
810.012	31.36
810.313	23.96
810.615	29.59
810.916	30.69
811.217	23.44
811.518	22.38
811.819	28.12
812.12	26.31
812.421	29.23
812.722	28.9
813.023	24.81
813.323	26.2
813.624	31.77
813.925	26.01
814.225	32.55
814.526	28.29
814.826	30.9
815.126	28.06
815.427	27.68
815.727	30.4
816.027	24.52
816.327	27.73
816.627	31.9
816.927	26.63
817.227	26.67
817.527	30.39
817.827	27.52
818.127	24.63
818.427	28.86
818.727	26.91
819.026	33.52
819.326	25.06
819.625	31.31
819.925	24.06
820.224	34.52
820.524	23.88
820.823	31.06
821.122	22.85
821.421	27.73
821.72	23.64
822.019	26.53
822.318	27.89
822.617	27.9
822.916	27.6
823.215	27.69
823.514	23.97
823.813	26.85
824.111	32.42
824.41	31.11
824.709	28.14
825.007	27.02
825.306	26.23
825.604	26.29
825.902	27.01
826.201	27.78
826.499	27.64
826.797	26.87
827.095	28.45
827.393	27.87
827.691	27.14
827.989	25.6
828.287	27.9
828.585	26.23
828.882	27.61
829.18	28.55
829.478	27.91
829.775	26.89
830.073	25.68
830.37	26.15
830.668	25.11
830.965	29.24
831.263	26.79
831.56	26.84
831.857	27.29
832.154	28.08
832.451	28.97
832.748	30.73
833.045	31.62
833.342	30.24
833.639	27.06
833.936	30.89
834.232	26.84
834.529	33.66
834.826	23.86
835.122	29.23
835.419	24.23
835.715	34.7
836.012	29.22
836.308	31.89
836.604	31.49
836.901	27.39
837.197	29.92
837.493	28.11
837.789	27.1
838.085	28.84
838.381	30.49
838.677	30.81
838.972	34.47
839.268	30.22
839.564	30.89
839.86	31.05
840.155	29.18
840.451	32.88
840.746	38.21
841.042	24.26
841.337	27.92
841.632	25.75
841.928	30.33
842.223	39.85
842.518	30.43
842.813	38.49
843.108	29.96
843.403	27.83
843.698	35.54
843.993	29.5
844.287	26.51
844.582	28.08
844.877	27.36
845.171	42.23
845.466	38.17
845.761	27.29
846.055	27.45
846.349	27.4
846.644	35.34
846.938	30.47
847.232	36.88
847.526	31.38
847.82	22.92
848.114	24.7
848.408	25.62
848.702	27.23
848.996	32.76
849.29	23.37
849.584	26.54
849.877	42.57
850.171	47.82
850.465	30.34
850.758	35.38
851.052	26.76
851.345	46.41
851.638	29.68
851.932	48.74
852.225	35.99
852.518	37.43
852.811	29.76
853.104	62.47
853.397	61.53
853.69	26.58
853.983	25.98
854.276	31.81
854.569	45.11
854.861	37.35
855.154	40.13
855.447	41.25
855.739	33.13
856.032	42.08
856.324	47.11
856.616	32.47
856.909	35.96
857.201	34.08
857.493	24.77
857.785	30.06
858.077	52.49
858.369	46.18
858.661	63.04
858.953	46.24
859.245	41.63
859.537	25.4
859.829	25.22
860.12	21.83
860.412	32.15
860.703	3.74
860.995	14.62
861.286	52.45
861.578	36.1
861.869	18.11
862.16	46.27
862.452	13.97
862.743	55.55
863.034	32.42
863.325	60.2
863.616	42.06
863.907	41.89
864.198	34.54
864.488	10.11
864.779	50.34
865.07	21.68
865.36	27.98
865.651	40.32
865.941	13.98
866.232	24.14
866.522	23.13
866.813	54.49
867.103	31.83
867.393	17.74
867.683	29.24
867.973	54.28
868.263	26.38
868.553	30.22
868.843	53.15
869.133	48.1
869.423	28.81
869.713	32.29
870.002	44.09
870.292	27.33
870.582	18.14
870.871	34.02
871.161	49.25
871.45	50.38
871.739	36.09
872.029	38.98
872.318	49.46
872.607	43.8
872.896	24.2
873.185	35.72
873.474	31.42
873.763	25.47
874.052	25.1
874.341	40.32
874.63	55.3
874.918	25.27
875.207	57.42
875.496	22.04
875.784	26.61
876.073	42.64
876.361	44.59
876.649	36.32
876.938	55.58
877.226	50.18
877.514	37.29
877.802	17.71
878.09	41.9
878.378	51.44
878.666	34.63
878.954	39.13
879.242	53.9
879.53	29.34
879.817	30.63
880.105	43.57
880.392	43.69
880.68	24.51
880.967	63.68
881.255	45.78
881.542	40.95
881.83	55.61
882.117	26.31
882.404	46.29
882.691	21.53
882.978	21.37
883.265	27.29
883.552	49.48
883.839	28.01
884.126	44.7
884.413	24.77
884.699	39.06
884.986	35.44
885.273	31.79
885.559	31.79
885.846	31.79
