Data from 0158_chest_Reflection__3__69.txt Node

Date: Fri Sep 22 20:52:36 CDT 2023
User: ToomeyLab
Spectrometer: FLMS14357
Trigger mode: 0
Integration Time (sec): 1.000000E-2
Scans to average: 100
Electric dark correction enabled: true
Nonlinearity correction enabled: false
Boxcar width: 0
XAxis mode: Wavelengths
Number of Pixels in Spectrum: 2048
>>>>>Begin Spectral Data<<<<<
189.047	113.12
189.435	113.12
189.823	113.12
190.211	-803.81
190.599	269.33
190.987	57.42
191.375	-70.37
191.763	87.26
192.151	94.24
192.538	3468.79
192.926	170.69
193.314	45.39
193.702	69.89
194.089	65.64
194.477	123.5
194.864	95.27
195.252	491.07
195.639	98.94
196.027	125.87
196.414	-165.25
196.801	-1935.84
197.189	132.53
197.576	717.41
197.963	80.33
198.351	24.11
198.738	42.32
199.125	15.42
199.512	76.48
199.899	34.37
200.286	-8.8
200.673	27.23
201.06	21.87
201.447	65.21
201.833	19.53
202.22	14.45
202.607	49.09
202.994	36.15
203.38	18.67
203.767	32.77
204.154	53.2
204.54	42.69
204.927	25.9
205.313	22.26
205.699	49.54
206.086	20.01
206.472	42.46
206.858	37.63
207.245	-14.48
207.631	32.96
208.017	24.68
208.403	53.37
208.789	59.71
209.175	31.25
209.561	25.3
209.947	42.23
210.333	46.66
210.719	29.94
211.105	32.19
211.491	29.53
211.876	53.84
212.262	20.82
212.648	20.07
213.034	10.82
213.419	18.22
213.805	10.12
214.19	15.68
214.576	25.13
214.961	28.17
215.346	-3.67
215.732	42.07
216.117	30.98
216.502	46.93
216.888	30.23
217.273	15.76
217.658	20.64
218.043	2.19
218.428	17.74
218.813	-0.99
219.198	16.8
219.583	7.31
219.968	-0.69
220.353	31.56
220.738	13.38
221.122	18.99
221.507	8.69
221.892	6.9
222.276	12.87
222.661	-11.76
223.046	27.55
223.43	27.93
223.815	11.08
224.199	2.93
224.583	8.29
224.968	19.76
225.352	8.95
225.736	12.73
226.121	13.97
226.505	9.57
226.889	6.09
227.273	1.82
227.657	6.02
228.041	5.56
228.425	8.52
228.809	6.76
229.193	8.26
229.577	6.48
229.961	5.72
230.344	5.19
230.728	2.8
231.112	4.55
231.495	3.73
231.879	4.32
232.263	3.46
232.646	4.29
233.03	3.85
233.413	5.67
233.797	3.41
234.18	3.54
234.563	6.35
234.946	4.27
235.33	1.24
235.713	2.46
236.096	4.53
236.479	5.01
236.862	5.83
237.245	5.29
237.628	4.11
238.011	4.94
238.394	5.81
238.777	6.37
239.16	4.51
239.543	6.05
239.925	5.18
240.308	5.07
240.691	5.12
241.073	5.57
241.456	4.31
241.838	3.08
242.221	4.68
242.603	3.96
242.986	5.07
243.368	3.92
243.75	4.51
244.133	4.62
244.515	3.94
244.897	3.95
245.279	3.92
245.661	3.51
246.043	3.71
246.425	3.67
246.807	5.66
247.189	3.01
247.571	3.95
247.953	4.67
248.335	4
248.717	4.01
249.098	3.63
249.48	3.66
249.862	3.61
250.243	3.65
250.625	4.05
251.006	3.78
251.388	3.93
251.769	3.77
252.151	4.48
252.532	4.51
252.913	4.92
253.295	5.13
253.676	4
254.057	4.3
254.438	4.43
254.819	3.69
255.2	3.86
255.581	4.26
255.962	4.54
256.343	4.13
256.724	3.53
257.105	3.93
257.486	4.15
257.867	4.6
258.247	4.88
258.628	4.76
259.009	3.77
259.389	4.18
259.77	4.31
260.15	4.31
260.531	3.37
260.911	3.8
261.292	3.37
261.672	3.48
262.052	3.58
262.432	3.46
262.813	3.58
263.193	3.54
263.573	4.17
263.953	3.79
264.333	3.5
264.713	4.17
265.093	3.79
265.473	3.92
265.853	3.35
266.233	3.94
266.612	3.47
266.992	4.22
267.372	3.53
267.752	4.29
268.131	3.47
268.511	3.3
268.89	3.78
269.27	3.47
269.649	3.64
270.029	3.6
270.408	3.68
270.787	3.89
271.167	4.09
271.546	3.29
271.925	3.55
272.304	3.15
272.683	3.7
273.062	3.92
273.441	3.67
273.82	3.89
274.199	3.64
274.578	3.74
274.957	3.03
275.336	3.54
275.715	3.76
276.093	3.32
276.472	3.72
276.851	3.67
277.229	3.71
277.608	3.97
277.986	3.34
278.365	3.8
278.743	3.28
279.122	3.47
279.5	3.72
279.878	3.28
280.257	3.83
280.635	3.45
281.013	3.96
281.391	3.11
281.769	3.34
282.147	3.95
282.525	3.21
282.903	3.15
283.281	3.19
283.659	3.55
284.037	3.13
284.415	3.32
284.792	3.6
285.17	3.71
285.548	3.75
285.925	3.55
286.303	3.41
286.68	3.1
287.058	3.09
287.435	3.45
287.813	3.21
288.19	3.35
288.567	3.52
288.945	3.48
289.322	3.65
289.699	3.37
290.076	3.69
290.453	2.93
290.83	2.93
291.207	3.48
291.584	3.4
291.961	3.28
292.338	3.46
292.715	3.51
293.092	3.29
293.469	4.04
293.845	3.46
294.222	3.58
294.599	4.19
294.975	3.9
295.352	3.57
295.728	3.62
296.105	4.22
296.481	3.23
296.858	3.71
297.234	4.23
297.61	3.78
297.986	3.83
298.363	3.83
298.739	3.76
299.115	3.95
299.491	3.84
299.867	3.63
300.243	3.64
300.619	3.54
300.995	3.28
301.371	3.61
301.746	4.14
302.122	3.73
302.498	3.87
302.874	3.44
303.249	3.83
303.625	3.79
304	4.21
304.376	4.29
304.751	4.07
305.127	3.64
305.502	4.26
305.878	3.61
306.253	4.11
306.628	3.52
307.003	4.4
307.378	3.63
307.754	3.62
308.129	4.17
308.504	3.88
308.879	4.01
309.254	4.61
309.629	4.27
310.003	4.55
310.378	4.23
310.753	3.9
311.128	4.05
311.502	4.11
311.877	3.73
312.252	3.89
312.626	3.93
313.001	3.89
313.375	4.06
313.75	4.33
314.124	4.39
314.498	3.83
314.873	4.22
315.247	4.17
315.621	3.9
315.995	4
316.369	4.15
316.743	3.98
317.117	4.12
317.491	4.5
317.865	4.18
318.239	4.16
318.613	4.28
318.987	3.89
319.361	3.63
319.734	4.03
320.108	4.37
320.482	4
320.855	4.32
321.229	4.75
321.602	4.46
321.976	4.59
322.349	4.12
322.723	4.48
323.096	4.16
323.469	3.79
323.843	4.37
324.216	4.77
324.589	4.23
324.962	4.35
325.335	4.18
325.708	4.22
326.081	4.49
326.454	4.06
326.827	4.45
327.2	4.57
327.573	4.2
327.945	3.99
328.318	4.67
328.691	4.85
329.063	4.4
329.436	4.41
329.809	4.7
330.181	4.31
330.553	4.57
330.926	4.36
331.298	4.46
331.671	4.81
332.043	3.63
332.415	4.45
332.787	4.85
333.159	4.06
333.532	4.24
333.904	4.44
334.276	4.11
334.648	4.46
335.02	4.58
335.391	4.63
335.763	5.17
336.135	4.64
336.507	4.66
336.879	4.64
337.25	5.06
337.622	4.78
337.993	4.8
338.365	4.56
338.736	4.63
339.108	4.66
339.479	4.96
339.851	4.53
340.222	4.54
340.593	4.5
340.964	4.68
341.336	4.67
341.707	4.31
342.078	5.08
342.449	4.54
342.82	4.61
343.191	4.09
343.562	4.9
343.933	4.57
344.303	4.5
344.674	4.71
345.045	4.64
345.416	4.79
345.786	4.38
346.157	5.23
346.527	4.63
346.898	4.46
347.268	4.39
347.639	4.77
348.009	4.5
348.38	4.57
348.75	4.9
349.12	4.73
349.49	4.99
349.861	4.92
350.231	4.79
350.601	5.25
350.971	5.05
351.341	4.28
351.711	4.27
352.081	4.76
352.45	4.76
352.82	4.64
353.19	4.82
353.56	4.55
353.929	4.49
354.299	4.66
354.669	4.52
355.038	4.66
355.408	4.74
355.777	5.05
356.147	4.72
356.516	4.62
356.885	4.43
357.254	5.06
357.624	4.38
357.993	4.62
358.362	4.59
358.731	4.78
359.1	4.49
359.469	4.76
359.838	4.38
360.207	4.28
360.576	4.9
360.945	4.64
361.314	4.95
361.682	4.49
362.051	4.86
362.42	4.58
362.788	4.6
363.157	4.8
363.525	4.81
363.894	4.46
364.262	4.73
364.631	4.55
364.999	4.59
365.367	4.76
365.735	4.88
366.104	4.68
366.472	4.94
366.84	4.55
367.208	4.96
367.576	4.74
367.944	4.88
368.312	4.7
368.68	4.75
369.048	4.87
369.416	4.65
369.783	4.42
370.151	4.76
370.519	4.57
370.886	4.85
371.254	5.22
371.621	4.74
371.989	4.88
372.356	4.75
372.724	4.95
373.091	5.08
373.458	4.78
373.826	4.85
374.193	4.91
374.56	5.02
374.927	4.91
375.294	4.57
375.661	4.95
376.028	5.21
376.395	5.06
376.762	4.94
377.129	4.73
377.496	5.11
377.863	5.13
378.229	4.87
378.596	4.87
378.963	5.08
379.329	4.98
379.696	5.22
380.062	4.84
380.429	4.82
380.795	4.84
381.161	4.62
381.528	4.6
381.894	4.38
382.26	4.88
382.626	4.9
382.993	5.16
383.359	4.69
383.725	4.82
384.091	4.81
384.457	4.9
384.823	5.17
385.188	5.09
385.554	5.15
385.92	5.16
386.286	5.3
386.651	5.09
387.017	5.05
387.383	4.98
387.748	5.03
388.114	4.82
388.479	4.87
388.845	4.89
389.21	4.7
389.575	5.3
389.94	4.69
390.306	5.26
390.671	5.3
391.036	4.76
391.401	5.1
391.766	5
392.131	4.91
392.496	4.98
392.861	4.84
393.226	5.1
393.591	5.09
393.956	5.15
394.32	4.9
394.685	4.93
395.05	5.33
395.414	5.28
395.779	5.24
396.143	5.02
396.508	5
396.872	4.95
397.236	5.26
397.601	4.99
397.965	5.28
398.329	5.15
398.694	5.03
399.058	5.19
399.422	5.22
399.786	5.23
400.15	5.19
400.514	5.02
400.878	5.09
401.242	5.15
401.605	4.81
401.969	4.92
402.333	5.27
402.697	5.14
403.06	5.02
403.424	4.93
403.787	5.24
404.151	5.1
404.514	5.1
404.878	5.36
405.241	5.35
405.604	5.28
405.968	5.34
406.331	5.21
406.694	5.26
407.057	5.02
407.42	5.25
407.783	5.2
408.146	5.17
408.509	5.04
408.872	5.14
409.235	5.17
409.598	5.13
409.961	5.32
410.323	5.18
410.686	5.3
411.049	5.34
411.411	5.38
411.774	4.9
412.136	5.3
412.499	5.1
412.861	5.28
413.223	5.35
413.586	5.27
413.948	5.18
414.31	5.26
414.672	5.43
415.035	5.21
415.397	5.52
415.759	5.7
416.121	5.32
416.483	5.23
416.845	5.11
417.206	5.18
417.568	5.29
417.93	5.32
418.292	5.32
418.653	5.2
419.015	5.24
419.377	5.1
419.738	5.32
420.1	5.19
420.461	5.33
420.822	5.28
421.184	5.26
421.545	5.26
421.906	5.23
422.267	5.11
422.629	5.3
422.99	5.19
423.351	5.19
423.712	5.09
424.073	5.12
424.434	5.24
424.795	5.3
425.155	5.31
425.516	5.28
425.877	5.44
426.238	5.19
426.598	5.25
426.959	5.2
427.32	5.3
427.68	5.22
428.041	5.32
428.401	5.56
428.761	5.37
429.122	5.4
429.482	5.45
429.842	5.35
430.202	5.29
430.563	5.42
430.923	5.62
431.283	5.68
431.643	5.5
432.003	5.38
432.363	5.6
432.722	5.44
433.082	5.49
433.442	5.49
433.802	5.67
434.161	5.48
434.521	5.48
434.881	5.66
435.24	5.48
435.6	5.54
435.959	5.32
436.319	5.46
436.678	5.65
437.037	5.59
437.396	5.52
437.756	5.58
438.115	5.51
438.474	5.66
438.833	5.5
439.192	5.53
439.551	5.61
439.91	5.54
440.269	5.57
440.628	5.54
440.987	5.66
441.345	5.65
441.704	5.59
442.063	5.66
442.421	5.56
442.78	5.54
443.138	5.62
443.497	5.54
443.855	5.6
444.214	5.5
444.572	5.57
444.93	5.65
445.288	5.58
445.647	5.73
446.005	5.58
446.363	5.54
446.721	5.8
447.079	5.53
447.437	5.64
447.795	5.58
448.153	5.51
448.51	5.66
448.868	5.58
449.226	5.59
449.584	5.55
449.941	5.55
450.299	5.72
450.656	5.72
451.014	5.83
451.371	5.77
451.729	5.81
452.086	5.71
452.443	5.86
452.801	5.77
453.158	5.75
453.515	6.02
453.872	5.81
454.229	5.74
454.586	5.85
454.943	5.74
455.3	5.85
455.657	5.86
456.014	5.86
456.371	6.06
456.727	6.09
457.084	5.93
457.441	5.77
457.797	5.95
458.154	5.92
458.51	5.79
458.867	5.81
459.223	5.91
459.58	6.05
459.936	6.11
460.292	6.01
460.648	6.1
461.005	5.94
461.361	5.94
461.717	5.84
462.073	5.9
462.429	5.7
462.785	5.77
463.141	5.82
463.496	5.93
463.852	5.95
464.208	5.88
464.564	6.05
464.919	6.09
465.275	6.03
465.631	6.28
465.986	6.1
466.342	6.04
466.697	6.12
467.052	6.09
467.408	6.19
467.763	6.1
468.118	6.17
468.473	6.06
468.829	6.15
469.184	6
469.539	6.05
469.894	6.2
470.249	6.12
470.603	6.03
470.958	6.27
471.313	6.22
471.668	6.19
472.023	6.26
472.377	6.17
472.732	6.14
473.086	6.26
473.441	6.05
473.795	6.26
474.15	6.18
474.504	6.24
474.859	6.16
475.213	6.01
475.567	6.1
475.921	6.06
476.275	6.28
476.63	6.19
476.984	6.12
477.338	6.36
477.692	6.5
478.045	6.39
478.399	6.18
478.753	6.2
479.107	6.23
479.461	6.12
479.814	6.43
480.168	6.35
480.521	6.41
480.875	6.53
481.228	6.36
481.582	6.13
481.935	6.33
482.289	6.27
482.642	6.3
482.995	6.27
483.348	6.26
483.701	6.32
484.055	6.34
484.408	6.26
484.761	6.35
485.114	6.12
485.466	6.11
485.819	5.97
486.172	5.93
486.525	5.94
486.878	5.98
487.23	6.09
487.583	6.15
487.936	6.21
488.288	6.27
488.641	6.23
488.993	6.25
489.345	6.11
489.698	6.13
490.05	6.15
490.402	6.15
490.754	6.19
491.107	6.24
491.459	6.33
491.811	6.41
492.163	6.44
492.515	6.44
492.866	6.46
493.218	6.36
493.57	6.35
493.922	6.24
494.274	6.26
494.625	6.37
494.977	6.36
495.328	6.49
495.68	6.6
496.031	6.61
496.383	6.69
496.734	6.76
497.086	6.55
497.437	6.72
497.788	6.57
498.139	6.59
498.49	6.76
498.842	6.59
499.193	6.51
499.544	6.68
499.894	6.61
500.245	6.81
500.596	6.65
500.947	6.66
501.298	6.82
501.648	6.78
501.999	6.74
502.35	6.74
502.7	6.89
503.051	6.78
503.401	6.91
503.752	6.92
504.102	6.82
504.452	6.8
504.803	6.75
505.153	6.83
505.503	6.86
505.853	6.97
506.203	6.91
506.553	6.94
506.903	6.81
507.253	6.88
507.603	6.9
507.953	6.91
508.303	6.96
508.652	6.93
509.002	7.13
509.352	7.13
509.701	6.94
510.051	6.97
510.4	6.96
510.75	7.01
511.099	6.75
511.449	6.95
511.798	7.07
512.147	6.97
512.496	6.99
512.846	7.08
513.195	7
513.544	7.12
513.893	7.03
514.242	7.01
514.591	7.1
514.939	7.02
515.288	7.03
515.637	7.06
515.986	7.09
516.334	7.22
516.683	7.11
517.032	7.28
517.38	7.16
517.729	7.27
518.077	7.3
518.426	7.17
518.774	7.2
519.122	7.21
519.47	7.24
519.819	7.25
520.167	7.33
520.515	7.14
520.863	7.12
521.211	7.16
521.559	7.24
521.907	7.22
522.255	7.29
522.602	7.25
522.95	7.27
523.298	7.38
523.645	7.44
523.993	7.45
524.341	7.36
524.688	7.37
525.036	7.43
525.383	7.49
525.73	7.5
526.078	7.46
526.425	7.47
526.772	7.51
527.119	7.37
527.466	7.35
527.814	7.38
528.161	7.34
528.508	7.38
528.854	7.36
529.201	7.43
529.548	7.47
529.895	7.35
530.242	7.34
530.588	7.21
530.935	7.13
531.282	7.19
531.628	7.32
531.975	7.31
532.321	7.4
532.667	7.46
533.014	7.5
533.36	7.58
533.706	7.57
534.052	7.7
534.399	7.66
534.745	7.63
535.091	7.5
535.437	7.38
535.783	7.38
536.129	7.53
536.474	7.64
536.82	7.63
537.166	7.83
537.512	7.79
537.857	7.85
538.203	7.81
538.549	7.72
538.894	7.73
539.239	7.79
539.585	7.78
539.93	7.84
540.276	7.77
540.621	7.93
540.966	8.01
541.311	8.03
541.656	7.92
542.001	7.98
542.346	8.04
542.691	8.05
543.036	7.96
543.381	7.71
543.726	7.78
544.071	7.73
544.415	7.82
544.76	7.81
545.105	7.9
545.449	7.91
545.794	8.08
546.138	8.05
546.483	8.17
546.827	8.03
547.171	8.2
547.516	8.26
547.86	8.19
548.204	8.31
548.548	8.23
548.892	8.33
549.236	8.19
549.58	8.19
549.924	8.3
550.268	8.48
550.612	8.41
550.956	8.32
551.3	8.51
551.643	8.45
551.987	8.46
552.33	8.68
552.674	8.63
553.017	8.67
553.361	8.52
553.704	8.48
554.048	8.59
554.391	8.63
554.734	8.68
555.077	8.58
555.42	8.68
555.764	8.62
556.107	8.74
556.45	8.67
556.793	8.71
557.135	8.78
557.478	8.54
557.821	8.68
558.164	9.12
558.507	8.98
558.849	8.76
559.192	8.78
559.534	8.83
559.877	8.95
560.219	9.06
560.562	8.99
560.904	9.01
561.246	9.14
561.589	8.98
561.931	9.1
562.273	8.85
562.615	8.86
562.957	8.94
563.299	8.93
563.641	9.15
563.983	9.22
564.325	9.08
564.667	9.16
565.008	9.17
565.35	9.18
565.692	9.18
566.033	9.2
566.375	9.22
566.716	9.34
567.058	9.15
567.399	9.24
567.741	9.4
568.082	9.27
568.423	9.13
568.764	9.43
569.105	9.13
569.447	9.24
569.788	9.14
570.129	9.37
570.47	9.58
570.811	9.46
571.151	9.29
571.492	9.47
571.833	9.38
572.174	9.36
572.514	9.41
572.855	9.64
573.195	9.56
573.536	9.45
573.876	9.41
574.217	9.46
574.557	9.51
574.898	9.52
575.238	9.67
575.578	9.76
575.918	9.61
576.258	9.48
576.598	9.77
576.938	9.79
577.278	9.83
577.618	9.66
577.958	9.83
578.298	9.73
578.638	9.68
578.977	9.91
579.317	9.95
579.657	9.91
579.996	9.87
580.336	10.03
580.675	10.12
581.014	9.85
581.354	9.85
581.693	10.02
582.032	10.04
582.372	10.04
582.711	9.99
583.05	10.1
583.389	10.01
583.728	10.32
584.067	10.32
584.406	10.16
584.745	9.97
585.083	10.48
585.422	10.13
585.761	10.28
586.1	10.64
586.438	10.25
586.777	10.18
587.115	10.37
587.454	10.02
587.792	10.48
588.13	10.47
588.469	10.29
588.807	10.51
589.145	10.7
589.483	10.6
589.821	10.41
590.159	10.49
590.497	10.74
590.835	10.65
591.173	10.52
591.511	10.63
591.849	10.66
592.187	10.57
592.524	10.62
592.862	10.68
593.2	10.63
593.537	10.66
593.875	10.57
594.212	11.02
594.55	10.91
594.887	10.54
595.224	10.81
595.561	11
595.899	10.96
596.236	11.2
596.573	11.11
596.91	11.34
597.247	10.78
597.584	11.02
597.921	11.11
598.258	11.15
598.594	11.19
598.931	11
599.268	11.09
599.604	11.24
599.941	11.1
600.277	10.97
600.614	11.04
600.95	11.12
601.287	11.16
601.623	11.24
601.959	11.45
602.296	11.17
602.632	11.24
602.968	11.36
603.304	11.45
603.64	11.41
603.976	11.27
604.312	11.38
604.648	11.56
604.984	11.49
605.319	11.42
605.655	11.46
605.991	11.46
606.326	11.65
606.662	11.4
606.998	11.33
607.333	11.64
607.668	11.56
608.004	11.84
608.339	11.47
608.674	11.7
609.01	11.33
609.345	11.84
609.68	11.94
610.015	11.78
610.35	11.91
610.685	12.09
611.02	11.76
611.355	12.09
611.689	11.76
612.024	11.81
612.359	11.82
612.694	12.13
613.028	11.77
613.363	11.76
613.697	11.83
614.032	12.08
614.366	12.01
614.7	11.93
615.035	12.32
615.369	11.99
615.703	11.96
616.037	12.2
616.371	12.36
616.705	12.46
617.039	12.13
617.373	12.41
617.707	12.18
618.041	12.27
618.375	12.23
618.709	12.28
619.042	12.57
619.376	12.81
619.71	12.8
620.043	12.14
620.377	12.03
620.71	12.26
621.043	12.56
621.377	12.41
621.71	12.73
622.043	12.5
622.376	12.69
622.709	12.43
623.043	12.7
623.376	12.73
623.709	12.66
624.041	12.42
624.374	13.11
624.707	13
625.04	12.66
625.373	12.54
625.705	12.84
626.038	12.81
626.37	13.19
626.703	13.06
627.035	12.78
627.368	13.18
627.7	13.11
628.032	13.26
628.365	13.05
628.697	13.02
629.029	13.08
629.361	12.79
629.693	13.21
630.025	13.08
630.357	12.79
630.689	13.21
631.021	12.95
631.353	13.23
631.684	13.28
632.016	13.41
632.348	13.48
632.679	13.25
633.011	13.4
633.342	13.56
633.674	13.52
634.005	13.3
634.336	13.5
634.668	13.88
634.999	13.55
635.33	13.67
635.661	13.54
635.992	13.58
636.323	13.27
636.654	13.52
636.985	13.18
637.316	13.52
637.647	13.38
637.977	13.24
638.308	13.85
638.639	13.75
638.969	13.71
639.3	13.8
639.63	13.82
639.961	13.86
640.291	13.84
640.622	14.29
640.952	13.96
641.282	14.28
641.612	13.73
641.943	14.12
642.273	13.9
642.603	13.82
642.933	13.81
643.263	13.43
643.592	14.16
643.922	14.26
644.252	14.07
644.582	14.4
644.911	14.29
645.241	14.01
645.571	14.37
645.9	14.39
646.23	14.56
646.559	14.69
646.888	14.65
647.218	14.32
647.547	14.2
647.876	14.54
648.205	14.16
648.534	14.41
648.863	14.52
649.192	14.18
649.521	14.46
649.85	14.73
650.179	14.64
650.508	14.47
650.837	14.86
651.165	14.52
651.494	14.72
651.822	14.85
652.151	14.4
652.479	14.77
652.808	14.47
653.136	15.24
653.465	14.86
653.793	14.61
654.121	15.26
654.449	14.08
654.777	14.96
655.105	15.14
655.433	15.05
655.761	15.22
656.089	14.86
656.417	15.23
656.745	14.42
657.073	15.4
657.4	15.52
657.728	15.39
658.056	15.08
658.383	15.15
658.711	14.77
659.038	14.93
659.365	15.48
659.693	14.81
660.02	15.8
660.347	14.84
660.674	15.16
661.001	15.21
661.329	14.96
661.656	15.38
661.982	15.2
662.309	15.41
662.636	15.69
662.963	15.31
663.29	15.26
663.616	15.53
663.943	15.83
664.27	15.74
664.596	15.47
664.923	15.38
665.249	15.58
665.576	15.49
665.902	15.47
666.228	15.18
666.554	15.64
666.881	16.29
667.207	15.98
667.533	15.24
667.859	15.78
668.185	15.94
668.511	16.2
668.837	15.75
669.162	16.62
669.488	15.92
669.814	15.75
670.139	16.16
670.465	16.3
670.791	15.8
671.116	16.17
671.442	16.36
671.767	15.65
672.092	16.61
672.418	16.46
672.743	16.51
673.068	16.85
673.393	16.38
673.718	16.55
674.043	16.77
674.368	16.57
674.693	16.4
675.018	16.33
675.343	16.09
675.667	16.71
675.992	16.08
676.317	16.54
676.641	16.62
676.966	17.38
677.29	15.67
677.615	16.43
677.939	16.74
678.264	17.4
678.588	17.2
678.912	16.59
679.236	16.84
679.56	16.58
679.885	17.12
680.209	17.43
680.532	16.88
680.856	16.04
681.18	16.73
681.504	16.17
681.828	17.21
682.152	16.7
682.475	17.46
682.799	17.05
683.122	16.97
683.446	16.91
683.769	16.74
684.093	17.45
684.416	17.7
684.739	17.17
685.062	17.75
685.386	17.24
685.709	17.41
686.032	17.12
686.355	17.03
686.678	17.44
687.001	17.71
687.324	18.07
687.646	17.61
687.969	17.34
688.292	17.05
688.614	17.84
688.937	17.97
689.26	17.27
689.582	17.62
689.904	17.56
690.227	17.99
690.549	17.89
690.871	17.69
691.194	17.89
691.516	17.42
691.838	17.87
692.16	17.65
692.482	17.53
692.804	17.45
693.126	17.19
693.448	18.19
693.769	17.69
694.091	17.91
694.413	17.85
694.735	17.72
695.056	17.95
695.378	18.44
695.699	17.78
696.021	17.31
696.342	18.31
696.663	17.38
696.984	18.24
697.306	18.21
697.627	17.92
697.948	18.4
698.269	18.21
698.59	18.21
698.911	18.01
699.232	18.39
699.553	18.43
699.873	18.63
700.194	17.99
700.515	18.34
700.835	18.88
701.156	18.7
701.477	18.33
701.797	18.45
702.117	18.56
702.438	18.17
702.758	18.01
703.078	18.3
703.398	19.18
703.719	18.37
704.039	19.36
704.359	18.27
704.679	17.69
704.999	18.94
705.319	19.21
705.638	19.09
705.958	20
706.278	19.15
706.597	18.75
706.917	18.83
707.237	18.46
707.556	19.04
707.876	18.33
708.195	19.28
708.514	19.17
708.834	18.52
709.153	18.94
709.472	19.79
709.791	19.12
710.11	19.72
710.429	19.93
710.748	18.82
711.067	19.38
711.386	19.14
711.705	20.04
712.023	19.25
712.342	19.38
712.661	19.86
712.979	19.08
713.298	19.62
713.616	19.36
713.935	19.99
714.253	20.72
714.572	20.68
714.89	19.92
715.208	20.33
715.526	18.26
715.844	19.87
716.162	19.31
716.48	19.34
716.798	19.17
717.116	20.78
717.434	19.72
717.752	19.78
718.069	19.59
718.387	19.4
718.705	19.07
719.022	20.15
719.34	20.63
719.657	19.37
719.975	20.57
720.292	20.44
720.609	20.74
720.927	20.68
721.244	20.07
721.561	21.07
721.878	20.4
722.195	19.73
722.512	20.98
722.829	21.09
723.146	21.58
723.463	21.5
723.779	19.79
724.096	18.98
724.413	20.68
724.729	20.58
725.046	20.76
725.362	19.93
725.679	20.39
725.995	21.4
726.311	19.69
726.628	20.11
726.944	20.67
727.26	20.77
727.576	19.66
727.892	20.38
728.208	20.61
728.524	20.45
728.84	19.66
729.156	21.15
729.472	21.88
729.787	21.42
730.103	21.12
730.419	21.57
730.734	21.17
731.05	19.13
731.365	20.49
731.681	21.48
731.996	20.74
732.311	20.9
732.626	21.49
732.942	20.28
733.257	21.28
733.572	20.41
733.887	20.95
734.202	20.71
734.517	21.61
734.832	21.77
735.146	21.67
735.461	21.97
735.776	20.77
736.091	21.7
736.405	20.58
736.72	20.93
737.034	20.06
737.349	21.51
737.663	20.98
737.977	22.28
738.292	20.69
738.606	22.83
738.92	21.77
739.234	22.4
739.548	23.16
739.862	20.66
740.176	22.47
740.49	19.85
740.804	20.29
741.117	21.1
741.431	21.37
741.745	22.66
742.058	22.89
742.372	21.15
742.685	21.56
742.999	22.13
743.312	22.66
743.626	20.92
743.939	22.18
744.252	21.83
744.565	20.74
744.878	21.7
745.191	20.72
745.505	23.09
745.817	21.81
746.13	22.26
746.443	24.25
746.756	21.54
747.069	21.77
747.381	19.88
747.694	21.01
748.007	24.27
748.319	24.26
748.632	21.75
748.944	22.69
749.256	23.32
749.569	22.65
749.881	22.9
750.193	22.46
750.505	23.76
750.817	23.4
751.129	23.22
751.441	23.67
751.753	22.83
752.065	23.88
752.377	22.45
752.689	21.65
753	20.71
753.312	24.16
753.624	22.49
753.935	23.61
754.247	22.09
754.558	24.13
754.869	22.84
755.181	23.03
755.492	22.25
755.803	26.31
756.114	23.7
756.425	24.17
756.736	21.35
757.047	22.68
757.358	21.59
757.669	21.87
757.98	22.49
758.291	22.35
758.601	22.04
758.912	21.94
759.223	24.4
759.533	22.67
759.844	25.72
760.154	24.48
760.464	22.13
760.775	23.71
761.085	25.05
761.395	25.51
761.705	23.48
762.016	22.91
762.326	23.2
762.636	24.55
762.945	22.85
763.255	22.73
763.565	23.85
763.875	23.75
764.185	25.2
764.494	23.56
764.804	22.92
765.113	22.43
765.423	23.55
765.732	23.02
766.042	24.05
766.351	23.12
766.66	22.78
766.97	23.98
767.279	23.25
767.588	22.98
767.897	23.67
768.206	24.89
768.515	24.21
768.824	23.76
769.133	23.6
769.441	23.93
769.75	26.17
770.059	26.39
770.367	23
770.676	24.45
770.984	22.55
771.293	21.44
771.601	24.5
771.91	22.23
772.218	24.65
772.526	25.48
772.834	25.18
773.142	24.92
773.45	25.43
773.758	25.43
774.066	23.9
774.374	24.35
774.682	24.23
774.99	23.68
775.298	24.06
775.605	24.05
775.913	25.29
776.22	24.94
776.528	23.62
776.835	22.08
777.143	23.24
777.45	23.67
777.757	24.94
778.065	23.98
778.372	26.55
778.679	23.21
778.986	26.3
779.293	22.08
779.6	23.98
779.907	23.26
780.214	32.77
780.52	27.12
780.827	25.44
781.134	28
781.44	24.42
781.747	25.98
782.053	24.68
782.36	22.71
782.666	25.71
782.973	24.42
783.279	24.93
783.585	25.84
783.891	21.47
784.197	27.28
784.503	26.69
784.809	22.37
785.115	25.12
785.421	26.27
785.727	29.9
786.033	27.58
786.339	23.29
786.644	25.92
786.95	25.2
787.255	26.95
787.561	28.32
787.866	25.79
788.172	26.92
788.477	28.57
788.782	27.44
789.088	23.7
789.393	25.62
789.698	27.46
790.003	26.02
790.308	24.76
790.613	25.71
790.918	25.57
791.223	22.11
791.527	23.75
791.832	28.37
792.137	28.28
792.441	28.85
792.746	25.81
793.05	26.08
793.355	26.8
793.659	27.36
793.963	29.35
794.268	27.58
794.572	26.12
794.876	22.99
795.18	23.32
795.484	26.57
795.788	26.96
796.092	25.89
796.396	25.21
796.7	27.9
797.004	24.59
797.307	25
797.611	22.53
797.915	26.2
798.218	28.26
798.522	27.05
798.825	27.19
799.128	27.08
799.432	27.74
799.735	26.2
800.038	26.69
800.341	22.92
800.644	29.84
800.947	28.47
801.25	27.52
801.553	32.86
801.856	30.11
802.159	28.04
802.462	24.78
802.764	28.21
803.067	28.82
803.37	26.86
803.672	29.36
803.975	26.14
804.277	29.89
804.579	30.7
804.882	27.88
805.184	30.95
805.486	26.02
805.788	27.18
806.09	32.44
806.392	28.13
806.694	29.74
806.996	29.09
807.298	24.41
807.6	33.95
807.902	25.96
808.203	27.91
808.505	27.7
808.807	29.71
809.108	26.58
809.409	31.5
809.711	28.28
810.012	32.21
810.313	30.14
810.615	27.47
810.916	27.13
811.217	29.49
811.518	25.93
811.819	30.2
812.12	29.82
812.421	24.72
812.722	24.95
813.023	31.22
813.323	30.66
813.624	30.57
813.925	26.79
814.225	31.03
814.526	30.19
814.826	27.21
815.126	27.03
815.427	28.01
815.727	30.34
816.027	27.44
816.327	29.31
816.627	32.99
816.927	33.31
817.227	32.07
817.527	25.64
817.827	21.95
818.127	22.36
818.427	26.3
818.727	25.2
819.026	30.61
819.326	28.77
819.625	27.66
819.925	30.08
820.224	28.87
820.524	28.56
820.823	26.57
821.122	17.99
821.421	30.44
821.72	33.55
822.019	32.7
822.318	30.95
822.617	28.57
822.916	32.11
823.215	27.92
823.514	26.63
823.813	28
824.111	32.47
824.41	28.87
824.709	28.18
825.007	27.75
825.306	27.57
825.604	26.93
825.902	27.53
826.201	27.91
826.499	27.51
826.797	26.98
827.095	28.82
827.393	27.85
827.691	27.61
827.989	27.07
828.287	27.06
828.585	27.11
828.882	29.49
829.18	29.9
829.478	29.48
829.775	26.57
830.073	27.9
830.37	27.26
830.668	28.36
830.965	28.06
831.263	26.86
831.56	27.19
831.857	27.86
832.154	28.75
832.451	28.48
832.748	28.5
833.045	30.39
833.342	30.53
833.639	29.63
833.936	30.15
834.232	34.08
834.529	36.96
834.826	28.18
835.122	26.22
835.419	29.01
835.715	35.95
836.012	32.42
836.308	33.14
836.604	33.99
836.901	27.54
837.197	28.79
837.493	29.25
837.789	30.02
838.085	24.44
838.381	28.14
838.677	26.39
838.972	30.27
839.268	31.03
839.564	30.59
839.86	31.85
840.155	26.78
840.451	28.12
840.746	34.63
841.042	34.96
841.337	29.03
841.632	31.77
841.928	30.66
842.223	35.81
842.518	30.72
842.813	30.32
843.108	32.75
843.403	30.67
843.698	27.24
843.993	28.45
844.287	29.55
844.582	29.38
844.877	18.49
845.171	39.54
845.466	27.28
845.761	31.3
846.055	34.82
846.349	22.92
846.644	28.58
846.938	39.1
847.232	35.12
847.526	50.19
847.82	24.68
848.114	23.89
848.408	26.58
848.702	36.45
848.996	49.06
849.29	27.52
849.584	35.75
849.877	48.42
850.171	37.69
850.465	31.56
850.758	41.29
851.052	35.77
851.345	36.89
851.638	30.22
851.932	49.31
852.225	41.39
852.518	38.64
852.811	37.59
853.104	55.39
853.397	40.88
853.69	29.48
853.983	44.68
854.276	29.35
854.569	27.68
854.861	22.31
855.154	32.1
855.447	29.15
855.739	35.08
856.032	41.93
856.324	33.84
856.616	42.53
856.909	25.77
857.201	38.04
857.493	23.51
857.785	54.97
858.077	39.81
858.369	38.34
858.661	40.54
858.953	35.42
859.245	48.04
859.537	49.63
859.829	43.44
860.12	50.86
860.412	30.27
860.703	27.82
860.995	32.62
861.286	49.34
861.578	44.76
861.869	16.91
862.16	31.59
862.452	2.51
862.743	70.88
863.034	47.9
863.325	64.11
863.616	21.07
863.907	48.17
864.198	18.11
864.488	39.86
864.779	25.08
865.07	28.41
865.36	18.57
865.651	43.95
865.941	34.5
866.232	37.7
866.522	30.06
866.813	49.91
867.103	48.42
867.393	31.97
867.683	17.91
867.973	53.02
868.263	30.21
868.553	23.79
868.843	46.91
869.133	39.23
869.423	32.14
869.713	40.5
870.002	42.41
870.292	28.27
870.582	52.88
870.871	30.03
871.161	36.86
871.45	48.13
871.739	48.7
872.029	42.57
872.318	56.7
872.607	36.47
872.896	28.03
873.185	42.29
873.474	52.61
873.763	40.17
874.052	20.94
874.341	43.02
874.63	32.27
874.918	4.8
875.207	53.16
875.496	36.57
875.784	24.27
876.073	43.04
876.361	22.7
876.649	45.15
876.938	54.86
877.226	31.81
877.514	20.75
877.802	45.22
878.09	35.16
878.378	36.36
878.666	67.35
878.954	51.43
879.242	35.76
879.53	27.81
879.817	41.77
880.105	8.46
880.392	34.24
880.68	20.42
880.967	56.88
881.255	54.72
881.542	40.43
881.83	37.17
882.117	11.33
882.404	38.65
882.691	11.48
882.978	19.79
883.265	34.82
883.552	40.58
883.839	33.99
884.126	41.14
884.413	30.54
884.699	34.83
884.986	37.45
885.273	33.36
885.559	33.36
885.846	33.36
