Data from 0158_forehead_Reflection__4__80.txt Node

Date: Fri Sep 22 20:55:33 CDT 2023
User: ToomeyLab
Spectrometer: FLMS14357
Trigger mode: 0
Integration Time (sec): 1.000000E-2
Scans to average: 100
Electric dark correction enabled: true
Nonlinearity correction enabled: false
Boxcar width: 0
XAxis mode: Wavelengths
Number of Pixels in Spectrum: 2048
>>>>>Begin Spectral Data<<<<<
189.047	83.12
189.435	83.12
189.823	83.12
190.211	27.45
190.599	-78.09
190.987	82.5
191.375	-1164.55
191.763	39.74
192.151	193.27
192.538	-1118.44
192.926	153.03
193.314	102.17
193.702	349.47
194.089	17.29
194.477	-148.14
194.864	-52.33
195.252	-40.04
195.639	-10.41
196.027	176.87
196.414	-31.92
196.801	-1253.76
197.189	-41.33
197.576	741.54
197.963	106.44
198.351	14.01
198.738	65.71
199.125	63.66
199.512	154.52
199.899	41.01
200.286	31.2
200.673	33.35
201.06	22.85
201.447	54.43
201.833	14.71
202.22	48.49
202.607	77.4
202.994	58.98
203.38	35.3
203.767	40.78
204.154	57.83
204.54	75.54
204.927	44.32
205.313	22.28
205.699	65.96
206.086	64.5
206.472	36.58
206.858	34.38
207.245	37.96
207.631	22.09
208.017	33.99
208.403	28.37
208.789	35.85
209.175	24.79
209.561	60.96
209.947	54.69
210.333	30.54
210.719	20.69
211.105	58.51
211.491	32.03
211.876	49.01
212.262	48.42
212.648	66.91
213.034	56.23
213.419	19.49
213.805	25.82
214.19	33.04
214.576	45.58
214.961	24.59
215.346	40.65
215.732	38.21
216.117	37.88
216.502	48.14
216.888	43.27
217.273	44.92
217.658	32.07
218.043	9.81
218.428	33.1
218.813	12.97
219.198	32.4
219.583	17.55
219.968	19.14
220.353	49.57
220.738	6.95
221.122	24.52
221.507	4.96
221.892	15.64
222.276	16.53
222.661	5.54
223.046	22.81
223.43	24.21
223.815	10.16
224.199	8.79
224.583	15.12
224.968	22.59
225.352	10.28
225.736	18.82
226.121	12.5
226.505	17.52
226.889	13.83
227.273	7.39
227.657	9.84
228.041	8.44
228.425	14.7
228.809	7.03
229.193	4.61
229.577	4.09
229.961	5.43
230.344	5.47
230.728	2.71
231.112	3.26
231.495	2.61
231.879	2.9
232.263	2.82
232.646	3.55
233.03	2.64
233.413	3.52
233.797	3.31
234.18	3.77
234.563	5.87
234.946	3.27
235.33	1.64
235.713	4.64
236.096	4.69
236.479	2.9
236.862	4.88
237.245	4.37
237.628	5.32
238.011	3.37
238.394	3.11
238.777	3.97
239.16	4.14
239.543	4.37
239.925	4.05
240.308	5.78
240.691	2.29
241.073	4.97
241.456	4.23
241.838	3.27
242.221	3.36
242.603	4
242.986	3.12
243.368	2.94
243.75	3.56
244.133	3.67
244.515	2.82
244.897	2.73
245.279	2.74
245.661	3.11
246.043	3.09
246.425	3.01
246.807	2.65
247.189	1.79
247.571	3.77
247.953	4.37
248.335	2.75
248.717	3.05
249.098	2.54
249.48	2.62
249.862	2.48
250.243	2.86
250.625	3.13
251.006	2.6
251.388	3.31
251.769	3.79
252.151	3.15
252.532	3.99
252.913	3.72
253.295	4.46
253.676	2.96
254.057	3.46
254.438	3.71
254.819	2.52
255.2	3.03
255.581	3.62
255.962	4.89
256.343	3.71
256.724	2.96
257.105	4.06
257.486	4.06
257.867	4.01
258.247	3.02
258.628	4.46
259.009	4.06
259.389	3.12
259.77	3.19
260.15	3.41
260.531	3.01
260.911	3.08
261.292	2.92
261.672	2.54
262.052	2.96
262.432	2.95
262.813	2.98
263.193	2.64
263.573	3.86
263.953	2.85
264.333	2.47
264.713	3.02
265.093	3.19
265.473	2.97
265.853	2.75
266.233	4.12
266.612	3.35
266.992	2.96
267.372	3.06
267.752	3.43
268.131	3.51
268.511	2.46
268.89	3.24
269.27	3.39
269.649	3.05
270.029	2.72
270.408	3.25
270.787	2.97
271.167	3.2
271.546	3.28
271.925	3.4
272.304	2.75
272.683	3.49
273.062	3.56
273.441	3.15
273.82	3.1
274.199	2.93
274.578	3.2
274.957	3.01
275.336	2.68
275.715	2.58
276.093	2.52
276.472	3.05
276.851	2.92
277.229	2.08
277.608	3.02
277.986	2.77
278.365	3.24
278.743	2.26
279.122	2.72
279.5	3.67
279.878	3.1
280.257	3.51
280.635	3.08
281.013	3.51
281.391	2.53
281.769	2.72
282.147	3.5
282.525	2.85
282.903	3.39
283.281	3.2
283.659	2.63
284.037	2.89
284.415	3.02
284.792	2.5
285.17	2.82
285.548	3.71
285.925	3.12
286.303	3.26
286.68	2.61
287.058	2.84
287.435	3.14
287.813	2.76
288.19	2.51
288.567	2.98
288.945	2.85
289.322	2.92
289.699	2.92
290.076	3.1
290.453	2.64
290.83	2.76
291.207	2.94
291.584	3
291.961	2.68
292.338	3.36
292.715	3.18
293.092	2.84
293.469	2.87
293.845	2.93
294.222	3.05
294.599	3.23
294.975	3.38
295.352	3.36
295.728	3.23
296.105	3.49
296.481	3.76
296.858	3.37
297.234	3.07
297.61	3.23
297.986	3.2
298.363	3.06
298.739	3.35
299.115	3.56
299.491	3.31
299.867	3.33
300.243	3.18
300.619	3.33
300.995	3.49
301.371	3.4
301.746	3.82
302.122	3.79
302.498	2.93
302.874	3.57
303.249	4.05
303.625	3.31
304	3.96
304.376	4.25
304.751	3.95
305.127	3.84
305.502	3.95
305.878	3.74
306.253	3.97
306.628	4.23
307.003	4.53
307.378	3.87
307.754	4.48
308.129	3.87
308.504	3.74
308.879	4.13
309.254	3.88
309.629	3.94
310.003	4.77
310.378	4.33
310.753	4.18
311.128	4.32
311.502	4.42
311.877	3.78
312.252	4.14
312.626	4.12
313.001	4.7
313.375	4.75
313.75	4.58
314.124	4.71
314.498	4.25
314.873	4.84
315.247	4.98
315.621	5.09
315.995	4.89
316.369	5.11
316.743	5.01
317.117	4.95
317.491	5.47
317.865	4.72
318.239	5
318.613	5.87
318.987	5.54
319.361	5.35
319.734	5.2
320.108	5.79
320.482	5.5
320.855	5.55
321.229	6.39
321.602	5.66
321.976	5.42
322.349	5.72
322.723	5.65
323.096	5.58
323.469	6.3
323.843	6.05
324.216	6.19
324.589	5.83
324.962	5.59
325.335	6.18
325.708	6.1
326.081	6.26
326.454	6.27
326.827	5.87
327.2	6.24
327.573	6.54
327.945	6.35
328.318	6.02
328.691	6.41
329.063	5.69
329.436	6.1
329.809	6.72
330.181	6.47
330.553	6.13
330.926	6.47
331.298	7
331.671	6.42
332.043	6.17
332.415	6.39
332.787	6.89
333.159	6.39
333.532	6.84
333.904	6.89
334.276	6.3
334.648	6.61
335.02	6.41
335.391	6.9
335.763	7.26
336.135	7.19
336.507	7.15
336.879	7.27
337.25	7.21
337.622	7.84
337.993	7.02
338.365	7.01
338.736	7.29
339.108	7.22
339.479	7.64
339.851	6.87
340.222	7.87
340.593	7.39
340.964	7.22
341.336	7.64
341.707	7.51
342.078	7.52
342.449	7.92
342.82	7.59
343.191	7.66
343.562	7.72
343.933	7.46
344.303	7.72
344.674	8.11
345.045	7.73
345.416	8.33
345.786	7.7
346.157	8.29
346.527	7.72
346.898	8.02
347.268	8.17
347.639	7.84
348.009	7.73
348.38	8.01
348.75	8.38
349.12	8.3
349.49	8.46
349.861	8.5
350.231	8.54
350.601	8.63
350.971	9.08
351.341	8.43
351.711	8.4
352.081	8.57
352.45	8.51
352.82	8.61
353.19	8.74
353.56	8.21
353.929	8.65
354.299	8.96
354.669	9.14
355.038	8.57
355.408	8.91
355.777	9.09
356.147	9.05
356.516	9.13
356.885	9.09
357.254	9.27
357.624	8.82
357.993	9.1
358.362	9.26
358.731	8.86
359.1	9.34
359.469	9.45
359.838	9.17
360.207	9.5
360.576	9.48
360.945	9.77
361.314	9.67
361.682	9.55
362.051	9.74
362.42	9.43
362.788	9.52
363.157	9.77
363.525	9.67
363.894	9.57
364.262	9.66
364.631	9.54
364.999	9.91
365.367	10.34
365.735	10.01
366.104	9.85
366.472	10.24
366.84	9.96
367.208	10.66
367.576	10.32
367.944	10.3
368.312	10.44
368.68	10.36
369.048	10.55
369.416	10.38
369.783	10.38
370.151	10.28
370.519	10.73
370.886	10.65
371.254	10.67
371.621	10.95
371.989	10.74
372.356	10.59
372.724	11.24
373.091	11.15
373.458	10.9
373.826	11.07
374.193	11.3
374.56	11.41
374.927	11.21
375.294	11.28
375.661	10.97
376.028	11.54
376.395	11.52
376.762	11.58
377.129	11.92
377.496	11.7
377.863	11.56
378.229	11.53
378.596	11.47
378.963	11.81
379.329	11.71
379.696	11.99
380.062	11.47
380.429	12.02
380.795	11.85
381.161	12.08
381.528	11.89
381.894	12.07
382.26	12.14
382.626	12.03
382.993	12.6
383.359	12.03
383.725	12.22
384.091	12.42
384.457	12.39
384.823	12.97
385.188	12.3
385.554	12.71
385.92	13.1
386.286	12.7
386.651	12.62
387.017	12.77
387.383	12.78
387.748	12.76
388.114	12.91
388.479	13.03
388.845	12.74
389.21	12.99
389.575	13.41
389.94	13.08
390.306	13.28
390.671	13.56
391.036	12.88
391.401	13.19
391.766	13.66
392.131	13.31
392.496	13.42
392.861	13.48
393.226	13.66
393.591	14.1
393.956	13.6
394.32	13.68
394.685	13.56
395.05	14.01
395.414	14.01
395.779	14.22
396.143	13.8
396.508	14.04
396.872	14.19
397.236	14.15
397.601	14.2
397.965	14.62
398.329	14.44
398.694	14.51
399.058	14.69
399.422	14.61
399.786	14.42
400.15	14.62
400.514	14.79
400.878	14.51
401.242	14.82
401.605	14.76
401.969	14.7
402.333	14.99
402.697	14.68
403.06	14.96
403.424	15.23
403.787	15.38
404.151	15.27
404.514	15.43
404.878	15.5
405.241	15.54
405.604	15.37
405.968	15.53
406.331	15.33
406.694	15.6
407.057	15.35
407.42	15.65
407.783	15.6
408.146	15.81
408.509	15.81
408.872	15.73
409.235	15.79
409.598	15.89
409.961	16.24
410.323	16.18
410.686	16.25
411.049	16.46
411.411	16.4
411.774	16.25
412.136	16.33
412.499	16.11
412.861	16.51
413.223	16.56
413.586	16.48
413.948	16.62
414.31	16.74
414.672	16.93
415.035	16.59
415.397	17.04
415.759	17.35
416.121	16.7
416.483	16.92
416.845	16.79
417.206	16.96
417.568	17.06
417.93	17.11
418.292	17.05
418.653	17.12
419.015	17.14
419.377	17
419.738	17.22
420.1	17
420.461	17.21
420.822	17.12
421.184	17.3
421.545	17.25
421.906	17.32
422.267	17.24
422.629	17.35
422.99	17.39
423.351	17.37
423.712	17.33
424.073	17.49
424.434	17.54
424.795	17.73
425.155	17.92
425.516	17.87
425.877	17.66
426.238	17.61
426.598	17.73
426.959	17.82
427.32	17.95
427.68	18.01
428.041	18.12
428.401	18.37
428.761	18.41
429.122	18.51
429.482	18.63
429.842	18.73
430.202	18.93
430.563	18.97
430.923	19.22
431.283	19.04
431.643	19.26
432.003	19.29
432.363	19.29
432.722	19.35
433.082	19.55
433.442	19.32
433.802	19.71
434.161	19.56
434.521	19.65
434.881	19.58
435.24	19.42
435.6	19.34
435.959	19.33
436.319	19.69
436.678	19.7
437.037	19.75
437.396	19.9
437.756	20.07
438.115	20.18
438.474	19.99
438.833	20.22
439.192	20.24
439.551	20.22
439.91	20.39
440.269	20.41
440.628	20.19
440.987	20.41
441.345	20.43
441.704	20.45
442.063	20.23
442.421	20.43
442.78	20.33
443.138	20.45
443.497	20.53
443.855	20.5
444.214	20.63
444.572	20.94
444.93	20.91
445.288	21.11
445.647	21.11
446.005	21.1
446.363	21
446.721	21.23
447.079	21.01
447.437	21.14
447.795	21.32
448.153	21.05
448.51	21.04
448.868	21.08
449.226	21.05
449.584	21.2
449.941	21.19
450.299	21.46
450.656	21.69
451.014	21.92
451.371	21.72
451.729	21.85
452.086	21.89
452.443	22.19
452.801	22.28
453.158	22.26
453.515	22.28
453.872	22.28
454.229	22.52
454.586	22.5
454.943	22.46
455.3	22.51
455.657	22.48
456.014	22.57
456.371	22.86
456.727	23.14
457.084	22.66
457.441	22.72
457.797	23.05
458.154	23.13
458.51	23.28
458.867	23.31
459.223	23.27
459.58	23.28
459.936	23.32
460.292	23.33
460.648	23.34
461.005	23.31
461.361	23.27
461.717	22.97
462.073	23.05
462.429	22.95
462.785	23.14
463.141	23.38
463.496	23.67
463.852	23.74
464.208	23.78
464.564	24.13
464.919	24.03
465.275	24.53
465.631	24.41
465.986	24.61
466.342	24.39
466.697	24.36
467.052	24.54
467.408	24.28
467.763	24.57
468.118	24.56
468.473	24.66
468.829	24.7
469.184	24.75
469.539	24.95
469.894	24.73
470.249	24.89
470.603	24.87
470.958	25
471.313	25
471.668	25.16
472.023	25.34
472.377	25.24
472.732	25.39
473.086	25.48
473.441	25.24
473.795	25.86
474.15	25.54
474.504	25.72
474.859	25.86
475.213	25.58
475.567	25.7
475.921	25.95
476.275	25.99
476.63	26.06
476.984	25.82
477.338	26.29
477.692	26.03
478.045	26.23
478.399	26.36
478.753	26.18
479.107	26.29
479.461	26.25
479.814	26.43
480.168	26.63
480.521	26.55
480.875	26.46
481.228	26.33
481.582	26.65
481.935	26.6
482.289	26.67
482.642	26.63
482.995	26.73
483.348	26.76
483.701	26.72
484.055	26.47
484.408	26.51
484.761	26.47
485.114	26.18
485.466	25.95
485.819	25.54
486.172	25.47
486.525	25.6
486.878	25.75
487.23	26.09
487.583	26.27
487.936	26.45
488.288	26.62
488.641	26.64
488.993	26.47
489.345	26.33
489.698	26.27
490.05	26.33
490.402	26.41
490.754	26.58
491.107	26.79
491.459	27.09
491.811	27.17
492.163	27.48
492.515	27.64
492.866	27.51
493.218	27.46
493.57	27.15
493.922	26.92
494.274	26.99
494.625	27.37
494.977	27.55
495.328	27.88
495.68	28.24
496.031	28.5
496.383	28.76
496.734	28.89
497.086	28.71
497.437	28.91
497.788	28.8
498.139	28.91
498.49	28.96
498.842	28.82
499.193	28.57
499.544	28.85
499.894	28.79
500.245	29
500.596	29.09
500.947	29.25
501.298	29.25
501.648	29.37
501.999	29.5
502.35	29.46
502.7	29.61
503.051	29.71
503.401	29.86
503.752	29.93
504.102	30.01
504.452	30.14
504.803	29.98
505.153	30.05
505.503	30.23
505.853	30.42
506.203	30.12
506.553	30.17
506.903	30.11
507.253	30.44
507.603	30.39
507.953	30.5
508.303	30.57
508.652	30.43
509.002	30.74
509.352	30.74
509.701	30.98
510.051	30.65
510.4	30.62
510.75	30.44
511.099	30.41
511.449	30.54
511.798	30.69
512.147	30.8
512.496	30.8
512.846	30.73
513.195	30.81
513.544	31.14
513.893	31.06
514.242	31.08
514.591	31.1
514.939	31.23
515.288	31.24
515.637	31.31
515.986	31.41
516.334	31.45
516.683	31.76
517.032	31.84
517.38	31.76
517.729	31.63
518.077	31.87
518.426	32.1
518.774	31.78
519.122	32.16
519.47	31.92
519.819	31.73
520.167	31.78
520.515	31.67
520.863	31.57
521.211	31.46
521.559	31.67
521.907	31.7
522.255	31.85
522.602	32.02
522.95	32.3
523.298	32.34
523.645	32.69
523.993	32.62
524.341	32.36
524.688	32.66
525.036	32.8
525.383	32.88
525.73	32.83
526.078	32.71
526.425	32.9
526.772	32.99
527.119	32.69
527.466	32.46
527.814	32.36
528.161	32.29
528.508	32.39
528.854	32.56
529.201	32.49
529.548	32.65
529.895	32.46
530.242	32.39
530.588	31.89
530.935	31.78
531.282	31.92
531.628	32.13
531.975	32.25
532.321	32.46
532.667	32.74
533.014	32.96
533.36	33.03
533.706	33.34
534.052	33.33
534.399	33.23
534.745	33.23
535.091	33.02
535.437	32.86
535.783	32.76
536.129	33.07
536.474	33.22
536.82	33.47
537.166	33.62
537.512	33.85
537.857	34.03
538.203	34.01
538.549	33.72
538.894	33.69
539.239	33.8
539.585	33.88
539.93	34
540.276	34.23
540.621	34.55
540.966	34.66
541.311	34.8
541.656	34.94
542.001	34.91
542.346	34.79
542.691	34.74
543.036	34.28
543.381	33.89
543.726	33.7
544.071	33.8
544.415	34.02
544.76	34.24
545.105	34.29
545.449	34.55
545.794	34.59
546.138	34.76
546.483	35.13
546.827	35.15
547.171	35.32
547.516	35.49
547.86	35.39
548.204	35.51
548.548	35.48
548.892	35.43
549.236	35.41
549.58	35.47
549.924	35.87
550.268	36.04
550.612	35.94
550.956	36.23
551.3	36.6
551.643	36.53
551.987	36.56
552.33	36.97
552.674	36.89
553.017	37.05
553.361	36.85
553.704	36.91
554.048	36.97
554.391	36.98
554.734	36.98
555.077	36.84
555.42	36.77
555.764	36.89
556.107	37.09
556.45	37.04
556.793	37.3
557.135	37.18
557.478	37.32
557.821	37.42
558.164	37.65
558.507	37.61
558.849	37.57
559.192	37.71
559.534	37.95
559.877	37.57
560.219	37.65
560.562	37.85
560.904	37.9
561.246	37.99
561.589	37.9
561.931	37.83
562.273	37.77
562.615	37.85
562.957	38.25
563.299	38.29
563.641	38.24
563.983	38.29
564.325	38.47
564.667	38.25
565.008	38.38
565.35	38.47
565.692	38.44
566.033	38.52
566.375	38.4
566.716	38.44
567.058	38.8
567.399	38.3
567.741	38.55
568.082	38.39
568.423	38.32
568.764	38.42
569.105	38.24
569.447	38.52
569.788	38.57
570.129	38.8
570.47	39.09
570.811	39
571.151	38.86
571.492	38.9
571.833	39.16
572.174	38.9
572.514	38.8
572.855	39.19
573.195	38.95
573.536	39.05
573.876	39.07
574.217	38.99
574.557	39.07
574.898	38.96
575.238	39.26
575.578	39.51
575.918	39.44
576.258	39.37
576.598	39.58
576.938	39.3
577.278	39.47
577.618	39.54
577.958	39.48
578.298	39.83
578.638	39.81
578.977	39.78
579.317	40.11
579.657	39.87
579.996	40.15
580.336	40.17
580.675	40.38
581.014	40.05
581.354	40.16
581.693	40.48
582.032	40.6
582.372	40.7
582.711	40.71
583.05	40.76
583.389	40.54
583.728	40.97
584.067	40.58
584.406	41.05
584.745	41.01
585.083	41.05
585.422	40.72
585.761	41.19
586.1	41.17
586.438	41.21
586.777	40.98
587.115	41.51
587.454	41.3
587.792	41.55
588.13	40.91
588.469	41.5
588.807	41.21
589.145	41.55
589.483	41.54
589.821	41.56
590.159	41.54
590.497	41.61
590.835	41.66
591.173	41.42
591.511	41.69
591.849	41.67
592.187	41.79
592.524	41.62
592.862	41.61
593.2	41.77
593.537	41.85
593.875	42.13
594.212	42.06
594.55	42.11
594.887	42.36
595.224	42.43
595.561	42.49
595.899	42.26
596.236	42.01
596.573	42.62
596.91	42.06
597.247	41.83
597.584	42.26
597.921	42.08
598.258	42.11
598.594	42.07
598.931	42.05
599.268	41.93
599.604	41.96
599.941	42.02
600.277	41.99
600.614	42.42
600.95	42.66
601.287	42.45
601.623	42.65
601.959	42.85
602.296	42.7
602.632	42.61
602.968	42.79
603.304	42.67
603.64	43.05
603.976	43.13
604.312	43.03
604.648	43.31
604.984	42.9
605.319	42.85
605.655	42.8
605.991	42.75
606.326	43
606.662	42.78
606.998	42.63
607.333	42.68
607.668	42.48
608.004	42.99
608.339	42.82
608.674	43.44
609.01	43.2
609.345	43.71
609.68	43.54
610.015	43.86
610.35	43.51
610.685	43.5
611.02	43.24
611.355	43.96
611.689	43.2
612.024	43.52
612.359	43.51
612.694	43.63
613.028	43.82
613.363	43.76
613.697	43.6
614.032	44.07
614.366	44.01
614.7	43.84
615.035	44.12
615.369	44.46
615.703	44.21
616.037	44.26
616.371	44.44
616.705	44.48
617.039	44.43
617.373	44.83
617.707	45.06
618.041	44.73
618.375	44.38
618.709	44.61
619.042	44.57
619.376	44.75
619.71	44.7
620.043	44.68
620.377	44.85
620.71	44.89
621.043	45.1
621.377	45.31
621.71	45
622.043	45.17
622.376	45.2
622.709	44.96
623.043	44.87
623.376	44.51
623.709	45.14
624.041	45.37
624.374	44.85
624.707	45.5
625.04	45.55
625.373	45.51
625.705	45.76
626.038	45.91
626.37	46.05
626.703	45.88
627.035	45.98
627.368	45.39
627.7	45.55
628.032	45.42
628.365	45.79
628.697	45.59
629.029	45.67
629.361	45.62
629.693	45.67
630.025	45.44
630.357	45.67
630.689	45.7
631.021	46.25
631.353	45.77
631.684	46.08
632.016	46.12
632.348	46.19
632.679	45.79
633.011	45.95
633.342	46.24
633.674	46.8
634.005	45.85
634.336	46.5
634.668	46.11
634.999	46.15
635.33	46.64
635.661	46.53
635.992	46.21
636.323	46.16
636.654	46.66
636.985	45.92
637.316	46.42
637.647	46.3
637.977	45.99
638.308	46.73
638.639	46.64
638.969	46.73
639.3	46.8
639.63	46.84
639.961	46.88
640.291	47.21
640.622	47.2
640.952	47.1
641.282	46.72
641.612	47.03
641.943	47.2
642.273	47.4
642.603	47.03
642.933	46.87
643.263	46.63
643.592	47.79
643.922	47.24
644.252	47.12
644.582	47.57
644.911	47.66
645.241	47.41
645.571	47.07
645.9	47.21
646.23	47.36
646.559	47.24
646.888	47.62
647.218	47.77
647.547	47.42
647.876	47.57
648.205	47.36
648.534	47.84
648.863	47.7
649.192	47.17
649.521	47.76
649.85	47.66
650.179	48
650.508	47.93
650.837	47.8
651.165	47.58
651.494	47.12
651.822	47.76
652.151	47.67
652.479	48.01
652.808	47.93
653.136	47.87
653.465	47.94
653.793	48.27
654.121	48.41
654.449	48.46
654.777	48.28
655.105	47.95
655.433	47.93
655.761	48.37
656.089	47.88
656.417	48.52
656.745	47.85
657.073	48.55
657.4	48.3
657.728	48.79
658.056	48.21
658.383	48.74
658.711	48.53
659.038	48.55
659.365	48.39
659.693	48.23
660.02	48.69
660.347	48.39
660.674	48.56
661.001	47.82
661.329	47.98
661.656	48.44
661.982	48.05
662.309	48.67
662.636	48.79
662.963	48.54
663.29	49.22
663.616	49.41
663.943	49.1
664.27	48.65
664.596	49.37
664.923	48.66
665.249	49.27
665.576	48.78
665.902	48.92
666.228	48.82
666.554	49.25
666.881	49.26
667.207	49.38
667.533	49.19
667.859	49.62
668.185	49.48
668.511	49.07
668.837	49.57
669.162	49.38
669.488	49.69
669.814	48.82
670.139	49.71
670.465	49.59
670.791	49.61
671.116	49.54
671.442	49.84
671.767	49.1
672.092	49.45
672.418	49.64
672.743	49.32
673.068	49.99
673.393	49.75
673.718	49.68
674.043	49.36
674.368	49.79
674.693	49.72
675.018	49.67
675.343	49.25
675.667	49.46
675.992	50.21
676.317	50.11
676.641	49.69
676.966	50.08
677.29	49.55
677.615	49.42
677.939	50.47
678.264	49.92
678.588	50.36
678.912	50.27
679.236	49.64
679.56	50.7
679.885	49.96
680.209	49.87
680.532	49.88
680.856	49.51
681.18	50.47
681.504	49.76
681.828	49.8
682.152	49.64
682.475	51.14
682.799	50.16
683.122	50.12
683.446	50.49
683.769	50.97
684.093	50.45
684.416	51.33
684.739	50.57
685.062	51.3
685.386	50.92
685.709	50.16
686.032	50.26
686.355	50.11
686.678	50.79
687.001	51.02
687.324	50.89
687.646	51.4
687.969	50.9
688.292	50.96
688.614	50.81
688.937	50.7
689.26	50.94
689.582	50.55
689.904	51
690.227	51.78
690.549	51.51
690.871	51.32
691.194	50.78
691.516	50.76
691.838	51.2
692.16	51.14
692.482	51.32
692.804	50.84
693.126	50.74
693.448	52.02
693.769	51.26
694.091	50.67
694.413	51.22
694.735	51.34
695.056	51.38
695.378	51.89
695.699	52.44
696.021	51.4
696.342	51.93
696.663	51.17
696.984	51.64
697.306	51.46
697.627	52.45
697.948	51.98
698.269	51.59
698.59	51.65
698.911	51.71
699.232	50.75
699.553	51.83
699.873	51.63
700.194	50.97
700.515	51.41
700.835	52.28
701.156	51.26
701.477	51.17
701.797	51.52
702.117	51.77
702.438	51.53
702.758	51.56
703.078	51.76
703.398	53.5
703.719	52.83
704.039	52.82
704.359	51.92
704.679	52.17
704.999	53.5
705.319	52.71
705.638	51.42
705.958	52.72
706.278	53.14
706.597	51.86
706.917	52.5
707.237	52.27
707.556	52.27
707.876	52.05
708.195	53.1
708.514	51.91
708.834	52.41
709.153	53.64
709.472	52.46
709.791	53.13
710.11	52.69
710.429	53.38
710.748	53.07
711.067	53.42
711.386	52.11
711.705	52.63
712.023	52.49
712.342	53.3
712.661	53.58
712.979	52.57
713.298	53.43
713.616	52.27
713.935	52.81
714.253	52.65
714.572	53.22
714.89	53.12
715.208	53.87
715.526	52.84
715.844	52.84
716.162	52.61
716.48	52.96
716.798	53.87
717.116	53.94
717.434	53
717.752	52.77
718.069	53.39
718.387	52.71
718.705	53.52
719.022	53.23
719.34	52.74
719.657	52.66
719.975	53.62
720.292	53.73
720.609	54.66
720.927	54.53
721.244	53.71
721.561	54.19
721.878	53.19
722.195	53.35
722.512	53.17
722.829	53.99
723.146	55.02
723.463	54.41
723.779	53.28
724.096	53.46
724.413	52.75
724.729	54.49
725.046	53.7
725.362	53.83
725.679	54.04
725.995	55.28
726.311	54.62
726.628	52.21
726.944	52.64
727.26	53.22
727.576	52.72
727.892	53.07
728.208	53
728.524	54.35
728.84	54.19
729.156	53.32
729.472	54.3
729.787	53.95
730.103	53.15
730.419	54.18
730.734	53.56
731.05	54.19
731.365	54.3
731.681	54.41
731.996	53.75
732.311	54.8
732.626	53.47
732.942	53.36
733.257	53.07
733.572	54.2
733.887	54.76
734.202	54.04
734.517	54.22
734.832	54.47
735.146	53.71
735.461	54.18
735.776	54.59
736.091	54.08
736.405	54.11
736.72	53.99
737.034	54.61
737.349	54.43
737.663	54.05
737.977	54.51
738.292	55.57
738.606	54.95
738.92	52.48
739.234	55.51
739.548	55.04
739.862	55.4
740.176	54.55
740.49	54.29
740.804	55.1
741.117	55.8
741.431	54.23
741.745	54.85
742.058	54.24
742.372	54.5
742.685	53.94
742.999	56.49
743.312	55.6
743.626	53.22
743.939	54.25
744.252	54.31
744.565	54.84
744.878	55.06
745.191	53.41
745.505	57.29
745.817	55.92
746.13	55.26
746.443	55.47
746.756	56.73
747.069	55.7
747.381	56.16
747.694	55.99
748.007	56.14
748.319	55.24
748.632	55.68
748.944	56.46
749.256	55.73
749.569	56.68
749.881	55.64
750.193	55.59
750.505	55.51
750.817	56.53
751.129	55.3
751.441	56.22
751.753	56.48
752.065	55.56
752.377	55.88
752.689	54.17
753	55.77
753.312	57.49
753.624	56.12
753.935	56.69
754.247	55.7
754.558	57.07
754.869	57.67
755.181	56.24
755.492	55.68
755.803	57.97
756.114	55.28
756.425	57.2
756.736	53.86
757.047	58.78
757.358	55.77
757.669	55.18
757.98	56.97
758.291	53.62
758.601	56.57
758.912	55.25
759.223	57.31
759.533	56.32
759.844	57.78
760.154	55.51
760.464	56.21
760.775	56.47
761.085	56.16
761.395	57.89
761.705	56.35
762.016	54.98
762.326	57.1
762.636	56.24
762.945	54.32
763.255	56.08
763.565	56.36
763.875	55.34
764.185	56.25
764.494	58.26
764.804	57.59
765.113	56.29
765.423	57.65
765.732	56.41
766.042	57.81
766.351	56.28
766.66	56.45
766.97	56.1
767.279	56.29
767.588	57.49
767.897	56.31
768.206	56.91
768.515	56.18
768.824	58.05
769.133	57.66
769.441	56.89
769.75	57.46
770.059	58.06
770.367	55.45
770.676	56.92
770.984	57.74
771.293	57.07
771.601	56.94
771.91	56.04
772.218	55.76
772.526	55.51
772.834	56.93
773.142	56.77
773.45	58.2
773.758	55.72
774.066	57.85
774.374	59.76
774.682	52.73
774.99	55.13
775.298	56.73
775.605	57.54
775.913	57.18
776.22	58.16
776.528	59.59
776.835	55.97
777.143	57.39
777.45	58.5
777.757	56.54
778.065	59.79
778.372	55.43
778.679	59.16
778.986	56.52
779.293	55.87
779.6	54.96
779.907	57.63
780.214	60.21
780.52	55.85
780.827	56.11
781.134	54.85
781.44	57.06
781.747	57.71
782.053	55.79
782.36	53.04
782.666	60.37
782.973	59.25
783.279	58.9
783.585	57.67
783.891	53.36
784.197	59.55
784.503	59.33
784.809	58.91
785.115	57.83
785.421	58.35
785.727	59.43
786.033	57.06
786.339	56.19
786.644	61.62
786.95	58.6
787.255	56.81
787.561	56.78
787.866	56.16
788.172	60.71
788.477	59.1
788.782	59.35
789.088	55.83
789.393	54.02
789.698	58.74
790.003	58.05
790.308	55.38
790.613	60.37
790.918	60.76
791.223	59.91
791.527	56.1
791.832	60.18
792.137	58.54
792.441	57.27
792.746	60.95
793.05	61.62
793.355	59.16
793.659	61.86
793.963	60.27
794.268	56.77
794.572	60.71
794.876	60.79
795.18	59.59
795.484	58.9
795.788	58.4
796.092	60.65
796.396	62.97
796.7	59.38
797.004	55.91
797.307	57.89
797.611	56.32
797.915	60.2
798.218	61.56
798.522	59.27
798.825	57.08
799.128	64.24
799.432	56.92
799.735	56.74
800.038	60.84
800.341	58.83
800.644	61.63
800.947	61.21
801.25	60.18
801.553	58.93
801.856	58.9
802.159	62.48
802.462	66.6
802.764	57.78
803.067	57.73
803.37	60.98
803.672	60.01
803.975	59.8
804.277	62.35
804.579	59.05
804.882	56.84
805.184	62.48
805.486	62.23
805.788	65.18
806.09	60.66
806.392	58.56
806.694	60.84
806.996	67.47
807.298	62.93
807.6	60.15
807.902	58.6
808.203	61.98
808.505	61.04
808.807	59.88
809.108	62.85
809.409	61.06
809.711	62.99
810.012	63.46
810.313	58.4
810.615	57.46
810.916	60.99
811.217	62.44
811.518	58.15
811.819	60.54
812.12	61.9
812.421	58.53
812.722	57.47
813.023	55.44
813.323	53.41
813.624	61.02
813.925	53.69
814.225	64.11
814.526	62.32
814.826	65.59
815.126	66.07
815.427	60.47
815.727	56.05
816.027	57.25
816.327	57.87
816.627	63.95
816.927	57.54
817.227	63.38
817.527	67.05
817.827	58.75
818.127	62.19
818.427	62.09
818.727	61.89
819.026	61.2
819.326	52.68
819.625	60.87
819.925	55.2
820.224	73.3
820.524	59.41
820.823	58.85
821.122	59.57
821.421	64.68
821.72	62.35
822.019	59.7
822.318	66.08
822.617	58.62
822.916	58.49
823.215	62.68
823.514	59.5
823.813	61.97
824.111	61.68
824.41	61.4
824.709	59.46
825.007	59.1
825.306	58.92
825.604	58.74
825.902	60.37
826.201	60.15
826.499	60.49
826.797	59.14
827.095	60.08
827.393	59.68
827.691	60.4
827.989	60.81
828.287	60.68
828.585	61.35
828.882	59.59
829.18	63.36
829.478	61.39
829.775	62.56
830.073	60.95
830.37	59.2
830.668	58.75
830.965	61.18
831.263	59.47
831.56	58.97
831.857	62.65
832.154	59.02
832.451	60.71
832.748	60.36
833.045	62.88
833.342	64.74
833.639	63.72
833.936	61.7
834.232	58.95
834.529	66.53
834.826	58.48
835.122	58.7
835.419	61.53
835.715	63.52
836.012	57.6
836.308	62.75
836.604	64.5
836.901	61.61
837.197	62.6
837.493	62.87
837.789	62.23
838.085	58.53
838.381	58.35
838.677	58.91
838.972	64.97
839.268	65.39
839.564	61.84
839.86	61.39
840.155	58.14
840.451	60.14
840.746	60.1
841.042	61.94
841.337	65.62
841.632	61.79
841.928	61.11
842.223	66.26
842.518	61.17
842.813	73.84
843.108	63.45
843.403	60.26
843.698	57.94
843.993	62.48
844.287	65.21
844.582	62.05
844.877	64.35
845.171	62.68
845.466	57.19
845.761	51.05
846.055	71.54
846.349	63.14
846.644	65.27
846.938	63.78
847.232	67.99
847.526	70.35
847.82	57.27
848.114	73.52
848.408	58.99
848.702	65.11
848.996	46.37
849.29	48.35
849.584	47.5
849.877	71.59
850.171	71.04
850.465	59.75
850.758	63.62
851.052	50.63
851.345	65.69
851.638	63.75
851.932	66.49
852.225	71.46
852.518	61.24
852.811	66.31
853.104	82.03
853.397	79.44
853.69	61.88
853.983	71.23
854.276	60.72
854.569	68.77
854.861	57.17
855.154	72.42
855.447	52.38
855.739	49.68
856.032	60.18
856.324	67.41
856.616	55.71
856.909	58.78
857.201	65.41
857.493	69.51
857.785	89.22
858.077	75.66
858.369	67.18
858.661	79.12
858.953	68.78
859.245	66.51
859.537	62.99
859.829	72.26
860.12	47.82
860.412	61.01
860.703	77.35
860.995	59.23
861.286	87.7
861.578	63.62
861.869	73.99
862.16	55.18
862.452	95.8
862.743	73.76
863.034	63.98
863.325	83.47
863.616	41.42
863.907	80.22
864.198	55.23
864.488	52.21
864.779	39.23
865.07	71.56
865.36	60.09
865.651	61.93
865.941	47.37
866.232	62.42
866.522	69.92
866.813	69.28
867.103	57.05
867.393	83.79
867.683	62.23
867.973	65.02
868.263	76.55
868.553	49.09
868.843	88.18
869.133	80.89
869.423	67.31
869.713	41.47
870.002	79.49
870.292	54.03
870.582	64.68
870.871	66.06
871.161	62.62
871.45	70.67
871.739	71.56
872.029	91.1
872.318	67.94
872.607	59.75
872.896	41.5
873.185	75.28
873.474	92.72
873.763	54.41
874.052	67.9
874.341	70.01
874.63	50.11
874.918	58.24
875.207	59.28
875.496	81.56
875.784	84.28
876.073	82.03
876.361	76.68
876.649	66.92
876.938	86.27
877.226	41.01
877.514	71.93
877.802	67.24
878.09	72.52
878.378	60.92
878.666	62.63
878.954	64.77
879.242	82.91
879.53	102.02
879.817	66.65
880.105	53.21
880.392	95.91
880.68	50.52
880.967	87.35
881.255	87.66
881.542	68.88
881.83	95.98
882.117	63.47
882.404	68.73
882.691	52.23
882.978	57.78
883.265	87.48
883.552	48.13
883.839	71.77
884.126	52.99
884.413	63.1
884.699	73.68
884.986	65.82
885.273	66.42
885.559	66.42
885.846	66.42
