Data from 21-11_forehead_Reflection__4__74.txt Node

Date: Thu Dec 15 16:59:39 CST 2022
User: ToomeyLab
Spectrometer: FLMS14357
Trigger mode: 0
Integration Time (sec): 1.000000E-2
Scans to average: 100
Electric dark correction enabled: true
Nonlinearity correction enabled: false
Boxcar width: 0
XAxis mode: Wavelengths
Number of Pixels in Spectrum: 2048
>>>>>Begin Spectral Data<<<<<
189.047	612.78
189.435	612.78
189.823	612.78
190.211	115.44
190.599	95.61
190.987	-15.32
191.375	-7.05
191.763	129.73
192.151	661.2
192.538	34.54
192.926	1556.32
193.314	-2827.78
193.702	-36.02
194.089	55.88
194.477	203.17
194.864	148.62
195.252	307.36
195.639	172.61
196.027	204.17
196.414	155.87
196.801	-5.93
197.189	166.32
197.576	-1089.02
197.963	-721.52
198.351	66.44
198.738	1.86
199.125	22.7
199.512	63.4
199.899	0.52
200.286	-14.55
200.673	50.3
201.06	15.91
201.447	-1.57
201.833	38.66
202.22	30.85
202.607	-20.57
202.994	13.93
203.38	36.37
203.767	29.3
204.154	34.36
204.54	17.77
204.927	-9.41
205.313	35.89
205.699	34.65
206.086	37.26
206.472	50.24
206.858	9.04
207.245	4.72
207.631	35.66
208.017	50.87
208.403	-29.27
208.789	36.37
209.175	26.92
209.561	-22.48
209.947	12.79
210.333	18.06
210.719	31.94
211.105	69.89
211.491	21.7
211.876	13.08
212.262	9.84
212.648	9.41
213.034	17.64
213.419	37.36
213.805	3.74
214.19	-7.73
214.576	19.48
214.961	13.75
215.346	12.87
215.732	-6.53
216.117	10.31
216.502	10.47
216.888	26.17
217.273	16.12
217.658	6.21
218.043	-17.13
218.428	-15.1
218.813	33
219.198	18.33
219.583	-4.84
219.968	16.97
220.353	8.61
220.738	18.21
221.122	2.65
221.507	-9.59
221.892	-25.55
222.276	-12.99
222.661	-2.92
223.046	13.37
223.43	15.84
223.815	8.37
224.199	11.04
224.583	9.38
224.968	4.49
225.352	6.04
225.736	9.96
226.121	7.04
226.505	2.75
226.889	4.36
227.273	-0.25
227.657	7.75
228.041	6.2
228.425	3.21
228.809	3.35
229.193	4.92
229.577	3.28
229.961	4.03
230.344	3.21
230.728	3.85
231.112	4.14
231.495	2.61
231.879	6.07
232.263	3.91
232.646	2.42
233.03	3.73
233.413	5.28
233.797	2.33
234.18	3.78
234.563	6.16
234.946	3.89
235.33	4.63
235.713	5.98
236.096	4.83
236.479	5.92
236.862	4.64
237.245	3.11
237.628	4.72
238.011	3.99
238.394	3.53
238.777	5.15
239.16	5.69
239.543	6.24
239.925	5.27
240.308	3.36
240.691	3.2
241.073	5.01
241.456	5.02
241.838	4.18
242.221	4.34
242.603	4.27
242.986	4.5
243.368	4.58
243.75	4.34
244.133	3.93
244.515	3.5
244.897	3.7
245.279	3.97
245.661	4.94
246.043	4.41
246.425	5.01
246.807	4.65
247.189	4.54
247.571	3.75
247.953	3.76
248.335	3.95
248.717	4.06
249.098	4.01
249.48	3.69
249.862	4.26
250.243	4.11
250.625	4.11
251.006	5.28
251.388	4.29
251.769	4.09
252.151	5.21
252.532	3.8
252.913	4.11
253.295	4.97
253.676	3.75
254.057	4.01
254.438	4.4
254.819	4.09
255.2	4.94
255.581	5.02
255.962	4.11
256.343	5.3
256.724	4.97
257.105	4.33
257.486	3.32
257.867	4.58
258.247	4.12
258.628	4.14
259.009	4.5
259.389	3.05
259.77	3.61
260.15	4.46
260.531	3.98
260.911	4.01
261.292	3.72
261.672	3.73
262.052	3.76
262.432	3.44
262.813	4.2
263.193	3.88
263.573	3.79
263.953	3.85
264.333	4.17
264.713	4.41
265.093	3.83
265.473	4.03
265.853	3.93
266.233	4.07
266.612	3.32
266.992	3.59
267.372	4.21
267.752	3.82
268.131	3.97
268.511	3.54
268.89	4.3
269.27	3.62
269.649	3.68
270.029	3.55
270.408	3.34
270.787	4.12
271.167	3.84
271.546	4.46
271.925	4.1
272.304	3.76
272.683	3.49
273.062	3.43
273.441	3.74
273.82	3.71
274.199	3.4
274.578	3.89
274.957	3.63
275.336	3.89
275.715	3.63
276.093	3.25
276.472	3.41
276.851	3.64
277.229	3.68
277.608	2.95
277.986	4.01
278.365	3.98
278.743	3.76
279.122	3.72
279.5	3.61
279.878	3.87
280.257	3.41
280.635	3.67
281.013	3.35
281.391	3.74
281.769	4.18
282.147	3.74
282.525	3.57
282.903	3.42
283.281	3.96
283.659	4.13
284.037	3.43
284.415	3.64
284.792	3.51
285.17	3.74
285.548	3.57
285.925	3.86
286.303	4.24
286.68	3.74
287.058	3.5
287.435	3.5
287.813	3.5
288.19	3.22
288.567	3.71
288.945	3.45
289.322	3.74
289.699	3.79
290.076	3.98
290.453	3.64
290.83	3.98
291.207	3.69
291.584	3.99
291.961	3.81
292.338	3.57
292.715	3.56
293.092	4.33
293.469	4.07
293.845	3.88
294.222	4.47
294.599	3.44
294.975	3.64
295.352	4.33
295.728	3.98
296.105	4.06
296.481	4.21
296.858	4.34
297.234	3.93
297.61	4.4
297.986	4.7
298.363	4.11
298.739	4.52
299.115	4
299.491	4.53
299.867	4.46
300.243	4.31
300.619	4.17
300.995	4.49
301.371	5.1
301.746	4.41
302.122	4.38
302.498	4.53
302.874	4.6
303.249	4.27
303.625	4.26
304	5.01
304.376	5
304.751	4.63
305.127	4.83
305.502	5.27
305.878	5.1
306.253	4.75
306.628	5.21
307.003	4.98
307.378	5.05
307.754	4.82
308.129	5.35
308.504	5.82
308.879	5.41
309.254	5.25
309.629	5.2
310.003	4.82
310.378	5.66
310.753	5.32
311.128	5.07
311.502	5.32
311.877	5.5
312.252	5.4
312.626	5.82
313.001	5.45
313.375	5.75
313.75	5.77
314.124	5.7
314.498	5.87
314.873	5.87
315.247	5.75
315.621	5.9
315.995	5.77
316.369	5.84
316.743	6.02
317.117	6.1
317.491	6.37
317.865	5.98
318.239	6.89
318.613	5.9
318.987	5.38
319.361	6.74
319.734	6.24
320.108	6.34
320.482	6.52
320.855	5.96
321.229	6.71
321.602	6.43
321.976	6.57
322.349	6.96
322.723	6.53
323.096	6.46
323.469	6.71
323.843	6.69
324.216	6.89
324.589	6.64
324.962	7.11
325.335	6.73
325.708	6.61
326.081	7.18
326.454	7.22
326.827	7.12
327.2	6.92
327.573	7.44
327.945	7
328.318	6.87
328.691	7.37
329.063	6.94
329.436	6.79
329.809	7.74
330.181	7.88
330.553	7.68
330.926	7.51
331.298	7.16
331.671	7.66
332.043	7.29
332.415	7.63
332.787	7.9
333.159	7.63
333.532	7.39
333.904	7.67
334.276	7.6
334.648	7.86
335.02	7.55
335.391	7.22
335.763	7.55
336.135	8.15
336.507	7.46
336.879	7.7
337.25	7.77
337.622	8.32
337.993	7.8
338.365	7.98
338.736	7.97
339.108	7.8
339.479	8.43
339.851	8.13
340.222	8.41
340.593	7.77
340.964	8.12
341.336	7.93
341.707	8.18
342.078	8.06
342.449	8.17
342.82	8.18
343.191	8.47
343.562	8.42
343.933	8.04
344.303	8.37
344.674	8.2
345.045	8.25
345.416	8.37
345.786	8.31
346.157	8.56
346.527	8.22
346.898	8.42
347.268	8.5
347.639	8.17
348.009	8.79
348.38	8.43
348.75	8.93
349.12	8.96
349.49	8.89
349.861	8.74
350.231	8.45
350.601	8.51
350.971	8.56
351.341	8.85
351.711	8.95
352.081	8.77
352.45	8.67
352.82	8.56
353.19	8.79
353.56	8.9
353.929	9.03
354.299	9.12
354.669	9.01
355.038	8.94
355.408	8.98
355.777	9.57
356.147	9.26
356.516	9.21
356.885	8.86
357.254	9.09
357.624	9.06
357.993	9.61
358.362	9.42
358.731	9.56
359.1	9.42
359.469	9.25
359.838	9.52
360.207	9.34
360.576	9.43
360.945	9.41
361.314	9.43
361.682	9.31
362.051	9.52
362.42	9.55
362.788	9.77
363.157	9.4
363.525	9.61
363.894	9.49
364.262	9.62
364.631	9.53
364.999	9.74
365.367	9.63
365.735	9.65
366.104	9.54
366.472	9.82
366.84	9.94
367.208	10.08
367.576	10.17
367.944	10.08
368.312	9.68
368.68	10.44
369.048	10.13
369.416	9.62
369.783	10.1
370.151	10.19
370.519	10.41
370.886	10.16
371.254	10.41
371.621	10.07
371.989	10.58
372.356	10.02
372.724	10.27
373.091	10.15
373.458	10.52
373.826	10.56
374.193	10.59
374.56	10.45
374.927	10.36
375.294	10.66
375.661	10.59
376.028	10.71
376.395	10.86
376.762	10.49
377.129	10.83
377.496	10.77
377.863	10.96
378.229	11.15
378.596	11.17
378.963	10.8
379.329	10.84
379.696	10.86
380.062	10.72
380.429	10.87
380.795	11.19
381.161	10.53
381.528	10.81
381.894	10.93
382.26	11.11
382.626	11.13
382.993	11.15
383.359	10.97
383.725	10.97
384.091	11.16
384.457	10.99
384.823	11.31
385.188	11.26
385.554	11.36
385.92	11.23
386.286	11.22
386.651	11.22
387.017	11.4
387.383	11.24
387.748	11.43
388.114	11.47
388.479	11.48
388.845	11.2
389.21	11.57
389.575	11.6
389.94	11.51
390.306	11.28
390.671	11.45
391.036	11.57
391.401	11.81
391.766	11.6
392.131	11.7
392.496	11.26
392.861	11.43
393.226	11.28
393.591	11.29
393.956	11.57
394.32	11.7
394.685	11.3
395.05	11.73
395.414	11.37
395.779	11.68
396.143	11.41
396.508	11.5
396.872	11.79
397.236	11.7
397.601	11.56
397.965	11.72
398.329	11.87
398.694	11.66
399.058	11.56
399.422	11.56
399.786	11.57
400.15	11.48
400.514	11.82
400.878	11.6
401.242	11.83
401.605	11.72
401.969	11.82
402.333	11.63
402.697	11.97
403.06	11.72
403.424	11.85
403.787	11.92
404.151	11.8
404.514	11.74
404.878	11.65
405.241	11.58
405.604	11.6
405.968	11.6
406.331	11.54
406.694	11.65
407.057	11.5
407.42	11.66
407.783	11.79
408.146	11.78
408.509	11.61
408.872	11.68
409.235	11.74
409.598	11.63
409.961	11.71
410.323	11.56
410.686	11.44
411.049	11.59
411.411	11.72
411.774	11.81
412.136	11.67
412.499	11.71
412.861	11.53
413.223	11.62
413.586	11.66
413.948	11.7
414.31	11.79
414.672	11.75
415.035	12.05
415.397	11.67
415.759	11.68
416.121	12.1
416.483	11.86
416.845	11.78
417.206	11.98
417.568	11.89
417.93	11.91
418.292	11.74
418.653	11.73
419.015	11.96
419.377	11.99
419.738	11.88
420.1	11.8
420.461	11.73
420.822	12
421.184	12.02
421.545	12.05
421.906	12.09
422.267	11.94
422.629	12.03
422.99	12.05
423.351	12.12
423.712	12.19
424.073	12.38
424.434	12.55
424.795	12.41
425.155	12.34
425.516	12.42
425.877	12.42
426.238	12.44
426.598	12.66
426.959	12.86
427.32	12.96
427.68	13.03
428.041	13.18
428.401	13.29
428.761	13.35
429.122	13.29
429.482	13.35
429.842	13.49
430.202	13.71
430.563	13.58
430.923	13.81
431.283	13.94
431.643	13.86
432.003	13.9
432.363	14.07
432.722	14.07
433.082	14.14
433.442	14.28
433.802	14.22
434.161	13.95
434.521	14.16
434.881	14.39
435.24	14.27
435.6	14.3
435.959	14.46
436.319	14.62
436.678	14.67
437.037	14.61
437.396	14.76
437.756	14.62
438.115	14.98
438.474	15.02
438.833	14.95
439.192	14.93
439.551	15.1
439.91	15.1
440.269	15.11
440.628	15.14
440.987	15.13
441.345	15.22
441.704	15.26
442.063	15.28
442.421	15.38
442.78	15.43
443.138	15.5
443.497	15.58
443.855	15.77
444.214	15.79
444.572	15.96
444.93	15.85
445.288	16
445.647	15.87
446.005	15.93
446.363	15.96
446.721	15.94
447.079	15.97
447.437	15.98
447.795	15.95
448.153	16.03
448.51	16.08
448.868	16.08
449.226	16.26
449.584	16.38
449.941	16.5
450.299	16.52
450.656	16.7
451.014	16.67
451.371	16.86
451.729	16.98
452.086	17.02
452.443	17.2
452.801	17.06
453.158	17.27
453.515	17.16
453.872	17.09
454.229	17.12
454.586	17.29
454.943	17.36
455.3	17.62
455.657	17.61
456.014	17.52
456.371	17.44
456.727	17.9
457.084	17.79
457.441	17.83
457.797	17.83
458.154	17.94
458.51	17.96
458.867	18
459.223	18.15
459.58	18.16
459.936	18.22
460.292	18.08
460.648	17.92
461.005	17.99
461.361	17.92
461.717	18.04
462.073	18.21
462.429	18.15
462.785	18.58
463.141	18.49
463.496	18.78
463.852	18.82
464.208	18.95
464.564	18.83
464.919	18.95
465.275	18.99
465.631	19.2
465.986	19.12
466.342	19.27
466.697	19.21
467.052	19.33
467.408	19.46
467.763	19.49
468.118	19.29
468.473	19.46
468.829	19.43
469.184	19.78
469.539	19.63
469.894	19.61
470.249	19.8
470.603	20.06
470.958	19.99
471.313	20.06
471.668	20.09
472.023	20.13
472.377	20.05
472.732	20.41
473.086	20.03
473.441	20.18
473.795	20.32
474.15	20.32
474.504	20.43
474.859	20.34
475.213	20.56
475.567	20.35
475.921	20.67
476.275	20.87
476.63	20.85
476.984	20.72
477.338	20.89
477.692	20.93
478.045	20.87
478.399	20.88
478.753	21.02
479.107	20.84
479.461	20.81
479.814	20.98
480.168	20.92
480.521	21.18
480.875	21.13
481.228	21.07
481.582	21.3
481.935	21.43
482.289	21.26
482.642	21.41
482.995	21.08
483.348	20.95
483.701	21.2
484.055	21.01
484.408	20.98
484.761	20.63
485.114	20.45
485.466	20.47
485.819	20.53
486.172	20.59
486.525	20.79
486.878	20.95
487.23	21.16
487.583	21.23
487.936	21.33
488.288	21.24
488.641	21.14
488.993	21.13
489.345	21.25
489.698	21.26
490.05	21.28
490.402	21.41
490.754	21.6
491.107	21.82
491.459	21.98
491.811	22.11
492.163	22.09
492.515	21.88
492.866	21.73
493.218	21.71
493.57	21.81
493.922	21.95
494.274	22.22
494.625	22.46
494.977	22.54
495.328	22.71
495.68	22.84
496.031	23.1
496.383	23.22
496.734	23.18
497.086	23.2
497.437	23.42
497.788	23.31
498.139	23.08
498.49	23.14
498.842	23.19
499.193	23.24
499.544	23.37
499.894	23.5
500.245	23.57
500.596	23.55
500.947	23.65
501.298	23.62
501.648	23.65
501.999	24.02
502.35	23.82
502.7	24.04
503.051	24
503.401	24.12
503.752	24.22
504.102	24.15
504.452	24.22
504.803	24.22
505.153	24.5
505.503	24.27
505.853	24.48
506.203	24.5
506.553	24.42
506.903	24.52
507.253	24.62
507.603	24.67
507.953	24.64
508.303	24.73
508.652	24.47
509.002	24.71
509.352	24.62
509.701	24.67
510.051	24.63
510.4	24.67
510.75	24.59
511.099	24.66
511.449	24.72
511.798	24.76
512.147	24.76
512.496	24.95
512.846	24.99
513.195	25
513.544	24.96
513.893	25.01
514.242	24.97
514.591	25.05
514.939	25.23
515.288	25.22
515.637	25.34
515.986	25.29
516.334	25.58
516.683	25.61
517.032	25.59
517.38	25.49
517.729	25.7
518.077	25.61
518.426	25.73
518.774	25.59
519.122	25.53
519.47	25.38
519.819	25.18
520.167	25.14
520.515	25.21
520.863	25.29
521.211	25.41
521.559	25.35
521.907	25.66
522.255	25.69
522.602	25.75
522.95	26.04
523.298	26.04
523.645	26.05
523.993	26.05
524.341	26.05
524.688	26.23
525.036	26.02
525.383	26.14
525.73	26.18
526.078	26.06
526.425	25.95
526.772	25.85
527.119	25.83
527.466	25.79
527.814	25.78
528.161	25.84
528.508	25.99
528.854	25.95
529.201	25.84
529.548	25.55
529.895	25.33
530.242	25.39
530.588	25.47
530.935	25.59
531.282	25.59
531.628	25.82
531.975	25.76
532.321	26.15
532.667	26.34
533.014	26.41
533.36	26.44
533.706	26.44
534.052	26.39
534.399	26.19
534.745	26.11
535.091	26.03
535.437	26.12
535.783	26.35
536.129	26.38
536.474	26.6
536.82	27.02
537.166	26.89
537.512	26.89
537.857	26.81
538.203	26.85
538.549	26.79
538.894	26.98
539.239	27.06
539.585	27.11
539.93	27.34
540.276	27.45
540.621	27.53
540.966	27.63
541.311	27.62
541.656	27.38
542.001	27.36
542.346	27.11
542.691	26.9
543.036	26.88
543.381	27.08
543.726	27.05
544.071	27.18
544.415	27.21
544.76	27.33
545.105	27.56
545.449	27.72
545.794	27.8
546.138	27.98
546.483	28.06
546.827	28.12
547.171	28.06
547.516	28.26
547.86	28.1
548.204	28.07
548.548	28.06
548.892	28.1
549.236	28.4
549.58	28.56
549.924	28.75
550.268	28.91
550.612	29.02
550.956	29.22
551.3	29.18
551.643	29.07
551.987	29.45
552.33	29.34
552.674	29.33
553.017	29.47
553.361	29.41
553.704	29.32
554.048	29.38
554.391	29.21
554.734	29.33
555.077	29.44
555.42	29.67
555.764	29.71
556.107	29.72
556.45	29.86
556.793	29.86
557.135	29.94
557.478	30.05
557.821	30.24
558.164	30.2
558.507	29.99
558.849	30.32
559.192	30.16
559.534	30.36
559.877	30.56
560.219	30.33
560.562	30.45
560.904	30.57
561.246	30.5
561.589	30.66
561.931	30.66
562.273	30.43
562.615	30.58
562.957	30.54
563.299	30.61
563.641	30.56
563.983	30.63
564.325	30.75
564.667	30.82
565.008	31.04
565.35	30.82
565.692	31.06
566.033	31.01
566.375	30.96
566.716	30.79
567.058	31.06
567.399	30.89
567.741	30.94
568.082	31.08
568.423	30.99
568.764	30.98
569.105	31.12
569.447	31.12
569.788	31.28
570.129	31.52
570.47	31.44
570.811	31.57
571.151	31.56
571.492	31.7
571.833	31.64
572.174	31.67
572.514	31.74
572.855	31.71
573.195	31.72
573.536	31.66
573.876	31.62
574.217	31.73
574.557	31.76
574.898	31.7
575.238	32.08
575.578	32.11
575.918	31.92
576.258	32.1
576.598	31.97
576.938	31.97
577.278	32.31
577.618	32.02
577.958	32.33
578.298	32.57
578.638	32.51
578.977	32.65
579.317	32.62
579.657	32.67
579.996	32.88
580.336	32.99
580.675	33.02
581.014	33.01
581.354	33.19
581.693	33.22
582.032	33.42
582.372	33.7
582.711	33.26
583.05	33.4
583.389	33.49
583.728	33.74
584.067	33.6
584.406	33.77
584.745	33.65
585.083	33.85
585.422	33.61
585.761	33.7
586.1	34.09
586.438	33.84
586.777	34.15
587.115	34.02
587.454	34.16
587.792	33.96
588.13	34.03
588.469	34.07
588.807	34.59
589.145	34.08
589.483	34.45
589.821	34.76
590.159	34.53
590.497	34.79
590.835	34.5
591.173	34.52
591.511	34.59
591.849	34.48
592.187	34.34
592.524	34.62
592.862	34.65
593.2	34.95
593.537	34.84
593.875	34.89
594.212	35
594.55	35.22
594.887	35.04
595.224	35.3
595.561	35.07
595.899	35.26
596.236	35.28
596.573	34.96
596.91	35.2
597.247	35.42
597.584	35.15
597.921	35.2
598.258	35.12
598.594	35.12
598.931	35.21
599.268	35.24
599.604	35.33
599.941	35.52
600.277	35.62
600.614	35.74
600.95	35.59
601.287	35.66
601.623	35.61
601.959	36.13
602.296	35.65
602.632	36.23
602.968	36.02
603.304	36.27
603.64	35.9
603.976	36.25
604.312	36.28
604.648	36.14
604.984	36.13
605.319	36.06
605.655	36.06
605.991	35.89
606.326	36.02
606.662	36.05
606.998	36.33
607.333	36.09
607.668	36.29
608.004	36.29
608.339	36.6
608.674	36.79
609.01	37.28
609.345	37.09
609.68	36.63
610.015	37.41
610.35	37.09
610.685	36.7
611.02	36.76
611.355	37.09
611.689	37.01
612.024	36.89
612.359	37.26
612.694	37.4
613.028	37.18
613.363	37.5
613.697	37.17
614.032	37.48
614.366	37.36
614.7	37.89
615.035	37.6
615.369	38.07
615.703	38.3
616.037	37.74
616.371	37.63
616.705	38.43
617.039	38.05
617.373	38.27
617.707	37.87
618.041	38.04
618.375	37.84
618.709	38.49
619.042	38.25
619.376	38.24
619.71	38.43
620.043	38.57
620.377	38.42
620.71	38.29
621.043	38.65
621.377	38.88
621.71	38.53
622.043	38.7
622.376	38.62
622.709	39.23
623.043	38.52
623.376	38.61
623.709	38.85
624.041	38.6
624.374	38.83
624.707	39.22
625.04	39.11
625.373	38.86
625.705	39.16
626.038	38.8
626.37	39.07
626.703	39.02
627.035	39.31
627.368	39.27
627.7	39.4
628.032	39.32
628.365	39.27
628.697	39.31
629.029	39.26
629.361	39.53
629.693	39.22
630.025	39.54
630.357	40.07
630.689	39.39
631.021	39.96
631.353	40.11
631.684	40.05
632.016	39.53
632.348	39.69
632.679	39.83
633.011	39.6
633.342	40.01
633.674	39.95
634.005	40.26
634.336	40.39
634.668	39.91
634.999	40.3
635.33	40.39
635.661	40.14
635.992	40.29
636.323	39.99
636.654	40.36
636.985	40.43
637.316	40.91
637.647	40.63
637.977	40.61
638.308	40.76
638.639	40.8
638.969	40.52
639.3	40.65
639.63	40.7
639.961	41.07
640.291	41.01
640.622	40.85
640.952	41.18
641.282	40.98
641.612	41.62
641.943	40.94
642.273	41.15
642.603	41.56
642.933	41.2
643.263	41.32
643.592	42.18
643.922	41.51
644.252	40.9
644.582	41.71
644.911	41.53
645.241	41.72
645.571	41.57
645.9	41.95
646.23	41.78
646.559	41.39
646.888	41.66
647.218	41.75
647.547	42.49
647.876	41.42
648.205	42.25
648.534	41.81
648.863	42.06
649.192	42.16
649.521	42.26
649.85	42.55
650.179	42.09
650.508	42.33
650.837	42.11
651.165	42.12
651.494	42.71
651.822	42.37
652.151	42.12
652.479	42.41
652.808	42.17
653.136	42.34
653.465	42.2
653.793	42.56
654.121	42.7
654.449	42.39
654.777	42.67
655.105	42.52
655.433	42.68
655.761	42.77
656.089	42.6
656.417	43.01
656.745	43.57
657.073	43.22
657.4	42.58
657.728	43.03
658.056	43.78
658.383	43.64
658.711	43.53
659.038	43.81
659.365	43.8
659.693	43.2
660.02	43.18
660.347	43.52
660.674	43.54
661.001	43.5
661.329	43.28
661.656	43.03
661.982	43.71
662.309	43.74
662.636	43.67
662.963	43.75
663.29	43.96
663.616	43.25
663.943	43.84
664.27	44.18
664.596	43.6
664.923	44.1
665.249	44.22
665.576	43.63
665.902	44.19
666.228	44.34
666.554	44.79
666.881	44.23
667.207	44.32
667.533	44.65
667.859	44.38
668.185	44.6
668.511	44.49
668.837	45.16
669.162	44.75
669.488	44.41
669.814	44.67
670.139	44.6
670.465	45.61
670.791	44.84
671.116	44.45
671.442	44.7
671.767	44.77
672.092	44.7
672.418	45.01
672.743	44.6
673.068	45.08
673.393	45.57
673.718	45.66
674.043	45.59
674.368	45.02
674.693	45.13
675.018	45.86
675.343	45.5
675.667	44.92
675.992	44.77
676.317	44.79
676.641	45.52
676.966	45.26
677.29	45.19
677.615	45.24
677.939	45.89
678.264	45.62
678.588	45.98
678.912	45.73
679.236	45.02
679.56	45.66
679.885	45.85
680.209	46.14
680.532	46.37
680.856	45.81
681.18	46.82
681.504	46.4
681.828	46.05
682.152	45.94
682.475	45.66
682.799	46.54
683.122	46.11
683.446	45.94
683.769	46.05
684.093	46.95
684.416	46.62
684.739	46.31
685.062	46.18
685.386	47.07
685.709	46.67
686.032	46.71
686.355	46.57
686.678	46.6
687.001	47.62
687.324	46.41
687.646	46.62
687.969	46.79
688.292	46.33
688.614	47.07
688.937	46.2
689.26	46.89
689.582	47.19
689.904	46.88
690.227	47.16
690.549	46.81
690.871	46.76
691.194	47.15
691.516	47.71
691.838	47.7
692.16	48.01
692.482	46.84
692.804	47.78
693.126	47.18
693.448	47.48
693.769	47.71
694.091	47.59
694.413	47.16
694.735	47.3
695.056	47.61
695.378	46.07
695.699	47.35
696.021	48.4
696.342	47.15
696.663	47.35
696.984	47.99
697.306	47.45
697.627	48.98
697.948	48.67
698.269	48.42
698.59	47.42
698.911	47.71
699.232	48.29
699.553	48.49
699.873	47.28
700.194	47.57
700.515	48.16
700.835	47.92
701.156	48.2
701.477	48.1
701.797	47.94
702.117	47.16
702.438	48.48
702.758	47.25
703.078	48.76
703.398	48.41
703.719	48.58
704.039	48.82
704.359	48.51
704.679	48.45
704.999	48.18
705.319	47.96
705.638	48.13
705.958	47.74
706.278	48.88
706.597	49.25
706.917	49.82
707.237	48.57
707.556	48.22
707.876	49.3
708.195	49.45
708.514	49.3
708.834	49.38
709.153	48.83
709.472	50.15
709.791	48.94
710.11	48.94
710.429	49.33
710.748	48.76
711.067	50.27
711.386	48.54
711.705	48.83
712.023	49.95
712.342	49.27
712.661	49.13
712.979	49.67
713.298	50.59
713.616	50.27
713.935	50.04
714.253	49.12
714.572	49.22
714.89	50.16
715.208	49.49
715.526	50.45
715.844	50.08
716.162	49.37
716.48	50.19
716.798	50.41
717.116	49.88
717.434	49.86
717.752	49.04
718.069	50.07
718.387	50.73
718.705	49.45
719.022	49.12
719.34	49.66
719.657	49.81
719.975	50.37
720.292	49.23
720.609	48.81
720.927	50.1
721.244	49.88
721.561	50.03
721.878	48.97
722.195	51.73
722.512	51.45
722.829	49.17
723.146	50.32
723.463	51.44
723.779	50.95
724.096	50.1
724.413	51.67
724.729	50.96
725.046	51.55
725.362	51.43
725.679	49.8
725.995	50.09
726.311	50.26
726.628	50.28
726.944	50.7
727.26	51.17
727.576	51.01
727.892	50.15
728.208	50.54
728.524	49.1
728.84	50.12
729.156	50.92
729.472	51.27
729.787	50.88
730.103	50.9
730.419	50.35
730.734	50.25
731.05	50.09
731.365	50.23
731.681	50.55
731.996	50.72
732.311	52.13
732.626	50.66
732.942	50.94
733.257	51.98
733.572	50.96
733.887	51.9
734.202	51.63
734.517	50.84
734.832	51.91
735.146	51.82
735.461	52.85
735.776	51.71
736.091	50.99
736.405	51.41
736.72	51.71
737.034	52.56
737.349	52.19
737.663	52.42
737.977	51.17
738.292	51.08
738.606	51.98
738.92	52.02
739.234	51.26
739.548	51.88
739.862	51.07
740.176	51.82
740.49	52.2
740.804	51.49
741.117	52.37
741.431	51.79
741.745	52.31
742.058	50.97
742.372	53.05
742.685	52.25
742.999	50.91
743.312	52.84
743.626	53.24
743.939	52.11
744.252	51.56
744.565	51.65
744.878	52.25
745.191	51.89
745.505	50.55
745.817	51.94
746.13	52.69
746.443	52.17
746.756	53.14
747.069	53.59
747.381	54.23
747.694	52.53
748.007	51.47
748.319	52.07
748.632	52.45
748.944	52.41
749.256	51.48
749.569	51.19
749.881	52.41
750.193	53.54
750.505	53.29
750.817	54.34
751.129	52.79
751.441	52.88
751.753	53.73
752.065	51.5
752.377	51.1
752.689	53.07
753	51.47
753.312	52.58
753.624	51.48
753.935	50.76
754.247	54.05
754.558	52.85
754.869	52.7
755.181	54.43
755.492	53.74
755.803	55.47
756.114	54.02
756.425	52.13
756.736	53.1
757.047	53.25
757.358	53.46
757.669	54.52
757.98	53.75
758.291	54.23
758.601	52.31
758.912	54.33
759.223	53.27
759.533	52.85
759.844	53.68
760.154	53.44
760.464	53.29
760.775	53.69
761.085	53.16
761.395	52.53
761.705	53.56
762.016	55.11
762.326	53.38
762.636	53.65
762.945	52.84
763.255	53.09
763.565	53.93
763.875	54.81
764.185	53.89
764.494	53.13
764.804	53.85
765.113	52.52
765.423	53.67
765.732	54.62
766.042	54.01
766.351	54.38
766.66	54.02
766.97	54.63
767.279	53.65
767.588	52.75
767.897	52.79
768.206	55.46
768.515	53.22
768.824	53.11
769.133	52.42
769.441	53.95
769.75	54.36
770.059	53.59
770.367	55.34
770.676	54.82
770.984	53.93
771.293	52.97
771.601	53.14
771.91	51.09
772.218	53.7
772.526	54.16
772.834	54.16
773.142	54.51
773.45	54.09
773.758	54.41
774.066	51.4
774.374	56.89
774.682	55.23
774.99	52.13
775.298	53.63
775.605	52.79
775.913	51.83
776.22	51.56
776.528	52.26
776.835	54.49
777.143	58.27
777.45	54.29
777.757	57.61
778.065	56.9
778.372	55.34
778.679	58.03
778.986	55.76
779.293	52.63
779.6	53.4
779.907	56.22
780.214	55.35
780.52	53.55
780.827	55.37
781.134	57.46
781.44	57.59
781.747	55.39
782.053	55.81
782.36	54.64
782.666	53.71
782.973	51.78
783.279	53.39
783.585	56.04
783.891	54.55
784.197	54.95
784.503	52.46
784.809	55.08
785.115	55.11
785.421	57.21
785.727	53.77
786.033	53.67
786.339	54.92
786.644	51.43
786.95	54.26
787.255	52.24
787.561	54.95
787.866	56.68
788.172	55.55
788.477	55.48
788.782	56.64
789.088	54.37
789.393	54.69
789.698	56.31
790.003	54.53
790.308	52.22
790.613	56.38
790.918	53.96
791.223	54.94
791.527	57.68
791.832	55.26
792.137	57.23
792.441	53.68
792.746	54.45
793.05	54.61
793.355	55.75
793.659	58.09
793.963	55.32
794.268	56.85
794.572	53.26
794.876	52.95
795.18	55.78
795.484	57.95
795.788	58.52
796.092	52.95
796.396	50.02
796.7	55.3
797.004	55.21
797.307	51.77
797.611	56.84
797.915	53.95
798.218	54.81
798.522	49.8
798.825	57.25
799.128	57.67
799.432	52.55
799.735	53.27
800.038	59.19
800.341	57.38
800.644	54.44
800.947	57.74
801.25	55.19
801.553	54.17
801.856	56.48
802.159	52.89
802.462	53.21
802.764	55.1
803.067	55.3
803.37	59.83
803.672	58.76
803.975	54.74
804.277	57.01
804.579	58.7
804.882	61.26
805.184	51.57
805.486	58.13
805.788	59.35
806.09	50.43
806.392	54.45
806.694	54.87
806.996	54.37
807.298	50.02
807.6	53.74
807.902	60.9
808.203	53.56
808.505	55.15
808.807	54.12
809.108	55.38
809.409	53.21
809.711	55.9
810.012	54.57
810.313	58.15
810.615	63.31
810.916	54.62
811.217	55.12
811.518	52.65
811.819	51.36
812.12	59.2
812.421	56.46
812.722	55.8
813.023	58.11
813.323	59.05
813.624	58.23
813.925	62.6
814.225	52.15
814.526	49.39
814.826	55.06
815.126	60.31
815.427	53.54
815.727	54.32
816.027	61.09
816.327	54.37
816.627	50.17
816.927	56.64
817.227	57.66
817.527	56.01
817.827	54.87
818.127	54.69
818.427	53.67
818.727	57.11
819.026	61.96
819.326	50.69
819.625	53.66
819.925	60.34
820.224	59.98
820.524	56.42
820.823	55.89
821.122	55.09
821.421	55.34
821.72	52.75
822.019	54.6
822.318	57.45
822.617	58.94
822.916	51.69
823.215	56.21
823.514	58.79
823.813	54.12
824.111	55.72
824.41	57.57
824.709	57.03
825.007	58.22
825.306	57.91
825.604	56.87
825.902	56.83
826.201	57.22
826.499	57.45
826.797	55.36
827.095	58.01
827.393	57.48
827.691	57.93
827.989	57.98
828.287	56.07
828.585	57.64
828.882	56.73
829.18	57.26
829.478	58.39
829.775	60.19
830.073	59.87
830.37	56.99
830.668	55.53
830.965	59.44
831.263	56.75
831.56	59.2
831.857	57.86
832.154	58.83
832.451	59.42
832.748	60.85
833.045	59.02
833.342	57.94
833.639	55.43
833.936	55.56
834.232	55.83
834.529	51.97
834.826	59.5
835.122	58.89
835.419	59.47
835.715	54.05
836.012	60.05
836.308	60.74
836.604	58.08
836.901	57.5
837.197	57.57
837.493	56.24
837.789	60.9
838.085	53.85
838.381	52.11
838.677	61
838.972	53.7
839.268	56.35
839.564	58.72
839.86	57.56
840.155	54.65
840.451	58.87
840.746	58.34
841.042	58.54
841.337	54.63
841.632	46.67
841.928	56.46
842.223	52.45
842.518	58.64
842.813	59.63
843.108	57.85
843.403	59.8
843.698	50.23
843.993	63.59
844.287	66.37
844.582	60.22
844.877	56.04
845.171	59.19
845.466	54.98
845.761	49.8
846.055	61.53
846.349	57.01
846.644	51.61
846.938	62.11
847.232	52.73
847.526	58.94
847.82	59.34
848.114	59.49
848.408	45.49
848.702	65.24
848.996	54.4
849.29	47.15
849.584	56.26
849.877	51.54
850.171	54.48
850.465	49.69
850.758	33.29
851.052	61.99
851.345	56.76
851.638	50.26
851.932	52.05
852.225	54.68
852.518	56.02
852.811	40.72
853.104	45.07
853.397	81.34
853.69	65.33
853.983	48.29
854.276	69.11
854.569	47.08
854.861	43.81
855.154	55.64
855.447	45.5
855.739	31.4
856.032	56.36
856.324	77.5
856.616	71.14
856.909	46.11
857.201	45.4
857.493	48.13
857.785	31.51
858.077	41.14
858.369	70.13
858.661	46.59
858.953	65.77
859.245	53.93
859.537	46.08
859.829	50.49
860.12	49.48
860.412	56.99
860.703	82.02
860.995	46.91
861.286	27.95
861.578	55.25
861.869	47.64
862.16	64.32
862.452	43.96
862.743	33.28
863.034	60.45
863.325	52.9
863.616	51.35
863.907	57.59
864.198	63.49
864.488	70.99
864.779	57.87
865.07	50.31
865.36	67.15
865.651	65.76
865.941	47.58
866.232	73.81
866.522	48.84
866.813	68
867.103	59.81
867.393	72.74
867.683	42.25
867.973	62.12
868.263	49.46
868.553	65.25
868.843	47.38
869.133	62.12
869.423	46.24
869.713	58
870.002	58.76
870.292	55.28
870.582	40.62
870.871	59
871.161	72.33
871.45	48.71
871.739	64.13
872.029	40.29
872.318	49
872.607	74.09
872.896	34.77
873.185	67.44
873.474	59.6
873.763	61.46
874.052	54.94
874.341	32.59
874.63	53.44
874.918	73.28
875.207	63.16
875.496	59.75
875.784	39.04
876.073	42.26
876.361	34.56
876.649	53.1
876.938	22.4
877.226	66.46
877.514	56.03
877.802	56.02
878.09	47.39
878.378	64
878.666	60.56
878.954	45.58
879.242	59.49
879.53	71.64
879.817	71.95
880.105	60.66
880.392	45.69
880.68	44.2
880.967	27.58
881.255	58.05
881.542	51.23
881.83	53.14
882.117	51.33
882.404	48.72
882.691	57.56
882.978	52.82
883.265	57.07
883.552	65.95
883.839	63.13
884.126	60.39
884.413	61.85
884.699	58.02
884.986	60.42
885.273	54.46
885.559	54.46
885.846	54.46
