Data from 0284_chest_Reflection__1__231.txt Node

Date: Fri Oct 20 22:33:06 CDT 2023
User: ToomeyLab
Spectrometer: FLMS14357
Trigger mode: 0
Integration Time (sec): 1.000000E-2
Scans to average: 100
Electric dark correction enabled: true
Nonlinearity correction enabled: false
Boxcar width: 0
XAxis mode: Wavelengths
Number of Pixels in Spectrum: 2048
>>>>>Begin Spectral Data<<<<<
189.047	-34.9
189.435	-34.9
189.823	-34.9
190.211	71.6
190.599	8222.22
190.987	136.81
191.375	41.87
191.763	-1.38
192.151	5.14
192.538	23.83
192.926	46.69
193.314	78.34
193.702	376.87
194.089	246.57
194.477	-175.95
194.864	-53.05
195.252	-0.44
195.639	72.73
196.027	88.02
196.414	104.57
196.801	297.28
197.189	91.45
197.576	-327.86
197.963	365.68
198.351	36.4
198.738	29.05
199.125	-10.05
199.512	24.15
199.899	-8.8
200.286	-3.97
200.673	28.89
201.06	11.37
201.447	44.17
201.833	25.27
202.22	13.23
202.607	44.12
202.994	28.5
203.38	4.91
203.767	14.78
204.154	46.9
204.54	49.79
204.927	-0.91
205.313	39.19
205.699	16.5
206.086	22.4
206.472	42.75
206.858	63.95
207.245	-24.19
207.631	26.86
208.017	8.35
208.403	-1
208.789	41.15
209.175	-11.81
209.561	58.76
209.947	8.56
210.333	11.15
210.719	33.51
211.105	36.79
211.491	33.82
211.876	42.28
212.262	8.69
212.648	19.81
213.034	4.38
213.419	10.97
213.805	6.09
214.19	4.09
214.576	-26.96
214.961	16.3
215.346	31.53
215.732	10.51
216.117	-36.06
216.502	6.33
216.888	-21.23
217.273	6.66
217.658	4.37
218.043	-10.57
218.428	7.06
218.813	20.25
219.198	0.54
219.583	-17.96
219.968	-13.94
220.353	-4.19
220.738	4.37
221.122	-21.53
221.507	-4.7
221.892	-8.74
222.276	11.76
222.661	25.1
223.046	10.64
223.43	10.68
223.815	11.45
224.199	14.44
224.583	-10.54
224.968	4.72
225.352	-9.85
225.736	-1.49
226.121	5.48
226.505	10.12
226.889	4.68
227.273	-0.1
227.657	6.38
228.041	7.16
228.425	2.81
228.809	4.03
229.193	0.56
229.577	4.19
229.961	1.16
230.344	1.3
230.728	0.25
231.112	2.41
231.495	2.17
231.879	1.84
232.263	2.52
232.646	0.23
233.03	1.18
233.413	1.63
233.797	2.72
234.18	2.02
234.563	2.99
234.946	3.26
235.33	3.61
235.713	2.62
236.096	4.57
236.479	1.4
236.862	2.42
237.245	2.89
237.628	0.64
238.011	2.65
238.394	0.93
238.777	4.26
239.16	2.1
239.543	4.19
239.925	2.47
240.308	2.38
240.691	0.84
241.073	1.68
241.456	2.22
241.838	1.06
242.221	3.19
242.603	1.82
242.986	1.92
243.368	2.47
243.75	1.81
244.133	1.66
244.515	1.97
244.897	1.53
245.279	2.27
245.661	1.74
246.043	1.93
246.425	2.08
246.807	1.84
247.189	2.01
247.571	1.18
247.953	1.6
248.335	1.99
248.717	1.58
249.098	1.61
249.48	1.8
249.862	2.02
250.243	1.95
250.625	1.66
251.006	2.02
251.388	2.01
251.769	2.23
252.151	1.41
252.532	1.47
252.913	1.6
253.295	1.46
253.676	1.1
254.057	0.81
254.438	2.2
254.819	1.72
255.2	1.9
255.581	1.22
255.962	0.95
256.343	2.38
256.724	1.56
257.105	1.54
257.486	2.56
257.867	2.44
258.247	2.01
258.628	1.72
259.009	1.74
259.389	1.32
259.77	1.81
260.15	2.25
260.531	1.91
260.911	2.09
261.292	1.66
261.672	1.56
262.052	1.9
262.432	1.87
262.813	1.67
263.193	1.83
263.573	1.56
263.953	1.57
264.333	2.07
264.713	2.22
265.093	2.4
265.473	2.64
265.853	1.99
266.233	1.78
266.612	1.64
266.992	1.91
267.372	2.07
267.752	1.49
268.131	2.05
268.511	1.74
268.89	1.64
269.27	1.54
269.649	1.44
270.029	1.25
270.408	1.87
270.787	1.92
271.167	1.69
271.546	1.8
271.925	2.16
272.304	1.99
272.683	1.88
273.062	2
273.441	1.85
273.82	1.97
274.199	2.11
274.578	1.62
274.957	2.14
275.336	1.95
275.715	1.62
276.093	1.46
276.472	1.79
276.851	1.66
277.229	2.01
277.608	1.49
277.986	1.44
278.365	2.04
278.743	0.97
279.122	1.47
279.5	2.24
279.878	1.39
280.257	1.84
280.635	1.94
281.013	1.67
281.391	2.48
281.769	1.69
282.147	1.2
282.525	1.94
282.903	1.77
283.281	1.68
283.659	1.86
284.037	1.68
284.415	1.35
284.792	1.52
285.17	1.9
285.548	1.7
285.925	1.16
286.303	1.28
286.68	1.98
287.058	2.34
287.435	2.03
287.813	1.28
288.19	1.79
288.567	1.69
288.945	1.94
289.322	2.18
289.699	1.77
290.076	2.16
290.453	1.79
290.83	1.7
291.207	2.13
291.584	1.76
291.961	1.88
292.338	1.45
292.715	1.91
293.092	1.78
293.469	2.02
293.845	1.55
294.222	1.31
294.599	1.43
294.975	2.18
295.352	2.17
295.728	1.74
296.105	1.34
296.481	1.74
296.858	1.68
297.234	2.39
297.61	1.62
297.986	1.7
298.363	2.21
298.739	1.52
299.115	1.54
299.491	2.02
299.867	1.82
300.243	1.83
300.619	2.03
300.995	1.53
301.371	2.24
301.746	1.77
302.122	2.07
302.498	1.58
302.874	2.13
303.249	1.71
303.625	1.93
304	2.24
304.376	1.61
304.751	1.34
305.127	1.7
305.502	2.18
305.878	2.1
306.253	1.79
306.628	1.83
307.003	1.93
307.378	2.09
307.754	2.02
308.129	2.56
308.504	2.37
308.879	2.23
309.254	2.74
309.629	1.59
310.003	1.45
310.378	2.23
310.753	1.86
311.128	1.82
311.502	2.07
311.877	1.84
312.252	1.42
312.626	2.17
313.001	1.74
313.375	1.89
313.75	1.81
314.124	1.84
314.498	2.09
314.873	1.5
315.247	2
315.621	2.08
315.995	2.34
316.369	1.9
316.743	1.57
317.117	1.84
317.491	1.37
317.865	2.57
318.239	2.4
318.613	1.85
318.987	1.91
319.361	1.48
319.734	1.42
320.108	1.46
320.482	2.33
320.855	1.77
321.229	2.38
321.602	1.98
321.976	1.92
322.349	2.62
322.723	1.71
323.096	2.21
323.469	2.41
323.843	2.55
324.216	2.02
324.589	1.62
324.962	2.12
325.335	2.19
325.708	2.2
326.081	2.06
326.454	2.03
326.827	2.42
327.2	2.28
327.573	2.3
327.945	2.26
328.318	1.63
328.691	1.82
329.063	2.16
329.436	1.79
329.809	2.38
330.181	2.33
330.553	2.36
330.926	1.91
331.298	1.54
331.671	1.77
332.043	1.94
332.415	2.33
332.787	2.57
333.159	1.93
333.532	2.24
333.904	1.75
334.276	1.91
334.648	2.36
335.02	2.46
335.391	1.84
335.763	2.17
336.135	2.25
336.507	1.97
336.879	2.36
337.25	2.07
337.622	2.69
337.993	2.55
338.365	1.99
338.736	2.11
339.108	2.25
339.479	1.91
339.851	2.41
340.222	1.81
340.593	1.62
340.964	1.9
341.336	2.49
341.707	2
342.078	2.04
342.449	1.73
342.82	2.1
343.191	1.8
343.562	2.34
343.933	1.83
344.303	2.54
344.674	1.99
345.045	2.29
345.416	2.25
345.786	2.11
346.157	2.45
346.527	1.67
346.898	2.04
347.268	2.17
347.639	2.35
348.009	1.83
348.38	2.15
348.75	2.16
349.12	1.79
349.49	2.04
349.861	2.7
350.231	1.76
350.601	2.28
350.971	2.5
351.341	1.9
351.711	2.73
352.081	2
352.45	2.06
352.82	2.28
353.19	2.29
353.56	2.68
353.929	2.19
354.299	1.88
354.669	2.04
355.038	2.2
355.408	2.06
355.777	1.99
356.147	2.09
356.516	1.97
356.885	2.2
357.254	2.17
357.624	2.29
357.993	2.22
358.362	2.01
358.731	2.03
359.1	1.72
359.469	2.06
359.838	2.35
360.207	2.1
360.576	2.37
360.945	2.3
361.314	2.39
361.682	2.13
362.051	2.22
362.42	2.2
362.788	2.18
363.157	2.06
363.525	2.2
363.894	2.1
364.262	2.09
364.631	2.19
364.999	2.35
365.367	2.49
365.735	2.12
366.104	1.97
366.472	2.18
366.84	2.4
367.208	1.88
367.576	1.9
367.944	2.45
368.312	2.15
368.68	2.17
369.048	2.08
369.416	2.14
369.783	2.38
370.151	2.09
370.519	2.21
370.886	2.52
371.254	2.37
371.621	2.46
371.989	2.16
372.356	2.32
372.724	2.65
373.091	2.13
373.458	2.22
373.826	1.98
374.193	2.1
374.56	2.14
374.927	2.29
375.294	2.19
375.661	2.11
376.028	2.08
376.395	2.43
376.762	2.34
377.129	2.21
377.496	2.32
377.863	2.42
378.229	2.69
378.596	2.49
378.963	2.26
379.329	2.35
379.696	2.35
380.062	2.26
380.429	2.29
380.795	1.97
381.161	2.04
381.528	2.44
381.894	2.08
382.26	2.25
382.626	2.6
382.993	2.18
383.359	2.43
383.725	2.16
384.091	2.11
384.457	2.48
384.823	2.25
385.188	2.68
385.554	2.2
385.92	2.38
386.286	2.53
386.651	1.95
387.017	2.3
387.383	2.08
387.748	2.11
388.114	1.98
388.479	1.93
388.845	2.54
389.21	2.18
389.575	1.87
389.94	2.43
390.306	2.26
390.671	2.12
391.036	2.32
391.401	2.54
391.766	2.5
392.131	2.35
392.496	2.48
392.861	2.61
393.226	2.28
393.591	2.3
393.956	2.35
394.32	2.49
394.685	2.13
395.05	2.55
395.414	2.61
395.779	2.18
396.143	2.16
396.508	2.18
396.872	2.53
397.236	2.33
397.601	2.23
397.965	2.18
398.329	2.32
398.694	2.31
399.058	2.08
399.422	2.35
399.786	2.31
400.15	2.3
400.514	2.23
400.878	2.46
401.242	2.48
401.605	2.32
401.969	1.96
402.333	2.29
402.697	2.56
403.06	2.2
403.424	2.39
403.787	2.35
404.151	2.37
404.514	2.2
404.878	2.48
405.241	2.54
405.604	2.28
405.968	2.38
406.331	2.26
406.694	2.45
407.057	2.28
407.42	2.38
407.783	2.3
408.146	2.39
408.509	2.35
408.872	2.51
409.235	2.39
409.598	2.38
409.961	2.34
410.323	2.48
410.686	2.15
411.049	2.47
411.411	2.18
411.774	2.59
412.136	2.45
412.499	2.74
412.861	2.56
413.223	2.41
413.586	2.38
413.948	2.61
414.31	2.59
414.672	2.28
415.035	2.36
415.397	2.51
415.759	2.45
416.121	2.41
416.483	2.33
416.845	2.42
417.206	2.44
417.568	2.67
417.93	2.59
418.292	2.21
418.653	2.48
419.015	2.36
419.377	2.2
419.738	2.42
420.1	2.18
420.461	2.34
420.822	2.24
421.184	2.32
421.545	2.43
421.906	2.42
422.267	2.36
422.629	2.41
422.99	2.26
423.351	2.32
423.712	2.27
424.073	2.31
424.434	2.38
424.795	2.29
425.155	2.38
425.516	2.4
425.877	2.4
426.238	2.3
426.598	2.37
426.959	2.34
427.32	2.28
427.68	2.3
428.041	2.36
428.401	2.53
428.761	2.53
429.122	2.32
429.482	2.44
429.842	2.39
430.202	2.44
430.563	2.4
430.923	2.59
431.283	2.28
431.643	2.58
432.003	2.61
432.363	2.28
432.722	2.49
433.082	2.41
433.442	2.46
433.802	2.59
434.161	2.43
434.521	2.61
434.881	2.44
435.24	2.46
435.6	2.48
435.959	2.38
436.319	2.55
436.678	2.47
437.037	2.42
437.396	2.68
437.756	2.54
438.115	2.44
438.474	2.47
438.833	2.55
439.192	2.37
439.551	2.46
439.91	2.41
440.269	2.56
440.628	2.58
440.987	2.5
441.345	2.36
441.704	2.57
442.063	2.44
442.421	2.45
442.78	2.39
443.138	2.62
443.497	2.5
443.855	2.48
444.214	2.37
444.572	2.49
444.93	2.56
445.288	2.56
445.647	2.84
446.005	2.33
446.363	2.47
446.721	2.52
447.079	2.61
447.437	2.61
447.795	2.46
448.153	2.34
448.51	2.46
448.868	2.41
449.226	2.4
449.584	2.47
449.941	2.45
450.299	2.49
450.656	2.5
451.014	2.56
451.371	2.59
451.729	2.46
452.086	2.53
452.443	2.62
452.801	2.5
453.158	2.59
453.515	2.54
453.872	2.51
454.229	2.64
454.586	2.65
454.943	2.62
455.3	2.48
455.657	2.67
456.014	2.49
456.371	2.54
456.727	2.62
457.084	2.66
457.441	2.59
457.797	2.54
458.154	2.51
458.51	2.51
458.867	2.71
459.223	2.48
459.58	2.59
459.936	2.54
460.292	2.62
460.648	2.52
461.005	2.56
461.361	2.5
461.717	2.36
462.073	2.59
462.429	2.59
462.785	2.52
463.141	2.66
463.496	2.59
463.852	2.66
464.208	2.68
464.564	2.74
464.919	2.54
465.275	2.82
465.631	2.69
465.986	2.7
466.342	2.6
466.697	2.52
467.052	2.58
467.408	2.66
467.763	2.79
468.118	2.86
468.473	2.67
468.829	2.58
469.184	2.61
469.539	2.71
469.894	2.58
470.249	2.66
470.603	2.51
470.958	2.63
471.313	2.76
471.668	2.74
472.023	2.71
472.377	2.64
472.732	2.46
473.086	2.73
473.441	2.85
473.795	2.97
474.15	2.61
474.504	2.57
474.859	2.78
475.213	2.78
475.567	2.83
475.921	2.75
476.275	2.72
476.63	3.06
476.984	2.9
477.338	2.67
477.692	2.74
478.045	2.72
478.399	2.63
478.753	2.85
479.107	2.67
479.461	2.75
479.814	2.77
480.168	2.81
480.521	2.83
480.875	2.63
481.228	2.8
481.582	2.71
481.935	2.72
482.289	2.84
482.642	2.65
482.995	2.55
483.348	2.77
483.701	2.69
484.055	2.73
484.408	2.63
484.761	2.57
485.114	2.58
485.466	2.53
485.819	2.51
486.172	2.41
486.525	2.44
486.878	2.52
487.23	2.54
487.583	2.56
487.936	2.58
488.288	2.54
488.641	2.67
488.993	2.56
489.345	2.6
489.698	2.57
490.05	2.54
490.402	2.55
490.754	2.57
491.107	2.6
491.459	2.69
491.811	2.59
492.163	2.76
492.515	2.75
492.866	2.74
493.218	2.61
493.57	2.52
493.922	2.6
494.274	2.63
494.625	2.62
494.977	2.61
495.328	2.72
495.68	2.66
496.031	2.61
496.383	2.8
496.734	2.8
497.086	2.85
497.437	2.78
497.788	2.76
498.139	2.91
498.49	2.81
498.842	2.64
499.193	2.76
499.544	2.8
499.894	2.86
500.245	2.75
500.596	2.75
500.947	2.82
501.298	2.76
501.648	2.8
501.999	2.81
502.35	2.82
502.7	2.96
503.051	2.9
503.401	2.85
503.752	2.86
504.102	2.95
504.452	2.75
504.803	2.91
505.153	2.89
505.503	2.88
505.853	2.96
506.203	2.76
506.553	2.85
506.903	2.84
507.253	2.89
507.603	2.86
507.953	2.84
508.303	2.89
508.652	2.97
509.002	2.93
509.352	3.03
509.701	2.84
510.051	2.85
510.4	2.94
510.75	2.89
511.099	2.84
511.449	2.99
511.798	2.95
512.147	2.89
512.496	2.93
512.846	2.82
513.195	2.95
513.544	3.03
513.893	2.82
514.242	2.89
514.591	2.92
514.939	2.8
515.288	2.88
515.637	2.94
515.986	2.9
516.334	2.96
516.683	3.03
517.032	2.93
517.38	2.84
517.729	2.97
518.077	3.05
518.426	2.92
518.774	2.93
519.122	2.97
519.47	2.91
519.819	2.85
520.167	2.89
520.515	2.88
520.863	3
521.211	2.85
521.559	2.95
521.907	2.91
522.255	2.93
522.602	3.07
522.95	2.92
523.298	3.02
523.645	3.08
523.993	2.91
524.341	3.01
524.688	3.06
525.036	3.07
525.383	2.96
525.73	3.19
526.078	2.95
526.425	3.12
526.772	2.96
527.119	3.04
527.466	2.96
527.814	2.96
528.161	3.05
528.508	2.87
528.854	3.04
529.201	2.98
529.548	2.99
529.895	3.04
530.242	2.95
530.588	2.87
530.935	2.85
531.282	2.91
531.628	2.99
531.975	2.89
532.321	2.97
532.667	3
533.014	3.01
533.36	3.1
533.706	3.13
534.052	3.07
534.399	2.95
534.745	2.96
535.091	3
535.437	3.12
535.783	2.99
536.129	3.1
536.474	3.1
536.82	3.2
537.166	3.13
537.512	3.19
537.857	3.18
538.203	3.16
538.549	3.34
538.894	3.19
539.239	3.18
539.585	3.12
539.93	3.17
540.276	3.27
540.621	3.31
540.966	3.23
541.311	3.31
541.656	3.36
542.001	3.36
542.346	3.27
542.691	3.2
543.036	3.19
543.381	3.15
543.726	3.13
544.071	3.19
544.415	3.16
544.76	3.16
545.105	3.25
545.449	3.25
545.794	3.32
546.138	3.34
546.483	3.27
546.827	3.32
547.171	3.43
547.516	3.32
547.86	3.42
548.204	3.28
548.548	3.46
548.892	3.26
549.236	3.44
549.58	3.28
549.924	3.38
550.268	3.4
550.612	3.42
550.956	3.53
551.3	3.45
551.643	3.44
551.987	3.66
552.33	3.53
552.674	3.48
553.017	3.57
553.361	3.65
553.704	3.66
554.048	3.6
554.391	3.7
554.734	3.73
555.077	3.54
555.42	3.58
555.764	3.59
556.107	3.71
556.45	3.42
556.793	3.56
557.135	3.47
557.478	3.69
557.821	3.73
558.164	3.74
558.507	3.86
558.849	3.79
559.192	3.95
559.534	3.94
559.877	3.6
560.219	3.83
560.562	3.84
560.904	3.46
561.246	3.87
561.589	3.65
561.931	3.86
562.273	4.01
562.615	3.92
562.957	3.8
563.299	3.87
563.641	3.86
563.983	3.85
564.325	3.88
564.667	3.93
565.008	3.99
565.35	3.75
565.692	3.84
566.033	4.06
566.375	4.07
566.716	3.85
567.058	3.87
567.399	4.12
567.741	3.97
568.082	3.94
568.423	3.97
568.764	3.91
569.105	4.02
569.447	3.97
569.788	4.04
570.129	3.95
570.47	4.08
570.811	4.05
571.151	3.97
571.492	4.26
571.833	4.29
572.174	4.21
572.514	4.16
572.855	4.09
573.195	4.36
573.536	3.94
573.876	4.36
574.217	4.04
574.557	4.11
574.898	4.04
575.238	4.02
575.578	4.19
575.918	4.11
576.258	4.3
576.598	4.3
576.938	4.31
577.278	4.29
577.618	4.08
577.958	4.2
578.298	4.2
578.638	4.28
578.977	4.31
579.317	4.43
579.657	4.34
579.996	4.42
580.336	4.55
580.675	4.48
581.014	4.4
581.354	4.4
581.693	4.53
582.032	4.69
582.372	4.54
582.711	4.66
583.05	4.91
583.389	4.58
583.728	4.52
584.067	4.64
584.406	4.88
584.745	4.66
585.083	4.61
585.422	4.63
585.761	4.56
586.1	4.63
586.438	4.39
586.777	4.76
587.115	4.92
587.454	4.96
587.792	4.69
588.13	5.13
588.469	4.93
588.807	4.5
589.145	4.83
589.483	4.82
589.821	4.87
590.159	4.91
590.497	4.72
590.835	4.86
591.173	4.98
591.511	4.78
591.849	4.65
592.187	4.78
592.524	4.73
592.862	4.85
593.2	4.89
593.537	4.67
593.875	4.88
594.212	5.01
594.55	5.09
594.887	5.06
595.224	4.7
595.561	4.86
595.899	4.62
596.236	5.1
596.573	5.39
596.91	5.16
597.247	5.04
597.584	4.99
597.921	5.16
598.258	5.13
598.594	5.23
598.931	5.11
599.268	5
599.604	5.26
599.941	5.29
600.277	5.26
600.614	5.28
600.95	5.14
601.287	5.13
601.623	5.27
601.959	5.2
602.296	5.29
602.632	5.6
602.968	5.34
603.304	5.66
603.64	5.34
603.976	5.35
604.312	5.46
604.648	5.46
604.984	5.44
605.319	5.41
605.655	5.29
605.991	5.43
606.326	5.29
606.662	5.24
606.998	5.23
607.333	5.44
607.668	5.4
608.004	5.63
608.339	5.57
608.674	5.56
609.01	5.5
609.345	5.86
609.68	5.8
610.015	5.74
610.35	5.62
610.685	5.66
611.02	5.7
611.355	5.71
611.689	5.64
612.024	5.7
612.359	5.8
612.694	5.71
613.028	5.79
613.363	5.82
613.697	5.87
614.032	5.96
614.366	6.19
614.7	5.93
615.035	6.11
615.369	5.91
615.703	5.57
616.037	6.16
616.371	6.14
616.705	6.14
617.039	5.97
617.373	6.17
617.707	6.21
618.041	6.04
618.375	5.97
618.709	6.08
619.042	6.21
619.376	6.39
619.71	6.41
620.043	6.51
620.377	5.99
620.71	6.28
621.043	6.57
621.377	5.93
621.71	6.07
622.043	6.03
622.376	6.29
622.709	6.45
623.043	6.59
623.376	6.36
623.709	6.13
624.041	6.54
624.374	6.23
624.707	6.06
625.04	6.46
625.373	6.88
625.705	6.38
626.038	6.4
626.37	5.98
626.703	6.33
627.035	6.44
627.368	6.24
627.7	6.82
628.032	6.66
628.365	6.59
628.697	6.5
629.029	6.5
629.361	6.39
629.693	6.6
630.025	6.75
630.357	6.7
630.689	6.4
631.021	7.22
631.353	6.71
631.684	6.63
632.016	6.82
632.348	6.53
632.679	6.77
633.011	7.15
633.342	6.91
633.674	6.75
634.005	7.02
634.336	7.38
634.668	6.98
634.999	6.71
635.33	6.48
635.661	7.33
635.992	7.1
636.323	7.28
636.654	7.31
636.985	6.84
637.316	7.12
637.647	7.16
637.977	6.7
638.308	7.64
638.639	7.34
638.969	7.18
639.3	6.86
639.63	7.23
639.961	7.07
640.291	7.21
640.622	7.14
640.952	7.32
641.282	7.12
641.612	7.05
641.943	7.69
642.273	7.26
642.603	7.93
642.933	7.25
643.263	7.8
643.592	7.23
643.922	7.83
644.252	7.33
644.582	7.25
644.911	7.65
645.241	7.42
645.571	7.91
645.9	7.64
646.23	7.58
646.559	7.39
646.888	7.6
647.218	8.01
647.547	7.32
647.876	8.02
648.205	8
648.534	7.74
648.863	7.78
649.192	7.3
649.521	7.5
649.85	8.05
650.179	7.82
650.508	7.57
650.837	7.84
651.165	8.01
651.494	7.85
651.822	7.93
652.151	8.33
652.479	8.22
652.808	7.84
653.136	8.02
653.465	8.18
653.793	7.98
654.121	8.31
654.449	7.78
654.777	7.72
655.105	7.99
655.433	8.32
655.761	8.58
656.089	8.13
656.417	8.21
656.745	8.16
657.073	8.08
657.4	8.81
657.728	8.59
658.056	8.31
658.383	7.85
658.711	7.7
659.038	8.7
659.365	8.93
659.693	8.51
660.02	8.4
660.347	8.52
660.674	8.25
661.001	8.45
661.329	8.96
661.656	8.6
661.982	8.27
662.309	8.82
662.636	8.59
662.963	8.62
663.29	8.64
663.616	8.95
663.943	8.47
664.27	9.02
664.596	8.59
664.923	8.44
665.249	8.57
665.576	8.96
665.902	8.73
666.228	9.1
666.554	9.05
666.881	8.76
667.207	9.18
667.533	8.16
667.859	9.2
668.185	9.11
668.511	9.16
668.837	9.03
669.162	9.27
669.488	9.34
669.814	8.63
670.139	9.07
670.465	9
670.791	9.26
671.116	8.81
671.442	9.55
671.767	9.07
672.092	9.03
672.418	8.8
672.743	9.26
673.068	9.91
673.393	9.45
673.718	8.72
674.043	9.11
674.368	9.41
674.693	9.25
675.018	9.47
675.343	9.1
675.667	9.71
675.992	9.87
676.317	10.17
676.641	9.69
676.966	9.79
677.29	9.99
677.615	9.94
677.939	8.91
678.264	9.48
678.588	9.34
678.912	9.89
679.236	8.98
679.56	9.06
679.885	9.32
680.209	9.68
680.532	10.14
680.856	9.94
681.18	10.21
681.504	10.07
681.828	9.65
682.152	10.35
682.475	9.56
682.799	9.69
683.122	9.9
683.446	10.01
683.769	10.04
684.093	10.04
684.416	10.26
684.739	10.05
685.062	9.13
685.386	9.8
685.709	9.64
686.032	9.79
686.355	10.23
686.678	9.85
687.001	10.7
687.324	9.46
687.646	9.84
687.969	10.41
688.292	10.19
688.614	10.1
688.937	9.61
689.26	10.17
689.582	9.56
689.904	10.06
690.227	10.89
690.549	10.15
690.871	10.79
691.194	10.43
691.516	10.44
691.838	10.71
692.16	10.41
692.482	10.13
692.804	10.77
693.126	10.41
693.448	10.85
693.769	10.33
694.091	10.88
694.413	10.51
694.735	10.01
695.056	10.08
695.378	11.54
695.699	11.18
696.021	10.58
696.342	10.6
696.663	10.75
696.984	10.4
697.306	10.59
697.627	10.7
697.948	10.76
698.269	10.83
698.59	10.95
698.911	10.6
699.232	10.65
699.553	10.43
699.873	10.95
700.194	11.64
700.515	10.83
700.835	10.96
701.156	11.4
701.477	10.62
701.797	10.88
702.117	11.19
702.438	11.2
702.758	10.62
703.078	11.01
703.398	11.33
703.719	11.01
704.039	11.53
704.359	11.52
704.679	11.65
704.999	11.4
705.319	11.16
705.638	11.2
705.958	11.59
706.278	10.65
706.597	11.81
706.917	10.81
707.237	11.54
707.556	9.97
707.876	11.59
708.195	12.27
708.514	11.49
708.834	11.52
709.153	11.34
709.472	11.83
709.791	12.79
710.11	11.98
710.429	10.9
710.748	12.22
711.067	11.53
711.386	11.58
711.705	12.01
712.023	12.17
712.342	11.94
712.661	11.34
712.979	11.83
713.298	11.85
713.616	12.05
713.935	12.88
714.253	12.36
714.572	12.27
714.89	12.25
715.208	11.57
715.526	12.07
715.844	11.91
716.162	11.69
716.48	12.34
716.798	11.7
717.116	12.17
717.434	11.84
717.752	12.21
718.069	12.19
718.387	11.69
718.705	11.55
719.022	12.17
719.34	12.31
719.657	11.67
719.975	12.64
720.292	12.4
720.609	12.51
720.927	12.69
721.244	11.43
721.561	14.05
721.878	11.62
722.195	11.47
722.512	12.97
722.829	13.17
723.146	12.49
723.463	11.69
723.779	13.34
724.096	13.19
724.413	12.12
724.729	12.14
725.046	13.92
725.362	13.41
725.679	12.2
725.995	13.64
726.311	13.83
726.628	13.93
726.944	14.2
727.26	12.83
727.576	11
727.892	13.51
728.208	12.78
728.524	12.54
728.84	13.42
729.156	13.58
729.472	12.29
729.787	13.34
730.103	13.94
730.419	12.91
730.734	11.92
731.05	12.87
731.365	12.07
731.681	14.1
731.996	13.65
732.311	14.83
732.626	12.69
732.942	12.71
733.257	12.82
733.572	13.24
733.887	13.37
734.202	12.84
734.517	14.27
734.832	13.53
735.146	13.73
735.461	13.86
735.776	13.95
736.091	14.58
736.405	12.62
736.72	13.53
737.034	13.86
737.349	14.09
737.663	13.03
737.977	14.21
738.292	11.86
738.606	12.53
738.92	13.39
739.234	12.45
739.548	12.08
739.862	11.52
740.176	14.97
740.49	13.32
740.804	16.15
741.117	14.61
741.431	15.56
741.745	13.8
742.058	13.1
742.372	13.64
742.685	13.9
742.999	14.33
743.312	15.1
743.626	15.41
743.939	16.54
744.252	12.78
744.565	14.86
744.878	11.81
745.191	14.72
745.505	12.91
745.817	16.13
746.13	12.74
746.443	16.52
746.756	14.65
747.069	13.81
747.381	14.33
747.694	14.12
748.007	14.69
748.319	15.48
748.632	14.1
748.944	15.73
749.256	15.94
749.569	15.18
749.881	14.89
750.193	15.32
750.505	14.31
750.817	15.15
751.129	16.2
751.441	13.64
751.753	12.29
752.065	16.63
752.377	15.26
752.689	15.04
753	15.46
753.312	12.95
753.624	12.83
753.935	14.81
754.247	13.51
754.558	14.63
754.869	16.2
755.181	14.58
755.492	15
755.803	14.5
756.114	15
756.425	14.75
756.736	15.38
757.047	13.75
757.358	15.63
757.669	15.47
757.98	13.95
758.291	15.79
758.601	15.46
758.912	15.88
759.223	12.93
759.533	16.19
759.844	16.37
760.154	15.86
760.464	17.13
760.775	16.05
761.085	15.51
761.395	16.92
761.705	13.94
762.016	17.89
762.326	17.58
762.636	16.42
762.945	15.4
763.255	15.42
763.565	16.6
763.875	16.45
764.185	15.69
764.494	15.3
764.804	16.46
765.113	15.11
765.423	14.02
765.732	15.5
766.042	15.76
766.351	15.96
766.66	15.37
766.97	15.08
767.279	15.19
767.588	14.76
767.897	16.99
768.206	16.84
768.515	15.14
768.824	16.15
769.133	15.65
769.441	15.3
769.75	14.62
770.059	16.84
770.367	16.49
770.676	19.17
770.984	15.97
771.293	16.88
771.601	15.77
771.91	15.23
772.218	16.93
772.526	15.34
772.834	17.96
773.142	15.68
773.45	15.57
773.758	17.28
774.066	16.74
774.374	15.29
774.682	18.55
774.99	14.18
775.298	13.21
775.605	15.37
775.913	16.97
776.22	14.43
776.528	17.08
776.835	19.5
777.143	13.87
777.45	18.72
777.757	18.33
778.065	19.14
778.372	21.53
778.679	17
778.986	18.05
779.293	17.91
779.6	16.32
779.907	18.49
780.214	17.08
780.52	18.15
780.827	17.7
781.134	13.34
781.44	15.9
781.747	17.29
782.053	17.21
782.36	13.4
782.666	16.57
782.973	15.45
783.279	14.92
783.585	16.31
783.891	11.59
784.197	17.17
784.503	17.59
784.809	14.76
785.115	17.56
785.421	17.32
785.727	21.55
786.033	17.19
786.339	14.35
786.644	15.71
786.95	19.41
787.255	19.48
787.561	18.47
787.866	19.64
788.172	22.05
788.477	16.13
788.782	13.87
789.088	20.97
789.393	21.71
789.698	12.05
790.003	15.41
790.308	18.89
790.613	14.78
790.918	17.46
791.223	17.17
791.527	14.98
791.832	22.47
792.137	25.07
792.441	20.39
792.746	17.13
793.05	19.84
793.355	17.35
793.659	19.66
793.963	21.39
794.268	17.34
794.572	15.41
794.876	14.25
795.18	18.45
795.484	20.12
795.788	14.46
796.092	15.78
796.396	19.08
796.7	18.55
797.004	15.86
797.307	19.4
797.611	17.11
797.915	14.54
798.218	18.84
798.522	22.49
798.825	20.96
799.128	19.74
799.432	14.36
799.735	17.24
800.038	16.74
800.341	11.12
800.644	23.86
800.947	19.39
801.25	17.98
801.553	17.34
801.856	17.2
802.159	18.8
802.462	21.17
802.764	17.99
803.067	17.74
803.37	18.22
803.672	17.11
803.975	17.67
804.277	16.09
804.579	12.34
804.882	18.2
805.184	17.04
805.486	17.99
805.788	22.67
806.09	18.28
806.392	18.53
806.694	20.83
806.996	21.63
807.298	20.32
807.6	19.76
807.902	18.06
808.203	18.92
808.505	21.99
808.807	17.28
809.108	15.94
809.409	18.97
809.711	13.87
810.012	20.99
810.313	16.86
810.615	13.55
810.916	22.31
811.217	12.77
811.518	12.59
811.819	22.9
812.12	19.05
812.421	13.63
812.722	23.57
813.023	19.18
813.323	18.24
813.624	20.85
813.925	17.21
814.225	19.75
814.526	20.38
814.826	21.33
815.126	27.23
815.427	23.21
815.727	22.9
816.027	19.59
816.327	17.83
816.627	24.5
816.927	18.11
817.227	19.4
817.527	15.89
817.827	21.39
818.127	21.64
818.427	18.74
818.727	20.14
819.026	18.57
819.326	19.93
819.625	18.94
819.925	21.36
820.224	21.72
820.524	22.3
820.823	13.19
821.122	21.9
821.421	23.16
821.72	27.88
822.019	20.9
822.318	19.03
822.617	16.03
822.916	21.33
823.215	17.5
823.514	21.62
823.813	20.04
824.111	22.29
824.41	19.21
824.709	22.76
825.007	18.72
825.306	20.46
825.604	20.76
825.902	21.66
826.201	21.13
826.499	22.36
826.797	20.25
827.095	21.86
827.393	21.41
827.691	21.43
827.989	21.24
828.287	21.97
828.585	21.3
828.882	22.05
829.18	21.3
829.478	22.2
829.775	22.39
830.073	21.55
830.37	21.85
830.668	21
830.965	19.46
831.263	23.54
831.56	22.61
831.857	21.08
832.154	22.52
832.451	21.72
832.748	23.18
833.045	19.5
833.342	25.01
833.639	24.26
833.936	21.12
834.232	25.03
834.529	24.41
834.826	18.94
835.122	20.37
835.419	27.45
835.715	22.41
836.012	22.44
836.308	21.14
836.604	21.86
836.901	21.36
837.197	26.29
837.493	22.21
837.789	22.28
838.085	21.83
838.381	24.79
838.677	22
838.972	25.46
839.268	17.06
839.564	20.1
839.86	19.81
840.155	20.83
840.451	20.16
840.746	24.16
841.042	19.84
841.337	24.75
841.632	24.01
841.928	26.5
842.223	28.3
842.518	17.51
842.813	35.32
843.108	27.29
843.403	21.76
843.698	21.49
843.993	26.13
844.287	22.49
844.582	26.26
844.877	23.13
845.171	27.3
845.466	22.69
845.761	16.07
846.055	25.88
846.349	20.91
846.644	23.16
846.938	21.54
847.232	28.16
847.526	24.94
847.82	10.88
848.114	34.26
848.408	28.08
848.702	9.17
848.996	18.82
849.29	18.54
849.584	20.83
849.877	33.95
850.171	30.28
850.465	3.53
850.758	-0.37
851.052	16.5
851.345	27.58
851.638	7.21
851.932	12.63
852.225	31.51
852.518	39.26
852.811	28.05
853.104	39.63
853.397	27.23
853.69	20.83
853.983	15.72
854.276	31.33
854.569	47.26
854.861	14.92
855.154	57.03
855.447	24.89
855.739	28.29
856.032	27.57
856.324	26.49
856.616	-0.99
856.909	40.17
857.201	8.4
857.493	4.04
857.785	16.52
858.077	46.68
858.369	38.45
858.661	7.61
858.953	26.2
859.245	-6.57
859.537	24.14
859.829	35.57
860.12	30.29
860.412	19.01
860.703	21.1
860.995	37.37
861.286	42.34
861.578	36.14
861.869	25.01
862.16	-1.89
862.452	39.37
862.743	15.41
863.034	37.81
863.325	34.86
863.616	8.76
863.907	2.7
864.198	19.58
864.488	20.56
864.779	33.78
865.07	25.84
865.36	27.79
865.651	22.71
865.941	33.49
866.232	11.61
866.522	19.83
866.813	2.95
867.103	40.84
867.393	43.21
867.683	26.62
867.973	47.98
868.263	51.43
868.553	25.82
868.843	16.88
869.133	41.33
869.423	26.75
869.713	35.7
870.002	18.59
870.292	4.31
870.582	40.22
870.871	-7.74
871.161	35.13
871.45	33.62
871.739	31.27
872.029	16.17
872.318	28.47
872.607	36.15
872.896	28.23
873.185	28.83
873.474	41.62
873.763	37.84
874.052	20.06
874.341	34.13
874.63	23.87
874.918	16.73
875.207	19.2
875.496	18.65
875.784	41.75
876.073	9.87
876.361	39.1
876.649	9.43
876.938	41.28
877.226	34.44
877.514	23.62
877.802	19.66
878.09	0.26
878.378	42.94
878.666	31.8
878.954	8.93
879.242	50.63
879.53	38.34
879.817	47.83
880.105	12.91
880.392	69.06
880.68	47.54
880.967	14.51
881.255	38.27
881.542	9.69
881.83	47.01
882.117	39.33
882.404	11.42
882.691	31.08
882.978	22.48
883.265	1.78
883.552	22.6
883.839	18.9
884.126	20.54
884.413	20.12
884.699	31.12
884.986	28.05
885.273	29.57
885.559	29.57
885.846	29.57
