Data from 0284_crown_Reflection__4__240.txt Node

Date: Fri Oct 20 22:35:29 CDT 2023
User: ToomeyLab
Spectrometer: FLMS14357
Trigger mode: 0
Integration Time (sec): 1.000000E-2
Scans to average: 100
Electric dark correction enabled: true
Nonlinearity correction enabled: false
Boxcar width: 0
XAxis mode: Wavelengths
Number of Pixels in Spectrum: 2048
>>>>>Begin Spectral Data<<<<<
189.047	0.39
189.435	0.39
189.823	0.39
190.211	-15.94
190.599	-16788.89
190.987	30.89
191.375	50.23
191.763	-172.1
192.151	-76.86
192.538	41.3
192.926	48.88
193.314	115.68
193.702	138.21
194.089	292.53
194.477	-552.14
194.864	1694.27
195.252	138.47
195.639	38.78
196.027	80.63
196.414	243.7
196.801	55.34
197.189	-25.45
197.576	-806.59
197.963	270.72
198.351	38.87
198.738	18.89
199.125	36.67
199.512	45.04
199.899	0.43
200.286	-40.3
200.673	44.18
201.06	4.96
201.447	-6.85
201.833	20.67
202.22	-12.34
202.607	52.07
202.994	12.85
203.38	4.22
203.767	10.49
204.154	53.96
204.54	39.72
204.927	6.85
205.313	39.42
205.699	38.37
206.086	3.93
206.472	44.68
206.858	66.07
207.245	-9.25
207.631	34.39
208.017	13.55
208.403	8.59
208.789	11.76
209.175	-16.9
209.561	57.39
209.947	-2.35
210.333	32.76
210.719	57.04
211.105	68.19
211.491	7.09
211.876	-30.51
212.262	17.99
212.648	11.27
213.034	10.88
213.419	23.1
213.805	-18.76
214.19	25.67
214.576	7.31
214.961	25.54
215.346	26.7
215.732	-14.93
216.117	-84.32
216.502	-10.61
216.888	-0.75
217.273	6.28
217.658	-3.01
218.043	-21.78
218.428	-10.83
218.813	6.55
219.198	19.3
219.583	10.95
219.968	25.54
220.353	-13.49
220.738	1.28
221.122	9.88
221.507	10.14
221.892	4.08
222.276	0.43
222.661	13.39
223.046	2.19
223.43	-0.64
223.815	11.11
224.199	22.13
224.583	1.13
224.968	7.18
225.352	4.97
225.736	-3.92
226.121	14.91
226.505	6.19
226.889	14.15
227.273	15.85
227.657	14.59
228.041	13.99
228.425	10.86
228.809	10.39
229.193	11.38
229.577	11.89
229.961	9.33
230.344	10.09
230.728	9.99
231.112	10.63
231.495	9.23
231.879	10.39
232.263	10.86
232.646	9.1
233.03	8.47
233.413	9.49
233.797	8.79
234.18	10.02
234.563	9.92
234.946	9.23
235.33	10
235.713	8.74
236.096	10.4
236.479	9.36
236.862	9.93
237.245	8.81
237.628	9.78
238.011	11.52
238.394	7.78
238.777	10.86
239.16	9.82
239.543	10.12
239.925	10.95
240.308	9.47
240.691	9.84
241.073	11.3
241.456	9.6
241.838	9.3
242.221	10.54
242.603	9.18
242.986	9.27
243.368	10.12
243.75	9.46
244.133	9.43
244.515	9.32
244.897	9.3
245.279	9.5
245.661	9.45
246.043	9.26
246.425	9.18
246.807	8.81
247.189	9.02
247.571	8.82
247.953	9.07
248.335	9.95
248.717	9.07
249.098	9.03
249.48	8.88
249.862	9.2
250.243	9.4
250.625	8.98
251.006	9.2
251.388	9.13
251.769	9.43
252.151	9.35
252.532	9.05
252.913	8.45
253.295	8.63
253.676	9.12
254.057	8.77
254.438	9.16
254.819	8.66
255.2	8.89
255.581	9.66
255.962	8.07
256.343	9.05
256.724	8.15
257.105	8.15
257.486	9.18
257.867	8.36
258.247	8.74
258.628	8.66
259.009	8.41
259.389	8.46
259.77	7.75
260.15	8.82
260.531	8.87
260.911	8.67
261.292	8.34
261.672	8.67
262.052	8.57
262.432	8.38
262.813	8.47
263.193	8.69
263.573	8.48
263.953	8.56
264.333	8.64
264.713	8.45
265.093	8.82
265.473	9.12
265.853	8.12
266.233	8.08
266.612	7.96
266.992	8.06
267.372	7.62
267.752	8.15
268.131	8.46
268.511	8.47
268.89	8.61
269.27	7.74
269.649	7.63
270.029	8.33
270.408	8.37
270.787	8.3
271.167	7.71
271.546	8.03
271.925	8.1
272.304	8.15
272.683	8.48
273.062	8.3
273.441	8.59
273.82	7.94
274.199	8.4
274.578	8.62
274.957	8.23
275.336	8.14
275.715	8.52
276.093	8.26
276.472	7.91
276.851	8.24
277.229	8.37
277.608	7.61
277.986	7.76
278.365	8.43
278.743	7.51
279.122	7.84
279.5	7.71
279.878	7.58
280.257	7.81
280.635	7.73
281.013	7.75
281.391	8.27
281.769	7.84
282.147	6.95
282.525	7.55
282.903	7.86
283.281	8.2
283.659	7.44
284.037	7.86
284.415	7.46
284.792	7.29
285.17	7.34
285.548	7.42
285.925	7.37
286.303	6.92
286.68	7.21
287.058	7.83
287.435	7.22
287.813	6.81
288.19	7.23
288.567	7.26
288.945	7.31
289.322	7.87
289.699	6.89
290.076	7.26
290.453	7.13
290.83	6.62
291.207	7.73
291.584	7.08
291.961	7.3
292.338	6.79
292.715	7.22
293.092	7.21
293.469	7.37
293.845	6.93
294.222	6.89
294.599	7.17
294.975	7.32
295.352	7.11
295.728	7.18
296.105	6.7
296.481	7.06
296.858	6.99
297.234	7.25
297.61	6.73
297.986	6.72
298.363	7.04
298.739	6.68
299.115	6.9
299.491	6.77
299.867	6.78
300.243	6.73
300.619	6.68
300.995	6.48
301.371	6.8
301.746	6.45
302.122	6.65
302.498	6.66
302.874	6.39
303.249	6.42
303.625	6.42
304	7.24
304.376	6.28
304.751	5.94
305.127	6.04
305.502	6.95
305.878	6.71
306.253	6.47
306.628	6.45
307.003	6.21
307.378	6.02
307.754	6.7
308.129	6.96
308.504	6.33
308.879	6.77
309.254	6.64
309.629	6.44
310.003	5.72
310.378	6.48
310.753	6.32
311.128	6.62
311.502	6.36
311.877	6.57
312.252	6.05
312.626	6.42
313.001	6.24
313.375	6.23
313.75	6.19
314.124	6.33
314.498	6.65
314.873	5.92
315.247	6.46
315.621	6.35
315.995	6.78
316.369	6.23
316.743	6.36
317.117	6.06
317.491	5.48
317.865	6.11
318.239	6.15
318.613	5.89
318.987	6.15
319.361	5.69
319.734	6.05
320.108	5.17
320.482	6.65
320.855	6.35
321.229	7.09
321.602	6.04
321.976	5.91
322.349	6.51
322.723	5.68
323.096	5.88
323.469	5.64
323.843	5.88
324.216	5.82
324.589	6.15
324.962	6.7
325.335	6.2
325.708	5.93
326.081	6.07
326.454	5.99
326.827	6.2
327.2	6.47
327.573	6.25
327.945	5.56
328.318	5.72
328.691	5.76
329.063	6.12
329.436	5.63
329.809	5.99
330.181	5.98
330.553	5.84
330.926	6.1
331.298	5.32
331.671	5.6
332.043	5.38
332.415	6.08
332.787	6.1
333.159	5.62
333.532	5.93
333.904	5.65
334.276	5.44
334.648	5.47
335.02	6.21
335.391	5.7
335.763	5.86
336.135	5.84
336.507	6.12
336.879	5.91
337.25	6.01
337.622	5.88
337.993	6.23
338.365	5.76
338.736	5.7
339.108	6.07
339.479	5.5
339.851	6.59
340.222	5.77
340.593	5.15
340.964	5.56
341.336	6.04
341.707	5.88
342.078	6.05
342.449	5.8
342.82	5.96
343.191	5.93
343.562	5.5
343.933	5.48
344.303	5.62
344.674	6.19
345.045	5.86
345.416	6.01
345.786	6
346.157	6.2
346.527	5.69
346.898	5.82
347.268	6.17
347.639	6.26
348.009	6.07
348.38	6.07
348.75	5.66
349.12	6.07
349.49	5.95
349.861	6.33
350.231	5.65
350.601	5.93
350.971	6.37
351.341	6.11
351.711	6.32
352.081	6.14
352.45	6.11
352.82	6.25
353.19	6.47
353.56	6.33
353.929	6.07
354.299	6.16
354.669	5.97
355.038	6.36
355.408	6.44
355.777	6.1
356.147	6.02
356.516	5.71
356.885	6.32
357.254	6.29
357.624	6.39
357.993	6.02
358.362	6.19
358.731	5.69
359.1	5.8
359.469	5.95
359.838	6.2
360.207	5.99
360.576	6.28
360.945	5.99
361.314	6.1
361.682	6.18
362.051	5.65
362.42	6.35
362.788	6.09
363.157	6.12
363.525	5.88
363.894	6.17
364.262	6.23
364.631	6.39
364.999	6.32
365.367	6.39
365.735	6.13
366.104	6.33
366.472	6.3
366.84	6.51
367.208	6.29
367.576	6.17
367.944	6.6
368.312	6.26
368.68	6.13
369.048	6.4
369.416	6.53
369.783	6.35
370.151	6.32
370.519	6.31
370.886	6.57
371.254	6.7
371.621	6.9
371.989	6.4
372.356	6.49
372.724	6.59
373.091	6.45
373.458	6.37
373.826	6.42
374.193	6.38
374.56	6.67
374.927	6.66
375.294	6.62
375.661	6.54
376.028	6.73
376.395	6.9
376.762	6.4
377.129	6.61
377.496	6.76
377.863	7.17
378.229	6.86
378.596	6.72
378.963	6.48
379.329	6.75
379.696	6.68
380.062	6.85
380.429	6.64
380.795	6.61
381.161	6.49
381.528	7.09
381.894	6.62
382.26	6.72
382.626	7
382.993	6.98
383.359	6.69
383.725	6.86
384.091	6.95
384.457	7.05
384.823	6.78
385.188	7.2
385.554	6.72
385.92	6.91
386.286	7.06
386.651	6.56
387.017	6.86
387.383	6.93
387.748	6.72
388.114	6.71
388.479	6.88
388.845	7.44
389.21	6.6
389.575	6.88
389.94	6.87
390.306	6.95
390.671	6.66
391.036	6.89
391.401	6.92
391.766	6.99
392.131	7.01
392.496	6.87
392.861	7.01
393.226	6.89
393.591	7.07
393.956	7.07
394.32	7.12
394.685	7.08
395.05	7.5
395.414	7.21
395.779	6.87
396.143	7
396.508	6.92
396.872	7.21
397.236	6.99
397.601	7.06
397.965	6.99
398.329	7.02
398.694	7.06
399.058	6.99
399.422	7.11
399.786	7.12
400.15	6.88
400.514	7
400.878	7.08
401.242	7.43
401.605	7.17
401.969	6.88
402.333	7.2
402.697	7.31
403.06	7.29
403.424	6.91
403.787	7.35
404.151	7.34
404.514	7.01
404.878	7.12
405.241	7.33
405.604	7.34
405.968	7.21
406.331	7.01
406.694	7.43
407.057	7.03
407.42	7.7
407.783	7.32
408.146	7.15
408.509	7.38
408.872	7.56
409.235	7.3
409.598	7.44
409.961	7.44
410.323	7.37
410.686	7.27
411.049	7.45
411.411	7.44
411.774	7.41
412.136	7.4
412.499	7.47
412.861	7.58
413.223	7.49
413.586	7.56
413.948	7.53
414.31	7.57
414.672	7.44
415.035	7.54
415.397	7.51
415.759	7.51
416.121	7.52
416.483	7.68
416.845	7.41
417.206	7.57
417.568	7.4
417.93	7.66
418.292	7.32
418.653	7.61
419.015	7.57
419.377	7.37
419.738	7.37
420.1	7.43
420.461	7.53
420.822	7.41
421.184	7.49
421.545	7.52
421.906	7.42
422.267	7.45
422.629	7.46
422.99	7.32
423.351	7.43
423.712	7.46
424.073	7.46
424.434	7.37
424.795	7.39
425.155	7.45
425.516	7.51
425.877	7.43
426.238	7.36
426.598	7.51
426.959	7.44
427.32	7.39
427.68	7.67
428.041	7.44
428.401	7.57
428.761	7.63
429.122	7.53
429.482	7.63
429.842	7.65
430.202	7.57
430.563	7.48
430.923	7.71
431.283	7.66
431.643	7.74
432.003	7.81
432.363	7.74
432.722	7.79
433.082	7.69
433.442	7.52
433.802	7.86
434.161	7.78
434.521	7.82
434.881	7.67
435.24	7.62
435.6	7.59
435.959	7.67
436.319	7.64
436.678	7.75
437.037	7.71
437.396	7.76
437.756	7.9
438.115	7.74
438.474	7.84
438.833	7.72
439.192	7.57
439.551	7.54
439.91	7.91
440.269	7.81
440.628	7.94
440.987	7.77
441.345	7.64
441.704	7.73
442.063	7.83
442.421	7.7
442.78	7.66
443.138	7.8
443.497	7.81
443.855	7.72
444.214	7.75
444.572	7.77
444.93	7.87
445.288	7.83
445.647	7.98
446.005	7.67
446.363	7.86
446.721	8.01
447.079	7.94
447.437	7.83
447.795	7.73
448.153	7.71
448.51	7.78
448.868	7.72
449.226	7.76
449.584	7.8
449.941	7.79
450.299	7.78
450.656	7.81
451.014	7.96
451.371	7.8
451.729	7.64
452.086	7.9
452.443	8.02
452.801	7.83
453.158	7.95
453.515	7.94
453.872	7.97
454.229	7.9
454.586	7.87
454.943	7.85
455.3	7.86
455.657	7.88
456.014	7.71
456.371	7.88
456.727	8.03
457.084	7.86
457.441	8.03
457.797	8.01
458.154	7.84
458.51	8
458.867	7.89
459.223	8.08
459.58	7.81
459.936	7.83
460.292	7.9
460.648	7.75
461.005	7.88
461.361	7.97
461.717	7.74
462.073	7.94
462.429	7.83
462.785	7.79
463.141	7.89
463.496	7.9
463.852	7.96
464.208	8.08
464.564	8.08
464.919	8.07
465.275	8.12
465.631	8.05
465.986	8.18
466.342	8.04
466.697	8.01
467.052	8.1
467.408	8.04
467.763	8.07
468.118	8.18
468.473	7.92
468.829	8.08
469.184	8.06
469.539	7.97
469.894	8.11
470.249	7.95
470.603	7.91
470.958	8.07
471.313	8.18
471.668	8.18
472.023	8.09
472.377	8.05
472.732	7.95
473.086	8.19
473.441	8.07
473.795	8.38
474.15	8.04
474.504	8.08
474.859	8.07
475.213	8.2
475.567	8.12
475.921	8.09
476.275	8.2
476.63	8.13
476.984	8.19
477.338	8.01
477.692	8.18
478.045	8.11
478.399	8.08
478.753	8.24
479.107	8.05
479.461	8.05
479.814	8.2
480.168	8.16
480.521	8.23
480.875	8.06
481.228	7.99
481.582	8.09
481.935	8.13
482.289	8
482.642	7.97
482.995	8.03
483.348	8.07
483.701	7.99
484.055	8.06
484.408	7.94
484.761	8.04
485.114	7.87
485.466	7.81
485.819	7.69
486.172	7.6
486.525	7.63
486.878	7.64
487.23	7.69
487.583	7.71
487.936	7.8
488.288	7.88
488.641	8
488.993	7.91
489.345	7.85
489.698	7.74
490.05	7.75
490.402	7.71
490.754	7.76
491.107	7.87
491.459	7.87
491.811	7.91
492.163	7.85
492.515	7.98
492.866	7.98
493.218	7.86
493.57	7.82
493.922	7.86
494.274	7.85
494.625	7.84
494.977	7.86
495.328	8.04
495.68	8.06
496.031	7.97
496.383	8.15
496.734	8.23
497.086	8.29
497.437	8.24
497.788	8.04
498.139	8.28
498.49	8.08
498.842	8.1
499.193	8.12
499.544	8.05
499.894	8.12
500.245	8.03
500.596	8.11
500.947	8.11
501.298	8.16
501.648	8.04
501.999	8.19
502.35	8.07
502.7	8.37
503.051	8.22
503.401	8.17
503.752	8.24
504.102	8.23
504.452	8.23
504.803	8.18
505.153	8.26
505.503	8.24
505.853	8.29
506.203	8.06
506.553	8.17
506.903	8.23
507.253	8.2
507.603	8.18
507.953	8.12
508.303	8.17
508.652	8.18
509.002	8.24
509.352	8.32
509.701	8.24
510.051	8.07
510.4	8.12
510.75	8.18
511.099	8.17
511.449	8.26
511.798	8.32
512.147	8.09
512.496	8.19
512.846	8.17
513.195	8.26
513.544	8.22
513.893	8
514.242	8.11
514.591	8.18
514.939	8.15
515.288	8.17
515.637	8.1
515.986	8.17
516.334	8.09
516.683	8.14
517.032	8.03
517.38	8.1
517.729	8.24
518.077	8.22
518.426	8.08
518.774	8.16
519.122	8.13
519.47	8.15
519.819	8.04
520.167	8.17
520.515	8.06
520.863	8.15
521.211	8.02
521.559	8.04
521.907	8.06
522.255	8.03
522.602	8.19
522.95	8.14
523.298	8.12
523.645	8.17
523.993	8.16
524.341	8.2
524.688	8.17
525.036	8.28
525.383	8.08
525.73	8.39
526.078	8.25
526.425	8.22
526.772	8.04
527.119	8.12
527.466	7.97
527.814	8.02
528.161	7.99
528.508	7.99
528.854	7.97
529.201	8.02
529.548	8.01
529.895	8.03
530.242	7.86
530.588	7.82
530.935	7.8
531.282	7.88
531.628	7.83
531.975	7.82
532.321	7.91
532.667	7.93
533.014	8.09
533.36	8.05
533.706	8.07
534.052	8.11
534.399	7.99
534.745	7.89
535.091	7.95
535.437	7.95
535.783	7.95
536.129	7.92
536.474	7.97
536.82	7.97
537.166	7.93
537.512	8.06
537.857	8.12
538.203	8.01
538.549	8.16
538.894	8.03
539.239	8.03
539.585	7.99
539.93	8.02
540.276	8.14
540.621	8.13
540.966	8.15
541.311	8.18
541.656	8.16
542.001	8.14
542.346	8.12
542.691	8.03
543.036	7.97
543.381	7.88
543.726	7.8
544.071	7.88
544.415	7.84
544.76	7.91
545.105	7.95
545.449	7.95
545.794	8.03
546.138	8.02
546.483	7.99
546.827	8.06
547.171	8.02
547.516	8.1
547.86	8.22
548.204	8.04
548.548	8.13
548.892	8
549.236	7.9
549.58	7.97
549.924	7.96
550.268	8.07
550.612	8
550.956	8.25
551.3	8.07
551.643	8.08
551.987	8.3
552.33	8.14
552.674	8.08
553.017	8.05
553.361	8.13
553.704	8.01
554.048	8.09
554.391	8.01
554.734	8.07
555.077	8.03
555.42	8
555.764	7.92
556.107	8.14
556.45	7.99
556.793	7.87
557.135	8.07
557.478	7.88
557.821	8.04
558.164	8.17
558.507	8.11
558.849	8.24
559.192	8.16
559.534	8.22
559.877	7.87
560.219	8.14
560.562	8.09
560.904	7.73
561.246	8.1
561.589	7.98
561.931	8.01
562.273	8.16
562.615	8.2
562.957	8.2
563.299	8
563.641	8.18
563.983	7.85
564.325	7.92
564.667	7.91
565.008	7.95
565.35	7.88
565.692	7.96
566.033	8.1
566.375	8.06
566.716	8.05
567.058	7.95
567.399	8.15
567.741	7.92
568.082	8.07
568.423	8.08
568.764	7.8
569.105	7.93
569.447	7.77
569.788	7.93
570.129	7.9
570.47	7.96
570.811	8.06
571.151	7.93
571.492	8.05
571.833	8.08
572.174	7.97
572.514	7.93
572.855	7.97
573.195	7.99
573.536	7.83
573.876	8
574.217	7.8
574.557	7.77
574.898	7.63
575.238	7.67
575.578	8.04
575.918	7.78
576.258	7.97
576.598	7.92
576.938	7.86
577.278	7.91
577.618	7.69
577.958	7.79
578.298	7.76
578.638	7.81
578.977	7.87
579.317	7.75
579.657	7.85
579.996	7.85
580.336	7.8
580.675	7.69
581.014	7.62
581.354	7.84
581.693	7.75
582.032	7.99
582.372	7.76
582.711	7.92
583.05	8.07
583.389	7.7
583.728	7.63
584.067	7.77
584.406	7.74
584.745	7.76
585.083	7.56
585.422	7.58
585.761	7.76
586.1	7.96
586.438	7.44
586.777	7.86
587.115	7.9
587.454	7.92
587.792	7.69
588.13	7.8
588.469	7.71
588.807	7.26
589.145	7.77
589.483	7.81
589.821	7.74
590.159	7.75
590.497	7.66
590.835	7.61
591.173	7.79
591.511	7.72
591.849	7.5
592.187	7.64
592.524	7.51
592.862	7.54
593.2	7.76
593.537	7.56
593.875	7.44
594.212	7.67
594.55	7.72
594.887	7.49
595.224	7.44
595.561	7.5
595.899	7.78
596.236	7.61
596.573	7.66
596.91	7.82
597.247	7.45
597.584	7.47
597.921	7.61
598.258	7.7
598.594	7.47
598.931	7.44
599.268	7.45
599.604	7.63
599.941	7.5
600.277	7.41
600.614	7.54
600.95	7.44
601.287	7.25
601.623	7.66
601.959	7.32
602.296	7.67
602.632	7.67
602.968	7.3
603.304	7.46
603.64	7.3
603.976	7.36
604.312	7.6
604.648	7.72
604.984	7.47
605.319	7.51
605.655	7.45
605.991	7.45
606.326	7.46
606.662	7.24
606.998	7.4
607.333	7.32
607.668	7.26
608.004	7.42
608.339	7.18
608.674	7.67
609.01	7.2
609.345	7.45
609.68	7.3
610.015	7.32
610.35	7.52
610.685	7.56
611.02	7.33
611.355	7.2
611.689	7.32
612.024	7.38
612.359	7.26
612.694	7.27
613.028	7.32
613.363	7.22
613.697	7.4
614.032	7.25
614.366	7.29
614.7	7.28
615.035	7.41
615.369	7.3
615.703	7.08
616.037	7.08
616.371	7.39
616.705	7.33
617.039	7.15
617.373	7.1
617.707	7.29
618.041	7.44
618.375	7.05
618.709	7.28
619.042	7.27
619.376	7.62
619.71	7.55
620.043	7.57
620.377	7.39
620.71	7.33
621.043	7.45
621.377	6.98
621.71	7.4
622.043	7.19
622.376	7.25
622.709	7.39
623.043	7.42
623.376	6.86
623.709	7.08
624.041	7.42
624.374	7.39
624.707	6.9
625.04	7.16
625.373	7.5
625.705	7.01
626.038	6.98
626.37	6.55
626.703	7.31
627.035	7.08
627.368	7.05
627.7	6.99
628.032	7
628.365	7.18
628.697	7.01
629.029	6.92
629.361	7.26
629.693	7.05
630.025	7.19
630.357	7.11
630.689	7.14
631.021	7.41
631.353	7.23
631.684	6.81
632.016	7.54
632.348	6.93
632.679	6.72
633.011	6.93
633.342	6.71
633.674	7.01
634.005	7.4
634.336	7.18
634.668	6.93
634.999	6.89
635.33	6.71
635.661	7.4
635.992	6.98
636.323	7.26
636.654	6.97
636.985	7.1
637.316	7
637.647	6.93
637.977	6.58
638.308	6.72
638.639	7.1
638.969	7.05
639.3	6.8
639.63	6.99
639.961	6.93
640.291	7.02
640.622	7.17
640.952	7.11
641.282	6.84
641.612	6.74
641.943	6.81
642.273	6.72
642.603	7.16
642.933	6.87
643.263	7.33
643.592	6.93
643.922	7.49
644.252	6.45
644.582	6.66
644.911	7.05
645.241	7.39
645.571	7.1
645.9	7.07
646.23	6.7
646.559	6.55
646.888	7.09
647.218	7.08
647.547	6.89
647.876	7.12
648.205	7.23
648.534	6.7
648.863	7.03
649.192	6.61
649.521	6.93
649.85	6.97
650.179	6.32
650.508	7.17
650.837	6.41
651.165	6.97
651.494	6.21
651.822	6.76
652.151	6.98
652.479	6.74
652.808	7.03
653.136	6.34
653.465	6.71
653.793	6.52
654.121	7.31
654.449	6.76
654.777	6.65
655.105	6.69
655.433	7.19
655.761	7.01
656.089	7.03
656.417	6.9
656.745	6.68
657.073	6.59
657.4	7.52
657.728	6.87
658.056	6.9
658.383	7.32
658.711	6.63
659.038	6.95
659.365	6.96
659.693	6.93
660.02	7.02
660.347	6.67
660.674	6.72
661.001	6.84
661.329	7
661.656	6.84
661.982	6.66
662.309	6.82
662.636	7.02
662.963	6.6
663.29	6.35
663.616	7
663.943	6.34
664.27	6.74
664.596	6.7
664.923	6.37
665.249	6.86
665.576	6.71
665.902	6.57
666.228	6.95
666.554	6.76
666.881	5.93
667.207	6.16
667.533	6.27
667.859	6.81
668.185	7.16
668.511	6.88
668.837	7.46
669.162	6.73
669.488	6.74
669.814	6.56
670.139	6.58
670.465	5.91
670.791	7.01
671.116	7.02
671.442	7.06
671.767	6.63
672.092	7.38
672.418	7.01
672.743	6.53
673.068	7.07
673.393	6.72
673.718	6.14
674.043	6.55
674.368	6.92
674.693	6.59
675.018	6.66
675.343	6.05
675.667	6.46
675.992	6.63
676.317	6.8
676.641	6.81
676.966	6.92
677.29	6.85
677.615	6.66
677.939	6.34
678.264	6.68
678.588	6.56
678.912	7.19
679.236	6.68
679.56	6.38
679.885	6.51
680.209	7.14
680.532	6.99
680.856	6.17
681.18	6.95
681.504	6.94
681.828	6.38
682.152	6.49
682.475	6.67
682.799	6.81
683.122	6.86
683.446	6.8
683.769	6.76
684.093	7.05
684.416	6.58
684.739	6.06
685.062	6.33
685.386	6.28
685.709	6.63
686.032	6.75
686.355	7.36
686.678	7.24
687.001	6.92
687.324	6.41
687.646	6.93
687.969	7.15
688.292	7.14
688.614	7.19
688.937	7.14
689.26	6.81
689.582	6.61
689.904	5.62
690.227	6.86
690.549	6.67
690.871	6.61
691.194	7.04
691.516	6.87
691.838	6.48
692.16	6.67
692.482	6.67
692.804	6.93
693.126	6.02
693.448	7.56
693.769	6.43
694.091	7.59
694.413	6.21
694.735	7.02
695.056	6.15
695.378	7
695.699	7.32
696.021	6.91
696.342	6.51
696.663	6.44
696.984	6.72
697.306	7.77
697.627	6.48
697.948	6.5
698.269	6.42
698.59	7.1
698.911	6.74
699.232	5.98
699.553	7.16
699.873	6.81
700.194	7
700.515	6.2
700.835	6.42
701.156	6.66
701.477	6.26
701.797	6.36
702.117	6.44
702.438	6.82
702.758	6.29
703.078	6.45
703.398	7.09
703.719	7.1
704.039	7.7
704.359	7.25
704.679	6.81
704.999	5.54
705.319	6.54
705.638	6.89
705.958	6.71
706.278	6.18
706.597	7.11
706.917	6.37
707.237	7.85
707.556	5.24
707.876	6.18
708.195	6.77
708.514	7.33
708.834	7.82
709.153	6.59
709.472	6.74
709.791	7.87
710.11	6.42
710.429	6.15
710.748	6.48
711.067	6.13
711.386	6.16
711.705	6.71
712.023	6.64
712.342	7.35
712.661	6.77
712.979	6.79
713.298	7.22
713.616	6.16
713.935	6.69
714.253	7.31
714.572	7.3
714.89	6.58
715.208	6.86
715.526	7.83
715.844	6.78
716.162	6.72
716.48	7.82
716.798	6.63
717.116	5.92
717.434	6.63
717.752	6.32
718.069	6.31
718.387	6.56
718.705	5.99
719.022	7.16
719.34	6.16
719.657	7.18
719.975	7.33
720.292	6.31
720.609	6.84
720.927	5.76
721.244	7.21
721.561	7.99
721.878	5.72
722.195	5.93
722.512	7.3
722.829	5.73
723.146	6.93
723.463	6.59
723.779	7.6
724.096	5.67
724.413	8.33
724.729	6.54
725.046	6.77
725.362	7.31
725.679	5.99
725.995	8.04
726.311	8.7
726.628	7.08
726.944	7.13
727.26	6.63
727.576	6
727.892	7.05
728.208	7.06
728.524	5.81
728.84	6.03
729.156	7.85
729.472	6.15
729.787	6.37
730.103	6.99
730.419	6.01
730.734	6.28
731.05	5.65
731.365	5.88
731.681	6.58
731.996	8.32
732.311	7.78
732.626	4.86
732.942	4.89
733.257	6.14
733.572	7.68
733.887	6.85
734.202	7.41
734.517	7.12
734.832	6.47
735.146	7.97
735.461	6.54
735.776	6.76
736.091	6.61
736.405	5.65
736.72	7.05
737.034	7.96
737.349	7.38
737.663	6.19
737.977	6.14
738.292	4.68
738.606	6.02
738.92	6.3
739.234	8.07
739.548	6.84
739.862	6.33
740.176	7.1
740.49	7.05
740.804	7.55
741.117	6.27
741.431	6.1
741.745	6.39
742.058	5.99
742.372	6.41
742.685	5.96
742.999	7.76
743.312	7.54
743.626	5.96
743.939	8.07
744.252	6.52
744.565	8.16
744.878	7.83
745.191	8.13
745.505	6.37
745.817	7.89
746.13	6.45
746.443	7.88
746.756	6.52
747.069	5.7
747.381	7.93
747.694	6.95
748.007	5.15
748.319	7.98
748.632	5.21
748.944	8.45
749.256	7.18
749.569	5.55
749.881	8.16
750.193	7.99
750.505	5.38
750.817	7.06
751.129	6.38
751.441	7.2
751.753	6.56
752.065	9.79
752.377	8.24
752.689	6.85
753	7.18
753.312	6.67
753.624	4.1
753.935	7.19
754.247	6.98
754.558	7.87
754.869	5.69
755.181	7.09
755.492	7.15
755.803	5.95
756.114	6.39
756.425	7.67
756.736	7.39
757.047	5.49
757.358	8.06
757.669	7.47
757.98	4.34
758.291	7.07
758.601	7.31
758.912	8.73
759.223	5.11
759.533	8.42
759.844	8.81
760.154	8.85
760.464	7.8
760.775	7.26
761.085	6.26
761.395	7.42
761.705	6.24
762.016	7.7
762.326	8.43
762.636	6.96
762.945	5.05
763.255	8.85
763.565	6.89
763.875	7.26
764.185	6.67
764.494	6.82
764.804	8.05
765.113	7.57
765.423	5.58
765.732	7.62
766.042	7.32
766.351	6.73
766.66	6.37
766.97	6.44
767.279	5.69
767.588	5.76
767.897	7.26
768.206	6.26
768.515	5.57
768.824	5.42
769.133	4.89
769.441	6.11
769.75	6.9
770.059	6.82
770.367	8.24
770.676	9.94
770.984	7.56
771.293	5.68
771.601	7.66
771.91	6.63
772.218	8.73
772.526	7.47
772.834	6.47
773.142	6.16
773.45	6.41
773.758	5.12
774.066	6.3
774.374	6.66
774.682	8.48
774.99	6.42
775.298	7.42
775.605	7.17
775.913	7.83
776.22	5.74
776.528	5.8
776.835	6.67
777.143	5.08
777.45	7.72
777.757	6.18
778.065	9.85
778.372	10.49
778.679	6.98
778.986	4.18
779.293	7.51
779.6	6.2
779.907	5.74
780.214	8.33
780.52	7.81
780.827	7.61
781.134	7.68
781.44	6.72
781.747	8.02
782.053	9.63
782.36	6.87
782.666	3.64
782.973	4.87
783.279	8.17
783.585	9.07
783.891	6.87
784.197	7.3
784.503	8.68
784.809	6.92
785.115	7.56
785.421	6.26
785.727	10.25
786.033	11.52
786.339	8.59
786.644	5.98
786.95	9.69
787.255	2.78
787.561	7.54
787.866	5.68
788.172	8.46
788.477	5.52
788.782	4.71
789.088	7.08
789.393	6.44
789.698	6.55
790.003	6.72
790.308	8
790.613	8.09
790.918	6.59
791.223	6.28
791.527	6.16
791.832	10.37
792.137	11.44
792.441	6.51
792.746	8.45
793.05	6.83
793.355	8.24
793.659	8.38
793.963	6.34
794.268	6.27
794.572	5.46
794.876	7.47
795.18	4.66
795.484	4.59
795.788	4.64
796.092	5.35
796.396	4.02
796.7	4.88
797.004	4.33
797.307	5.29
797.611	6.14
797.915	2.3
798.218	6.31
798.522	5.52
798.825	9.01
799.128	7.57
799.432	4.55
799.735	2.8
800.038	3.47
800.341	6.8
800.644	10.17
800.947	8.47
801.25	6.37
801.553	6.13
801.856	8.37
802.159	-0.09
802.462	6.25
802.764	6.24
803.067	9.12
803.37	9.86
803.672	4.75
803.975	9.17
804.277	6.29
804.579	-0.87
804.882	11.19
805.184	9.14
805.486	12.64
805.788	6.98
806.09	10.48
806.392	7.09
806.694	7.95
806.996	5.04
807.298	7.66
807.6	10.71
807.902	3.43
808.203	8.85
808.505	13.57
808.807	4.44
809.108	4.33
809.409	12.22
809.711	1.97
810.012	6.97
810.313	6.34
810.615	-0.51
810.916	10.42
811.217	4.09
811.518	1.25
811.819	8.21
812.12	9.79
812.421	1.62
812.722	2.96
813.023	8.91
813.323	-1.21
813.624	7.27
813.925	6.4
814.225	7.47
814.526	11.52
814.826	2.54
815.126	10.22
815.427	1.56
815.727	12.59
816.027	7.42
816.327	12.72
816.627	12.93
816.927	0.18
817.227	3.59
817.527	7.13
817.827	6.77
818.127	4.03
818.427	5.35
818.727	5.19
819.026	5.15
819.326	7.94
819.625	10.19
819.925	7.58
820.224	12.51
820.524	8.62
820.823	6.94
821.122	7.9
821.421	8.52
821.72	14.03
822.019	1.91
822.318	13.98
822.617	4.96
822.916	8.9
823.215	8.8
823.514	10.32
823.813	6.91
824.111	10.82
824.41	7.48
824.709	8.18
825.007	7.61
825.306	7.88
825.604	7.91
825.902	7.29
826.201	8.45
826.499	7.94
826.797	8.3
827.095	7.27
827.393	6.02
827.691	9.19
827.989	9.07
828.287	8.05
828.585	10.96
828.882	7.83
829.18	6.86
829.478	9.91
829.775	7.89
830.073	8.59
830.37	9.87
830.668	8.11
830.965	6.44
831.263	5.92
831.56	6.79
831.857	7.33
832.154	7.06
832.451	8.95
832.748	9.81
833.045	7.33
833.342	9.36
833.639	7.05
833.936	6.8
834.232	11.27
834.529	7.28
834.826	-1.1
835.122	3.65
835.419	17.42
835.715	8.85
836.012	4.4
836.308	6.83
836.604	8.71
836.901	11.91
837.197	10.97
837.493	8.55
837.789	6.34
838.085	7.22
838.381	8.99
838.677	8.41
838.972	9.41
839.268	4.53
839.564	8.69
839.86	7.68
840.155	12.85
840.451	8.96
840.746	17.75
841.042	10.55
841.337	10.47
841.632	12.86
841.928	3.3
842.223	14.32
842.518	1.61
842.813	19.06
843.108	8.68
843.403	3.9
843.698	21.57
843.993	5.93
844.287	7.07
844.582	10.94
844.877	7.88
845.171	16.11
845.466	4.39
845.761	9.03
846.055	11.03
846.349	14.74
846.644	15.6
846.938	13.66
847.232	4.23
847.526	21.88
847.82	-13.86
848.114	15.68
848.408	7.99
848.702	-16.38
848.996	19.87
849.29	19.85
849.584	19.01
849.877	23.27
850.171	32.78
850.465	8.76
850.758	-16.69
851.052	0.64
851.345	20.44
851.638	-8.69
851.932	-4.02
852.225	9.86
852.518	26.38
852.811	17.91
853.104	25.7
853.397	12.55
853.69	18.38
853.983	22.6
854.276	3.34
854.569	21.22
854.861	-8.98
855.154	29.61
855.447	-9.25
855.739	0.74
856.032	-14.74
856.324	-5.27
856.616	-18.47
856.909	10.02
857.201	-12.59
857.493	-1.72
857.785	-1.98
858.077	23.31
858.369	18.38
858.661	7.21
858.953	25.2
859.245	-6.36
859.537	5.68
859.829	-14.44
860.12	27.75
860.412	11.32
860.703	13.62
860.995	15.7
861.286	-16.15
861.578	5.75
861.869	-4.54
862.16	-3.4
862.452	20.51
862.743	7.58
863.034	-6.91
863.325	14.85
863.616	-12.84
863.907	4.23
864.198	-4.33
864.488	11.67
864.779	7.91
865.07	12.17
865.36	9.93
865.651	14.31
865.941	16.22
866.232	2.58
866.522	-0.28
866.813	-14.79
867.103	-32.28
867.393	30.08
867.683	19.17
867.973	38.29
868.263	12.27
868.553	18.57
868.843	-21.81
869.133	22.76
869.423	-9.28
869.713	0.97
870.002	13.35
870.292	2.6
870.582	30.61
870.871	-21.73
871.161	5.43
871.45	11.83
871.739	-7.87
872.029	8.44
872.318	26.56
872.607	22.9
872.896	16.33
873.185	20.46
873.474	-1.52
873.763	36.21
874.052	2.31
874.341	27.84
874.63	-10.51
874.918	-3.77
875.207	19.93
875.496	-5.64
875.784	12.05
876.073	6.02
876.361	2.2
876.649	-13.93
876.938	0.04
877.226	21.9
877.514	11.44
877.802	15.87
878.09	-6.8
878.378	16.14
878.666	22.93
878.954	-13
879.242	12.55
879.53	17.91
879.817	-3.34
880.105	11.25
880.392	59.24
880.68	2.37
880.967	7.13
881.255	17.97
881.542	12.84
881.83	18.38
882.117	26.5
882.404	3.7
882.691	23.97
882.978	6.36
883.265	-18.07
883.552	13.55
883.839	8.83
884.126	1.74
884.413	4.62
884.699	7.89
884.986	12.28
885.273	12.6
885.559	12.6
885.846	12.6
