Data from 431_chest_Reflection__3__125.txt Node

Date: Tue Dec 12 19:26:12 CST 2023
User: ToomeyLab
Spectrometer: FLMS14357
Trigger mode: 0
Integration Time (sec): 1.000000E-2
Scans to average: 100
Electric dark correction enabled: true
Nonlinearity correction enabled: false
Boxcar width: 0
XAxis mode: Wavelengths
Number of Pixels in Spectrum: 2048
>>>>>Begin Spectral Data<<<<<
189.047	-92.35
189.435	-92.35
189.823	-92.35
190.211	-27.41
190.599	8.17
190.987	120.3
191.375	-105.26
191.763	13.31
192.151	79.25
192.538	-163.8
192.926	58.38
193.314	346.95
193.702	62.66
194.089	46.73
194.477	387.92
194.864	39.07
195.252	-212.28
195.639	114.09
196.027	62.9
196.414	-84.82
196.801	-14.14
197.189	-103.07
197.576	-26.95
197.963	86.66
198.351	10.55
198.738	51.71
199.125	19.15
199.512	-29.13
199.899	39.17
200.286	-10.31
200.673	0.17
201.06	-18.08
201.447	-43.31
201.833	5.6
202.22	25.2
202.607	-74.15
202.994	26.71
203.38	39.32
203.767	-26.38
204.154	2.6
204.54	29.54
204.927	-18.28
205.313	8.68
205.699	-3.45
206.086	-10.59
206.472	45.5
206.858	24.14
207.245	30.77
207.631	26.17
208.017	-12.76
208.403	2.78
208.789	32.93
209.175	1.3
209.561	5.82
209.947	19.24
210.333	13.12
210.719	-1.6
211.105	14.94
211.491	25.43
211.876	14.82
212.262	4.17
212.648	-37.31
213.034	-55.01
213.419	-4.85
213.805	15.16
214.19	31.86
214.576	21.89
214.961	34.18
215.346	-25.61
215.732	17.41
216.117	10.7
216.502	-13.58
216.888	-10.01
217.273	-0.85
217.658	-23.93
218.043	-3.46
218.428	13.99
218.813	14.85
219.198	-3.47
219.583	23.41
219.968	14.25
220.353	-12.92
220.738	-6.88
221.122	43.73
221.507	14.14
221.892	7.48
222.276	22.88
222.661	17.61
223.046	-11.2
223.43	8.08
223.815	-9.83
224.199	12.46
224.583	9.39
224.968	5.42
225.352	-2.74
225.736	14.2
226.121	-7.54
226.505	3.15
226.889	3.42
227.273	5.52
227.657	9.76
228.041	10.44
228.425	3.82
228.809	4.91
229.193	5.58
229.577	6.77
229.961	3.49
230.344	6.64
230.728	6.45
231.112	6.01
231.495	4.98
231.879	5.52
232.263	5.38
232.646	4.91
233.03	6.55
233.413	4.89
233.797	6.66
234.18	2.84
234.563	2.04
234.946	5
235.33	7.91
235.713	5.84
236.096	4.75
236.479	5.42
236.862	4.92
237.245	6.02
237.628	4.73
238.011	2.87
238.394	5.22
238.777	6.08
239.16	3.55
239.543	5.76
239.925	4.61
240.308	5.47
240.691	5.6
241.073	5.46
241.456	6.37
241.838	5.82
242.221	5.69
242.603	5.31
242.986	5.02
243.368	5.81
243.75	4.81
244.133	5.51
244.515	5.4
244.897	5.39
245.279	5.61
245.661	5.03
246.043	5.69
246.425	5.72
246.807	4.71
247.189	5.73
247.571	5.82
247.953	4.69
248.335	5.07
248.717	5
249.098	5.22
249.48	5.1
249.862	4.92
250.243	4.68
250.625	5.68
251.006	5.19
251.388	4.94
251.769	4.36
252.151	4.17
252.532	5.3
252.913	5.08
253.295	5.68
253.676	4.44
254.057	4.89
254.438	5.49
254.819	4.85
255.2	4.8
255.581	4.5
255.962	4.46
256.343	4.06
256.724	4.33
257.105	5.31
257.486	4.24
257.867	4.57
258.247	5.29
258.628	4.57
259.009	4.93
259.389	5.51
259.77	5.28
260.15	3.91
260.531	5.25
260.911	5.1
261.292	4.69
261.672	4.74
262.052	4.69
262.432	4.7
262.813	4.83
263.193	4.43
263.573	4.76
263.953	5.17
264.333	5.37
264.713	4.8
265.093	4.55
265.473	5.6
265.853	3.6
266.233	4.76
266.612	4.89
266.992	5.03
267.372	5.09
267.752	5.38
268.131	4.16
268.511	4.36
268.89	4.02
269.27	3.99
269.649	5.02
270.029	4.59
270.408	4.54
270.787	4.19
271.167	4.7
271.546	4.88
271.925	4.71
272.304	5.33
272.683	3.74
273.062	4.35
273.441	4.53
273.82	4.22
274.199	4.19
274.578	4.64
274.957	4.46
275.336	4.11
275.715	4.54
276.093	3.83
276.472	4.64
276.851	4.12
277.229	4.32
277.608	4.5
277.986	3.71
278.365	3.99
278.743	4.66
279.122	4.97
279.5	4.41
279.878	4.02
280.257	3.77
280.635	4.51
281.013	4.17
281.391	4.56
281.769	3.99
282.147	3.89
282.525	3.69
282.903	3.62
283.281	4.08
283.659	4.32
284.037	4.71
284.415	4.49
284.792	4.36
285.17	4.07
285.548	4.63
285.925	4.15
286.303	4.02
286.68	4.37
287.058	4.39
287.435	4
287.813	3.92
288.19	4.41
288.567	4.07
288.945	4.24
289.322	3.8
289.699	4.34
290.076	3.84
290.453	4.23
290.83	3.8
291.207	4.53
291.584	4.35
291.961	4.12
292.338	3.79
292.715	4.53
293.092	4.02
293.469	3.93
293.845	3.82
294.222	4.42
294.599	4.1
294.975	3.95
295.352	4.61
295.728	4.27
296.105	3.88
296.481	4.46
296.858	4.12
297.234	4.61
297.61	4.36
297.986	4.16
298.363	4.41
298.739	4.23
299.115	3.76
299.491	4.03
299.867	4.12
300.243	4.1
300.619	4.68
300.995	4.77
301.371	4.6
301.746	4.21
302.122	4.65
302.498	4.19
302.874	4.29
303.249	4.83
303.625	4.11
304	4.09
304.376	4.31
304.751	4.29
305.127	4.18
305.502	4.75
305.878	3.91
306.253	3.96
306.628	4.23
307.003	4.42
307.378	3.82
307.754	4.19
308.129	4.14
308.504	4.69
308.879	4.15
309.254	4.69
309.629	4.27
310.003	4.34
310.378	4.17
310.753	4.83
311.128	5.06
311.502	3.83
311.877	4.03
312.252	3.78
312.626	4.27
313.001	4.47
313.375	3.91
313.75	4.14
314.124	4.41
314.498	4.41
314.873	4.29
315.247	4.41
315.621	4.06
315.995	5.17
316.369	4.44
316.743	4
317.117	3.41
317.491	3.79
317.865	4.58
318.239	4.35
318.613	4.89
318.987	4.63
319.361	3.68
319.734	3.16
320.108	4.28
320.482	4.11
320.855	3.88
321.229	4.06
321.602	4.42
321.976	4.3
322.349	4.29
322.723	4.73
323.096	4.02
323.469	4.35
323.843	4.56
324.216	4.35
324.589	4.52
324.962	4.42
325.335	4.57
325.708	4.37
326.081	4.15
326.454	4.45
326.827	4.84
327.2	4.3
327.573	4.3
327.945	4.31
328.318	4.57
328.691	3.96
329.063	4.9
329.436	4.99
329.809	4.34
330.181	3.89
330.553	4.46
330.926	4.12
331.298	3.89
331.671	3.84
332.043	4.87
332.415	4.6
332.787	4.19
333.159	4.47
333.532	4.19
333.904	4.12
334.276	4.68
334.648	4.22
335.02	3.83
335.391	4.18
335.763	3.85
336.135	4.45
336.507	4.66
336.879	4.21
337.25	4.41
337.622	4.67
337.993	4.22
338.365	4.03
338.736	4.68
339.108	4.44
339.479	4.27
339.851	3.93
340.222	3.6
340.593	4.21
340.964	4.73
341.336	4.46
341.707	3.78
342.078	4.11
342.449	3.71
342.82	4.35
343.191	4.6
343.562	4.2
343.933	4.39
344.303	4.33
344.674	4.45
345.045	4.62
345.416	4.14
345.786	3.94
346.157	4.59
346.527	4.87
346.898	3.66
347.268	4.29
347.639	4.53
348.009	4.34
348.38	4.4
348.75	4.18
349.12	4.48
349.49	4.61
349.861	4.31
350.231	4.31
350.601	4.6
350.971	4.45
351.341	4.77
351.711	4.8
352.081	4.32
352.45	4.58
352.82	4.46
353.19	4.44
353.56	4.23
353.929	4.29
354.299	4.01
354.669	4.38
355.038	4.26
355.408	4.23
355.777	4.52
356.147	4.47
356.516	4.42
356.885	4.34
357.254	4.38
357.624	4.18
357.993	4.68
358.362	4.39
358.731	4.64
359.1	4.27
359.469	4.32
359.838	4.32
360.207	4.34
360.576	4.68
360.945	4.32
361.314	4.68
361.682	4.48
362.051	4.68
362.42	4.73
362.788	4.52
363.157	4.77
363.525	4.52
363.894	4.25
364.262	4.42
364.631	4.06
364.999	4.45
365.367	4.71
365.735	4.06
366.104	4.28
366.472	4.25
366.84	4.5
367.208	4.45
367.576	4.5
367.944	4.88
368.312	4.65
368.68	4.33
369.048	4.57
369.416	4.22
369.783	4.66
370.151	4.4
370.519	4.49
370.886	4.72
371.254	4.49
371.621	4.6
371.989	4.56
372.356	4.61
372.724	4.66
373.091	4.33
373.458	4.46
373.826	4.39
374.193	4.47
374.56	4.78
374.927	4.6
375.294	4.56
375.661	4.5
376.028	5
376.395	4.76
376.762	5.03
377.129	4.52
377.496	4.84
377.863	4.35
378.229	4.53
378.596	4.37
378.963	4.85
379.329	4.51
379.696	4.62
380.062	4.85
380.429	4.54
380.795	4.72
381.161	4.64
381.528	4.67
381.894	4.67
382.26	4.66
382.626	4.56
382.993	4.88
383.359	4.23
383.725	4.26
384.091	4.56
384.457	4.4
384.823	4.78
385.188	4.8
385.554	4.69
385.92	4.45
386.286	4.43
386.651	4.65
387.017	5.25
387.383	4.6
387.748	4.47
388.114	4.42
388.479	4.84
388.845	4.42
389.21	4.62
389.575	4.44
389.94	4.77
390.306	4.63
390.671	4.6
391.036	4.55
391.401	4.62
391.766	4.64
392.131	4.62
392.496	4.64
392.861	4.51
393.226	4.66
393.591	4.59
393.956	4.49
394.32	4.67
394.685	4.44
395.05	4.84
395.414	4.87
395.779	4.45
396.143	4.77
396.508	4.79
396.872	4.6
397.236	4.66
397.601	4.62
397.965	4.71
398.329	4.72
398.694	4.41
399.058	4.87
399.422	4.82
399.786	4.82
400.15	4.57
400.514	4.95
400.878	4.55
401.242	4.63
401.605	4.97
401.969	4.51
402.333	4.87
402.697	4.77
403.06	4.56
403.424	4.84
403.787	4.46
404.151	5.2
404.514	4.55
404.878	4.46
405.241	4.72
405.604	4.66
405.968	4.51
406.331	4.87
406.694	4.93
407.057	4.64
407.42	4.66
407.783	4.75
408.146	4.77
408.509	4.75
408.872	4.65
409.235	4.8
409.598	4.62
409.961	4.76
410.323	4.6
410.686	4.67
411.049	4.64
411.411	4.82
411.774	5.01
412.136	5.02
412.499	4.74
412.861	4.73
413.223	5.2
413.586	4.79
413.948	4.85
414.31	4.9
414.672	4.74
415.035	4.82
415.397	4.8
415.759	4.75
416.121	4.8
416.483	4.91
416.845	4.55
417.206	4.78
417.568	4.69
417.93	4.87
418.292	4.66
418.653	5
419.015	4.66
419.377	4.74
419.738	4.76
420.1	4.68
420.461	4.59
420.822	4.71
421.184	4.6
421.545	4.89
421.906	4.77
422.267	4.62
422.629	4.72
422.99	4.7
423.351	4.61
423.712	4.71
424.073	4.68
424.434	4.77
424.795	4.64
425.155	4.64
425.516	4.6
425.877	4.68
426.238	4.7
426.598	4.7
426.959	4.6
427.32	4.58
427.68	4.68
428.041	4.84
428.401	4.75
428.761	4.78
429.122	4.82
429.482	4.95
429.842	5.02
430.202	4.67
430.563	4.75
430.923	5
431.283	4.67
431.643	4.97
432.003	4.83
432.363	4.95
432.722	4.74
433.082	4.78
433.442	5.08
433.802	4.93
434.161	4.84
434.521	4.84
434.881	4.84
435.24	4.84
435.6	4.7
435.959	4.88
436.319	4.96
436.678	4.9
437.037	4.74
437.396	4.58
437.756	4.83
438.115	4.87
438.474	4.93
438.833	4.95
439.192	4.87
439.551	4.7
439.91	4.67
440.269	4.86
440.628	4.74
440.987	4.68
441.345	4.91
441.704	4.67
442.063	4.74
442.421	4.85
442.78	4.71
443.138	4.76
443.497	4.85
443.855	4.73
444.214	4.78
444.572	4.93
444.93	4.8
445.288	4.64
445.647	4.91
446.005	4.79
446.363	4.7
446.721	4.74
447.079	4.85
447.437	4.67
447.795	4.77
448.153	4.77
448.51	4.89
448.868	4.83
449.226	4.83
449.584	4.84
449.941	4.79
450.299	4.98
450.656	4.8
451.014	4.9
451.371	4.89
451.729	5.02
452.086	4.88
452.443	5.04
452.801	4.91
453.158	4.76
453.515	4.91
453.872	4.9
454.229	4.89
454.586	4.91
454.943	4.84
455.3	4.76
455.657	4.9
456.014	5.08
456.371	4.95
456.727	4.91
457.084	4.77
457.441	4.97
457.797	4.98
458.154	4.88
458.51	4.78
458.867	4.93
459.223	4.93
459.58	4.9
459.936	4.79
460.292	5.05
460.648	4.89
461.005	4.88
461.361	4.91
461.717	5
462.073	4.85
462.429	4.83
462.785	4.76
463.141	4.85
463.496	4.85
463.852	5.12
464.208	5.03
464.564	5.05
464.919	5.1
465.275	5.13
465.631	5.05
465.986	5.04
466.342	4.82
466.697	5.03
467.052	5.09
467.408	5.05
467.763	5.09
468.118	5.09
468.473	5.1
468.829	4.94
469.184	4.87
469.539	5.21
469.894	4.98
470.249	5.15
470.603	5.09
470.958	5.01
471.313	5.32
471.668	5.15
472.023	4.99
472.377	5.06
472.732	5.18
473.086	5.02
473.441	5.12
473.795	5.11
474.15	5.16
474.504	4.88
474.859	5.11
475.213	4.87
475.567	5.11
475.921	5.04
476.275	5.05
476.63	5.12
476.984	4.87
477.338	4.99
477.692	5.01
478.045	5.11
478.399	4.96
478.753	5.14
479.107	4.99
479.461	5.04
479.814	5.16
480.168	4.87
480.521	5.03
480.875	5.01
481.228	5.16
481.582	5.06
481.935	5.16
482.289	5.22
482.642	5.22
482.995	5.01
483.348	5
483.701	5.14
484.055	4.98
484.408	5.05
484.761	4.92
485.114	4.91
485.466	4.83
485.819	4.75
486.172	4.75
486.525	4.79
486.878	4.76
487.23	4.89
487.583	4.9
487.936	4.96
488.288	5.01
488.641	4.93
488.993	4.91
489.345	4.86
489.698	4.78
490.05	4.84
490.402	4.85
490.754	4.91
491.107	4.91
491.459	4.93
491.811	5.1
492.163	4.96
492.515	5.13
492.866	4.97
493.218	4.91
493.57	4.94
493.922	4.86
494.274	4.92
494.625	4.99
494.977	5.14
495.328	5.16
495.68	5.1
496.031	5.36
496.383	5.24
496.734	5.22
497.086	5.06
497.437	5.18
497.788	5.26
498.139	5.16
498.49	5.17
498.842	5.17
499.193	5.17
499.544	5.16
499.894	5.18
500.245	5.22
500.596	5.18
500.947	5.22
501.298	5.23
501.648	5.17
501.999	5.16
502.35	5.31
502.7	5.2
503.051	5.2
503.401	5.22
503.752	5.46
504.102	5.24
504.452	5.32
504.803	5.35
505.153	5.31
505.503	5.34
505.853	5.27
506.203	5.47
506.553	5.38
506.903	5.38
507.253	5.34
507.603	5.33
507.953	5.31
508.303	5.29
508.652	5.4
509.002	5.27
509.352	5.26
509.701	5.26
510.051	5.34
510.4	5.29
510.75	5.24
511.099	5.28
511.449	5.42
511.798	5.33
512.147	5.37
512.496	5.49
512.846	5.41
513.195	5.24
513.544	5.5
513.893	5.4
514.242	5.3
514.591	5.4
514.939	5.41
515.288	5.35
515.637	5.33
515.986	5.46
516.334	5.56
516.683	5.42
517.032	5.48
517.38	5.34
517.729	5.4
518.077	5.42
518.426	5.54
518.774	5.47
519.122	5.46
519.47	5.46
519.819	5.28
520.167	5.42
520.515	5.28
520.863	5.37
521.211	5.28
521.559	5.45
521.907	5.3
522.255	5.49
522.602	5.52
522.95	5.52
523.298	5.5
523.645	5.75
523.993	5.55
524.341	5.48
524.688	5.54
525.036	5.51
525.383	5.53
525.73	5.58
526.078	5.61
526.425	5.5
526.772	5.54
527.119	5.56
527.466	5.63
527.814	5.45
528.161	5.54
528.508	5.58
528.854	5.54
529.201	5.59
529.548	5.55
529.895	5.46
530.242	5.36
530.588	5.37
530.935	5.37
531.282	5.43
531.628	5.47
531.975	5.4
532.321	5.51
532.667	5.49
533.014	5.56
533.36	5.66
533.706	5.6
534.052	5.68
534.399	5.69
534.745	5.62
535.091	5.55
535.437	5.59
535.783	5.58
536.129	5.74
536.474	5.66
536.82	5.8
537.166	5.77
537.512	5.74
537.857	5.85
538.203	5.73
538.549	5.78
538.894	5.76
539.239	5.84
539.585	5.67
539.93	5.99
540.276	5.82
540.621	5.83
540.966	5.96
541.311	5.97
541.656	5.96
542.001	5.96
542.346	5.92
542.691	5.92
543.036	5.79
543.381	5.73
543.726	5.81
544.071	5.76
544.415	5.77
544.76	5.89
545.105	5.92
545.449	6
545.794	6.12
546.138	5.88
546.483	6.12
546.827	6.03
547.171	6.18
547.516	6.07
547.86	6.04
548.204	6.13
548.548	6.11
548.892	6.11
549.236	6.15
549.58	6.22
549.924	6.21
550.268	6.36
550.612	6.04
550.956	6.28
551.3	6.43
551.643	6.29
551.987	6.41
552.33	6.36
552.674	6.59
553.017	6.55
553.361	6.53
553.704	6.41
554.048	6.4
554.391	6.41
554.734	6.39
555.077	6.58
555.42	6.44
555.764	6.56
556.107	6.61
556.45	6.55
556.793	6.5
557.135	6.76
557.478	6.74
557.821	6.58
558.164	6.66
558.507	6.69
558.849	6.61
559.192	6.82
559.534	6.67
559.877	6.77
560.219	6.83
560.562	6.85
560.904	6.6
561.246	6.9
561.589	6.85
561.931	6.77
562.273	6.63
562.615	6.9
562.957	6.89
563.299	6.84
563.641	6.93
563.983	6.95
564.325	7.07
564.667	7.04
565.008	6.89
565.35	6.85
565.692	7.08
566.033	7.18
566.375	7.04
566.716	6.99
567.058	6.91
567.399	7.02
567.741	7.17
568.082	7.05
568.423	7.22
568.764	7.07
569.105	7.02
569.447	7.16
569.788	7.16
570.129	7.29
570.47	7.26
570.811	7.42
571.151	7.4
571.492	7.31
571.833	7.37
572.174	7.35
572.514	7.36
572.855	7.34
573.195	7.29
573.536	7.21
573.876	7.42
574.217	7.4
574.557	7.43
574.898	7.46
575.238	7.74
575.578	7.49
575.918	7.52
576.258	7.52
576.598	7.58
576.938	7.55
577.278	7.65
577.618	7.75
577.958	7.79
578.298	7.86
578.638	7.61
578.977	7.57
579.317	7.65
579.657	7.71
579.996	7.92
580.336	7.88
580.675	7.89
581.014	8.03
581.354	7.89
581.693	7.89
582.032	7.61
582.372	8.08
582.711	8.05
583.05	8.24
583.389	8.1
583.728	8.03
584.067	8.39
584.406	8.34
584.745	8.2
585.083	7.99
585.422	8.28
585.761	8.3
586.1	8.21
586.438	8.3
586.777	8.4
587.115	8.12
587.454	8.5
587.792	8.22
588.13	8.51
588.469	8.52
588.807	8.42
589.145	8.3
589.483	8.43
589.821	8.79
590.159	8.73
590.497	8.69
590.835	8.64
591.173	8.77
591.511	8.62
591.849	8.64
592.187	8.75
592.524	8.62
592.862	8.67
593.2	8.47
593.537	8.56
593.875	8.68
594.212	8.89
594.55	8.64
594.887	9.43
595.224	8.86
595.561	9.27
595.899	8.89
596.236	8.89
596.573	8.98
596.91	9.24
597.247	9.1
597.584	9.24
597.921	8.89
598.258	9.19
598.594	9.31
598.931	9
599.268	9.02
599.604	9.19
599.941	9.15
600.277	9.08
600.614	9.49
600.95	9.43
601.287	9.24
601.623	9.34
601.959	9.28
602.296	9.65
602.632	9.36
602.968	9.47
603.304	9.4
603.64	9.7
603.976	9.46
604.312	9.86
604.648	9.79
604.984	9.68
605.319	9.49
605.655	9.73
605.991	9.75
606.326	9.61
606.662	9.97
606.998	9.76
607.333	9.82
607.668	10.01
608.004	9.91
608.339	10.07
608.674	10.16
609.01	9.94
609.345	10.22
609.68	10.34
610.015	9.93
610.35	10.25
610.685	10.09
611.02	10.04
611.355	10.06
611.689	9.93
612.024	10.12
612.359	10.5
612.694	10.1
613.028	10.54
613.363	10.06
613.697	10.55
614.032	10.83
614.366	10.78
614.7	10.44
615.035	10.76
615.369	10.33
615.703	10.61
616.037	10.75
616.371	10.68
616.705	10.61
617.039	10.93
617.373	10.75
617.707	10.53
618.041	10.82
618.375	10.63
618.709	10.62
619.042	10.84
619.376	11.06
619.71	10.81
620.043	10.85
620.377	11.06
620.71	10.84
621.043	10.64
621.377	10.59
621.71	11.16
622.043	11.32
622.376	11.48
622.709	11.24
623.043	11.18
623.376	11.66
623.709	11.54
624.041	11.32
624.374	11.22
624.707	11.58
625.04	11.8
625.373	11.59
625.705	11.59
626.038	11.62
626.37	11.69
626.703	11.56
627.035	11.1
627.368	11.69
627.7	11.5
628.032	11.61
628.365	11.88
628.697	11.7
629.029	11.81
629.361	11.77
629.693	11.64
630.025	11.53
630.357	11.79
630.689	11.68
631.021	12.2
631.353	12.13
631.684	11.69
632.016	11.77
632.348	12.28
632.679	11.77
633.011	12.49
633.342	12.29
633.674	12.29
634.005	12.38
634.336	12.53
634.668	12.31
634.999	12.37
635.33	12.59
635.661	12.4
635.992	12.15
636.323	12.31
636.654	12.52
636.985	12.56
637.316	12.56
637.647	12.57
637.977	12.66
638.308	12.8
638.639	12.47
638.969	12.77
639.3	13.32
639.63	12.83
639.961	12.91
640.291	13.06
640.622	13.2
640.952	13.26
641.282	12.78
641.612	13
641.943	12.74
642.273	13.2
642.603	13.42
642.933	13.06
643.263	12.98
643.592	13.39
643.922	13.48
644.252	13.7
644.582	13.1
644.911	13.32
645.241	13.11
645.571	13.93
645.9	13.24
646.23	13.05
646.559	13.74
646.888	13.37
647.218	13.23
647.547	13.8
647.876	13.28
648.205	13.87
648.534	14.32
648.863	13.8
649.192	14.42
649.521	14.21
649.85	13.55
650.179	13.93
650.508	14.09
650.837	13.62
651.165	13.86
651.494	13.9
651.822	14.23
652.151	14.3
652.479	14.27
652.808	14.42
653.136	14.15
653.465	14.4
653.793	14.24
654.121	14.24
654.449	14.42
654.777	14.96
655.105	14.8
655.433	14.7
655.761	14.66
656.089	14.29
656.417	14.34
656.745	14.61
657.073	13.92
657.4	14.79
657.728	14.11
658.056	15.13
658.383	14.65
658.711	15.01
659.038	14.62
659.365	15.43
659.693	14.93
660.02	15.15
660.347	14.88
660.674	14.98
661.001	15.27
661.329	15
661.656	15.18
661.982	14.87
662.309	15.43
662.636	15.26
662.963	15.06
663.29	15.2
663.616	15.2
663.943	15.38
664.27	15.24
664.596	15.86
664.923	15.85
665.249	15.04
665.576	15.38
665.902	15.39
666.228	15.89
666.554	15.59
666.881	15.13
667.207	16.32
667.533	15.73
667.859	15.72
668.185	15.86
668.511	15.86
668.837	15.3
669.162	16.58
669.488	16.47
669.814	15.85
670.139	15.59
670.465	15.49
670.791	16.49
671.116	16.04
671.442	16.55
671.767	16.02
672.092	16.36
672.418	16.78
672.743	16.63
673.068	16.14
673.393	16.25
673.718	16.55
674.043	16.34
674.368	15.69
674.693	16.29
675.018	16.56
675.343	16.57
675.667	16.56
675.992	16.35
676.317	15.86
676.641	16.44
676.966	16.2
677.29	15.87
677.615	16.62
677.939	17.07
678.264	17.13
678.588	17.1
678.912	17.27
679.236	16.49
679.56	16.89
679.885	16.98
680.209	17.07
680.532	17.23
680.856	17.04
681.18	16.69
681.504	17.25
681.828	16.9
682.152	16.89
682.475	17.12
682.799	17.01
683.122	17.41
683.446	17.28
683.769	19.06
684.093	17.26
684.416	17.98
684.739	17.64
685.062	18.14
685.386	17.83
685.709	17.9
686.032	17.77
686.355	17.89
686.678	17.94
687.001	18.5
687.324	17.43
687.646	17.95
687.969	17.89
688.292	18.06
688.614	17.72
688.937	18.42
689.26	17.8
689.582	17.78
689.904	18.61
690.227	17.8
690.549	18.31
690.871	17.95
691.194	18.57
691.516	18.5
691.838	17.37
692.16	18.97
692.482	17.99
692.804	18.82
693.126	18.62
693.448	18.42
693.769	18.53
694.091	19.35
694.413	19.07
694.735	18.24
695.056	18.27
695.378	17.77
695.699	18.16
696.021	17.71
696.342	18.67
696.663	18.46
696.984	18.25
697.306	18.05
697.627	19.2
697.948	19.19
698.269	19.06
698.59	20.45
698.911	19.9
699.232	18.7
699.553	19.37
699.873	19.78
700.194	19.05
700.515	18.75
700.835	18.61
701.156	19.33
701.477	19.41
701.797	19.3
702.117	18.9
702.438	19.56
702.758	18.96
703.078	20.36
703.398	19.71
703.719	19.4
704.039	19.03
704.359	19.06
704.679	20.57
704.999	20.01
705.319	18.77
705.638	21.27
705.958	20.75
706.278	21.37
706.597	19.93
706.917	19.63
707.237	20.04
707.556	20.52
707.876	19.26
708.195	20.25
708.514	19.52
708.834	20.58
709.153	20.93
709.472	20.69
709.791	20.74
710.11	21.04
710.429	19.82
710.748	20.45
711.067	21.86
711.386	20.24
711.705	21.43
712.023	21.44
712.342	21.2
712.661	20.16
712.979	22.13
713.298	21.25
713.616	21.06
713.935	20.76
714.253	20.65
714.572	20.84
714.89	20.68
715.208	20.97
715.526	19.91
715.844	21.09
716.162	21.41
716.48	20.81
716.798	21.08
717.116	21.85
717.434	20.64
717.752	20.69
718.069	22.37
718.387	20.8
718.705	21.43
719.022	21.9
719.34	21.06
719.657	22.36
719.975	22.44
720.292	21.75
720.609	22.17
720.927	21.42
721.244	21.95
721.561	22.42
721.878	21.69
722.195	21.06
722.512	22.28
722.829	22.27
723.146	20.59
723.463	22.41
723.779	21.51
724.096	21.91
724.413	20.74
724.729	22.41
725.046	22.92
725.362	21.39
725.679	22.32
725.995	21.3
726.311	22.95
726.628	23.21
726.944	22.72
727.26	22.35
727.576	22.36
727.892	22.7
728.208	22.39
728.524	22.8
728.84	23.03
729.156	24.18
729.472	23.72
729.787	23.16
730.103	22.66
730.419	22.12
730.734	22.07
731.05	23
731.365	22.93
731.681	23.67
731.996	23.71
732.311	22.78
732.626	22.84
732.942	22.9
733.257	22.02
733.572	24.15
733.887	26.26
734.202	24.97
734.517	22.59
734.832	24.37
735.146	25.02
735.461	24.39
735.776	23.11
736.091	22.64
736.405	22.12
736.72	21.51
737.034	23.33
737.349	23.54
737.663	23.71
737.977	23.93
738.292	22.12
738.606	21.89
738.92	23.18
739.234	24.46
739.548	25.04
739.862	25.21
740.176	22.67
740.49	22.92
740.804	25.27
741.117	23.21
741.431	24.63
741.745	26.69
742.058	25.08
742.372	24.3
742.685	23.83
742.999	25.48
743.312	23.84
743.626	24.59
743.939	26.24
744.252	25.48
744.565	24.75
744.878	25.87
745.191	25.11
745.505	26.77
745.817	25.31
746.13	24.07
746.443	24.03
746.756	24.67
747.069	24.84
747.381	22.97
747.694	24.37
748.007	24.6
748.319	25.1
748.632	26.55
748.944	24.27
749.256	25.28
749.569	25.59
749.881	25.11
750.193	23.22
750.505	25.34
750.817	25.11
751.129	26.14
751.441	26.19
751.753	26.19
752.065	24.57
752.377	27.09
752.689	24.7
753	25.33
753.312	25.87
753.624	26.44
753.935	24.31
754.247	25.11
754.558	25.37
754.869	26.06
755.181	26.96
755.492	25.26
755.803	25.51
756.114	26.85
756.425	26.27
756.736	26.4
757.047	25.13
757.358	26.93
757.669	24.5
757.98	27.37
758.291	24.85
758.601	25.23
758.912	25.5
759.223	24.31
759.533	26.65
759.844	25.77
760.154	29.74
760.464	26.46
760.775	27.99
761.085	26.58
761.395	27.03
761.705	27.7
762.016	27.13
762.326	28.03
762.636	28.29
762.945	27.44
763.255	25.46
763.565	27.15
763.875	27.3
764.185	24.74
764.494	27.24
764.804	26.65
765.113	27.02
765.423	27.48
765.732	28.1
766.042	28.52
766.351	28.44
766.66	26.85
766.97	27.18
767.279	26.95
767.588	28.04
767.897	28.35
768.206	28.85
768.515	27.9
768.824	26.98
769.133	29.57
769.441	27.73
769.75	26.84
770.059	27.73
770.367	28.32
770.676	29.42
770.984	28.65
771.293	30.84
771.601	25.42
771.91	27.99
772.218	30.17
772.526	26.7
772.834	26.28
773.142	29.01
773.45	27.41
773.758	28.06
774.066	27.97
774.374	24.65
774.682	29.34
774.99	26.87
775.298	29.67
775.605	28.93
775.913	26.42
776.22	29.66
776.528	25.67
776.835	28.61
777.143	33.47
777.45	27.2
777.757	27.23
778.065	29.49
778.372	26.63
778.679	27.17
778.986	27.92
779.293	29.43
779.6	28.2
779.907	28.17
780.214	29.01
780.52	27.06
780.827	28.31
781.134	26.31
781.44	29.53
781.747	26.48
782.053	31.86
782.36	28.33
782.666	30.17
782.973	26.99
783.279	29.17
783.585	29.75
783.891	33.55
784.197	33.32
784.503	30.96
784.809	30.95
785.115	31.41
785.421	26.54
785.727	27.39
786.033	24.55
786.339	27.78
786.644	27.32
786.95	31.6
787.255	29.08
787.561	30.83
787.866	30.05
788.172	22.21
788.477	30.86
788.782	28
789.088	31.75
789.393	28.13
789.698	29.54
790.003	29.86
790.308	28.87
790.613	27.46
790.918	30.88
791.223	33.63
791.527	29.53
791.832	31.44
792.137	26.84
792.441	32.1
792.746	34.3
793.05	30.97
793.355	32.44
793.659	33.68
793.963	33.94
794.268	28.06
794.572	31.4
794.876	28.02
795.18	29.99
795.484	31.24
795.788	29.47
796.092	24.14
796.396	33.08
796.7	26.25
797.004	33.56
797.307	28.96
797.611	27.95
797.915	25.38
798.218	29.93
798.522	25.79
798.825	31.79
799.128	32.63
799.432	31.75
799.735	30.04
800.038	31.57
800.341	31.95
800.644	27.1
800.947	31.6
801.25	29.52
801.553	31.02
801.856	35.26
802.159	36.55
802.462	30.86
802.764	29.41
803.067	32.32
803.37	28.21
803.672	30.79
803.975	27.01
804.277	27.82
804.579	29.23
804.882	31.09
805.184	29.5
805.486	27.36
805.788	30.35
806.09	31.62
806.392	31.22
806.694	30.31
806.996	31.76
807.298	31.6
807.6	38.64
807.902	30.74
808.203	33.26
808.505	35.31
808.807	33.03
809.108	28.46
809.409	32.98
809.711	28.53
810.012	27.26
810.313	32.57
810.615	29.69
810.916	31.81
811.217	30.14
811.518	24.17
811.819	34
812.12	31.18
812.421	32.21
812.722	29.68
813.023	29.36
813.323	32.42
813.624	28.46
813.925	35.1
814.225	33.66
814.526	35.07
814.826	33.01
815.126	30.25
815.427	37.15
815.727	30.38
816.027	33.75
816.327	31.45
816.627	37.52
816.927	33.4
817.227	31.39
817.527	35.31
817.827	25.78
818.127	40.3
818.427	30.87
818.727	31.61
819.026	35.39
819.326	31.01
819.625	27.77
819.925	33.69
820.224	34.42
820.524	31.1
820.823	40.47
821.122	36.35
821.421	29.11
821.72	37.55
822.019	36.14
822.318	28.33
822.617	32.92
822.916	33.59
823.215	35.06
823.514	32.31
823.813	36.11
824.111	37.03
824.41	34.71
824.709	35.56
825.007	35.09
825.306	35.55
825.604	35.33
825.902	35.19
826.201	34.28
826.499	34.62
826.797	36.09
827.095	34.82
827.393	34.73
827.691	33.38
827.989	34.1
828.287	35.97
828.585	36.26
828.882	33
829.18	36.42
829.478	33.49
829.775	37.44
830.073	36.89
830.37	36.51
830.668	36.22
830.965	34.94
831.263	34.41
831.56	34.5
831.857	34.54
832.154	39.29
832.451	32.6
832.748	32.22
833.045	32.94
833.342	33.09
833.639	33.38
833.936	35.97
834.232	33.1
834.529	34.64
834.826	45.26
835.122	36.12
835.419	34.9
835.715	35.35
836.012	32.17
836.308	35.99
836.604	35.6
836.901	37.94
837.197	36.84
837.493	33.1
837.789	37.37
838.085	38.13
838.381	32.23
838.677	38.95
838.972	34.75
839.268	32.48
839.564	38.61
839.86	33.07
840.155	35.54
840.451	35.76
840.746	40.2
841.042	27.12
841.337	34.18
841.632	24.68
841.928	34.12
842.223	33.75
842.518	29.37
842.813	48.4
843.108	34.21
843.403	34.6
843.698	35.72
843.993	29.98
844.287	32.54
844.582	38.34
844.877	38.47
845.171	41.98
845.466	29.01
845.761	32.3
846.055	23.49
846.349	42
846.644	41.21
846.938	18.94
847.232	38.19
847.526	35
847.82	21.04
848.114	40.57
848.408	57.83
848.702	37.53
848.996	33.71
849.29	21.85
849.584	29.51
849.877	38.52
850.171	43.5
850.465	48.19
850.758	43.82
851.052	21.72
851.345	49.96
851.638	50.03
851.932	29.99
852.225	44.9
852.518	43.55
852.811	45.1
853.104	13.43
853.397	27.62
853.69	15.86
853.983	49.2
854.276	49.05
854.569	25.69
854.861	26.77
855.154	43.74
855.447	40.3
855.739	53.6
856.032	32.61
856.324	59.1
856.616	63.89
856.909	28.97
857.201	40.5
857.493	16.02
857.785	33.92
858.077	27.75
858.369	23.98
858.661	42.8
858.953	35.98
859.245	21.76
859.537	29.89
859.829	17.28
860.12	18.23
860.412	5.35
860.703	51.38
860.995	25.86
861.286	49.6
861.578	45.49
861.869	17.61
862.16	14.09
862.452	55.32
862.743	31.63
863.034	42.2
863.325	59.41
863.616	25.26
863.907	33.71
864.198	33.91
864.488	30.04
864.779	58.48
865.07	19.38
865.36	58.29
865.651	5.06
865.941	5.9
866.232	9.28
866.522	2.85
866.813	2.11
867.103	52.55
867.393	15.96
867.683	24.56
867.973	38.23
868.263	24.23
868.553	33.05
868.843	27.34
869.133	35.41
869.423	40.93
869.713	63.82
870.002	28.02
870.292	37.24
870.582	26.75
870.871	42.17
871.161	14.18
871.45	40.17
871.739	51.26
872.029	11.5
872.318	41.5
872.607	28.6
872.896	31.81
873.185	40.87
873.474	53.53
873.763	44.23
874.052	49.39
874.341	33.87
874.63	53.8
874.918	35.35
875.207	38.5
875.496	58.93
875.784	58.97
876.073	37.2
876.361	46.48
876.649	24.16
876.938	44.04
877.226	51.69
877.514	14.09
877.802	49.78
878.09	22.96
878.378	51.37
878.666	61.13
878.954	51.56
879.242	49.63
879.53	10.81
879.817	37.37
880.105	17.15
880.392	23.11
880.68	65.39
880.967	47.01
881.255	41.94
881.542	67.67
881.83	35.52
882.117	38.23
882.404	31.01
882.691	8.29
882.978	16.15
883.265	23.54
883.552	38.02
883.839	60.49
884.126	46.61
884.413	48.8
884.699	35.23
884.986	41.94
885.273	41.54
885.559	41.54
885.846	41.54
