Data from 431_chest_Reflection__2__124.txt Node

Date: Tue Dec 12 19:26:02 CST 2023
User: ToomeyLab
Spectrometer: FLMS14357
Trigger mode: 0
Integration Time (sec): 1.000000E-2
Scans to average: 100
Electric dark correction enabled: true
Nonlinearity correction enabled: false
Boxcar width: 0
XAxis mode: Wavelengths
Number of Pixels in Spectrum: 2048
>>>>>Begin Spectral Data<<<<<
189.047	136.92
189.435	136.92
189.823	136.92
190.211	-85.72
190.599	55.31
190.987	-0.22
191.375	382.89
191.763	22.04
192.151	62.23
192.538	-96.36
192.926	61.05
193.314	-15.05
193.702	47.1
194.089	-30.95
194.477	-297.64
194.864	68.1
195.252	45
195.639	114.35
196.027	54.98
196.414	-267.77
196.801	0.05
197.189	-159.19
197.576	48.2
197.963	151.4
198.351	-10.14
198.738	61.78
199.125	-23.52
199.512	18.12
199.899	41.61
200.286	17.34
200.673	-3.3
201.06	43.92
201.447	-54.91
201.833	4.12
202.22	-14.27
202.607	-58.61
202.994	2.02
203.38	-11.04
203.767	-19.06
204.154	15.44
204.54	19.55
204.927	13.3
205.313	6.63
205.699	-48.9
206.086	-1.19
206.472	11.48
206.858	-18.71
207.245	-22.77
207.631	-17.15
208.017	4.46
208.403	-19.8
208.789	-17.02
209.175	7.92
209.561	13.64
209.947	17.49
210.333	21.24
210.719	-14.31
211.105	-16.03
211.491	23.67
211.876	14.66
212.262	16.53
212.648	-44.39
213.034	-43.36
213.419	-12.42
213.805	17.55
214.19	5
214.576	7.46
214.961	21.8
215.346	11.32
215.732	23.69
216.117	-7.21
216.502	6.94
216.888	6.93
217.273	-13.08
217.658	-30.69
218.043	-20.92
218.428	17.53
218.813	-3.13
219.198	-17.5
219.583	-0.01
219.968	22.82
220.353	-18.48
220.738	17.52
221.122	-6.54
221.507	-3.98
221.892	5.86
222.276	-7.98
222.661	-5.19
223.046	-12.17
223.43	11.71
223.815	-1.13
224.199	11.49
224.583	-5.82
224.968	3.65
225.352	2.49
225.736	9.34
226.121	-3.14
226.505	5.75
226.889	-7.9
227.273	7.46
227.657	9.7
228.041	4.83
228.425	-1.34
228.809	1.27
229.193	-1.79
229.577	1.62
229.961	-1.68
230.344	1.26
230.728	1.89
231.112	1.55
231.495	0.9
231.879	1.54
232.263	1.76
232.646	1.97
233.03	0.74
233.413	0.94
233.797	0.97
234.18	0.04
234.563	-1.73
234.946	1.9
235.33	2.02
235.713	2.74
236.096	1.39
236.479	1.7
236.862	0.26
237.245	2.07
237.628	1.27
238.011	2.82
238.394	1.02
238.777	2.03
239.16	0.4
239.543	1.33
239.925	0.21
240.308	-0.67
240.691	0.01
241.073	3.01
241.456	0.75
241.838	0.81
242.221	1.18
242.603	1.89
242.986	1.08
243.368	2.12
243.75	1.63
244.133	1.65
244.515	1.7
244.897	1.59
245.279	1.8
245.661	0.87
246.043	0.7
246.425	1.91
246.807	1.5
247.189	1.77
247.571	1.9
247.953	0.84
248.335	1.46
248.717	1.23
249.098	1.46
249.48	1.18
249.862	0.99
250.243	1.27
250.625	2.21
251.006	1.16
251.388	2.08
251.769	1.24
252.151	1.53
252.532	2.04
252.913	0.99
253.295	1.8
253.676	1.22
254.057	1.31
254.438	1.56
254.819	1.07
255.2	0.58
255.581	1.45
255.962	0.93
256.343	1.5
256.724	1.48
257.105	1.38
257.486	1.64
257.867	0.57
258.247	-0.35
258.628	1.27
259.009	0
259.389	1.8
259.77	1.1
260.15	1.58
260.531	1.7
260.911	1.52
261.292	1.16
261.672	1.25
262.052	1.26
262.432	1.27
262.813	1.22
263.193	0.81
263.573	1.28
263.953	2.16
264.333	2.46
264.713	1.43
265.093	1.35
265.473	1.78
265.853	0.66
266.233	0.38
266.612	0.58
266.992	1.27
267.372	1.92
267.752	2.49
268.131	0.54
268.511	0.93
268.89	0.66
269.27	0.93
269.649	1.36
270.029	1.2
270.408	1.37
270.787	1.48
271.167	1.02
271.546	1.29
271.925	1.91
272.304	1.6
272.683	0.81
273.062	1.54
273.441	1.44
273.82	0.92
274.199	1.51
274.578	1.04
274.957	1.03
275.336	1.34
275.715	1.24
276.093	0.91
276.472	1.11
276.851	2.12
277.229	0.7
277.608	1.2
277.986	0.44
278.365	0.88
278.743	1.35
279.122	1.63
279.5	1.02
279.878	1.14
280.257	0.7
280.635	1.06
281.013	1.02
281.391	1.25
281.769	1.18
282.147	1.35
282.525	1.27
282.903	1.06
283.281	0.87
283.659	1.21
284.037	1.3
284.415	1.26
284.792	0.96
285.17	1.14
285.548	1.6
285.925	0.99
286.303	1.27
286.68	1.47
287.058	1.52
287.435	1.38
287.813	0.92
288.19	1.23
288.567	1.52
288.945	1.18
289.322	0.84
289.699	1.06
290.076	1.18
290.453	1.56
290.83	0.92
291.207	1.88
291.584	1.75
291.961	1.42
292.338	1.15
292.715	1.26
293.092	1.51
293.469	1.47
293.845	1.09
294.222	1.13
294.599	1.77
294.975	0.94
295.352	1.38
295.728	1.16
296.105	1.45
296.481	1.71
296.858	1.15
297.234	1.48
297.61	1.03
297.986	1.83
298.363	1.69
298.739	1.38
299.115	1.1
299.491	1.43
299.867	1.41
300.243	1.12
300.619	1.29
300.995	1.77
301.371	1.93
301.746	1.61
302.122	1.86
302.498	1.71
302.874	1.48
303.249	2.1
303.625	1.2
304	1.51
304.376	1.89
304.751	1.59
305.127	1.44
305.502	1.6
305.878	1.25
306.253	1.95
306.628	1.15
307.003	1.92
307.378	1.52
307.754	1.8
308.129	1.14
308.504	2.37
308.879	1.22
309.254	1.76
309.629	0.84
310.003	1.55
310.378	1.67
310.753	1.77
311.128	1.84
311.502	1.25
311.877	1.44
312.252	0.83
312.626	1.26
313.001	1.32
313.375	1.58
313.75	1.61
314.124	1.99
314.498	1.72
314.873	1.78
315.247	1.66
315.621	1.67
315.995	1.94
316.369	1.95
316.743	1.06
317.117	0.73
317.491	1.4
317.865	1.82
318.239	1.31
318.613	2.15
318.987	2.42
319.361	1.62
319.734	1.96
320.108	1.91
320.482	1.91
320.855	1.57
321.229	1.83
321.602	2.09
321.976	1.66
322.349	1.45
322.723	1.78
323.096	1.83
323.469	1.83
323.843	2.19
324.216	2.41
324.589	1.74
324.962	1.82
325.335	2.17
325.708	1.8
326.081	2.03
326.454	1.53
326.827	2.45
327.2	2.2
327.573	1.48
327.945	2.03
328.318	1.91
328.691	1.38
329.063	1.86
329.436	1.81
329.809	1.69
330.181	1.52
330.553	1.62
330.926	1.63
331.298	1.61
331.671	1.81
332.043	1.7
332.415	2.24
332.787	2.03
333.159	2.19
333.532	1.69
333.904	1.66
334.276	2.2
334.648	2.01
335.02	1.4
335.391	1.72
335.763	1.73
336.135	2.02
336.507	2.51
336.879	2.26
337.25	1.34
337.622	1.78
337.993	1.49
338.365	1.82
338.736	1.66
339.108	1.84
339.479	2.16
339.851	1.79
340.222	1.6
340.593	1.96
340.964	1.86
341.336	1.96
341.707	1.87
342.078	1.79
342.449	1.88
342.82	2.16
343.191	1.87
343.562	1.9
343.933	2.13
344.303	1.81
344.674	1.91
345.045	1.57
345.416	2.47
345.786	1.59
346.157	1.76
346.527	2.45
346.898	1.69
347.268	1.81
347.639	2.33
348.009	1.87
348.38	1.93
348.75	2.17
349.12	2.13
349.49	2.12
349.861	1.99
350.231	2.05
350.601	2.09
350.971	1.82
351.341	2.14
351.711	2.37
352.081	2.25
352.45	2.23
352.82	2.15
353.19	1.95
353.56	1.65
353.929	1.74
354.299	1.86
354.669	1.88
355.038	1.64
355.408	1.93
355.777	2.09
356.147	2.27
356.516	1.77
356.885	2.11
357.254	2.41
357.624	1.87
357.993	1.94
358.362	2.06
358.731	1.94
359.1	1.63
359.469	2.17
359.838	1.84
360.207	1.79
360.576	2.11
360.945	2.12
361.314	2.22
361.682	2.03
362.051	2.07
362.42	2.26
362.788	2.11
363.157	2.41
363.525	2.07
363.894	2.07
364.262	2.17
364.631	1.57
364.999	2.08
365.367	2.39
365.735	1.73
366.104	2.16
366.472	1.91
366.84	1.89
367.208	2.04
367.576	2.34
367.944	2.32
368.312	2.31
368.68	2
369.048	2.12
369.416	2.02
369.783	2.21
370.151	2.18
370.519	1.94
370.886	2.31
371.254	2
371.621	2.12
371.989	2.14
372.356	1.87
372.724	1.97
373.091	1.86
373.458	2.16
373.826	1.9
374.193	2.06
374.56	2.5
374.927	2.04
375.294	2.06
375.661	2.42
376.028	2.33
376.395	2.54
376.762	2.53
377.129	2.19
377.496	2.31
377.863	2.34
378.229	2.26
378.596	2.03
378.963	2.49
379.329	2.12
379.696	2.04
380.062	2.42
380.429	2.32
380.795	2.58
381.161	2.6
381.528	2.26
381.894	2.62
382.26	2.02
382.626	2.26
382.993	2.56
383.359	2.25
383.725	2.44
384.091	2.29
384.457	2.05
384.823	2.39
385.188	2.25
385.554	2.15
385.92	2.2
386.286	2.52
386.651	2.52
387.017	2.52
387.383	2.31
387.748	2.37
388.114	2.36
388.479	2.43
388.845	2.12
389.21	2.32
389.575	2.05
389.94	2.25
390.306	2.65
390.671	2.58
391.036	2.37
391.401	2.05
391.766	2.59
392.131	2.52
392.496	2.67
392.861	2.12
393.226	2.61
393.591	2.2
393.956	2.31
394.32	2.42
394.685	2.49
395.05	2.23
395.414	2.3
395.779	2.29
396.143	2.51
396.508	2.31
396.872	2.3
397.236	2.24
397.601	2.22
397.965	2.44
398.329	2.46
398.694	2.39
399.058	2.59
399.422	2.28
399.786	2.48
400.15	2.3
400.514	2.51
400.878	2.44
401.242	2.4
401.605	2.37
401.969	2.24
402.333	2.34
402.697	2.38
403.06	1.81
403.424	2.44
403.787	2.3
404.151	2.67
404.514	2.17
404.878	2.41
405.241	2.61
405.604	2.17
405.968	2.08
406.331	2.56
406.694	2.72
407.057	2.41
407.42	2.53
407.783	2.24
408.146	2.33
408.509	2.41
408.872	2.43
409.235	2.44
409.598	2.42
409.961	2.26
410.323	2.38
410.686	2.51
411.049	2.38
411.411	2.64
411.774	2.61
412.136	2.6
412.499	2.36
412.861	2.35
413.223	2.9
413.586	2.44
413.948	2.5
414.31	2.42
414.672	2.65
415.035	2.58
415.397	2.55
415.759	2.49
416.121	2.46
416.483	2.62
416.845	2.52
417.206	2.62
417.568	2.37
417.93	2.63
418.292	2.25
418.653	2.7
419.015	2.49
419.377	2.34
419.738	2.38
420.1	2.49
420.461	2.57
420.822	2.54
421.184	2.46
421.545	2.55
421.906	2.32
422.267	2.45
422.629	2.42
422.99	2.42
423.351	2.49
423.712	2.47
424.073	2.43
424.434	2.55
424.795	2.59
425.155	2.3
425.516	2.3
425.877	2.44
426.238	2.46
426.598	2.4
426.959	2.46
427.32	2.52
427.68	2.6
428.041	2.61
428.401	2.52
428.761	2.45
429.122	2.61
429.482	2.64
429.842	2.68
430.202	2.44
430.563	2.62
430.923	2.52
431.283	2.36
431.643	2.53
432.003	2.38
432.363	2.47
432.722	2.57
433.082	2.52
433.442	2.54
433.802	2.63
434.161	2.66
434.521	2.63
434.881	2.46
435.24	2.61
435.6	2.66
435.959	2.73
436.319	2.61
436.678	2.76
437.037	2.62
437.396	2.58
437.756	2.5
438.115	2.7
438.474	2.66
438.833	2.64
439.192	2.72
439.551	2.71
439.91	2.51
440.269	2.53
440.628	2.52
440.987	2.42
441.345	2.78
441.704	2.68
442.063	2.66
442.421	2.66
442.78	2.65
443.138	2.46
443.497	2.61
443.855	2.57
444.214	2.69
444.572	2.65
444.93	2.6
445.288	2.52
445.647	2.73
446.005	2.61
446.363	2.56
446.721	2.52
447.079	2.72
447.437	2.44
447.795	2.56
448.153	2.56
448.51	2.76
448.868	2.55
449.226	2.68
449.584	2.65
449.941	2.72
450.299	2.66
450.656	2.64
451.014	2.63
451.371	2.57
451.729	2.9
452.086	2.79
452.443	2.8
452.801	2.76
453.158	2.61
453.515	2.71
453.872	2.66
454.229	2.78
454.586	2.58
454.943	2.63
455.3	2.6
455.657	2.74
456.014	2.75
456.371	2.75
456.727	2.67
457.084	2.78
457.441	2.72
457.797	2.89
458.154	2.81
458.51	2.63
458.867	2.85
459.223	2.89
459.58	2.81
459.936	2.63
460.292	2.64
460.648	2.85
461.005	2.69
461.361	2.59
461.717	2.76
462.073	2.68
462.429	2.65
462.785	2.73
463.141	2.72
463.496	2.67
463.852	2.92
464.208	2.84
464.564	2.81
464.919	2.94
465.275	2.91
465.631	2.76
465.986	2.86
466.342	2.76
466.697	2.92
467.052	2.96
467.408	2.88
467.763	3.07
468.118	2.91
468.473	2.99
468.829	2.68
469.184	2.73
469.539	2.91
469.894	2.9
470.249	2.78
470.603	2.79
470.958	2.93
471.313	3.19
471.668	2.97
472.023	2.78
472.377	2.69
472.732	2.92
473.086	2.95
473.441	2.9
473.795	2.87
474.15	3.03
474.504	2.71
474.859	2.99
475.213	2.79
475.567	2.82
475.921	3.04
476.275	2.82
476.63	2.85
476.984	2.91
477.338	2.91
477.692	2.93
478.045	2.89
478.399	2.83
478.753	2.91
479.107	2.91
479.461	2.85
479.814	2.99
480.168	2.79
480.521	2.86
480.875	3.05
481.228	3.11
481.582	3.06
481.935	3.08
482.289	3
482.642	3.05
482.995	2.95
483.348	2.99
483.701	2.98
484.055	2.9
484.408	2.9
484.761	2.92
485.114	2.83
485.466	2.79
485.819	2.75
486.172	2.73
486.525	2.77
486.878	2.79
487.23	2.78
487.583	2.83
487.936	2.91
488.288	2.86
488.641	2.84
488.993	2.84
489.345	2.86
489.698	2.78
490.05	2.87
490.402	2.85
490.754	2.87
491.107	2.85
491.459	2.97
491.811	3.05
492.163	2.96
492.515	2.97
492.866	2.9
493.218	2.86
493.57	2.86
493.922	2.86
494.274	2.93
494.625	3.02
494.977	3.03
495.328	3.15
495.68	3.08
496.031	3.19
496.383	3.09
496.734	3.18
497.086	2.99
497.437	3.13
497.788	3.01
498.139	3.1
498.49	3.17
498.842	3.07
499.193	3.08
499.544	3.06
499.894	3.03
500.245	3.18
500.596	3.18
500.947	3.09
501.298	3.23
501.648	3.17
501.999	3.16
502.35	3.24
502.7	3.12
503.051	3.16
503.401	3.15
503.752	3.25
504.102	3.16
504.452	3.25
504.803	3.38
505.153	3.28
505.503	3.28
505.853	3.45
506.203	3.37
506.553	3.3
506.903	3.23
507.253	3.22
507.603	3.3
507.953	3.22
508.303	3.21
508.652	3.16
509.002	3.29
509.352	3.28
509.701	3.26
510.051	3.26
510.4	3.3
510.75	3.23
511.099	3.2
511.449	3.34
511.798	3.22
512.147	3.23
512.496	3.44
512.846	3.29
513.195	3.24
513.544	3.37
513.893	3.32
514.242	3.28
514.591	3.32
514.939	3.24
515.288	3.31
515.637	3.38
515.986	3.41
516.334	3.46
516.683	3.4
517.032	3.38
517.38	3.34
517.729	3.43
518.077	3.35
518.426	3.43
518.774	3.43
519.122	3.39
519.47	3.35
519.819	3.32
520.167	3.36
520.515	3.32
520.863	3.42
521.211	3.34
521.559	3.51
521.907	3.44
522.255	3.47
522.602	3.48
522.95	3.49
523.298	3.46
523.645	3.59
523.993	3.56
524.341	3.57
524.688	3.45
525.036	3.62
525.383	3.49
525.73	3.41
526.078	3.53
526.425	3.52
526.772	3.4
527.119	3.54
527.466	3.47
527.814	3.43
528.161	3.51
528.508	3.6
528.854	3.57
529.201	3.5
529.548	3.53
529.895	3.48
530.242	3.4
530.588	3.4
530.935	3.41
531.282	3.45
531.628	3.48
531.975	3.49
532.321	3.56
532.667	3.53
533.014	3.52
533.36	3.57
533.706	3.59
534.052	3.63
534.399	3.62
534.745	3.63
535.091	3.56
535.437	3.62
535.783	3.58
536.129	3.64
536.474	3.68
536.82	3.7
537.166	3.79
537.512	3.8
537.857	3.85
538.203	3.71
538.549	3.67
538.894	3.73
539.239	3.74
539.585	3.75
539.93	3.84
540.276	3.82
540.621	3.8
540.966	3.83
541.311	3.88
541.656	3.9
542.001	3.85
542.346	3.91
542.691	3.87
543.036	3.77
543.381	3.72
543.726	3.83
544.071	3.8
544.415	3.84
544.76	3.9
545.105	3.94
545.449	3.95
545.794	4.01
546.138	3.92
546.483	4.08
546.827	4.08
547.171	4.08
547.516	4.01
547.86	4.1
548.204	4.16
548.548	4.06
548.892	4.04
549.236	4.18
549.58	4.18
549.924	4.09
550.268	4.27
550.612	4.22
550.956	4.38
551.3	4.26
551.643	4.5
551.987	4.38
552.33	4.34
552.674	4.31
553.017	4.52
553.361	4.64
553.704	4.39
554.048	4.36
554.391	4.47
554.734	4.41
555.077	4.54
555.42	4.26
555.764	4.57
556.107	4.44
556.45	4.32
556.793	4.46
557.135	4.49
557.478	4.68
557.821	4.62
558.164	4.67
558.507	4.61
558.849	4.62
559.192	4.67
559.534	4.66
559.877	4.61
560.219	4.63
560.562	4.75
560.904	4.87
561.246	4.5
561.589	4.92
561.931	4.65
562.273	4.55
562.615	4.7
562.957	4.93
563.299	4.89
563.641	4.91
563.983	4.87
564.325	5.02
564.667	4.83
565.008	4.9
565.35	4.72
565.692	5
566.033	4.97
566.375	5.06
566.716	4.74
567.058	5.08
567.399	5.14
567.741	5.05
568.082	5.03
568.423	5.04
568.764	4.98
569.105	5.04
569.447	5.13
569.788	5.08
570.129	5.15
570.47	5.17
570.811	5.03
571.151	5.33
571.492	5.25
571.833	5.35
572.174	5.04
572.514	5.25
572.855	5.23
573.195	5.43
573.536	5.12
573.876	5.32
574.217	5.21
574.557	5.26
574.898	5.33
575.238	5.43
575.578	5.33
575.918	5.4
576.258	5.53
576.598	5.44
576.938	5.4
577.278	5.56
577.618	5.68
577.958	5.42
578.298	5.72
578.638	5.5
578.977	5.68
579.317	5.69
579.657	5.65
579.996	5.65
580.336	5.89
580.675	5.87
581.014	5.9
581.354	5.84
581.693	5.65
582.032	5.49
582.372	5.75
582.711	5.92
583.05	6.02
583.389	5.88
583.728	5.8
584.067	6.16
584.406	6.24
584.745	6.17
585.083	5.87
585.422	6.02
585.761	6.42
586.1	6.1
586.438	6.31
586.777	6.27
587.115	6.22
587.454	6.15
587.792	6.01
588.13	6.43
588.469	6.29
588.807	6.21
589.145	6.68
589.483	6.18
589.821	6.63
590.159	6.46
590.497	6.51
590.835	6.48
591.173	6.58
591.511	6.48
591.849	6.28
592.187	6.48
592.524	6.21
592.862	6.47
593.2	6.45
593.537	6.38
593.875	6.88
594.212	6.73
594.55	6.83
594.887	7.2
595.224	6.94
595.561	6.82
595.899	6.7
596.236	6.84
596.573	6.78
596.91	7.12
597.247	6.77
597.584	6.93
597.921	6.95
598.258	7.04
598.594	6.98
598.931	6.89
599.268	6.77
599.604	6.81
599.941	7.11
600.277	6.98
600.614	7.29
600.95	7.37
601.287	7.19
601.623	7.33
601.959	7.16
602.296	7.36
602.632	7.34
602.968	7.15
603.304	7.41
603.64	7.66
603.976	6.97
604.312	7.74
604.648	7.62
604.984	7.47
605.319	7.53
605.655	7.58
605.991	7.82
606.326	7.5
606.662	7.68
606.998	7.38
607.333	7.61
607.668	7.65
608.004	7.92
608.339	7.93
608.674	7.81
609.01	7.89
609.345	7.84
609.68	7.95
610.015	7.45
610.35	8.11
610.685	7.77
611.02	8.05
611.355	8.01
611.689	7.96
612.024	7.9
612.359	8.14
612.694	8.04
613.028	8.1
613.363	8.09
613.697	8.3
614.032	8.34
614.366	8.38
614.7	8.5
615.035	8.39
615.369	8.4
615.703	8.42
616.037	8
616.371	8.53
616.705	8.65
617.039	8.5
617.373	8.51
617.707	8.41
618.041	8.83
618.375	8.46
618.709	8.54
619.042	8.83
619.376	8.54
619.71	8.94
620.043	8.82
620.377	8.87
620.71	8.44
621.043	8.53
621.377	8.8
621.71	9.26
622.043	9.19
622.376	9.39
622.709	9.16
623.043	8.86
623.376	9.55
623.709	9.13
624.041	9.1
624.374	9.05
624.707	8.97
625.04	9.33
625.373	9.6
625.705	9.26
626.038	9.4
626.37	9.65
626.703	9.3
627.035	9.08
627.368	9.67
627.7	9.22
628.032	9.62
628.365	9.47
628.697	9.55
629.029	9.54
629.361	9.43
629.693	9.68
630.025	9.64
630.357	9.69
630.689	9.5
631.021	9.75
631.353	10.09
631.684	10.04
632.016	9.82
632.348	10.1
632.679	10.11
633.011	10.47
633.342	10.37
633.674	10.37
634.005	10.13
634.336	10.31
634.668	10.28
634.999	10.63
635.33	10.63
635.661	10.2
635.992	10.33
636.323	10.28
636.654	10.54
636.985	10.15
637.316	10.23
637.647	10.47
637.977	10.45
638.308	10.84
638.639	10.33
638.969	10.7
639.3	10.65
639.63	10.89
639.961	10.43
640.291	10.63
640.622	10.77
640.952	11.42
641.282	10.75
641.612	10.97
641.943	10.84
642.273	10.95
642.603	11.23
642.933	10.76
643.263	10.98
643.592	11.36
643.922	11.5
644.252	11.19
644.582	11.03
644.911	11.04
645.241	10.89
645.571	11.62
645.9	11.41
646.23	11.27
646.559	11.68
646.888	11.47
647.218	11.9
647.547	11.84
647.876	11.84
648.205	11.29
648.534	11.83
648.863	11.58
649.192	12.78
649.521	12.16
649.85	11.78
650.179	12.32
650.508	11.97
650.837	11.41
651.165	11.65
651.494	11.85
651.822	11.73
652.151	12.55
652.479	12.49
652.808	12.3
653.136	12.4
653.465	12.63
653.793	12.54
654.121	12.51
654.449	12.49
654.777	12.15
655.105	12.77
655.433	12.64
655.761	12.74
656.089	12.28
656.417	12.78
656.745	12.93
657.073	12.35
657.4	13.02
657.728	12.02
658.056	12.46
658.383	12.52
658.711	13.06
659.038	12.64
659.365	12.79
659.693	12.82
660.02	12.66
660.347	12.91
660.674	13.4
661.001	12.99
661.329	13.1
661.656	12.67
661.982	12.92
662.309	13.03
662.636	13.14
662.963	13.3
663.29	13.83
663.616	13.49
663.943	13.55
664.27	13.58
664.596	13.31
664.923	14.14
665.249	13.64
665.576	13.93
665.902	13.32
666.228	13.68
666.554	13.82
666.881	13.13
667.207	14.24
667.533	13.97
667.859	13.55
668.185	14.1
668.511	14.23
668.837	13.7
669.162	14.45
669.488	13.89
669.814	14.64
670.139	13.63
670.465	13.39
670.791	13.83
671.116	13.94
671.442	13.74
671.767	14.32
672.092	14.5
672.418	14.23
672.743	14.78
673.068	14.01
673.393	14.27
673.718	14.9
674.043	14.97
674.368	14.3
674.693	14.98
675.018	14.23
675.343	14.38
675.667	15
675.992	14.77
676.317	14.65
676.641	15.27
676.966	15.15
677.29	14.94
677.615	14.47
677.939	14.76
678.264	15.28
678.588	14.73
678.912	15.74
679.236	15.6
679.56	15.68
679.885	15.42
680.209	15.44
680.532	15.71
680.856	15.16
681.18	15.57
681.504	15.64
681.828	15.63
682.152	15.65
682.475	15.63
682.799	15.73
683.122	15.73
683.446	16.33
683.769	16.41
684.093	15.39
684.416	15.81
684.739	16.2
685.062	16.16
685.386	16.26
685.709	15.9
686.032	15.97
686.355	15.9
686.678	16.43
687.001	16.8
687.324	16.37
687.646	16.86
687.969	16.24
688.292	17.04
688.614	16.62
688.937	15.84
689.26	16.61
689.582	15.88
689.904	16.32
690.227	16.43
690.549	16.52
690.871	16.06
691.194	16.88
691.516	16.66
691.838	16.02
692.16	17.36
692.482	15.98
692.804	17.15
693.126	16.95
693.448	16.8
693.769	16.05
694.091	17.22
694.413	17.08
694.735	17.69
695.056	16.94
695.378	17.33
695.699	17.75
696.021	17.42
696.342	16.85
696.663	17.3
696.984	16.4
697.306	16.79
697.627	17.3
697.948	17.92
698.269	17.21
698.59	18.24
698.911	18.01
699.232	17.33
699.553	17.43
699.873	19.43
700.194	17.83
700.515	17.43
700.835	17.9
701.156	17.87
701.477	17.57
701.797	18.06
702.117	17.98
702.438	18.76
702.758	18.22
703.078	18.44
703.398	17.86
703.719	18.71
704.039	17.82
704.359	18.08
704.679	19.24
704.999	18.5
705.319	18.19
705.638	19.14
705.958	18.75
706.278	20.04
706.597	18.91
706.917	18.02
707.237	19.23
707.556	19.69
707.876	19.18
708.195	19.55
708.514	19.71
708.834	19.81
709.153	18.89
709.472	19.37
709.791	19.61
710.11	19.23
710.429	18.68
710.748	18.49
711.067	19.86
711.386	20.31
711.705	19.28
712.023	19.79
712.342	19.96
712.661	19.93
712.979	20.15
713.298	20.39
713.616	19.13
713.935	20.02
714.253	19.43
714.572	20.36
714.89	19.84
715.208	20.3
715.526	19.76
715.844	19.87
716.162	20.52
716.48	19.99
716.798	20.05
717.116	20.38
717.434	20.46
717.752	19.59
718.069	20.67
718.387	20.17
718.705	20.34
719.022	20.94
719.34	19.92
719.657	20.8
719.975	20.43
720.292	21.61
720.609	20.38
720.927	20.49
721.244	21.02
721.561	21.7
721.878	20.96
722.195	21.12
722.512	21.41
722.829	22.58
723.146	19.29
723.463	21.65
723.779	20.49
724.096	20.63
724.413	20.08
724.729	21.31
725.046	20.8
725.362	21.25
725.679	20.67
725.995	21.84
726.311	21.84
726.628	21.84
726.944	22.08
727.26	20.32
727.576	22.25
727.892	22.1
728.208	21.81
728.524	21.92
728.84	21.66
729.156	22.28
729.472	22.36
729.787	22.72
730.103	22.49
730.419	22.04
730.734	20.72
731.05	23
731.365	23.37
731.681	23.13
731.996	21.14
732.311	21.89
732.626	22.55
732.942	22.73
733.257	22.77
733.572	24.09
733.887	22.23
734.202	22.91
734.517	22.53
734.832	23.96
735.146	22.6
735.461	24.53
735.776	22.19
736.091	22.49
736.405	23.08
736.72	21.14
737.034	23.06
737.349	21.73
737.663	22.41
737.977	22.26
738.292	22.78
738.606	22.76
738.92	23.3
739.234	23.6
739.548	22.8
739.862	21.67
740.176	23.21
740.49	24.13
740.804	23.78
741.117	22.79
741.431	24.36
741.745	25.66
742.058	24.89
742.372	23.75
742.685	22.76
742.999	24.97
743.312	24.78
743.626	24.21
743.939	24.35
744.252	24.43
744.565	25.19
744.878	24.06
745.191	23.41
745.505	23.79
745.817	26.14
746.13	25.73
746.443	26.48
746.756	25.29
747.069	24.95
747.381	23.02
747.694	22.61
748.007	24.72
748.319	25.52
748.632	24.89
748.944	24.12
749.256	25.12
749.569	23.97
749.881	24.74
750.193	24
750.505	25.22
750.817	22.22
751.129	25.75
751.441	26.07
751.753	26.2
752.065	23.28
752.377	24.46
752.689	27.38
753	24.43
753.312	24.53
753.624	25.47
753.935	26.07
754.247	24.5
754.558	24.45
754.869	25.59
755.181	26.44
755.492	25.74
755.803	26
756.114	27.04
756.425	26.27
756.736	26.24
757.047	24.96
757.358	27.03
757.669	27.02
757.98	25.41
758.291	25.12
758.601	25.93
758.912	26.19
759.223	26.58
759.533	25.78
759.844	27.61
760.154	30.01
760.464	25.77
760.775	28.64
761.085	25.71
761.395	27.46
761.705	26.68
762.016	27.3
762.326	27.82
762.636	29.75
762.945	25.58
763.255	26.35
763.565	26.93
763.875	29.21
764.185	26.85
764.494	26.8
764.804	27.96
765.113	28.27
765.423	27.37
765.732	26.53
766.042	27.14
766.351	27.96
766.66	27.12
766.97	27.85
767.279	26.85
767.588	27.42
767.897	26.52
768.206	29.33
768.515	28
768.824	27.9
769.133	30.85
769.441	29.01
769.75	26.74
770.059	28.43
770.367	26.89
770.676	29.16
770.984	28.63
771.293	28.25
771.601	27.61
771.91	28.58
772.218	30.21
772.526	27.65
772.834	28.87
773.142	27.52
773.45	29.43
773.758	28.07
774.066	30.27
774.374	26.46
774.682	32.23
774.99	27.25
775.298	31.87
775.605	29.51
775.913	30.36
776.22	27.25
776.528	27.98
776.835	29.03
777.143	29.35
777.45	27.41
777.757	28.23
778.065	32.18
778.372	30.55
778.679	27.18
778.986	29.11
779.293	33.2
779.6	29.18
779.907	28.89
780.214	30.63
780.52	30.04
780.827	31.95
781.134	32.28
781.44	30.94
781.747	26.23
782.053	30.56
782.36	30.31
782.666	27.53
782.973	30.18
783.279	32.72
783.585	24.99
783.891	30.47
784.197	28.04
784.503	27.3
784.809	30.14
785.115	29.91
785.421	31.31
785.727	28
786.033	29.46
786.339	34.33
786.644	28.99
786.95	31.36
787.255	33.43
787.561	29.85
787.866	29.36
788.172	26.82
788.477	29.01
788.782	32.14
789.088	32.46
789.393	32.53
789.698	33.1
790.003	31.33
790.308	30.37
790.613	31.63
790.918	27.1
791.223	31.79
791.527	28.55
791.832	31.55
792.137	29.27
792.441	32.95
792.746	33.44
793.05	32.92
793.355	31.58
793.659	32.73
793.963	31.8
794.268	28.03
794.572	31.07
794.876	31.93
795.18	28.69
795.484	29.45
795.788	34.86
796.092	29.22
796.396	36.16
796.7	33.18
797.004	34.52
797.307	30.31
797.611	31.56
797.915	31.75
798.218	31.91
798.522	28.18
798.825	34.83
799.128	29.97
799.432	31.91
799.735	37.53
800.038	36.75
800.341	37.42
800.644	29.14
800.947	33.62
801.25	31.85
801.553	30.64
801.856	27.25
802.159	31.52
802.462	34.7
802.764	35.43
803.067	30.96
803.37	32.09
803.672	30.17
803.975	31.2
804.277	31.7
804.579	30.37
804.882	29.67
805.184	30.84
805.486	27.01
805.788	32.49
806.09	35.99
806.392	31.95
806.694	40.47
806.996	31.85
807.298	35.15
807.6	36.7
807.902	30.24
808.203	32.1
808.505	35.25
808.807	32.7
809.108	33.53
809.409	35.35
809.711	33.23
810.012	36.59
810.313	33.01
810.615	35.21
810.916	35.94
811.217	35.04
811.518	28.14
811.819	32.82
812.12	34.34
812.421	30.04
812.722	32.64
813.023	31.05
813.323	34.83
813.624	35.82
813.925	36.25
814.225	31.5
814.526	36
814.826	36.8
815.126	25.54
815.427	31.01
815.727	28.13
816.027	35.85
816.327	29.65
816.627	40.4
816.927	42.19
817.227	29.85
817.527	33.12
817.827	31.69
818.127	32.31
818.427	27.83
818.727	28.76
819.026	38.94
819.326	33.36
819.625	36.1
819.925	37.88
820.224	34.53
820.524	34.69
820.823	39.94
821.122	33.26
821.421	35.16
821.72	33.67
822.019	29.12
822.318	33.04
822.617	36.41
822.916	36.08
823.215	36.36
823.514	38.71
823.813	37.09
824.111	37.86
824.41	37.7
824.709	37.55
825.007	38.65
825.306	37.61
825.604	37.17
825.902	39.41
826.201	38.13
826.499	38.09
826.797	40.23
827.095	40.24
827.393	39.06
827.691	38.66
827.989	36.81
828.287	40.58
828.585	38.3
828.882	36.67
829.18	40
829.478	37.62
829.775	40.94
830.073	39.48
830.37	37.76
830.668	40.35
830.965	39.19
831.263	37.52
831.56	37.08
831.857	36.79
832.154	42.15
832.451	35.33
832.748	36.17
833.045	40.77
833.342	34.79
833.639	39.58
833.936	35.99
834.232	42.63
834.529	33.01
834.826	39.9
835.122	40.74
835.419	40.17
835.715	34.83
836.012	40.27
836.308	34.99
836.604	41.51
836.901	38.94
837.197	40.27
837.493	41.02
837.789	42.23
838.085	42.01
838.381	39.95
838.677	37
838.972	40.33
839.268	36.9
839.564	40.13
839.86	39.15
840.155	30.43
840.451	38.05
840.746	49.25
841.042	34.2
841.337	37.04
841.632	41.76
841.928	39.76
842.223	37.38
842.518	37.3
842.813	39.37
843.108	29.94
843.403	29.56
843.698	43.23
843.993	35.43
844.287	31.34
844.582	33.25
844.877	45.91
845.171	31.91
845.466	39.51
845.761	52.11
846.055	26.02
846.349	39.08
846.644	47.97
846.938	42.79
847.232	31.47
847.526	40.73
847.82	35.46
848.114	49.64
848.408	46.69
848.702	29.96
848.996	43.94
849.29	44.05
849.584	23.43
849.877	38.55
850.171	34.07
850.465	35.91
850.758	57.11
851.052	34.72
851.345	34.45
851.638	29.5
851.932	35.78
852.225	24.46
852.518	38.88
852.811	46.35
853.104	27.23
853.397	27.36
853.69	31.21
853.983	63.48
854.276	46.92
854.569	28.23
854.861	37.37
855.154	32.88
855.447	17.69
855.739	63.21
856.032	31.03
856.324	41.21
856.616	65.08
856.909	32.09
857.201	49.84
857.493	-14.65
857.785	36.99
858.077	41.86
858.369	42.32
858.661	39.02
858.953	37.4
859.245	23.7
859.537	42.28
859.829	26.25
860.12	13.16
860.412	42.55
860.703	43.2
860.995	31.2
861.286	49.66
861.578	57.38
861.869	70.06
862.16	22.22
862.452	38.83
862.743	49.32
863.034	44.17
863.325	37.15
863.616	42.08
863.907	57.56
864.198	42.13
864.488	30.65
864.779	30.42
865.07	1.43
865.36	58.69
865.651	15.93
865.941	13.03
866.232	18.74
866.522	26.04
866.813	20.94
867.103	50.13
867.393	24.21
867.683	41.29
867.973	29.44
868.263	29.16
868.553	54.22
868.843	48.25
869.133	-0.31
869.423	40.03
869.713	31.89
870.002	8.13
870.292	47.93
870.582	30.68
870.871	42.76
871.161	29.56
871.45	57.29
871.739	22.42
872.029	14.52
872.318	19.51
872.607	39.58
872.896	34.4
873.185	22.2
873.474	51.72
873.763	71.33
874.052	22.13
874.341	43.43
874.63	48.19
874.918	-2.94
875.207	36.65
875.496	48.2
875.784	50.79
876.073	23.79
876.361	40.84
876.649	54.06
876.938	41.24
877.226	38.43
877.514	-0.43
877.802	63.33
878.09	55.9
878.378	38.04
878.666	51.31
878.954	49.53
879.242	49
879.53	54.49
879.817	17.21
880.105	34.59
880.392	26.36
880.68	81.14
880.967	43.8
881.255	42.01
881.542	24.48
881.83	36.82
882.117	30.49
882.404	59.22
882.691	21.89
882.978	6.01
883.265	21.02
883.552	53.99
883.839	44.67
884.126	61.65
884.413	44.58
884.699	49.84
884.986	44.8
885.273	58.62
885.559	58.62
885.846	58.62
