Data from 431_chest_Reflection__1__123.txt Node

Date: Tue Dec 12 19:25:52 CST 2023
User: ToomeyLab
Spectrometer: FLMS14357
Trigger mode: 0
Integration Time (sec): 1.000000E-2
Scans to average: 100
Electric dark correction enabled: true
Nonlinearity correction enabled: false
Boxcar width: 0
XAxis mode: Wavelengths
Number of Pixels in Spectrum: 2048
>>>>>Begin Spectral Data<<<<<
189.047	122.99
189.435	122.99
189.823	122.99
190.211	-61.99
190.599	85.84
190.987	78.74
191.375	82.89
191.763	-46.53
192.151	140.95
192.538	-22.48
192.926	92.78
193.314	-34.95
193.702	159.97
194.089	-10.26
194.477	375.94
194.864	-248.89
195.252	115.69
195.639	300.95
196.027	98.96
196.414	-36.69
196.801	34.91
197.189	-29.9
197.576	70.04
197.963	164.17
198.351	28.52
198.738	26.97
199.125	26.49
199.512	-21.33
199.899	13.13
200.286	9.89
200.673	-19.22
201.06	14.37
201.447	-52.51
201.833	-21.06
202.22	7.56
202.607	-45.63
202.994	7.31
203.38	45.59
203.767	-4.95
204.154	38.82
204.54	53.23
204.927	20.51
205.313	20.52
205.699	9.95
206.086	4.94
206.472	13.46
206.858	-53.18
207.245	6.59
207.631	6.4
208.017	3.65
208.403	7.58
208.789	32
209.175	-20.27
209.561	32.58
209.947	10.96
210.333	53.5
210.719	-32.29
211.105	8.9
211.491	8.33
211.876	-10.6
212.262	3.93
212.648	-19.58
213.034	-193.29
213.419	0.19
213.805	-11.18
214.19	8.95
214.576	32.36
214.961	-1.44
215.346	4.05
215.732	18.46
216.117	21.13
216.502	-8.12
216.888	-4.14
217.273	-18.61
217.658	-3.36
218.043	-15.76
218.428	17.48
218.813	6.57
219.198	-27.41
219.583	10.77
219.968	-3.62
220.353	-4.51
220.738	18.58
221.122	-23.18
221.507	15.22
221.892	9.09
222.276	1.6
222.661	9.34
223.046	-15.44
223.43	5.71
223.815	-12.79
224.199	11.94
224.583	0.23
224.968	0.93
225.352	-9.59
225.736	0.89
226.121	-1.73
226.505	-1.46
226.889	-3.57
227.273	3.77
227.657	2.98
228.041	4.54
228.425	-1.18
228.809	2.04
229.193	-0.93
229.577	1.83
229.961	1.69
230.344	2.97
230.728	2.29
231.112	2.89
231.495	2.14
231.879	1.35
232.263	0.86
232.646	0.9
233.03	2.86
233.413	0.27
233.797	0.13
234.18	0.11
234.563	-0.23
234.946	2.73
235.33	2.84
235.713	1.61
236.096	1.82
236.479	0.68
236.862	3.63
237.245	1.26
237.628	4.07
238.011	1.1
238.394	1.54
238.777	1.84
239.16	1.06
239.543	3.15
239.925	2.5
240.308	2.42
240.691	1.43
241.073	2.88
241.456	2.77
241.838	2.74
242.221	2.9
242.603	3.52
242.986	1.77
243.368	1.65
243.75	1.82
244.133	2.42
244.515	2.45
244.897	2.4
245.279	3.16
245.661	2.03
246.043	1.8
246.425	3.27
246.807	1.22
247.189	3.05
247.571	2.47
247.953	2.52
248.335	2.63
248.717	2.44
249.098	2.48
249.48	2.15
249.862	2.42
250.243	1.78
250.625	2.99
251.006	2.56
251.388	3.65
251.769	2.87
252.151	1.78
252.532	2.25
252.913	2.29
253.295	2.57
253.676	2.02
254.057	2.03
254.438	2.29
254.819	2.54
255.2	1.54
255.581	3.17
255.962	1.95
256.343	2.35
256.724	1.81
257.105	2.66
257.486	0.89
257.867	2.59
258.247	1.61
258.628	3.24
259.009	2.27
259.389	2.1
259.77	2.54
260.15	2.38
260.531	2.81
260.911	2.63
261.292	2.42
261.672	2.29
262.052	2.31
262.432	2.49
262.813	2.54
263.193	2.73
263.573	2.82
263.953	2.62
264.333	3.34
264.713	2.6
265.093	2.35
265.473	2.48
265.853	2.27
266.233	2.1
266.612	1.71
266.992	1.74
267.372	2.87
267.752	3.04
268.131	1.77
268.511	2.38
268.89	1.01
269.27	1.97
269.649	2.61
270.029	2.26
270.408	2.24
270.787	2.34
271.167	2.67
271.546	1.88
271.925	2.76
272.304	2.79
272.683	1.58
273.062	2
273.441	2.71
273.82	2.1
274.199	2.15
274.578	2.02
274.957	2.04
275.336	2.41
275.715	2.48
276.093	2
276.472	2.48
276.851	2.58
277.229	2.25
277.608	1.72
277.986	2.16
278.365	2.37
278.743	2.56
279.122	2.9
279.5	1.72
279.878	1.66
280.257	2.29
280.635	1.83
281.013	1.95
281.391	2.24
281.769	1.99
282.147	2.24
282.525	1.84
282.903	2.12
283.281	2.45
283.659	2.27
284.037	2.61
284.415	2.36
284.792	2.48
285.17	1.89
285.548	2.12
285.925	2.58
286.303	2.14
286.68	2.45
287.058	2.51
287.435	2.33
287.813	2.18
288.19	2.64
288.567	2.36
288.945	2.64
289.322	1.93
289.699	2.27
290.076	2.72
290.453	2.64
290.83	2.37
291.207	3.12
291.584	2.82
291.961	3
292.338	2.69
292.715	2.96
293.092	2.75
293.469	2.36
293.845	2.84
294.222	2.51
294.599	3.01
294.975	2.93
295.352	3.37
295.728	3.13
296.105	3.19
296.481	3.13
296.858	2.65
297.234	3.41
297.61	3.17
297.986	3.78
298.363	3.02
298.739	3.25
299.115	3.04
299.491	3.1
299.867	2.97
300.243	2.91
300.619	3.28
300.995	3.44
301.371	3.52
301.746	3.41
302.122	3.87
302.498	3.54
302.874	3.55
303.249	4.08
303.625	3.7
304	4.14
304.376	3.67
304.751	3.92
305.127	3.62
305.502	4.15
305.878	3.81
306.253	3.61
306.628	3.96
307.003	3.87
307.378	3.8
307.754	3.82
308.129	4.02
308.504	4.89
308.879	3.62
309.254	4.45
309.629	3.92
310.003	4.21
310.378	4.39
310.753	4.43
311.128	4.55
311.502	3.97
311.877	3.73
312.252	3.81
312.626	3.78
313.001	4.25
313.375	4.05
313.75	4.78
314.124	4.55
314.498	4.54
314.873	4.93
315.247	4.85
315.621	4.47
315.995	5.23
316.369	5.14
316.743	4.06
317.117	4.53
317.491	4.6
317.865	4.88
318.239	4.55
318.613	4.85
318.987	5.25
319.361	4.32
319.734	4.76
320.108	4.86
320.482	4.55
320.855	4.3
321.229	5.18
321.602	5.76
321.976	5.54
322.349	5.33
322.723	5.21
323.096	5.4
323.469	5.46
323.843	6.03
324.216	5.58
324.589	5.66
324.962	5.36
325.335	6.27
325.708	5.34
326.081	5.64
326.454	5.21
326.827	5.75
327.2	5.43
327.573	5.4
327.945	5.8
328.318	5.86
328.691	5.09
329.063	5.69
329.436	5.9
329.809	5.35
330.181	5.61
330.553	5.6
330.926	5.62
331.298	5.45
331.671	5.9
332.043	5.69
332.415	5.72
332.787	5.78
333.159	5.76
333.532	5.89
333.904	5.53
334.276	6.43
334.648	5.56
335.02	5.65
335.391	5.4
335.763	5.59
336.135	5.89
336.507	6.59
336.879	5.96
337.25	6.45
337.622	5.89
337.993	6.11
338.365	6.06
338.736	6.24
339.108	5.98
339.479	5.92
339.851	5.57
340.222	5.9
340.593	6.49
340.964	6.24
341.336	6.25
341.707	6.03
342.078	5.65
342.449	6.54
342.82	6.78
343.191	6.16
343.562	6.32
343.933	6.37
344.303	6.28
344.674	6.57
345.045	6.51
345.416	6.21
345.786	6.03
346.157	6.22
346.527	6.69
346.898	6
347.268	6.28
347.639	6.54
348.009	6.13
348.38	6.51
348.75	6.63
349.12	6.77
349.49	6.21
349.861	6.86
350.231	6.93
350.601	6.98
350.971	6.64
351.341	6.39
351.711	6.5
352.081	6.78
352.45	6.39
352.82	6.74
353.19	6.72
353.56	6.65
353.929	6.52
354.299	6.21
354.669	6.56
355.038	6.15
355.408	6.74
355.777	6.67
356.147	6.62
356.516	6.61
356.885	6.76
357.254	6.86
357.624	6.36
357.993	6.87
358.362	7.25
358.731	6.91
359.1	6.63
359.469	6.94
359.838	6.69
360.207	6.49
360.576	6.94
360.945	6.59
361.314	7.1
361.682	6.99
362.051	7.12
362.42	6.96
362.788	6.88
363.157	6.96
363.525	7.18
363.894	6.9
364.262	6.86
364.631	6.71
364.999	7.12
365.367	7.17
365.735	7.07
366.104	7.18
366.472	6.9
366.84	7.14
367.208	7.12
367.576	7.18
367.944	7.46
368.312	6.85
368.68	6.88
369.048	7.55
369.416	7.06
369.783	7.44
370.151	7.23
370.519	7.29
370.886	7.51
371.254	6.95
371.621	7.47
371.989	7.12
372.356	7.3
372.724	7.4
373.091	7.06
373.458	7.48
373.826	7.46
374.193	6.99
374.56	7.56
374.927	7.57
375.294	7.7
375.661	7.74
376.028	7.48
376.395	7.71
376.762	8.02
377.129	7.61
377.496	7.69
377.863	7.42
378.229	7.25
378.596	7.58
378.963	7.66
379.329	7.24
379.696	7.22
380.062	7.66
380.429	7.56
380.795	7.79
381.161	7.84
381.528	7.72
381.894	7.66
382.26	7.63
382.626	7.69
382.993	7.59
383.359	7.65
383.725	7.61
384.091	7.64
384.457	7.98
384.823	7.92
385.188	7.73
385.554	7.8
385.92	7.74
386.286	8.18
386.651	7.97
387.017	8.06
387.383	7.84
387.748	7.81
388.114	8.37
388.479	8.2
388.845	8.27
389.21	7.97
389.575	7.85
389.94	8.04
390.306	7.95
390.671	7.96
391.036	8.05
391.401	7.97
391.766	7.79
392.131	7.99
392.496	8.28
392.861	8.02
393.226	8.33
393.591	8.01
393.956	8
394.32	8.33
394.685	8.37
395.05	8.01
395.414	8.04
395.779	8.26
396.143	8.28
396.508	8.13
396.872	8.03
397.236	7.94
397.601	8.23
397.965	8.32
398.329	8.18
398.694	8.35
399.058	8.25
399.422	8.31
399.786	8.28
400.15	8.14
400.514	8.65
400.878	8.38
401.242	8.48
401.605	8.54
401.969	8.53
402.333	8.69
402.697	8.65
403.06	8.3
403.424	8.61
403.787	8.22
404.151	8.54
404.514	8.41
404.878	8.5
405.241	8.83
405.604	8.34
405.968	8.32
406.331	8.69
406.694	8.62
407.057	8.58
407.42	8.56
407.783	8.46
408.146	8.54
408.509	8.63
408.872	8.73
409.235	8.83
409.598	8.64
409.961	8.71
410.323	8.64
410.686	8.66
411.049	8.78
411.411	9.04
411.774	8.81
412.136	8.99
412.499	8.84
412.861	8.77
413.223	8.87
413.586	8.75
413.948	8.59
414.31	8.81
414.672	9
415.035	8.88
415.397	9.08
415.759	9.14
416.121	8.97
416.483	8.93
416.845	8.94
417.206	9.34
417.568	8.93
417.93	8.74
418.292	8.75
418.653	9.23
419.015	8.95
419.377	8.87
419.738	8.91
420.1	8.85
420.461	8.97
420.822	8.87
421.184	8.84
421.545	9.07
421.906	8.88
422.267	8.84
422.629	8.96
422.99	9.08
423.351	8.93
423.712	8.93
424.073	8.91
424.434	9.01
424.795	9.01
425.155	9.04
425.516	8.88
425.877	9
426.238	9.02
426.598	8.97
426.959	9.05
427.32	9.13
427.68	9.13
428.041	9.33
428.401	9.26
428.761	9.22
429.122	9.38
429.482	9.4
429.842	9.35
430.202	9.26
430.563	9.37
430.923	9.41
431.283	9.31
431.643	9.21
432.003	9.22
432.363	9.53
432.722	9.32
433.082	9.29
433.442	9.55
433.802	9.49
434.161	9.54
434.521	9.43
434.881	9.57
435.24	9.63
435.6	9.51
435.959	9.48
436.319	9.51
436.678	9.54
437.037	9.54
437.396	9.41
437.756	9.55
438.115	9.64
438.474	9.61
438.833	9.72
439.192	9.89
439.551	9.62
439.91	9.6
440.269	9.6
440.628	9.65
440.987	9.5
441.345	9.83
441.704	9.53
442.063	9.73
442.421	9.73
442.78	9.78
443.138	9.5
443.497	9.7
443.855	9.77
444.214	9.84
444.572	9.9
444.93	10.02
445.288	9.76
445.647	9.89
446.005	9.78
446.363	9.68
446.721	9.71
447.079	9.84
447.437	9.7
447.795	9.8
448.153	9.8
448.51	9.87
448.868	9.81
449.226	9.95
449.584	9.84
449.941	9.87
450.299	9.73
450.656	9.96
451.014	10.02
451.371	10.03
451.729	10.09
452.086	10.1
452.443	10.31
452.801	10.24
453.158	10.14
453.515	10.16
453.872	10.2
454.229	10.3
454.586	9.96
454.943	10.16
455.3	10.15
455.657	10.35
456.014	10.35
456.371	10.36
456.727	10.32
457.084	10.33
457.441	10.34
457.797	10.34
458.154	10.27
458.51	10.49
458.867	10.67
459.223	10.56
459.58	10.39
459.936	10.18
460.292	10.39
460.648	10.41
461.005	10.31
461.361	10.25
461.717	10.27
462.073	10.22
462.429	10.29
462.785	10.33
463.141	10.45
463.496	10.33
463.852	10.64
464.208	10.55
464.564	10.49
464.919	10.71
465.275	10.63
465.631	10.85
465.986	10.64
466.342	10.63
466.697	10.78
467.052	10.87
467.408	10.69
467.763	10.89
468.118	10.66
468.473	10.95
468.829	10.76
469.184	10.74
469.539	10.86
469.894	10.65
470.249	10.84
470.603	10.91
470.958	10.88
471.313	11.02
471.668	11.17
472.023	10.81
472.377	10.93
472.732	10.91
473.086	10.84
473.441	11.13
473.795	11.1
474.15	11.22
474.504	10.85
474.859	11.09
475.213	10.77
475.567	11.21
475.921	11.05
476.275	11.03
476.63	11.16
476.984	11.26
477.338	11
477.692	11.13
478.045	11.16
478.399	11.03
478.753	11.08
479.107	11.14
479.461	11.09
479.814	11.33
480.168	10.95
480.521	11.12
480.875	11.14
481.228	11.15
481.582	11.4
481.935	11.3
482.289	11.19
482.642	11.29
482.995	11.11
483.348	11.3
483.701	11.33
484.055	11.1
484.408	11.06
484.761	11.07
485.114	10.87
485.466	10.73
485.819	10.66
486.172	10.67
486.525	10.81
486.878	10.9
487.23	10.98
487.583	11.08
487.936	11.19
488.288	11.06
488.641	11.15
488.993	11.04
489.345	10.97
489.698	10.96
490.05	11.02
490.402	11.05
490.754	11.18
491.107	11.24
491.459	11.39
491.811	11.44
492.163	11.45
492.515	11.53
492.866	11.32
493.218	11.18
493.57	11.21
493.922	11.15
494.274	11.33
494.625	11.44
494.977	11.63
495.328	11.74
495.68	11.66
496.031	11.9
496.383	12
496.734	11.71
497.086	11.92
497.437	11.81
497.788	11.83
498.139	11.83
498.49	11.91
498.842	11.88
499.193	11.93
499.544	11.91
499.894	11.98
500.245	12.07
500.596	11.97
500.947	11.95
501.298	12.15
501.648	12.1
501.999	12.15
502.35	12.03
502.7	12.22
503.051	12.22
503.401	12.21
503.752	12.35
504.102	12.27
504.452	12.24
504.803	12.29
505.153	12.37
505.503	12.35
505.853	12.39
506.203	12.31
506.553	12.25
506.903	12.4
507.253	12.47
507.603	12.37
507.953	12.37
508.303	12.45
508.652	12.62
509.002	12.51
509.352	12.5
509.701	12.47
510.051	12.58
510.4	12.51
510.75	12.49
511.099	12.44
511.449	12.55
511.798	12.47
512.147	12.52
512.496	12.59
512.846	12.53
513.195	12.49
513.544	12.77
513.893	12.62
514.242	12.7
514.591	12.58
514.939	12.62
515.288	12.71
515.637	12.64
515.986	12.8
516.334	12.91
516.683	12.78
517.032	12.85
517.38	12.84
517.729	12.95
518.077	12.92
518.426	12.94
518.774	12.85
519.122	12.92
519.47	12.93
519.819	12.88
520.167	12.74
520.515	12.73
520.863	12.92
521.211	12.84
521.559	12.85
521.907	12.97
522.255	12.93
522.602	13.02
522.95	13.16
523.298	13.18
523.645	13.32
523.993	13.17
524.341	13.35
524.688	13.28
525.036	13.38
525.383	13.16
525.73	13.15
526.078	13.31
526.425	13.31
526.772	13.21
527.119	13.27
527.466	13.3
527.814	13.21
528.161	13.3
528.508	13.37
528.854	13.14
529.201	13.3
529.548	13.17
529.895	13.06
530.242	12.83
530.588	12.82
530.935	12.88
531.282	12.99
531.628	13.08
531.975	13.12
532.321	13.24
532.667	13.27
533.014	13.5
533.36	13.41
533.706	13.46
534.052	13.63
534.399	13.49
534.745	13.47
535.091	13.29
535.437	13.32
535.783	13.38
536.129	13.61
536.474	13.6
536.82	13.76
537.166	13.81
537.512	13.84
537.857	13.86
538.203	13.77
538.549	13.72
538.894	13.8
539.239	13.79
539.585	13.92
539.93	14.04
540.276	14.16
540.621	14.14
540.966	14.15
541.311	14.25
541.656	14.17
542.001	14.17
542.346	14.04
542.691	13.96
543.036	13.8
543.381	13.73
543.726	13.86
544.071	13.84
544.415	14.05
544.76	14.08
545.105	14.05
545.449	14.22
545.794	14.41
546.138	14.31
546.483	14.41
546.827	14.44
547.171	14.55
547.516	14.6
547.86	14.47
548.204	14.62
548.548	14.41
548.892	14.59
549.236	14.54
549.58	14.61
549.924	14.76
550.268	14.89
550.612	14.81
550.956	14.98
551.3	15.05
551.643	14.99
551.987	14.99
552.33	15.14
552.674	14.87
553.017	15.21
553.361	15.2
553.704	15.06
554.048	15.02
554.391	15.06
554.734	15.01
555.077	15.15
555.42	15.06
555.764	15.28
556.107	15.26
556.45	15.31
556.793	15.27
557.135	15.23
557.478	15.41
557.821	15.39
558.164	15.35
558.507	15.6
558.849	15.68
559.192	15.44
559.534	15.74
559.877	15.77
560.219	15.61
560.562	15.63
560.904	15.91
561.246	15.43
561.589	15.76
561.931	15.65
562.273	15.51
562.615	15.68
562.957	15.89
563.299	15.87
563.641	15.76
563.983	15.77
564.325	15.9
564.667	15.84
565.008	15.71
565.35	15.93
565.692	16.05
566.033	16.05
566.375	15.97
566.716	15.8
567.058	16.05
567.399	16.05
567.741	16.02
568.082	15.93
568.423	15.96
568.764	15.98
569.105	16
569.447	16.09
569.788	16.15
570.129	16.07
570.47	16.39
570.811	16.33
571.151	16.28
571.492	16.37
571.833	16.37
572.174	16.2
572.514	16.38
572.855	16.64
573.195	16.45
573.536	16.12
573.876	16.49
574.217	16.37
574.557	16.54
574.898	16.48
575.238	16.69
575.578	16.49
575.918	16.64
576.258	16.58
576.598	16.43
576.938	16.67
577.278	16.55
577.618	16.78
577.958	16.77
578.298	16.98
578.638	16.9
578.977	16.72
579.317	16.85
579.657	16.79
579.996	17.13
580.336	17.02
580.675	17.2
581.014	17.28
581.354	16.96
581.693	17.07
582.032	16.99
582.372	17.2
582.711	17.12
583.05	17.15
583.389	17.36
583.728	17.33
584.067	17.41
584.406	17.36
584.745	17.4
585.083	17.42
585.422	17.82
585.761	17.44
586.1	17.55
586.438	17.72
586.777	17.55
587.115	17.61
587.454	17.71
587.792	17.34
588.13	17.87
588.469	17.57
588.807	17.72
589.145	17.71
589.483	17.48
589.821	17.92
590.159	18.01
590.497	17.73
590.835	17.7
591.173	17.74
591.511	17.85
591.849	17.93
592.187	17.98
592.524	17.64
592.862	17.72
593.2	17.6
593.537	17.75
593.875	18.29
594.212	18.09
594.55	18.24
594.887	18.4
595.224	17.9
595.561	18.28
595.899	18.18
596.236	18.09
596.573	18.1
596.91	18.22
597.247	18.02
597.584	18.18
597.921	18.28
598.258	18.24
598.594	18.27
598.931	17.97
599.268	18.11
599.604	18.25
599.941	18.08
600.277	18.27
600.614	18.41
600.95	18.32
601.287	18.75
601.623	18.52
601.959	18.34
602.296	18.5
602.632	18.45
602.968	18.69
603.304	18.73
603.64	18.8
603.976	18.79
604.312	18.59
604.648	18.91
604.984	18.48
605.319	18.65
605.655	18.77
605.991	18.65
606.326	18.56
606.662	18.76
606.998	18.57
607.333	18.87
607.668	18.66
608.004	18.8
608.339	19.06
608.674	19.27
609.01	18.82
609.345	19.19
609.68	19.11
610.015	18.9
610.35	19.39
610.685	19.17
611.02	19.07
611.355	19.13
611.689	18.96
612.024	18.98
612.359	19.1
612.694	19.07
613.028	19.32
613.363	19.17
613.697	19.17
614.032	19.5
614.366	19.5
614.7	19.44
615.035	19.48
615.369	19.35
615.703	19.59
616.037	19.47
616.371	19.5
616.705	19.68
617.039	19.64
617.373	19.61
617.707	19.49
618.041	19.7
618.375	19.59
618.709	19.48
619.042	19.37
619.376	19.94
619.71	19.82
620.043	19.69
620.377	19.44
620.71	19.64
621.043	19.83
621.377	19.48
621.71	19.56
622.043	19.99
622.376	20.11
622.709	20.05
623.043	20.01
623.376	20.23
623.709	20.36
624.041	20.38
624.374	20.08
624.707	20.11
625.04	20.2
625.373	20.39
625.705	20.25
626.038	20.13
626.37	20.35
626.703	20.69
627.035	20.03
627.368	20.59
627.7	20.05
628.032	20.32
628.365	20.27
628.697	20.29
629.029	20.3
629.361	20.36
629.693	20.21
630.025	20.14
630.357	20.27
630.689	20.24
631.021	20.59
631.353	20.73
631.684	20.46
632.016	20.32
632.348	20.83
632.679	20.2
633.011	21.01
633.342	20.64
633.674	20.75
634.005	20.68
634.336	20.78
634.668	20.86
634.999	21.21
635.33	20.49
635.661	20.83
635.992	20.6
636.323	20.6
636.654	20.9
636.985	20.7
637.316	20.68
637.647	21.05
637.977	21.19
638.308	21.11
638.639	20.99
638.969	20.77
639.3	20.88
639.63	20.97
639.961	20.99
640.291	21.08
640.622	21.16
640.952	21.61
641.282	20.82
641.612	21.01
641.943	20.88
642.273	21.55
642.603	21.64
642.933	21.22
643.263	20.66
643.592	21.65
643.922	21.41
644.252	21.52
644.582	21.11
644.911	21.04
645.241	21.27
645.571	22.01
645.9	21.48
646.23	20.73
646.559	21.44
646.888	21.22
647.218	21.56
647.547	21.35
647.876	21.81
648.205	21.73
648.534	21.83
648.863	21.47
649.192	21.82
649.521	22.17
649.85	21.67
650.179	22.12
650.508	21.84
650.837	21.91
651.165	21.96
651.494	21.6
651.822	21.54
652.151	22.36
652.479	22.01
652.808	21.84
653.136	21.85
653.465	21.83
653.793	22.19
654.121	22.35
654.449	21.99
654.777	22.13
655.105	21.89
655.433	22.22
655.761	22.53
656.089	21.71
656.417	22.25
656.745	22.37
657.073	21.78
657.4	21.89
657.728	21.45
658.056	22.4
658.383	21.8
658.711	22.02
659.038	22.16
659.365	22.29
659.693	22.27
660.02	22.2
660.347	22.55
660.674	21.94
661.001	22.27
661.329	22.19
661.656	22.19
661.982	22.13
662.309	21.78
662.636	22.33
662.963	23.11
663.29	22.56
663.616	22.56
663.943	22.93
664.27	22.63
664.596	23.08
664.923	22.55
665.249	22.41
665.576	22.7
665.902	22.8
666.228	22.75
666.554	22.37
666.881	22.03
667.207	22.53
667.533	23.23
667.859	22.84
668.185	22.51
668.511	22.86
668.837	23.02
669.162	23.28
669.488	22.69
669.814	22.76
670.139	22.63
670.465	22.32
670.791	22.61
671.116	22.4
671.442	22.76
671.767	23.11
672.092	23.51
672.418	22.94
672.743	23.69
673.068	22.66
673.393	23.14
673.718	23.06
674.043	23.16
674.368	22.67
674.693	22.61
675.018	22.94
675.343	22.92
675.667	23.32
675.992	22.56
676.317	22.91
676.641	22.76
676.966	22.3
677.29	22.9
677.615	23.21
677.939	23.2
678.264	23.53
678.588	23.34
678.912	23.97
679.236	22.86
679.56	23.79
679.885	23.63
680.209	22.85
680.532	23.32
680.856	23.79
681.18	23.75
681.504	24.03
681.828	23.49
682.152	23.57
682.475	23.25
682.799	23.61
683.122	23.26
683.446	24.75
683.769	24.62
684.093	22.72
684.416	24.12
684.739	24.23
685.062	23.43
685.386	23.12
685.709	24.03
686.032	23.56
686.355	23.78
686.678	23.44
687.001	23.51
687.324	23.68
687.646	24.31
687.969	23.47
688.292	23.81
688.614	24.08
688.937	23.81
689.26	23.7
689.582	23.49
689.904	23.56
690.227	24.28
690.549	24.27
690.871	23.48
691.194	24.03
691.516	24.14
691.838	22.94
692.16	24.37
692.482	23.39
692.804	24.06
693.126	24.11
693.448	23.55
693.769	24.13
694.091	24.72
694.413	24.56
694.735	23.3
695.056	24.4
695.378	24.2
695.699	23.53
696.021	23.65
696.342	23.75
696.663	23.58
696.984	23.19
697.306	23.94
697.627	24.12
697.948	25.34
698.269	24.25
698.59	25
698.911	24.87
699.232	24.26
699.553	24.79
699.873	24.93
700.194	23.9
700.515	24.61
700.835	24.19
701.156	23.81
701.477	24.19
701.797	24.34
702.117	24.26
702.438	24.29
702.758	24
703.078	25.44
703.398	23.78
703.719	24.23
704.039	24.63
704.359	24.55
704.679	24.94
704.999	25.19
705.319	23.72
705.638	24.62
705.958	25.63
706.278	25.34
706.597	24.79
706.917	24.93
707.237	24.66
707.556	25.46
707.876	24.61
708.195	24.84
708.514	24.11
708.834	26.21
709.153	24.91
709.472	25.7
709.791	25.65
710.11	24.88
710.429	24.53
710.748	24.68
711.067	25.32
711.386	24.95
711.705	24.31
712.023	25.61
712.342	26.2
712.661	24.86
712.979	25.79
713.298	25.42
713.616	25.09
713.935	25.59
714.253	25.76
714.572	25.01
714.89	25.37
715.208	25.08
715.526	24.7
715.844	24.39
716.162	24.42
716.48	24.74
716.798	24.82
717.116	25.78
717.434	24.77
717.752	24.32
718.069	24.63
718.387	25.3
718.705	24.68
719.022	25.58
719.34	25.37
719.657	25.8
719.975	25.32
720.292	25.96
720.609	26.08
720.927	24.86
721.244	25.45
721.561	25.87
721.878	25.91
722.195	25.12
722.512	25.76
722.829	25.8
723.146	24.73
723.463	24.79
723.779	24.71
724.096	24.28
724.413	25.52
724.729	26.03
725.046	26.54
725.362	25.7
725.679	24.29
725.995	26.36
726.311	25.05
726.628	25.54
726.944	24.21
727.26	24.79
727.576	24.82
727.892	24.24
728.208	24.9
728.524	24.55
728.84	26.55
729.156	25.45
729.472	27.26
729.787	25.82
730.103	26.21
730.419	25.45
730.734	24.88
731.05	27.02
731.365	24.98
731.681	26.24
731.996	25.73
732.311	25.95
732.626	26.24
732.942	25.88
733.257	25.49
733.572	26.06
733.887	25.86
734.202	27.39
734.517	26.8
734.832	25.28
735.146	27.65
735.461	25.81
735.776	25.81
736.091	25.96
736.405	25.91
736.72	25.05
737.034	25.72
737.349	24.6
737.663	25.65
737.977	25.32
738.292	24.69
738.606	25.2
738.92	25.14
739.234	26.02
739.548	26.44
739.862	24.95
740.176	25.64
740.49	26.46
740.804	27.2
741.117	24.86
741.431	27.96
741.745	28.1
742.058	26.5
742.372	25.8
742.685	26.37
742.999	26.83
743.312	25.17
743.626	26.92
743.939	27.42
744.252	27.13
744.565	26.69
744.878	25.67
745.191	27.89
745.505	25.27
745.817	26.77
746.13	26.38
746.443	26.7
746.756	26.73
747.069	27.11
747.381	27.16
747.694	26.32
748.007	25.82
748.319	26.9
748.632	27
748.944	26.62
749.256	26.65
749.569	26.09
749.881	27.61
750.193	25.78
750.505	27.92
750.817	26.87
751.129	24.46
751.441	25.3
751.753	29.01
752.065	24.08
752.377	26
752.689	25.84
753	25.93
753.312	24.73
753.624	27.45
753.935	27.22
754.247	26.78
754.558	26.04
754.869	24.89
755.181	27.66
755.492	27.49
755.803	26.38
756.114	26.35
756.425	28.13
756.736	26.68
757.047	26.6
757.358	27.93
757.669	28.2
757.98	27.57
758.291	26.72
758.601	27.57
758.912	25.79
759.223	26.65
759.533	26.21
759.844	26.55
760.154	29.56
760.464	27.17
760.775	27.28
761.085	26.5
761.395	27.38
761.705	26.67
762.016	26.67
762.326	27.22
762.636	26.81
762.945	25.79
763.255	27.27
763.565	26.52
763.875	28.06
764.185	26.81
764.494	27.16
764.804	26.6
765.113	26.94
765.423	27.97
765.732	27.69
766.042	26.38
766.351	26.38
766.66	26.96
766.97	28.29
767.279	27.6
767.588	25.8
767.897	28.87
768.206	28.5
768.515	28.53
768.824	27.5
769.133	29.09
769.441	28.95
769.75	25.35
770.059	27.29
770.367	25.52
770.676	28.3
770.984	26.24
771.293	27.13
771.601	25.98
771.91	27.25
772.218	29.05
772.526	25.55
772.834	27.27
773.142	25.95
773.45	24.32
773.758	25.77
774.066	27.1
774.374	25.43
774.682	28.35
774.99	26.46
775.298	27.05
775.605	25.69
775.913	26.93
776.22	26.89
776.528	24.93
776.835	25.63
777.143	31.83
777.45	24.7
777.757	24.79
778.065	26.07
778.372	26.58
778.679	26.88
778.986	30.04
779.293	27.15
779.6	27.14
779.907	25.71
780.214	25.61
780.52	27.32
780.827	29.88
781.134	31.32
781.44	29.54
781.747	25.87
782.053	28.51
782.36	31.97
782.666	25.66
782.973	25.83
783.279	26.08
783.585	26.44
783.891	31.69
784.197	32.73
784.503	23.99
784.809	27.57
785.115	27.81
785.421	29.92
785.727	24.75
786.033	28.4
786.339	30.25
786.644	26.38
786.95	27.99
787.255	28.05
787.561	26.27
787.866	31.85
788.172	22.96
788.477	26.08
788.782	29.22
789.088	28.6
789.393	24.06
789.698	25.88
790.003	29.91
790.308	25.7
790.613	24.24
790.918	27.42
791.223	28.45
791.527	27.45
791.832	28.92
792.137	25.99
792.441	28.66
792.746	28
793.05	29.86
793.355	28.63
793.659	27.54
793.963	23.99
794.268	24.81
794.572	25.91
794.876	26.23
795.18	28.81
795.484	26.24
795.788	30.22
796.092	23.65
796.396	30.12
796.7	25.92
797.004	31.13
797.307	20
797.611	25.81
797.915	28.06
798.218	24.12
798.522	27.31
798.825	26.77
799.128	27.15
799.432	26.04
799.735	28.07
800.038	27.92
800.341	33.42
800.644	23.83
800.947	29.36
801.25	28.8
801.553	22.47
801.856	27.06
802.159	28.03
802.462	30.37
802.764	23.93
803.067	27.82
803.37	25.5
803.672	22.46
803.975	26.34
804.277	29.61
804.579	25.51
804.882	31.05
805.184	26.25
805.486	21.67
805.788	25.64
806.09	26.37
806.392	25
806.694	30.45
806.996	25.14
807.298	30.44
807.6	29.85
807.902	24.96
808.203	28.16
808.505	27.48
808.807	26.17
809.108	28.08
809.409	28.84
809.711	24.85
810.012	25.34
810.313	26.6
810.615	24
810.916	28.76
811.217	23.36
811.518	25.67
811.819	27.19
812.12	25.58
812.421	24.55
812.722	28.91
813.023	24.7
813.323	34.16
813.624	30.55
813.925	29.61
814.225	28.07
814.526	30.53
814.826	32.89
815.126	23.17
815.427	28.02
815.727	25.02
816.027	31.09
816.327	28
816.627	33.91
816.927	28.26
817.227	23
817.527	28.55
817.827	23.63
818.127	29.54
818.427	26.74
818.727	17.22
819.026	28.19
819.326	27.36
819.625	22.49
819.925	37.45
820.224	30.27
820.524	30.74
820.823	31.31
821.122	30.38
821.421	25.73
821.72	29.17
822.019	20.88
822.318	25.82
822.617	29.42
822.916	24.58
823.215	30.5
823.514	29.32
823.813	31.18
824.111	28.12
824.41	27.23
824.709	29.86
825.007	29.34
825.306	29.45
825.604	29.59
825.902	29.69
826.201	30.13
826.499	29.56
826.797	31.33
827.095	31.19
827.393	29.68
827.691	31.51
827.989	29.39
828.287	30.36
828.585	30.28
828.882	30.07
829.18	28.25
829.478	30.08
829.775	30.85
830.073	28.77
830.37	30.31
830.668	29.17
830.965	30.56
831.263	32.4
831.56	27.95
831.857	24.45
832.154	28.44
832.451	28.71
832.748	26.79
833.045	28.76
833.342	30.13
833.639	33.04
833.936	32.3
834.232	31.35
834.529	20.89
834.826	28.48
835.122	32.21
835.419	23.6
835.715	23.65
836.012	22.53
836.308	22.57
836.604	27.03
836.901	27.53
837.197	29.14
837.493	28.15
837.789	28.71
838.085	32.66
838.381	27.19
838.677	30.01
838.972	27.28
839.268	23.24
839.564	27.47
839.86	33.64
840.155	23.95
840.451	23.77
840.746	34.91
841.042	29.79
841.337	32.24
841.632	34.11
841.928	25.36
842.223	26.37
842.518	22.99
842.813	28.04
843.108	23.95
843.403	27.36
843.698	26.15
843.993	19.9
844.287	21.69
844.582	23.91
844.877	29.88
845.171	29.68
845.466	16.3
845.761	29.57
846.055	28.19
846.349	34.48
846.644	35.1
846.938	29.81
847.232	32.9
847.526	25.11
847.82	36.38
848.114	27.66
848.408	29.65
848.702	33.33
848.996	32.94
849.29	20.89
849.584	20.88
849.877	24.61
850.171	19.91
850.465	25.09
850.758	18.46
851.052	3.78
851.345	32.35
851.638	26.68
851.932	23.75
852.225	-3.21
852.518	23.01
852.811	41.56
853.104	3.8
853.397	31.58
853.69	1.14
853.983	36.71
854.276	1.59
854.569	39.92
854.861	44.33
855.154	24.84
855.447	21.57
855.739	30.89
856.032	33.61
856.324	39.41
856.616	48.42
856.909	14.86
857.201	27.58
857.493	-13.23
857.785	18.9
858.077	19.73
858.369	26.96
858.661	15.19
858.953	38.11
859.245	5.14
859.537	23.6
859.829	-1.64
860.12	28.1
860.412	-51.15
860.703	14.76
860.995	42.73
861.286	15.66
861.578	15.08
861.869	18.6
862.16	14.72
862.452	20.3
862.743	-0.83
863.034	21.26
863.325	45.26
863.616	16.63
863.907	44.27
864.198	24.64
864.488	29.74
864.779	9.38
865.07	9.7
865.36	27.66
865.651	10.61
865.941	-6.38
866.232	19.23
866.522	11.79
866.813	-19.47
867.103	26.64
867.393	-8.55
867.683	28
867.973	21.72
868.263	27.29
868.553	47.89
868.843	16
869.133	21.85
869.423	23.29
869.713	0.3
870.002	17.55
870.292	11.74
870.582	45.84
870.871	51.56
871.161	22.58
871.45	53.07
871.739	17.97
872.029	5.08
872.318	11.66
872.607	1.89
872.896	58.24
873.185	-23.37
873.474	15.11
873.763	23.02
874.052	20.86
874.341	22.87
874.63	57.29
874.918	-34.64
875.207	-0.73
875.496	41.9
875.784	35.21
876.073	16.39
876.361	12.12
876.649	17.34
876.938	28.56
877.226	3.12
877.514	-43.33
877.802	25.71
878.09	19.76
878.378	38.46
878.666	51.71
878.954	2.02
879.242	4.37
879.53	42.53
879.817	18.64
880.105	16.85
880.392	29.17
880.68	35.22
880.967	39.02
881.255	17.53
881.542	46.26
881.83	20
882.117	44.76
882.404	26.71
882.691	4.04
882.978	10.94
883.265	25.62
883.552	24.62
883.839	31.77
884.126	32.36
884.413	26.08
884.699	34.02
884.986	29.67
885.273	33.92
885.559	33.92
885.846	33.92
