Data from 0076_forehead_Reflection__0__370.txt Node

Date: Fri Dec 16 16:59:08 CST 2022
User: ToomeyLab
Spectrometer: FLMS14357
Trigger mode: 0
Integration Time (sec): 1.000000E-2
Scans to average: 100
Electric dark correction enabled: true
Nonlinearity correction enabled: false
Boxcar width: 0
XAxis mode: Wavelengths
Number of Pixels in Spectrum: 2048
>>>>>Begin Spectral Data<<<<<
189.047	74.67
189.435	74.67
189.823	74.67
190.211	-18.49
190.599	5.45
190.987	28.45
191.375	335.91
191.763	179.67
192.151	75.48
192.538	237.83
192.926	33.13
193.314	253.86
193.702	-7.67
194.089	104.61
194.477	31.6
194.864	0.28
195.252	290.94
195.639	67.34
196.027	-120.52
196.414	865.64
196.801	-118.59
197.189	107.7
197.576	-117.01
197.963	365.16
198.351	-28.1
198.738	-25.36
199.125	39.94
199.512	1.43
199.899	-84.58
200.286	-57.35
200.673	51.01
201.06	58.11
201.447	42.98
201.833	2.9
202.22	40.78
202.607	-11.39
202.994	-26.01
203.38	-3.25
203.767	-26.66
204.154	-24.19
204.54	36.94
204.927	15.8
205.313	39.32
205.699	-22.86
206.086	-7.87
206.472	-17.35
206.858	44.43
207.245	20.7
207.631	5.96
208.017	13.96
208.403	36.52
208.789	-6.7
209.175	74.45
209.561	-20.61
209.947	51.89
210.333	-99.63
210.719	-3.68
211.105	-4.71
211.491	-15.89
211.876	23.05
212.262	6.9
212.648	-3.11
213.034	-4.27
213.419	12.19
213.805	-8.19
214.19	-11.14
214.576	-23.72
214.961	-7.1
215.346	-30.72
215.732	15.75
216.117	-7.96
216.502	-9.36
216.888	-14.13
217.273	16.7
217.658	-39.99
218.043	-28.13
218.428	-1.86
218.813	-9.73
219.198	-10.38
219.583	9.84
219.968	15.56
220.353	7.31
220.738	-11.67
221.122	0.79
221.507	-4.9
221.892	2.16
222.276	4.93
222.661	-9.51
223.046	-3.62
223.43	-12.97
223.815	6.34
224.199	-4.45
224.583	-8.49
224.968	3.5
225.352	-12.42
225.736	1.92
226.121	-6.73
226.505	3.96
226.889	9.53
227.273	2.82
227.657	2.96
228.041	3.4
228.425	6.48
228.809	2.48
229.193	-0.95
229.577	2.81
229.961	2.52
230.344	2.11
230.728	2.15
231.112	1.51
231.495	2.22
231.879	2.8
232.263	0.81
232.646	1.59
233.03	1.06
233.413	1.81
233.797	3.29
234.18	-0.14
234.563	3.07
234.946	2.94
235.33	3.86
235.713	2.71
236.096	1.4
236.479	1.6
236.862	2.35
237.245	2.89
237.628	2.71
238.011	3.2
238.394	4.9
238.777	1.07
239.16	2.69
239.543	0.17
239.925	3.68
240.308	1.05
240.691	1.76
241.073	2.53
241.456	1.86
241.838	1.91
242.221	2.77
242.603	2.56
242.986	3.3
243.368	2.2
243.75	2.46
244.133	2.74
244.515	2.4
244.897	2.2
245.279	2.31
245.661	2.5
246.043	2.84
246.425	1.55
246.807	2.29
247.189	1.29
247.571	2.65
247.953	2.28
248.335	2.69
248.717	2.55
249.098	2.49
249.48	2.31
249.862	2.23
250.243	2.27
250.625	2.38
251.006	2.98
251.388	3.12
251.769	2.26
252.151	3.65
252.532	2.71
252.913	2.56
253.295	2.11
253.676	2.55
254.057	2.43
254.438	2.11
254.819	3.03
255.2	2.45
255.581	1.89
255.962	1.32
256.343	2.21
256.724	2.34
257.105	2.51
257.486	2.31
257.867	0.8
258.247	3.11
258.628	2.51
259.009	2.11
259.389	2.59
259.77	2.04
260.15	3.35
260.531	2.59
260.911	2.65
261.292	2.45
261.672	2.43
262.052	2.54
262.432	2.35
262.813	2.42
263.193	2.05
263.573	2.51
263.953	2.49
264.333	2.63
264.713	2.18
265.093	2.39
265.473	3.37
265.853	2.63
266.233	2.04
266.612	2.84
266.992	1.83
267.372	2.54
267.752	2.03
268.131	2.4
268.511	2.64
268.89	2.41
269.27	2.56
269.649	2.42
270.029	2.35
270.408	2.19
270.787	1.78
271.167	2.71
271.546	1.89
271.925	2.78
272.304	2.36
272.683	2.25
273.062	3.07
273.441	2.8
273.82	2.59
274.199	2.88
274.578	2.31
274.957	2.56
275.336	2.41
275.715	2.81
276.093	2.83
276.472	2.62
276.851	2
277.229	3.06
277.608	2.26
277.986	2.47
278.365	1.94
278.743	2.53
279.122	1.59
279.5	1.6
279.878	1.59
280.257	2.55
280.635	2.21
281.013	2.77
281.391	2.41
281.769	2.07
282.147	2.4
282.525	2.34
282.903	2.48
283.281	2.16
283.659	2.44
284.037	2.03
284.415	2.06
284.792	2.48
285.17	2.05
285.548	2.35
285.925	2.48
286.303	2.28
286.68	2.52
287.058	2.52
287.435	2.21
287.813	2.27
288.19	2.58
288.567	2.29
288.945	2.42
289.322	2.66
289.699	2.62
290.076	2.61
290.453	2.71
290.83	2.78
291.207	2.72
291.584	2.31
291.961	2.69
292.338	2.47
292.715	2.57
293.092	2.73
293.469	2.63
293.845	3.05
294.222	2.94
294.599	3.09
294.975	2.99
295.352	2.19
295.728	3.07
296.105	2.69
296.481	3.05
296.858	3
297.234	2.74
297.61	3.15
297.986	3.16
298.363	2.27
298.739	2.98
299.115	2.63
299.491	2.91
299.867	3.3
300.243	2.94
300.619	3.04
300.995	3.16
301.371	3.16
301.746	3.13
302.122	3.35
302.498	3.61
302.874	3.05
303.249	3.43
303.625	3.07
304	2.92
304.376	3.49
304.751	3.01
305.127	3.01
305.502	3.34
305.878	3.26
306.253	3.04
306.628	3.52
307.003	3.49
307.378	2.9
307.754	3.66
308.129	3.15
308.504	3.66
308.879	3.64
309.254	3.52
309.629	3.47
310.003	3.93
310.378	3.53
310.753	3.87
311.128	3.52
311.502	3.57
311.877	3.57
312.252	3.76
312.626	3.63
313.001	3.69
313.375	3.92
313.75	3.97
314.124	4.68
314.498	3.53
314.873	4.24
315.247	3.76
315.621	4.12
315.995	4
316.369	4.02
316.743	3.9
317.117	3.92
317.491	3.82
317.865	3.34
318.239	4.1
318.613	3.87
318.987	4.23
319.361	4.1
319.734	4.14
320.108	4.26
320.482	3.84
320.855	4.2
321.229	4.76
321.602	4.07
321.976	4.64
322.349	3.82
322.723	3.95
323.096	4.09
323.469	3.8
323.843	4.01
324.216	4
324.589	5.02
324.962	4.51
325.335	4.68
325.708	4.86
326.081	5.24
326.454	4.84
326.827	5.05
327.2	5.11
327.573	4.72
327.945	4.35
328.318	4.8
328.691	4.85
329.063	4.37
329.436	4.86
329.809	4.41
330.181	4.58
330.553	5.05
330.926	4.59
331.298	4.29
331.671	4.88
332.043	4.4
332.415	5
332.787	5.37
333.159	4.7
333.532	4.83
333.904	4.85
334.276	4.65
334.648	4.95
335.02	4.89
335.391	5
335.763	4.78
336.135	5.55
336.507	4.95
336.879	5.09
337.25	5.07
337.622	5.34
337.993	5.01
338.365	4.82
338.736	5.35
339.108	4.34
339.479	5.12
339.851	5.42
340.222	5.74
340.593	4.63
340.964	4.93
341.336	5.35
341.707	5.33
342.078	5.49
342.449	5.35
342.82	5.28
343.191	5.08
343.562	5.19
343.933	5.68
344.303	5.33
344.674	5.15
345.045	5.65
345.416	5.51
345.786	5
346.157	5.43
346.527	5.21
346.898	4.95
347.268	5.31
347.639	5.4
348.009	5.75
348.38	5.59
348.75	5.27
349.12	5.88
349.49	5.51
349.861	6.03
350.231	5.95
350.601	5.83
350.971	5.58
351.341	5.93
351.711	6.15
352.081	5.97
352.45	6.07
352.82	6.2
353.19	5.92
353.56	5.75
353.929	5.95
354.299	5.52
354.669	6.29
355.038	5.86
355.408	6.26
355.777	5.79
356.147	6.38
356.516	6.6
356.885	6.18
357.254	6.37
357.624	6.12
357.993	5.99
358.362	6.29
358.731	5.92
359.1	6.16
359.469	5.91
359.838	6.24
360.207	6.34
360.576	6.67
360.945	6.41
361.314	6.45
361.682	6.01
362.051	5.95
362.42	6.54
362.788	6.36
363.157	6.24
363.525	6.42
363.894	6.37
364.262	6.61
364.631	6.98
364.999	6.3
365.367	6.57
365.735	6.23
366.104	6.49
366.472	6.67
366.84	6.77
367.208	6.3
367.576	6.85
367.944	6.68
368.312	6.75
368.68	6.59
369.048	6.69
369.416	7.16
369.783	7.14
370.151	6.87
370.519	6.85
370.886	6.86
371.254	6.88
371.621	7.01
371.989	6.77
372.356	7.04
372.724	6.79
373.091	6.95
373.458	6.8
373.826	6.84
374.193	7.5
374.56	7.17
374.927	7
375.294	7.29
375.661	7.02
376.028	7.06
376.395	7.45
376.762	7.64
377.129	7.37
377.496	7.47
377.863	7.22
378.229	7.18
378.596	6.98
378.963	7.11
379.329	7.33
379.696	7.56
380.062	7.69
380.429	7.66
380.795	7.14
381.161	7.59
381.528	6.93
381.894	7.46
382.26	7.31
382.626	7.23
382.993	7.46
383.359	7.54
383.725	8.05
384.091	7.49
384.457	7.74
384.823	7.51
385.188	7.69
385.554	7.69
385.92	8
386.286	8.15
386.651	7.88
387.017	7.71
387.383	7.72
387.748	7.8
388.114	8.2
388.479	7.72
388.845	7.91
389.21	7.98
389.575	8.08
389.94	8.11
390.306	7.86
390.671	7.83
391.036	8.1
391.401	8.14
391.766	8.12
392.131	7.99
392.496	8.13
392.861	7.83
393.226	8.1
393.591	8.11
393.956	8.17
394.32	8.09
394.685	8.15
395.05	8
395.414	8.11
395.779	8.22
396.143	8.52
396.508	8.3
396.872	8.43
397.236	7.94
397.601	8.51
397.965	8.01
398.329	8.49
398.694	8.21
399.058	8.24
399.422	8.22
399.786	8.23
400.15	8.32
400.514	8.36
400.878	8.49
401.242	8.56
401.605	8.4
401.969	8.67
402.333	8.43
402.697	8.76
403.06	8.78
403.424	8.57
403.787	8.84
404.151	8.59
404.514	8.72
404.878	8.64
405.241	8.61
405.604	8.69
405.968	8.66
406.331	8.89
406.694	8.71
407.057	9.15
407.42	8.68
407.783	8.43
408.146	8.77
408.509	8.65
408.872	8.78
409.235	8.86
409.598	8.92
409.961	8.89
410.323	8.78
410.686	8.88
411.049	8.56
411.411	8.85
411.774	8.72
412.136	8.83
412.499	8.83
412.861	8.75
413.223	8.9
413.586	8.96
413.948	8.96
414.31	8.92
414.672	8.97
415.035	9.17
415.397	9.09
415.759	8.94
416.121	9.26
416.483	9.15
416.845	9.11
417.206	9.09
417.568	9.03
417.93	9.11
418.292	9.07
418.653	9.15
419.015	9.11
419.377	9.16
419.738	8.96
420.1	9.06
420.461	9.21
420.822	9.11
421.184	9.06
421.545	9.13
421.906	9.24
422.267	9.06
422.629	9.22
422.99	9.12
423.351	9.35
423.712	9.39
424.073	9.45
424.434	9.45
424.795	9.4
425.155	9.37
425.516	9.27
425.877	9.56
426.238	9.39
426.598	9.61
426.959	9.59
427.32	9.75
427.68	9.75
428.041	9.81
428.401	9.88
428.761	9.78
429.122	9.99
429.482	10.02
429.842	10.07
430.202	10.16
430.563	9.87
430.923	9.99
431.283	10.22
431.643	10.37
432.003	10.3
432.363	10.35
432.722	10.35
433.082	10.21
433.442	10.29
433.802	10.35
434.161	10.38
434.521	10.43
434.881	10.35
435.24	10.36
435.6	10.46
435.959	10.54
436.319	10.6
436.678	10.59
437.037	10.85
437.396	10.62
437.756	10.73
438.115	10.92
438.474	10.98
438.833	10.96
439.192	10.93
439.551	10.95
439.91	10.9
440.269	10.94
440.628	10.87
440.987	10.81
441.345	10.83
441.704	10.92
442.063	10.9
442.421	11.02
442.78	11.02
443.138	11.01
443.497	11
443.855	11.04
444.214	11.08
444.572	11.21
444.93	11.36
445.288	11.32
445.647	11.25
446.005	11.21
446.363	11.3
446.721	11.19
447.079	11.2
447.437	11.32
447.795	11.27
448.153	11.36
448.51	11.34
448.868	11.54
449.226	11.72
449.584	11.68
449.941	11.65
450.299	11.67
450.656	11.85
451.014	11.78
451.371	11.96
451.729	11.92
452.086	11.86
452.443	11.92
452.801	12.23
453.158	11.94
453.515	12.06
453.872	11.97
454.229	12.15
454.586	12.25
454.943	12.17
455.3	12.36
455.657	12.28
456.014	12.25
456.371	12.37
456.727	12.18
457.084	12.4
457.441	12.51
457.797	12.57
458.154	12.63
458.51	12.48
458.867	12.52
459.223	12.6
459.58	12.57
459.936	12.46
460.292	12.42
460.648	12.49
461.005	12.49
461.361	12.37
461.717	12.42
462.073	12.63
462.429	12.7
462.785	12.81
463.141	13.05
463.496	13
463.852	13.12
464.208	13.13
464.564	13.01
464.919	13.15
465.275	13.13
465.631	13.14
465.986	13.18
466.342	13.28
466.697	13.21
467.052	13.38
467.408	13.18
467.763	13.26
468.118	13.38
468.473	13.67
468.829	13.51
469.184	13.43
469.539	13.29
469.894	13.67
470.249	13.76
470.603	13.8
470.958	13.76
471.313	13.64
471.668	13.86
472.023	13.88
472.377	13.73
472.732	13.89
473.086	14
473.441	14.02
473.795	14.07
474.15	14
474.504	14.08
474.859	14.06
475.213	14.13
475.567	14.04
475.921	14.3
476.275	14.2
476.63	14.29
476.984	14.29
477.338	14.33
477.692	14.29
478.045	14.27
478.399	14.4
478.753	14.18
479.107	14.3
479.461	14.44
479.814	14.43
480.168	14.47
480.521	14.49
480.875	14.63
481.228	14.56
481.582	14.6
481.935	14.51
482.289	14.41
482.642	14.61
482.995	14.59
483.348	14.57
483.701	14.48
484.055	14.45
484.408	14.21
484.761	13.98
485.114	13.82
485.466	13.87
485.819	14.01
486.172	14.18
486.525	14.33
486.878	14.48
487.23	14.57
487.583	14.62
487.936	14.6
488.288	14.48
488.641	14.32
488.993	14.29
489.345	14.38
489.698	14.58
490.05	14.61
490.402	14.85
490.754	14.95
491.107	15.02
491.459	15.12
491.811	15.18
492.163	15.25
492.515	15.03
492.866	14.69
493.218	14.71
493.57	14.9
493.922	15.14
494.274	15.37
494.625	15.37
494.977	15.7
495.328	15.68
495.68	15.9
496.031	15.96
496.383	15.82
496.734	16.05
497.086	15.79
497.437	15.95
497.788	15.73
498.139	15.79
498.49	15.84
498.842	15.93
499.193	15.88
499.544	16.04
499.894	16.08
500.245	16.05
500.596	16.24
500.947	16.07
501.298	16.22
501.648	16.28
501.999	16.59
502.35	16.56
502.7	16.49
503.051	16.63
503.401	16.53
503.752	16.55
504.102	16.49
504.452	16.61
504.803	16.49
505.153	16.62
505.503	16.59
505.853	16.5
506.203	16.66
506.553	16.86
506.903	16.69
507.253	16.81
507.603	16.81
507.953	16.86
508.303	16.86
508.652	16.87
509.002	16.89
509.352	16.76
509.701	16.8
510.051	16.93
510.4	16.87
510.75	16.88
511.099	16.85
511.449	16.95
511.798	17.06
512.147	17.07
512.496	17.1
512.846	17.03
513.195	17.13
513.544	17.1
513.893	17.12
514.242	17.4
514.591	17.32
514.939	17.38
515.288	17.36
515.637	17.42
515.986	17.48
516.334	17.54
516.683	17.55
517.032	17.46
517.38	17.51
517.729	17.59
518.077	17.62
518.426	17.53
518.774	17.6
519.122	17.33
519.47	17.41
519.819	17.44
520.167	17.39
520.515	17.27
520.863	17.39
521.211	17.43
521.559	17.69
521.907	17.66
522.255	17.83
522.602	17.95
522.95	17.91
523.298	18.01
523.645	17.99
523.993	18.07
524.341	18.02
524.688	18.11
525.036	18.17
525.383	18.08
525.73	18.22
526.078	18.12
526.425	17.98
526.772	17.8
527.119	17.82
527.466	17.8
527.814	17.86
528.161	17.97
528.508	18.01
528.854	17.75
529.201	17.7
529.548	17.53
529.895	17.32
530.242	17.41
530.588	17.52
530.935	17.71
531.282	17.86
531.628	17.95
531.975	18.03
532.321	18.19
532.667	18.36
533.014	18.36
533.36	18.27
533.706	18.33
534.052	18.26
534.399	17.99
534.745	17.93
535.091	18.11
535.437	18.26
535.783	18.45
536.129	18.35
536.474	18.6
536.82	18.67
537.166	18.7
537.512	18.67
537.857	18.59
538.203	18.56
538.549	18.73
538.894	18.81
539.239	18.96
539.585	19.01
539.93	18.96
540.276	19.01
540.621	19.26
540.966	19.28
541.311	19.21
541.656	19.01
542.001	18.82
542.346	18.75
542.691	18.49
543.036	18.5
543.381	18.73
543.726	18.87
544.071	18.96
544.415	19
544.76	19.02
545.105	19.18
545.449	19.13
545.794	19.24
546.138	19.49
546.483	19.55
546.827	19.71
547.171	19.65
547.516	19.61
547.86	19.58
548.204	19.53
548.548	19.64
548.892	19.64
549.236	19.76
549.58	19.79
549.924	19.95
550.268	20.16
550.612	20.16
550.956	20.11
551.3	20.26
551.643	20.49
551.987	20.28
552.33	20.22
552.674	20.57
553.017	20.5
553.361	20.54
553.704	20.19
554.048	20.41
554.391	20.26
554.734	20.16
555.077	20.46
555.42	20.55
555.764	20.51
556.107	20.51
556.45	20.68
556.793	20.87
557.135	20.87
557.478	20.71
557.821	20.66
558.164	20.85
558.507	20.96
558.849	20.92
559.192	20.79
559.534	20.84
559.877	21
560.219	21.21
560.562	21.18
560.904	21.1
561.246	21.24
561.589	21
561.931	21.3
562.273	20.93
562.615	21.12
562.957	21.31
563.299	21.37
563.641	21.3
563.983	21.18
564.325	21.28
564.667	21.39
565.008	21.46
565.35	21.67
565.692	21.53
566.033	21.45
566.375	21.32
566.716	21.42
567.058	21.26
567.399	21.54
567.741	21.38
568.082	21.48
568.423	21.33
568.764	21.55
569.105	21.52
569.447	21.76
569.788	21.8
570.129	21.9
570.47	21.59
570.811	21.65
571.151	21.69
571.492	21.93
571.833	22.02
572.174	21.74
572.514	21.73
572.855	22
573.195	21.67
573.536	21.71
573.876	21.85
574.217	21.95
574.557	21.97
574.898	21.92
575.238	22.02
575.578	22.12
575.918	21.87
576.258	22.02
576.598	22.24
576.938	22.15
577.278	22.13
577.618	22.34
577.958	22.34
578.298	22.48
578.638	22.39
578.977	22.53
579.317	22.56
579.657	22.47
579.996	22.36
580.336	22.45
580.675	22.94
581.014	22.67
581.354	22.79
581.693	22.78
582.032	22.65
582.372	22.85
582.711	22.66
583.05	22.89
583.389	22.85
583.728	22.95
584.067	23.01
584.406	23.09
584.745	22.8
585.083	23.04
585.422	23.13
585.761	23.15
586.1	23.2
586.438	23.17
586.777	23.16
587.115	23.05
587.454	23.12
587.792	23.21
588.13	23.43
588.469	23.31
588.807	23.56
589.145	23.3
589.483	23.24
589.821	23.43
590.159	23.36
590.497	22.96
590.835	23.43
591.173	23.36
591.511	23.56
591.849	23.68
592.187	23.54
592.524	23.53
592.862	23.79
593.2	23.59
593.537	23.63
593.875	23.73
594.212	23.71
594.55	23.43
594.887	23.91
595.224	23.62
595.561	23.99
595.899	23.69
596.236	23.87
596.573	23.67
596.91	23.84
597.247	23.83
597.584	23.79
597.921	23.6
598.258	23.66
598.594	23.45
598.931	23.8
599.268	23.85
599.604	24.08
599.941	24.19
600.277	24.05
600.614	24.14
600.95	24.24
601.287	24.14
601.623	24.48
601.959	24.13
602.296	24.23
602.632	24.22
602.968	24.54
603.304	24.04
603.64	24.53
603.976	24.24
604.312	24.58
604.648	24.32
604.984	24.29
605.319	24.28
605.655	24.28
605.991	24.19
606.326	24.2
606.662	24.32
606.998	24.48
607.333	24.23
607.668	24.75
608.004	24.81
608.339	24.58
608.674	24.92
609.01	25.08
609.345	24.99
609.68	24.65
610.015	24.65
610.35	24.75
610.685	24.72
611.02	24.67
611.355	24.77
611.689	24.56
612.024	24.83
612.359	25.23
612.694	25.15
613.028	25.47
613.363	25.14
613.697	25.36
614.032	25.39
614.366	25.25
614.7	25.61
615.035	24.99
615.369	25.35
615.703	25.5
616.037	24.99
616.371	25.23
616.705	25.53
617.039	25.58
617.373	25.49
617.707	25.29
618.041	25.66
618.375	25.73
618.709	25.61
619.042	25.42
619.376	25.68
619.71	25.73
620.043	25.87
620.377	25.43
620.71	26.07
621.043	25.66
621.377	25.98
621.71	26.41
622.043	26.05
622.376	25.69
622.709	26.11
623.043	26.07
623.376	26.22
623.709	26.53
624.041	26.27
624.374	25.95
624.707	26.11
625.04	26.28
625.373	26.01
625.705	26
626.038	25.9
626.37	26.1
626.703	26.14
627.035	26.39
627.368	26.42
627.7	26.63
628.032	26.33
628.365	25.96
628.697	26.32
629.029	26.52
629.361	26.62
629.693	26.5
630.025	26.56
630.357	26.64
630.689	26.58
631.021	26.54
631.353	26.55
631.684	27.02
632.016	26.87
632.348	26.27
632.679	26.69
633.011	27.05
633.342	27
633.674	27.07
634.005	27.28
634.336	26.98
634.668	26.56
634.999	26.98
635.33	26.67
635.661	27.01
635.992	26.57
636.323	26.97
636.654	26.83
636.985	26.62
637.316	26.68
637.647	27.14
637.977	26.89
638.308	27.06
638.639	27.27
638.969	27.61
639.3	27.37
639.63	27.31
639.961	27.05
640.291	27.44
640.622	27.62
640.952	27.63
641.282	27.17
641.612	27.35
641.943	27.95
642.273	27.69
642.603	27.66
642.933	27.61
643.263	27.63
643.592	27.43
643.922	27.73
644.252	27.81
644.582	27.55
644.911	27.9
645.241	27.67
645.571	27.82
645.9	27.67
646.23	27.89
646.559	27.97
646.888	27.39
647.218	27.77
647.547	27.73
647.876	28.3
648.205	27.91
648.534	27.58
648.863	28.39
649.192	27.94
649.521	28
649.85	27.99
650.179	28.45
650.508	28.13
650.837	27.99
651.165	28.03
651.494	28.43
651.822	28.2
652.151	28.41
652.479	28.86
652.808	27.95
653.136	28.05
653.465	28.1
653.793	28.85
654.121	28.91
654.449	28.17
654.777	28.4
655.105	28.54
655.433	28.44
655.761	28.58
656.089	28.79
656.417	28.78
656.745	28.72
657.073	28.58
657.4	28.67
657.728	28.62
658.056	28.58
658.383	28.93
658.711	29.09
659.038	28.64
659.365	29.27
659.693	28.8
660.02	28.54
660.347	28.86
660.674	28.64
661.001	28.4
661.329	28.74
661.656	28.72
661.982	29.2
662.309	29.29
662.636	29
662.963	29.03
663.29	29.12
663.616	29.18
663.943	29.22
664.27	29.71
664.596	29.09
664.923	29.66
665.249	29.04
665.576	29.06
665.902	29.83
666.228	29.37
666.554	29.11
666.881	29.21
667.207	28.91
667.533	29.16
667.859	28.88
668.185	30.23
668.511	29.42
668.837	29.2
669.162	28.93
669.488	29.25
669.814	29.68
670.139	29.84
670.465	30.09
670.791	29.65
671.116	29.08
671.442	29.26
671.767	29.61
672.092	29.81
672.418	29.66
672.743	30.05
673.068	29.47
673.393	29.99
673.718	29.7
674.043	29.82
674.368	29.95
674.693	29.96
675.018	30.09
675.343	30.22
675.667	30.84
675.992	29.84
676.317	30.51
676.641	29.83
676.966	30.01
677.29	29.96
677.615	30.19
677.939	29.67
678.264	30.59
678.588	30.1
678.912	30.03
679.236	30.7
679.56	30.21
679.885	30.22
680.209	29.41
680.532	29.91
680.856	30.21
681.18	30.34
681.504	29.89
681.828	30.33
682.152	29.88
682.475	30.66
682.799	30.73
683.122	30.47
683.446	30.21
683.769	30.6
684.093	30.72
684.416	30.2
684.739	30.27
685.062	30.68
685.386	30.95
685.709	30.22
686.032	31.1
686.355	30.8
686.678	30.74
687.001	29.33
687.324	30.15
687.646	30.61
687.969	30.53
688.292	31.21
688.614	30.78
688.937	31.43
689.26	30.97
689.582	30.39
689.904	31.34
690.227	30.94
690.549	31.14
690.871	31.45
691.194	30.68
691.516	31.16
691.838	30.44
692.16	30.81
692.482	31.04
692.804	30.92
693.126	30.87
693.448	30.92
693.769	31.16
694.091	31.71
694.413	31.05
694.735	30.09
695.056	30.6
695.378	31.5
695.699	31.61
696.021	30.08
696.342	31.12
696.663	31.1
696.984	31.76
697.306	30.98
697.627	31.57
697.948	30.67
698.269	31.21
698.59	31.7
698.911	30.5
699.232	31.74
699.553	31.23
699.873	31.09
700.194	31.42
700.515	31.59
700.835	31.34
701.156	31.88
701.477	31.01
701.797	32.02
702.117	31.97
702.438	32.33
702.758	32.04
703.078	31.66
703.398	31.25
703.719	31.87
704.039	32.52
704.359	31.61
704.679	31.44
704.999	32.02
705.319	32.12
705.638	31.83
705.958	32.23
706.278	32.09
706.597	31.97
706.917	32.66
707.237	31.84
707.556	31.56
707.876	32.11
708.195	31.2
708.514	31.54
708.834	32.44
709.153	32.92
709.472	31.12
709.791	32.74
710.11	32.86
710.429	31.29
710.748	32.13
711.067	32.66
711.386	33.03
711.705	32.21
712.023	31.77
712.342	32.2
712.661	33.57
712.979	33.11
713.298	32.9
713.616	32.54
713.935	32.74
714.253	31.73
714.572	31.94
714.89	32.45
715.208	32.8
715.526	31.72
715.844	32.87
716.162	31.38
716.48	32.29
716.798	32.88
717.116	33.29
717.434	33.72
717.752	32.34
718.069	33
718.387	32.06
718.705	32.42
719.022	32.81
719.34	32.2
719.657	33.12
719.975	32.58
720.292	33.28
720.609	31.86
720.927	32.75
721.244	32.68
721.561	33.2
721.878	32.81
722.195	33.24
722.512	34.37
722.829	32.4
723.146	32.5
723.463	32.99
723.779	32.61
724.096	32.52
724.413	32.47
724.729	33.84
725.046	33.25
725.362	31.93
725.679	33.36
725.995	32.65
726.311	33.74
726.628	34.02
726.944	32.42
727.26	31.83
727.576	34.62
727.892	33.23
728.208	33.65
728.524	33.15
728.84	31.49
729.156	33.68
729.472	34.32
729.787	33.71
730.103	32.66
730.419	32.86
730.734	34.21
731.05	34.02
731.365	34.37
731.681	32.14
731.996	32.48
732.311	33.78
732.626	34.39
732.942	32.5
733.257	33.29
733.572	34.93
733.887	34.9
734.202	33.84
734.517	32.92
734.832	34.37
735.146	33.88
735.461	33.59
735.776	35.41
736.091	33.36
736.405	34.58
736.72	32.75
737.034	33.53
737.349	33.68
737.663	32.95
737.977	35.5
738.292	34.21
738.606	33.85
738.92	32.3
739.234	33.31
739.548	32.63
739.862	34.35
740.176	34.07
740.49	35.15
740.804	33.33
741.117	32.68
741.431	34.04
741.745	34.02
742.058	33.7
742.372	33.19
742.685	33.84
742.999	35.35
743.312	33.17
743.626	32
743.939	34.26
744.252	35.38
744.565	33.99
744.878	33.56
745.191	34.48
745.505	32.51
745.817	34.53
746.13	34.61
746.443	32.98
746.756	34.77
747.069	33.05
747.381	33.91
747.694	31.69
748.007	36.5
748.319	34.46
748.632	34.74
748.944	33.21
749.256	37.55
749.569	34.07
749.881	34.21
750.193	35.8
750.505	34.58
750.817	32.77
751.129	35.5
751.441	33.44
751.753	35.47
752.065	33.74
752.377	34.19
752.689	33.99
753	32.72
753.312	33.14
753.624	35.37
753.935	33.7
754.247	33.59
754.558	35.57
754.869	35.02
755.181	35.36
755.492	36.32
755.803	35.22
756.114	36
756.425	35.37
756.736	33.19
757.047	34.95
757.358	35.23
757.669	37.08
757.98	35.03
758.291	34.56
758.601	33.73
758.912	32.6
759.223	34.54
759.533	35.62
759.844	35.07
760.154	34.54
760.464	35.03
760.775	36.2
761.085	34.07
761.395	34.51
761.705	35.65
762.016	33.31
762.326	34.66
762.636	33.58
762.945	34.03
763.255	35.88
763.565	34.58
763.875	35.41
764.185	35.37
764.494	34.41
764.804	34.12
765.113	35.27
765.423	34.78
765.732	35.29
766.042	34.6
766.351	35.06
766.66	37.5
766.97	34.88
767.279	35.9
767.588	36.14
767.897	36.7
768.206	33.87
768.515	35.18
768.824	36.15
769.133	33.72
769.441	34.72
769.75	34.01
770.059	33.74
770.367	34.65
770.676	35.06
770.984	36.35
771.293	35.78
771.601	34.97
771.91	37.99
772.218	34.25
772.526	35.39
772.834	37.87
773.142	34.4
773.45	34.44
773.758	33.1
774.066	33.03
774.374	33.24
774.682	36.03
774.99	33.13
775.298	35.55
775.605	34.5
775.913	33.34
776.22	36.6
776.528	34.7
776.835	34.8
777.143	34.64
777.45	36.39
777.757	35.34
778.065	34.52
778.372	34.59
778.679	39.44
778.986	35.66
779.293	36.8
779.6	33.72
779.907	34.41
780.214	34.86
780.52	36.73
780.827	36.72
781.134	35.97
781.44	34.39
781.747	35.2
782.053	31.88
782.36	34.03
782.666	35.74
782.973	36.79
783.279	34.52
783.585	35.48
783.891	39.63
784.197	34.52
784.503	37.29
784.809	35.58
785.115	34.19
785.421	33.97
785.727	32.75
786.033	33.18
786.339	39.8
786.644	37.16
786.95	34.18
787.255	38.78
787.561	37.35
787.866	34.53
788.172	35.62
788.477	33.43
788.782	37.87
789.088	40
789.393	34.78
789.698	31.86
790.003	34.64
790.308	35.88
790.613	36.36
790.918	37.2
791.223	37.27
791.527	36.63
791.832	34.25
792.137	37.5
792.441	34.9
792.746	37.59
793.05	39.55
793.355	38.69
793.659	36.4
793.963	37.81
794.268	30.67
794.572	36
794.876	35.97
795.18	34.04
795.484	33.63
795.788	31.8
796.092	35.44
796.396	37.64
796.7	38.27
797.004	35.65
797.307	35.83
797.611	35.55
797.915	36.88
798.218	36.32
798.522	34.68
798.825	35.89
799.128	35.19
799.432	34.67
799.735	35.37
800.038	36.56
800.341	33.19
800.644	34.55
800.947	39.17
801.25	35.5
801.553	33.99
801.856	38.13
802.159	33.12
802.462	34.32
802.764	33.7
803.067	36.47
803.37	38.59
803.672	34.71
803.975	34.47
804.277	36.2
804.579	34.5
804.882	32.53
805.184	33.85
805.486	34.84
805.788	38.57
806.09	31.59
806.392	35.78
806.694	37.61
806.996	37.51
807.298	29.71
807.6	33.84
807.902	36.6
808.203	36.25
808.505	27.95
808.807	39.24
809.108	30.96
809.409	37.46
809.711	36.25
810.012	35.86
810.313	40.18
810.615	36.88
810.916	34.44
811.217	36.81
811.518	41.84
811.819	34.02
812.12	38.96
812.421	36.28
812.722	34.87
813.023	34.71
813.323	39.42
813.624	36.89
813.925	33.99
814.225	34.68
814.526	39.51
814.826	37.25
815.126	40.73
815.427	35.63
815.727	31.69
816.027	35.25
816.327	30.11
816.627	29.01
816.927	34.91
817.227	40.05
817.527	36.41
817.827	35.81
818.127	37.73
818.427	29.73
818.727	41
819.026	44.58
819.326	36.83
819.625	34.64
819.925	39.89
820.224	34.29
820.524	36.96
820.823	38.24
821.122	38.07
821.421	36.51
821.72	36.7
822.019	32.96
822.318	34.78
822.617	40.29
822.916	40.27
823.215	38
823.514	38.59
823.813	36.79
824.111	38.35
824.41	37.52
824.709	38.73
825.007	38.7
825.306	38.15
825.604	38.64
825.902	38.46
826.201	37.79
826.499	39.57
826.797	37.87
827.095	37.14
827.393	40.3
827.691	39.67
827.989	39.66
828.287	40.47
828.585	36.92
828.882	37.18
829.18	38.32
829.478	38.15
829.775	37.51
830.073	38.41
830.37	38.91
830.668	39.99
830.965	38.66
831.263	41.53
831.56	37.18
831.857	39.36
832.154	41.37
832.451	35.56
832.748	34.87
833.045	40.74
833.342	30.77
833.639	39.12
833.936	37.35
834.232	40.28
834.529	34.89
834.826	34.76
835.122	34.85
835.419	35.49
835.715	35.77
836.012	37.38
836.308	39.53
836.604	38.79
836.901	41.49
837.197	39.71
837.493	40.67
837.789	41.98
838.085	34.21
838.381	37.33
838.677	39.1
838.972	33.61
839.268	35.68
839.564	39.55
839.86	33.69
840.155	36.71
840.451	39.48
840.746	38.54
841.042	35.21
841.337	37.87
841.632	25.93
841.928	36.45
842.223	31.45
842.518	41.71
842.813	41.57
843.108	26.83
843.403	43.78
843.698	41.12
843.993	39.27
844.287	33.25
844.582	33.08
844.877	35.13
845.171	38.63
845.466	35
845.761	39.5
846.055	33.78
846.349	17.5
846.644	36.11
846.938	25.44
847.232	34.34
847.526	32.22
847.82	33.52
848.114	27.93
848.408	50.14
848.702	28.79
848.996	36.81
849.29	25.76
849.584	28
849.877	16.76
850.171	37.7
850.465	17.05
850.758	46.21
851.052	31.76
851.345	44.95
851.638	47.85
851.932	27.32
852.225	32.94
852.518	19.88
852.811	14.04
853.104	37.72
853.397	41.99
853.69	32.96
853.983	18.84
854.276	21.59
854.569	33.97
854.861	52.64
855.154	37.64
855.447	25.03
855.739	24.98
856.032	43.98
856.324	21.74
856.616	58.72
856.909	28.18
857.201	41.05
857.493	43.39
857.785	18.21
858.077	17.11
858.369	37.33
858.661	35.77
858.953	26.21
859.245	24.12
859.537	47.25
859.829	44.06
860.12	24.01
860.412	33.43
860.703	30.1
860.995	42.94
861.286	48.06
861.578	10.92
861.869	26.44
862.16	34.48
862.452	31.84
862.743	44.78
863.034	44.69
863.325	14.04
863.616	39.15
863.907	17.89
864.198	39.92
864.488	5.34
864.779	19.27
865.07	47
865.36	70.09
865.651	46.47
865.941	38.17
866.232	19.49
866.522	79.08
866.813	41.61
867.103	9.99
867.393	20.07
867.683	41.38
867.973	21.31
868.263	51.63
868.553	56.65
868.843	21.32
869.133	22.4
869.423	39.81
869.713	21.11
870.002	-2.52
870.292	29.81
870.582	50.27
870.871	22.3
871.161	53.5
871.45	37.77
871.739	-0.72
872.029	15.19
872.318	27.17
872.607	41.15
872.896	30.41
873.185	45.67
873.474	47.33
873.763	32.22
874.052	16.5
874.341	-48.02
874.63	28.42
874.918	17.73
875.207	30.27
875.496	56.36
875.784	44.01
876.073	18.63
876.361	1.15
876.649	61.88
876.938	38.86
877.226	52.23
877.514	21.07
877.802	40.38
878.09	35.27
878.378	36.28
878.666	31.75
878.954	47.17
879.242	12.9
879.53	2.4
879.817	30.36
880.105	44.34
880.392	45.52
880.68	39.28
880.967	48.67
881.255	9.34
881.542	52.41
881.83	27.67
882.117	26.2
882.404	28.48
882.691	36.58
882.978	12.1
883.265	40.75
883.552	21.13
883.839	42.45
884.126	29.58
884.413	36.59
884.699	38.13
884.986	37.87
885.273	41.25
885.559	41.25
885.846	41.25
