Data from 0076_forehead_Reflection__2__372.txt Node

Date: Fri Dec 16 16:59:38 CST 2022
User: ToomeyLab
Spectrometer: FLMS14357
Trigger mode: 0
Integration Time (sec): 1.000000E-2
Scans to average: 100
Electric dark correction enabled: true
Nonlinearity correction enabled: false
Boxcar width: 0
XAxis mode: Wavelengths
Number of Pixels in Spectrum: 2048
>>>>>Begin Spectral Data<<<<<
189.047	63.08
189.435	63.08
189.823	63.08
190.211	2.12
190.599	2.6
190.987	-30.32
191.375	70.29
191.763	215.21
192.151	-1.5
192.538	338.01
192.926	-116.87
193.314	255.09
193.702	5.89
194.089	72.5
194.477	-71.46
194.864	-32.63
195.252	88.97
195.639	141.19
196.027	124.16
196.414	411.35
196.801	301.55
197.189	70.32
197.576	395.06
197.963	69.02
198.351	66.53
198.738	16.04
199.125	19.01
199.512	-19.89
199.899	-51.92
200.286	-33.88
200.673	-1.9
201.06	77.91
201.447	41.82
201.833	-15.07
202.22	23.93
202.607	26.93
202.994	-43.72
203.38	-97.62
203.767	-12.43
204.154	-74.47
204.54	22.21
204.927	-0.3
205.313	66.52
205.699	-18.07
206.086	-7.3
206.472	-139.21
206.858	10.12
207.245	8.93
207.631	-12.54
208.017	43.04
208.403	5.86
208.789	25.15
209.175	69.56
209.561	-90.9
209.947	-63.33
210.333	-73.62
210.719	-30.39
211.105	-32.36
211.491	23.14
211.876	12.03
212.262	-68.49
212.648	-52.96
213.034	10.76
213.419	14.55
213.805	14.96
214.19	-3.23
214.576	-12.94
214.961	-23.74
215.346	-28.97
215.732	-6.1
216.117	-24.35
216.502	-31.58
216.888	-52.77
217.273	-9.72
217.658	-30.48
218.043	2.14
218.428	-14.49
218.813	-7.62
219.198	-59.37
219.583	6.37
219.968	-9.49
220.353	19.74
220.738	-17.61
221.122	0.02
221.507	8.89
221.892	2.45
222.276	7.75
222.661	-20.34
223.046	2.46
223.43	-12.14
223.815	13.11
224.199	6.64
224.583	-1.63
224.968	4.39
225.352	-2.33
225.736	8.38
226.121	-7.23
226.505	2.21
226.889	8.37
227.273	0.78
227.657	-1.49
228.041	0.54
228.425	1.41
228.809	1.42
229.193	-0.16
229.577	2.13
229.961	2.09
230.344	1.62
230.728	1.69
231.112	1.98
231.495	0.49
231.879	2.16
232.263	0.68
232.646	1.78
233.03	0.85
233.413	1.89
233.797	2.44
234.18	-0.5
234.563	-0.25
234.946	1.53
235.33	1.84
235.713	1.31
236.096	1.15
236.479	2.58
236.862	1.2
237.245	4.2
237.628	2.52
238.011	1.4
238.394	4.36
238.777	2.33
239.16	-1.59
239.543	0.81
239.925	1.57
240.308	4.13
240.691	1.14
241.073	2.09
241.456	2.07
241.838	1.97
242.221	1.57
242.603	2.72
242.986	2.82
243.368	1.88
243.75	1.78
244.133	1.94
244.515	2.31
244.897	2.16
245.279	1.75
245.661	1.41
246.043	2.49
246.425	1.69
246.807	1.25
247.189	1.9
247.571	1.98
247.953	2
248.335	2.25
248.717	2.45
249.098	2.07
249.48	2.08
249.862	2.03
250.243	2.39
250.625	2.49
251.006	2.33
251.388	2.56
251.769	2.23
252.151	2.58
252.532	2.22
252.913	2.42
253.295	2.66
253.676	2.32
254.057	2.04
254.438	1.35
254.819	1.83
255.2	1.67
255.581	0.9
255.962	1.64
256.343	3
256.724	2.7
257.105	1.7
257.486	2.16
257.867	1.31
258.247	2.79
258.628	2.75
259.009	2.25
259.389	2.6
259.77	1.99
260.15	2.86
260.531	2.05
260.911	2.07
261.292	2.19
261.672	2.26
262.052	2.02
262.432	2.11
262.813	2.18
263.193	1.8
263.573	2.62
263.953	2.5
264.333	2.7
264.713	2.12
265.093	2.45
265.473	3.25
265.853	2.18
266.233	2.24
266.612	2.35
266.992	1.69
267.372	1.7
267.752	1.76
268.131	1.63
268.511	2.45
268.89	2.75
269.27	2.57
269.649	2.27
270.029	1.7
270.408	1.88
270.787	1.93
271.167	2.33
271.546	1.16
271.925	1.72
272.304	2.03
272.683	1.79
273.062	2.24
273.441	2.28
273.82	2.54
274.199	1.77
274.578	1.38
274.957	2.29
275.336	1.87
275.715	2.18
276.093	2.81
276.472	1.84
276.851	2.03
277.229	2.82
277.608	2.23
277.986	2.2
278.365	1.95
278.743	2.43
279.122	1.24
279.5	1.52
279.878	1.89
280.257	2.16
280.635	1.44
281.013	2.13
281.391	1.73
281.769	1.95
282.147	2.37
282.525	2.13
282.903	2.06
283.281	1.78
283.659	2.32
284.037	2.17
284.415	1.93
284.792	2.62
285.17	1.85
285.548	1.98
285.925	2.18
286.303	1.83
286.68	2.38
287.058	2.29
287.435	2.05
287.813	2.14
288.19	2.5
288.567	2.05
288.945	2.37
289.322	1.62
289.699	2.3
290.076	2.55
290.453	2.02
290.83	2.37
291.207	2.39
291.584	2.07
291.961	2.24
292.338	2.24
292.715	2.52
293.092	2.18
293.469	2.57
293.845	2.67
294.222	2.47
294.599	2.46
294.975	2.49
295.352	1.92
295.728	2.59
296.105	3.03
296.481	2.79
296.858	2.58
297.234	2.78
297.61	2.47
297.986	2.77
298.363	2.29
298.739	2.97
299.115	2.42
299.491	2.68
299.867	3.11
300.243	2.67
300.619	2.55
300.995	3.01
301.371	2.96
301.746	2.99
302.122	3.16
302.498	2.72
302.874	2.75
303.249	2.45
303.625	2.97
304	2.98
304.376	3.37
304.751	3.14
305.127	3.11
305.502	3.27
305.878	3.06
306.253	2.59
306.628	3.1
307.003	3.35
307.378	2.6
307.754	3.57
308.129	2.82
308.504	3.26
308.879	3.58
309.254	3.42
309.629	3.51
310.003	3.68
310.378	3.37
310.753	3.66
311.128	3.23
311.502	3.14
311.877	3.35
312.252	3.53
312.626	3.33
313.001	3.3
313.375	3.5
313.75	3.34
314.124	4.03
314.498	3.32
314.873	3.46
315.247	2.94
315.621	3.93
315.995	3.79
316.369	3.89
316.743	3.92
317.117	3.8
317.491	3.68
317.865	2.66
318.239	4.34
318.613	3.59
318.987	3.91
319.361	3.86
319.734	3.72
320.108	3.7
320.482	3.87
320.855	3.59
321.229	4.39
321.602	3.4
321.976	4.15
322.349	3.41
322.723	3.69
323.096	3.75
323.469	4.26
323.843	4.38
324.216	3.32
324.589	4.46
324.962	4.18
325.335	3.94
325.708	4.51
326.081	4.63
326.454	4.45
326.827	4.34
327.2	4.71
327.573	4.24
327.945	4.3
328.318	3.98
328.691	4.2
329.063	4.65
329.436	4.31
329.809	4.15
330.181	4.29
330.553	4.63
330.926	4.24
331.298	4.42
331.671	4.27
332.043	4.71
332.415	4.43
332.787	5.05
333.159	4.68
333.532	4.36
333.904	4.43
334.276	4.36
334.648	4.55
335.02	4.35
335.391	4.4
335.763	4.38
336.135	4.57
336.507	4.29
336.879	4.89
337.25	5.19
337.622	5.32
337.993	5.39
338.365	5.47
338.736	4.88
339.108	4.31
339.479	4.43
339.851	4.81
340.222	4.47
340.593	4.68
340.964	5.02
341.336	4.18
341.707	4.58
342.078	4.6
342.449	5.23
342.82	4.92
343.191	4.6
343.562	5.3
343.933	5.03
344.303	4.94
344.674	5.01
345.045	5.74
345.416	5.12
345.786	4.65
346.157	5.17
346.527	4.9
346.898	5.02
347.268	5
347.639	5.06
348.009	5.51
348.38	4.79
348.75	5.16
349.12	5.35
349.49	5.41
349.861	5.88
350.231	5.76
350.601	5.04
350.971	5.35
351.341	5.74
351.711	4.98
352.081	5.54
352.45	5.59
352.82	5.34
353.19	5.1
353.56	5.54
353.929	5.26
354.299	5.41
354.669	5.84
355.038	5.36
355.408	5.7
355.777	5.3
356.147	5.66
356.516	5.75
356.885	5.62
357.254	5.71
357.624	5.43
357.993	5.31
358.362	5.89
358.731	5.83
359.1	5.96
359.469	5.75
359.838	5.61
360.207	5.41
360.576	5.56
360.945	5.76
361.314	6.19
361.682	5.64
362.051	5.56
362.42	6.23
362.788	5.95
363.157	5.75
363.525	5.68
363.894	5.7
364.262	5.88
364.631	6.78
364.999	6.12
365.367	6.31
365.735	5.78
366.104	5.9
366.472	6.2
366.84	6.13
367.208	5.75
367.576	5.75
367.944	6.38
368.312	5.95
368.68	6.27
369.048	6.49
369.416	6.16
369.783	6.17
370.151	6.15
370.519	5.65
370.886	6.5
371.254	6.09
371.621	6.59
371.989	6.6
372.356	6.36
372.724	6.34
373.091	6.4
373.458	6.31
373.826	6.23
374.193	6.99
374.56	6.2
374.927	6.26
375.294	6.46
375.661	6.69
376.028	6.59
376.395	6.13
376.762	6.92
377.129	6.55
377.496	6.56
377.863	6.76
378.229	6.55
378.596	6.51
378.963	6.52
379.329	6.86
379.696	6.67
380.062	7.19
380.429	6.97
380.795	6.62
381.161	6.93
381.528	6.66
381.894	7.22
382.26	6.73
382.626	6.92
382.993	6.73
383.359	6.67
383.725	7.07
384.091	6.91
384.457	7
384.823	7.11
385.188	7.11
385.554	7.13
385.92	7.35
386.286	7.49
386.651	7.2
387.017	7.19
387.383	7.19
387.748	7.07
388.114	7.31
388.479	7.24
388.845	7.05
389.21	7.24
389.575	7.32
389.94	7.27
390.306	7.18
390.671	7.27
391.036	7.47
391.401	7.84
391.766	7.33
392.131	7.33
392.496	7.27
392.861	7.25
393.226	7.39
393.591	7.55
393.956	7.54
394.32	7.49
394.685	7.64
395.05	7.4
395.414	7.83
395.779	7.7
396.143	7.54
396.508	7.69
396.872	7.81
397.236	7.46
397.601	7.71
397.965	7.6
398.329	7.7
398.694	7.56
399.058	7.87
399.422	7.73
399.786	7.89
400.15	7.84
400.514	7.5
400.878	7.95
401.242	7.79
401.605	7.71
401.969	7.9
402.333	7.8
402.697	8.1
403.06	7.96
403.424	7.87
403.787	7.92
404.151	7.77
404.514	8.19
404.878	7.79
405.241	8.04
405.604	7.92
405.968	7.93
406.331	7.9
406.694	7.89
407.057	8.38
407.42	7.94
407.783	7.93
408.146	7.92
408.509	8.07
408.872	8.06
409.235	8.07
409.598	8.18
409.961	8.45
410.323	8.33
410.686	8.27
411.049	7.99
411.411	8.32
411.774	8.25
412.136	8.31
412.499	8.25
412.861	8.23
413.223	8.44
413.586	7.87
413.948	8.5
414.31	8.58
414.672	8.26
415.035	8.17
415.397	8.44
415.759	8.34
416.121	8.54
416.483	8.58
416.845	8.5
417.206	8.54
417.568	8.48
417.93	8.38
418.292	8.45
418.653	8.51
419.015	8.41
419.377	8.47
419.738	8.43
420.1	8.54
420.461	8.34
420.822	8.54
421.184	8.5
421.545	8.45
421.906	8.48
422.267	8.44
422.629	8.48
422.99	8.48
423.351	8.65
423.712	8.74
424.073	8.87
424.434	8.62
424.795	8.62
425.155	8.76
425.516	8.75
425.877	8.77
426.238	8.75
426.598	8.97
426.959	8.91
427.32	9.04
427.68	9.15
428.041	9.25
428.401	9.16
428.761	9.14
429.122	9.2
429.482	9.28
429.842	9.31
430.202	9.44
430.563	9.66
430.923	9.49
431.283	9.42
431.643	9.53
432.003	9.7
432.363	9.56
432.722	9.66
433.082	9.57
433.442	9.59
433.802	9.62
434.161	9.78
434.521	9.59
434.881	9.78
435.24	9.71
435.6	9.74
435.959	9.93
436.319	9.91
436.678	9.77
437.037	9.98
437.396	10.1
437.756	9.95
438.115	10.1
438.474	10.06
438.833	10.23
439.192	10.24
439.551	10.17
439.91	10.16
440.269	10.21
440.628	10.1
440.987	10.06
441.345	10.14
441.704	10.33
442.063	10.08
442.421	10.33
442.78	10.37
443.138	10.41
443.497	10.36
443.855	10.56
444.214	10.55
444.572	10.54
444.93	10.68
445.288	10.7
445.647	10.56
446.005	10.61
446.363	10.52
446.721	10.47
447.079	10.71
447.437	10.66
447.795	10.58
448.153	10.49
448.51	10.73
448.868	10.79
449.226	10.86
449.584	10.83
449.941	10.98
450.299	10.91
450.656	11.07
451.014	11.13
451.371	11.11
451.729	11.37
452.086	11.16
452.443	11.23
452.801	11.37
453.158	11.1
453.515	11.3
453.872	11.35
454.229	11.38
454.586	11.36
454.943	11.52
455.3	11.51
455.657	11.47
456.014	11.74
456.371	11.56
456.727	11.62
457.084	11.72
457.441	11.73
457.797	11.88
458.154	11.83
458.51	11.93
458.867	11.76
459.223	11.93
459.58	11.8
459.936	11.83
460.292	11.91
460.648	11.83
461.005	11.71
461.361	11.7
461.717	11.81
462.073	11.94
462.429	12.05
462.785	12.29
463.141	12.46
463.496	12.33
463.852	12.4
464.208	12.32
464.564	12.37
464.919	12.31
465.275	12.49
465.631	12.68
465.986	12.52
466.342	12.61
466.697	12.57
467.052	12.72
467.408	12.53
467.763	12.68
468.118	12.59
468.473	12.82
468.829	12.7
469.184	12.89
469.539	12.61
469.894	12.88
470.249	12.88
470.603	12.95
470.958	12.92
471.313	13.01
471.668	13.1
472.023	13.28
472.377	13.03
472.732	13
473.086	12.76
473.441	13.24
473.795	13.24
474.15	13.31
474.504	13.36
474.859	13.34
475.213	13.4
475.567	13.32
475.921	13.46
476.275	13.53
476.63	13.7
476.984	13.61
477.338	13.85
477.692	13.63
478.045	13.37
478.399	13.74
478.753	13.49
479.107	13.6
479.461	13.78
479.814	13.78
480.168	13.76
480.521	13.85
480.875	14.09
481.228	14.07
481.582	13.79
481.935	13.87
482.289	13.82
482.642	14.02
482.995	13.89
483.348	13.81
483.701	13.73
484.055	13.74
484.408	13.55
484.761	13.29
485.114	13.16
485.466	13.15
485.819	13.31
486.172	13.49
486.525	13.66
486.878	13.74
487.23	13.94
487.583	13.94
487.936	13.98
488.288	13.8
488.641	13.73
488.993	13.68
489.345	13.73
489.698	13.94
490.05	13.95
490.402	14.15
490.754	14.3
491.107	14.39
491.459	14.6
491.811	14.7
492.163	14.5
492.515	14.29
492.866	14.11
493.218	14.05
493.57	14.28
493.922	14.48
494.274	14.68
494.625	14.78
494.977	14.85
495.328	15.04
495.68	15.15
496.031	15.21
496.383	15.21
496.734	15.23
497.086	15.22
497.437	15.07
497.788	15.09
498.139	15.22
498.49	15.27
498.842	15.14
499.193	15.26
499.544	15.55
499.894	15.45
500.245	15.47
500.596	15.52
500.947	15.47
501.298	15.55
501.648	15.53
501.999	15.94
502.35	15.8
502.7	15.79
503.051	15.93
503.401	16
503.752	15.73
504.102	15.92
504.452	15.95
504.803	15.71
505.153	15.96
505.503	15.82
505.853	16.03
506.203	16.02
506.553	16.09
506.903	15.94
507.253	16.17
507.603	16.11
507.953	16.28
508.303	16.23
508.652	16.21
509.002	16.36
509.352	16.3
509.701	16.19
510.051	16.23
510.4	16.25
510.75	16.36
511.099	16.25
511.449	16.35
511.798	16.54
512.147	16.39
512.496	16.5
512.846	16.52
513.195	16.6
513.544	16.46
513.893	16.44
514.242	16.73
514.591	16.65
514.939	16.69
515.288	16.8
515.637	16.8
515.986	16.91
516.334	16.95
516.683	16.86
517.032	16.97
517.38	17.05
517.729	17.01
518.077	17.02
518.426	16.9
518.774	17.08
519.122	16.86
519.47	16.81
519.819	16.86
520.167	16.92
520.515	16.78
520.863	16.96
521.211	17.01
521.559	17.08
521.907	17.22
522.255	17.31
522.602	17.38
522.95	17.45
523.298	17.47
523.645	17.5
523.993	17.78
524.341	17.62
524.688	17.6
525.036	17.52
525.383	17.76
525.73	17.69
526.078	17.69
526.425	17.48
526.772	17.38
527.119	17.25
527.466	17.33
527.814	17.47
528.161	17.5
528.508	17.49
528.854	17.38
529.201	17.31
529.548	17.03
529.895	16.87
530.242	16.96
530.588	17.13
530.935	17.29
531.282	17.39
531.628	17.53
531.975	17.72
532.321	17.7
532.667	17.87
533.014	18
533.36	17.93
533.706	17.84
534.052	17.82
534.399	17.7
534.745	17.49
535.091	17.64
535.437	17.8
535.783	17.92
536.129	18.03
536.474	18.22
536.82	18.37
537.166	18.4
537.512	18.29
537.857	18.2
538.203	18.11
538.549	18.3
538.894	18.33
539.239	18.46
539.585	18.73
539.93	18.78
540.276	18.78
540.621	18.86
540.966	18.79
541.311	18.87
541.656	18.74
542.001	18.66
542.346	18.37
542.691	18.12
543.036	18.15
543.381	18.45
543.726	18.47
544.071	18.73
544.415	18.68
544.76	18.75
545.105	18.76
545.449	18.94
545.794	19.1
546.138	19.45
546.483	19.3
546.827	19.45
547.171	19.25
547.516	19.42
547.86	19.37
548.204	19.28
548.548	19.29
548.892	19.5
549.236	19.67
549.58	19.6
549.924	19.73
550.268	19.91
550.612	20.01
550.956	19.92
551.3	19.95
551.643	20.12
551.987	20.03
552.33	20.1
552.674	20.18
553.017	20.06
553.361	20.19
553.704	19.95
554.048	20.26
554.391	20.05
554.734	20.08
555.077	20.28
555.42	20.11
555.764	20.27
556.107	20.4
556.45	20.22
556.793	20.64
557.135	20.69
557.478	20.61
557.821	20.46
558.164	20.58
558.507	20.42
558.849	20.54
559.192	20.76
559.534	20.4
559.877	20.82
560.219	20.98
560.562	20.86
560.904	20.77
561.246	20.91
561.589	20.99
561.931	21.24
562.273	21.1
562.615	21.1
562.957	21.09
563.299	20.92
563.641	21.2
563.983	21.08
564.325	21.21
564.667	21.26
565.008	21.28
565.35	21.37
565.692	21.34
566.033	21.36
566.375	21.25
566.716	21.36
567.058	21.42
567.399	21.41
567.741	21.32
568.082	21.43
568.423	21.36
568.764	21.68
569.105	21.56
569.447	21.66
569.788	21.73
570.129	21.66
570.47	21.77
570.811	21.91
571.151	21.85
571.492	22
571.833	21.69
572.174	21.54
572.514	21.74
572.855	21.81
573.195	21.6
573.536	21.88
573.876	21.77
574.217	21.98
574.557	22.09
574.898	21.98
575.238	22.12
575.578	22.26
575.918	22.22
576.258	22.08
576.598	22.24
576.938	22.37
577.278	22.17
577.618	22.2
577.958	22.52
578.298	22.42
578.638	22.58
578.977	22.52
579.317	22.72
579.657	22.58
579.996	22.74
580.336	22.62
580.675	22.85
581.014	22.63
581.354	22.78
581.693	23
582.032	22.77
582.372	22.88
582.711	23.09
583.05	23.16
583.389	22.96
583.728	23.23
584.067	23.11
584.406	23.21
584.745	23.18
585.083	23.17
585.422	23.29
585.761	23.67
586.1	23.45
586.438	23.47
586.777	23.25
587.115	23.2
587.454	23.42
587.792	23.23
588.13	23.45
588.469	23.42
588.807	23.71
589.145	23.62
589.483	23.54
589.821	23.53
590.159	23.52
590.497	23.34
590.835	23.61
591.173	23.66
591.511	23.67
591.849	23.86
592.187	23.99
592.524	23.9
592.862	23.94
593.2	23.88
593.537	24.09
593.875	23.88
594.212	24.04
594.55	24.1
594.887	24.18
595.224	23.96
595.561	24.19
595.899	23.9
596.236	24.55
596.573	24
596.91	24.59
597.247	24.22
597.584	24.41
597.921	24.15
598.258	24.01
598.594	23.95
598.931	24.18
599.268	24.32
599.604	24.72
599.941	24.58
600.277	24.78
600.614	24.64
600.95	24.72
601.287	25
601.623	24.9
601.959	24.69
602.296	24.81
602.632	24.86
602.968	24.73
603.304	24.86
603.64	24.63
603.976	24.94
604.312	25.26
604.648	25.14
604.984	25.05
605.319	25.02
605.655	24.77
605.991	24.82
606.326	24.83
606.662	24.71
606.998	25.01
607.333	24.92
607.668	25.39
608.004	25.31
608.339	25.19
608.674	25.5
609.01	25.54
609.345	25.55
609.68	25.36
610.015	25.44
610.35	25.27
610.685	25.23
611.02	25.43
611.355	25.5
611.689	25.27
612.024	25.81
612.359	25.72
612.694	25.98
613.028	25.95
613.363	25.88
613.697	25.84
614.032	26.2
614.366	25.79
614.7	26.45
615.035	26.21
615.369	26.46
615.703	26.31
616.037	26.36
616.371	26.2
616.705	26.36
617.039	26.55
617.373	25.97
617.707	26.24
618.041	26.78
618.375	26.66
618.709	26.56
619.042	26.27
619.376	26.52
619.71	26.49
620.043	26.4
620.377	26.57
620.71	26.82
621.043	26.2
621.377	26.73
621.71	27.02
622.043	26.91
622.376	26.51
622.709	27.04
623.043	26.54
623.376	26.9
623.709	27.43
624.041	26.75
624.374	26.89
624.707	26.88
625.04	27.12
625.373	27.22
625.705	27.46
626.038	26.8
626.37	27.23
626.703	27.24
627.035	27.38
627.368	27.31
627.7	27.24
628.032	27.27
628.365	27.2
628.697	27.09
629.029	27.52
629.361	27.37
629.693	27.46
630.025	27.5
630.357	27.45
630.689	27.77
631.021	27.65
631.353	27.85
631.684	27.85
632.016	27.87
632.348	27.82
632.679	27.71
633.011	27.63
633.342	27.93
633.674	28
634.005	28.23
634.336	28.17
634.668	27.88
634.999	28.44
635.33	27.85
635.661	28.42
635.992	28.16
636.323	27.96
636.654	28.1
636.985	28.14
637.316	27.82
637.647	28.5
637.977	28.25
638.308	28.02
638.639	28.21
638.969	28.39
639.3	28.24
639.63	28.28
639.961	28.26
640.291	28.77
640.622	28.98
640.952	28.7
641.282	28.82
641.612	28.42
641.943	29.03
642.273	28.97
642.603	28.69
642.933	28.96
643.263	29.43
643.592	29.63
643.922	29.3
644.252	29.51
644.582	29.02
644.911	29.13
645.241	29.21
645.571	29.48
645.9	29.24
646.23	28.76
646.559	29.03
646.888	29.48
647.218	29.38
647.547	29.33
647.876	29.44
648.205	29.24
648.534	29.36
648.863	29.74
649.192	29.24
649.521	29.7
649.85	30.11
650.179	29.48
650.508	30.02
650.837	29.5
651.165	30.12
651.494	30.19
651.822	29.65
652.151	29.62
652.479	29.93
652.808	29.66
653.136	29.78
653.465	30.19
653.793	29.8
654.121	29.94
654.449	30.12
654.777	30.15
655.105	30.83
655.433	30.45
655.761	30.19
656.089	30.31
656.417	30.12
656.745	30.42
657.073	30.5
657.4	30.14
657.728	30.4
658.056	30.72
658.383	30.69
658.711	30.8
659.038	30.21
659.365	30.68
659.693	29.96
660.02	30.12
660.347	30.39
660.674	30.72
661.001	30.3
661.329	30.51
661.656	30.54
661.982	31.4
662.309	30.88
662.636	30.8
662.963	31.43
663.29	30.84
663.616	31.28
663.943	30.94
664.27	31.21
664.596	30.97
664.923	31.47
665.249	31.25
665.576	30.91
665.902	31.73
666.228	30.93
666.554	31.19
666.881	31.27
667.207	30.97
667.533	31.81
667.859	31.21
668.185	31.47
668.511	31.25
668.837	31.46
669.162	31.67
669.488	31.12
669.814	32.11
670.139	31.64
670.465	31.41
670.791	31.61
671.116	31.69
671.442	32.15
671.767	31.42
672.092	32.49
672.418	32.01
672.743	31.68
673.068	32.05
673.393	31.89
673.718	30.94
674.043	31.64
674.368	31.71
674.693	31.69
675.018	32.1
675.343	32.29
675.667	31.95
675.992	31.43
676.317	32.49
676.641	32.15
676.966	32.7
677.29	32.46
677.615	31.93
677.939	32.65
678.264	32.47
678.588	32.63
678.912	33.01
679.236	32.69
679.56	32.07
679.885	32.39
680.209	32.3
680.532	32.23
680.856	32.83
681.18	32.56
681.504	32.16
681.828	32.22
682.152	32.75
682.475	33.04
682.799	32.85
683.122	32.17
683.446	31.98
683.769	33.22
684.093	32.74
684.416	32.94
684.739	33.22
685.062	33.68
685.386	32.53
685.709	32.78
686.032	33.11
686.355	32.9
686.678	33.03
687.001	32.52
687.324	32.54
687.646	32.79
687.969	32.76
688.292	33.71
688.614	33.39
688.937	33.03
689.26	33.57
689.582	32.32
689.904	33.2
690.227	34.17
690.549	33.71
690.871	33.27
691.194	33.82
691.516	33.67
691.838	32.99
692.16	33.07
692.482	33.79
692.804	33.19
693.126	33.3
693.448	33.7
693.769	33.98
694.091	34.59
694.413	33.81
694.735	32.99
695.056	33.7
695.378	34.78
695.699	35.45
696.021	33.93
696.342	33.27
696.663	33.03
696.984	34.79
697.306	35.18
697.627	34.04
697.948	33.51
698.269	34.33
698.59	34.9
698.911	33.94
699.232	34.38
699.553	34.45
699.873	34.16
700.194	34
700.515	33.93
700.835	33.94
701.156	34.69
701.477	34.49
701.797	34.51
702.117	34.91
702.438	34.66
702.758	34.86
703.078	34.55
703.398	34.49
703.719	34.49
704.039	34.47
704.359	35.07
704.679	34.25
704.999	34.81
705.319	34.46
705.638	35.32
705.958	34.23
706.278	34.77
706.597	35.06
706.917	34.78
707.237	35.59
707.556	34.86
707.876	34.27
708.195	34.97
708.514	35.33
708.834	36.23
709.153	35.68
709.472	34.82
709.791	35.28
710.11	34.67
710.429	34.98
710.748	35.59
711.067	35.52
711.386	35.67
711.705	34.99
712.023	34.88
712.342	34.47
712.661	36.99
712.979	35.27
713.298	36.39
713.616	35.56
713.935	35.43
714.253	36.1
714.572	35.17
714.89	35.52
715.208	34.84
715.526	36.25
715.844	36
716.162	35.16
716.48	35.71
716.798	36.49
717.116	35.77
717.434	35.6
717.752	36.23
718.069	35.85
718.387	35.27
718.705	35.73
719.022	35.75
719.34	34.24
719.657	36.05
719.975	35.62
720.292	35.47
720.609	35.21
720.927	36.54
721.244	36.72
721.561	36.26
721.878	35.08
722.195	36.38
722.512	36.06
722.829	36.71
723.146	36.11
723.463	35.92
723.779	35.8
724.096	35.82
724.413	35.25
724.729	37.86
725.046	36.51
725.362	35.57
725.679	38.01
725.995	36.01
726.311	38.1
726.628	36.46
726.944	36.74
727.26	36.87
727.576	36.6
727.892	35.2
728.208	36.93
728.524	36.77
728.84	36.25
729.156	37.05
729.472	38.45
729.787	37.46
730.103	37.11
730.419	37.33
730.734	37.89
731.05	36.77
731.365	36.69
731.681	36.67
731.996	35.85
732.311	36.24
732.626	37.08
732.942	37.36
733.257	37.29
733.572	36.61
733.887	37.28
734.202	36.93
734.517	38.29
734.832	37.34
735.146	35.37
735.461	37.22
735.776	37.21
736.091	36.95
736.405	37.21
736.72	38.28
737.034	37.08
737.349	37.75
737.663	36.95
737.977	37.46
738.292	37.66
738.606	39.35
738.92	36.99
739.234	38.44
739.548	37.35
739.862	38.73
740.176	37.97
740.49	38.08
740.804	36.92
741.117	38.28
741.431	37.93
741.745	37.91
742.058	38.22
742.372	37.96
742.685	36.68
742.999	37.61
743.312	35.54
743.626	37.1
743.939	37.29
744.252	37.21
744.565	36.94
744.878	36.2
745.191	37.56
745.505	38.87
745.817	38.8
746.13	39.73
746.443	37.72
746.756	39.4
747.069	37.56
747.381	38.74
747.694	36.8
748.007	38.15
748.319	38.69
748.632	38.21
748.944	38.79
749.256	40.76
749.569	38.34
749.881	39.57
750.193	38.93
750.505	39.09
750.817	39.1
751.129	37.09
751.441	37.53
751.753	39.17
752.065	37.64
752.377	38.48
752.689	39.38
753	38.93
753.312	39.15
753.624	39.49
753.935	37.38
754.247	39.21
754.558	38.91
754.869	37.42
755.181	38.67
755.492	39.4
755.803	38.7
756.114	37.5
756.425	40.05
756.736	38.67
757.047	39.28
757.358	37.66
757.669	40.19
757.98	38.03
758.291	40.15
758.601	40.64
758.912	39.09
759.223	39.77
759.533	39.47
759.844	38.87
760.154	38.46
760.464	40.54
760.775	41.91
761.085	38.77
761.395	40.07
761.705	39.78
762.016	39.52
762.326	39.97
762.636	41.61
762.945	37.68
763.255	40.1
763.565	39.97
763.875	39.6
764.185	39.39
764.494	37.5
764.804	38.44
765.113	39.97
765.423	39.47
765.732	40.23
766.042	39.2
766.351	40.08
766.66	38.74
766.97	40.64
767.279	40.66
767.588	40.02
767.897	41.12
768.206	38.78
768.515	40.98
768.824	40.7
769.133	39.8
769.441	40.6
769.75	39.5
770.059	39.94
770.367	38.66
770.676	38.3
770.984	39.75
771.293	37.17
771.601	37.37
771.91	40.27
772.218	41.59
772.526	38.22
772.834	42.33
773.142	38.95
773.45	40.59
773.758	40.22
774.066	38.99
774.374	38.45
774.682	38.75
774.99	38.31
775.298	41.02
775.605	41.54
775.913	39.08
776.22	38.75
776.528	39.51
776.835	37.32
777.143	40.14
777.45	40.67
777.757	38.39
778.065	41.56
778.372	37.47
778.679	38.35
778.986	38.34
779.293	40.95
779.6	40.47
779.907	38.7
780.214	41.96
780.52	41.19
780.827	37.65
781.134	41.95
781.44	40.62
781.747	40.67
782.053	38.71
782.36	38.56
782.666	41.41
782.973	39.79
783.279	38.65
783.585	39.6
783.891	40.36
784.197	39.08
784.503	39.96
784.809	40.73
785.115	40.23
785.421	39.31
785.727	39.53
786.033	39.94
786.339	47.04
786.644	39.49
786.95	40.82
787.255	42.81
787.561	43.86
787.866	41
788.172	45.24
788.477	36.4
788.782	38.57
789.088	41.59
789.393	37.11
789.698	40.51
790.003	45.39
790.308	43.8
790.613	42.04
790.918	40.45
791.223	39.99
791.527	40.36
791.832	43.38
792.137	42.82
792.441	40.86
792.746	38.03
793.05	39.63
793.355	43.44
793.659	41.95
793.963	38.77
794.268	42
794.572	46.29
794.876	42.32
795.18	39.97
795.484	42.37
795.788	39.94
796.092	43.8
796.396	41.7
796.7	41.97
797.004	44.66
797.307	38.58
797.611	42.07
797.915	42.45
798.218	46.63
798.522	40.26
798.825	41.87
799.128	40.49
799.432	42.06
799.735	36.93
800.038	38.77
800.341	39.3
800.644	43.55
800.947	42.43
801.25	40.35
801.553	40.41
801.856	40.51
802.159	35.63
802.462	39.77
802.764	34.98
803.067	39.21
803.37	38.98
803.672	34.57
803.975	39.01
804.277	42.6
804.579	43.11
804.882	44.77
805.184	40.09
805.486	40.86
805.788	43.38
806.09	39.26
806.392	38.84
806.694	40.26
806.996	41.76
807.298	36.08
807.6	38.4
807.902	39.71
808.203	42.47
808.505	40.08
808.807	46.72
809.108	39.27
809.409	41.92
809.711	41.5
810.012	43.63
810.313	39.14
810.615	42.81
810.916	37.89
811.217	38.24
811.518	47.56
811.819	41.32
812.12	40.5
812.421	43.6
812.722	39.17
813.023	40.88
813.323	45.85
813.624	40.91
813.925	42.96
814.225	45.21
814.526	48.05
814.826	47.48
815.126	44.86
815.427	41.37
815.727	39.43
816.027	42.92
816.327	35.72
816.627	40.56
816.927	41.93
817.227	33.62
817.527	37.95
817.827	34.5
818.127	46.2
818.427	33.99
818.727	40.08
819.026	43.54
819.326	38.83
819.625	37.11
819.925	43.33
820.224	44.06
820.524	45.68
820.823	35.97
821.122	45.81
821.421	36.85
821.72	42.37
822.019	39.91
822.318	40.99
822.617	43.62
822.916	44.67
823.215	43.65
823.514	40.77
823.813	41
824.111	43.95
824.41	43.36
824.709	44.08
825.007	44.06
825.306	43.51
825.604	45.2
825.902	44.59
826.201	43.19
826.499	44.31
826.797	45.51
827.095	44.01
827.393	46.36
827.691	43.97
827.989	45.23
828.287	45.51
828.585	43.2
828.882	41.25
829.18	43.43
829.478	43.29
829.775	43.91
830.073	44.66
830.37	44.05
830.668	44.69
830.965	44.99
831.263	42.7
831.56	43.56
831.857	44.4
832.154	46.45
832.451	47.17
832.748	41.87
833.045	48.33
833.342	42.91
833.639	43.26
833.936	37.19
834.232	44.66
834.529	43.97
834.826	40.72
835.122	43.37
835.419	41.96
835.715	40.82
836.012	42.83
836.308	43.61
836.604	44.45
836.901	49.19
837.197	49.49
837.493	44.43
837.789	51.21
838.085	40.98
838.381	41.05
838.677	45.28
838.972	41.73
839.268	37.46
839.564	45.61
839.86	35.7
840.155	35.82
840.451	41.89
840.746	43.19
841.042	48.9
841.337	43.25
841.632	49.74
841.928	39.12
842.223	38.29
842.518	42.78
842.813	33.74
843.108	42.37
843.403	49.58
843.698	35.53
843.993	29.55
844.287	45.89
844.582	46.09
844.877	39.39
845.171	48.17
845.466	32.03
845.761	41.22
846.055	49.04
846.349	21.4
846.644	37.03
846.938	32.29
847.232	20.56
847.526	35.75
847.82	38.76
848.114	37.73
848.408	52.29
848.702	30.95
848.996	43.8
849.29	53.54
849.584	46.52
849.877	56.51
850.171	35.41
850.465	32.43
850.758	51.25
851.052	36.86
851.345	63.44
851.638	58.8
851.932	49.84
852.225	37.3
852.518	39.3
852.811	27.97
853.104	26.58
853.397	38.89
853.69	35.12
853.983	38.87
854.276	29.35
854.569	44.37
854.861	59.29
855.154	34.31
855.447	38.65
855.739	51.65
856.032	48.05
856.324	22.42
856.616	64.73
856.909	53.74
857.201	40.88
857.493	39.37
857.785	60.13
858.077	42
858.369	50.12
858.661	52.88
858.953	17.59
859.245	16.48
859.537	42.55
859.829	26.69
860.12	50.03
860.412	21.52
860.703	28.05
860.995	39.32
861.286	54.83
861.578	45.51
861.869	47.42
862.16	35.96
862.452	39.21
862.743	44.38
863.034	59.98
863.325	33.83
863.616	31.58
863.907	19.29
864.198	36.78
864.488	41.19
864.779	34.48
865.07	39.2
865.36	114.66
865.651	32.73
865.941	33.88
866.232	34.59
866.522	65.27
866.813	49.02
867.103	65.57
867.393	37.68
867.683	39.48
867.973	28.16
868.263	29.86
868.553	42.96
868.843	39.03
869.133	19.89
869.423	38.27
869.713	39.78
870.002	61.16
870.292	77.83
870.582	48.23
870.871	15.88
871.161	62.39
871.45	35.91
871.739	-3.78
872.029	43.31
872.318	52.43
872.607	48.79
872.896	46.48
873.185	23.55
873.474	49.2
873.763	46.66
874.052	30.44
874.341	0.6
874.63	29.24
874.918	39.08
875.207	45.89
875.496	49.99
875.784	57.34
876.073	14.62
876.361	41.26
876.649	55.75
876.938	50.13
877.226	39.77
877.514	-7.89
877.802	41.61
878.09	4.39
878.378	41.9
878.666	19.29
878.954	36.28
879.242	38.86
879.53	36.23
879.817	35.83
880.105	16.62
880.392	53.19
880.68	39.82
880.967	61.09
881.255	31.75
881.542	73.32
881.83	45.52
882.117	43.71
882.404	46.14
882.691	36.43
882.978	42.52
883.265	67.08
883.552	49.78
883.839	42.94
884.126	40.2
884.413	49.64
884.699	48.92
884.986	43.79
885.273	44.78
885.559	44.78
885.846	44.78
