Data from 446_chest_Reflection__3__18.txt Node

Date: Tue Dec 12 18:20:10 CST 2023
User: ToomeyLab
Spectrometer: FLMS14357
Trigger mode: 0
Integration Time (sec): 1.000000E-2
Scans to average: 100
Electric dark correction enabled: true
Nonlinearity correction enabled: false
Boxcar width: 0
XAxis mode: Wavelengths
Number of Pixels in Spectrum: 2048
>>>>>Begin Spectral Data<<<<<
189.047	47.81
189.435	47.81
189.823	47.81
190.211	-1424.07
190.599	287.96
190.987	68.8
191.375	-91.68
191.763	-1721.93
192.151	-951.38
192.538	267.96
192.926	271.4
193.314	31.05
193.702	331.72
194.089	65.38
194.477	-87.53
194.864	54.97
195.252	31.32
195.639	57.95
196.027	150.61
196.414	84.3
196.801	0.29
197.189	-124.83
197.576	57.22
197.963	123.65
198.351	30.82
198.738	31.72
199.125	22.85
199.512	49.39
199.899	13.54
200.286	23.1
200.673	16.48
201.06	15.85
201.447	-48.32
201.833	23.71
202.22	28.86
202.607	-42.8
202.994	15.48
203.38	39.58
203.767	-5.27
204.154	32.92
204.54	41.57
204.927	-6.84
205.313	26.9
205.699	13.53
206.086	12
206.472	30.95
206.858	34.17
207.245	17.72
207.631	33.76
208.017	50.35
208.403	-1.48
208.789	17.68
209.175	-21.23
209.561	34.96
209.947	-22.33
210.333	42.67
210.719	27.29
211.105	-17.39
211.491	32.93
211.876	39.85
212.262	24.8
212.648	-18.33
213.034	-11.18
213.419	0.61
213.805	18
214.19	27.45
214.576	10
214.961	38.94
215.346	9.75
215.732	6.68
216.117	-3.88
216.502	1.25
216.888	44.86
217.273	-17.99
217.658	-6.1
218.043	10.71
218.428	19.08
218.813	11.07
219.198	-6.37
219.583	12.85
219.968	24.66
220.353	9.81
220.738	33.94
221.122	11.14
221.507	1.51
221.892	12.6
222.276	13.96
222.661	-2.77
223.046	0.1
223.43	17.73
223.815	0.67
224.199	10.7
224.583	11.12
224.968	6.12
225.352	-3.18
225.736	14.33
226.121	8.18
226.505	13.12
226.889	0.05
227.273	2.52
227.657	5.11
228.041	6.88
228.425	5.59
228.809	4.8
229.193	3.68
229.577	4.37
229.961	3.14
230.344	3.15
230.728	4.76
231.112	3.78
231.495	3.67
231.879	4.11
232.263	1.94
232.646	1.97
233.03	3.47
233.413	3.58
233.797	3.95
234.18	1.23
234.563	2.75
234.946	3.52
235.33	4.9
235.713	4.76
236.096	3.65
236.479	2.77
236.862	4.89
237.245	3.64
237.628	4.7
238.011	3.23
238.394	3.25
238.777	3.19
239.16	3.06
239.543	3.94
239.925	5.47
240.308	5.94
240.691	4.64
241.073	4.55
241.456	2.86
241.838	3.34
242.221	4.42
242.603	4.43
242.986	2.7
243.368	3.92
243.75	3.66
244.133	3.61
244.515	3.82
244.897	3.78
245.279	4.29
245.661	2.86
246.043	3.25
246.425	4.42
246.807	3.1
247.189	3.19
247.571	3.65
247.953	3.35
248.335	3.41
248.717	2.89
249.098	3.19
249.48	3.09
249.862	2.97
250.243	2.86
250.625	3.7
251.006	3.63
251.388	3.58
251.769	3.4
252.151	2.77
252.532	3.96
252.913	4.37
253.295	3.83
253.676	2.73
254.057	3.33
254.438	4.14
254.819	3.01
255.2	3.43
255.581	3.38
255.962	2.99
256.343	4.22
256.724	3.4
257.105	4.5
257.486	3.21
257.867	3.07
258.247	3.24
258.628	3.75
259.009	1.77
259.389	3.43
259.77	2.92
260.15	3.77
260.531	3.42
260.911	3.25
261.292	2.73
261.672	2.99
262.052	3.09
262.432	3.21
262.813	3.21
263.193	3.44
263.573	3.77
263.953	4.38
264.333	3.87
264.713	2.79
265.093	3.12
265.473	4.22
265.853	2.74
266.233	2.46
266.612	3.22
266.992	3.56
267.372	3.8
267.752	3.8
268.131	2.34
268.511	3.11
268.89	2.65
269.27	2.83
269.649	3.16
270.029	2.86
270.408	3.39
270.787	2.77
271.167	2.54
271.546	2.99
271.925	2.99
272.304	3.94
272.683	2.42
273.062	3.03
273.441	3.49
273.82	2.8
274.199	2.82
274.578	3.2
274.957	3.01
275.336	3.19
275.715	3.34
276.093	2.16
276.472	3.09
276.851	3.51
277.229	2.46
277.608	2.84
277.986	3.05
278.365	2.91
278.743	2.57
279.122	3.15
279.5	2.93
279.878	2.63
280.257	3.13
280.635	2.15
281.013	3.23
281.391	3.1
281.769	2.73
282.147	2.63
282.525	2.38
282.903	2.36
283.281	2.69
283.659	3.18
284.037	3.27
284.415	2.84
284.792	2.48
285.17	3.31
285.548	3.45
285.925	3.15
286.303	2.53
286.68	2.72
287.058	3.01
287.435	2.74
287.813	2.69
288.19	2.87
288.567	3.05
288.945	2.89
289.322	2.04
289.699	2.96
290.076	2.71
290.453	3.16
290.83	2.72
291.207	2.98
291.584	2.67
291.961	3.08
292.338	2.67
292.715	3.03
293.092	3.01
293.469	2.96
293.845	3.61
294.222	3.23
294.599	3.05
294.975	2.76
295.352	2.94
295.728	3
296.105	3.03
296.481	2.86
296.858	3.06
297.234	3.47
297.61	2.97
297.986	3.13
298.363	3.02
298.739	2.91
299.115	2.83
299.491	2.97
299.867	2.97
300.243	2.79
300.619	2.86
300.995	3.44
301.371	3.64
301.746	3.05
302.122	3.46
302.498	3.23
302.874	2.97
303.249	3.84
303.625	2.96
304	3.2
304.376	2.95
304.751	3.1
305.127	3.29
305.502	3.23
305.878	3.08
306.253	2.67
306.628	3.12
307.003	3.36
307.378	2.92
307.754	3.18
308.129	2.58
308.504	4.17
308.879	2.66
309.254	3.34
309.629	3.05
310.003	3.61
310.378	3.3
310.753	3.62
311.128	3.37
311.502	2.8
311.877	2.68
312.252	2.76
312.626	2.98
313.001	3.21
313.375	2.79
313.75	3.28
314.124	3.19
314.498	3.29
314.873	3.16
315.247	3.3
315.621	3.1
315.995	3.19
316.369	3.1
316.743	2.49
317.117	2.69
317.491	3.09
317.865	3.03
318.239	3.23
318.613	3.26
318.987	3.28
319.361	3.25
319.734	3.17
320.108	3.83
320.482	3.07
320.855	2.5
321.229	3.61
321.602	3.64
321.976	3.16
322.349	3.84
322.723	2.54
323.096	3.48
323.469	3.14
323.843	3.95
324.216	3.41
324.589	3.74
324.962	3.8
325.335	3.46
325.708	3.2
326.081	3.46
326.454	2.95
326.827	3.58
327.2	3.33
327.573	3.05
327.945	3.65
328.318	3.39
328.691	2.63
329.063	3.38
329.436	3.51
329.809	3.13
330.181	2.74
330.553	3.15
330.926	3.4
331.298	2.89
331.671	2.92
332.043	2.94
332.415	3.5
332.787	3.32
333.159	3.32
333.532	2.98
333.904	2.9
334.276	3.67
334.648	2.84
335.02	2.43
335.391	3.09
335.763	2.95
336.135	3.63
336.507	3.64
336.879	3.06
337.25	3.32
337.622	2.98
337.993	2.93
338.365	2.86
338.736	3.38
339.108	2.72
339.479	3.35
339.851	3.09
340.222	2.53
340.593	2.89
340.964	3.37
341.336	3.27
341.707	2.99
342.078	2.75
342.449	2.89
342.82	2.96
343.191	3.39
343.562	3.51
343.933	3.37
344.303	3.62
344.674	3.5
345.045	3.31
345.416	3.22
345.786	2.99
346.157	3.07
346.527	3.39
346.898	3.18
347.268	3.24
347.639	3.27
348.009	3.18
348.38	3.34
348.75	3.45
349.12	3.43
349.49	3.11
349.861	3.76
350.231	3.21
350.601	3.4
350.971	3.8
351.341	3.33
351.711	3.29
352.081	3.46
352.45	3.41
352.82	3.41
353.19	3.12
353.56	2.43
353.929	2.72
354.299	3.34
354.669	3.07
355.038	2.41
355.408	2.97
355.777	3.47
356.147	3
356.516	3.27
356.885	3.29
357.254	3.11
357.624	2.96
357.993	2.87
358.362	3.11
358.731	3.35
359.1	3.09
359.469	3.15
359.838	3.2
360.207	3.09
360.576	3.69
360.945	2.86
361.314	3.14
361.682	3.28
362.051	3.18
362.42	3.23
362.788	3.04
363.157	3.5
363.525	3.38
363.894	3.15
364.262	3.04
364.631	3.26
364.999	3.21
365.367	3.7
365.735	3.09
366.104	2.94
366.472	3.05
366.84	3.09
367.208	3.23
367.576	3.14
367.944	3.44
368.312	3.41
368.68	2.91
369.048	3.38
369.416	3.18
369.783	3.32
370.151	3.08
370.519	3.23
370.886	3.36
371.254	3.26
371.621	3.11
371.989	2.76
372.356	3.25
372.724	3.47
373.091	3.28
373.458	3.12
373.826	3.41
374.193	3.16
374.56	3.15
374.927	3.48
375.294	3.56
375.661	3.69
376.028	3.4
376.395	3.59
376.762	3.53
377.129	2.91
377.496	3.45
377.863	3.41
378.229	3.46
378.596	3.2
378.963	3.65
379.329	2.98
379.696	3.51
380.062	3.59
380.429	3.26
380.795	3.37
381.161	3.54
381.528	3.44
381.894	3.46
382.26	3.17
382.626	3.39
382.993	3.43
383.359	3.1
383.725	3.31
384.091	3.68
384.457	3.23
384.823	3.58
385.188	3.58
385.554	3.44
385.92	3.42
386.286	3.71
386.651	3.6
387.017	3.9
387.383	3.54
387.748	3.27
388.114	3.43
388.479	3.65
388.845	3.45
389.21	3.32
389.575	3.22
389.94	3.46
390.306	3.52
390.671	3.26
391.036	3.55
391.401	3.59
391.766	3.44
392.131	3.55
392.496	3.42
392.861	3.34
393.226	3.53
393.591	3.35
393.956	3.34
394.32	3.54
394.685	3.49
395.05	3.49
395.414	3.49
395.779	3.61
396.143	3.7
396.508	3.38
396.872	3.31
397.236	3.34
397.601	3.54
397.965	3.69
398.329	3.54
398.694	3.33
399.058	3.73
399.422	3.3
399.786	3.43
400.15	3.28
400.514	3.64
400.878	3.37
401.242	3.13
401.605	3.5
401.969	3.58
402.333	3.67
402.697	3.23
403.06	3.21
403.424	3.54
403.787	3.36
404.151	3.52
404.514	3.17
404.878	3.27
405.241	3.38
405.604	3.26
405.968	3.24
406.331	3.56
406.694	3.57
407.057	3.47
407.42	3.49
407.783	3.4
408.146	3.33
408.509	3.54
408.872	3.5
409.235	3.26
409.598	3.51
409.961	3.19
410.323	3.58
410.686	3.67
411.049	3.43
411.411	3.67
411.774	3.52
412.136	3.63
412.499	3.67
412.861	3.58
413.223	3.68
413.586	3.36
413.948	3.41
414.31	3.73
414.672	3.63
415.035	3.6
415.397	3.49
415.759	3.62
416.121	3.67
416.483	3.65
416.845	3.41
417.206	3.79
417.568	3.34
417.93	3.74
418.292	3.82
418.653	3.48
419.015	3.44
419.377	3.54
419.738	3.53
420.1	3.44
420.461	3.56
420.822	3.64
421.184	3.53
421.545	3.62
421.906	3.57
422.267	3.36
422.629	3.49
422.99	3.47
423.351	3.48
423.712	3.45
424.073	3.52
424.434	3.59
424.795	3.58
425.155	3.36
425.516	3.35
425.877	3.43
426.238	3.44
426.598	3.44
426.959	3.49
427.32	3.46
427.68	3.45
428.041	3.49
428.401	3.45
428.761	3.55
429.122	3.48
429.482	3.75
429.842	3.82
430.202	3.63
430.563	3.56
430.923	3.57
431.283	3.55
431.643	3.64
432.003	3.54
432.363	3.61
432.722	3.57
433.082	3.57
433.442	3.61
433.802	3.68
434.161	3.55
434.521	3.64
434.881	3.5
435.24	3.57
435.6	3.67
435.959	3.64
436.319	3.68
436.678	3.78
437.037	3.7
437.396	3.62
437.756	3.61
438.115	3.59
438.474	3.75
438.833	3.68
439.192	3.7
439.551	3.67
439.91	3.48
440.269	3.67
440.628	3.56
440.987	3.42
441.345	3.63
441.704	3.6
442.063	3.66
442.421	3.61
442.78	3.53
443.138	3.58
443.497	3.63
443.855	3.61
444.214	3.72
444.572	3.67
444.93	3.59
445.288	3.55
445.647	3.59
446.005	3.59
446.363	3.59
446.721	3.53
447.079	3.64
447.437	3.55
447.795	3.63
448.153	3.53
448.51	3.5
448.868	3.64
449.226	3.67
449.584	3.68
449.941	3.59
450.299	3.62
450.656	3.63
451.014	3.76
451.371	3.62
451.729	3.66
452.086	3.68
452.443	3.74
452.801	3.7
453.158	3.65
453.515	3.79
453.872	3.77
454.229	3.71
454.586	3.63
454.943	3.59
455.3	3.56
455.657	3.71
456.014	3.73
456.371	3.78
456.727	3.72
457.084	3.89
457.441	3.77
457.797	3.76
458.154	3.76
458.51	3.51
458.867	3.81
459.223	3.8
459.58	3.72
459.936	3.51
460.292	3.76
460.648	3.8
461.005	3.62
461.361	3.61
461.717	3.71
462.073	3.7
462.429	3.71
462.785	3.63
463.141	3.69
463.496	3.65
463.852	3.87
464.208	3.79
464.564	3.83
464.919	3.97
465.275	3.7
465.631	3.78
465.986	3.77
466.342	3.65
466.697	3.73
467.052	4.12
467.408	3.84
467.763	3.85
468.118	3.88
468.473	3.84
468.829	3.86
469.184	3.63
469.539	3.78
469.894	3.94
470.249	3.98
470.603	3.83
470.958	3.89
471.313	4.09
471.668	3.96
472.023	3.75
472.377	3.79
472.732	3.91
473.086	3.92
473.441	4.04
473.795	3.88
474.15	3.77
474.504	3.62
474.859	3.87
475.213	3.88
475.567	3.94
475.921	4.02
476.275	3.94
476.63	3.84
476.984	3.86
477.338	3.89
477.692	3.9
478.045	3.94
478.399	3.84
478.753	3.95
479.107	3.81
479.461	3.85
479.814	3.91
480.168	3.85
480.521	3.78
480.875	3.87
481.228	4.03
481.582	3.89
481.935	3.91
482.289	3.98
482.642	4
482.995	3.82
483.348	3.81
483.701	3.95
484.055	3.77
484.408	3.77
484.761	3.8
485.114	3.67
485.466	3.61
485.819	3.58
486.172	3.64
486.525	3.67
486.878	3.73
487.23	3.72
487.583	3.72
487.936	3.85
488.288	3.74
488.641	3.74
488.993	3.73
489.345	3.75
489.698	3.72
490.05	3.68
490.402	3.76
490.754	3.75
491.107	3.81
491.459	3.81
491.811	3.93
492.163	3.85
492.515	3.86
492.866	3.78
493.218	3.76
493.57	3.76
493.922	3.72
494.274	3.82
494.625	3.89
494.977	3.98
495.328	3.97
495.68	3.92
496.031	3.98
496.383	4
496.734	4.09
497.086	3.98
497.437	4
497.788	3.92
498.139	3.97
498.49	4.14
498.842	3.88
499.193	4.01
499.544	4.05
499.894	4.08
500.245	4.02
500.596	4.09
500.947	3.92
501.298	4.14
501.648	4.06
501.999	4.04
502.35	3.97
502.7	4.12
503.051	4.11
503.401	4.16
503.752	4.27
504.102	4.15
504.452	4.19
504.803	4.16
505.153	4.16
505.503	4.2
505.853	4.18
506.203	4.2
506.553	4.15
506.903	4.22
507.253	4.19
507.603	4.14
507.953	4.13
508.303	4.11
508.652	4.19
509.002	4.2
509.352	4.13
509.701	4.23
510.051	4.17
510.4	4.14
510.75	4.2
511.099	4.13
511.449	4.16
511.798	4.15
512.147	4.3
512.496	4.26
512.846	4.25
513.195	4.07
513.544	4.18
513.893	4.24
514.242	4.13
514.591	4.16
514.939	4.29
515.288	4.23
515.637	4.28
515.986	4.2
516.334	4.39
516.683	4.26
517.032	4.35
517.38	4.26
517.729	4.31
518.077	4.29
518.426	4.21
518.774	4.41
519.122	4.27
519.47	4.31
519.819	4.19
520.167	4.18
520.515	4.19
520.863	4.25
521.211	4.14
521.559	4.24
521.907	4.26
522.255	4.3
522.602	4.4
522.95	4.32
523.298	4.4
523.645	4.59
523.993	4.44
524.341	4.47
524.688	4.37
525.036	4.53
525.383	4.43
525.73	4.35
526.078	4.42
526.425	4.44
526.772	4.32
527.119	4.43
527.466	4.35
527.814	4.3
528.161	4.36
528.508	4.43
528.854	4.39
529.201	4.4
529.548	4.31
529.895	4.27
530.242	4.19
530.588	4.2
530.935	4.28
531.282	4.35
531.628	4.34
531.975	4.34
532.321	4.36
532.667	4.3
533.014	4.42
533.36	4.53
533.706	4.44
534.052	4.47
534.399	4.45
534.745	4.5
535.091	4.35
535.437	4.49
535.783	4.44
536.129	4.59
536.474	4.41
536.82	4.49
537.166	4.68
537.512	4.68
537.857	4.63
538.203	4.6
538.549	4.58
538.894	4.61
539.239	4.6
539.585	4.72
539.93	4.71
540.276	4.72
540.621	4.75
540.966	4.77
541.311	4.81
541.656	4.86
542.001	4.69
542.346	4.67
542.691	4.62
543.036	4.65
543.381	4.54
543.726	4.62
544.071	4.64
544.415	4.71
544.76	4.74
545.105	4.82
545.449	4.77
545.794	4.88
546.138	4.76
546.483	4.9
546.827	5.03
547.171	4.96
547.516	4.88
547.86	4.9
548.204	4.88
548.548	4.83
548.892	5
549.236	4.92
549.58	4.94
549.924	4.99
550.268	5
550.612	4.92
550.956	4.99
551.3	5.23
551.643	5.06
551.987	5.25
552.33	5.2
552.674	5.3
553.017	5.29
553.361	5.39
553.704	5.2
554.048	5.34
554.391	5.21
554.734	5.07
555.077	5.28
555.42	5.3
555.764	5.35
556.107	5.35
556.45	5.2
556.793	5.17
557.135	5.36
557.478	5.38
557.821	5.28
558.164	5.36
558.507	5.47
558.849	5.37
559.192	5.46
559.534	5.37
559.877	5.37
560.219	5.41
560.562	5.47
560.904	5.75
561.246	5.45
561.589	5.45
561.931	5.58
562.273	5.54
562.615	5.62
562.957	5.66
563.299	5.63
563.641	5.64
563.983	5.55
564.325	5.71
564.667	5.69
565.008	5.63
565.35	5.62
565.692	5.66
566.033	5.79
566.375	5.69
566.716	5.53
567.058	5.84
567.399	5.83
567.741	5.8
568.082	5.73
568.423	5.63
568.764	5.76
569.105	5.65
569.447	5.84
569.788	5.78
570.129	5.8
570.47	5.81
570.811	5.94
571.151	5.97
571.492	6.03
571.833	5.94
572.174	6.13
572.514	5.81
572.855	5.9
573.195	5.83
573.536	5.82
573.876	5.88
574.217	5.89
574.557	5.87
574.898	6.03
575.238	6.09
575.578	5.97
575.918	6.24
576.258	6.13
576.598	5.84
576.938	6.23
577.278	6.27
577.618	6.41
577.958	6.19
578.298	6.39
578.638	6.09
578.977	6.21
579.317	6.15
579.657	6.43
579.996	6.46
580.336	6.38
580.675	6.47
581.014	6.56
581.354	6.53
581.693	6.47
582.032	6.49
582.372	6.55
582.711	6.52
583.05	6.63
583.389	6.87
583.728	6.53
584.067	7.01
584.406	6.79
584.745	6.72
585.083	6.48
585.422	6.62
585.761	6.79
586.1	6.65
586.438	6.76
586.777	6.84
587.115	6.7
587.454	6.88
587.792	6.6
588.13	6.99
588.469	6.84
588.807	6.74
589.145	6.92
589.483	6.87
589.821	6.98
590.159	6.89
590.497	6.96
590.835	7
591.173	7.01
591.511	6.96
591.849	7.05
592.187	7
592.524	6.89
592.862	7.24
593.2	6.98
593.537	6.97
593.875	7.48
594.212	7.09
594.55	7.5
594.887	7.68
595.224	7.05
595.561	7.63
595.899	7.22
596.236	7.15
596.573	7.19
596.91	7.37
597.247	7.47
597.584	7.3
597.921	7.27
598.258	7.51
598.594	7.63
598.931	7.53
599.268	7.2
599.604	7.21
599.941	7.34
600.277	7.58
600.614	7.73
600.95	7.68
601.287	7.54
601.623	7.77
601.959	7.76
602.296	7.82
602.632	7.39
602.968	7.77
603.304	7.62
603.64	7.95
603.976	7.76
604.312	7.96
604.648	7.96
604.984	7.84
605.319	7.65
605.655	7.77
605.991	7.87
606.326	7.75
606.662	7.75
606.998	7.89
607.333	7.94
607.668	7.85
608.004	7.84
608.339	8.21
608.674	8.09
609.01	8.07
609.345	8.28
609.68	8.22
610.015	8.08
610.35	8.13
610.685	8.26
611.02	8.33
611.355	8.12
611.689	8.14
612.024	8.17
612.359	8.42
612.694	8.31
613.028	8.35
613.363	8.41
613.697	8.53
614.032	8.73
614.366	8.59
614.7	8.5
615.035	8.39
615.369	8.52
615.703	8.73
616.037	8.82
616.371	8.28
616.705	8.61
617.039	8.59
617.373	9.02
617.707	8.57
618.041	8.62
618.375	8.6
618.709	8.94
619.042	8.93
619.376	8.67
619.71	8.84
620.043	8.89
620.377	9.05
620.71	9
621.043	8.59
621.377	8.79
621.71	8.87
622.043	9.18
622.376	9.47
622.709	9.16
623.043	8.96
623.376	9.43
623.709	9.03
624.041	9.33
624.374	9.46
624.707	9.19
625.04	9.09
625.373	9.52
625.705	9.34
626.038	9.58
626.37	9.51
626.703	9.52
627.035	9.27
627.368	9.49
627.7	9.3
628.032	9.42
628.365	9.6
628.697	9.55
629.029	9.62
629.361	9.4
629.693	9.43
630.025	9.44
630.357	9.78
630.689	9.38
631.021	9.79
631.353	9.87
631.684	9.71
632.016	9.69
632.348	9.94
632.679	9.18
633.011	10.27
633.342	9.94
633.674	9.86
634.005	9.92
634.336	9.77
634.668	9.95
634.999	10.13
635.33	10.19
635.661	10.01
635.992	9.84
636.323	9.92
636.654	10.22
636.985	10.07
637.316	10.1
637.647	10.08
637.977	10.31
638.308	10.48
638.639	10.08
638.969	10.29
639.3	10.66
639.63	10.69
639.961	10.31
640.291	10.19
640.622	10.42
640.952	10.54
641.282	10.46
641.612	10.6
641.943	10.95
642.273	10.7
642.603	11.07
642.933	10.69
643.263	10.37
643.592	10.64
643.922	11.1
644.252	11.31
644.582	10.46
644.911	10.84
645.241	10.88
645.571	11.38
645.9	10.77
646.23	10.82
646.559	11.27
646.888	10.86
647.218	10.84
647.547	11
647.876	10.91
648.205	11.2
648.534	11.39
648.863	11.19
649.192	10.99
649.521	11.53
649.85	10.93
650.179	11.51
650.508	11.34
650.837	11.15
651.165	11.3
651.494	11.21
651.822	11.48
652.151	11.25
652.479	11.65
652.808	11.62
653.136	11.85
653.465	11.42
653.793	11.41
654.121	11.73
654.449	11.48
654.777	12.22
655.105	11.71
655.433	11.73
655.761	11.64
656.089	11.69
656.417	12.18
656.745	12.1
657.073	11.52
657.4	12.23
657.728	11.47
658.056	12.11
658.383	11.44
658.711	11.69
659.038	11.29
659.365	12.03
659.693	12.06
660.02	11.73
660.347	12.21
660.674	11.94
661.001	12.12
661.329	11.74
661.656	12.22
661.982	11.89
662.309	12.33
662.636	11.8
662.963	12.2
663.29	12.25
663.616	12.02
663.943	12.76
664.27	12.8
664.596	12.62
664.923	12.56
665.249	11.85
665.576	12.47
665.902	12.81
666.228	12.12
666.554	12.63
666.881	11.72
667.207	12.65
667.533	12.93
667.859	12.64
668.185	12.61
668.511	12.55
668.837	12.21
669.162	13.15
669.488	12.15
669.814	13.25
670.139	12.36
670.465	12.26
670.791	13.01
671.116	12.82
671.442	12.77
671.767	13.3
672.092	13.47
672.418	12.68
672.743	13.16
673.068	12.53
673.393	12.82
673.718	13.27
674.043	13.64
674.368	12.44
674.693	13.12
675.018	13.59
675.343	12.86
675.667	13.47
675.992	13.15
676.317	13.54
676.641	12.91
676.966	13.43
677.29	13.01
677.615	13.13
677.939	13.75
678.264	13.98
678.588	13.61
678.912	13.49
679.236	13.61
679.56	13.9
679.885	14.43
680.209	13.99
680.532	13.3
680.856	13.79
681.18	13.55
681.504	13.17
681.828	13.78
682.152	13.28
682.475	13.76
682.799	13.74
683.122	13.95
683.446	14.02
683.769	14.83
684.093	13.51
684.416	13.92
684.739	14.58
685.062	14.47
685.386	14.69
685.709	14.48
686.032	14.26
686.355	14.02
686.678	14.14
687.001	14.79
687.324	14.1
687.646	14.63
687.969	13.66
688.292	14.16
688.614	14.83
688.937	14.24
689.26	14.8
689.582	13.93
689.904	14.14
690.227	14.19
690.549	14.63
690.871	14.45
691.194	14.64
691.516	15.53
691.838	14.37
692.16	14.93
692.482	14.81
692.804	15.16
693.126	14.68
693.448	13.84
693.769	14.32
694.091	15.52
694.413	15.14
694.735	15.13
695.056	14.52
695.378	14.78
695.699	15.92
696.021	13.94
696.342	14.86
696.663	14.94
696.984	14.57
697.306	14.23
697.627	15.17
697.948	15
698.269	14.61
698.59	15.62
698.911	15.38
699.232	15.38
699.553	15.6
699.873	15.5
700.194	15.74
700.515	15.15
700.835	15.16
701.156	15.01
701.477	15.38
701.797	15.32
702.117	15.52
702.438	16.15
702.758	15.18
703.078	17.03
703.398	15.65
703.719	15.53
704.039	15.72
704.359	15.71
704.679	16.31
704.999	15.91
705.319	15.73
705.638	16.91
705.958	16.39
706.278	17.31
706.597	17.17
706.917	16.25
707.237	15.88
707.556	16.54
707.876	15.78
708.195	16.43
708.514	16.54
708.834	16.41
709.153	15.77
709.472	16.54
709.791	16.25
710.11	17.49
710.429	16.82
710.748	16.36
711.067	16.61
711.386	16.21
711.705	17.35
712.023	16.73
712.342	17.6
712.661	15.97
712.979	17.1
713.298	16.53
713.616	16.88
713.935	17.39
714.253	15.73
714.572	17.33
714.89	17.32
715.208	17.38
715.526	17.25
715.844	17.17
716.162	16.52
716.48	16.89
716.798	16.57
717.116	17.59
717.434	16.64
717.752	16.76
718.069	18.04
718.387	16.67
718.705	16.71
719.022	17.27
719.34	17.15
719.657	18.2
719.975	17.9
720.292	17.88
720.609	18.76
720.927	17.3
721.244	16.76
721.561	17.5
721.878	17.68
722.195	17.84
722.512	18.23
722.829	18.1
723.146	18.13
723.463	17.85
723.779	17.8
724.096	16.44
724.413	17.14
724.729	17.16
725.046	18.12
725.362	18.23
725.679	17.83
725.995	18.69
726.311	17.89
726.628	18.58
726.944	18.53
727.26	16.62
727.576	16.91
727.892	17.92
728.208	18
728.524	17.98
728.84	17.44
729.156	18.59
729.472	18.84
729.787	18.14
730.103	18.34
730.419	17.11
730.734	18.13
731.05	19.98
731.365	19.41
731.681	17.84
731.996	18.51
732.311	18.58
732.626	19.58
732.942	19.12
733.257	19.01
733.572	19.53
733.887	20.36
734.202	20.33
734.517	17.64
734.832	19.87
735.146	18.89
735.461	19.48
735.776	18
736.091	18.94
736.405	19.19
736.72	18.69
737.034	19.08
737.349	18.94
737.663	21.2
737.977	19.43
738.292	18.34
738.606	19.14
738.92	17.43
739.234	20.19
739.548	21.48
739.862	19.93
740.176	17.51
740.49	20.52
740.804	20.12
741.117	18.56
741.431	19.76
741.745	20.74
742.058	19.22
742.372	20.59
742.685	21.14
742.999	19.39
743.312	20.06
743.626	19.4
743.939	20.25
744.252	19.17
744.565	19.31
744.878	20.42
745.191	19.39
745.505	20.68
745.817	22.65
746.13	21.37
746.443	19.89
746.756	19.86
747.069	20.87
747.381	17.62
747.694	18.51
748.007	20.24
748.319	18.85
748.632	20.59
748.944	18.69
749.256	21.52
749.569	20.71
749.881	20.87
750.193	20.35
750.505	19.53
750.817	19.75
751.129	20.85
751.441	22.37
751.753	22.52
752.065	19.93
752.377	21.22
752.689	22.16
753	19.97
753.312	20.36
753.624	20.94
753.935	20.27
754.247	21.48
754.558	20.77
754.869	20.04
755.181	21.29
755.492	22.54
755.803	21.18
756.114	19.82
756.425	22.66
756.736	19.76
757.047	21.57
757.358	20.88
757.669	23.96
757.98	21.49
758.291	19.27
758.601	22.29
758.912	19.14
759.223	20.77
759.533	22
759.844	20.38
760.154	23.33
760.464	21.75
760.775	22.36
761.085	19.71
761.395	20.4
761.705	22.87
762.016	22.33
762.326	22.02
762.636	21.77
762.945	20.84
763.255	20.45
763.565	20.86
763.875	20.43
764.185	21.04
764.494	21.19
764.804	21.22
765.113	21.19
765.423	22.11
765.732	21.09
766.042	22.74
766.351	22.84
766.66	22.26
766.97	22.89
767.279	22.33
767.588	23.07
767.897	22.22
768.206	22.38
768.515	22.51
768.824	22.41
769.133	22.96
769.441	22.63
769.75	22.02
770.059	21.73
770.367	20.8
770.676	23.07
770.984	23.82
771.293	22.88
771.601	21.28
771.91	23.12
772.218	22.35
772.526	19.97
772.834	22.4
773.142	23.51
773.45	22.3
773.758	21.38
774.066	24.42
774.374	23.74
774.682	25.64
774.99	19.2
775.298	24.15
775.605	23.58
775.913	24.29
776.22	23.93
776.528	21.59
776.835	22.08
777.143	25.58
777.45	21.36
777.757	24.73
778.065	23.09
778.372	24.4
778.679	22.82
778.986	25.31
779.293	23.29
779.6	22.82
779.907	22.52
780.214	23.25
780.52	24.67
780.827	24.81
781.134	23.25
781.44	23.6
781.747	23.23
782.053	26.04
782.36	22.34
782.666	20.35
782.973	25.07
783.279	23.51
783.585	22.39
783.891	26.02
784.197	26.39
784.503	24.42
784.809	24.66
785.115	23.86
785.421	23.17
785.727	24.23
786.033	23.16
786.339	23.41
786.644	24.48
786.95	28.38
787.255	26.58
787.561	20.74
787.866	24.76
788.172	24.46
788.477	24.54
788.782	26.25
789.088	27.14
789.393	20.44
789.698	24.89
790.003	23.6
790.308	23.95
790.613	25.79
790.918	24.17
791.223	26
791.527	25.01
791.832	24.32
792.137	22.52
792.441	26.97
792.746	28.58
793.05	24.35
793.355	22.63
793.659	26.3
793.963	24.37
794.268	23.35
794.572	24.55
794.876	19.07
795.18	24.99
795.484	23.92
795.788	26.44
796.092	23.05
796.396	26.2
796.7	25.58
797.004	27.77
797.307	21.89
797.611	19.65
797.915	24.22
798.218	22.76
798.522	24.16
798.825	28.84
799.128	25.69
799.432	22.38
799.735	25.5
800.038	30.2
800.341	33.78
800.644	27.52
800.947	29.64
801.25	27.25
801.553	27.62
801.856	24.49
802.159	30.24
802.462	26.72
802.764	26.46
803.067	23.11
803.37	22.86
803.672	26.28
803.975	22.78
804.277	30.06
804.579	26.19
804.882	21.03
805.184	24.98
805.486	23.07
805.788	27.58
806.09	21.3
806.392	27.59
806.694	26.65
806.996	24.2
807.298	26.54
807.6	27
807.902	24.16
808.203	31.29
808.505	23.33
808.807	26.79
809.108	25.59
809.409	24.06
809.711	23.34
810.012	28.49
810.313	31.32
810.615	31.48
810.916	27.38
811.217	24.61
811.518	25.86
811.819	27.25
812.12	26.77
812.421	26.55
812.722	36.29
813.023	23.87
813.323	24.93
813.624	30.32
813.925	37.07
814.225	26.76
814.526	26.43
814.826	28.52
815.126	26.74
815.427	23.15
815.727	24.41
816.027	27.88
816.327	26.07
816.627	35.04
816.927	31.56
817.227	31.33
817.527	33.99
817.827	25.8
818.127	31.35
818.427	20.17
818.727	22.88
819.026	22.51
819.326	27.27
819.625	19.67
819.925	27.14
820.224	18.49
820.524	25.81
820.823	36.53
821.122	30.78
821.421	24.44
821.72	23.44
822.019	24.34
822.318	24.74
822.617	27.39
822.916	26.03
823.215	32.13
823.514	27.25
823.813	30.15
824.111	28.52
824.41	31.56
824.709	29.45
825.007	28.85
825.306	28.82
825.604	29.49
825.902	29.83
826.201	27.51
826.499	27.77
826.797	30.37
827.095	30.14
827.393	29.78
827.691	30.74
827.989	30.29
828.287	29.85
828.585	32.36
828.882	31.7
829.18	32
829.478	30.26
829.775	31.14
830.073	29.78
830.37	28.89
830.668	30.68
830.965	33.7
831.263	30.42
831.56	29.34
831.857	24.1
832.154	28.55
832.451	29.85
832.748	28.3
833.045	33.11
833.342	32.14
833.639	31.58
833.936	26.26
834.232	36.79
834.529	29.6
834.826	36.45
835.122	31.01
835.419	31.48
835.715	38.05
836.012	28.48
836.308	27.82
836.604	28.79
836.901	31
837.197	34.42
837.493	30.34
837.789	32.1
838.085	32.85
838.381	29.46
838.677	30.09
838.972	32.76
839.268	25.99
839.564	34.45
839.86	32.18
840.155	28.46
840.451	29.68
840.746	39.06
841.042	28.8
841.337	38.3
841.632	28.85
841.928	29.37
842.223	26.15
842.518	27.75
842.813	33.05
843.108	25.55
843.403	30.32
843.698	36.02
843.993	32.57
844.287	29.49
844.582	29.31
844.877	46.02
845.171	30.33
845.466	36.38
845.761	34.13
846.055	44.71
846.349	26.88
846.644	39.03
846.938	48.45
847.232	30.1
847.526	44.24
847.82	37.21
848.114	40.13
848.408	34
848.702	34.32
848.996	35.18
849.29	43.35
849.584	42.14
849.877	23.11
850.171	23.94
850.465	27.72
850.758	24.95
851.052	24.02
851.345	32.75
851.638	36.9
851.932	8.72
852.225	8.88
852.518	41.02
852.811	52.8
853.104	10.83
853.397	30.86
853.69	40.8
853.983	47.76
854.276	20.1
854.569	36.11
854.861	37.59
855.154	45.33
855.447	40.64
855.739	43.39
856.032	37.18
856.324	37.93
856.616	37.62
856.909	35.07
857.201	33.11
857.493	21.15
857.785	28.05
858.077	14.06
858.369	30.88
858.661	46.99
858.953	37.18
859.245	41.94
859.537	44.27
859.829	26.5
860.12	14
860.412	19.88
860.703	30.4
860.995	38.85
861.286	44.07
861.578	34.35
861.869	39.37
862.16	35.17
862.452	34.87
862.743	17.72
863.034	58.94
863.325	52.52
863.616	29.02
863.907	36.88
864.198	45.4
864.488	53.71
864.779	50.42
865.07	32.88
865.36	33.53
865.651	24.95
865.941	9.86
866.232	29.65
866.522	39.39
866.813	5.78
867.103	54.85
867.393	0.52
867.683	29.72
867.973	27.9
868.263	37.95
868.553	50.68
868.843	31.81
869.133	14.8
869.423	32.39
869.713	10.29
870.002	-4.73
870.292	12.46
870.582	26.24
870.871	20.24
871.161	27.57
871.45	39.74
871.739	45.92
872.029	-0.15
872.318	55.29
872.607	14.13
872.896	49.84
873.185	26.91
873.474	35.8
873.763	42.35
874.052	36.09
874.341	45.96
874.63	58.38
874.918	4.51
875.207	27.15
875.496	48.64
875.784	34.53
876.073	43.36
876.361	45.54
876.649	37.93
876.938	63.25
877.226	10.23
877.514	11.61
877.802	34.6
878.09	28.29
878.378	44.67
878.666	54.25
878.954	40.36
879.242	37.9
879.53	40.49
879.817	38.91
880.105	38.55
880.392	37.45
880.68	36.71
880.967	41.74
881.255	30.04
881.542	-8.15
881.83	45.29
882.117	36.86
882.404	38.33
882.691	18.69
882.978	32.61
883.265	46.16
883.552	48.71
883.839	44.1
884.126	46.94
884.413	34.96
884.699	35.48
884.986	38.18
885.273	44.49
885.559	44.49
885.846	44.49
