Data from 0043_chest_Reflection__3__138.txt Node

Date: Fri Nov 04 15:58:44 CDT 2022
User: ToomeyLab
Spectrometer: FLMS14357
Trigger mode: 0
Integration Time (sec): 1.000000E-2
Scans to average: 100
Electric dark correction enabled: true
Nonlinearity correction enabled: false
Boxcar width: 0
XAxis mode: Wavelengths
Number of Pixels in Spectrum: 2048
>>>>>Begin Spectral Data<<<<<
189.047	219.47
189.435	219.47
189.823	219.47
190.211	74.88
190.599	336.26
190.987	136.9
191.375	22.52
191.763	-178.16
192.151	68.1
192.538	113.76
192.926	58.92
193.314	164.56
193.702	237.18
194.089	142.18
194.477	-55.49
194.864	-42.1
195.252	155.19
195.639	-90.29
196.027	85.17
196.414	3.33
196.801	27.07
197.189	109.01
197.576	-352.54
197.963	26.07
198.351	-11.32
198.738	37.25
199.125	45.25
199.512	-0.82
199.899	-10.9
200.286	-42.15
200.673	13.13
201.06	30.58
201.447	38.66
201.833	33.18
202.22	18.1
202.607	14.43
202.994	45.24
203.38	1.72
203.767	22.3
204.154	42.07
204.54	-58.37
204.927	3.82
205.313	40.84
205.699	25.39
206.086	63.68
206.472	13.16
206.858	5.84
207.245	10.39
207.631	24.95
208.017	14.92
208.403	11.66
208.789	21.6
209.175	70.03
209.561	-22.04
209.947	-46.65
210.333	27.87
210.719	-8.63
211.105	-57.37
211.491	4.88
211.876	-13.73
212.262	-25.63
212.648	27.8
213.034	40.91
213.419	-10.03
213.805	-20.07
214.19	-13.84
214.576	-4.62
214.961	9.43
215.346	23.13
215.732	7.49
216.117	-20.09
216.502	13.53
216.888	-13.97
217.273	7.1
217.658	19.7
218.043	-0.05
218.428	31.27
218.813	0.22
219.198	13.04
219.583	-3.97
219.968	15.77
220.353	-6.17
220.738	-2.02
221.122	-3.83
221.507	28.9
221.892	-8.19
222.276	-9.22
222.661	15.54
223.046	8.8
223.43	4.36
223.815	4.21
224.199	10.89
224.583	2.42
224.968	-2.67
225.352	4.93
225.736	-3.3
226.121	-4.26
226.505	6.78
226.889	4.29
227.273	6.59
227.657	0.18
228.041	5.65
228.425	6.96
228.809	6.21
229.193	5.14
229.577	1.97
229.961	5.78
230.344	5.46
230.728	5.12
231.112	4.22
231.495	4.9
231.879	5.55
232.263	4.21
232.646	3.69
233.03	4.24
233.413	3.37
233.797	4.73
234.18	2.08
234.563	5.73
234.946	4.31
235.33	6.54
235.713	4.4
236.096	6.07
236.479	3.96
236.862	4.6
237.245	4.66
237.628	4.95
238.011	3.18
238.394	7.25
238.777	4.95
239.16	5.02
239.543	4.13
239.925	5.58
240.308	6.38
240.691	6.18
241.073	5.34
241.456	5.23
241.838	3.55
242.221	5.03
242.603	4.47
242.986	5.09
243.368	5.31
243.75	5.03
244.133	5.54
244.515	5.11
244.897	5.18
245.279	5.09
245.661	5.53
246.043	6.03
246.425	4.56
246.807	5.8
247.189	4.92
247.571	5.67
247.953	4.85
248.335	5.01
248.717	5.26
249.098	4.86
249.48	5.3
249.862	5.64
250.243	5.35
250.625	4.86
251.006	5.33
251.388	5.44
251.769	5.65
252.151	5.12
252.532	4.61
252.913	4.85
253.295	5.81
253.676	5.04
254.057	5.02
254.438	5.34
254.819	5.39
255.2	5.16
255.581	5.69
255.962	5.56
256.343	4.53
256.724	5.51
257.105	5.61
257.486	5.68
257.867	7.2
258.247	5.25
258.628	4.94
259.009	4.49
259.389	5.16
259.77	5.7
260.15	4.94
260.531	5
260.911	5.01
261.292	4.96
261.672	4.89
262.052	5.06
262.432	5.03
262.813	5.02
263.193	4.78
263.573	5.14
263.953	4.82
264.333	5.05
264.713	5.23
265.093	5.34
265.473	4.68
265.853	4.49
266.233	4.61
266.612	5.26
266.992	5.54
267.372	4.24
267.752	5.51
268.131	4.56
268.511	5.09
268.89	5.19
269.27	4.44
269.649	4.93
270.029	4.88
270.408	4.83
270.787	5.42
271.167	4.76
271.546	5.69
271.925	5.07
272.304	4.82
272.683	4.49
273.062	5.07
273.441	4.56
273.82	4.94
274.199	4.56
274.578	4.36
274.957	4.86
275.336	4.79
275.715	4.41
276.093	4.67
276.472	4.79
276.851	4.29
277.229	4.99
277.608	4.77
277.986	5.06
278.365	5.23
278.743	5.06
279.122	4.65
279.5	4.98
279.878	4.8
280.257	4.65
280.635	4.6
281.013	4.5
281.391	5.27
281.769	4.74
282.147	4.61
282.525	5.4
282.903	5.33
283.281	5.21
283.659	4.99
284.037	4.82
284.415	4.81
284.792	4.63
285.17	4.5
285.548	5.14
285.925	4.51
286.303	5.03
286.68	5.07
287.058	4.9
287.435	4.73
287.813	4.7
288.19	4.68
288.567	4.74
288.945	4.7
289.322	4.84
289.699	4.79
290.076	5.05
290.453	4.56
290.83	4.63
291.207	4.73
291.584	4.69
291.961	4.91
292.338	5.08
292.715	5.04
293.092	5.25
293.469	5.18
293.845	4.5
294.222	5.03
294.599	4.91
294.975	5.03
295.352	5.24
295.728	5.32
296.105	4.86
296.481	5.13
296.858	5.35
297.234	5.72
297.61	5.01
297.986	5.27
298.363	4.93
298.739	5.16
299.115	5.23
299.491	5.03
299.867	5.03
300.243	5.21
300.619	5.44
300.995	5.37
301.371	5.53
301.746	5.46
302.122	5.28
302.498	5.18
302.874	5.41
303.249	5.3
303.625	5.07
304	5.42
304.376	5.27
304.751	5.44
305.127	4.95
305.502	5.66
305.878	5.4
306.253	5.77
306.628	5.37
307.003	5.35
307.378	5.56
307.754	5.54
308.129	5.17
308.504	5.46
308.879	5.43
309.254	5.54
309.629	5.69
310.003	5.66
310.378	5.46
310.753	6.11
311.128	5.3
311.502	5.08
311.877	5.8
312.252	5.37
312.626	5.84
313.001	5.75
313.375	5.63
313.75	5.35
314.124	5.69
314.498	5.67
314.873	5.67
315.247	5.86
315.621	5.77
315.995	5.87
316.369	5.31
316.743	6.02
317.117	6.35
317.491	6.16
317.865	5.64
318.239	5.24
318.613	6.26
318.987	5.88
319.361	5.83
319.734	6.25
320.108	6.11
320.482	5.45
320.855	6.18
321.229	5.98
321.602	6.05
321.976	5.57
322.349	6.07
322.723	6.46
323.096	5.65
323.469	5.63
323.843	6.17
324.216	6.02
324.589	6.05
324.962	6.58
325.335	5.79
325.708	5.57
326.081	6.39
326.454	5.68
326.827	5.98
327.2	5.74
327.573	6.02
327.945	6.37
328.318	6.13
328.691	5.93
329.063	5.94
329.436	6.42
329.809	5.96
330.181	6.05
330.553	5.85
330.926	6.04
331.298	6.58
331.671	6.31
332.043	6.14
332.415	6.17
332.787	5.86
333.159	6.41
333.532	5.73
333.904	6.41
334.276	6.09
334.648	6.61
335.02	5.46
335.391	6.02
335.763	6.45
336.135	6.39
336.507	6.39
336.879	6.22
337.25	6.3
337.622	6.17
337.993	6.4
338.365	6.22
338.736	6.42
339.108	6.46
339.479	6.49
339.851	5.59
340.222	5.93
340.593	6.6
340.964	6.36
341.336	6.23
341.707	5.96
342.078	6.42
342.449	6.19
342.82	6.1
343.191	6.23
343.562	6.34
343.933	6.53
344.303	6.91
344.674	6.26
345.045	6.13
345.416	5.67
345.786	6.72
346.157	6.22
346.527	6.21
346.898	6.56
347.268	6.38
347.639	6.26
348.009	7.07
348.38	6.23
348.75	6.34
349.12	6.23
349.49	6.59
349.861	5.96
350.231	6.4
350.601	6.53
350.971	6.05
351.341	6.62
351.711	6.17
352.081	6.68
352.45	6.55
352.82	6.51
353.19	6.47
353.56	6.58
353.929	6.72
354.299	6.52
354.669	6.76
355.038	6.57
355.408	6.1
355.777	6.55
356.147	6.35
356.516	6.41
356.885	6.63
357.254	6.52
357.624	6.69
357.993	6.42
358.362	6.33
358.731	6.51
359.1	6.64
359.469	6.53
359.838	6.67
360.207	6.3
360.576	6.86
360.945	6.52
361.314	6.73
361.682	6.09
362.051	6.38
362.42	6.58
362.788	6.88
363.157	6.48
363.525	6.63
363.894	6.61
364.262	6.74
364.631	6.71
364.999	6.55
365.367	6.74
365.735	6.72
366.104	6.82
366.472	6.66
366.84	6.23
367.208	6.99
367.576	6.35
367.944	6.74
368.312	6.59
368.68	6.58
369.048	6.58
369.416	6.91
369.783	6.42
370.151	6.73
370.519	7.17
370.886	6.63
371.254	6.7
371.621	6.6
371.989	6.73
372.356	6.81
372.724	6.81
373.091	6.73
373.458	6.66
373.826	7
374.193	6.52
374.56	6.49
374.927	6.98
375.294	6.85
375.661	6.94
376.028	6.55
376.395	7.13
376.762	6.81
377.129	6.98
377.496	7.06
377.863	6.6
378.229	6.69
378.596	6.9
378.963	6.93
379.329	6.61
379.696	6.79
380.062	7.06
380.429	6.84
380.795	7.04
381.161	6.96
381.528	7.08
381.894	6.71
382.26	7
382.626	6.84
382.993	7.25
383.359	6.8
383.725	6.87
384.091	6.74
384.457	6.87
384.823	7.02
385.188	6.96
385.554	6.97
385.92	6.7
386.286	7.05
386.651	6.84
387.017	6.97
387.383	7.17
387.748	6.75
388.114	6.97
388.479	7.39
388.845	7.12
389.21	7.14
389.575	7.34
389.94	7.1
390.306	7.06
390.671	7.14
391.036	6.79
391.401	7.08
391.766	6.89
392.131	6.93
392.496	7.08
392.861	7.17
393.226	7.02
393.591	7.1
393.956	7.36
394.32	6.99
394.685	7.09
395.05	7.23
395.414	7.05
395.779	7.11
396.143	7.21
396.508	7.13
396.872	7.15
397.236	7.21
397.601	7.09
397.965	7.11
398.329	7.19
398.694	7.31
399.058	7.24
399.422	7.14
399.786	7.01
400.15	7.3
400.514	7.19
400.878	7.21
401.242	7.39
401.605	6.99
401.969	7.37
402.333	7.26
402.697	7.28
403.06	7.56
403.424	6.98
403.787	7.12
404.151	7.26
404.514	7.48
404.878	7.3
405.241	7.16
405.604	7.33
405.968	7.33
406.331	7.22
406.694	7.11
407.057	7.22
407.42	7.32
407.783	7.17
408.146	7.38
408.509	7.28
408.872	7.19
409.235	7.16
409.598	7.45
409.961	7.53
410.323	7.25
410.686	7.16
411.049	7.4
411.411	7.07
411.774	7.46
412.136	7.55
412.499	7.42
412.861	7.43
413.223	7.41
413.586	7.35
413.948	7.45
414.31	7.24
414.672	7.48
415.035	7.54
415.397	7.34
415.759	7.36
416.121	7.21
416.483	7.44
416.845	7.35
417.206	7.37
417.568	7.45
417.93	7.43
418.292	7.33
418.653	7.65
419.015	7.54
419.377	7.32
419.738	7.42
420.1	7.45
420.461	7.44
420.822	7.32
421.184	7.34
421.545	7.35
421.906	7.46
422.267	7.22
422.629	7.45
422.99	7.27
423.351	7.25
423.712	7.31
424.073	7.5
424.434	7.36
424.795	7.5
425.155	7.38
425.516	7.34
425.877	7.29
426.238	7.26
426.598	7.42
426.959	7.32
427.32	7.45
427.68	7.35
428.041	7.42
428.401	7.52
428.761	7.55
429.122	7.49
429.482	7.57
429.842	7.31
430.202	7.63
430.563	7.55
430.923	7.53
431.283	7.39
431.643	7.68
432.003	7.85
432.363	7.6
432.722	7.61
433.082	7.69
433.442	7.67
433.802	7.71
434.161	7.71
434.521	7.58
434.881	7.51
435.24	7.66
435.6	7.74
435.959	7.58
436.319	7.75
436.678	7.65
437.037	7.6
437.396	7.74
437.756	7.8
438.115	7.39
438.474	7.84
438.833	7.76
439.192	7.77
439.551	7.7
439.91	7.66
440.269	7.66
440.628	7.73
440.987	7.63
441.345	7.7
441.704	7.71
442.063	7.68
442.421	7.69
442.78	7.72
443.138	7.76
443.497	7.65
443.855	7.63
444.214	7.85
444.572	7.79
444.93	7.72
445.288	7.78
445.647	7.75
446.005	7.8
446.363	7.72
446.721	7.77
447.079	7.72
447.437	7.81
447.795	7.76
448.153	7.71
448.51	7.84
448.868	7.6
449.226	7.66
449.584	7.82
449.941	7.78
450.299	7.74
450.656	7.79
451.014	7.87
451.371	8
451.729	7.95
452.086	7.91
452.443	7.98
452.801	8.02
453.158	8.06
453.515	7.84
453.872	7.93
454.229	7.99
454.586	7.84
454.943	7.95
455.3	8.07
455.657	8.02
456.014	8.01
456.371	7.88
456.727	8.18
457.084	8
457.441	7.99
457.797	8.13
458.154	8
458.51	8.12
458.867	7.9
459.223	8.09
459.58	8.31
459.936	8.03
460.292	7.91
460.648	8.12
461.005	8.04
461.361	8.02
461.717	7.92
462.073	8.03
462.429	8.04
462.785	7.94
463.141	8.25
463.496	7.95
463.852	8.33
464.208	8.24
464.564	8.27
464.919	8.15
465.275	8.32
465.631	8.4
465.986	8.2
466.342	8.26
466.697	8.36
467.052	8.29
467.408	8.31
467.763	8.1
468.118	8.3
468.473	8.26
468.829	8.14
469.184	8.23
469.539	8.07
469.894	8.21
470.249	8.26
470.603	8.42
470.958	8.24
471.313	8.21
471.668	8.19
472.023	8.22
472.377	8.25
472.732	8.49
473.086	8.39
473.441	8.33
473.795	8.21
474.15	8.54
474.504	8.32
474.859	8.28
475.213	8.38
475.567	8.29
475.921	8.34
476.275	8.41
476.63	8.29
476.984	8.33
477.338	8.49
477.692	8.47
478.045	8.49
478.399	8.39
478.753	8.47
479.107	8.46
479.461	8.57
479.814	8.54
480.168	8.64
480.521	8.43
480.875	8.53
481.228	8.56
481.582	8.57
481.935	8.39
482.289	8.46
482.642	8.69
482.995	8.44
483.348	8.39
483.701	8.43
484.055	8.38
484.408	8.42
484.761	8.35
485.114	8.23
485.466	8.14
485.819	8.1
486.172	8.17
486.525	8.12
486.878	8.19
487.23	8.23
487.583	8.26
487.936	8.24
488.288	8.32
488.641	8.32
488.993	8.32
489.345	8.29
489.698	8.28
490.05	8.34
490.402	8.24
490.754	8.42
491.107	8.39
491.459	8.47
491.811	8.45
492.163	8.57
492.515	8.65
492.866	8.6
493.218	8.52
493.57	8.42
493.922	8.53
494.274	8.41
494.625	8.47
494.977	8.58
495.328	8.58
495.68	8.67
496.031	8.79
496.383	8.85
496.734	8.83
497.086	9
497.437	8.98
497.788	8.89
498.139	8.78
498.49	8.83
498.842	8.93
499.193	8.84
499.544	8.89
499.894	8.86
500.245	8.91
500.596	8.9
500.947	8.9
501.298	8.84
501.648	9.02
501.999	9.06
502.35	9.09
502.7	8.97
503.051	9.07
503.401	9.05
503.752	9.1
504.102	9.02
504.452	9.11
504.803	9.08
505.153	9.05
505.503	9.04
505.853	9.09
506.203	9.18
506.553	9.21
506.903	9.2
507.253	9.12
507.603	9.07
507.953	8.97
508.303	9.28
508.652	9.16
509.002	9.28
509.352	9.34
509.701	9.14
510.051	9.09
510.4	9.36
510.75	9.27
511.099	9.31
511.449	9.26
511.798	9.28
512.147	9.27
512.496	9.2
512.846	9.21
513.195	9.3
513.544	9.31
513.893	9.36
514.242	9.28
514.591	9.27
514.939	9.33
515.288	9.33
515.637	9.33
515.986	9.45
516.334	9.42
516.683	9.58
517.032	9.47
517.38	9.57
517.729	9.59
518.077	9.6
518.426	9.63
518.774	9.44
519.122	9.48
519.47	9.47
519.819	9.52
520.167	9.53
520.515	9.44
520.863	9.45
521.211	9.51
521.559	9.51
521.907	9.47
522.255	9.62
522.602	9.65
522.95	9.67
523.298	9.71
523.645	9.67
523.993	9.74
524.341	9.71
524.688	9.84
525.036	9.77
525.383	9.89
525.73	9.72
526.078	9.85
526.425	9.98
526.772	9.74
527.119	9.75
527.466	9.71
527.814	9.79
528.161	9.77
528.508	9.71
528.854	9.76
529.201	9.76
529.548	9.7
529.895	9.63
530.242	9.66
530.588	9.58
530.935	9.63
531.282	9.64
531.628	9.63
531.975	9.68
532.321	9.83
532.667	9.8
533.014	9.85
533.36	10.04
533.706	10.02
534.052	10.05
534.399	10.05
534.745	9.97
535.091	9.93
535.437	9.95
535.783	9.98
536.129	10.07
536.474	10.02
536.82	10.04
537.166	10.08
537.512	10.21
537.857	10.27
538.203	10.13
538.549	10.24
538.894	10.23
539.239	10.34
539.585	10.35
539.93	10.4
540.276	10.36
540.621	10.4
540.966	10.54
541.311	10.29
541.656	10.53
542.001	10.57
542.346	10.5
542.691	10.41
543.036	10.32
543.381	10.36
543.726	10.33
544.071	10.38
544.415	10.36
544.76	10.4
545.105	10.47
545.449	10.51
545.794	10.54
546.138	10.61
546.483	10.74
546.827	10.66
547.171	10.87
547.516	10.77
547.86	10.69
548.204	10.88
548.548	10.8
548.892	10.73
549.236	10.87
549.58	10.85
549.924	11.06
550.268	11.14
550.612	10.98
550.956	11.1
551.3	11.07
551.643	11.16
551.987	11.06
552.33	11.09
552.674	11.24
553.017	11.22
553.361	11.38
553.704	11.45
554.048	11.34
554.391	11.23
554.734	11.38
555.077	11.3
555.42	11.37
555.764	11.53
556.107	11.35
556.45	11.46
556.793	11.6
557.135	11.46
557.478	11.42
557.821	11.53
558.164	11.62
558.507	11.51
558.849	11.65
559.192	11.76
559.534	11.5
559.877	11.67
560.219	11.8
560.562	11.81
560.904	11.88
561.246	11.74
561.589	11.91
561.931	11.69
562.273	11.95
562.615	11.82
562.957	11.88
563.299	11.87
563.641	11.98
563.983	12.01
564.325	11.97
564.667	11.97
565.008	12.15
565.35	12.02
565.692	12.18
566.033	12.04
566.375	12.14
566.716	12.2
567.058	12.34
567.399	12.12
567.741	12.24
568.082	12.43
568.423	12.2
568.764	12.26
569.105	12.21
569.447	12.22
569.788	12.36
570.129	12.4
570.47	12.48
570.811	12.52
571.151	12.48
571.492	12.61
571.833	12.6
572.174	12.56
572.514	12.62
572.855	12.52
573.195	12.46
573.536	12.75
573.876	12.77
574.217	12.54
574.557	12.57
574.898	12.76
575.238	12.63
575.578	12.94
575.918	12.84
576.258	12.89
576.598	12.87
576.938	12.99
577.278	12.75
577.618	12.8
577.958	12.85
578.298	13.13
578.638	12.9
578.977	13.06
579.317	12.95
579.657	13.31
579.996	13.09
580.336	13.08
580.675	12.85
581.014	13.44
581.354	13.37
581.693	13.38
582.032	13.38
582.372	13.35
582.711	13.43
583.05	13.41
583.389	13.26
583.728	13.47
584.067	13.35
584.406	13.38
584.745	13.62
585.083	13.44
585.422	13.46
585.761	13.62
586.1	13.79
586.438	13.5
586.777	13.83
587.115	13.78
587.454	13.85
587.792	13.96
588.13	13.88
588.469	14.03
588.807	14.18
589.145	13.86
589.483	13.66
589.821	14.11
590.159	14.03
590.497	14.44
590.835	14.09
591.173	14.11
591.511	14
591.849	14.38
592.187	14.22
592.524	14.16
592.862	14.16
593.2	14.24
593.537	14.23
593.875	14.25
594.212	14.37
594.55	14.24
594.887	14.68
595.224	14.68
595.561	14.18
595.899	14.4
596.236	14.72
596.573	14.63
596.91	14.5
597.247	14.62
597.584	14.55
597.921	14.66
598.258	14.66
598.594	14.3
598.931	14.66
599.268	14.77
599.604	14.82
599.941	14.83
600.277	14.65
600.614	14.84
600.95	15.01
601.287	14.81
601.623	14.96
601.959	15.06
602.296	15.07
602.632	15.35
602.968	15.21
603.304	15.02
603.64	15.22
603.976	15.04
604.312	15.39
604.648	15.47
604.984	15.18
605.319	15.26
605.655	15.17
605.991	15.39
606.326	15.3
606.662	15.24
606.998	15.29
607.333	15.27
607.668	15.58
608.004	15.51
608.339	15.35
608.674	15.67
609.01	15.7
609.345	15.74
609.68	15.62
610.015	15.71
610.35	15.87
610.685	15.9
611.02	15.77
611.355	15.85
611.689	15.8
612.024	15.86
612.359	15.52
612.694	15.83
613.028	16.02
613.363	16.1
613.697	15.74
614.032	16.07
614.366	15.74
614.7	16.09
615.035	16.21
615.369	16.12
615.703	16.81
616.037	16.01
616.371	16.09
616.705	16.32
617.039	16.58
617.373	16.65
617.707	16.85
618.041	16.94
618.375	16.79
618.709	16.38
619.042	16.51
619.376	16.57
619.71	16.61
620.043	16.82
620.377	16.83
620.71	17.16
621.043	16.39
621.377	16.8
621.71	16.83
622.043	17.09
622.376	17.05
622.709	17.27
623.043	16.89
623.376	17.38
623.709	16.8
624.041	16.97
624.374	16.91
624.707	17.03
625.04	17.12
625.373	17.43
625.705	16.84
626.038	17.34
626.37	17.24
626.703	17.23
627.035	17.26
627.368	17.15
627.7	17.07
628.032	17.18
628.365	17.58
628.697	17.57
629.029	17.4
629.361	17.3
629.693	17.42
630.025	17.51
630.357	17.39
630.689	17.38
631.021	17.1
631.353	17.57
631.684	17.67
632.016	17.46
632.348	17.66
632.679	17.68
633.011	17.72
633.342	18.03
633.674	18.05
634.005	18.16
634.336	17.93
634.668	18.18
634.999	18.24
635.33	17.72
635.661	18.48
635.992	17.82
636.323	17.9
636.654	17.87
636.985	18.35
637.316	18.1
637.647	18.09
637.977	18.21
638.308	18.39
638.639	18.23
638.969	17.92
639.3	18.8
639.63	17.85
639.961	18.45
640.291	18.52
640.622	18.62
640.952	18.52
641.282	18.66
641.612	18.71
641.943	18.19
642.273	18.36
642.603	18.8
642.933	18.7
643.263	18.42
643.592	18.71
643.922	18.81
644.252	19.04
644.582	18.74
644.911	19.1
645.241	18.28
645.571	18.85
645.9	18.96
646.23	18.76
646.559	19.83
646.888	19.06
647.218	19.18
647.547	19.33
647.876	19.02
648.205	18.72
648.534	19.04
648.863	19.47
649.192	19.26
649.521	19.52
649.85	19.35
650.179	19.66
650.508	19.33
650.837	19.5
651.165	19.91
651.494	19.58
651.822	19.63
652.151	19.47
652.479	19.15
652.808	19.33
653.136	19.71
653.465	19.55
653.793	19.94
654.121	19.51
654.449	19.53
654.777	20.24
655.105	19.74
655.433	20.05
655.761	20.14
656.089	19.69
656.417	19.41
656.745	19.95
657.073	20.3
657.4	20.09
657.728	20.06
658.056	19.65
658.383	20.54
658.711	19.84
659.038	19.66
659.365	20.45
659.693	20.16
660.02	20.75
660.347	20.26
660.674	20.18
661.001	20.56
661.329	20.41
661.656	20.21
661.982	19.75
662.309	20.33
662.636	19.94
662.963	20.22
663.29	20.27
663.616	20.75
663.943	20.87
664.27	20.8
664.596	20.79
664.923	20.58
665.249	20.76
665.576	21.27
665.902	20.54
666.228	20.33
666.554	21.85
666.881	20.67
667.207	21.01
667.533	20.76
667.859	20.69
668.185	20.57
668.511	20.9
668.837	20.73
669.162	21.36
669.488	21.56
669.814	21.45
670.139	21.31
670.465	21.1
670.791	21.19
671.116	20.67
671.442	21.1
671.767	21.36
672.092	21.28
672.418	21.33
672.743	22.14
673.068	21.29
673.393	21.41
673.718	21.45
674.043	21.66
674.368	21.04
674.693	21.46
675.018	21.43
675.343	21.51
675.667	21.65
675.992	21.1
676.317	21.84
676.641	21.78
676.966	21.73
677.29	22.05
677.615	22.04
677.939	21.66
678.264	21.92
678.588	21.55
678.912	21.84
679.236	21.85
679.56	22.11
679.885	21.79
680.209	22.54
680.532	22.45
680.856	21.56
681.18	22.1
681.504	21.87
681.828	21.97
682.152	23.03
682.475	22.71
682.799	22.42
683.122	22.44
683.446	22.26
683.769	22.29
684.093	22.2
684.416	21.88
684.739	22.49
685.062	23.3
685.386	22.53
685.709	22.64
686.032	23.27
686.355	23.43
686.678	22.96
687.001	22.45
687.324	22.81
687.646	22.74
687.969	22.8
688.292	22.79
688.614	23.49
688.937	22.53
689.26	22.54
689.582	23.08
689.904	23.42
690.227	22.41
690.549	23.31
690.871	22.72
691.194	23.43
691.516	22.68
691.838	22.86
692.16	22.79
692.482	22.76
692.804	23.15
693.126	23.47
693.448	23.08
693.769	23.18
694.091	23.51
694.413	22.92
694.735	23.88
695.056	23.77
695.378	23.88
695.699	23.93
696.021	23.76
696.342	24.07
696.663	23.06
696.984	22.54
697.306	23.76
697.627	23.47
697.948	23.26
698.269	23.42
698.59	24.49
698.911	23.39
699.232	23.31
699.553	24.39
699.873	23.79
700.194	23.83
700.515	24.02
700.835	24
701.156	23.96
701.477	23.78
701.797	24.01
702.117	23.69
702.438	24.06
702.758	23.79
703.078	24.21
703.398	23.96
703.719	24.06
704.039	24.18
704.359	24.92
704.679	24.07
704.999	24.06
705.319	24.01
705.638	24.32
705.958	23.27
706.278	23.35
706.597	24.77
706.917	24.35
707.237	24.63
707.556	25.16
707.876	23.18
708.195	24.1
708.514	24.7
708.834	24.09
709.153	23.76
709.472	24.75
709.791	25.1
710.11	25.13
710.429	25.23
710.748	24.81
711.067	25.34
711.386	24.66
711.705	23.66
712.023	25.16
712.342	24.97
712.661	24.25
712.979	25.46
713.298	25.41
713.616	24.82
713.935	24.5
714.253	25.57
714.572	24.46
714.89	25.74
715.208	26.02
715.526	25.22
715.844	25.19
716.162	25.02
716.48	24.63
716.798	25.11
717.116	25.32
717.434	25.26
717.752	25.1
718.069	25.18
718.387	25.12
718.705	25.31
719.022	26.27
719.34	25.59
719.657	26.7
719.975	25.39
720.292	25.7
720.609	25
720.927	26.09
721.244	25.75
721.561	25.79
721.878	23.97
722.195	25.32
722.512	25.26
722.829	26.88
723.146	25.19
723.463	25.79
723.779	26.16
724.096	26.46
724.413	24.41
724.729	25.57
725.046	26
725.362	25.74
725.679	25.22
725.995	26.04
726.311	26.53
726.628	26.75
726.944	26.32
727.26	24.46
727.576	25.91
727.892	26.48
728.208	27.01
728.524	25.66
728.84	25.01
729.156	27.56
729.472	26.26
729.787	25.18
730.103	26.23
730.419	26.72
730.734	26.41
731.05	26.02
731.365	26.27
731.681	24.94
731.996	26.97
732.311	26.2
732.626	27.4
732.942	24.71
733.257	25.62
733.572	26.7
733.887	26.72
734.202	26.46
734.517	26.03
734.832	27.95
735.146	26.23
735.461	27.34
735.776	26.04
736.091	26.47
736.405	26.3
736.72	25.51
737.034	26.93
737.349	27.01
737.663	26.32
737.977	27.22
738.292	27.5
738.606	26.82
738.92	27.09
739.234	26.48
739.548	27.62
739.862	28.46
740.176	28.15
740.49	26.72
740.804	28.92
741.117	27.19
741.431	29.18
741.745	28.29
742.058	29.43
742.372	26.78
742.685	26.64
742.999	27.4
743.312	26.69
743.626	26.34
743.939	28.15
744.252	27.98
744.565	26
744.878	26.69
745.191	29.02
745.505	28.04
745.817	27.2
746.13	27.85
746.443	27.73
746.756	26.78
747.069	27.44
747.381	28.34
747.694	29.79
748.007	26.66
748.319	27.08
748.632	27.48
748.944	27.52
749.256	26.45
749.569	28.93
749.881	27.03
750.193	28.54
750.505	26.39
750.817	27.46
751.129	28.36
751.441	28.24
751.753	27.81
752.065	28.92
752.377	26.17
752.689	27.37
753	27.52
753.312	29.46
753.624	28.18
753.935	28.26
754.247	27.31
754.558	28.8
754.869	28.62
755.181	29.06
755.492	28.13
755.803	29.04
756.114	29.63
756.425	27.57
756.736	28.88
757.047	30.06
757.358	29.51
757.669	28.29
757.98	26.75
758.291	28.13
758.601	26.92
758.912	27.77
759.223	28.87
759.533	29.86
759.844	27.21
760.154	29.18
760.464	29.61
760.775	30.62
761.085	27.27
761.395	27.63
761.705	30.37
762.016	30.09
762.326	29.7
762.636	30.63
762.945	28.1
763.255	28.71
763.565	29.31
763.875	27.98
764.185	28.61
764.494	30.62
764.804	28.59
765.113	30.72
765.423	29.53
765.732	28.4
766.042	29.4
766.351	30.26
766.66	30.85
766.97	29.69
767.279	28.56
767.588	30.74
767.897	29.97
768.206	30.63
768.515	29.01
768.824	29.33
769.133	30.69
769.441	27.54
769.75	30.33
770.059	30.87
770.367	28.02
770.676	31.11
770.984	30.5
771.293	30.06
771.601	29.07
771.91	31.27
772.218	29.56
772.526	27.18
772.834	32.52
773.142	28.55
773.45	30.24
773.758	28.96
774.066	29.01
774.374	35.48
774.682	30.22
774.99	31.59
775.298	30.45
775.605	31.32
775.913	29.17
776.22	29.61
776.528	31.96
776.835	30.79
777.143	29.15
777.45	33.67
777.757	29.34
778.065	30.81
778.372	30.72
778.679	30.63
778.986	27.99
779.293	31.18
779.6	29.75
779.907	29.97
780.214	27.94
780.52	29.85
780.827	33.82
781.134	30.8
781.44	28.65
781.747	29.36
782.053	28.81
782.36	31.08
782.666	27.1
782.973	29.94
783.279	30.52
783.585	30.97
783.891	33.32
784.197	33.34
784.503	29.86
784.809	32.43
785.115	32.63
785.421	29.54
785.727	30.02
786.033	28.38
786.339	31.55
786.644	29
786.95	29.47
787.255	27.81
787.561	32.24
787.866	27.27
788.172	33.11
788.477	31.95
788.782	27.61
789.088	33.25
789.393	31.95
789.698	28.46
790.003	30.46
790.308	31.57
790.613	31.82
790.918	29.72
791.223	29.65
791.527	32.24
791.832	31.86
792.137	29.33
792.441	32.31
792.746	31.92
793.05	31.56
793.355	29.47
793.659	32.17
793.963	31.24
794.268	31.33
794.572	33.6
794.876	32.88
795.18	34.74
795.484	30.79
795.788	30.62
796.092	29.78
796.396	29.54
796.7	33.62
797.004	36.1
797.307	32.77
797.611	27.58
797.915	31.06
798.218	29.6
798.522	32.87
798.825	29.34
799.128	31.84
799.432	30.49
799.735	33.25
800.038	32.04
800.341	31.28
800.644	32.33
800.947	33.13
801.25	32.58
801.553	33.65
801.856	30.31
802.159	33.89
802.462	32.4
802.764	30.82
803.067	29.61
803.37	28.43
803.672	35.11
803.975	32
804.277	32.38
804.579	29.54
804.882	31.14
805.184	32.45
805.486	30.07
805.788	32.63
806.09	32.9
806.392	27.3
806.694	25.39
806.996	33.57
807.298	31.22
807.6	35.14
807.902	34.91
808.203	32.26
808.505	31.14
808.807	35.3
809.108	34.99
809.409	30.58
809.711	28.49
810.012	32.96
810.313	30.21
810.615	33.77
810.916	32.54
811.217	31.04
811.518	28.58
811.819	32.86
812.12	33.03
812.421	30.46
812.722	33.08
813.023	32.13
813.323	35.5
813.624	35.63
813.925	34.51
814.225	34.01
814.526	37.02
814.826	21.31
815.126	30.08
815.427	33.87
815.727	32.3
816.027	26
816.327	33.24
816.627	33.19
816.927	34.45
817.227	35.61
817.527	31.69
817.827	29.97
818.127	32.77
818.427	33.12
818.727	37.35
819.026	28.62
819.326	30.02
819.625	32.82
819.925	34.35
820.224	35.71
820.524	38.26
820.823	35.4
821.122	34.35
821.421	35.15
821.72	35.18
822.019	37.65
822.318	38.92
822.617	32.38
822.916	32.67
823.215	34.76
823.514	34.09
823.813	29.85
824.111	34.23
824.41	32.35
824.709	33.9
825.007	34.49
825.306	34.33
825.604	34.68
825.902	34.36
826.201	34.42
826.499	34.73
826.797	33.48
827.095	33.71
827.393	33.21
827.691	33.96
827.989	34.55
828.287	34.86
828.585	32.34
828.882	34.78
829.18	33.65
829.478	34.08
829.775	34.34
830.073	34.46
830.37	33.68
830.668	33.09
830.965	35
831.263	34.24
831.56	32.2
831.857	32.84
832.154	35.88
832.451	30.67
832.748	32.67
833.045	38.38
833.342	31.25
833.639	35.03
833.936	29.72
834.232	30.79
834.529	40.31
834.826	33.69
835.122	35.37
835.419	31.98
835.715	26.91
836.012	33.93
836.308	32.91
836.604	35.55
836.901	33.41
837.197	33.52
837.493	34.32
837.789	32.91
838.085	33.93
838.381	32.09
838.677	34.42
838.972	31.33
839.268	34.62
839.564	33.84
839.86	33.38
840.155	38.38
840.451	36.98
840.746	33.16
841.042	37.79
841.337	38.63
841.632	35.26
841.928	29.6
842.223	28.98
842.518	40.14
842.813	27.49
843.108	39.24
843.403	32.05
843.698	31.06
843.993	39.94
844.287	35.16
844.582	34.52
844.877	37.81
845.171	37
845.466	35.76
845.761	40.12
846.055	31.68
846.349	27.85
846.644	40.91
846.938	28.1
847.232	30.12
847.526	19
847.82	37.64
848.114	44.54
848.408	36.82
848.702	31.72
848.996	30.06
849.29	31.86
849.584	31.34
849.877	34.06
850.171	39.58
850.465	45.78
850.758	27.45
851.052	39.74
851.345	28.24
851.638	28.61
851.932	36.55
852.225	32.39
852.518	39.58
852.811	29.84
853.104	44.53
853.397	8.48
853.69	46.45
853.983	42.08
854.276	43.18
854.569	37.71
854.861	35.12
855.154	33.87
855.447	13.14
855.739	42.15
856.032	35.55
856.324	33.9
856.616	29.02
856.909	37.15
857.201	34.47
857.493	54.18
857.785	33.37
858.077	35.26
858.369	30.93
858.661	36.56
858.953	4.97
859.245	19.17
859.537	49.39
859.829	58.85
860.12	27.95
860.412	23.86
860.703	13.94
860.995	20.68
861.286	44.44
861.578	50.92
861.869	32.06
862.16	51.5
862.452	25.77
862.743	28.82
863.034	36.57
863.325	22.43
863.616	29.51
863.907	35.45
864.198	42.4
864.488	14.01
864.779	67.45
865.07	61.28
865.36	16.71
865.651	42.69
865.941	9.15
866.232	-1.68
866.522	58.02
866.813	48.39
867.103	16.86
867.393	50.26
867.683	23.2
867.973	22.19
868.263	14.76
868.553	22.23
868.843	34.78
869.133	52.38
869.423	29.25
869.713	37.15
870.002	47.85
870.292	34.45
870.582	45.35
870.871	-12.81
871.161	34.43
871.45	42.11
871.739	34.46
872.029	20.84
872.318	35.56
872.607	24.28
872.896	22.38
873.185	40.97
873.474	37.63
873.763	24.5
874.052	17.9
874.341	49.75
874.63	27.54
874.918	22.82
875.207	23.3
875.496	24.83
875.784	56.83
876.073	29.75
876.361	30.32
876.649	18.39
876.938	44.53
877.226	58.32
877.514	45.75
877.802	68.13
878.09	12.45
878.378	31.03
878.666	37.69
878.954	39.87
879.242	20.42
879.53	19.9
879.817	46.7
880.105	15.14
880.392	22.81
880.68	-12.9
880.967	56.49
881.255	39.64
881.542	70.89
881.83	23.08
882.117	34.44
882.404	36.14
882.691	37.63
882.978	45.01
883.265	46.87
883.552	12.28
883.839	26.2
884.126	43.37
884.413	43.61
884.699	36
884.986	32.74
885.273	38.81
885.559	38.81
885.846	38.81
