Data from 23-1_crown_Reflection__1__340.txt Node

Date: Fri Sep 22 23:25:01 CDT 2023
User: ToomeyLab
Spectrometer: FLMS14357
Trigger mode: 0
Integration Time (sec): 1.000000E-2
Scans to average: 100
Electric dark correction enabled: true
Nonlinearity correction enabled: false
Boxcar width: 0
XAxis mode: Wavelengths
Number of Pixels in Spectrum: 2048
>>>>>Begin Spectral Data<<<<<
189.047	-89.63
189.435	-89.63
189.823	-89.63
190.211	-53.86
190.599	17022.58
190.987	46.28
191.375	2113.33
191.763	1322.72
192.151	-98.52
192.538	-11.65
192.926	-43.41
193.314	145.68
193.702	46.73
194.089	96.65
194.477	263.3
194.864	23.75
195.252	82.83
195.639	-5.31
196.027	99.89
196.414	-122.25
196.801	-624.79
197.189	-224.52
197.576	97.19
197.963	129.04
198.351	-37.68
198.738	-7.73
199.125	-45.25
199.512	-0.68
199.899	32.85
200.286	9.84
200.673	46.62
201.06	5.93
201.447	51.36
201.833	8.57
202.22	-0.74
202.607	-10.53
202.994	27
203.38	-4.22
203.767	22.17
204.154	0.5
204.54	6.47
204.927	0.02
205.313	42.65
205.699	61.09
206.086	24.85
206.472	35.7
206.858	11.59
207.245	-18.92
207.631	40.62
208.017	3.95
208.403	19.07
208.789	30.56
209.175	65.64
209.561	15.52
209.947	47.4
210.333	14.37
210.719	-6.25
211.105	16.58
211.491	-9.72
211.876	19.14
212.262	7.74
212.648	9.37
213.034	32.83
213.419	-0.69
213.805	17.19
214.19	29.72
214.576	13.38
214.961	-13.22
215.346	17.95
215.732	33.11
216.117	-5.64
216.502	43.27
216.888	0.7
217.273	-1.57
217.658	26.26
218.043	15.11
218.428	3.14
218.813	-21.61
219.198	-14.63
219.583	7.83
219.968	1.08
220.353	16.23
220.738	-19.52
221.122	12.38
221.507	-18.2
221.892	-5.05
222.276	-15.95
222.661	-19.53
223.046	15.15
223.43	14.71
223.815	9.4
224.199	-3.95
224.583	12.19
224.968	2.63
225.352	10.79
225.736	8.58
226.121	10.31
226.505	1.21
226.889	9.81
227.273	8.34
227.657	2.02
228.041	5.62
228.425	7.76
228.809	1.58
229.193	5.9
229.577	8.76
229.961	4.58
230.344	5.1
230.728	2.6
231.112	4.63
231.495	3.59
231.879	3.69
232.263	2.52
232.646	3.13
233.03	2.62
233.413	3.96
233.797	3.82
234.18	3.93
234.563	4.89
234.946	4.96
235.33	-0.68
235.713	4.19
236.096	3.96
236.479	3.03
236.862	5.36
237.245	2.78
237.628	5.18
238.011	4.85
238.394	3.94
238.777	5.53
239.16	4.88
239.543	6.75
239.925	5.33
240.308	3.09
240.691	5.47
241.073	6.19
241.456	4.5
241.838	3.25
242.221	3.48
242.603	4.41
242.986	3.9
243.368	3.92
243.75	4.2
244.133	3.88
244.515	4.18
244.897	4.01
245.279	3.37
245.661	3.8
246.043	3.43
246.425	3.58
246.807	4.64
247.189	3.53
247.571	4.47
247.953	4.35
248.335	4.15
248.717	3.68
249.098	3.79
249.48	3.65
249.862	3.9
250.243	3.64
250.625	4.4
251.006	3.88
251.388	3.84
251.769	3.97
252.151	3.17
252.532	4.44
252.913	2.68
253.295	3.66
253.676	4.65
254.057	4.16
254.438	4.53
254.819	3.47
255.2	4.12
255.581	3.9
255.962	5.61
256.343	3.79
256.724	1.75
257.105	3.85
257.486	4.2
257.867	2.95
258.247	3.58
258.628	5
259.009	3.61
259.389	3.35
259.77	3.72
260.15	3.97
260.531	3.96
260.911	4.03
261.292	4.1
261.672	3.34
262.052	3.69
262.432	3.78
262.813	3.86
263.193	3.69
263.573	4.42
263.953	4.01
264.333	3.74
264.713	3.71
265.093	3.21
265.473	2.81
265.853	3.75
266.233	4.59
266.612	3.3
266.992	4.33
267.372	4.01
267.752	4.42
268.131	3.75
268.511	3.65
268.89	4.1
269.27	3.12
269.649	3.98
270.029	2.97
270.408	3.81
270.787	3.34
271.167	4.02
271.546	3.63
271.925	3.17
272.304	3.7
272.683	4
273.062	4
273.441	3.76
273.82	4.35
274.199	3.69
274.578	4.1
274.957	3.19
275.336	3.66
275.715	3.67
276.093	3.48
276.472	3.77
276.851	3.81
277.229	3.04
277.608	3.64
277.986	3.05
278.365	4.11
278.743	3.78
279.122	3.87
279.5	3.77
279.878	3.13
280.257	4
280.635	3.39
281.013	3.61
281.391	3.9
281.769	2.8
282.147	3.12
282.525	3.57
282.903	3.29
283.281	3.38
283.659	4.16
284.037	3.54
284.415	3.43
284.792	3.35
285.17	3.36
285.548	4.19
285.925	3.35
286.303	3.66
286.68	3.11
287.058	3.09
287.435	3.59
287.813	3.5
288.19	3.45
288.567	3.63
288.945	3.46
289.322	3.6
289.699	3.26
290.076	3.64
290.453	3.29
290.83	3.5
291.207	3.2
291.584	3.1
291.961	3.28
292.338	3.36
292.715	3.64
293.092	3.57
293.469	3.58
293.845	3.58
294.222	3.91
294.599	3.93
294.975	4.36
295.352	3.44
295.728	3.48
296.105	3.64
296.481	3.78
296.858	3.98
297.234	3.48
297.61	3.2
297.986	3.11
298.363	3.8
298.739	3.96
299.115	3.87
299.491	3.76
299.867	3.56
300.243	3.11
300.619	3.63
300.995	3.13
301.371	3.92
301.746	3.69
302.122	3.69
302.498	3.46
302.874	3.37
303.249	3.59
303.625	3.51
304	3.67
304.376	3.65
304.751	3.92
305.127	3.65
305.502	3.67
305.878	3.74
306.253	3.71
306.628	3.05
307.003	3.53
307.378	3.85
307.754	3.39
308.129	3.55
308.504	3.47
308.879	3.69
309.254	3.78
309.629	3.45
310.003	3.79
310.378	4.09
310.753	3.65
311.128	3.03
311.502	4
311.877	3.6
312.252	3.65
312.626	3.38
313.001	3.57
313.375	3.6
313.75	4.02
314.124	4.1
314.498	3.4
314.873	3.84
315.247	3.76
315.621	4.07
315.995	3.56
316.369	3.55
316.743	3.49
317.117	3.69
317.491	3.96
317.865	3.17
318.239	3.31
318.613	3.71
318.987	3.55
319.361	3.31
319.734	3.45
320.108	3.9
320.482	3.6
320.855	3.47
321.229	4.13
321.602	3.41
321.976	3.25
322.349	3.52
322.723	3.73
323.096	3.6
323.469	3.1
323.843	2.92
324.216	3.92
324.589	3.85
324.962	3.41
325.335	3.17
325.708	3.28
326.081	3.31
326.454	3.37
326.827	3.59
327.2	3.67
327.573	3.77
327.945	3.16
328.318	3.87
328.691	3.88
329.063	3.3
329.436	3.72
329.809	3.64
330.181	3.48
330.553	3.46
330.926	3.51
331.298	3.56
331.671	3.57
332.043	2.84
332.415	3.09
332.787	3.85
333.159	3.16
333.532	3.07
333.904	3.61
334.276	2.92
334.648	3.1
335.02	3.75
335.391	3.85
335.763	3.8
336.135	3.55
336.507	3.55
336.879	3.72
337.25	3.59
337.622	3.31
337.993	3.23
338.365	3.62
338.736	4.3
339.108	3.39
339.479	3.15
339.851	3.24
340.222	3.06
340.593	3.03
340.964	2.77
341.336	3.39
341.707	3.32
342.078	3.4
342.449	3.69
342.82	3.42
343.191	3.23
343.562	3.49
343.933	3.54
344.303	3.46
344.674	3.68
345.045	3.25
345.416	3.52
345.786	3.11
346.157	3.51
346.527	3.09
346.898	3.53
347.268	3.41
347.639	3.6
348.009	3.32
348.38	3.73
348.75	3.45
349.12	3.43
349.49	3.96
349.861	3.59
350.231	3.78
350.601	3.44
350.971	3.55
351.341	3.21
351.711	3.61
352.081	3.4
352.45	3.35
352.82	3.96
353.19	3.72
353.56	3.67
353.929	3.45
354.299	3.52
354.669	3.62
355.038	3.39
355.408	3.58
355.777	3.87
356.147	3.49
356.516	3.61
356.885	3.63
357.254	3.85
357.624	3.54
357.993	3.74
358.362	3.78
358.731	3.55
359.1	3.42
359.469	3.71
359.838	3.34
360.207	3.17
360.576	3.55
360.945	3.39
361.314	3.34
361.682	3.71
362.051	3.69
362.42	3.59
362.788	3.38
363.157	3.61
363.525	3.39
363.894	3.29
364.262	3.42
364.631	3.38
364.999	3.41
365.367	3.67
365.735	3.63
366.104	3.54
366.472	3.97
366.84	3.5
367.208	3.78
367.576	3.67
367.944	3.78
368.312	3.8
368.68	3.33
369.048	3.87
369.416	3.48
369.783	3.27
370.151	3.52
370.519	3.61
370.886	3.9
371.254	4.16
371.621	3.24
371.989	3.68
372.356	3.5
372.724	3.68
373.091	4.08
373.458	3.46
373.826	3.57
374.193	3.59
374.56	3.78
374.927	3.66
375.294	3.67
375.661	3.38
376.028	3.99
376.395	3.82
376.762	3.37
377.129	3.67
377.496	3.92
377.863	3.72
378.229	4.03
378.596	3.57
378.963	3.87
379.329	3.57
379.696	3.87
380.062	3.52
380.429	3.64
380.795	3.7
381.161	3.57
381.528	3.7
381.894	3.23
382.26	3.7
382.626	3.83
382.993	3.82
383.359	3.6
383.725	3.66
384.091	3.77
384.457	3.51
384.823	3.79
385.188	3.71
385.554	3.88
385.92	3.97
386.286	3.83
386.651	3.81
387.017	3.89
387.383	3.4
387.748	3.6
388.114	3.87
388.479	4.05
388.845	3.62
389.21	3.51
389.575	3.91
389.94	3.59
390.306	3.77
390.671	4.03
391.036	3.71
391.401	3.75
391.766	3.48
392.131	3.57
392.496	3.83
392.861	3.68
393.226	3.89
393.591	3.8
393.956	3.66
394.32	3.6
394.685	3.75
395.05	3.92
395.414	3.76
395.779	3.87
396.143	3.86
396.508	3.63
396.872	3.8
397.236	3.87
397.601	3.75
397.965	3.99
398.329	3.91
398.694	3.81
399.058	3.65
399.422	3.75
399.786	3.84
400.15	3.83
400.514	3.74
400.878	3.71
401.242	3.87
401.605	3.78
401.969	3.45
402.333	3.86
402.697	3.65
403.06	3.78
403.424	3.73
403.787	3.9
404.151	3.85
404.514	4.13
404.878	3.91
405.241	4.03
405.604	3.94
405.968	3.96
406.331	3.89
406.694	3.84
407.057	3.55
407.42	3.97
407.783	3.74
408.146	3.98
408.509	3.89
408.872	4.03
409.235	3.99
409.598	3.66
409.961	4.07
410.323	3.9
410.686	3.84
411.049	3.99
411.411	4
411.774	3.78
412.136	4.01
412.499	3.9
412.861	3.97
413.223	3.98
413.586	3.86
413.948	3.95
414.31	3.95
414.672	4.06
415.035	3.73
415.397	4.09
415.759	4.17
416.121	3.88
416.483	3.78
416.845	3.76
417.206	3.97
417.568	3.92
417.93	3.89
418.292	3.81
418.653	3.7
419.015	3.79
419.377	3.84
419.738	3.81
420.1	3.74
420.461	3.87
420.822	3.85
421.184	3.93
421.545	3.8
421.906	3.76
422.267	3.78
422.629	3.89
422.99	3.72
423.351	3.76
423.712	3.76
424.073	3.82
424.434	3.88
424.795	3.85
425.155	4.1
425.516	3.94
425.877	3.96
426.238	3.69
426.598	3.86
426.959	3.85
427.32	3.84
427.68	3.81
428.041	3.88
428.401	4.06
428.761	4.09
429.122	3.98
429.482	3.97
429.842	3.73
430.202	3.92
430.563	3.88
430.923	4.15
431.283	4.21
431.643	3.96
432.003	3.98
432.363	4.24
432.722	4.07
433.082	4.19
433.442	4.11
433.802	4.1
434.161	3.97
434.521	3.97
434.881	3.9
435.24	3.97
435.6	3.77
435.959	3.88
436.319	3.98
436.678	3.99
437.037	4.07
437.396	3.97
437.756	4.1
438.115	3.99
438.474	4.03
438.833	4.15
439.192	3.92
439.551	3.95
439.91	4.21
440.269	4.03
440.628	3.98
440.987	4.02
441.345	3.93
441.704	4.08
442.063	4
442.421	4.01
442.78	3.92
443.138	4.04
443.497	3.96
443.855	4.03
444.214	4
444.572	4.18
444.93	3.94
445.288	4.09
445.647	4.08
446.005	3.94
446.363	3.94
446.721	4.08
447.079	3.97
447.437	3.98
447.795	4.01
448.153	3.93
448.51	4.03
448.868	3.96
449.226	3.97
449.584	3.96
449.941	3.97
450.299	4.11
450.656	4.13
451.014	4.29
451.371	4
451.729	4.15
452.086	4.05
452.443	4.08
452.801	4.14
453.158	4.16
453.515	4.2
453.872	4.01
454.229	4.1
454.586	4.2
454.943	4.07
455.3	4.19
455.657	4.14
456.014	4.06
456.371	4.34
456.727	4.23
457.084	4.16
457.441	4.06
457.797	4.11
458.154	4.19
458.51	4.08
458.867	4.18
459.223	4.14
459.58	4.01
459.936	4.21
460.292	4.21
460.648	4.24
461.005	4.14
461.361	4.25
461.717	3.95
462.073	4.09
462.429	3.89
462.785	4.02
463.141	4.13
463.496	4.19
463.852	4.2
464.208	4.1
464.564	4.26
464.919	4.29
465.275	4.34
465.631	4.28
465.986	4.27
466.342	4.36
466.697	4.31
467.052	4.15
467.408	4.26
467.763	4.2
468.118	4.31
468.473	4.14
468.829	4.09
469.184	4.15
469.539	4.24
469.894	4.17
470.249	4.14
470.603	4.24
470.958	4.2
471.313	4.17
471.668	4.17
472.023	4.31
472.377	4.34
472.732	4.29
473.086	4.4
473.441	4.15
473.795	4.43
474.15	4.06
474.504	4.17
474.859	4.37
475.213	4.03
475.567	4.2
475.921	4.23
476.275	4.27
476.63	4.24
476.984	4.09
477.338	4.42
477.692	4.25
478.045	4.37
478.399	4.37
478.753	4.2
479.107	4.27
479.461	4.19
479.814	4.33
480.168	4.28
480.521	4.24
480.875	4.36
481.228	4.21
481.582	4.07
481.935	4.23
482.289	4.22
482.642	4.1
482.995	4.16
483.348	4.15
483.701	4.11
484.055	4.13
484.408	4.18
484.761	4.16
485.114	4.08
485.466	3.96
485.819	3.94
486.172	3.89
486.525	3.88
486.878	3.95
487.23	3.99
487.583	4.04
487.936	4.1
488.288	4.15
488.641	4.1
488.993	3.95
489.345	4.02
489.698	3.97
490.05	4
490.402	3.98
490.754	3.99
491.107	4.01
491.459	4.16
491.811	4.15
492.163	4.19
492.515	4.19
492.866	4.08
493.218	4.09
493.57	4.15
493.922	4.01
494.274	4.07
494.625	4.09
494.977	4.2
495.328	4.2
495.68	4.24
496.031	4.2
496.383	4.23
496.734	4.35
497.086	4.26
497.437	4.32
497.788	4.26
498.139	4.33
498.49	4.34
498.842	4.19
499.193	4.12
499.544	4.24
499.894	4.25
500.245	4.25
500.596	4.27
500.947	4.35
501.298	4.29
501.648	4.4
501.999	4.3
502.35	4.4
502.7	4.44
503.051	4.34
503.401	4.27
503.752	4.34
504.102	4.3
504.452	4.28
504.803	4.3
505.153	4.34
505.503	4.31
505.853	4.4
506.203	4.24
506.553	4.4
506.903	4.39
507.253	4.25
507.603	4.35
507.953	4.41
508.303	4.33
508.652	4.25
509.002	4.52
509.352	4.25
509.701	4.42
510.051	4.3
510.4	4.26
510.75	4.24
511.099	4.12
511.449	4.26
511.798	4.29
512.147	4.24
512.496	4.42
512.846	4.26
513.195	4.3
513.544	4.3
513.893	4.44
514.242	4.28
514.591	4.33
514.939	4.39
515.288	4.33
515.637	4.32
515.986	4.3
516.334	4.39
516.683	4.37
517.032	4.46
517.38	4.47
517.729	4.36
518.077	4.4
518.426	4.45
518.774	4.39
519.122	4.38
519.47	4.35
519.819	4.33
520.167	4.32
520.515	4.27
520.863	4.26
521.211	4.2
521.559	4.3
521.907	4.29
522.255	4.34
522.602	4.4
522.95	4.39
523.298	4.47
523.645	4.45
523.993	4.45
524.341	4.36
524.688	4.39
525.036	4.32
525.383	4.33
525.73	4.39
526.078	4.33
526.425	4.34
526.772	4.49
527.119	4.33
527.466	4.25
527.814	4.22
528.161	4.25
528.508	4.27
528.854	4.35
529.201	4.3
529.548	4.24
529.895	4.3
530.242	4.19
530.588	4.15
530.935	4.06
531.282	4.06
531.628	4.17
531.975	4.19
532.321	4.23
532.667	4.31
533.014	4.3
533.36	4.29
533.706	4.34
534.052	4.32
534.399	4.36
534.745	4.46
535.091	4.21
535.437	4.15
535.783	4.16
536.129	4.19
536.474	4.27
536.82	4.27
537.166	4.43
537.512	4.39
537.857	4.3
538.203	4.5
538.549	4.28
538.894	4.32
539.239	4.29
539.585	4.26
539.93	4.49
540.276	4.34
540.621	4.41
540.966	4.42
541.311	4.54
541.656	4.41
542.001	4.32
542.346	4.35
542.691	4.46
543.036	4.26
543.381	4.21
543.726	4.19
544.071	4.28
544.415	4.29
544.76	4.29
545.105	4.16
545.449	4.25
545.794	4.29
546.138	4.34
546.483	4.27
546.827	4.42
547.171	4.4
547.516	4.52
547.86	4.46
548.204	4.48
548.548	4.41
548.892	4.45
549.236	4.4
549.58	4.46
549.924	4.53
550.268	4.5
550.612	4.44
550.956	4.49
551.3	4.58
551.643	4.56
551.987	4.51
552.33	4.59
552.674	4.52
553.017	4.44
553.361	4.53
553.704	4.71
554.048	4.56
554.391	4.63
554.734	4.59
555.077	4.47
555.42	4.44
555.764	4.53
556.107	4.55
556.45	4.62
556.793	4.49
557.135	4.54
557.478	4.44
557.821	4.65
558.164	4.63
558.507	4.67
558.849	4.64
559.192	4.62
559.534	4.67
559.877	4.72
560.219	4.57
560.562	4.58
560.904	4.79
561.246	4.6
561.589	4.55
561.931	4.42
562.273	4.34
562.615	4.46
562.957	4.48
563.299	4.74
563.641	4.62
563.983	4.55
564.325	4.6
564.667	4.73
565.008	4.63
565.35	4.72
565.692	4.41
566.033	4.63
566.375	4.7
566.716	4.47
567.058	4.65
567.399	4.74
567.741	4.68
568.082	4.55
568.423	4.66
568.764	4.74
569.105	4.45
569.447	4.61
569.788	4.49
570.129	4.68
570.47	4.57
570.811	4.74
571.151	4.48
571.492	4.48
571.833	4.45
572.174	4.64
572.514	4.57
572.855	4.74
573.195	4.5
573.536	4.64
573.876	4.5
574.217	4.52
574.557	4.6
574.898	4.6
575.238	4.56
575.578	4.59
575.918	4.62
576.258	4.57
576.598	4.58
576.938	4.67
577.278	4.69
577.618	4.51
577.958	4.7
578.298	4.78
578.638	4.5
578.977	4.67
579.317	4.73
579.657	4.58
579.996	4.67
580.336	4.84
580.675	4.79
581.014	4.49
581.354	4.51
581.693	4.83
582.032	4.67
582.372	4.81
582.711	4.72
583.05	4.66
583.389	4.53
583.728	4.82
584.067	4.82
584.406	4.62
584.745	4.59
585.083	4.77
585.422	4.69
585.761	4.6
586.1	4.72
586.438	4.75
586.777	4.61
587.115	4.84
587.454	4.73
587.792	4.73
588.13	4.68
588.469	4.55
588.807	4.75
589.145	4.83
589.483	4.56
589.821	4.89
590.159	4.87
590.497	5.01
590.835	4.63
591.173	4.72
591.511	4.74
591.849	4.67
592.187	4.61
592.524	4.96
592.862	4.65
593.2	4.9
593.537	4.61
593.875	4.72
594.212	4.81
594.55	4.8
594.887	4.74
595.224	4.71
595.561	5.07
595.899	5.36
596.236	4.98
596.573	4.7
596.91	4.87
597.247	4.58
597.584	4.99
597.921	4.68
598.258	4.82
598.594	5.01
598.931	4.76
599.268	4.69
599.604	4.79
599.941	4.86
600.277	4.57
600.614	4.75
600.95	4.72
601.287	4.66
601.623	4.97
601.959	5.06
602.296	4.93
602.632	4.88
602.968	4.93
603.304	4.93
603.64	4.58
603.976	4.69
604.312	4.88
604.648	4.85
604.984	4.99
605.319	4.81
605.655	4.49
605.991	4.75
606.326	4.88
606.662	4.51
606.998	4.61
607.333	4.88
607.668	4.59
608.004	4.83
608.339	4.64
608.674	4.8
609.01	4.92
609.345	5.08
609.68	5.16
610.015	4.85
610.35	4.97
610.685	5.1
611.02	4.84
611.355	4.88
611.689	4.72
612.024	4.72
612.359	4.72
612.694	4.84
613.028	4.81
613.363	4.86
613.697	4.76
614.032	4.84
614.366	4.82
614.7	4.77
615.035	5.08
615.369	4.79
615.703	4.65
616.037	4.66
616.371	5.16
616.705	4.97
617.039	5.04
617.373	4.85
617.707	4.82
618.041	4.76
618.375	4.81
618.709	5.13
619.042	5.08
619.376	5.13
619.71	5.09
620.043	4.59
620.377	4.75
620.71	5.04
621.043	4.93
621.377	4.86
621.71	5.17
622.043	4.85
622.376	5.25
622.709	4.89
623.043	4.88
623.376	5.1
623.709	4.97
624.041	4.95
624.374	4.67
624.707	5.08
625.04	5.18
625.373	4.61
625.705	4.74
626.038	5.05
626.37	5.3
626.703	5.15
627.035	5.17
627.368	4.82
627.7	4.83
628.032	5.14
628.365	5.16
628.697	5.05
629.029	4.84
629.361	4.81
629.693	5.23
630.025	4.84
630.357	4.65
630.689	5.01
631.021	4.85
631.353	4.78
631.684	4.91
632.016	5.21
632.348	5.14
632.679	4.7
633.011	4.95
633.342	4.84
633.674	5.09
634.005	4.48
634.336	4.96
634.668	4.93
634.999	5.12
635.33	5.18
635.661	4.99
635.992	4.88
636.323	5.16
636.654	4.95
636.985	4.66
637.316	4.92
637.647	5.2
637.977	4.68
638.308	5.56
638.639	4.89
638.969	5.38
639.3	4.91
639.63	5.55
639.961	4.68
640.291	4.81
640.622	4.85
640.952	4.77
641.282	5.12
641.612	4.75
641.943	5.19
642.273	4.97
642.603	5.04
642.933	5
643.263	4.41
643.592	4.81
643.922	5.03
644.252	4.85
644.582	5.52
644.911	4.84
645.241	5.08
645.571	5.07
645.9	5.16
646.23	5.61
646.559	5.2
646.888	5.22
647.218	4.95
647.547	4.92
647.876	5.08
648.205	4.39
648.534	5.29
648.863	4.93
649.192	4.48
649.521	4.79
649.85	5.24
650.179	4.92
650.508	4.72
650.837	5.44
651.165	5.51
651.494	5.04
651.822	5.34
652.151	4.97
652.479	5.2
652.808	4.75
653.136	5.67
653.465	5.5
653.793	4.98
654.121	5.25
654.449	4.37
654.777	4.97
655.105	5.43
655.433	5.34
655.761	5.43
656.089	4.89
656.417	4.68
656.745	5.36
657.073	5.13
657.4	5.87
657.728	4.99
658.056	4.76
658.383	5.41
658.711	5.13
659.038	5.26
659.365	5.28
659.693	5
660.02	5.41
660.347	5.28
660.674	4.85
661.001	4.67
661.329	4.69
661.656	4.97
661.982	4.8
662.309	5.54
662.636	5.16
662.963	5.2
663.29	5.52
663.616	5.53
663.943	5.36
664.27	5.46
664.596	5.13
664.923	4.95
665.249	5.43
665.576	4.73
665.902	5.29
666.228	5.11
666.554	4.97
666.881	5.28
667.207	5.14
667.533	4.92
667.859	5.31
668.185	5.87
668.511	5.96
668.837	4.85
669.162	5.13
669.488	5.09
669.814	4.64
670.139	5.27
670.465	5.92
670.791	5.39
671.116	5.16
671.442	5.55
671.767	4.65
672.092	5.6
672.418	5.99
672.743	5.01
673.068	5.65
673.393	4.6
673.718	5.61
674.043	5.99
674.368	5.34
674.693	4.94
675.018	5.1
675.343	5.62
675.667	5.34
675.992	5.23
676.317	5.85
676.641	5.27
676.966	5.36
677.29	4.48
677.615	5.26
677.939	5.73
678.264	4.99
678.588	5.9
678.912	5.42
679.236	4.88
679.56	5.16
679.885	4.75
680.209	5.07
680.532	5.07
680.856	5.21
681.18	5.68
681.504	5.34
681.828	5.45
682.152	5.18
682.475	6
682.799	5.47
683.122	5.12
683.446	5.33
683.769	5
684.093	5.79
684.416	5.31
684.739	5.43
685.062	6.19
685.386	5.01
685.709	5.49
686.032	4.9
686.355	5.6
686.678	5.91
687.001	5.09
687.324	5.71
687.646	5.56
687.969	5.65
688.292	4.75
688.614	5.86
688.937	5.35
689.26	5.21
689.582	6.63
689.904	4.7
690.227	5.87
690.549	5.41
690.871	5.27
691.194	5.64
691.516	4.99
691.838	5.74
692.16	5.02
692.482	5.47
692.804	4.67
693.126	5.48
693.448	5.49
693.769	5.53
694.091	5.79
694.413	6.16
694.735	5.01
695.056	5.78
695.378	5.24
695.699	5.5
696.021	5.52
696.342	6.11
696.663	5.36
696.984	5.76
697.306	5.31
697.627	4.65
697.948	5.14
698.269	5.96
698.59	5.32
698.911	5.58
699.232	5.59
699.553	4.8
699.873	5.36
700.194	4.41
700.515	4.89
700.835	5.84
701.156	5.67
701.477	5.07
701.797	5.23
702.117	5.89
702.438	5.21
702.758	4.86
703.078	5.6
703.398	5.59
703.719	5.52
704.039	6.26
704.359	4.66
704.679	4.02
704.999	5.77
705.319	5.25
705.638	5.31
705.958	5.85
706.278	6.83
706.597	5.09
706.917	5.77
707.237	5.42
707.556	5.19
707.876	4.63
708.195	5.9
708.514	6
708.834	3.87
709.153	6.29
709.472	5.6
709.791	5.83
710.11	5.84
710.429	6.09
710.748	6.29
711.067	5.25
711.386	6.47
711.705	5.23
712.023	6.23
712.342	6.46
712.661	5.46
712.979	5.41
713.298	5.85
713.616	5.43
713.935	5.65
714.253	6.46
714.572	6.76
714.89	5.52
715.208	6.17
715.526	5.7
715.844	5.83
716.162	5.3
716.48	5.77
716.798	4.97
717.116	5.73
717.434	5.48
717.752	5.9
718.069	5.81
718.387	5.46
718.705	6.02
719.022	5.73
719.34	6.47
719.657	5.27
719.975	6.06
720.292	5.66
720.609	5.92
720.927	5.56
721.244	5.84
721.561	6.26
721.878	6.29
722.195	4.74
722.512	7.21
722.829	5.88
723.146	6.15
723.463	5.69
723.779	5.68
724.096	5.89
724.413	6.94
724.729	6.42
725.046	5.42
725.362	6.22
725.679	3.16
725.995	6.09
726.311	4.72
726.628	5.31
726.944	4.78
727.26	5.09
727.576	6.79
727.892	4.67
728.208	6.42
728.524	6.6
728.84	5.9
729.156	5.69
729.472	6.14
729.787	5.79
730.103	5.16
730.419	6.42
730.734	5.93
731.05	4.58
731.365	6.46
731.681	5.84
731.996	6.48
732.311	5.54
732.626	6.77
732.942	5.75
733.257	5.26
733.572	5.73
733.887	6.56
734.202	4.8
734.517	6.01
734.832	7.39
735.146	6.26
735.461	6.88
735.776	5.28
736.091	5.47
736.405	6.05
736.72	6.26
737.034	5.07
737.349	5.51
737.663	5.08
737.977	6.67
738.292	5.98
738.606	6.15
738.92	6.11
739.234	5.27
739.548	7.05
739.862	5.02
740.176	5.08
740.49	5.13
740.804	6.12
741.117	5.04
741.431	4.51
741.745	6.3
742.058	5.07
742.372	4.87
742.685	5.9
742.999	6.39
743.312	6.05
743.626	4.28
743.939	5.36
744.252	5.16
744.565	4.52
744.878	5.61
745.191	6.79
745.505	5.13
745.817	6.58
746.13	7.44
746.443	6.78
746.756	6.81
747.069	6.04
747.381	3.01
747.694	6.69
748.007	6.66
748.319	7.16
748.632	4.94
748.944	7.9
749.256	7.08
749.569	5.95
749.881	6.71
750.193	6.5
750.505	9.22
750.817	7.68
751.129	6.53
751.441	7.55
751.753	6.69
752.065	7.66
752.377	7.98
752.689	7.1
753	6.18
753.312	6.16
753.624	5.7
753.935	8.18
754.247	4.42
754.558	6.75
754.869	5.64
755.181	6.69
755.492	5.09
755.803	7.1
756.114	6.61
756.425	7.59
756.736	5.92
757.047	6.07
757.358	4.91
757.669	6.48
757.98	7.25
758.291	5.18
758.601	6.49
758.912	5.39
759.223	8.05
759.533	7.65
759.844	7.25
760.154	5.74
760.464	4.52
760.775	7.22
761.085	7.68
761.395	6.73
761.705	7.33
762.016	3.89
762.326	5.97
762.636	7.42
762.945	7.27
763.255	7.14
763.565	6.03
763.875	6.1
764.185	8.96
764.494	5.83
764.804	5.87
765.113	7.02
765.423	6.71
765.732	6.62
766.042	6.88
766.351	6.02
766.66	6.88
766.97	6.94
767.279	6.1
767.588	6.45
767.897	6.37
768.206	7.22
768.515	5.71
768.824	5.99
769.133	6.86
769.441	4.96
769.75	7.53
770.059	10.28
770.367	6.06
770.676	6.7
770.984	5.54
771.293	8.03
771.601	7.51
771.91	7.14
772.218	5.86
772.526	7.73
772.834	7.09
773.142	8.04
773.45	8.42
773.758	6.72
774.066	7.27
774.374	4.69
774.682	4.53
774.99	7.48
775.298	7.53
775.605	9.85
775.913	10.48
776.22	6.63
776.528	4.86
776.835	5.14
777.143	8.22
777.45	8.43
777.757	3.27
778.065	7.36
778.372	6.34
778.679	5.52
778.986	6.71
779.293	3.55
779.6	6.73
779.907	6.18
780.214	11.22
780.52	3.78
780.827	5.84
781.134	9.42
781.44	7.29
781.747	8.55
782.053	4.48
782.36	8.93
782.666	5.26
782.973	10.75
783.279	6.63
783.585	8.24
783.891	7.58
784.197	5.34
784.503	4.04
784.809	5.59
785.115	5.88
785.421	5.73
785.727	7.7
786.033	4.72
786.339	6.51
786.644	8.79
786.95	8.74
787.255	7.65
787.561	5.44
787.866	6.32
788.172	9.13
788.477	5.59
788.782	6.71
789.088	6.92
789.393	2.24
789.698	7.07
790.003	9.1
790.308	5.9
790.613	7
790.918	7.23
791.223	3.73
791.527	4.13
791.832	6.44
792.137	7.82
792.441	9.52
792.746	7.34
793.05	4.73
793.355	8.38
793.659	7.46
793.963	10.44
794.268	6.22
794.572	10.48
794.876	6.71
795.18	5.55
795.484	6.39
795.788	4.27
796.092	3.25
796.396	10.92
796.7	11.1
797.004	6.2
797.307	1.95
797.611	3.7
797.915	4.73
798.218	11.2
798.522	7.32
798.825	8.7
799.128	6.24
799.432	7.67
799.735	7.44
800.038	8.9
800.341	5.34
800.644	8.46
800.947	7.39
801.25	10.06
801.553	9.07
801.856	8.78
802.159	6.48
802.462	9.68
802.764	7.35
803.067	8.36
803.37	11.04
803.672	8.12
803.975	5.9
804.277	10.34
804.579	9.77
804.882	8.21
805.184	9.67
805.486	4.04
805.788	11.16
806.09	13.41
806.392	2.46
806.694	8.4
806.996	2.55
807.298	8.07
807.6	12.48
807.902	7.08
808.203	7.12
808.505	11.15
808.807	9.75
809.108	9.3
809.409	4.06
809.711	3.39
810.012	7.22
810.313	2.47
810.615	9.65
810.916	9.97
811.217	6.82
811.518	8.92
811.819	9.27
812.12	3.85
812.421	5.31
812.722	5.61
813.023	4.19
813.323	3.99
813.624	11.34
813.925	9.55
814.225	14.07
814.526	5.51
814.826	10.58
815.126	7.6
815.427	8.33
815.727	3.61
816.027	5.99
816.327	7.73
816.627	14.94
816.927	13.98
817.227	6.55
817.527	9.32
817.827	5.93
818.127	6.77
818.427	14.89
818.727	2.55
819.026	9.02
819.326	4.55
819.625	3.67
819.925	7.61
820.224	8.78
820.524	4.65
820.823	1.72
821.122	1.01
821.421	9.57
821.72	11.54
822.019	9.3
822.318	4.92
822.617	5.74
822.916	10.84
823.215	8.19
823.514	7.45
823.813	10.07
824.111	10.38
824.41	7.98
824.709	5.91
825.007	7.64
825.306	7.03
825.604	6.57
825.902	8.02
826.201	8.14
826.499	7.62
826.797	7.11
827.095	8.5
827.393	8.63
827.691	7.3
827.989	6.81
828.287	7.38
828.585	10
828.882	8.24
829.18	8.45
829.478	7.86
829.775	5.81
830.073	5.61
830.37	6.33
830.668	6.9
830.965	8.45
831.263	6.26
831.56	6.15
831.857	8.47
832.154	9.48
832.451	9.39
832.748	6.48
833.045	8.72
833.342	4.19
833.639	11.4
833.936	9.56
834.232	5.93
834.529	9.5
834.826	7.82
835.122	7.04
835.419	0.25
835.715	10.94
836.012	8.7
836.308	10.22
836.604	12.39
836.901	7.37
837.197	10.69
837.493	8.65
837.789	8.83
838.085	7.27
838.381	4.77
838.677	11.81
838.972	9.81
839.268	12.19
839.564	10.21
839.86	9.67
840.155	5.65
840.451	7.36
840.746	6.33
841.042	6.61
841.337	14.53
841.632	6.13
841.928	8.95
842.223	1.5
842.518	8.73
842.813	9.99
843.108	3.78
843.403	10.57
843.698	17.73
843.993	8.81
844.287	12.66
844.582	10.06
844.877	6.61
845.171	8.54
845.466	13.81
845.761	0.01
846.055	10.55
846.349	2.98
846.644	8.42
846.938	4.73
847.232	7.68
847.526	3.28
847.82	27.22
848.114	15.89
848.408	-14.26
848.702	5.3
848.996	14.78
849.29	14.4
849.584	17.79
849.877	18.03
850.171	1.15
850.465	25.28
850.758	8.94
851.052	-2.17
851.345	24.79
851.638	-15.04
851.932	14.17
852.225	7.62
852.518	4.47
852.811	13.21
853.104	7.02
853.397	22.19
853.69	17.93
853.983	32.62
854.276	-1.73
854.569	16.89
854.861	-6.95
855.154	11.46
855.447	-3.07
855.739	-13.45
856.032	-14.62
856.324	17.18
856.616	24.8
856.909	8.91
857.201	19.64
857.493	23.93
857.785	4.22
858.077	6.74
858.369	17.61
858.661	13.54
858.953	12.76
859.245	15.71
859.537	2.25
859.829	-9.66
860.12	4.98
860.412	-18.77
860.703	-29.36
860.995	-1.59
861.286	15.68
861.578	18.74
861.869	-7.55
862.16	-5.44
862.452	-8.54
862.743	20.58
863.034	40.78
863.325	37.45
863.616	-17.15
863.907	6.49
864.198	-16.21
864.488	5.81
864.779	-8.76
865.07	18.27
865.36	4.46
865.651	17.74
865.941	-3.58
866.232	-6.63
866.522	6.28
866.813	-0.38
867.103	25.34
867.393	-5.67
867.683	-0.6
867.973	7.21
868.263	6.34
868.553	18.59
868.843	-8.13
869.133	17.82
869.423	1.78
869.713	16.45
870.002	15.32
870.292	21.23
870.582	-28.61
870.871	-2.15
871.161	-37.1
871.45	-1.74
871.739	17.7
872.029	7.7
872.318	14.57
872.607	-13.09
872.896	-1.03
873.185	17.5
873.474	9
873.763	-12.23
874.052	7.47
874.341	12.54
874.63	7.84
874.918	7.42
875.207	8.94
875.496	2.18
875.784	-11.01
876.073	-0.88
876.361	9.53
876.649	18.4
876.938	18.26
877.226	9.26
877.514	39.27
877.802	-35.2
878.09	34.47
878.378	4.5
878.666	16.54
878.954	19.58
879.242	21.3
879.53	36.14
879.817	19.35
880.105	-4.35
880.392	-29.14
880.68	1.17
880.967	31.24
881.255	11.72
881.542	12.15
881.83	28.95
882.117	10.72
882.404	18.46
882.691	-13.35
882.978	-14.41
883.265	-9.1
883.552	-11.65
883.839	-0.79
884.126	28.68
884.413	10.55
884.699	17.19
884.986	13.82
885.273	-4.35
885.559	-4.35
885.846	-4.35
