Data from 23-1_chest_Reflection__0__334.txt Node

Date: Fri Sep 22 23:22:58 CDT 2023
User: ToomeyLab
Spectrometer: FLMS14357
Trigger mode: 0
Integration Time (sec): 1.000000E-2
Scans to average: 100
Electric dark correction enabled: true
Nonlinearity correction enabled: false
Boxcar width: 0
XAxis mode: Wavelengths
Number of Pixels in Spectrum: 2048
>>>>>Begin Spectral Data<<<<<
189.047	79.26
189.435	79.26
189.823	79.26
190.211	97.92
190.599	-4364.52
190.987	-18.5
191.375	-314.62
191.763	158.8
192.151	-114.06
192.538	-494.09
192.926	98.7
193.314	85.68
193.702	32.45
194.089	59.56
194.477	5.74
194.864	108.93
195.252	5.33
195.639	64.6
196.027	156.87
196.414	16.86
196.801	-468.8
197.189	-422.31
197.576	109.33
197.963	71.91
198.351	22.89
198.738	-10.53
199.125	-20.15
199.512	24.59
199.899	47.49
200.286	6.79
200.673	-9.1
201.06	10.6
201.447	31.82
201.833	-50.9
202.22	6.36
202.607	17.42
202.994	32.31
203.38	4.34
203.767	41.75
204.154	34.86
204.54	37.91
204.927	6.26
205.313	47.23
205.699	31.55
206.086	47.02
206.472	60.48
206.858	14.77
207.245	1.62
207.631	15.26
208.017	23.93
208.403	-12.19
208.789	14.22
209.175	42.95
209.561	15.63
209.947	40.32
210.333	13.66
210.719	-0.92
211.105	42.69
211.491	10.85
211.876	44.23
212.262	25.54
212.648	30.46
213.034	32.78
213.419	43.14
213.805	28.54
214.19	3.28
214.576	27.41
214.961	14.84
215.346	27.34
215.732	12.32
216.117	-10.94
216.502	18.88
216.888	29.15
217.273	8.46
217.658	1.36
218.043	23.81
218.428	31.81
218.813	-48.09
219.198	23.05
219.583	-1.22
219.968	-10.24
220.353	32.47
220.738	-5.79
221.122	-26.19
221.507	12.59
221.892	-11.08
222.276	15.38
222.661	-4.34
223.046	26.86
223.43	18.18
223.815	-2.99
224.199	-1.54
224.583	13.83
224.968	13.56
225.352	5.25
225.736	9.73
226.121	2.41
226.505	8.14
226.889	0.02
227.273	11.89
227.657	5.85
228.041	9.41
228.425	6.18
228.809	1.73
229.193	4.49
229.577	6.19
229.961	5.33
230.344	6.51
230.728	5.55
231.112	6.15
231.495	5.87
231.879	5.33
232.263	3.93
232.646	4.68
233.03	4.41
233.413	5.1
233.797	5.3
234.18	6.91
234.563	6.47
234.946	5.08
235.33	2.77
235.713	4.16
236.096	5.77
236.479	4.53
236.862	6.7
237.245	6.28
237.628	6.11
238.011	7.38
238.394	5.55
238.777	6.75
239.16	4.79
239.543	6.76
239.925	5.84
240.308	3.75
240.691	5.11
241.073	6.94
241.456	6.63
241.838	5.8
242.221	4.95
242.603	5.07
242.986	3.97
243.368	5.18
243.75	5.64
244.133	5.22
244.515	5.07
244.897	5.16
245.279	5.33
245.661	5.19
246.043	5.04
246.425	5.28
246.807	5.46
247.189	4.15
247.571	5.6
247.953	5.36
248.335	5.25
248.717	5.06
249.098	5.46
249.48	5.16
249.862	5.07
250.243	5.14
250.625	5.68
251.006	4.99
251.388	5.47
251.769	5.15
252.151	4.96
252.532	5.73
252.913	5.33
253.295	5.89
253.676	5.35
254.057	5.28
254.438	5.55
254.819	4.51
255.2	5.57
255.581	5.03
255.962	5.1
256.343	5.32
256.724	5.56
257.105	4.6
257.486	5.17
257.867	5.16
258.247	4.77
258.628	5.43
259.009	4.55
259.389	4.85
259.77	5.62
260.15	5.32
260.531	5.1
260.911	5.05
261.292	5.15
261.672	4.76
262.052	5
262.432	5.14
262.813	5.15
263.193	4.54
263.573	5.86
263.953	4.99
264.333	4.71
264.713	5.29
265.093	4.99
265.473	4.86
265.853	4.6
266.233	4.38
266.612	4.64
266.992	5.18
267.372	5.31
267.752	5.53
268.131	4.99
268.511	4.7
268.89	5.28
269.27	4.9
269.649	5.12
270.029	4.71
270.408	4.9
270.787	5.11
271.167	4.92
271.546	4.52
271.925	4.31
272.304	4.17
272.683	5.04
273.062	5.24
273.441	4.72
273.82	5.26
274.199	4.72
274.578	4.77
274.957	4.78
275.336	4.56
275.715	4.91
276.093	4.62
276.472	4.44
276.851	4.81
277.229	4.34
277.608	5.01
277.986	4.54
278.365	5.55
278.743	4.81
279.122	4.98
279.5	5.12
279.878	4.66
280.257	4.47
280.635	4.84
281.013	4.87
281.391	4.28
281.769	4.72
282.147	4.92
282.525	4.91
282.903	4.94
283.281	4.64
283.659	4.81
284.037	4.6
284.415	4.94
284.792	4.19
285.17	4.9
285.548	5.28
285.925	4.69
286.303	4.91
286.68	4.45
287.058	4.53
287.435	4.53
287.813	4.91
288.19	4.52
288.567	4.49
288.945	4.56
289.322	4.84
289.699	4.45
290.076	4.87
290.453	4.32
290.83	4.49
291.207	4.47
291.584	4.4
291.961	4.3
292.338	4.67
292.715	4.96
293.092	4.41
293.469	4.93
293.845	4.59
294.222	4.74
294.599	5.04
294.975	5
295.352	4.49
295.728	4.66
296.105	5.24
296.481	4.65
296.858	5.16
297.234	4.74
297.61	5.15
297.986	4.83
298.363	4.55
298.739	4.96
299.115	5
299.491	4.96
299.867	4.95
300.243	4.41
300.619	4.86
300.995	4.9
301.371	5.24
301.746	5.16
302.122	4.86
302.498	4.36
302.874	4.42
303.249	4.86
303.625	5.02
304	5.24
304.376	4.84
304.751	4.99
305.127	4.87
305.502	5
305.878	5.02
306.253	5.08
306.628	5.05
307.003	5.27
307.378	4.89
307.754	4.61
308.129	4.86
308.504	4.79
308.879	4.94
309.254	4.9
309.629	5.67
310.003	5.42
310.378	5.19
310.753	5.2
311.128	5.26
311.502	5.65
311.877	4.88
312.252	5.18
312.626	5.02
313.001	5.43
313.375	5.07
313.75	5.51
314.124	5.72
314.498	5.01
314.873	5.38
315.247	5.65
315.621	5.07
315.995	5.33
316.369	5.37
316.743	4.89
317.117	5.66
317.491	5.89
317.865	5.29
318.239	5
318.613	5.14
318.987	5.19
319.361	4.89
319.734	5.54
320.108	6.02
320.482	4.62
320.855	4.82
321.229	5.72
321.602	5.6
321.976	5.17
322.349	5.56
322.723	4.92
323.096	5.2
323.469	5.62
323.843	4.8
324.216	5.05
324.589	5.6
324.962	4.96
325.335	4.84
325.708	5.26
326.081	5.49
326.454	4.48
326.827	5.6
327.2	5.22
327.573	5.69
327.945	5.01
328.318	5.44
328.691	5.21
329.063	5.19
329.436	5.53
329.809	5.63
330.181	5.54
330.553	5.41
330.926	5.65
331.298	5.1
331.671	5.29
332.043	4.91
332.415	5.1
332.787	5.62
333.159	5.66
333.532	5.03
333.904	5.21
334.276	4.77
334.648	4.67
335.02	5
335.391	5.11
335.763	5.12
336.135	5.4
336.507	5.47
336.879	4.62
337.25	5.03
337.622	5.37
337.993	4.7
338.365	5.59
338.736	5.3
339.108	5.1
339.479	5.36
339.851	4.79
340.222	4.86
340.593	5.25
340.964	4.95
341.336	4.89
341.707	5.02
342.078	5.49
342.449	5.26
342.82	5
343.191	4.82
343.562	5.48
343.933	5.64
344.303	5.07
344.674	5.32
345.045	5.34
345.416	5.4
345.786	5.41
346.157	5.04
346.527	5.61
346.898	4.95
347.268	5.27
347.639	4.83
348.009	5.26
348.38	5.25
348.75	5.34
349.12	5.19
349.49	5.42
349.861	5.47
350.231	5.36
350.601	5.35
350.971	5.66
351.341	5.01
351.711	4.94
352.081	4.9
352.45	5.58
352.82	5.41
353.19	5.28
353.56	5.17
353.929	5.1
354.299	4.96
354.669	4.93
355.038	5.34
355.408	4.95
355.777	5.64
356.147	5.37
356.516	5.37
356.885	4.77
357.254	5.48
357.624	4.88
357.993	5.06
358.362	5.4
358.731	4.97
359.1	5.3
359.469	5.19
359.838	5.03
360.207	5.1
360.576	5.15
360.945	5.2
361.314	5.28
361.682	5.26
362.051	5.3
362.42	5.18
362.788	5.17
363.157	5.17
363.525	5.16
363.894	5.31
364.262	5.22
364.631	5
364.999	5.01
365.367	5.07
365.735	5.2
366.104	5.18
366.472	5.46
366.84	5.36
367.208	5.66
367.576	5.36
367.944	5.32
368.312	5.23
368.68	5.35
369.048	5.43
369.416	5.29
369.783	5.11
370.151	4.95
370.519	5.03
370.886	5.16
371.254	5.3
371.621	5.04
371.989	5.32
372.356	5.04
372.724	5.53
373.091	5.53
373.458	5.05
373.826	5.36
374.193	5.26
374.56	5.37
374.927	5.67
375.294	5.39
375.661	5.36
376.028	5.28
376.395	5.5
376.762	5.49
377.129	5.64
377.496	5.54
377.863	5.42
378.229	5.65
378.596	5.32
378.963	5.87
379.329	5.37
379.696	5.5
380.062	5.22
380.429	5.54
380.795	5.3
381.161	5.31
381.528	5.15
381.894	5.07
382.26	5.03
382.626	5.01
382.993	5.22
383.359	5.26
383.725	5.17
384.091	5.45
384.457	5.36
384.823	5.44
385.188	5.56
385.554	5.06
385.92	5.48
386.286	5.22
386.651	5.35
387.017	5.54
387.383	5.22
387.748	5.29
388.114	5.11
388.479	5.33
388.845	5.03
389.21	4.87
389.575	5.19
389.94	5.21
390.306	5.36
390.671	5.52
391.036	4.94
391.401	5.26
391.766	4.94
392.131	5.12
392.496	5.63
392.861	5.29
393.226	5.75
393.591	5.39
393.956	5.2
394.32	5.17
394.685	5.29
395.05	5.39
395.414	5.28
395.779	5.16
396.143	5.28
396.508	5.18
396.872	5.07
397.236	5.2
397.601	5.19
397.965	5.61
398.329	5.4
398.694	5.36
399.058	5.55
399.422	5.29
399.786	5.31
400.15	5.42
400.514	5.29
400.878	5.45
401.242	5.45
401.605	5.17
401.969	5.07
402.333	5.38
402.697	5.27
403.06	5.18
403.424	5.29
403.787	5.33
404.151	5.37
404.514	5.51
404.878	5.32
405.241	5.7
405.604	5.54
405.968	5.39
406.331	5.4
406.694	5.32
407.057	5.21
407.42	5.44
407.783	5.14
408.146	5.24
408.509	5.23
408.872	5.02
409.235	5.24
409.598	5.32
409.961	5.4
410.323	5.29
410.686	5.39
411.049	5.38
411.411	5.3
411.774	5.27
412.136	5.05
412.499	5.22
412.861	5.18
413.223	5.2
413.586	5.07
413.948	5.31
414.31	5.26
414.672	5.28
415.035	5.35
415.397	5.39
415.759	5.56
416.121	5.12
416.483	5.16
416.845	5.24
417.206	5.15
417.568	5.2
417.93	5.29
418.292	5.21
418.653	5.06
419.015	5.35
419.377	5.27
419.738	5.23
420.1	5.06
420.461	5.34
420.822	5.22
421.184	5.17
421.545	5.25
421.906	5.22
422.267	5.2
422.629	5.25
422.99	5.13
423.351	5.12
423.712	5.12
424.073	5.13
424.434	5.33
424.795	5.29
425.155	5.37
425.516	5.26
425.877	5.32
426.238	5.1
426.598	5.17
426.959	5.23
427.32	5.32
427.68	5.28
428.041	5.3
428.401	5.36
428.761	5.46
429.122	5.31
429.482	5.52
429.842	5.32
430.202	5.38
430.563	5.38
430.923	5.46
431.283	5.38
431.643	5.49
432.003	5.5
432.363	5.55
432.722	5.43
433.082	5.57
433.442	5.5
433.802	5.53
434.161	5.37
434.521	5.41
434.881	5.56
435.24	5.47
435.6	5.38
435.959	5.41
436.319	5.5
436.678	5.55
437.037	5.33
437.396	5.36
437.756	5.54
438.115	5.56
438.474	5.54
438.833	5.69
439.192	5.51
439.551	5.45
439.91	5.69
440.269	5.58
440.628	5.3
440.987	5.49
441.345	5.41
441.704	5.58
442.063	5.55
442.421	5.36
442.78	5.52
443.138	5.48
443.497	5.48
443.855	5.39
444.214	5.4
444.572	5.64
444.93	5.55
445.288	5.56
445.647	5.69
446.005	5.52
446.363	5.4
446.721	5.56
447.079	5.45
447.437	5.49
447.795	5.66
448.153	5.45
448.51	5.55
448.868	5.41
449.226	5.52
449.584	5.48
449.941	5.34
450.299	5.49
450.656	5.57
451.014	5.51
451.371	5.63
451.729	5.58
452.086	5.53
452.443	5.6
452.801	5.77
453.158	5.59
453.515	5.6
453.872	5.61
454.229	5.72
454.586	5.69
454.943	5.65
455.3	5.49
455.657	5.71
456.014	5.65
456.371	5.72
456.727	5.72
457.084	5.78
457.441	5.54
457.797	5.77
458.154	5.61
458.51	5.59
458.867	5.68
459.223	5.84
459.58	5.69
459.936	5.68
460.292	5.66
460.648	5.72
461.005	5.7
461.361	5.63
461.717	5.51
462.073	5.58
462.429	5.47
462.785	5.55
463.141	5.61
463.496	5.81
463.852	5.69
464.208	5.65
464.564	5.72
464.919	5.54
465.275	5.88
465.631	5.84
465.986	5.73
466.342	5.69
466.697	5.83
467.052	5.64
467.408	5.83
467.763	5.59
468.118	5.82
468.473	5.78
468.829	5.78
469.184	5.65
469.539	5.77
469.894	5.74
470.249	5.86
470.603	5.79
470.958	5.79
471.313	5.8
471.668	5.89
472.023	5.94
472.377	5.79
472.732	5.73
473.086	6
473.441	5.63
473.795	6.11
474.15	5.57
474.504	5.77
474.859	5.95
475.213	5.7
475.567	5.8
475.921	5.76
476.275	5.78
476.63	5.92
476.984	5.72
477.338	5.89
477.692	5.83
478.045	5.99
478.399	5.9
478.753	5.8
479.107	5.74
479.461	5.82
479.814	5.89
480.168	5.85
480.521	5.8
480.875	5.9
481.228	5.74
481.582	5.75
481.935	5.75
482.289	5.74
482.642	5.85
482.995	5.86
483.348	5.81
483.701	5.79
484.055	5.76
484.408	5.74
484.761	5.73
485.114	5.57
485.466	5.58
485.819	5.47
486.172	5.44
486.525	5.45
486.878	5.5
487.23	5.56
487.583	5.66
487.936	5.72
488.288	5.72
488.641	5.74
488.993	5.62
489.345	5.66
489.698	5.6
490.05	5.57
490.402	5.64
490.754	5.65
491.107	5.72
491.459	5.79
491.811	5.81
492.163	5.73
492.515	5.73
492.866	5.8
493.218	5.76
493.57	5.69
493.922	5.59
494.274	5.66
494.625	5.73
494.977	5.86
495.328	5.9
495.68	5.94
496.031	5.79
496.383	5.99
496.734	5.85
497.086	5.95
497.437	5.97
497.788	6.01
498.139	5.97
498.49	5.92
498.842	5.83
499.193	5.85
499.544	6.02
499.894	5.9
500.245	5.97
500.596	6
500.947	5.98
501.298	6.05
501.648	6.02
501.999	6.1
502.35	5.96
502.7	6.1
503.051	6
503.401	6.16
503.752	6.1
504.102	5.91
504.452	6.02
504.803	5.96
505.153	6.15
505.503	6.14
505.853	6.07
506.203	5.95
506.553	6.04
506.903	6.01
507.253	6.12
507.603	6.21
507.953	6.22
508.303	6.13
508.652	6.07
509.002	6.15
509.352	5.96
509.701	6.12
510.051	6.08
510.4	6.13
510.75	6.15
511.099	5.97
511.449	6.15
511.798	6.2
512.147	6.07
512.496	6.01
512.846	6.04
513.195	6.11
513.544	6.11
513.893	6.26
514.242	6.12
514.591	6.21
514.939	6.2
515.288	6.12
515.637	6.21
515.986	6.09
516.334	6.26
516.683	6.24
517.032	6.28
517.38	6.18
517.729	6.21
518.077	6.2
518.426	6.22
518.774	6.31
519.122	6.33
519.47	6.18
519.819	6.14
520.167	6.17
520.515	6.14
520.863	6.07
521.211	6.06
521.559	6.22
521.907	6.21
522.255	6.2
522.602	6.24
522.95	6.32
523.298	6.39
523.645	6.3
523.993	6.29
524.341	6.22
524.688	6.35
525.036	6.33
525.383	6.35
525.73	6.29
526.078	6.38
526.425	6.18
526.772	6.41
527.119	6.37
527.466	6.2
527.814	6.18
528.161	6.17
528.508	6.23
528.854	6.34
529.201	6.29
529.548	6.27
529.895	6.24
530.242	6.14
530.588	5.99
530.935	5.98
531.282	5.99
531.628	6.13
531.975	6.12
532.321	6.2
532.667	6.28
533.014	6.31
533.36	6.43
533.706	6.36
534.052	6.45
534.399	6.38
534.745	6.32
535.091	6.29
535.437	6.24
535.783	6.19
536.129	6.26
536.474	6.39
536.82	6.33
537.166	6.46
537.512	6.51
537.857	6.46
538.203	6.48
538.549	6.42
538.894	6.36
539.239	6.46
539.585	6.4
539.93	6.65
540.276	6.55
540.621	6.46
540.966	6.55
541.311	6.58
541.656	6.6
542.001	6.68
542.346	6.53
542.691	6.62
543.036	6.41
543.381	6.38
543.726	6.36
544.071	6.38
544.415	6.41
544.76	6.47
545.105	6.46
545.449	6.49
545.794	6.6
546.138	6.66
546.483	6.62
546.827	6.55
547.171	6.69
547.516	6.74
547.86	6.68
548.204	6.7
548.548	6.71
548.892	6.79
549.236	6.7
549.58	6.67
549.924	6.79
550.268	6.94
550.612	6.8
550.956	6.9
551.3	7.04
551.643	7.03
551.987	6.96
552.33	7.05
552.674	6.77
553.017	6.94
553.361	6.77
553.704	7.09
554.048	6.97
554.391	6.94
554.734	7.16
555.077	6.84
555.42	6.99
555.764	7.03
556.107	7.07
556.45	6.99
556.793	6.87
557.135	6.88
557.478	6.88
557.821	7.05
558.164	7.11
558.507	7.36
558.849	6.91
559.192	7.22
559.534	7.37
559.877	7.06
560.219	7.22
560.562	7.28
560.904	7.36
561.246	7.34
561.589	7.18
561.931	7.29
562.273	7.01
562.615	7.19
562.957	7.16
563.299	7.39
563.641	7.41
563.983	7.34
564.325	7.3
564.667	7.29
565.008	7.22
565.35	7.52
565.692	7.23
566.033	7.35
566.375	7.35
566.716	7.41
567.058	7.46
567.399	7.54
567.741	7.61
568.082	7.37
568.423	7.43
568.764	7.75
569.105	7.46
569.447	7.56
569.788	7.33
570.129	7.59
570.47	7.63
570.811	7.62
571.151	7.55
571.492	7.55
571.833	7.57
572.174	7.63
572.514	7.62
572.855	7.49
573.195	7.52
573.536	7.73
573.876	7.47
574.217	7.38
574.557	7.43
574.898	7.68
575.238	7.63
575.578	7.63
575.918	7.72
576.258	7.59
576.598	7.72
576.938	7.82
577.278	7.81
577.618	7.61
577.958	7.87
578.298	7.99
578.638	7.69
578.977	8
579.317	7.98
579.657	7.89
579.996	7.99
580.336	7.91
580.675	7.95
581.014	7.78
581.354	7.81
581.693	7.95
582.032	8.21
582.372	8.12
582.711	8
583.05	7.96
583.389	8.14
583.728	8.11
584.067	8.01
584.406	8.27
584.745	8.03
585.083	8.15
585.422	8.17
585.761	8.21
586.1	8.18
586.438	8.03
586.777	8.23
587.115	8.33
587.454	8.24
587.792	8.25
588.13	8.31
588.469	8.24
588.807	8.43
589.145	8.33
589.483	8.33
589.821	8.26
590.159	8.34
590.497	8.57
590.835	8.31
591.173	8.41
591.511	8.65
591.849	8.54
592.187	8.46
592.524	8.62
592.862	8.48
593.2	8.4
593.537	8.36
593.875	8.55
594.212	8.72
594.55	8.75
594.887	8.57
595.224	8.78
595.561	8.72
595.899	8.76
596.236	8.87
596.573	8.86
596.91	8.93
597.247	8.67
597.584	8.9
597.921	9.05
598.258	8.79
598.594	8.82
598.931	8.69
599.268	8.81
599.604	8.88
599.941	8.8
600.277	9.07
600.614	8.87
600.95	8.84
601.287	8.82
601.623	9.07
601.959	9.2
602.296	9
602.632	8.83
602.968	9.08
603.304	9.19
603.64	9.2
603.976	9.25
604.312	9.15
604.648	9.18
604.984	9
605.319	9.2
605.655	9.06
605.991	9.02
606.326	9.05
606.662	9.06
606.998	9.06
607.333	9.13
607.668	9.21
608.004	9.32
608.339	9.17
608.674	9.33
609.01	9.2
609.345	9.45
609.68	9.51
610.015	9.43
610.35	9.45
610.685	9.66
611.02	9.55
611.355	9.66
611.689	9.28
612.024	9.29
612.359	9.29
612.694	9.52
613.028	9.35
613.363	9.36
613.697	9.27
614.032	9.65
614.366	9.63
614.7	9.49
615.035	9.7
615.369	9.49
615.703	9.47
616.037	9.47
616.371	10.18
616.705	10.05
617.039	9.84
617.373	9.83
617.707	9.83
618.041	10.12
618.375	10.1
618.709	9.81
619.042	9.71
619.376	10.05
619.71	10.1
620.043	9.54
620.377	9.79
620.71	10.12
621.043	10.1
621.377	10.17
621.71	9.97
622.043	10.29
622.376	10.27
622.709	10.1
623.043	10.28
623.376	10.45
623.709	10.5
624.041	10.25
624.374	10.29
624.707	10.2
625.04	10.25
625.373	10.09
625.705	10.55
626.038	10.39
626.37	10.31
626.703	10.26
627.035	10.21
627.368	10.53
627.7	10.6
628.032	10.66
628.365	10.46
628.697	10.44
629.029	10.58
629.361	10.13
629.693	10.65
630.025	10.56
630.357	10.38
630.689	10.84
631.021	10.51
631.353	10.65
631.684	10.65
632.016	10.67
632.348	10.76
632.679	10.56
633.011	10.64
633.342	10.82
633.674	11.04
634.005	10.7
634.336	10.83
634.668	10.82
634.999	10.75
635.33	11.03
635.661	10.66
635.992	10.92
636.323	10.73
636.654	10.86
636.985	10.8
637.316	11.15
637.647	10.82
637.977	10.66
638.308	11.29
638.639	11.01
638.969	11.27
639.3	10.87
639.63	11.56
639.961	11.02
640.291	10.9
640.622	11.83
640.952	11.37
641.282	11.39
641.612	10.97
641.943	11.38
642.273	11.46
642.603	11.21
642.933	11.35
643.263	10.75
643.592	11.49
643.922	11.51
644.252	11.25
644.582	11.93
644.911	11.76
645.241	11.79
645.571	11.34
645.9	11.96
646.23	11.99
646.559	11.79
646.888	11.64
647.218	11.56
647.547	11.54
647.876	11.52
648.205	11.35
648.534	12.36
648.863	11.81
649.192	11.89
649.521	11.98
649.85	12.08
650.179	12.09
650.508	11.71
650.837	11.87
651.165	11.51
651.494	12.24
651.822	12.21
652.151	11.84
652.479	12.53
652.808	12.04
653.136	12.14
653.465	12.26
653.793	11.72
654.121	12.35
654.449	12.06
654.777	12.21
655.105	12.39
655.433	12.24
655.761	12.64
656.089	12.17
656.417	12.15
656.745	12.2
657.073	12.35
657.4	13.1
657.728	12.21
658.056	12.34
658.383	12.81
658.711	12.56
659.038	12.42
659.365	12.48
659.693	12.17
660.02	13.12
660.347	13.07
660.674	12.56
661.001	12.43
661.329	12.19
661.656	12.56
661.982	12.37
662.309	12.98
662.636	12.65
662.963	13.12
663.29	13.01
663.616	13.24
663.943	13.29
664.27	13.39
664.596	13.02
664.923	13.48
665.249	12.88
665.576	12.22
665.902	13.41
666.228	13.08
666.554	13.06
666.881	13.04
667.207	13.24
667.533	13.27
667.859	13.28
668.185	13.45
668.511	13.06
668.837	13.46
669.162	13.17
669.488	13.52
669.814	13.23
670.139	13.4
670.465	13.6
670.791	13.33
671.116	13.4
671.442	13.75
671.767	13.2
672.092	13.24
672.418	14.02
672.743	13.24
673.068	13.61
673.393	13.52
673.718	14.01
674.043	13.92
674.368	13.69
674.693	13.39
675.018	13.1
675.343	13.98
675.667	13.54
675.992	13.34
676.317	14.29
676.641	14.35
676.966	14.1
677.29	13.27
677.615	14.08
677.939	14.32
678.264	13.81
678.588	14.74
678.912	14.38
679.236	14.25
679.56	13.91
679.885	14.13
680.209	14.5
680.532	14.21
680.856	14.11
681.18	14.77
681.504	14.1
681.828	14.2
682.152	14.04
682.475	14.52
682.799	14.63
683.122	14.11
683.446	14.48
683.769	14.53
684.093	14.52
684.416	14.5
684.739	14.84
685.062	15.35
685.386	14.39
685.709	15.12
686.032	14.43
686.355	14.54
686.678	14.58
687.001	15.37
687.324	15.14
687.646	14.85
687.969	15.09
688.292	14.76
688.614	14.93
688.937	14.9
689.26	14.3
689.582	15.31
689.904	14.97
690.227	15.75
690.549	15.26
690.871	14.75
691.194	15.21
691.516	15.42
691.838	15.18
692.16	14.18
692.482	15.58
692.804	14.52
693.126	14.62
693.448	15.91
693.769	15.11
694.091	15.05
694.413	15.86
694.735	15.64
695.056	15.46
695.378	15.71
695.699	15.95
696.021	14.62
696.342	15.78
696.663	14.85
696.984	15.13
697.306	15.48
697.627	15.41
697.948	15.57
698.269	15.95
698.59	15.8
698.911	16.05
699.232	15.16
699.553	15.51
699.873	15.76
700.194	15.11
700.515	15.12
700.835	16.14
701.156	15.96
701.477	15.73
701.797	15.44
702.117	15.75
702.438	15.57
702.758	15.65
703.078	16.03
703.398	16.4
703.719	16.06
704.039	16.75
704.359	15.77
704.679	15.72
704.999	15.91
705.319	16.81
705.638	16.01
705.958	17.25
706.278	17.51
706.597	16.59
706.917	16.48
707.237	15.79
707.556	15.96
707.876	16.23
708.195	16.65
708.514	17.21
708.834	15.56
709.153	15.71
709.472	16.67
709.791	16.85
710.11	17.25
710.429	17.1
710.748	16.63
711.067	17.18
711.386	17.58
711.705	15.91
712.023	17.07
712.342	17.57
712.661	17.24
712.979	17.45
713.298	17.72
713.616	16.69
713.935	17.12
714.253	18.15
714.572	17.57
714.89	18.15
715.208	18.17
715.526	16.62
715.844	17.5
716.162	16.74
716.48	17.88
716.798	17.41
717.116	17.5
717.434	16.94
717.752	17.79
718.069	16.99
718.387	17.25
718.705	17.09
719.022	17.95
719.34	18.21
719.657	15.99
719.975	19.47
720.292	16.66
720.609	18.92
720.927	19.08
721.244	17.77
721.561	18.04
721.878	17.98
722.195	17.52
722.512	17.5
722.829	19.16
723.146	17.82
723.463	17.86
723.779	17.74
724.096	17.24
724.413	18.95
724.729	18.72
725.046	17.97
725.362	18.41
725.679	17.71
725.995	18.84
726.311	18.07
726.628	18.51
726.944	17.98
727.26	18.5
727.576	17.57
727.892	17.19
728.208	18.45
728.524	18.5
728.84	16.83
729.156	17.6
729.472	19.94
729.787	19.55
730.103	18.03
730.419	18.8
730.734	17.95
731.05	17.72
731.365	18.67
731.681	18.34
731.996	19.61
732.311	18.77
732.626	18.2
732.942	17.89
733.257	19.34
733.572	17.67
733.887	18.32
734.202	18.39
734.517	19.51
734.832	19.01
735.146	18.37
735.461	19.11
735.776	18.36
736.091	19.68
736.405	18.97
736.72	19.39
737.034	17.96
737.349	17.79
737.663	19.14
737.977	20.58
738.292	18.23
738.606	19.28
738.92	20.17
739.234	19.13
739.548	18.86
739.862	19
740.176	18.54
740.49	17.93
740.804	17.94
741.117	17.99
741.431	19.4
741.745	20.4
742.058	18.76
742.372	19.31
742.685	18.69
742.999	18.73
743.312	20.46
743.626	18.14
743.939	19.91
744.252	19.81
744.565	19.59
744.878	20.15
745.191	20.07
745.505	18.37
745.817	21.27
746.13	21.21
746.443	21.16
746.756	20.45
747.069	19.8
747.381	19.44
747.694	19.94
748.007	19.61
748.319	21.74
748.632	20.42
748.944	23.31
749.256	21.34
749.569	19.72
749.881	20.85
750.193	20.02
750.505	23
750.817	21.93
751.129	19.85
751.441	20.58
751.753	21.57
752.065	21.44
752.377	21.33
752.689	18.43
753	19.2
753.312	19.35
753.624	21.5
753.935	21.56
754.247	20.79
754.558	21.9
754.869	19.19
755.181	19.35
755.492	20.67
755.803	22.75
756.114	20.47
756.425	21.15
756.736	21.52
757.047	20.79
757.358	18.99
757.669	21.39
757.98	22.17
758.291	22.14
758.601	20.59
758.912	21.83
759.223	23.59
759.533	19.83
759.844	21.96
760.154	21.85
760.464	19.06
760.775	21.32
761.085	21.49
761.395	21.13
761.705	21.14
762.016	20.81
762.326	21.22
762.636	21.97
762.945	20.45
763.255	20.66
763.565	18.71
763.875	18.73
764.185	21.7
764.494	21.35
764.804	21.07
765.113	21.43
765.423	22.55
765.732	20.62
766.042	22.71
766.351	22.01
766.66	22.64
766.97	21.17
767.279	21.63
767.588	20.85
767.897	20.56
768.206	21.74
768.515	22.25
768.824	22.77
769.133	21.82
769.441	21.66
769.75	23.26
770.059	22.87
770.367	21.89
770.676	24.06
770.984	21.86
771.293	21.19
771.601	24.01
771.91	23.25
772.218	24.04
772.526	21.01
772.834	23.78
773.142	22.66
773.45	23.24
773.758	22.15
774.066	20.53
774.374	21.41
774.682	22.49
774.99	22.42
775.298	24.53
775.605	23.88
775.913	26.46
776.22	23.93
776.528	20.26
776.835	23.6
777.143	23.77
777.45	23.01
777.757	19.99
778.065	24.77
778.372	22.03
778.679	23.42
778.986	22.04
779.293	22.28
779.6	22.31
779.907	22.79
780.214	28.49
780.52	20.39
780.827	23.51
781.134	28.78
781.44	23.94
781.747	25.3
782.053	20.91
782.36	23.01
782.666	21.65
782.973	26.02
783.279	21.95
783.585	24.09
783.891	22.36
784.197	23.85
784.503	23.4
784.809	21.15
785.115	22.35
785.421	27.32
785.727	26.36
786.033	23.41
786.339	24.48
786.644	26.27
786.95	22.17
787.255	26.03
787.561	24.04
787.866	20.35
788.172	25.57
788.477	24.69
788.782	22.57
789.088	24.14
789.393	26.13
789.698	25.22
790.003	25.27
790.308	22.16
790.613	22.88
790.918	23.84
791.223	22.14
791.527	21.31
791.832	24.71
792.137	21.7
792.441	24.88
792.746	22.81
793.05	25.49
793.355	25.23
793.659	23.87
793.963	29.73
794.268	25.48
794.572	24.1
794.876	26.05
795.18	25.93
795.484	18.72
795.788	22.38
796.092	26.24
796.396	25.57
796.7	23.69
797.004	23.91
797.307	22.31
797.611	23.93
797.915	25.74
798.218	28.13
798.522	25.15
798.825	24.43
799.128	21.49
799.432	25.02
799.735	27.17
800.038	25.41
800.341	23.97
800.644	26.66
800.947	27.22
801.25	27.19
801.553	26.63
801.856	28.04
802.159	23.81
802.462	21.48
802.764	23.48
803.067	22.45
803.37	32.18
803.672	28.53
803.975	19.12
804.277	27.54
804.579	28.41
804.882	26.94
805.184	27.11
805.486	25.27
805.788	29.63
806.09	28.59
806.392	22.61
806.694	24.11
806.996	25.04
807.298	20.81
807.6	25.15
807.902	27.62
808.203	26.76
808.505	27.29
808.807	24.5
809.108	29.15
809.409	31.83
809.711	27.59
810.012	31.02
810.313	21.38
810.615	30.51
810.916	24.91
811.217	26.94
811.518	25.23
811.819	29.67
812.12	25.13
812.421	28.59
812.722	28.28
813.023	31.89
813.323	22.64
813.624	33.77
813.925	24.42
814.225	28.95
814.526	28
814.826	26.4
815.126	33.05
815.427	27
815.727	26.27
816.027	21.94
816.327	24.06
816.627	25.61
816.927	25.05
817.227	26.19
817.527	28.27
817.827	27.38
818.127	27.6
818.427	30.35
818.727	29.43
819.026	32.81
819.326	26.08
819.625	26.51
819.925	29.06
820.224	26.92
820.524	23.09
820.823	25.3
821.122	21.69
821.421	29.39
821.72	30.04
822.019	27.71
822.318	28.24
822.617	26.92
822.916	27.64
823.215	29.34
823.514	28.82
823.813	27.33
824.111	31.26
824.41	25.85
824.709	25.29
825.007	27.76
825.306	27.76
825.604	27.14
825.902	27.71
826.201	28.28
826.499	28.07
826.797	27.55
827.095	29.08
827.393	28.9
827.691	26.38
827.989	27.29
828.287	28.87
828.585	29.56
828.882	29.07
829.18	29.7
829.478	28.27
829.775	28.49
830.073	29.02
830.37	27.06
830.668	26.38
830.965	28.31
831.263	27.21
831.56	28.07
831.857	28.79
832.154	28.83
832.451	28.73
832.748	28.57
833.045	33.07
833.342	30.6
833.639	26.44
833.936	30.56
834.232	27.2
834.529	32.92
834.826	26.97
835.122	31.51
835.419	31.8
835.715	34.86
836.012	23.24
836.308	28.11
836.604	30.55
836.901	25.53
837.197	27.86
837.493	29.79
837.789	29.22
838.085	29.38
838.381	29.49
838.677	29.54
838.972	30.66
839.268	31.47
839.564	35
839.86	29.79
840.155	32.91
840.451	24.6
840.746	26.3
841.042	29.66
841.337	36.71
841.632	30.83
841.928	30.22
842.223	29.39
842.518	28.57
842.813	32.68
843.108	24.34
843.403	25.7
843.698	28.12
843.993	30.49
844.287	32.59
844.582	28.4
844.877	23.28
845.171	33.38
845.466	34.15
845.761	20.39
846.055	37.52
846.349	14.83
846.644	43.82
846.938	29.26
847.232	27.49
847.526	25.67
847.82	35.29
848.114	25.19
848.408	26.73
848.702	31.45
848.996	42.31
849.29	37.15
849.584	45.48
849.877	26.54
850.171	26.46
850.465	35.36
850.758	32.76
851.052	20.18
851.345	28.68
851.638	21.75
851.932	43.41
852.225	39.93
852.518	32.3
852.811	26.49
853.104	34.85
853.397	36.29
853.69	43.98
853.983	30.78
854.276	25.65
854.569	28.57
854.861	25.73
855.154	18.68
855.447	26.08
855.739	2.62
856.032	13.5
856.324	23.12
856.616	31.88
856.909	26.59
857.201	8.72
857.493	22.91
857.785	32.4
858.077	31.84
858.369	27.56
858.661	44.58
858.953	33.06
859.245	30.21
859.537	22.94
859.829	32.54
860.12	11.46
860.412	30.86
860.703	22.61
860.995	20.49
861.286	38.96
861.578	18.56
861.869	6.5
862.16	34.57
862.452	-10.53
862.743	37.28
863.034	57.99
863.325	44.83
863.616	1.2
863.907	21.08
864.198	21.71
864.488	28.56
864.779	39.34
865.07	29.83
865.36	20.04
865.651	34.08
865.941	11.79
866.232	16.01
866.522	21.22
866.813	42.42
867.103	20.71
867.393	26.26
867.683	25.71
867.973	27.38
868.263	40.03
868.553	18.28
868.843	32.55
869.133	28.45
869.423	42.16
869.713	32.68
870.002	20.28
870.292	60.2
870.582	26.57
870.871	8.97
871.161	11.21
871.45	45.47
871.739	37.75
872.029	32.71
872.318	18.37
872.607	24.17
872.896	29.13
873.185	30.98
873.474	37.34
873.763	31.85
874.052	23.97
874.341	18.59
874.63	31.61
874.918	10.26
875.207	51.37
875.496	48.1
875.784	50.5
876.073	26.22
876.361	30.2
876.649	22.77
876.938	45.86
877.226	30.92
877.514	35.08
877.802	26.67
878.09	48.59
878.378	46.5
878.666	42.99
878.954	34.86
879.242	30.31
879.53	37.67
879.817	42.71
880.105	6.28
880.392	16.86
880.68	49.17
880.967	42.63
881.255	18.39
881.542	26.3
881.83	25.05
882.117	44.51
882.404	44.4
882.691	12.63
882.978	30.34
883.265	42.24
883.552	55.66
883.839	0.85
884.126	48.35
884.413	38.61
884.699	35.13
884.986	43.76
885.273	29.63
885.559	29.63
885.846	29.63
