Data from 23-1_crown_Reflection__0__339.txt Node

Date: Fri Sep 22 23:24:51 CDT 2023
User: ToomeyLab
Spectrometer: FLMS14357
Trigger mode: 0
Integration Time (sec): 1.000000E-2
Scans to average: 100
Electric dark correction enabled: true
Nonlinearity correction enabled: false
Boxcar width: 0
XAxis mode: Wavelengths
Number of Pixels in Spectrum: 2048
>>>>>Begin Spectral Data<<<<<
189.047	-165.49
189.435	-165.49
189.823	-165.49
190.211	-167.04
190.599	-9838.71
190.987	73.14
191.375	776.34
191.763	526.06
192.151	-218.58
192.538	-99.13
192.926	129.94
193.314	162.39
193.702	41.89
194.089	77.66
194.477	-16.06
194.864	-90.01
195.252	-31.7
195.639	26.04
196.027	176.48
196.414	82.36
196.801	-395.07
197.189	-29.94
197.576	47.66
197.963	28.84
198.351	-22.37
198.738	-17.97
199.125	-1.26
199.512	-83.13
199.899	45.48
200.286	4.48
200.673	-15.27
201.06	-1.59
201.447	38.72
201.833	-25.07
202.22	18.61
202.607	2.77
202.994	40.54
203.38	38.99
203.767	16.45
204.154	13.22
204.54	19.74
204.927	-13.02
205.313	25.35
205.699	33.81
206.086	21.03
206.472	31.31
206.858	14.94
207.245	-14.61
207.631	24.33
208.017	2.65
208.403	15.07
208.789	13.55
209.175	30.29
209.561	37.47
209.947	0.4
210.333	13.52
210.719	-30.01
211.105	23.48
211.491	-10.02
211.876	20.47
212.262	-2.55
212.648	34.36
213.034	31.93
213.419	-26.43
213.805	11.48
214.19	38.66
214.576	10.55
214.961	-20.32
215.346	-6.99
215.732	31.06
216.117	4.75
216.502	33.88
216.888	16.02
217.273	0.39
217.658	17.34
218.043	21.5
218.428	58.9
218.813	-50.29
219.198	-24.21
219.583	25.15
219.968	8.57
220.353	10.87
220.738	-6
221.122	8.18
221.507	-29.2
221.892	-34.03
222.276	-22.02
222.661	-28.54
223.046	15.03
223.43	22.39
223.815	8.75
224.199	1.04
224.583	12.96
224.968	5.31
225.352	3.24
225.736	1.37
226.121	-4.51
226.505	0.79
226.889	-2.34
227.273	-2.21
227.657	5.85
228.041	-0.91
228.425	6.55
228.809	-1.31
229.193	0.63
229.577	4.2
229.961	2.57
230.344	3.2
230.728	0.44
231.112	2.19
231.495	2.16
231.879	2.11
232.263	1.22
232.646	1.65
233.03	-0.34
233.413	2.04
233.797	1.96
234.18	0.8
234.563	2.56
234.946	0.59
235.33	-2.16
235.713	1.27
236.096	2.96
236.479	0.42
236.862	4.28
237.245	1.57
237.628	2.35
238.011	3.07
238.394	0.86
238.777	3.42
239.16	1.83
239.543	3.91
239.925	2.21
240.308	3.3
240.691	1.06
241.073	3.72
241.456	-0.55
241.838	0.32
242.221	1.12
242.603	1.38
242.986	1.67
243.368	1.23
243.75	2.79
244.133	1.78
244.515	1.99
244.897	1.38
245.279	1.71
245.661	1.89
246.043	1.7
246.425	1.03
246.807	2.23
247.189	1.22
247.571	2.01
247.953	2.11
248.335	2.04
248.717	1.98
249.098	1.68
249.48	1.73
249.862	1.5
250.243	1.95
250.625	1.99
251.006	1.05
251.388	1.41
251.769	2.45
252.151	1.6
252.532	0.65
252.913	1.62
253.295	2.7
253.676	1.52
254.057	1.41
254.438	2.34
254.819	1.44
255.2	2.05
255.581	1.27
255.962	2.11
256.343	1.45
256.724	1.02
257.105	0.35
257.486	0.8
257.867	1.29
258.247	2.32
258.628	1.32
259.009	1.54
259.389	0.79
259.77	1.91
260.15	1.45
260.531	0.91
260.911	1.22
261.292	1.48
261.672	1.33
262.052	1.43
262.432	1.76
262.813	1.74
263.193	1.72
263.573	2.15
263.953	0.84
264.333	2.03
264.713	1.69
265.093	1.32
265.473	1.41
265.853	1.04
266.233	1.69
266.612	1.69
266.992	1.98
267.372	1.38
267.752	2.09
268.131	1.39
268.511	1.34
268.89	2.36
269.27	1.45
269.649	1.65
270.029	1.47
270.408	1.31
270.787	1.67
271.167	2.01
271.546	1.58
271.925	1.53
272.304	1.32
272.683	1.59
273.062	2.48
273.441	1.5
273.82	1.56
274.199	1.63
274.578	1.79
274.957	1.77
275.336	1.69
275.715	1.26
276.093	1.1
276.472	1.86
276.851	1.91
277.229	0.91
277.608	1.96
277.986	1.21
278.365	1.56
278.743	1.41
279.122	1.36
279.5	2.07
279.878	1.26
280.257	2.74
280.635	1.04
281.013	1.6
281.391	0.89
281.769	1.93
282.147	1.57
282.525	1.42
282.903	2
283.281	1.57
283.659	1.1
284.037	1.02
284.415	1.4
284.792	1.58
285.17	1.77
285.548	1.91
285.925	1.65
286.303	1.41
286.68	1.26
287.058	1.26
287.435	1.2
287.813	1.32
288.19	1.17
288.567	1.53
288.945	1.25
289.322	1.86
289.699	1.83
290.076	0.91
290.453	1.08
290.83	1.4
291.207	1.33
291.584	0.98
291.961	1.61
292.338	1.63
292.715	1.83
293.092	1.44
293.469	1.24
293.845	1.52
294.222	1.79
294.599	1.72
294.975	2.14
295.352	2.39
295.728	1.69
296.105	1.86
296.481	1.65
296.858	1.48
297.234	1.49
297.61	1.46
297.986	1.76
298.363	1.54
298.739	1.46
299.115	1.7
299.491	1.72
299.867	1.7
300.243	1.42
300.619	1.96
300.995	1.42
301.371	1.84
301.746	1.72
302.122	1.48
302.498	1.21
302.874	1.65
303.249	1.34
303.625	1.33
304	2.02
304.376	1.6
304.751	2
305.127	1.49
305.502	1.21
305.878	1.58
306.253	2.11
306.628	1.92
307.003	1.72
307.378	1.26
307.754	1.67
308.129	1.98
308.504	1.93
308.879	1.13
309.254	1.64
309.629	1.77
310.003	1.75
310.378	2.02
310.753	1.94
311.128	1.67
311.502	1.67
311.877	1.34
312.252	1.75
312.626	1.84
313.001	1.99
313.375	1.87
313.75	2.12
314.124	2.2
314.498	1.53
314.873	2.03
315.247	1.76
315.621	1.7
315.995	1.97
316.369	1.58
316.743	1.61
317.117	1.61
317.491	1.91
317.865	1.05
318.239	1.6
318.613	2.13
318.987	1.64
319.361	1.58
319.734	1.81
320.108	1.99
320.482	1.73
320.855	1.71
321.229	2.2
321.602	1.95
321.976	1.34
322.349	2.01
322.723	2.11
323.096	1.45
323.469	1.78
323.843	1.85
324.216	2.24
324.589	1.85
324.962	1.71
325.335	1.28
325.708	1.24
326.081	1.64
326.454	1.09
326.827	2.17
327.2	1.53
327.573	2.37
327.945	2.06
328.318	1.71
328.691	1.88
329.063	1.79
329.436	1.42
329.809	1.98
330.181	1.99
330.553	1.68
330.926	1.94
331.298	2.18
331.671	2.24
332.043	1.33
332.415	2.18
332.787	2.04
333.159	1.33
333.532	1.36
333.904	1.43
334.276	1.36
334.648	1.57
335.02	1.26
335.391	1.72
335.763	2.11
336.135	1.95
336.507	2.09
336.879	0.98
337.25	1.54
337.622	2.53
337.993	1.66
338.365	2.06
338.736	1.73
339.108	1.8
339.479	1.51
339.851	1.52
340.222	2.1
340.593	1.8
340.964	1.28
341.336	1.79
341.707	1.38
342.078	1.79
342.449	2.29
342.82	1.64
343.191	1.14
343.562	1.6
343.933	1.89
344.303	1.55
344.674	1.74
345.045	1.94
345.416	2.26
345.786	1.66
346.157	1.55
346.527	1.87
346.898	1.71
347.268	1.64
347.639	1.8
348.009	1.88
348.38	1.59
348.75	2.08
349.12	1.65
349.49	1.92
349.861	1.76
350.231	2.2
350.601	1.94
350.971	2.15
351.341	1.58
351.711	1.7
352.081	1.34
352.45	1.4
352.82	2.03
353.19	2.11
353.56	1.86
353.929	2.17
354.299	1.49
354.669	1.73
355.038	1.82
355.408	2
355.777	1.8
356.147	2.02
356.516	2.08
356.885	1.73
357.254	2.1
357.624	1.49
357.993	1.68
358.362	1.91
358.731	1.46
359.1	1.81
359.469	1.71
359.838	1.79
360.207	1.86
360.576	1.92
360.945	1.69
361.314	1.51
361.682	1.99
362.051	1.99
362.42	1.71
362.788	1.77
363.157	1.87
363.525	1.85
363.894	1.7
364.262	1.54
364.631	1.73
364.999	1.64
365.367	2.21
365.735	1.81
366.104	1.8
366.472	1.95
366.84	2.03
367.208	2.11
367.576	2.06
367.944	1.61
368.312	1.76
368.68	1.97
369.048	2.26
369.416	2.1
369.783	1.88
370.151	1.75
370.519	1.79
370.886	1.76
371.254	1.7
371.621	1.67
371.989	1.52
372.356	1.82
372.724	1.98
373.091	2.21
373.458	1.85
373.826	2.01
374.193	1.85
374.56	2
374.927	1.86
375.294	1.78
375.661	1.57
376.028	2.04
376.395	1.9
376.762	1.81
377.129	1.94
377.496	2.13
377.863	1.9
378.229	2.05
378.596	1.84
378.963	2.19
379.329	1.74
379.696	2.02
380.062	1.49
380.429	1.9
380.795	1.95
381.161	1.66
381.528	1.87
381.894	1.51
382.26	1.82
382.626	2.01
382.993	2.09
383.359	1.52
383.725	1.64
384.091	1.82
384.457	1.63
384.823	1.93
385.188	2.17
385.554	1.82
385.92	2.09
386.286	2.01
386.651	1.81
387.017	1.99
387.383	1.77
387.748	2.03
388.114	1.76
388.479	1.91
388.845	1.6
389.21	1.74
389.575	2.06
389.94	1.72
390.306	1.73
390.671	2.17
391.036	1.67
391.401	1.84
391.766	1.73
392.131	1.9
392.496	1.97
392.861	1.61
393.226	2.19
393.591	1.94
393.956	1.77
394.32	1.86
394.685	1.86
395.05	2
395.414	1.83
395.779	1.89
396.143	1.78
396.508	1.89
396.872	1.69
397.236	1.85
397.601	1.78
397.965	1.87
398.329	1.76
398.694	1.95
399.058	1.67
399.422	1.57
399.786	2.04
400.15	2.01
400.514	1.83
400.878	1.88
401.242	2.01
401.605	1.74
401.969	1.4
402.333	2.01
402.697	1.99
403.06	1.7
403.424	1.6
403.787	1.72
404.151	1.91
404.514	2.03
404.878	2.09
405.241	2.06
405.604	1.9
405.968	1.92
406.331	1.96
406.694	1.87
407.057	1.73
407.42	1.78
407.783	1.78
408.146	1.83
408.509	1.71
408.872	1.82
409.235	1.82
409.598	1.65
409.961	1.81
410.323	1.91
410.686	1.86
411.049	2.07
411.411	1.93
411.774	1.6
412.136	1.92
412.499	1.65
412.861	2.08
413.223	1.85
413.586	1.93
413.948	1.86
414.31	1.76
414.672	1.88
415.035	1.76
415.397	1.9
415.759	2.16
416.121	1.88
416.483	1.8
416.845	1.67
417.206	1.82
417.568	1.72
417.93	1.84
418.292	1.7
418.653	1.78
419.015	1.78
419.377	1.93
419.738	1.84
420.1	1.74
420.461	1.82
420.822	1.74
421.184	1.92
421.545	1.76
421.906	1.75
422.267	1.72
422.629	1.91
422.99	1.77
423.351	1.73
423.712	1.77
424.073	1.84
424.434	1.88
424.795	1.71
425.155	1.88
425.516	1.87
425.877	1.76
426.238	1.7
426.598	1.7
426.959	1.76
427.32	1.85
427.68	1.78
428.041	1.76
428.401	1.97
428.761	2
429.122	1.91
429.482	1.9
429.842	1.87
430.202	1.85
430.563	1.83
430.923	1.85
431.283	1.91
431.643	2
432.003	1.92
432.363	2.03
432.722	1.95
433.082	1.87
433.442	1.71
433.802	2.11
434.161	1.87
434.521	1.9
434.881	1.86
435.24	1.78
435.6	1.89
435.959	1.79
436.319	1.89
436.678	1.96
437.037	1.96
437.396	1.9
437.756	1.77
438.115	1.8
438.474	1.76
438.833	1.98
439.192	2.05
439.551	1.95
439.91	2.05
440.269	2.03
440.628	1.77
440.987	1.89
441.345	2.05
441.704	2.03
442.063	1.88
442.421	1.99
442.78	1.95
443.138	1.93
443.497	1.93
443.855	2
444.214	1.84
444.572	2.03
444.93	1.94
445.288	2.02
445.647	1.95
446.005	1.93
446.363	1.91
446.721	2.03
447.079	1.83
447.437	1.92
447.795	2.01
448.153	1.79
448.51	1.91
448.868	1.86
449.226	1.85
449.584	1.85
449.941	1.82
450.299	2.02
450.656	2.04
451.014	2.11
451.371	2.01
451.729	1.93
452.086	1.91
452.443	2
452.801	2.08
453.158	2.02
453.515	2.1
453.872	2
454.229	1.95
454.586	1.98
454.943	2.07
455.3	1.92
455.657	1.96
456.014	2.08
456.371	1.94
456.727	2.11
457.084	2.01
457.441	1.96
457.797	2
458.154	1.87
458.51	1.91
458.867	1.91
459.223	2.01
459.58	2.06
459.936	2.13
460.292	2.14
460.648	2.11
461.005	2.01
461.361	2.1
461.717	1.84
462.073	1.92
462.429	1.93
462.785	1.85
463.141	1.94
463.496	1.99
463.852	2
464.208	2
464.564	1.94
464.919	1.96
465.275	2.16
465.631	2.22
465.986	2.05
466.342	2.18
466.697	2.16
467.052	2.02
467.408	2.16
467.763	2.11
468.118	2.14
468.473	2.04
468.829	1.89
469.184	2.11
469.539	2.05
469.894	2.03
470.249	2.15
470.603	1.99
470.958	2.04
471.313	2.07
471.668	2.06
472.023	2.05
472.377	1.94
472.732	1.83
473.086	2.11
473.441	2.01
473.795	2.16
474.15	1.89
474.504	1.93
474.859	2.06
475.213	1.91
475.567	1.95
475.921	2.04
476.275	2.02
476.63	1.94
476.984	1.89
477.338	2.09
477.692	2.06
478.045	2.09
478.399	2.26
478.753	1.94
479.107	2
479.461	2.09
479.814	1.99
480.168	2.2
480.521	2.2
480.875	2.2
481.228	2.06
481.582	1.99
481.935	2.04
482.289	1.96
482.642	1.96
482.995	2.09
483.348	2.06
483.701	2.11
484.055	2.08
484.408	2
484.761	1.99
485.114	1.87
485.466	1.85
485.819	1.85
486.172	1.87
486.525	1.84
486.878	1.89
487.23	1.92
487.583	1.97
487.936	1.95
488.288	2
488.641	1.95
488.993	1.89
489.345	1.91
489.698	1.88
490.05	1.85
490.402	1.92
490.754	1.88
491.107	1.91
491.459	1.97
491.811	2
492.163	2.07
492.515	2.01
492.866	1.96
493.218	2.04
493.57	1.96
493.922	1.9
494.274	1.94
494.625	1.96
494.977	2.02
495.328	2.05
495.68	2.06
496.031	1.9
496.383	2.11
496.734	1.94
497.086	1.99
497.437	2.19
497.788	2.05
498.139	2.03
498.49	2.09
498.842	1.93
499.193	1.97
499.544	2.08
499.894	2.02
500.245	1.96
500.596	2.02
500.947	2.16
501.298	2.06
501.648	2.04
501.999	2.1
502.35	2.03
502.7	2.14
503.051	2.01
503.401	1.98
503.752	2.16
504.102	2.01
504.452	2.05
504.803	1.99
505.153	2.08
505.503	2.12
505.853	2.16
506.203	2.02
506.553	2.22
506.903	2.13
507.253	2.05
507.603	2.07
507.953	2.14
508.303	2.12
508.652	1.98
509.002	2.18
509.352	1.99
509.701	2.17
510.051	2.15
510.4	2.12
510.75	2.04
511.099	1.97
511.449	2.09
511.798	2.17
512.147	2.16
512.496	2
512.846	2.05
513.195	2.08
513.544	2.07
513.893	2.09
514.242	2.07
514.591	2.03
514.939	2.11
515.288	1.96
515.637	2.07
515.986	1.95
516.334	2.18
516.683	2.08
517.032	2.07
517.38	2.16
517.729	2.05
518.077	2.01
518.426	2.12
518.774	2.08
519.122	2.09
519.47	2.05
519.819	2
520.167	2.17
520.515	1.99
520.863	1.98
521.211	1.94
521.559	2.04
521.907	2.12
522.255	2.04
522.602	2.13
522.95	1.99
523.298	2.13
523.645	2.06
523.993	1.99
524.341	1.96
524.688	2.11
525.036	2.03
525.383	2.05
525.73	2.08
526.078	2.05
526.425	1.96
526.772	2.13
527.119	2.03
527.466	1.95
527.814	1.92
528.161	1.95
528.508	2.01
528.854	2
529.201	1.99
529.548	2.01
529.895	2
530.242	1.98
530.588	1.91
530.935	1.84
531.282	1.92
531.628	1.98
531.975	1.9
532.321	1.92
532.667	1.98
533.014	1.99
533.36	2.01
533.706	2
534.052	2.07
534.399	2.06
534.745	2
535.091	1.96
535.437	1.91
535.783	1.92
536.129	1.96
536.474	2
536.82	1.92
537.166	2.1
537.512	2.05
537.857	1.96
538.203	2.09
538.549	2.06
538.894	1.94
539.239	1.96
539.585	1.88
539.93	2.03
540.276	2.08
540.621	1.98
540.966	2.02
541.311	2.08
541.656	2.02
542.001	2
542.346	2.03
542.691	2.13
543.036	2.01
543.381	1.99
543.726	1.98
544.071	1.92
544.415	1.95
544.76	1.99
545.105	1.86
545.449	1.93
545.794	2.02
546.138	2.03
546.483	1.96
546.827	1.94
547.171	2.02
547.516	2.12
547.86	2.03
548.204	2.08
548.548	2.06
548.892	2.07
549.236	2.03
549.58	2.08
549.924	2.07
550.268	2.09
550.612	2.01
550.956	2.05
551.3	2.15
551.643	2.15
551.987	2.2
552.33	2.35
552.674	2.12
553.017	2.01
553.361	1.96
553.704	2.11
554.048	2.23
554.391	2.11
554.734	2.12
555.077	2.03
555.42	2
555.764	2.15
556.107	2.12
556.45	2.13
556.793	2.03
557.135	2.12
557.478	2.01
557.821	2.15
558.164	2.12
558.507	2.29
558.849	2.1
559.192	2.19
559.534	2.29
559.877	2.05
560.219	2.19
560.562	2.06
560.904	2.25
561.246	2.27
561.589	2.35
561.931	2.07
562.273	2.06
562.615	2.01
562.957	2.06
563.299	2.07
563.641	2.1
563.983	2.19
564.325	2.25
564.667	2.24
565.008	2.06
565.35	2.15
565.692	2.13
566.033	2.07
566.375	2.12
566.716	2.09
567.058	2.28
567.399	2.14
567.741	2.34
568.082	2.21
568.423	2.13
568.764	2.21
569.105	1.83
569.447	1.99
569.788	1.84
570.129	2.04
570.47	2.29
570.811	2.15
571.151	2.16
571.492	2.01
571.833	1.89
572.174	2.05
572.514	2.13
572.855	2
573.195	1.92
573.536	1.98
573.876	2.04
574.217	1.93
574.557	2.09
574.898	2.24
575.238	2.05
575.578	2.19
575.918	2.23
576.258	1.95
576.598	2.17
576.938	2.29
577.278	2.24
577.618	1.89
577.958	2.09
578.298	2.24
578.638	2.05
578.977	2.2
579.317	2.12
579.657	2.07
579.996	2.17
580.336	2.16
580.675	2.26
581.014	1.9
581.354	2.03
581.693	2.24
582.032	2.16
582.372	2.09
582.711	2.21
583.05	2.1
583.389	2.11
583.728	2.2
584.067	2.14
584.406	1.99
584.745	2.15
585.083	2.24
585.422	2.26
585.761	2.27
586.1	2.18
586.438	2.18
586.777	2.03
587.115	2.19
587.454	1.93
587.792	2.35
588.13	2.26
588.469	1.96
588.807	2.23
589.145	2.29
589.483	2.05
589.821	2.28
590.159	1.97
590.497	2.39
590.835	2.25
591.173	1.98
591.511	2.18
591.849	2.18
592.187	2.15
592.524	2.38
592.862	2.26
593.2	2.13
593.537	2.06
593.875	2.13
594.212	2.26
594.55	2.39
594.887	2.05
595.224	2.19
595.561	2.36
595.899	2.39
596.236	2.54
596.573	2.32
596.91	2.2
597.247	2.22
597.584	2.41
597.921	2.39
598.258	2.13
598.594	2.33
598.931	2.04
599.268	2.1
599.604	2.23
599.941	2.4
600.277	2.05
600.614	2.01
600.95	2.16
601.287	2.15
601.623	2.38
601.959	2.27
602.296	2.12
602.632	1.91
602.968	2.34
603.304	2.37
603.64	2.09
603.976	2.43
604.312	2.2
604.648	2.1
604.984	2.23
605.319	2.34
605.655	2.06
605.991	2.15
606.326	2.13
606.662	2.22
606.998	2.04
607.333	2.26
607.668	2.14
608.004	2.21
608.339	2.06
608.674	2.11
609.01	2.16
609.345	2.09
609.68	2.37
610.015	2.26
610.35	2.35
610.685	2.13
611.02	2.21
611.355	2.34
611.689	2.16
612.024	2.3
612.359	2.19
612.694	2.12
613.028	2.02
613.363	1.84
613.697	2.23
614.032	2.17
614.366	2.16
614.7	2.2
615.035	2.12
615.369	2.02
615.703	2.01
616.037	2.04
616.371	2.41
616.705	2.27
617.039	2.23
617.373	2
617.707	1.87
618.041	2.41
618.375	2.51
618.709	2.44
619.042	2.31
619.376	2.46
619.71	2.4
620.043	2.05
620.377	2.19
620.71	1.95
621.043	2.25
621.377	2.09
621.71	2.16
622.043	2.42
622.376	2.45
622.709	2.09
623.043	2.01
623.376	2.32
623.709	2.44
624.041	2.14
624.374	2.17
624.707	2.27
625.04	2.34
625.373	1.85
625.705	2.1
626.038	2.21
626.37	2.52
626.703	2.01
627.035	2.12
627.368	2.12
627.7	2.14
628.032	2.41
628.365	2.33
628.697	2.15
629.029	2.29
629.361	2.14
629.693	2.45
630.025	2.2
630.357	2.19
630.689	2.24
631.021	2.36
631.353	2.27
631.684	2.12
632.016	2.45
632.348	2.3
632.679	1.94
633.011	2.27
633.342	2.31
633.674	2.42
634.005	2.05
634.336	2.21
634.668	2.19
634.999	2.13
635.33	2.56
635.661	2.77
635.992	2.32
636.323	2.13
636.654	2.19
636.985	2.01
637.316	2.28
637.647	2.31
637.977	1.95
638.308	2.49
638.639	2.44
638.969	2.17
639.3	2.26
639.63	2.63
639.961	1.98
640.291	2.11
640.622	2.39
640.952	2.25
641.282	2.67
641.612	2.23
641.943	2.14
642.273	2.34
642.603	1.82
642.933	2.01
643.263	1.8
643.592	2.07
643.922	2.48
644.252	2.17
644.582	2.79
644.911	2.34
645.241	2.84
645.571	2.36
645.9	2.9
646.23	2.7
646.559	2.11
646.888	2.78
647.218	2.28
647.547	2.16
647.876	2.36
648.205	2
648.534	2.17
648.863	1.93
649.192	1.94
649.521	2.41
649.85	2.59
650.179	2.2
650.508	2.07
650.837	2.43
651.165	2.23
651.494	2.22
651.822	2.29
652.151	2.11
652.479	2.42
652.808	2.24
653.136	2.88
653.465	2.22
653.793	1.96
654.121	2.64
654.449	1.87
654.777	2.05
655.105	2.28
655.433	2.71
655.761	2.71
656.089	2.17
656.417	1.96
656.745	2.41
657.073	2.29
657.4	3.05
657.728	2.39
658.056	2.4
658.383	2.68
658.711	1.96
659.038	1.84
659.365	2.21
659.693	2.25
660.02	2.56
660.347	2.64
660.674	1.82
661.001	1.6
661.329	2.29
661.656	2.23
661.982	1.99
662.309	2.58
662.636	2.04
662.963	2.58
663.29	2.33
663.616	2.35
663.943	2.42
664.27	2.73
664.596	2
664.923	2.37
665.249	2.17
665.576	2.14
665.902	2.41
666.228	2.07
666.554	2.02
666.881	2.81
667.207	1.98
667.533	2.02
667.859	2.13
668.185	2.12
668.511	2.59
668.837	1.76
669.162	2.33
669.488	1.83
669.814	2.09
670.139	2.58
670.465	2.25
670.791	2.87
671.116	2.49
671.442	2.72
671.767	1.62
672.092	2.7
672.418	2.93
672.743	2.45
673.068	2.2
673.393	1.88
673.718	2.9
674.043	2.51
674.368	2.56
674.693	1.97
675.018	2.4
675.343	2.43
675.667	1.58
675.992	2.15
676.317	2.83
676.641	2.03
676.966	2.27
677.29	2.31
677.615	2.56
677.939	2.93
678.264	2.51
678.588	2.36
678.912	2.65
679.236	2.51
679.56	2.1
679.885	2.19
680.209	3.39
680.532	2.41
680.856	1.19
681.18	2.64
681.504	2.51
681.828	3.04
682.152	2.74
682.475	2.83
682.799	2.51
683.122	2.71
683.446	2.13
683.769	2.22
684.093	2.7
684.416	2.49
684.739	2.64
685.062	3.21
685.386	2.22
685.709	2.76
686.032	2.38
686.355	2.11
686.678	2.36
687.001	2.55
687.324	2.8
687.646	2.64
687.969	2.86
688.292	2.59
688.614	3.34
688.937	2.06
689.26	1.48
689.582	2.66
689.904	2.1
690.227	3.24
690.549	2.78
690.871	1.81
691.194	2.94
691.516	2.57
691.838	2.44
692.16	2.5
692.482	2.38
692.804	2.41
693.126	1.59
693.448	2.82
693.769	2.53
694.091	3.3
694.413	2.7
694.735	2.98
695.056	2.63
695.378	2.67
695.699	2.25
696.021	2.52
696.342	3.2
696.663	2.11
696.984	2.33
697.306	2.11
697.627	1.82
697.948	2.05
698.269	2.69
698.59	2.26
698.911	1.85
699.232	2.35
699.553	2.5
699.873	2.33
700.194	2.19
700.515	2.06
700.835	2.71
701.156	2.69
701.477	2.38
701.797	2.41
702.117	2.62
702.438	2.51
702.758	2.01
703.078	1.68
703.398	2.89
703.719	2.29
704.039	3.42
704.359	2.29
704.679	1.98
704.999	2.97
705.319	2.09
705.638	2.02
705.958	3.25
706.278	3.21
706.597	2.32
706.917	2.03
707.237	1.97
707.556	2.33
707.876	2.24
708.195	2.95
708.514	3.03
708.834	1.79
709.153	3.23
709.472	2.59
709.791	2.5
710.11	2.29
710.429	2.53
710.748	3.17
711.067	1.93
711.386	3.74
711.705	3.02
712.023	3.24
712.342	2.53
712.661	3.6
712.979	2.56
713.298	2.69
713.616	2.56
713.935	3.07
714.253	3.62
714.572	3.08
714.89	2.83
715.208	2.97
715.526	1.32
715.844	2.87
716.162	1.74
716.48	2.85
716.798	2.35
717.116	2.27
717.434	2.78
717.752	2.1
718.069	2.64
718.387	2.4
718.705	2.05
719.022	3.27
719.34	3.47
719.657	1.55
719.975	3.46
720.292	2.85
720.609	3.22
720.927	3.83
721.244	3.72
721.561	4.06
721.878	2.16
722.195	2.47
722.512	3.02
722.829	3.84
723.146	2.51
723.463	2.55
723.779	2.58
724.096	1.59
724.413	4.75
724.729	3.73
725.046	3.45
725.362	3.23
725.679	2.11
725.995	3.63
726.311	2.34
726.628	1.65
726.944	1.9
727.26	2.97
727.576	3.58
727.892	1.98
728.208	4.15
728.524	3.18
728.84	2.33
729.156	2.44
729.472	3.73
729.787	2.92
730.103	1.91
730.419	2.76
730.734	2.96
731.05	1.91
731.365	1.9
731.681	2.44
731.996	2.35
732.311	3.22
732.626	2.18
732.942	2.57
733.257	2.2
733.572	1.59
733.887	3.1
734.202	3.93
734.517	2.78
734.832	3.24
735.146	3.94
735.461	3.44
735.776	2.15
736.091	2.73
736.405	1.58
736.72	3.1
737.034	1.59
737.349	1.79
737.663	1.97
737.977	2.88
738.292	2.41
738.606	2.45
738.92	3.28
739.234	2.86
739.548	3.21
739.862	0.23
740.176	2.4
740.49	1.16
740.804	2.98
741.117	3.03
741.431	2.55
741.745	4.42
742.058	2.31
742.372	1.02
742.685	3.11
742.999	3.94
743.312	3.63
743.626	1.62
743.939	0.48
744.252	1.45
744.565	1.32
744.878	3.4
745.191	2.93
745.505	1.78
745.817	3.23
746.13	4.51
746.443	4.75
746.756	2.74
747.069	3.53
747.381	-0.59
747.694	3.37
748.007	3.9
748.319	4.91
748.632	4.14
748.944	2.57
749.256	4.11
749.569	3.64
749.881	2.15
750.193	2.82
750.505	4.23
750.817	4.07
751.129	1.92
751.441	4.69
751.753	4.11
752.065	4.06
752.377	3.13
752.689	2.39
753	2.65
753.312	2.17
753.624	2.33
753.935	4.36
754.247	-0.17
754.558	4.06
754.869	3.34
755.181	1.04
755.492	2.36
755.803	4.91
756.114	3.36
756.425	3.86
756.736	0.93
757.047	2.77
757.358	3.88
757.669	2.01
757.98	2.64
758.291	2.42
758.601	3.8
758.912	2.27
759.223	4.77
759.533	1.67
759.844	2.32
760.154	2.96
760.464	2.44
760.775	3.64
761.085	4.64
761.395	2.17
761.705	2.27
762.016	1.52
762.326	3.43
762.636	2.06
762.945	1.86
763.255	2.71
763.565	3.35
763.875	2.86
764.185	1.81
764.494	3.24
764.804	3.38
765.113	2.62
765.423	2.63
765.732	1.86
766.042	2.45
766.351	2.9
766.66	3.68
766.97	2.95
767.279	2.29
767.588	2.89
767.897	2.32
768.206	3.47
768.515	2.63
768.824	1.69
769.133	3.28
769.441	2.67
769.75	3.52
770.059	3.84
770.367	2.78
770.676	3.71
770.984	0.97
771.293	2.87
771.601	4.36
771.91	4.85
772.218	0.51
772.526	1.92
772.834	2.08
773.142	2.62
773.45	3.7
773.758	2.7
774.066	0.74
774.374	3.31
774.682	1.81
774.99	4.82
775.298	4.06
775.605	2.61
775.913	5.65
776.22	1.1
776.528	2.64
776.835	3.76
777.143	2.28
777.45	3.5
777.757	5.66
778.065	3.92
778.372	3.53
778.679	4.55
778.986	3.15
779.293	0.93
779.6	4.2
779.907	4.62
780.214	6.67
780.52	2.45
780.827	4.02
781.134	5.5
781.44	5.34
781.747	3.45
782.053	4.04
782.36	2.69
782.666	3.34
782.973	6.92
783.279	2.99
783.585	6.17
783.891	1.71
784.197	3.38
784.503	5.51
784.809	3.88
785.115	2.32
785.421	7.25
785.727	4.04
786.033	5.29
786.339	0.79
786.644	4.04
786.95	3.65
787.255	4.01
787.561	4.55
787.866	5.51
788.172	4.7
788.477	1.93
788.782	1.77
789.088	2.14
789.393	-1.65
789.698	3.06
790.003	4.46
790.308	0.17
790.613	-0.68
790.918	2.03
791.223	2.86
791.527	0.02
791.832	3.04
792.137	4.82
792.441	7.55
792.746	1.47
793.05	4.54
793.355	5.36
793.659	7.21
793.963	4.19
794.268	2.2
794.572	-2.38
794.876	2.6
795.18	2.49
795.484	1.9
795.788	1.8
796.092	3.26
796.396	3.64
796.7	2.83
797.004	4.84
797.307	-2.45
797.611	-2.45
797.915	1.82
798.218	3.22
798.522	3.4
798.825	3.38
799.128	2.53
799.432	4.48
799.735	6.59
800.038	3.34
800.341	-0.34
800.644	7.6
800.947	-0.05
801.25	7.59
801.553	5.2
801.856	10.09
802.159	4.08
802.462	1.46
802.764	4.86
803.067	0.13
803.37	7.78
803.672	1.26
803.975	2.93
804.277	7.41
804.579	5.1
804.882	5.41
805.184	2.23
805.486	4.67
805.788	7.21
806.09	0.57
806.392	-0.28
806.694	4.43
806.996	2
807.298	3.29
807.6	4.79
807.902	0.86
808.203	6.75
808.505	-1.23
808.807	5.37
809.108	6.17
809.409	6.73
809.711	3.99
810.012	6.16
810.313	4.03
810.615	1.05
810.916	4.24
811.217	0.68
811.518	5.38
811.819	4.68
812.12	3.82
812.421	3.73
812.722	7.11
813.023	2.59
813.323	0.68
813.624	7.64
813.925	9.35
814.225	9.09
814.526	5.06
814.826	9.94
815.126	4.28
815.427	1.32
815.727	-0.1
816.027	2.55
816.327	5.47
816.627	3.9
816.927	11.4
817.227	6.71
817.527	4.58
817.827	-1.82
818.127	2.62
818.427	5.96
818.727	-1.56
819.026	8.87
819.326	5.7
819.625	1.49
819.925	0.31
820.224	3.38
820.524	0.35
820.823	-1.33
821.122	-9.54
821.421	6.22
821.72	8.15
822.019	3.66
822.318	3.2
822.617	5.98
822.916	4.94
823.215	3.12
823.514	3.85
823.813	6.15
824.111	6.57
824.41	5.99
824.709	1.61
825.007	2.38
825.306	2.61
825.604	2.8
825.902	3.7
826.201	3.22
826.499	3.42
826.797	3.78
827.095	4.92
827.393	4.34
827.691	3.64
827.989	2.82
828.287	2.38
828.585	3.53
828.882	1.7
829.18	2.24
829.478	0.82
829.775	3.79
830.073	0.59
830.37	2.03
830.668	1.89
830.965	4.73
831.263	3.28
831.56	4.35
831.857	3.69
832.154	5.1
832.451	2.75
832.748	4.07
833.045	6.16
833.342	1.64
833.639	5.91
833.936	5.74
834.232	1.91
834.529	9.3
834.826	1.8
835.122	3.51
835.419	-0.19
835.715	1.53
836.012	0.36
836.308	7.07
836.604	5.32
836.901	0.75
837.197	4.98
837.493	3.94
837.789	3.15
838.085	3.85
838.381	-1.5
838.677	3.75
838.972	5.15
839.268	9.49
839.564	7.96
839.86	2.98
840.155	8.85
840.451	-1.28
840.746	11.74
841.042	5.18
841.337	3.8
841.632	7.15
841.928	2.34
842.223	4.65
842.518	6.46
842.813	4.94
843.108	6.58
843.403	7.28
843.698	5.46
843.993	8.57
844.287	3.48
844.582	-1.58
844.877	-4.7
845.171	6.06
845.466	1.82
845.761	2.99
846.055	4.73
846.349	-3.78
846.644	3.33
846.938	0.87
847.232	-0.66
847.526	-3.9
847.82	-6.14
848.114	15.24
848.408	9.5
848.702	-0.02
848.996	13.3
849.29	-6.49
849.584	6.81
849.877	23.45
850.171	-0.74
850.465	11.46
850.758	16.66
851.052	-8.8
851.345	15.61
851.638	8.06
851.932	23.8
852.225	-1.51
852.518	-4.33
852.811	11.23
853.104	3.18
853.397	10.41
853.69	-9.26
853.983	14.37
854.276	-3.58
854.569	16.18
854.861	1.41
855.154	1.18
855.447	-4
855.739	-14.38
856.032	-5.21
856.324	2.43
856.616	6.68
856.909	-2.92
857.201	-0.94
857.493	-1.39
857.785	23.79
858.077	25.56
858.369	4.38
858.661	22.64
858.953	18.93
859.245	17.03
859.537	11.84
859.829	0.78
860.12	9.54
860.412	-2.32
860.703	-9.74
860.995	-13.82
861.286	2.35
861.578	10.53
861.869	-0.45
862.16	-14.38
862.452	-38.43
862.743	30.57
863.034	39.87
863.325	23.04
863.616	2.15
863.907	14.82
864.198	7.95
864.488	7.69
864.779	-3.46
865.07	15.14
865.36	0.28
865.651	7
865.941	-22.47
866.232	-11.86
866.522	14.43
866.813	-1.41
867.103	3.48
867.393	18.29
867.683	22.58
867.973	-4.24
868.263	8.51
868.553	-21.53
868.843	-3.26
869.133	25.56
869.423	4.9
869.713	2.89
870.002	23.88
870.292	0.06
870.582	6.32
870.871	1.12
871.161	-23.66
871.45	-42.63
871.739	10.08
872.029	17.78
872.318	17.47
872.607	13.39
872.896	4.31
873.185	-8.2
873.474	9.74
873.763	-46.25
874.052	44.26
874.341	5.66
874.63	19.04
874.918	-6.94
875.207	22.09
875.496	20.27
875.784	-3.77
876.073	0.87
876.361	-0.88
876.649	-2.55
876.938	25.41
877.226	8.59
877.514	-3.03
877.802	-28.12
878.09	11.15
878.378	13.33
878.666	7.7
878.954	14.84
879.242	9.23
879.53	41.4
879.817	18.37
880.105	-4.13
880.392	-25.86
880.68	-12.68
880.967	28.49
881.255	-18.02
881.542	13.92
881.83	26.28
882.117	-3.26
882.404	21.58
882.691	-21.76
882.978	27.12
883.265	-10.96
883.552	17.33
883.839	0.26
884.126	20.52
884.413	2.11
884.699	7.18
884.986	17.47
885.273	-0.59
885.559	-0.59
885.846	-0.59
