Data from 815650_crown_Reflection__3__138.txt Node

Date: Fri Sep 16 15:47:12 CDT 2022
User: ToomeyLab
Spectrometer: FLMS14357
Trigger mode: 0
Integration Time (sec): 1.000000E-2
Scans to average: 100
Electric dark correction enabled: true
Nonlinearity correction enabled: false
Boxcar width: 0
XAxis mode: Wavelengths
Number of Pixels in Spectrum: 2048
>>>>>Begin Spectral Data<<<<<
189.047	248.34
189.435	248.34
189.823	248.34
190.211	685.89
190.599	-220.24
190.987	121.6
191.375	95.46
191.763	290.09
192.151	-147.98
192.538	134.08
192.926	-39.24
193.314	23.51
193.702	76.38
194.089	-470.41
194.477	265.57
194.864	-6.19
195.252	12.92
195.639	131.28
196.027	50.57
196.414	49.74
196.801	148.81
197.189	-11.39
197.576	97.21
197.963	394.57
198.351	-36.73
198.738	3.85
199.125	39.45
199.512	-170
199.899	22.55
200.286	-22.12
200.673	7.64
201.06	28.35
201.447	22.4
201.833	12.46
202.22	-0.47
202.607	-51.44
202.994	42.17
203.38	-14.57
203.767	1.1
204.154	49.16
204.54	-16.21
204.927	-16.22
205.313	30.18
205.699	32.56
206.086	51.86
206.472	27.03
206.858	4.51
207.245	23.67
207.631	22.17
208.017	24.59
208.403	-20.38
208.789	-16.46
209.175	29.4
209.561	-2.95
209.947	-18.57
210.333	-6.09
210.719	-3.48
211.105	3.07
211.491	-6.6
211.876	20.38
212.262	28.06
212.648	14.31
213.034	-1.07
213.419	2.66
213.805	-1.17
214.19	13.67
214.576	-21.11
214.961	-30.19
215.346	6.76
215.732	-21.75
216.117	31.88
216.502	-7.68
216.888	-35.66
217.273	9.67
217.658	16.32
218.043	-40.74
218.428	-1.58
218.813	-26.19
219.198	-16.37
219.583	-2.58
219.968	10.36
220.353	-25.59
220.738	11.37
221.122	-33.61
221.507	19.01
221.892	-10.21
222.276	-0.38
222.661	5.53
223.046	-1.67
223.43	13.42
223.815	-7.56
224.199	4.33
224.583	17.01
224.968	5.35
225.352	-14.87
225.736	14.94
226.121	3.02
226.505	4.35
226.889	7.11
227.273	2.32
227.657	2.97
228.041	3.9
228.425	-2.09
228.809	6.5
229.193	1.87
229.577	3.37
229.961	3.41
230.344	5.14
230.728	3.84
231.112	4.59
231.495	4.95
231.879	4.63
232.263	4.23
232.646	2.15
233.03	3.69
233.413	6.84
233.797	2.47
234.18	4.51
234.563	5.47
234.946	1.26
235.33	5.66
235.713	4.22
236.096	4.02
236.479	5.38
236.862	3.8
237.245	4.49
237.628	5.18
238.011	5.69
238.394	4.04
238.777	5.16
239.16	3.69
239.543	7.4
239.925	4.5
240.308	4.38
240.691	3.79
241.073	3.72
241.456	4.42
241.838	4.15
242.221	3.34
242.603	4.45
242.986	3.29
243.368	4.48
243.75	4.04
244.133	4.2
244.515	4.39
244.897	4.73
245.279	4.39
245.661	4.27
246.043	4.24
246.425	4.69
246.807	4.75
247.189	3.79
247.571	4.08
247.953	4.1
248.335	4.19
248.717	4.22
249.098	4.32
249.48	4.02
249.862	4.25
250.243	4.26
250.625	4.35
251.006	4.26
251.388	5.41
251.769	3.26
252.151	4.42
252.532	4.14
252.913	3.77
253.295	4.21
253.676	4.3
254.057	3.72
254.438	3.63
254.819	3.53
255.2	3.21
255.581	3.77
255.962	3.51
256.343	4.67
256.724	2.82
257.105	3.07
257.486	4.34
257.867	3.49
258.247	4.05
258.628	4.28
259.009	3.42
259.389	4.43
259.77	3.25
260.15	3.38
260.531	3.61
260.911	3.58
261.292	3.59
261.672	3.82
262.052	3.73
262.432	3.76
262.813	4.73
263.193	3.9
263.573	4.06
263.953	4.03
264.333	4
264.713	3.79
265.093	3.5
265.473	3.79
265.853	3.63
266.233	3.95
266.612	4.76
266.992	3.18
267.372	3.85
267.752	3.25
268.131	3.54
268.511	3.76
268.89	4.32
269.27	3.08
269.649	3.67
270.029	3.41
270.408	4.22
270.787	3.75
271.167	3.67
271.546	3.47
271.925	3.61
272.304	3.24
272.683	3.51
273.062	3.72
273.441	3.8
273.82	3.61
274.199	3.86
274.578	3.7
274.957	3.98
275.336	3.69
275.715	4.11
276.093	3.67
276.472	3.7
276.851	3.02
277.229	3.45
277.608	3.83
277.986	3.81
278.365	2.68
278.743	3.36
279.122	3.86
279.5	3.02
279.878	3.53
280.257	3.92
280.635	3.82
281.013	3.76
281.391	3.45
281.769	3.92
282.147	3.66
282.525	2.9
282.903	3.62
283.281	3.18
283.659	3.64
284.037	3.58
284.415	3.7
284.792	3.84
285.17	3.68
285.548	3.12
285.925	3.33
286.303	3.8
286.68	3.44
287.058	3.13
287.435	3.11
287.813	3.7
288.19	3.46
288.567	3.51
288.945	3.31
289.322	3.74
289.699	3.39
290.076	2.89
290.453	3.72
290.83	3.61
291.207	3.05
291.584	2.59
291.961	3.1
292.338	3.52
292.715	3.15
293.092	3.65
293.469	3.49
293.845	3.65
294.222	3.37
294.599	3.55
294.975	3.17
295.352	3.2
295.728	3
296.105	3.51
296.481	3.18
296.858	3.19
297.234	3.18
297.61	3.49
297.986	3.46
298.363	3.01
298.739	3.03
299.115	3.69
299.491	3.12
299.867	3.19
300.243	3.41
300.619	3.89
300.995	3.1
301.371	3.32
301.746	3.16
302.122	3.84
302.498	2.95
302.874	3.07
303.249	3.53
303.625	3.07
304	3.38
304.376	3.17
304.751	3.66
305.127	3.34
305.502	3.31
305.878	3.07
306.253	3.32
306.628	2.95
307.003	3.23
307.378	3.29
307.754	3.2
308.129	3.73
308.504	3.87
308.879	3.44
309.254	3.16
309.629	2.8
310.003	2.81
310.378	3.07
310.753	3.4
311.128	3.16
311.502	2.73
311.877	3.04
312.252	3.25
312.626	3.26
313.001	3.01
313.375	3.4
313.75	3.24
314.124	3.06
314.498	3.02
314.873	3.78
315.247	2.88
315.621	3.15
315.995	3.14
316.369	3.27
316.743	3.31
317.117	3.47
317.491	3.12
317.865	3.59
318.239	3.41
318.613	3.09
318.987	2.63
319.361	3.08
319.734	2.91
320.108	3.11
320.482	3.06
320.855	3.05
321.229	3.17
321.602	3.48
321.976	3.38
322.349	3.27
322.723	2.98
323.096	2.8
323.469	3.07
323.843	3.64
324.216	3.84
324.589	3.43
324.962	2.86
325.335	3.6
325.708	2.92
326.081	3.33
326.454	3.34
326.827	2.89
327.2	3.21
327.573	3.04
327.945	3.28
328.318	3.28
328.691	3
329.063	2.94
329.436	2.93
329.809	3.01
330.181	3.11
330.553	3.09
330.926	3.32
331.298	3.46
331.671	2.92
332.043	3.05
332.415	3.16
332.787	3.49
333.159	2.79
333.532	3.53
333.904	2.65
334.276	3.32
334.648	3.29
335.02	3.26
335.391	3.39
335.763	3.35
336.135	2.74
336.507	3.16
336.879	3.43
337.25	2.27
337.622	3.62
337.993	3.9
338.365	3.64
338.736	3.81
339.108	3.39
339.479	3.16
339.851	3.32
340.222	3.37
340.593	3.27
340.964	3.49
341.336	3.51
341.707	3.07
342.078	3.63
342.449	3.01
342.82	3.33
343.191	3.34
343.562	3.34
343.933	3.47
344.303	4.09
344.674	2.83
345.045	3.39
345.416	3.22
345.786	3.44
346.157	3.85
346.527	3.18
346.898	3.23
347.268	3.42
347.639	3.2
348.009	3.22
348.38	3.58
348.75	3.01
349.12	3.5
349.49	3.66
349.861	3.8
350.231	3.32
350.601	3.2
350.971	3.5
351.341	3.67
351.711	3.34
352.081	2.86
352.45	3.62
352.82	3.78
353.19	3.03
353.56	3.5
353.929	3.41
354.299	3.41
354.669	3.78
355.038	3.27
355.408	3.45
355.777	3.03
356.147	3.55
356.516	3.49
356.885	3.78
357.254	3.62
357.624	3.33
357.993	3.25
358.362	3.27
358.731	3.54
359.1	3.11
359.469	3.28
359.838	3.58
360.207	3.7
360.576	3.53
360.945	3.37
361.314	3.16
361.682	3.23
362.051	3.66
362.42	3.48
362.788	3.59
363.157	3.51
363.525	3.34
363.894	3.63
364.262	3.63
364.631	3.76
364.999	3.37
365.367	3.2
365.735	3.49
366.104	3.92
366.472	3.61
366.84	3.66
367.208	3.5
367.576	3.3
367.944	3.5
368.312	3.51
368.68	4.02
369.048	3.79
369.416	3.59
369.783	3.65
370.151	3.96
370.519	3.89
370.886	3.59
371.254	3.09
371.621	3.81
371.989	3.51
372.356	3.76
372.724	3.62
373.091	3.57
373.458	3.5
373.826	3.44
374.193	3.77
374.56	3.5
374.927	3.56
375.294	3.61
375.661	3.72
376.028	4.09
376.395	3.45
376.762	4.19
377.129	3.46
377.496	3.71
377.863	3.69
378.229	3.98
378.596	3.47
378.963	3.67
379.329	3.74
379.696	3.85
380.062	3.75
380.429	3.9
380.795	3.9
381.161	4.11
381.528	4.24
381.894	3.77
382.26	3.9
382.626	4
382.993	3.78
383.359	3.64
383.725	3.88
384.091	3.7
384.457	3.61
384.823	3.56
385.188	3.75
385.554	3.48
385.92	3.66
386.286	3.66
386.651	3.88
387.017	3.72
387.383	3.61
387.748	3.3
388.114	3.53
388.479	3.9
388.845	3.86
389.21	3.93
389.575	3.89
389.94	3.72
390.306	3.9
390.671	3.84
391.036	3.89
391.401	3.65
391.766	3.62
392.131	3.94
392.496	3.47
392.861	3.86
393.226	3.87
393.591	3.77
393.956	3.84
394.32	4.16
394.685	3.76
395.05	4.02
395.414	3.64
395.779	3.77
396.143	3.96
396.508	3.79
396.872	3.95
397.236	3.93
397.601	3.75
397.965	3.54
398.329	3.84
398.694	3.79
399.058	3.95
399.422	3.72
399.786	3.87
400.15	3.9
400.514	3.81
400.878	4.11
401.242	3.77
401.605	3.84
401.969	3.8
402.333	3.99
402.697	3.79
403.06	4.3
403.424	3.83
403.787	3.75
404.151	3.77
404.514	3.93
404.878	3.83
405.241	3.88
405.604	3.97
405.968	4.03
406.331	3.82
406.694	3.85
407.057	3.94
407.42	3.85
407.783	3.96
408.146	4.16
408.509	4.03
408.872	4.03
409.235	4.12
409.598	3.73
409.961	3.98
410.323	4.05
410.686	4
411.049	3.84
411.411	3.82
411.774	4.02
412.136	3.72
412.499	4.01
412.861	4.2
413.223	3.78
413.586	4.09
413.948	3.87
414.31	4.08
414.672	3.87
415.035	4.03
415.397	3.85
415.759	4.09
416.121	3.91
416.483	3.97
416.845	4.05
417.206	4
417.568	4.12
417.93	4.25
418.292	3.94
418.653	3.77
419.015	3.97
419.377	3.91
419.738	3.86
420.1	3.95
420.461	3.93
420.822	3.81
421.184	3.93
421.545	3.92
421.906	3.88
422.267	3.87
422.629	3.8
422.99	3.88
423.351	3.94
423.712	3.85
424.073	4.11
424.434	3.89
424.795	3.98
425.155	3.88
425.516	3.95
425.877	3.83
426.238	3.89
426.598	3.88
426.959	4.01
427.32	3.97
427.68	4.1
428.041	3.99
428.401	4.03
428.761	4.26
429.122	4.22
429.482	3.96
429.842	4.1
430.202	4.2
430.563	4.14
430.923	4.19
431.283	4.22
431.643	4.12
432.003	4.2
432.363	4.14
432.722	4.21
433.082	4.11
433.442	4.05
433.802	4.04
434.161	4.04
434.521	4.06
434.881	3.98
435.24	4.01
435.6	4.21
435.959	4.2
436.319	4.1
436.678	4.11
437.037	4.04
437.396	4.12
437.756	4.28
438.115	4.05
438.474	4.07
438.833	4.07
439.192	3.97
439.551	4.11
439.91	4.07
440.269	4.23
440.628	4.05
440.987	4.03
441.345	4.01
441.704	4.13
442.063	4.13
442.421	3.94
442.78	4.03
443.138	4.12
443.497	4.08
443.855	4.13
444.214	4.12
444.572	4.19
444.93	4.17
445.288	4.02
445.647	4.16
446.005	3.98
446.363	4.12
446.721	4.01
447.079	4.06
447.437	4.02
447.795	4.02
448.153	4.08
448.51	4.04
448.868	4.07
449.226	4.17
449.584	4.09
449.941	4.17
450.299	4.08
450.656	4.16
451.014	4.2
451.371	4.26
451.729	4.22
452.086	4.08
452.443	4.34
452.801	4.16
453.158	4.2
453.515	4.05
453.872	3.95
454.229	4.01
454.586	4.12
454.943	4.06
455.3	4.27
455.657	4.05
456.014	4.19
456.371	4.06
456.727	4.15
457.084	4.3
457.441	4.27
457.797	4.3
458.154	4.16
458.51	4.18
458.867	4.11
459.223	4.27
459.58	4.24
459.936	4.14
460.292	4.14
460.648	4.07
461.005	4.13
461.361	3.93
461.717	3.95
462.073	4.21
462.429	4.23
462.785	4.35
463.141	4.31
463.496	4.28
463.852	4.25
464.208	4.13
464.564	4.31
464.919	4.3
465.275	4.2
465.631	4.18
465.986	4.28
466.342	4.18
466.697	4.32
467.052	4.22
467.408	4.26
467.763	4.26
468.118	4.17
468.473	4.1
468.829	4.24
469.184	4.14
469.539	4.26
469.894	4.26
470.249	4.41
470.603	4.49
470.958	4.2
471.313	4.26
471.668	4.22
472.023	4.15
472.377	4.26
472.732	4.19
473.086	4.24
473.441	4.21
473.795	4.31
474.15	4.23
474.504	4.43
474.859	4.2
475.213	4.28
475.567	4.11
475.921	4.35
476.275	4.3
476.63	4.31
476.984	4.37
477.338	4.27
477.692	4.18
478.045	4.2
478.399	4.21
478.753	4.28
479.107	4.24
479.461	4.04
479.814	4.18
480.168	4.23
480.521	4.32
480.875	4.17
481.228	4.15
481.582	4.25
481.935	4.34
482.289	4.27
482.642	4.26
482.995	4.2
483.348	4.21
483.701	4.16
484.055	4.06
484.408	4.23
484.761	4.04
485.114	3.81
485.466	3.78
485.819	3.87
486.172	4
486.525	4.15
486.878	4.24
487.23	4.25
487.583	4.25
487.936	4.18
488.288	4.15
488.641	4
488.993	3.99
489.345	3.94
489.698	3.98
490.05	4.09
490.402	4.14
490.754	4.29
491.107	4.21
491.459	4.31
491.811	4.22
492.163	4.15
492.515	4.06
492.866	3.98
493.218	3.91
493.57	3.95
493.922	4.14
494.274	4.27
494.625	4.31
494.977	4.34
495.328	4.4
495.68	4.32
496.031	4.4
496.383	4.36
496.734	4.33
497.086	4.28
497.437	4.35
497.788	4.23
498.139	4.29
498.49	4.23
498.842	4.27
499.193	4.37
499.544	4.26
499.894	4.31
500.245	4.36
500.596	4.26
500.947	4.39
501.298	4.3
501.648	4.26
501.999	4.39
502.35	4.25
502.7	4.46
503.051	4.39
503.401	4.17
503.752	4.38
504.102	4.41
504.452	4.32
504.803	4.49
505.153	4.41
505.503	4.42
505.853	4.3
506.203	4.38
506.553	4.18
506.903	4.27
507.253	4.41
507.603	4.35
507.953	4.34
508.303	4.38
508.652	4.28
509.002	4.44
509.352	4.28
509.701	4.16
510.051	4.23
510.4	4.27
510.75	4.33
511.099	4.27
511.449	4.18
511.798	4.34
512.147	4.3
512.496	4.39
512.846	4.32
513.195	4.26
513.544	4.25
513.893	4.32
514.242	4.34
514.591	4.38
514.939	4.35
515.288	4.56
515.637	4.41
515.986	4.34
516.334	4.32
516.683	4.45
517.032	4.37
517.38	4.41
517.729	4.38
518.077	4.44
518.426	4.31
518.774	4.32
519.122	4.36
519.47	4.28
519.819	4.2
520.167	4.24
520.515	4.23
520.863	4.28
521.211	4.36
521.559	4.39
521.907	4.35
522.255	4.37
522.602	4.37
522.95	4.46
523.298	4.35
523.645	4.48
523.993	4.46
524.341	4.46
524.688	4.5
525.036	4.47
525.383	4.43
525.73	4.43
526.078	4.3
526.425	4.34
526.772	4.26
527.119	4.17
527.466	4.23
527.814	4.21
528.161	4.29
528.508	4.43
528.854	4.33
529.201	4.3
529.548	4.19
529.895	4.11
530.242	4.01
530.588	4.04
530.935	4.18
531.282	4.34
531.628	4.38
531.975	4.35
532.321	4.4
532.667	4.43
533.014	4.45
533.36	4.37
533.706	4.33
534.052	4.33
534.399	4.26
534.745	4.13
535.091	4.13
535.437	4.22
535.783	4.39
536.129	4.43
536.474	4.4
536.82	4.45
537.166	4.38
537.512	4.49
537.857	4.36
538.203	4.19
538.549	4.25
538.894	4.21
539.239	4.48
539.585	4.45
539.93	4.33
540.276	4.59
540.621	4.53
540.966	4.43
541.311	4.49
541.656	4.43
542.001	4.29
542.346	4.26
542.691	4.19
543.036	4.09
543.381	4.13
543.726	4.3
544.071	4.39
544.415	4.38
544.76	4.4
545.105	4.4
545.449	4.42
545.794	4.47
546.138	4.44
546.483	4.59
546.827	4.55
547.171	4.46
547.516	4.29
547.86	4.43
548.204	4.4
548.548	4.33
548.892	4.27
549.236	4.4
549.58	4.54
549.924	4.6
550.268	4.61
550.612	4.57
550.956	4.58
551.3	4.58
551.643	4.64
551.987	4.58
552.33	4.4
552.674	4.46
553.017	4.54
553.361	4.64
553.704	4.58
554.048	4.46
554.391	4.45
554.734	4.5
555.077	4.49
555.42	4.55
555.764	4.7
556.107	4.7
556.45	4.51
556.793	4.62
557.135	4.52
557.478	4.71
557.821	4.51
558.164	4.64
558.507	4.7
558.849	4.43
559.192	4.61
559.534	4.55
559.877	4.34
560.219	4.49
560.562	4.64
560.904	4.53
561.246	4.54
561.589	4.8
561.931	4.57
562.273	4.58
562.615	4.7
562.957	4.6
563.299	4.61
563.641	4.51
563.983	4.73
564.325	4.52
564.667	4.4
565.008	4.68
565.35	4.6
565.692	4.57
566.033	4.6
566.375	4.48
566.716	4.64
567.058	4.61
567.399	4.55
567.741	4.5
568.082	4.73
568.423	4.36
568.764	4.48
569.105	4.63
569.447	4.67
569.788	4.61
570.129	4.61
570.47	4.59
570.811	4.58
571.151	4.74
571.492	4.53
571.833	4.57
572.174	4.77
572.514	4.44
572.855	4.56
573.195	4.46
573.536	4.57
573.876	4.57
574.217	4.61
574.557	4.6
574.898	4.6
575.238	4.68
575.578	4.58
575.918	4.65
576.258	4.66
576.598	4.45
576.938	4.55
577.278	4.51
577.618	4.65
577.958	4.75
578.298	4.61
578.638	4.54
578.977	4.52
579.317	4.67
579.657	4.66
579.996	4.63
580.336	4.89
580.675	4.53
581.014	4.69
581.354	4.56
581.693	4.51
582.032	4.81
582.372	4.68
582.711	4.61
583.05	4.69
583.389	4.74
583.728	4.64
584.067	4.82
584.406	4.79
584.745	4.72
585.083	4.81
585.422	4.97
585.761	4.85
586.1	4.52
586.438	4.86
586.777	4.4
587.115	4.66
587.454	4.73
587.792	4.68
588.13	4.78
588.469	4.63
588.807	4.6
589.145	4.67
589.483	4.88
589.821	4.8
590.159	4.6
590.497	4.48
590.835	4.75
591.173	4.91
591.511	4.58
591.849	4.82
592.187	4.8
592.524	4.42
592.862	4.72
593.2	4.56
593.537	4.72
593.875	4.62
594.212	4.74
594.55	4.51
594.887	4.85
595.224	4.56
595.561	4.68
595.899	4.71
596.236	4.73
596.573	4.61
596.91	4.8
597.247	4.75
597.584	4.71
597.921	4.77
598.258	4.54
598.594	4.33
598.931	4.64
599.268	4.66
599.604	4.59
599.941	4.71
600.277	4.76
600.614	4.72
600.95	4.71
601.287	4.72
601.623	4.75
601.959	4.96
602.296	4.64
602.632	4.63
602.968	4.8
603.304	4.72
603.64	4.61
603.976	4.8
604.312	4.94
604.648	4.91
604.984	4.63
605.319	4.66
605.655	4.76
605.991	4.73
606.326	4.69
606.662	4.72
606.998	4.6
607.333	4.75
607.668	4.76
608.004	4.65
608.339	4.95
608.674	4.89
609.01	4.73
609.345	5.13
609.68	4.67
610.015	4.77
610.35	4.91
610.685	4.87
611.02	4.67
611.355	4.77
611.689	4.78
612.024	4.86
612.359	4.62
612.694	4.98
613.028	4.86
613.363	4.75
613.697	4.79
614.032	4.73
614.366	4.71
614.7	4.83
615.035	4.75
615.369	4.6
615.703	4.69
616.037	4.87
616.371	4.92
616.705	4.55
617.039	5.05
617.373	4.39
617.707	4.81
618.041	4.85
618.375	4.84
618.709	4.89
619.042	4.79
619.376	4.81
619.71	5.1
620.043	4.81
620.377	5.12
620.71	5.02
621.043	5.1
621.377	5
621.71	4.75
622.043	4.86
622.376	4.97
622.709	4.87
623.043	4.94
623.376	4.69
623.709	4.52
624.041	5.11
624.374	5.09
624.707	4.65
625.04	4.86
625.373	4.85
625.705	4.89
626.038	5.4
626.37	5.14
626.703	4.79
627.035	4.61
627.368	5.19
627.7	4.96
628.032	4.64
628.365	4.7
628.697	4.83
629.029	4.84
629.361	4.48
629.693	5.23
630.025	5.04
630.357	4.94
630.689	4.93
631.021	4.65
631.353	5.03
631.684	4.84
632.016	5.02
632.348	5.08
632.679	4.65
633.011	4.61
633.342	4.81
633.674	5.02
634.005	5.2
634.336	4.74
634.668	4.98
634.999	4.56
635.33	4.94
635.661	4.97
635.992	4.69
636.323	4.7
636.654	5.04
636.985	4.88
637.316	4.9
637.647	5.02
637.977	4.94
638.308	5.16
638.639	5.33
638.969	4.79
639.3	5.38
639.63	4.83
639.961	5.47
640.291	4.99
640.622	4.56
640.952	5.04
641.282	5.03
641.612	4.8
641.943	4.98
642.273	4.98
642.603	5.27
642.933	4.81
643.263	4.97
643.592	4.48
643.922	4.69
644.252	4.86
644.582	5
644.911	5.05
645.241	5.23
645.571	4.83
645.9	4.97
646.23	4.62
646.559	4.42
646.888	4.81
647.218	5.1
647.547	5.32
647.876	5.33
648.205	5.02
648.534	4.56
648.863	4.94
649.192	5.08
649.521	5.13
649.85	5.15
650.179	4.7
650.508	5.17
650.837	5.11
651.165	4.87
651.494	5.38
651.822	5.05
652.151	5.14
652.479	5.03
652.808	5.3
653.136	5.13
653.465	4.92
653.793	5.03
654.121	5.23
654.449	4.85
654.777	5.17
655.105	5.16
655.433	4.67
655.761	4.77
656.089	5
656.417	4.83
656.745	4.86
657.073	5.29
657.4	5.11
657.728	5.42
658.056	4.74
658.383	5.05
658.711	5.02
659.038	4.89
659.365	5.28
659.693	4.96
660.02	5.15
660.347	4.86
660.674	4.85
661.001	4.98
661.329	4.85
661.656	4.9
661.982	4.96
662.309	5.26
662.636	5.14
662.963	5.45
663.29	5.59
663.616	5.27
663.943	4.93
664.27	4.79
664.596	4.79
664.923	4.72
665.249	5.22
665.576	4.78
665.902	4.74
666.228	5.16
666.554	5.46
666.881	5.62
667.207	5.69
667.533	5.28
667.859	5.02
668.185	4.61
668.511	5.25
668.837	5.18
669.162	5.59
669.488	5.37
669.814	5.2
670.139	4.62
670.465	4.93
670.791	5.47
671.116	5.09
671.442	5.11
671.767	5.4
672.092	5.32
672.418	5.29
672.743	5.41
673.068	5.51
673.393	4.94
673.718	5.71
674.043	4.91
674.368	4.6
674.693	5.83
675.018	4.95
675.343	5.53
675.667	4.51
675.992	5.16
676.317	5.45
676.641	4.95
676.966	4.89
677.29	5.38
677.615	5.59
677.939	4.79
678.264	5.08
678.588	4.45
678.912	4.71
679.236	5.27
679.56	5.96
679.885	5.35
680.209	4.81
680.532	5.3
680.856	4.65
681.18	5.01
681.504	4.86
681.828	5.65
682.152	5.17
682.475	5.18
682.799	4.97
683.122	5.16
683.446	5.47
683.769	5.53
684.093	4.9
684.416	5.4
684.739	5.56
685.062	5.72
685.386	4.89
685.709	5.01
686.032	5.51
686.355	5.61
686.678	5.41
687.001	5.7
687.324	5.76
687.646	5.74
687.969	5.33
688.292	5.18
688.614	5.02
688.937	5.34
689.26	5.69
689.582	5.32
689.904	5.24
690.227	5.67
690.549	5.86
690.871	5.59
691.194	5.65
691.516	5.09
691.838	5.1
692.16	5.71
692.482	5.09
692.804	5.61
693.126	5.57
693.448	5.25
693.769	5.11
694.091	5.28
694.413	6.06
694.735	5.7
695.056	5.77
695.378	5.86
695.699	4.93
696.021	5.7
696.342	6.23
696.663	5.44
696.984	5.06
697.306	5.34
697.627	6.06
697.948	5.23
698.269	4.99
698.59	5.38
698.911	5.97
699.232	6.08
699.553	5.61
699.873	5.2
700.194	5.89
700.515	5.75
700.835	5.66
701.156	5.08
701.477	6.09
701.797	5.96
702.117	5.54
702.438	5.4
702.758	5.26
703.078	4.78
703.398	5.4
703.719	6.01
704.039	5.32
704.359	5.41
704.679	5.83
704.999	5.41
705.319	5.27
705.638	5.17
705.958	5.47
706.278	4.87
706.597	5.82
706.917	5.55
707.237	5.67
707.556	5.15
707.876	5.21
708.195	5.89
708.514	5.86
708.834	6.19
709.153	6.84
709.472	6.44
709.791	5.38
710.11	6.97
710.429	4.73
710.748	5.82
711.067	6.58
711.386	6.23
711.705	6.11
712.023	6.23
712.342	5.19
712.661	6.15
712.979	4.95
713.298	6.01
713.616	6.17
713.935	5.61
714.253	4.98
714.572	5.09
714.89	5.35
715.208	5.92
715.526	5.34
715.844	6.7
716.162	6.38
716.48	6.21
716.798	4.84
717.116	5.97
717.434	5.32
717.752	6.27
718.069	5.55
718.387	6.44
718.705	6.28
719.022	5.81
719.34	6.16
719.657	7.11
719.975	5.48
720.292	5.51
720.609	6.21
720.927	4.63
721.244	5.3
721.561	5.63
721.878	5.5
722.195	5.54
722.512	5.23
722.829	6.08
723.146	6.4
723.463	6.31
723.779	4.03
724.096	5.83
724.413	4.39
724.729	4.8
725.046	4.71
725.362	5.98
725.679	5.54
725.995	5.55
726.311	4.26
726.628	5.84
726.944	6.32
727.26	5.47
727.576	5.98
727.892	5.52
728.208	5.51
728.524	5.89
728.84	5.51
729.156	5.63
729.472	5.3
729.787	5.33
730.103	5.72
730.419	5.84
730.734	6.23
731.05	6.82
731.365	6.3
731.681	4.37
731.996	6.27
732.311	6.25
732.626	4.67
732.942	5.91
733.257	7.11
733.572	4.9
733.887	5.95
734.202	5
734.517	7.58
734.832	5.49
735.146	6.91
735.461	6.13
735.776	6.68
736.091	6.47
736.405	6.13
736.72	6.4
737.034	6.84
737.349	5.74
737.663	6.17
737.977	5.86
738.292	6.46
738.606	6.45
738.92	5.34
739.234	7.26
739.548	5.22
739.862	6.02
740.176	6.77
740.49	6.39
740.804	6.14
741.117	5.15
741.431	6.08
741.745	7.13
742.058	7.65
742.372	4.83
742.685	4.9
742.999	5.96
743.312	7.51
743.626	6.68
743.939	5.93
744.252	6.82
744.565	6.03
744.878	4.62
745.191	5.27
745.505	4.73
745.817	6.38
746.13	5.44
746.443	6.45
746.756	6.5
747.069	5.37
747.381	4.63
747.694	6.75
748.007	7.31
748.319	6.25
748.632	5.37
748.944	6.92
749.256	6.51
749.569	6.58
749.881	5.39
750.193	6.17
750.505	5.99
750.817	7.24
751.129	6.23
751.441	6.69
751.753	6.17
752.065	5.93
752.377	6.5
752.689	5.28
753	6.12
753.312	4.95
753.624	5.95
753.935	5.68
754.247	6.95
754.558	6.65
754.869	6.76
755.181	7.52
755.492	6.02
755.803	6.25
756.114	6.08
756.425	8.01
756.736	6.36
757.047	5.59
757.358	4.88
757.669	6.34
757.98	7.19
758.291	7.55
758.601	8.16
758.912	7.51
759.223	7.74
759.533	7.54
759.844	5.81
760.154	6.5
760.464	7.9
760.775	7.29
761.085	7.08
761.395	7.53
761.705	5.41
762.016	5.54
762.326	7.27
762.636	5.25
762.945	5.53
763.255	7.13
763.565	6.66
763.875	7.09
764.185	6.45
764.494	7.86
764.804	7.53
765.113	5.12
765.423	7.39
765.732	6.28
766.042	6.4
766.351	6.69
766.66	6.21
766.97	7.65
767.279	7.26
767.588	5.46
767.897	7.89
768.206	6.33
768.515	6.21
768.824	7.99
769.133	7.42
769.441	6.84
769.75	7.34
770.059	8.18
770.367	8.22
770.676	7.74
770.984	5.23
771.293	7.63
771.601	5.54
771.91	8.81
772.218	7.19
772.526	7.05
772.834	7.79
773.142	7.85
773.45	3.15
773.758	6.78
774.066	5.47
774.374	4.88
774.682	8.4
774.99	6.04
775.298	6.4
775.605	6.18
775.913	5.97
776.22	7.58
776.528	5.6
776.835	6.99
777.143	3.82
777.45	5.26
777.757	5.4
778.065	9.12
778.372	5.82
778.679	6.27
778.986	7.61
779.293	8.49
779.6	4.72
779.907	8.56
780.214	8.39
780.52	5.09
780.827	9.33
781.134	6.33
781.44	8.35
781.747	9.09
782.053	6.54
782.36	8.35
782.666	5.85
782.973	4.9
783.279	6.07
783.585	4.78
783.891	3.97
784.197	7.56
784.503	3.95
784.809	7.36
785.115	5.67
785.421	8.65
785.727	7.4
786.033	6.79
786.339	6.31
786.644	9.62
786.95	8.48
787.255	1.57
787.561	8.87
787.866	5.93
788.172	5.92
788.477	7.79
788.782	7.38
789.088	7.48
789.393	5.63
789.698	6.27
790.003	12
790.308	7.55
790.613	7.18
790.918	5.1
791.223	4.77
791.527	7.33
791.832	5.96
792.137	5.56
792.441	11.84
792.746	4.96
793.05	5.83
793.355	6.47
793.659	10.41
793.963	8.28
794.268	6.45
794.572	3.85
794.876	3.32
795.18	7.82
795.484	4.38
795.788	11.53
796.092	7.86
796.396	6.97
796.7	8.64
797.004	9.72
797.307	7.45
797.611	7.72
797.915	7.28
798.218	6.61
798.522	7.33
798.825	5.44
799.128	4.51
799.432	9.33
799.735	6.34
800.038	6.23
800.341	6.1
800.644	10.11
800.947	9.69
801.25	4.35
801.553	7.63
801.856	8.85
802.159	5.48
802.462	3.4
802.764	4.53
803.067	5.96
803.37	9.65
803.672	3.07
803.975	5.68
804.277	5.82
804.579	9.12
804.882	8.12
805.184	5.43
805.486	8.23
805.788	5.89
806.09	3.09
806.392	7.49
806.694	3.72
806.996	7.19
807.298	7.87
807.6	4.86
807.902	10.89
808.203	6.65
808.505	8.36
808.807	11.11
809.108	10.26
809.409	6.77
809.711	11.04
810.012	5.11
810.313	10.16
810.615	3.67
810.916	4.2
811.217	8.29
811.518	10.47
811.819	10.05
812.12	7.74
812.421	6.9
812.722	5.75
813.023	7.22
813.323	7.85
813.624	6.87
813.925	5.99
814.225	8.02
814.526	2.2
814.826	12.51
815.126	14.33
815.427	9.95
815.727	5.48
816.027	7.16
816.327	7.31
816.627	8.9
816.927	4.6
817.227	6.31
817.527	4.8
817.827	7.25
818.127	11.48
818.427	8.73
818.727	2.71
819.026	7.02
819.326	6.26
819.625	5.08
819.925	5.18
820.224	9.4
820.524	12
820.823	9.52
821.122	11.79
821.421	11.85
821.72	11.32
822.019	5.3
822.318	12.63
822.617	9.01
822.916	8.95
823.215	5.1
823.514	5.86
823.813	10.94
824.111	10.89
824.41	9.57
824.709	8.66
825.007	8.49
825.306	9.22
825.604	8.45
825.902	9.36
826.201	8.15
826.499	10.37
826.797	9.61
827.095	9.72
827.393	10.91
827.691	9.35
827.989	10.31
828.287	10.53
828.585	9.01
828.882	8.59
829.18	9.94
829.478	9.3
829.775	9.1
830.073	8.65
830.37	8.48
830.668	6.58
830.965	9.56
831.263	8.71
831.56	7.68
831.857	11.58
832.154	6.59
832.451	6.73
832.748	9.68
833.045	-0.55
833.342	7.43
833.639	6.25
833.936	7.82
834.232	13.33
834.529	7.38
834.826	5.1
835.122	4.04
835.419	9.66
835.715	5.02
836.012	7.49
836.308	5.85
836.604	11.59
836.901	8.27
837.197	9.89
837.493	6.77
837.789	10.32
838.085	8.52
838.381	6.15
838.677	11.59
838.972	9.98
839.268	6.64
839.564	14.45
839.86	11.54
840.155	11.47
840.451	9.71
840.746	4.85
841.042	7.24
841.337	5.25
841.632	10.99
841.928	11.36
842.223	11.79
842.518	5.44
842.813	17.13
843.108	10.45
843.403	14.36
843.698	6.28
843.993	8.27
844.287	6
844.582	3.19
844.877	5.5
845.171	12.65
845.466	-4.53
845.761	-0.08
846.055	4.35
846.349	-10.95
846.644	-1.54
846.938	7.78
847.232	6.31
847.526	7.48
847.82	6.46
848.114	5.98
848.408	-3.59
848.702	0.1
848.996	9.56
849.29	2.54
849.584	18.26
849.877	12.25
850.171	-3.23
850.465	13.55
850.758	0.06
851.052	8.68
851.345	-13.19
851.638	-14.65
851.932	-12.29
852.225	7.47
852.518	10.33
852.811	-9.11
853.104	13.57
853.397	-20.82
853.69	8.47
853.983	-21.54
854.276	-4.49
854.569	20.63
854.861	3.19
855.154	8.37
855.447	1.12
855.739	9.97
856.032	19.92
856.324	11.09
856.616	-6.42
856.909	11.63
857.201	-3.56
857.493	6.85
857.785	24.86
858.077	-14.17
858.369	-11.88
858.661	15.59
858.953	18.17
859.245	-10.13
859.537	19.56
859.829	15.18
860.12	8.14
860.412	2.42
860.703	6.29
860.995	10.38
861.286	11.09
861.578	-12.95
861.869	-11.84
862.16	10.11
862.452	26.58
862.743	3.88
863.034	25.18
863.325	13.92
863.616	13.47
863.907	15.64
864.198	6.15
864.488	14.73
864.779	0.33
865.07	-5
865.36	12.43
865.651	-16.69
865.941	-15.3
866.232	-6.67
866.522	14.96
866.813	1.5
867.103	11.94
867.393	12.68
867.683	-7.81
867.973	8.49
868.263	-27.65
868.553	15.52
868.843	-1.17
869.133	1.81
869.423	12.72
869.713	6.01
870.002	23.43
870.292	-6.03
870.582	12.72
870.871	10.4
871.161	15.17
871.45	1.16
871.739	26.46
872.029	5.77
872.318	5.86
872.607	-14.71
872.896	-18.83
873.185	4.16
873.474	11.86
873.763	27.49
874.052	-1.61
874.341	17.66
874.63	-17.84
874.918	-6.24
875.207	-3.9
875.496	13.45
875.784	44.81
876.073	-11.67
876.361	18.23
876.649	-28.29
876.938	-16.79
877.226	14.73
877.514	15.61
877.802	-25.6
878.09	22.32
878.378	19.17
878.666	-11.6
878.954	12.73
879.242	0.27
879.53	-21.08
879.817	20.04
880.105	28.79
880.392	7.94
880.68	-1.72
880.967	26.34
881.255	15.05
881.542	12.96
881.83	-23.67
882.117	28.26
882.404	6.31
882.691	10.5
882.978	0.57
883.265	-0.15
883.552	9.38
883.839	-0.55
884.126	2.07
884.413	6.43
884.699	7.41
884.986	11.66
885.273	11.53
885.559	11.53
885.846	11.53
