Data from 0185_crown_Reflection__6__011.txt Node

Date: Mon Aug 28 18:42:16 CDT 2023
User: ToomeyLab
Spectrometer: FLMS14357
Trigger mode: 0
Integration Time (sec): 1.000000E-2
Scans to average: 100
Electric dark correction enabled: true
Nonlinearity correction enabled: false
Boxcar width: 0
XAxis mode: Wavelengths
Number of Pixels in Spectrum: 2048
>>>>>Begin Spectral Data<<<<<
189.047	-40.36
189.435	-40.36
189.823	-40.36
190.211	-169.77
190.599	341.58
190.987	361.32
191.375	43.29
191.763	87.3
192.151	10.45
192.538	34.3
192.926	149.93
193.314	-836.34
193.702	36.64
194.089	115.12
194.477	-1382.35
194.864	-425.73
195.252	100.53
195.639	-1441.88
196.027	57.68
196.414	-72.37
196.801	166.3
197.189	-106.45
197.576	-348.27
197.963	-37.92
198.351	-17.71
198.738	34.47
199.125	18.83
199.512	-15.22
199.899	27.38
200.286	60.19
200.673	3.92
201.06	6.38
201.447	10.74
201.833	-34.97
202.22	15.03
202.607	-5.82
202.994	28.65
203.38	27
203.767	-13.71
204.154	-4.45
204.54	-26.82
204.927	-3.26
205.313	48.86
205.699	-0.22
206.086	33.51
206.472	1.35
206.858	-0.64
207.245	25.81
207.631	31.22
208.017	-10.18
208.403	2.26
208.789	28.03
209.175	-54
209.561	37.29
209.947	32.02
210.333	10.58
210.719	5.86
211.105	27.17
211.491	-15.62
211.876	42.95
212.262	-45.77
212.648	21.39
213.034	-14.77
213.419	17.97
213.805	17.08
214.19	-8.03
214.576	13.16
214.961	0.67
215.346	7.24
215.732	27.31
216.117	-27.91
216.502	-18.77
216.888	-54.79
217.273	-17.36
217.658	27.68
218.043	1.07
218.428	14.85
218.813	2.15
219.198	16.01
219.583	-1.8
219.968	10.58
220.353	-4.84
220.738	11.09
221.122	8.89
221.507	25.93
221.892	13.53
222.276	13.9
222.661	-4.24
223.046	-5.03
223.43	9.95
223.815	4.82
224.199	7.61
224.583	8.77
224.968	11.59
225.352	10.71
225.736	11.42
226.121	12.88
226.505	1.86
226.889	7.82
227.273	8.52
227.657	-0.06
228.041	3.39
228.425	6.56
228.809	7.64
229.193	5.49
229.577	3.7
229.961	3.68
230.344	4.34
230.728	3.31
231.112	3.06
231.495	3.52
231.879	3.02
232.263	4.02
232.646	3.24
233.03	5.32
233.413	5.83
233.797	3.07
234.18	4.35
234.563	4.1
234.946	6.1
235.33	3.44
235.713	2.28
236.096	5.3
236.479	4.53
236.862	5.55
237.245	4.59
237.628	4.41
238.011	5.01
238.394	5.46
238.777	6.3
239.16	1.78
239.543	2.12
239.925	4.56
240.308	4.2
240.691	1.76
241.073	3.43
241.456	4.84
241.838	3.19
242.221	4.51
242.603	4.27
242.986	4.44
243.368	4.21
243.75	3.75
244.133	3.67
244.515	3.23
244.897	3.67
245.279	3.81
245.661	3.88
246.043	4.58
246.425	3.71
246.807	3.55
247.189	3.28
247.571	3.84
247.953	3.9
248.335	3.67
248.717	3.18
249.098	3.4
249.48	3.66
249.862	3.62
250.243	3.41
250.625	4.28
251.006	4.01
251.388	3.83
251.769	5.09
252.151	3.27
252.532	3.42
252.913	4.49
253.295	2.68
253.676	3.6
254.057	3.7
254.438	3.3
254.819	3.7
255.2	3.71
255.581	4.02
255.962	4.01
256.343	4.08
256.724	2.42
257.105	3.83
257.486	3.88
257.867	3.23
258.247	3.55
258.628	4.1
259.009	3.19
259.389	3.26
259.77	3.93
260.15	3.25
260.531	2.79
260.911	3.38
261.292	3.48
261.672	3.24
262.052	3.22
262.432	3.32
262.813	3.6
263.193	3.16
263.573	2.8
263.953	3.67
264.333	3.17
264.713	3.1
265.093	3.04
265.473	3.63
265.853	3.01
266.233	2.92
266.612	3.95
266.992	3.25
267.372	3.3
267.752	4.28
268.131	3.2
268.511	2.57
268.89	3.9
269.27	3.13
269.649	3.28
270.029	3.41
270.408	3.42
270.787	4.05
271.167	3.42
271.546	2.89
271.925	3.21
272.304	3.75
272.683	3.41
273.062	3.52
273.441	3.61
273.82	3.35
274.199	2.5
274.578	3.09
274.957	3.43
275.336	3.44
275.715	3.35
276.093	2.76
276.472	2.98
276.851	3.2
277.229	3.76
277.608	3.59
277.986	3.58
278.365	3.24
278.743	2.75
279.122	3.38
279.5	3.02
279.878	2.49
280.257	2.29
280.635	3.2
281.013	3.52
281.391	3.08
281.769	3.66
282.147	3.52
282.525	3.15
282.903	3.1
283.281	3.12
283.659	3.74
284.037	3.23
284.415	2.74
284.792	3.52
285.17	3.03
285.548	2.99
285.925	3.41
286.303	3.02
286.68	3.29
287.058	3.38
287.435	3.01
287.813	2.89
288.19	3.07
288.567	3.29
288.945	3.17
289.322	3.27
289.699	3.65
290.076	3.57
290.453	3.42
290.83	2.85
291.207	2.96
291.584	3.13
291.961	3.51
292.338	2.83
292.715	3.04
293.092	3.03
293.469	3.34
293.845	2.87
294.222	2.78
294.599	2.85
294.975	3.82
295.352	3.03
295.728	3.1
296.105	3.04
296.481	3.1
296.858	3.78
297.234	3.7
297.61	3.4
297.986	3.25
298.363	3.2
298.739	3.3
299.115	3.03
299.491	3.5
299.867	3.18
300.243	3.66
300.619	3.57
300.995	3.96
301.371	3.13
301.746	3.14
302.122	3.31
302.498	3.67
302.874	3.62
303.249	3.21
303.625	3.48
304	3.8
304.376	3.64
304.751	3.57
305.127	3.47
305.502	3.89
305.878	3.53
306.253	3.44
306.628	3.67
307.003	3.36
307.378	3.5
307.754	3.69
308.129	3.16
308.504	3.73
308.879	3.59
309.254	3.09
309.629	3.25
310.003	3.23
310.378	2.99
310.753	3.51
311.128	3.2
311.502	3.99
311.877	3.51
312.252	3.58
312.626	3.83
313.001	3.44
313.375	3.38
313.75	3.47
314.124	3.64
314.498	3.73
314.873	3.54
315.247	3.87
315.621	2.67
315.995	4.21
316.369	3.44
316.743	3.42
317.117	3.47
317.491	3.07
317.865	3.21
318.239	3.72
318.613	3.79
318.987	3.48
319.361	3.85
319.734	3.66
320.108	3.7
320.482	4.39
320.855	3.35
321.229	3.99
321.602	3.69
321.976	3.2
322.349	3.6
322.723	3.67
323.096	3.46
323.469	3.35
323.843	3.5
324.216	3.77
324.589	3.31
324.962	3.76
325.335	3.74
325.708	3.72
326.081	3.8
326.454	3.53
326.827	3.58
327.2	3.42
327.573	3.36
327.945	3.81
328.318	4.31
328.691	3.08
329.063	3.2
329.436	3.35
329.809	3.84
330.181	3.36
330.553	3.54
330.926	3.85
331.298	3.73
331.671	3.38
332.043	3.54
332.415	4.4
332.787	3.55
333.159	4
333.532	3.93
333.904	3.82
334.276	3.45
334.648	3.67
335.02	3.92
335.391	3.62
335.763	3.39
336.135	3.25
336.507	3.19
336.879	3.65
337.25	4.08
337.622	3.76
337.993	3.64
338.365	3.86
338.736	3.91
339.108	2.74
339.479	3.51
339.851	3.99
340.222	3.93
340.593	3.58
340.964	3.88
341.336	3.71
341.707	3.53
342.078	3.48
342.449	3.64
342.82	3.56
343.191	4.12
343.562	3.35
343.933	2.98
344.303	3.58
344.674	3.68
345.045	3.62
345.416	3.57
345.786	3.48
346.157	4.06
346.527	3.32
346.898	3.22
347.268	3.45
347.639	3.36
348.009	3.18
348.38	3.82
348.75	3.42
349.12	3.86
349.49	3.29
349.861	3.45
350.231	3.74
350.601	3.78
350.971	3.79
351.341	3.35
351.711	3.74
352.081	3.37
352.45	3.79
352.82	3.69
353.19	4.16
353.56	3.52
353.929	3.68
354.299	3.4
354.669	3.88
355.038	3.63
355.408	3.7
355.777	3.47
356.147	3.31
356.516	4
356.885	3.96
357.254	3.36
357.624	3.47
357.993	3.81
358.362	3.44
358.731	3.67
359.1	3.44
359.469	3.88
359.838	3.33
360.207	3.55
360.576	3.79
360.945	3.68
361.314	3.35
361.682	3.43
362.051	3.9
362.42	3.65
362.788	3.58
363.157	3.56
363.525	3.48
363.894	3.75
364.262	3.57
364.631	3.32
364.999	3.51
365.367	3.68
365.735	3.66
366.104	3.62
366.472	3.47
366.84	3.61
367.208	3.67
367.576	3.49
367.944	3.68
368.312	3.74
368.68	3.73
369.048	3.88
369.416	3.54
369.783	3.77
370.151	3.58
370.519	3.73
370.886	3.39
371.254	3.56
371.621	3.37
371.989	3.74
372.356	3.74
372.724	4.06
373.091	3.94
373.458	3.42
373.826	3.84
374.193	3.72
374.56	3.59
374.927	3.53
375.294	3.34
375.661	3.88
376.028	3.67
376.395	3.49
376.762	3.57
377.129	3.73
377.496	3.37
377.863	3.75
378.229	3.53
378.596	3.81
378.963	3.71
379.329	3.77
379.696	3.73
380.062	3.49
380.429	3.33
380.795	3.63
381.161	3.82
381.528	3.8
381.894	3.63
382.26	3.46
382.626	3.59
382.993	3.35
383.359	3.73
383.725	4.06
384.091	3.62
384.457	3.7
384.823	3.59
385.188	3.95
385.554	3.43
385.92	3.51
386.286	3.95
386.651	3.61
387.017	3.91
387.383	3.8
387.748	3.58
388.114	3.56
388.479	3.54
388.845	3.72
389.21	3.45
389.575	3.99
389.94	3.37
390.306	3.68
390.671	3.62
391.036	3.75
391.401	4
391.766	3.78
392.131	3.68
392.496	3.79
392.861	3.48
393.226	3.86
393.591	3.51
393.956	3.7
394.32	3.6
394.685	3.71
395.05	3.82
395.414	3.58
395.779	3.51
396.143	3.58
396.508	3.54
396.872	3.68
397.236	3.5
397.601	3.64
397.965	3.75
398.329	3.94
398.694	3.97
399.058	3.53
399.422	3.69
399.786	3.68
400.15	3.88
400.514	3.56
400.878	3.64
401.242	3.79
401.605	3.65
401.969	3.55
402.333	3.56
402.697	3.53
403.06	3.91
403.424	3.88
403.787	3.72
404.151	3.49
404.514	3.71
404.878	3.72
405.241	3.8
405.604	3.56
405.968	3.65
406.331	3.92
406.694	3.79
407.057	3.81
407.42	3.58
407.783	3.5
408.146	3.66
408.509	3.81
408.872	3.53
409.235	3.72
409.598	3.74
409.961	3.51
410.323	3.9
410.686	3.84
411.049	3.87
411.411	3.98
411.774	3.72
412.136	3.55
412.499	3.64
412.861	3.68
413.223	3.72
413.586	3.62
413.948	3.77
414.31	4
414.672	3.43
415.035	3.68
415.397	3.63
415.759	3.73
416.121	3.86
416.483	3.58
416.845	3.89
417.206	3.99
417.568	3.57
417.93	3.46
418.292	3.77
418.653	3.6
419.015	3.83
419.377	3.41
419.738	3.91
420.1	3.71
420.461	3.68
420.822	3.62
421.184	3.76
421.545	3.63
421.906	3.63
422.267	3.64
422.629	3.58
422.99	3.61
423.351	3.69
423.712	3.57
424.073	3.62
424.434	3.78
424.795	3.54
425.155	3.69
425.516	3.65
425.877	3.59
426.238	3.6
426.598	3.59
426.959	3.62
427.32	3.64
427.68	3.67
428.041	3.66
428.401	3.83
428.761	3.65
429.122	3.77
429.482	3.73
429.842	3.8
430.202	3.67
430.563	3.81
430.923	3.86
431.283	3.73
431.643	3.78
432.003	3.74
432.363	3.95
432.722	3.89
433.082	3.75
433.442	3.8
433.802	3.79
434.161	3.75
434.521	3.88
434.881	3.64
435.24	3.69
435.6	3.71
435.959	3.65
436.319	3.84
436.678	3.66
437.037	3.75
437.396	3.85
437.756	3.76
438.115	3.81
438.474	3.89
438.833	3.71
439.192	3.73
439.551	3.72
439.91	3.82
440.269	3.76
440.628	3.7
440.987	3.72
441.345	3.65
441.704	3.73
442.063	3.75
442.421	3.78
442.78	3.88
443.138	3.74
443.497	3.79
443.855	3.69
444.214	3.81
444.572	3.77
444.93	3.92
445.288	3.69
445.647	3.93
446.005	3.87
446.363	3.93
446.721	3.96
447.079	3.75
447.437	3.58
447.795	3.67
448.153	3.75
448.51	3.77
448.868	3.75
449.226	3.76
449.584	3.77
449.941	3.73
450.299	3.64
450.656	3.73
451.014	3.76
451.371	3.7
451.729	3.68
452.086	3.69
452.443	3.93
452.801	3.93
453.158	3.94
453.515	3.7
453.872	3.67
454.229	3.89
454.586	3.84
454.943	3.78
455.3	3.85
455.657	3.89
456.014	3.89
456.371	3.78
456.727	3.87
457.084	3.83
457.441	3.79
457.797	3.91
458.154	3.79
458.51	3.98
458.867	3.81
459.223	3.82
459.58	3.83
459.936	3.9
460.292	3.85
460.648	3.77
461.005	3.73
461.361	3.87
461.717	3.73
462.073	3.73
462.429	3.65
462.785	3.81
463.141	3.77
463.496	4.01
463.852	3.91
464.208	3.82
464.564	3.86
464.919	4.01
465.275	3.89
465.631	3.69
465.986	3.88
466.342	3.93
466.697	3.89
467.052	4.01
467.408	3.98
467.763	3.84
468.118	3.75
468.473	3.9
468.829	3.89
469.184	3.74
469.539	3.98
469.894	3.8
470.249	3.9
470.603	3.92
470.958	3.88
471.313	3.99
471.668	3.73
472.023	3.85
472.377	4.01
472.732	4.03
473.086	3.94
473.441	3.94
473.795	4.11
474.15	4.09
474.504	3.9
474.859	3.94
475.213	4.02
475.567	3.93
475.921	4.22
476.275	3.97
476.63	4.1
476.984	3.97
477.338	3.97
477.692	4.06
478.045	4.1
478.399	4.17
478.753	3.95
479.107	3.85
479.461	3.99
479.814	4.13
480.168	3.99
480.521	3.89
480.875	3.99
481.228	3.94
481.582	4.05
481.935	3.91
482.289	4.04
482.642	3.96
482.995	4.02
483.348	4.01
483.701	3.96
484.055	4
484.408	3.88
484.761	3.85
485.114	3.86
485.466	3.77
485.819	3.68
486.172	3.65
486.525	3.68
486.878	3.71
487.23	3.77
487.583	3.81
487.936	3.9
488.288	3.96
488.641	3.89
488.993	3.85
489.345	3.81
489.698	3.81
490.05	3.76
490.402	3.76
490.754	3.83
491.107	3.88
491.459	3.9
491.811	4
492.163	4.01
492.515	3.98
492.866	4.03
493.218	3.92
493.57	3.87
493.922	3.77
494.274	3.88
494.625	3.83
494.977	3.99
495.328	4.07
495.68	4.1
496.031	4.01
496.383	4.09
496.734	3.97
497.086	4.25
497.437	4.16
497.788	3.98
498.139	4.09
498.49	4.02
498.842	4.07
499.193	4
499.544	4.09
499.894	3.97
500.245	4.02
500.596	4.11
500.947	4.15
501.298	4.16
501.648	4.17
501.999	4.21
502.35	4.05
502.7	4.16
503.051	4.28
503.401	4.24
503.752	4.14
504.102	4.15
504.452	4.15
504.803	4.2
505.153	4.16
505.503	4.1
505.853	4.07
506.203	4.05
506.553	4.09
506.903	4.23
507.253	4.28
507.603	4.2
507.953	4.27
508.303	4.35
508.652	4.23
509.002	4.24
509.352	4.1
509.701	4.08
510.051	4.27
510.4	4.24
510.75	4.16
511.099	4.23
511.449	4.19
511.798	4.29
512.147	4.31
512.496	4.19
512.846	4.19
513.195	4.25
513.544	4.31
513.893	4.23
514.242	4.22
514.591	4.29
514.939	4.23
515.288	4.22
515.637	4.31
515.986	4.21
516.334	4.34
516.683	4.26
517.032	4.36
517.38	4.36
517.729	4.3
518.077	4.44
518.426	4.29
518.774	4.29
519.122	4.46
519.47	4.34
519.819	4.27
520.167	4.18
520.515	4.28
520.863	4.22
521.211	4.23
521.559	4.25
521.907	4.26
522.255	4.22
522.602	4.26
522.95	4.43
523.298	4.42
523.645	4.46
523.993	4.3
524.341	4.45
524.688	4.6
525.036	4.47
525.383	4.51
525.73	4.4
526.078	4.57
526.425	4.53
526.772	4.47
527.119	4.48
527.466	4.35
527.814	4.32
528.161	4.34
528.508	4.36
528.854	4.37
529.201	4.39
529.548	4.36
529.895	4.4
530.242	4.27
530.588	4.22
530.935	4.19
531.282	4.24
531.628	4.26
531.975	4.38
532.321	4.38
532.667	4.33
533.014	4.48
533.36	4.51
533.706	4.51
534.052	4.5
534.399	4.48
534.745	4.6
535.091	4.47
535.437	4.45
535.783	4.45
536.129	4.44
536.474	4.43
536.82	4.58
537.166	4.6
537.512	4.74
537.857	4.73
538.203	4.56
538.549	4.65
538.894	4.55
539.239	4.53
539.585	4.6
539.93	4.65
540.276	4.62
540.621	4.72
540.966	4.75
541.311	4.85
541.656	4.76
542.001	4.76
542.346	4.82
542.691	4.68
543.036	4.66
543.381	4.58
543.726	4.56
544.071	4.6
544.415	4.62
544.76	4.74
545.105	4.7
545.449	4.73
545.794	4.79
546.138	4.84
546.483	4.8
546.827	4.81
547.171	4.89
547.516	4.92
547.86	4.95
548.204	5.04
548.548	4.93
548.892	4.82
549.236	4.9
549.58	4.81
549.924	4.92
550.268	5.07
550.612	5.09
550.956	5.22
551.3	5.24
551.643	5.27
551.987	5.05
552.33	5.28
552.674	5.05
553.017	5.11
553.361	5.13
553.704	5.13
554.048	5.16
554.391	5.12
554.734	5.28
555.077	5.24
555.42	5.24
555.764	5.31
556.107	5.11
556.45	5.36
556.793	5.26
557.135	5.28
557.478	5.38
557.821	5.4
558.164	5.57
558.507	5.31
558.849	5.4
559.192	5.38
559.534	5.33
559.877	5.34
560.219	5.52
560.562	5.48
560.904	5.55
561.246	5.46
561.589	5.57
561.931	5.48
562.273	5.44
562.615	5.36
562.957	5.6
563.299	5.56
563.641	5.5
563.983	5.58
564.325	5.64
564.667	5.58
565.008	5.47
565.35	5.7
565.692	5.87
566.033	5.58
566.375	5.63
566.716	5.62
567.058	5.64
567.399	5.55
567.741	5.77
568.082	5.51
568.423	5.62
568.764	5.64
569.105	5.78
569.447	5.75
569.788	5.69
570.129	5.84
570.47	5.77
570.811	5.99
571.151	5.75
571.492	5.86
571.833	5.9
572.174	6.05
572.514	6.03
572.855	5.75
573.195	6.14
573.536	6.23
573.876	5.9
574.217	5.97
574.557	5.97
574.898	6.1
575.238	5.99
575.578	5.92
575.918	5.98
576.258	6.17
576.598	6.16
576.938	6.12
577.278	6.16
577.618	6.11
577.958	6.12
578.298	6.35
578.638	6.29
578.977	6.31
579.317	6.25
579.657	6.27
579.996	6.47
580.336	6.4
580.675	6.5
581.014	6.54
581.354	6.5
581.693	6.58
582.032	6.47
582.372	6.55
582.711	6.96
583.05	6.38
583.389	6.5
583.728	6.41
584.067	6.8
584.406	6.54
584.745	6.59
585.083	6.61
585.422	6.51
585.761	6.79
586.1	6.68
586.438	6.56
586.777	6.69
587.115	6.92
587.454	6.81
587.792	7.04
588.13	6.91
588.469	6.9
588.807	6.93
589.145	6.96
589.483	6.95
589.821	6.97
590.159	7.14
590.497	6.97
590.835	7.16
591.173	7.12
591.511	6.87
591.849	7
592.187	7.14
592.524	7.12
592.862	7.03
593.2	6.93
593.537	7.02
593.875	7.27
594.212	7.21
594.55	7.35
594.887	7.11
595.224	7.38
595.561	7.23
595.899	7.13
596.236	7.54
596.573	7.39
596.91	7.34
597.247	7.48
597.584	7.41
597.921	7.42
598.258	7.31
598.594	7.4
598.931	7.29
599.268	7.32
599.604	7.65
599.941	7.68
600.277	7.2
600.614	7.68
600.95	7.76
601.287	7.5
601.623	7.83
601.959	7.8
602.296	7.77
602.632	7.69
602.968	7.79
603.304	7.69
603.64	7.67
603.976	7.67
604.312	7.87
604.648	7.76
604.984	7.81
605.319	7.97
605.655	7.96
605.991	7.89
606.326	7.86
606.662	7.78
606.998	7.86
607.333	7.77
607.668	7.95
608.004	7.92
608.339	7.97
608.674	8.04
609.01	8.09
609.345	8.17
609.68	8.15
610.015	8.54
610.35	8.27
610.685	8.29
611.02	8.23
611.355	8.56
611.689	7.88
612.024	8.41
612.359	8.35
612.694	8.61
613.028	8.53
613.363	8.22
613.697	8.41
614.032	8.4
614.366	8.22
614.7	8.53
615.035	8.67
615.369	8.56
615.703	8.26
616.037	8.32
616.371	8.64
616.705	8.66
617.039	8.43
617.373	8.72
617.707	8.58
618.041	8.93
618.375	8.54
618.709	9.06
619.042	8.91
619.376	8.93
619.71	8.62
620.043	8.98
620.377	9.3
620.71	8.83
621.043	9.09
621.377	9.26
621.71	8.94
622.043	8.87
622.376	9.21
622.709	9.28
623.043	9.43
623.376	9.28
623.709	9.5
624.041	9.72
624.374	9.39
624.707	9.2
625.04	9.21
625.373	9.64
625.705	9.47
626.038	9.22
626.37	9.49
626.703	9.77
627.035	9.76
627.368	9.71
627.7	9.57
628.032	9.54
628.365	9.45
628.697	9.72
629.029	9.76
629.361	9.65
629.693	9.73
630.025	9.44
630.357	9.72
630.689	9.82
631.021	9.81
631.353	10.06
631.684	10.2
632.016	9.82
632.348	9.87
632.679	10.07
633.011	9.76
633.342	9.81
633.674	10.17
634.005	10.07
634.336	10.29
634.668	10.09
634.999	10.6
635.33	10.32
635.661	10.45
635.992	9.99
636.323	10.39
636.654	10.04
636.985	10.32
637.316	10.44
637.647	10.47
637.977	10.24
638.308	10.49
638.639	10.14
638.969	10.5
639.3	10.64
639.63	10.26
639.961	10.38
640.291	10.71
640.622	10.63
640.952	10.33
641.282	10.51
641.612	10.53
641.943	10.81
642.273	11.06
642.603	10.19
642.933	10.62
643.263	11.23
643.592	10.47
643.922	10.98
644.252	10.44
644.582	11.05
644.911	11.01
645.241	11.27
645.571	10.98
645.9	11.06
646.23	10.97
646.559	11.13
646.888	11.57
647.218	10.85
647.547	10.89
647.876	11.27
648.205	11.2
648.534	11.12
648.863	11.04
649.192	11.58
649.521	11.82
649.85	11.42
650.179	11.29
650.508	11.45
650.837	11.27
651.165	12.18
651.494	11.39
651.822	11.51
652.151	11.16
652.479	12.1
652.808	11.55
653.136	11.58
653.465	11.94
653.793	12.12
654.121	12.33
654.449	11.97
654.777	11.87
655.105	11.68
655.433	11.82
655.761	11.78
656.089	12.13
656.417	11.38
656.745	11.76
657.073	11.93
657.4	12.23
657.728	12.28
658.056	12.31
658.383	12.18
658.711	12.45
659.038	12.36
659.365	12.39
659.693	11.87
660.02	12.06
660.347	12.74
660.674	12.27
661.001	12.75
661.329	12.22
661.656	12.14
661.982	12.16
662.309	12.46
662.636	12.54
662.963	12.86
663.29	12.79
663.616	12.49
663.943	12.77
664.27	12.8
664.596	12.62
664.923	13.23
665.249	12.46
665.576	12.08
665.902	12.54
666.228	12.77
666.554	12.86
666.881	12.68
667.207	13.35
667.533	12.88
667.859	12.53
668.185	12.64
668.511	13.38
668.837	13.32
669.162	13.71
669.488	12.85
669.814	12.96
670.139	13.13
670.465	13.67
670.791	13.76
671.116	13.14
671.442	12.86
671.767	12.92
672.092	13.95
672.418	13.29
672.743	13.91
673.068	13.22
673.393	12.6
673.718	12.99
674.043	13.26
674.368	14
674.693	13.98
675.018	14.09
675.343	13.38
675.667	13.5
675.992	13.81
676.317	13.35
676.641	13.75
676.966	13.61
677.29	13.66
677.615	14.49
677.939	14.13
678.264	13.53
678.588	13.95
678.912	14.73
679.236	13.42
679.56	13.85
679.885	14.45
680.209	13.74
680.532	14.52
680.856	14.02
681.18	14.49
681.504	13.88
681.828	14.2
682.152	14.67
682.475	14.34
682.799	14.15
683.122	14.26
683.446	14.17
683.769	15.08
684.093	14.95
684.416	14.64
684.739	14.29
685.062	14.72
685.386	14.52
685.709	15.29
686.032	14.46
686.355	14.83
686.678	14.16
687.001	14.28
687.324	14.47
687.646	15.01
687.969	15
688.292	15.27
688.614	15.28
688.937	14.75
689.26	14.97
689.582	14.42
689.904	14.79
690.227	15.41
690.549	15.13
690.871	15.37
691.194	15.21
691.516	15.44
691.838	15.4
692.16	15.16
692.482	15.62
692.804	14.86
693.126	14.62
693.448	15.55
693.769	15.11
694.091	14.08
694.413	14.91
694.735	15.66
695.056	15.57
695.378	15.98
695.699	15.91
696.021	15.23
696.342	15.46
696.663	15.79
696.984	15.88
697.306	15.84
697.627	15.34
697.948	15.63
698.269	15.27
698.59	14.98
698.911	15.79
699.232	15.71
699.553	15.33
699.873	15.42
700.194	15.33
700.515	15.93
700.835	16.24
701.156	16.34
701.477	16.28
701.797	15.81
702.117	15.54
702.438	16.64
702.758	16.26
703.078	16.5
703.398	16.08
703.719	16.81
704.039	16.74
704.359	16.54
704.679	15.81
704.999	16.8
705.319	16.53
705.638	16.14
705.958	16.28
706.278	16.81
706.597	15.73
706.917	17.15
707.237	16.88
707.556	16.72
707.876	17.42
708.195	17.06
708.514	16.76
708.834	16.54
709.153	17.33
709.472	17.05
709.791	17.05
710.11	17.01
710.429	16.27
710.748	17.88
711.067	16.54
711.386	17.25
711.705	18.04
712.023	17.76
712.342	17.63
712.661	16.86
712.979	17.47
713.298	16.86
713.616	16.85
713.935	17.22
714.253	18.47
714.572	18.12
714.89	17.23
715.208	18.47
715.526	16.99
715.844	17.98
716.162	17.38
716.48	17.13
716.798	17.55
717.116	17.44
717.434	17.98
717.752	17.37
718.069	17.83
718.387	17.17
718.705	18.31
719.022	17.26
719.34	19.14
719.657	17.58
719.975	17.67
720.292	18.33
720.609	17.01
720.927	17.47
721.244	18.23
721.561	17.11
721.878	18.67
722.195	17.76
722.512	17.19
722.829	18.48
723.146	18.48
723.463	18.89
723.779	18.36
724.096	17.89
724.413	19.42
724.729	19.14
725.046	17.23
725.362	19.51
725.679	19.66
725.995	18.22
726.311	19.58
726.628	19.7
726.944	18.26
727.26	17.39
727.576	17.37
727.892	18.57
728.208	19.19
728.524	18.24
728.84	20.12
729.156	19.32
729.472	19.26
729.787	19.58
730.103	18.85
730.419	18.89
730.734	18.72
731.05	18.26
731.365	19.81
731.681	18.66
731.996	19.93
732.311	19.38
732.626	20.17
732.942	19.46
733.257	19.96
733.572	18.86
733.887	20.09
734.202	19.51
734.517	19.48
734.832	19.89
735.146	20.94
735.461	19.75
735.776	19.14
736.091	19.15
736.405	20.79
736.72	19.94
737.034	20.29
737.349	20.4
737.663	20.2
737.977	20.74
738.292	19.61
738.606	20.9
738.92	19.87
739.234	20.18
739.548	20.25
739.862	20.18
740.176	19.61
740.49	19.39
740.804	19.15
741.117	20.03
741.431	20.96
741.745	19.25
742.058	21.02
742.372	22.57
742.685	22.26
742.999	21.09
743.312	20.41
743.626	21.42
743.939	21.27
744.252	22.14
744.565	20.5
744.878	21.86
745.191	20.57
745.505	21.2
745.817	21.94
746.13	19.95
746.443	21.19
746.756	21.98
747.069	20.56
747.381	19.86
747.694	19.23
748.007	20.57
748.319	19.11
748.632	20.49
748.944	20.4
749.256	22.05
749.569	19.28
749.881	22.27
750.193	22.09
750.505	24.5
750.817	22.07
751.129	20.67
751.441	22.46
751.753	19.83
752.065	21.1
752.377	20.92
752.689	21.77
753	22.66
753.312	24.03
753.624	21.13
753.935	21.78
754.247	22.33
754.558	20.9
754.869	23.64
755.181	22.81
755.492	21.12
755.803	22.2
756.114	22.09
756.425	21.29
756.736	22.29
757.047	21.96
757.358	21.88
757.669	22.53
757.98	24.2
758.291	19.27
758.601	24.39
758.912	21.28
759.223	23.83
759.533	23.42
759.844	22.88
760.154	22.75
760.464	24.05
760.775	22.49
761.085	22.52
761.395	21.95
761.705	22.28
762.016	23.91
762.326	23.65
762.636	23.5
762.945	23.72
763.255	22.13
763.565	23.2
763.875	24.81
764.185	23.53
764.494	23.81
764.804	23.91
765.113	23.09
765.423	22.38
765.732	22.44
766.042	22.61
766.351	23.59
766.66	23.51
766.97	22.59
767.279	24.86
767.588	22.74
767.897	23.07
768.206	22.31
768.515	24.04
768.824	24.83
769.133	23.59
769.441	25.81
769.75	24.57
770.059	23.04
770.367	24.35
770.676	23.04
770.984	23.32
771.293	23.37
771.601	25.58
771.91	23.96
772.218	22.44
772.526	26.11
772.834	23.11
773.142	24.9
773.45	23.66
773.758	24.69
774.066	23.93
774.374	25.05
774.682	26.05
774.99	21.38
775.298	23.92
775.605	22.29
775.913	22.81
776.22	24.45
776.528	25.7
776.835	25.33
777.143	25.15
777.45	27.49
777.757	22.97
778.065	26.78
778.372	27.06
778.679	22.8
778.986	23.36
779.293	27.43
779.6	26.34
779.907	26.32
780.214	25.06
780.52	27.11
780.827	29.21
781.134	28.04
781.44	26.82
781.747	24.58
782.053	27.88
782.36	22.94
782.666	26.13
782.973	27.35
783.279	22.63
783.585	24.78
783.891	25.04
784.197	24.81
784.503	25.21
784.809	23.94
785.115	23.59
785.421	26.18
785.727	27.22
786.033	27.7
786.339	25.52
786.644	24.86
786.95	26.98
787.255	26.75
787.561	25.17
787.866	27.17
788.172	26.48
788.477	27.59
788.782	27.91
789.088	23.72
789.393	27.88
789.698	27.49
790.003	30.15
790.308	26.28
790.613	26.62
790.918	26.93
791.223	28.22
791.527	24.75
791.832	24.14
792.137	27.55
792.441	25.5
792.746	28.03
793.05	24.99
793.355	28.56
793.659	24.12
793.963	26.44
794.268	26.12
794.572	27.57
794.876	26.54
795.18	26.21
795.484	25.3
795.788	22.89
796.092	24.35
796.396	27.82
796.7	32.73
797.004	25.84
797.307	29.08
797.611	23.45
797.915	28.11
798.218	24.26
798.522	27.73
798.825	26.89
799.128	25.09
799.432	26.91
799.735	27.27
800.038	30.76
800.341	26.36
800.644	30.18
800.947	29.21
801.25	28.47
801.553	28.84
801.856	26.6
802.159	28.1
802.462	24.1
802.764	24.98
803.067	30.05
803.37	30.96
803.672	29.66
803.975	27.31
804.277	29.97
804.579	28.72
804.882	28.46
805.184	27.27
805.486	27.38
805.788	27.7
806.09	30.52
806.392	28.27
806.694	27.54
806.996	29.68
807.298	32.44
807.6	27.65
807.902	27.98
808.203	26.99
808.505	29.14
808.807	33.12
809.108	32.09
809.409	27.64
809.711	25.32
810.012	25.87
810.313	29.99
810.615	34.08
810.916	28.57
811.217	29.73
811.518	29.08
811.819	27.65
812.12	28.15
812.421	28.96
812.722	28.37
813.023	30.62
813.323	27.86
813.624	23.52
813.925	30.79
814.225	30.94
814.526	32.94
814.826	24.99
815.126	30.75
815.427	33.71
815.727	32.13
816.027	27.38
816.327	28.88
816.627	29.64
816.927	32.16
817.227	24.1
817.527	26.68
817.827	30.13
818.127	27.62
818.427	21.18
818.727	31.74
819.026	28.67
819.326	27.54
819.625	30.21
819.925	32.83
820.224	30.27
820.524	25.04
820.823	32.49
821.122	31.59
821.421	27.37
821.72	32.7
822.019	29.95
822.318	29.7
822.617	32.02
822.916	33.08
823.215	29.43
823.514	25.72
823.813	28.65
824.111	29.19
824.41	27.9
824.709	32.94
825.007	29.53
825.306	29.76
825.604	30.66
825.902	31.74
826.201	30.88
826.499	30.77
826.797	30.35
827.095	30.34
827.393	32.25
827.691	29.63
827.989	31.87
828.287	31.24
828.585	31.19
828.882	30.26
829.18	31.81
829.478	31.53
829.775	31.84
830.073	31.27
830.37	30.72
830.668	31.6
830.965	30.61
831.263	32.64
831.56	28.16
831.857	31.61
832.154	30.64
832.451	29.66
832.748	31.9
833.045	25.2
833.342	35.33
833.639	29.27
833.936	31.67
834.232	25.93
834.529	32.92
834.826	32.53
835.122	36.82
835.419	30.52
835.715	36.17
836.012	36.28
836.308	33.39
836.604	32.26
836.901	31.17
837.197	32.64
837.493	31.75
837.789	32.91
838.085	35.6
838.381	33.63
838.677	28.86
838.972	34.06
839.268	30.17
839.564	30.02
839.86	30.07
840.155	30.36
840.451	30.66
840.746	35.36
841.042	27.84
841.337	28.94
841.632	25.11
841.928	32.23
842.223	30.09
842.518	29.97
842.813	30.04
843.108	33.47
843.403	34.84
843.698	29.83
843.993	23.46
844.287	43.14
844.582	36.18
844.877	31.17
845.171	33.77
845.466	23.64
845.761	32.21
846.055	37.38
846.349	25.89
846.644	36.03
846.938	14.66
847.232	17.92
847.526	35.18
847.82	25.2
848.114	21.5
848.408	25.07
848.702	32.17
848.996	37
849.29	31.04
849.584	31.05
849.877	42.64
850.171	16.63
850.465	36.11
850.758	41.6
851.052	46.75
851.345	37.41
851.638	30.31
851.932	18.02
852.225	15.58
852.518	46.03
852.811	32.21
853.104	31.91
853.397	14.64
853.69	41.84
853.983	34.79
854.276	24.48
854.569	27.56
854.861	28.78
855.154	35.28
855.447	50
855.739	25.46
856.032	31.36
856.324	33.97
856.616	17.35
856.909	28.39
857.201	33.29
857.493	20.91
857.785	39.49
858.077	14.42
858.369	49.9
858.661	44.74
858.953	18.68
859.245	44.49
859.537	44.51
859.829	45.72
860.12	18.22
860.412	14.44
860.703	23.31
860.995	32.57
861.286	12.67
861.578	19.61
861.869	25.47
862.16	35.25
862.452	63.05
862.743	36.45
863.034	26.79
863.325	42.41
863.616	21.6
863.907	15.36
864.198	25.79
864.488	44.97
864.779	26.1
865.07	57.83
865.36	35.97
865.651	60.18
865.941	37.92
866.232	21.44
866.522	32.68
866.813	28.15
867.103	56.4
867.393	20.12
867.683	24.8
867.973	29.86
868.263	11.62
868.553	16.42
868.843	38.55
869.133	32.12
869.423	31.6
869.713	42.61
870.002	24.43
870.292	46.32
870.582	44.3
870.871	36.29
871.161	37.42
871.45	35.79
871.739	9.96
872.029	26.54
872.318	15.4
872.607	43.5
872.896	47
873.185	71.32
873.474	52.05
873.763	4.04
874.052	17.21
874.341	19.95
874.63	25.18
874.918	43.84
875.207	21.42
875.496	47.87
875.784	37.99
876.073	41.75
876.361	46.66
876.649	40.86
876.938	41.87
877.226	36.52
877.514	35.81
877.802	34.29
878.09	33.07
878.378	64.68
878.666	34.06
878.954	46.81
879.242	19.05
879.53	35.16
879.817	55.66
880.105	39.02
880.392	30.6
880.68	32.88
880.967	47.54
881.255	62.17
881.542	45.85
881.83	43.5
882.117	43.61
882.404	30
882.691	44.87
882.978	30.31
883.265	35.69
883.552	48.78
883.839	38.14
884.126	38.32
884.413	37.94
884.699	35.08
884.986	47.11
885.273	38.06
885.559	38.06
885.846	38.06
