Data from 0185_crown_Reflection__8__013.txt Node

Date: Mon Aug 28 18:42:42 CDT 2023
User: ToomeyLab
Spectrometer: FLMS14357
Trigger mode: 0
Integration Time (sec): 1.000000E-2
Scans to average: 100
Electric dark correction enabled: true
Nonlinearity correction enabled: false
Boxcar width: 0
XAxis mode: Wavelengths
Number of Pixels in Spectrum: 2048
>>>>>Begin Spectral Data<<<<<
189.047	-22.77
189.435	-22.77
189.823	-22.77
190.211	-3372.09
190.599	206.52
190.987	235.19
191.375	-32.49
191.763	106.22
192.151	-181.16
192.538	56.96
192.926	232.91
193.314	69.98
193.702	22.16
194.089	6.56
194.477	4341.18
194.864	64.03
195.252	85.26
195.639	-128.21
196.027	123.96
196.414	235.85
196.801	120.6
197.189	-32.36
197.576	-438.77
197.963	86.38
198.351	60.26
198.738	-22.65
199.125	11.97
199.512	-17.1
199.899	-0.3
200.286	49.98
200.673	15.88
201.06	-0.86
201.447	-56.36
201.833	-38.48
202.22	22.33
202.607	-3.72
202.994	48.38
203.38	-8.57
203.767	21.37
204.154	-9.37
204.54	-38.53
204.927	-11.15
205.313	25.04
205.699	-2.4
206.086	45.28
206.472	-15
206.858	-35.7
207.245	14.51
207.631	15.49
208.017	-10.67
208.403	22.54
208.789	6.74
209.175	-29.95
209.561	-6.13
209.947	12.39
210.333	6
210.719	-7.8
211.105	18.85
211.491	-43.4
211.876	18.59
212.262	-31.26
212.648	16.97
213.034	-24.29
213.419	-7.86
213.805	17.08
214.19	10.85
214.576	6.85
214.961	-1.67
215.346	-8.24
215.732	5.23
216.117	-11.5
216.502	1.68
216.888	-53.2
217.273	-2.54
217.658	9.52
218.043	-18.75
218.428	-14.75
218.813	-11.83
219.198	20.21
219.583	12.5
219.968	3.15
220.353	-26.69
220.738	27.97
221.122	15.73
221.507	-7.79
221.892	11.54
222.276	2.65
222.661	-10.89
223.046	6.98
223.43	-12.42
223.815	18.15
224.199	7.58
224.583	2.6
224.968	9.63
225.352	6.76
225.736	12.64
226.121	-2.83
226.505	10.45
226.889	7.5
227.273	14.02
227.657	8.55
228.041	2.92
228.425	5.77
228.809	6.76
229.193	4.83
229.577	7.34
229.961	4.84
230.344	6.02
230.728	4.61
231.112	4.94
231.495	5.77
231.879	5.3
232.263	4.98
232.646	4.79
233.03	5.85
233.413	7.51
233.797	4.94
234.18	7.01
234.563	5.12
234.946	7.01
235.33	4.75
235.713	3.89
236.096	5.09
236.479	3.74
236.862	5.59
237.245	7.05
237.628	6.44
238.011	8.21
238.394	6.4
238.777	7.03
239.16	3.44
239.543	4.04
239.925	8.09
240.308	3.12
240.691	4.2
241.073	2.3
241.456	4.97
241.838	4.35
242.221	6.49
242.603	6.26
242.986	6.04
243.368	5.17
243.75	4.93
244.133	4.94
244.515	5.24
244.897	5.53
245.279	5.49
245.661	4.37
246.043	4.42
246.425	5
246.807	5.93
247.189	4.24
247.571	5.69
247.953	5.26
248.335	4.71
248.717	4.57
249.098	4.69
249.48	5.01
249.862	4.96
250.243	4.77
250.625	5.06
251.006	4.57
251.388	5.24
251.769	5.18
252.151	4.79
252.532	4.38
252.913	5.12
253.295	3.33
253.676	4.61
254.057	4.58
254.438	4.43
254.819	4.91
255.2	5.37
255.581	4.66
255.962	5.7
256.343	5.86
256.724	3.67
257.105	4.37
257.486	5.57
257.867	5.2
258.247	4.52
258.628	5.44
259.009	4.7
259.389	4.84
259.77	5.36
260.15	4.66
260.531	4.34
260.911	4.26
261.292	4.77
261.672	4.67
262.052	4.29
262.432	4.51
262.813	4.51
263.193	4.1
263.573	3.88
263.953	4.47
264.333	4.74
264.713	4.16
265.093	4.93
265.473	4.85
265.853	3.07
266.233	3.86
266.612	4.86
266.992	3.78
267.372	4.74
267.752	5.68
268.131	4.91
268.511	3.94
268.89	4.29
269.27	4.3
269.649	4.35
270.029	4.58
270.408	4.41
270.787	5.12
271.167	4.04
271.546	4.31
271.925	4.23
272.304	4.65
272.683	4.73
273.062	3.97
273.441	4.27
273.82	4.19
274.199	3.72
274.578	4.36
274.957	4.49
275.336	4.66
275.715	4.68
276.093	3.93
276.472	3.64
276.851	4.21
277.229	4.74
277.608	4.58
277.986	4.49
278.365	4.22
278.743	4.19
279.122	3.84
279.5	3.64
279.878	3.86
280.257	3.9
280.635	4.45
281.013	3.79
281.391	3.98
281.769	3.66
282.147	4.29
282.525	4.12
282.903	4.42
283.281	4.23
283.659	4.71
284.037	4.77
284.415	4.03
284.792	4.31
285.17	4.19
285.548	4.19
285.925	4.35
286.303	4.52
286.68	4.45
287.058	4.15
287.435	3.78
287.813	4.02
288.19	4.72
288.567	4.06
288.945	4.23
289.322	4.2
289.699	4.07
290.076	4.8
290.453	4
290.83	3.83
291.207	4.19
291.584	4.15
291.961	4.5
292.338	4.15
292.715	3.77
293.092	4.05
293.469	4.45
293.845	4.24
294.222	3.6
294.599	4.21
294.975	4.36
295.352	4.09
295.728	3.86
296.105	4.61
296.481	4.13
296.858	4.65
297.234	4.42
297.61	4.55
297.986	3.77
298.363	4.48
298.739	4.19
299.115	4.21
299.491	4.51
299.867	4.31
300.243	4.13
300.619	3.92
300.995	4.48
301.371	4.08
301.746	3.85
302.122	3.95
302.498	4.14
302.874	4.31
303.249	4.28
303.625	4.32
304	4.13
304.376	3.99
304.751	3.83
305.127	4.39
305.502	4.92
305.878	4.59
306.253	4.1
306.628	4.38
307.003	4.31
307.378	4.42
307.754	4.82
308.129	4.08
308.504	4.88
308.879	4.58
309.254	4.56
309.629	3.86
310.003	4.37
310.378	4.35
310.753	4.47
311.128	4.53
311.502	4.44
311.877	4.4
312.252	4.41
312.626	4.22
313.001	4.25
313.375	4.53
313.75	4.71
314.124	4.33
314.498	4.68
314.873	4.59
315.247	4.68
315.621	3.92
315.995	4.91
316.369	4.73
316.743	3.84
317.117	4.24
317.491	3.93
317.865	3.6
318.239	4.43
318.613	4.78
318.987	4.13
319.361	4.11
319.734	4.45
320.108	4.25
320.482	4.59
320.855	4.4
321.229	4.26
321.602	4.7
321.976	3.78
322.349	4.78
322.723	3.89
323.096	4.96
323.469	3.61
323.843	4.32
324.216	4.57
324.589	4.51
324.962	4.5
325.335	4.75
325.708	3.91
326.081	4.57
326.454	4.58
326.827	4.61
327.2	4.1
327.573	4.12
327.945	4.69
328.318	4.58
328.691	4.4
329.063	3.67
329.436	4.15
329.809	4.95
330.181	3.9
330.553	3.66
330.926	4.93
331.298	4.44
331.671	4.57
332.043	4.43
332.415	5.18
332.787	4.44
333.159	4.45
333.532	5.01
333.904	4.8
334.276	4.43
334.648	4.25
335.02	4.76
335.391	4.72
335.763	4.4
336.135	4.72
336.507	4.57
336.879	4.05
337.25	4.64
337.622	4.19
337.993	4.94
338.365	4.25
338.736	4.7
339.108	4.21
339.479	3.62
339.851	4.57
340.222	4.64
340.593	4.22
340.964	4.52
341.336	4.32
341.707	4.04
342.078	4.27
342.449	4.68
342.82	4.79
343.191	4.11
343.562	4.19
343.933	4.65
344.303	4.12
344.674	4.8
345.045	4.57
345.416	4.7
345.786	4.7
346.157	4.32
346.527	4.2
346.898	4.62
347.268	4.61
347.639	4.42
348.009	4.23
348.38	4.07
348.75	4.34
349.12	4.72
349.49	4.36
349.861	3.8
350.231	4.32
350.601	4.65
350.971	4.91
351.341	4.41
351.711	4.91
352.081	4.46
352.45	4.11
352.82	4.18
353.19	4.71
353.56	4.85
353.929	4.92
354.299	3.98
354.669	4.6
355.038	4.37
355.408	4.39
355.777	4.22
356.147	4.15
356.516	5.06
356.885	4.48
357.254	4.05
357.624	4.17
357.993	4.62
358.362	4.2
358.731	4.46
359.1	4.65
359.469	4.68
359.838	4.25
360.207	4.42
360.576	4.66
360.945	4.46
361.314	4.24
361.682	4.28
362.051	4.7
362.42	4.33
362.788	4.65
363.157	4.4
363.525	4.36
363.894	4.37
364.262	4.55
364.631	4.42
364.999	4.48
365.367	4.49
365.735	4.38
366.104	4.48
366.472	4.25
366.84	4.58
367.208	4.62
367.576	4.31
367.944	4.67
368.312	4.86
368.68	4.51
369.048	4.69
369.416	4.56
369.783	4
370.151	4.31
370.519	4.43
370.886	4.52
371.254	4.38
371.621	4.34
371.989	4.32
372.356	4.56
372.724	4.98
373.091	4.69
373.458	4.33
373.826	4.59
374.193	4.51
374.56	4.8
374.927	4.32
375.294	4.25
375.661	4.58
376.028	4.29
376.395	4.01
376.762	4.73
377.129	4.57
377.496	4.08
377.863	4.68
378.229	4.57
378.596	4.75
378.963	4.79
379.329	4.75
379.696	4.49
380.062	4.33
380.429	4.46
380.795	4.69
381.161	4.55
381.528	4.77
381.894	4.61
382.26	4.76
382.626	4.79
382.993	4.52
383.359	4.66
383.725	4.8
384.091	4.48
384.457	4.56
384.823	4.55
385.188	4.59
385.554	4.48
385.92	4.3
386.286	4.73
386.651	4.53
387.017	4.68
387.383	4.5
387.748	4.49
388.114	4.41
388.479	4.52
388.845	4.52
389.21	4.35
389.575	4.82
389.94	4.59
390.306	4.73
390.671	4.73
391.036	4.58
391.401	4.66
391.766	4.63
392.131	4.56
392.496	4.47
392.861	4.53
393.226	4.79
393.591	4.34
393.956	4.38
394.32	4.45
394.685	4.55
395.05	4.82
395.414	4.59
395.779	4.55
396.143	4.42
396.508	4.15
396.872	4.82
397.236	4.63
397.601	4.64
397.965	4.49
398.329	4.79
398.694	4.64
399.058	4.63
399.422	4.7
399.786	4.57
400.15	4.71
400.514	4.61
400.878	4.56
401.242	4.68
401.605	4.48
401.969	4.39
402.333	4.47
402.697	4.79
403.06	4.7
403.424	4.65
403.787	4.31
404.151	4.55
404.514	4.7
404.878	4.48
405.241	4.61
405.604	4.79
405.968	4.52
406.331	4.63
406.694	4.78
407.057	4.64
407.42	4.35
407.783	4.66
408.146	4.51
408.509	4.57
408.872	4.46
409.235	4.71
409.598	4.74
409.961	4.41
410.323	4.71
410.686	4.59
411.049	4.8
411.411	4.58
411.774	4.52
412.136	4.56
412.499	4.67
412.861	4.58
413.223	4.61
413.586	4.35
413.948	4.76
414.31	4.77
414.672	4.59
415.035	4.65
415.397	4.54
415.759	4.58
416.121	4.7
416.483	4.44
416.845	4.69
417.206	5.09
417.568	4.73
417.93	4.59
418.292	4.75
418.653	4.54
419.015	4.58
419.377	4.44
419.738	4.83
420.1	4.72
420.461	4.71
420.822	4.79
421.184	4.69
421.545	4.69
421.906	4.66
422.267	4.65
422.629	4.59
422.99	4.46
423.351	4.63
423.712	4.49
424.073	4.61
424.434	4.63
424.795	4.69
425.155	4.55
425.516	4.63
425.877	4.45
426.238	4.58
426.598	4.66
426.959	4.6
427.32	4.54
427.68	4.56
428.041	4.63
428.401	4.69
428.761	4.7
429.122	4.63
429.482	4.71
429.842	4.72
430.202	4.7
430.563	4.7
430.923	4.97
431.283	4.61
431.643	4.62
432.003	4.76
432.363	4.66
432.722	4.76
433.082	4.76
433.442	4.81
433.802	4.71
434.161	4.85
434.521	4.72
434.881	4.72
435.24	4.72
435.6	4.71
435.959	4.81
436.319	4.84
436.678	4.6
437.037	4.64
437.396	4.79
437.756	4.68
438.115	4.77
438.474	4.9
438.833	4.79
439.192	4.71
439.551	4.76
439.91	4.66
440.269	4.76
440.628	4.64
440.987	4.75
441.345	4.64
441.704	4.66
442.063	4.63
442.421	4.7
442.78	4.78
443.138	4.7
443.497	4.65
443.855	4.81
444.214	4.73
444.572	4.74
444.93	4.9
445.288	4.68
445.647	4.79
446.005	4.96
446.363	4.78
446.721	4.74
447.079	4.71
447.437	4.63
447.795	4.64
448.153	4.73
448.51	4.7
448.868	4.76
449.226	4.73
449.584	4.68
449.941	4.71
450.299	4.8
450.656	4.8
451.014	4.75
451.371	4.79
451.729	4.53
452.086	4.72
452.443	4.88
452.801	4.86
453.158	4.87
453.515	4.83
453.872	4.71
454.229	4.89
454.586	4.91
454.943	4.72
455.3	4.75
455.657	4.91
456.014	4.88
456.371	4.75
456.727	4.85
457.084	4.81
457.441	4.93
457.797	4.84
458.154	4.92
458.51	5.05
458.867	4.85
459.223	4.85
459.58	4.86
459.936	4.9
460.292	4.96
460.648	4.86
461.005	4.83
461.361	4.84
461.717	4.74
462.073	4.75
462.429	4.69
462.785	4.77
463.141	4.73
463.496	4.81
463.852	4.81
464.208	4.81
464.564	4.99
464.919	4.87
465.275	5
465.631	4.82
465.986	4.97
466.342	5.08
466.697	4.93
467.052	4.78
467.408	4.79
467.763	4.72
468.118	4.7
468.473	4.82
468.829	4.91
469.184	4.9
469.539	4.9
469.894	4.93
470.249	4.79
470.603	4.78
470.958	4.97
471.313	4.96
471.668	4.81
472.023	4.83
472.377	4.9
472.732	4.89
473.086	4.9
473.441	4.85
473.795	4.86
474.15	4.97
474.504	5
474.859	4.93
475.213	5.02
475.567	4.89
475.921	5.16
476.275	4.83
476.63	5.08
476.984	5.02
477.338	4.84
477.692	4.93
478.045	4.91
478.399	4.95
478.753	4.94
479.107	4.87
479.461	4.97
479.814	5.02
480.168	4.94
480.521	4.93
480.875	4.95
481.228	4.96
481.582	4.9
481.935	4.89
482.289	4.9
482.642	4.95
482.995	5.01
483.348	4.96
483.701	4.96
484.055	4.96
484.408	4.92
484.761	4.89
485.114	4.84
485.466	4.8
485.819	4.7
486.172	4.68
486.525	4.67
486.878	4.66
487.23	4.68
487.583	4.78
487.936	4.84
488.288	4.8
488.641	4.92
488.993	4.83
489.345	4.83
489.698	4.79
490.05	4.73
490.402	4.69
490.754	4.76
491.107	4.75
491.459	4.83
491.811	4.85
492.163	4.88
492.515	5.01
492.866	4.99
493.218	4.93
493.57	4.88
493.922	4.8
494.274	4.86
494.625	4.75
494.977	4.89
495.328	4.95
495.68	4.94
496.031	4.99
496.383	4.99
496.734	5
497.086	5.11
497.437	5.17
497.788	5.09
498.139	5.17
498.49	4.99
498.842	5.17
499.193	4.99
499.544	4.94
499.894	4.98
500.245	4.99
500.596	4.94
500.947	5.02
501.298	5.12
501.648	5.15
501.999	5.16
502.35	5.19
502.7	5.15
503.051	5.22
503.401	5.17
503.752	5.03
504.102	5.14
504.452	5.09
504.803	5.12
505.153	5.12
505.503	5.08
505.853	5.07
506.203	5.2
506.553	5.23
506.903	5.27
507.253	5.28
507.603	5.2
507.953	5.21
508.303	5.3
508.652	5.19
509.002	5.55
509.352	5.01
509.701	5.11
510.051	5.18
510.4	5.24
510.75	5.19
511.099	5.25
511.449	5.21
511.798	5.21
512.147	5.2
512.496	5.27
512.846	5.22
513.195	5.26
513.544	5.29
513.893	5.28
514.242	5.2
514.591	5.25
514.939	5.15
515.288	5.3
515.637	5.29
515.986	5.19
516.334	5.34
516.683	5.4
517.032	5.41
517.38	5.37
517.729	5.36
518.077	5.37
518.426	5.31
518.774	5.43
519.122	5.47
519.47	5.23
519.819	5.37
520.167	5.36
520.515	5.28
520.863	5.22
521.211	5.35
521.559	5.36
521.907	5.36
522.255	5.22
522.602	5.45
522.95	5.48
523.298	5.44
523.645	5.48
523.993	5.39
524.341	5.64
524.688	5.55
525.036	5.55
525.383	5.5
525.73	5.68
526.078	5.58
526.425	5.49
526.772	5.5
527.119	5.44
527.466	5.44
527.814	5.42
528.161	5.39
528.508	5.41
528.854	5.43
529.201	5.48
529.548	5.47
529.895	5.58
530.242	5.43
530.588	5.34
530.935	5.33
531.282	5.32
531.628	5.33
531.975	5.34
532.321	5.36
532.667	5.37
533.014	5.55
533.36	5.55
533.706	5.58
534.052	5.58
534.399	5.62
534.745	5.66
535.091	5.61
535.437	5.54
535.783	5.57
536.129	5.54
536.474	5.6
536.82	5.57
537.166	5.67
537.512	5.65
537.857	5.83
538.203	5.7
538.549	5.7
538.894	5.73
539.239	5.66
539.585	5.65
539.93	5.69
540.276	5.72
540.621	5.85
540.966	5.84
541.311	5.95
541.656	5.81
542.001	5.87
542.346	5.94
542.691	5.88
543.036	5.79
543.381	5.74
543.726	5.73
544.071	5.71
544.415	5.72
544.76	5.73
545.105	5.73
545.449	5.78
545.794	5.85
546.138	5.93
546.483	5.88
546.827	5.96
547.171	6
547.516	5.97
547.86	6.05
548.204	6.07
548.548	6.09
548.892	5.95
549.236	6.05
549.58	5.86
549.924	6.08
550.268	6.09
550.612	6.17
550.956	6.2
551.3	6.14
551.643	6.33
551.987	6.14
552.33	6.42
552.674	6.35
553.017	6.39
553.361	6.47
553.704	6.24
554.048	6.47
554.391	6.19
554.734	6.36
555.077	6.4
555.42	6.33
555.764	6.41
556.107	6.33
556.45	6.31
556.793	6.31
557.135	6.42
557.478	6.44
557.821	6.6
558.164	6.5
558.507	6.54
558.849	6.69
559.192	6.4
559.534	6.52
559.877	6.65
560.219	6.87
560.562	6.57
560.904	6.81
561.246	6.6
561.589	6.59
561.931	6.78
562.273	6.61
562.615	6.61
562.957	6.78
563.299	7.04
563.641	6.72
563.983	6.64
564.325	6.89
564.667	6.71
565.008	6.73
565.35	6.98
565.692	6.99
566.033	6.88
566.375	7.05
566.716	6.98
567.058	7.05
567.399	6.86
567.741	6.97
568.082	6.95
568.423	6.95
568.764	6.81
569.105	7.14
569.447	7.09
569.788	6.95
570.129	7.04
570.47	7.03
570.811	7.22
571.151	7.04
571.492	7.07
571.833	6.91
572.174	7.23
572.514	7.2
572.855	7.14
573.195	7.3
573.536	7.37
573.876	7.12
574.217	7.3
574.557	7.35
574.898	7.4
575.238	7.53
575.578	7.28
575.918	7.39
576.258	7.37
576.598	7.4
576.938	7.37
577.278	7.53
577.618	7.37
577.958	7.47
578.298	7.62
578.638	7.51
578.977	7.49
579.317	7.53
579.657	7.55
579.996	7.65
580.336	7.63
580.675	7.85
581.014	7.89
581.354	7.74
581.693	7.76
582.032	8
582.372	8.04
582.711	8.19
583.05	7.89
583.389	7.92
583.728	7.92
584.067	8.19
584.406	7.86
584.745	8
585.083	8.12
585.422	8.06
585.761	8.18
586.1	8.22
586.438	8.16
586.777	8.25
587.115	8.04
587.454	8.16
587.792	8.3
588.13	8.23
588.469	8.19
588.807	8.09
589.145	8.34
589.483	8.43
589.821	8.44
590.159	8.42
590.497	8.38
590.835	8.62
591.173	8.38
591.511	8.28
591.849	8.49
592.187	8.38
592.524	8.45
592.862	8.49
593.2	8.31
593.537	8.73
593.875	8.75
594.212	8.66
594.55	8.87
594.887	8.75
595.224	8.79
595.561	8.63
595.899	8.54
596.236	9.09
596.573	9.09
596.91	8.81
597.247	8.98
597.584	8.89
597.921	8.82
598.258	8.91
598.594	8.89
598.931	8.91
599.268	8.9
599.604	8.84
599.941	9.04
600.277	8.93
600.614	9.32
600.95	9.17
601.287	9.13
601.623	9.3
601.959	9.41
602.296	9.09
602.632	9.3
602.968	9.24
603.304	9.4
603.64	9.31
603.976	9.52
604.312	9.51
604.648	9.15
604.984	9.5
605.319	9.43
605.655	9.54
605.991	9.65
606.326	9.57
606.662	9.32
606.998	9.6
607.333	9.59
607.668	9.76
608.004	9.6
608.339	9.79
608.674	9.74
609.01	9.81
609.345	9.92
609.68	9.78
610.015	9.94
610.35	10.06
610.685	9.86
611.02	9.94
611.355	9.99
611.689	9.95
612.024	10.06
612.359	10.07
612.694	9.94
613.028	9.97
613.363	9.98
613.697	9.99
614.032	10.38
614.366	10.02
614.7	10.62
615.035	10.15
615.369	10.45
615.703	10.38
616.037	10
616.371	10.15
616.705	10.39
617.039	10.43
617.373	10.72
617.707	10.61
618.041	10.46
618.375	10.43
618.709	10.56
619.042	10.7
619.376	10.81
619.71	10.59
620.043	10.9
620.377	10.87
620.71	10.79
621.043	11.07
621.377	10.81
621.71	10.97
622.043	10.77
622.376	10.97
622.709	10.7
623.043	11.11
623.376	10.99
623.709	11.08
624.041	11.29
624.374	11.07
624.707	11
625.04	10.99
625.373	11.05
625.705	11.32
626.038	11.21
626.37	11.3
626.703	11.38
627.035	11.4
627.368	11.55
627.7	11.7
628.032	11.52
628.365	11.24
628.697	11.4
629.029	11.75
629.361	11.67
629.693	11.78
630.025	11.53
630.357	11.47
630.689	11.41
631.021	11.88
631.353	11.46
631.684	11.85
632.016	11.46
632.348	11.71
632.679	11.81
633.011	11.79
633.342	11.79
633.674	11.82
634.005	11.85
634.336	11.95
634.668	12.03
634.999	12.01
635.33	12.32
635.661	11.99
635.992	12.17
636.323	12.55
636.654	12.19
636.985	12.15
637.316	12.36
637.647	12.34
637.977	12.26
638.308	12.26
638.639	12.22
638.969	12.92
639.3	12.41
639.63	12.75
639.961	12.6
640.291	12.65
640.622	12.59
640.952	12.24
641.282	12.71
641.612	12.74
641.943	12.77
642.273	13.06
642.603	12.64
642.933	12.44
643.263	13.18
643.592	12.8
643.922	12.75
644.252	12.86
644.582	12.81
644.911	12.9
645.241	12.96
645.571	12.9
645.9	13.05
646.23	12.86
646.559	13.06
646.888	13.33
647.218	12.77
647.547	13.27
647.876	13.17
648.205	13.54
648.534	13.53
648.863	13.48
649.192	13.91
649.521	13.52
649.85	13.97
650.179	13.75
650.508	13.72
650.837	13.48
651.165	13.7
651.494	13.36
651.822	13.71
652.151	13.38
652.479	14.06
652.808	13.45
653.136	13.56
653.465	13.78
653.793	14.12
654.121	13.99
654.449	14.06
654.777	13.46
655.105	13.95
655.433	13.92
655.761	13.79
656.089	14.07
656.417	13.66
656.745	14.31
657.073	13.84
657.4	14.39
657.728	14.59
658.056	14.41
658.383	14.23
658.711	14.53
659.038	14.39
659.365	14.33
659.693	14.77
660.02	14.38
660.347	14.79
660.674	15.01
661.001	14.95
661.329	14.7
661.656	14.33
661.982	14.53
662.309	14.85
662.636	14.92
662.963	14.95
663.29	14.92
663.616	14.59
663.943	14.96
664.27	15.13
664.596	14.77
664.923	15.09
665.249	14.65
665.576	15.2
665.902	14.76
666.228	14.85
666.554	14.92
666.881	15.29
667.207	15.19
667.533	15.28
667.859	15.26
668.185	15.42
668.511	15.4
668.837	15.37
669.162	15.07
669.488	14.99
669.814	15.92
670.139	15.38
670.465	15.86
670.791	16.11
671.116	15.58
671.442	15.38
671.767	15.4
672.092	15.99
672.418	15.6
672.743	15.66
673.068	15.72
673.393	16.23
673.718	15.57
674.043	16
674.368	15.79
674.693	16.38
675.018	16.45
675.343	16.34
675.667	16.73
675.992	16.12
676.317	16.22
676.641	16.68
676.966	16.38
677.29	16.26
677.615	17.12
677.939	16
678.264	16.47
678.588	16.74
678.912	17.25
679.236	16.43
679.56	16.03
679.885	16.7
680.209	16.37
680.532	17.35
680.856	16.57
681.18	16.43
681.504	16.53
681.828	16.93
682.152	17.09
682.475	17.06
682.799	16.54
683.122	16.77
683.446	16.71
683.769	16.75
684.093	17.33
684.416	17.34
684.739	16.48
685.062	17.21
685.386	17.09
685.709	16.96
686.032	16.8
686.355	17.31
686.678	17.56
687.001	16.18
687.324	16.47
687.646	16.79
687.969	16.9
688.292	17.82
688.614	17.67
688.937	17.23
689.26	18.12
689.582	17.18
689.904	16.99
690.227	18.07
690.549	17.05
690.871	17.62
691.194	17.66
691.516	17.43
691.838	17.91
692.16	17.95
692.482	18.46
692.804	17.47
693.126	17.8
693.448	17.96
693.769	17.59
694.091	17.77
694.413	16.9
694.735	18.37
695.056	17.75
695.378	18.63
695.699	19.35
696.021	18.04
696.342	17.8
696.663	18.41
696.984	18.31
697.306	18.02
697.627	17.6
697.948	17.82
698.269	17.89
698.59	18.41
698.911	18.22
699.232	18.74
699.553	18.38
699.873	17.99
700.194	18.1
700.515	19.07
700.835	18.4
701.156	18.82
701.477	19.02
701.797	18.8
702.117	18.43
702.438	19.09
702.758	18.47
703.078	19.86
703.398	18.68
703.719	19.79
704.039	18.57
704.359	18.99
704.679	18.81
704.999	18.92
705.319	18.4
705.638	19.36
705.958	18.54
706.278	19.43
706.597	18.83
706.917	19.49
707.237	17.86
707.556	19.36
707.876	20.27
708.195	19.4
708.514	18.91
708.834	18.78
709.153	20.04
709.472	19.6
709.791	19.97
710.11	19.34
710.429	19.38
710.748	20.18
711.067	19.11
711.386	19.95
711.705	21.39
712.023	20.2
712.342	20.7
712.661	19.64
712.979	20.26
713.298	19.58
713.616	20.37
713.935	19.9
714.253	19.92
714.572	19.9
714.89	19.97
715.208	20.8
715.526	20.02
715.844	20.29
716.162	20.5
716.48	19.76
716.798	20.35
717.116	20.7
717.434	20.43
717.752	19.75
718.069	20.94
718.387	20.32
718.705	20.37
719.022	20.25
719.34	20.8
719.657	21.17
719.975	21.1
720.292	19.85
720.609	20.62
720.927	20.59
721.244	20.63
721.561	21.12
721.878	21.57
722.195	21.47
722.512	19.99
722.829	20.59
723.146	22.13
723.463	21.42
723.779	20.55
724.096	21.86
724.413	22.18
724.729	22.19
725.046	20.25
725.362	20.8
725.679	22.01
725.995	20.78
726.311	22.35
726.628	22.13
726.944	22.6
727.26	21.03
727.576	21.87
727.892	20.9
728.208	22.69
728.524	22.64
728.84	22.02
729.156	20.87
729.472	22.05
729.787	21.23
730.103	21.75
730.419	23.04
730.734	22.13
731.05	20.68
731.365	21.83
731.681	22.13
731.996	22.86
732.311	22.27
732.626	22.65
732.942	22.55
733.257	22.32
733.572	21.83
733.887	22.52
734.202	23.31
734.517	22.16
734.832	23.64
735.146	24.08
735.461	21.58
735.776	21.67
736.091	21.89
736.405	23.3
736.72	23.73
737.034	23.09
737.349	23.22
737.663	21.19
737.977	23.04
738.292	22.69
738.606	23.24
738.92	22.12
739.234	22.58
739.548	23.62
739.862	22.45
740.176	21.84
740.49	22.82
740.804	22.12
741.117	21.49
741.431	25.07
741.745	23.21
742.058	24.38
742.372	24.46
742.685	26.61
742.999	21.72
743.312	24.21
743.626	24.51
743.939	24.07
744.252	24.23
744.565	23.22
744.878	23.5
745.191	23.07
745.505	26.74
745.817	23.92
746.13	23.68
746.443	25.05
746.756	25.18
747.069	24.26
747.381	22.63
747.694	24.73
748.007	25.39
748.319	23.91
748.632	24.23
748.944	25.44
749.256	26.13
749.569	24.52
749.881	24.84
750.193	24.47
750.505	26.41
750.817	25.42
751.129	23.05
751.441	24.62
751.753	23.64
752.065	24.34
752.377	25
752.689	24.48
753	25.38
753.312	25.35
753.624	24.36
753.935	24.73
754.247	25.39
754.558	23.83
754.869	26.18
755.181	25.31
755.492	24.58
755.803	25.77
756.114	22.99
756.425	24.11
756.736	25.46
757.047	23.78
757.358	24.32
757.669	24.83
757.98	26.43
758.291	23.6
758.601	25.33
758.912	25.14
759.223	24.57
759.533	23.5
759.844	24.66
760.154	25.34
760.464	27.22
760.775	25.74
761.085	26.9
761.395	26.19
761.705	24.94
762.016	26.66
762.326	28.23
762.636	24.03
762.945	25.74
763.255	24.71
763.565	26.09
763.875	26.01
764.185	24.77
764.494	27.36
764.804	26.87
765.113	24.58
765.423	25.48
765.732	27.33
766.042	25.91
766.351	25.11
766.66	25.46
766.97	25.95
767.279	26.72
767.588	25.53
767.897	24.33
768.206	25.28
768.515	25.59
768.824	26.84
769.133	27.11
769.441	25.13
769.75	27.53
770.059	27.22
770.367	26.83
770.676	25.14
770.984	26.49
771.293	25.81
771.601	28.41
771.91	29.05
772.218	26.28
772.526	28.99
772.834	26.07
773.142	28.07
773.45	24.99
773.758	26.05
774.066	28.19
774.374	24.82
774.682	29.04
774.99	25.78
775.298	29.24
775.605	27.59
775.913	26.53
776.22	27.68
776.528	28.07
776.835	27.26
777.143	27
777.45	24.71
777.757	29.58
778.065	29.07
778.372	29.26
778.679	27.61
778.986	25.95
779.293	31.26
779.6	29.81
779.907	28.46
780.214	28.82
780.52	30.21
780.827	29.56
781.134	30.55
781.44	28.86
781.747	27.99
782.053	27.91
782.36	26.34
782.666	30.19
782.973	29.38
783.279	24.43
783.585	29.04
783.891	28.07
784.197	27.17
784.503	27.71
784.809	26.98
785.115	26.8
785.421	27.6
785.727	30.34
786.033	31.82
786.339	28.49
786.644	29.85
786.95	29.12
787.255	28.03
787.561	30.3
787.866	27.22
788.172	29.18
788.477	29.18
788.782	30.09
789.088	28.32
789.393	32.95
789.698	30.63
790.003	30.45
790.308	32.45
790.613	30.17
790.918	28.58
791.223	28.89
791.527	26.88
791.832	24.81
792.137	30.05
792.441	28.34
792.746	28.89
793.05	29.58
793.355	30.18
793.659	29.53
793.963	29.47
794.268	32
794.572	28.53
794.876	26.21
795.18	31.08
795.484	25.71
795.788	27.2
796.092	27.87
796.396	27.4
796.7	29.75
797.004	28.31
797.307	29.1
797.611	31.2
797.915	30.32
798.218	25.72
798.522	29.57
798.825	26.98
799.128	27.64
799.432	32.4
799.735	29.69
800.038	31.76
800.341	29.35
800.644	31.28
800.947	29.21
801.25	30.42
801.553	31.47
801.856	31.52
802.159	28.86
802.462	29.99
802.764	29.52
803.067	28.11
803.37	29.63
803.672	30.12
803.975	29.71
804.277	29.78
804.579	31.06
804.882	27.88
805.184	29.05
805.486	29.07
805.788	29.24
806.09	31.23
806.392	26.78
806.694	29.85
806.996	31.6
807.298	31.01
807.6	27.63
807.902	29.88
808.203	34.1
808.505	29.62
808.807	30.74
809.108	29.96
809.409	33.93
809.711	30.86
810.012	28.41
810.313	27.63
810.615	32.3
810.916	32.62
811.217	36
811.518	31.28
811.819	28.92
812.12	32.26
812.421	29.99
812.722	30.5
813.023	30.06
813.323	26.9
813.624	27.27
813.925	31.53
814.225	27.22
814.526	32.49
814.826	30.9
815.126	30.36
815.427	33.75
815.727	33.13
816.027	35.01
816.327	35.45
816.627	36.06
816.927	32.68
817.227	25.78
817.527	30.62
817.827	30.9
818.127	28.58
818.427	29.79
818.727	31.38
819.026	29.73
819.326	29.57
819.625	31.34
819.925	30.02
820.224	31.7
820.524	35.26
820.823	29.49
821.122	32.69
821.421	30.04
821.72	28.14
822.019	38.71
822.318	30.29
822.617	31.31
822.916	32.53
823.215	36.01
823.514	28.8
823.813	33.27
824.111	33.35
824.41	32.85
824.709	32.92
825.007	31.44
825.306	33.16
825.604	33.46
825.902	34.15
826.201	32.85
826.499	34.89
826.797	32.93
827.095	33.34
827.393	35.05
827.691	31.92
827.989	35.12
828.287	32.68
828.585	32.55
828.882	32.53
829.18	32.9
829.478	32.88
829.775	33.92
830.073	31.32
830.37	32.52
830.668	33.27
830.965	33.94
831.263	32.99
831.56	31.81
831.857	32.8
832.154	33.78
832.451	31.2
832.748	36.29
833.045	29.57
833.342	34.6
833.639	32.39
833.936	35.25
834.232	33.78
834.529	29.48
834.826	37.57
835.122	35.38
835.419	37.64
835.715	37.07
836.012	38.33
836.308	33.46
836.604	36.46
836.901	30.58
837.197	35.68
837.493	31.35
837.789	33.72
838.085	37.94
838.381	34.63
838.677	34.16
838.972	35.14
839.268	32.68
839.564	32.68
839.86	31.53
840.155	34.61
840.451	30.83
840.746	36.07
841.042	30.03
841.337	31.05
841.632	29.44
841.928	35.02
842.223	36.37
842.518	33.18
842.813	34.41
843.108	35.03
843.403	35.47
843.698	31.66
843.993	32.55
844.287	39.63
844.582	42.9
844.877	36.53
845.171	38.63
845.466	28.41
845.761	37.29
846.055	37.15
846.349	28.37
846.644	32.31
846.938	21.97
847.232	29.12
847.526	29
847.82	27.86
848.114	28.61
848.408	34.76
848.702	29.94
848.996	34.37
849.29	33.13
849.584	32.62
849.877	40.17
850.171	33.13
850.465	35.28
850.758	37.96
851.052	31.23
851.345	24.06
851.638	28.24
851.932	14.76
852.225	43.87
852.518	51.07
852.811	22.4
853.104	33.2
853.397	16.3
853.69	34.58
853.983	36.04
854.276	22.96
854.569	26.52
854.861	28.98
855.154	24.52
855.447	41.29
855.739	24.29
856.032	30.84
856.324	25.47
856.616	9.69
856.909	24.5
857.201	35.92
857.493	16.49
857.785	21.09
858.077	22.22
858.369	31.25
858.661	39.51
858.953	28.37
859.245	24.27
859.537	48.55
859.829	43.11
860.12	23.43
860.412	28.69
860.703	24.64
860.995	18.9
861.286	35.62
861.578	30.73
861.869	30.61
862.16	47.65
862.452	39.99
862.743	38.58
863.034	25.33
863.325	43.61
863.616	43.83
863.907	16.36
864.198	33.62
864.488	22.04
864.779	44.88
865.07	32.09
865.36	35.11
865.651	18.52
865.941	22.17
866.232	17.91
866.522	36.84
866.813	18.5
867.103	31.2
867.393	8.2
867.683	26.6
867.973	44.08
868.263	19.73
868.553	25.45
868.843	54.56
869.133	24
869.423	28.57
869.713	22.89
870.002	22.64
870.292	32.68
870.582	29.85
870.871	37.79
871.161	24.79
871.45	69.22
871.739	22.68
872.029	9.06
872.318	24.43
872.607	50.89
872.896	42.21
873.185	28.67
873.474	38.82
873.763	30.9
874.052	11
874.341	20.96
874.63	42.96
874.918	27.56
875.207	40.43
875.496	28.57
875.784	42.6
876.073	7.98
876.361	57.49
876.649	26.98
876.938	32.3
877.226	39.47
877.514	25.82
877.802	65.52
878.09	17.82
878.378	39.83
878.666	28.46
878.954	30.32
879.242	6.84
879.53	28.28
879.817	62.66
880.105	32.88
880.392	19.96
880.68	22.43
880.967	22.43
881.255	53.83
881.542	28.86
881.83	48.53
882.117	60.67
882.404	35.37
882.691	22.28
882.978	35.74
883.265	52.54
883.552	48.07
883.839	50.81
884.126	43.83
884.413	58.43
884.699	36.88
884.986	47.22
885.273	38.26
885.559	38.26
885.846	38.26
