Data from 0185_forehead_Reflection_Reflection__1__001.txt Node

Date: Mon Aug 28 18:36:20 CDT 2023
User: ToomeyLab
Spectrometer: FLMS14357
Trigger mode: 0
Integration Time (sec): 1.000000E-2
Scans to average: 100
Electric dark correction enabled: true
Nonlinearity correction enabled: false
Boxcar width: 0
XAxis mode: Wavelengths
Number of Pixels in Spectrum: 2048
>>>>>Begin Spectral Data<<<<<
189.047	-160.05
189.435	-160.05
189.823	-160.05
190.211	-3497.67
190.599	249.74
190.987	-258.73
191.375	-111.46
191.763	67.03
192.151	-93.32
192.538	14.64
192.926	139.88
193.314	502.03
193.702	155.46
194.089	142.98
194.477	1430.59
194.864	-247.73
195.252	159.36
195.639	1476.92
196.027	93.79
196.414	468.41
196.801	99.64
197.189	165.26
197.576	-336.84
197.963	58.59
198.351	30.71
198.738	130.18
199.125	31.15
199.512	118.82
199.899	70.52
200.286	140.8
200.673	58.06
201.06	16.91
201.447	43.9
201.833	-11.95
202.22	49.49
202.607	51.09
202.994	41.73
203.38	40.06
203.767	96.31
204.154	31.99
204.54	-0.14
204.927	19.29
205.313	70.49
205.699	40.36
206.086	75.71
206.472	40.88
206.858	50.06
207.245	50.73
207.631	48.56
208.017	44.32
208.403	35.54
208.789	17.7
209.175	45.43
209.561	70.89
209.947	22.5
210.333	14.02
210.719	52.51
211.105	72.76
211.491	20.29
211.876	61.43
212.262	144.92
212.648	69.57
213.034	42.15
213.419	42.9
213.805	31.78
214.19	41.8
214.576	32.62
214.961	50.35
215.346	46.2
215.732	47.03
216.117	47.27
216.502	28.77
216.888	25.3
217.273	7.79
217.658	30.38
218.043	43.83
218.428	34.74
218.813	27.09
219.198	58.77
219.583	32.35
219.968	36.89
220.353	23.24
220.738	16.35
221.122	32.98
221.507	22.24
221.892	12.56
222.276	30.72
222.661	27.22
223.046	21.4
223.43	24.98
223.815	19.26
224.199	29.78
224.583	18.86
224.968	16.75
225.352	10.16
225.736	18.71
226.121	9.09
226.505	7.09
226.889	13.88
227.273	12.27
227.657	15.48
228.041	14.61
228.425	10.58
228.809	9.16
229.193	11.77
229.577	12.5
229.961	9
230.344	9.1
230.728	7.41
231.112	7.42
231.495	8.2
231.879	7.8
232.263	8.37
232.646	8.86
233.03	10.14
233.413	11.18
233.797	8.15
234.18	8
234.563	10.24
234.946	14.04
235.33	9.7
235.713	6.63
236.096	8.71
236.479	7.32
236.862	9.78
237.245	6.64
237.628	8.16
238.011	11.99
238.394	10.19
238.777	10.74
239.16	8.44
239.543	7.53
239.925	8.12
240.308	9.79
240.691	9.04
241.073	9.37
241.456	8.7
241.838	8.34
242.221	9.38
242.603	9.08
242.986	8.67
243.368	8.65
243.75	6.96
244.133	7.6
244.515	7.25
244.897	7.99
245.279	8.1
245.661	7.63
246.043	8.23
246.425	7.71
246.807	10.08
247.189	6.63
247.571	8.17
247.953	7.51
248.335	7.38
248.717	7.5
249.098	7.51
249.48	7.29
249.862	7.49
250.243	7.55
250.625	8.02
251.006	7.58
251.388	7.88
251.769	8.77
252.151	9.14
252.532	8.1
252.913	10.04
253.295	6.96
253.676	7.97
254.057	8.05
254.438	7.49
254.819	7.4
255.2	8.57
255.581	7.99
255.962	10.41
256.343	9.72
256.724	8.46
257.105	7.57
257.486	9.51
257.867	8.66
258.247	8.02
258.628	9.08
259.009	7.88
259.389	8.14
259.77	8.05
260.15	7.54
260.531	7.68
260.911	7.96
261.292	7.75
261.672	7.3
262.052	7.13
262.432	7.27
262.813	7.35
263.193	7.16
263.573	7.69
263.953	7.3
264.333	7.85
264.713	7.52
265.093	8.43
265.473	7.69
265.853	8.02
266.233	7.5
266.612	8.56
266.992	7.97
267.372	8.36
267.752	8.2
268.131	7.86
268.511	7.47
268.89	7.81
269.27	7.15
269.649	7.45
270.029	8.24
270.408	7.58
270.787	7.46
271.167	7.48
271.546	7.26
271.925	7.26
272.304	7.06
272.683	8.01
273.062	7.48
273.441	7.78
273.82	7.37
274.199	7.23
274.578	7.19
274.957	7.38
275.336	7.51
275.715	7.89
276.093	6.91
276.472	7.69
276.851	7.83
277.229	7.74
277.608	7.26
277.986	7.1
278.365	7.64
278.743	7.22
279.122	7.29
279.5	7.05
279.878	6.98
280.257	7.28
280.635	7.24
281.013	7.57
281.391	7.12
281.769	7.17
282.147	7.55
282.525	7.28
282.903	7.41
283.281	7.2
283.659	7.62
284.037	7.66
284.415	7.39
284.792	7.28
285.17	6.87
285.548	7.01
285.925	7.75
286.303	7.54
286.68	8.12
287.058	7.56
287.435	7.27
287.813	7.24
288.19	7.85
288.567	7.27
288.945	7.41
289.322	7.47
289.699	8
290.076	8
290.453	8.04
290.83	6.91
291.207	7.27
291.584	7.79
291.961	7.96
292.338	7.65
292.715	7.76
293.092	8.49
293.469	8.15
293.845	8
294.222	8.13
294.599	8.48
294.975	8.66
295.352	8.11
295.728	8.75
296.105	8.54
296.481	8.3
296.858	8.96
297.234	8.9
297.61	9.01
297.986	8.24
298.363	8.73
298.739	9.03
299.115	8.74
299.491	9.13
299.867	9.01
300.243	9.29
300.619	9.09
300.995	9.5
301.371	9.23
301.746	9.78
302.122	9.81
302.498	9.55
302.874	10.21
303.249	10.09
303.625	9.66
304	9.85
304.376	9.58
304.751	10.39
305.127	10.65
305.502	10.68
305.878	10.7
306.253	10.49
306.628	10.82
307.003	10.67
307.378	11.34
307.754	11.98
308.129	10.79
308.504	11.64
308.879	11.76
309.254	11.65
309.629	11.91
310.003	12.01
310.378	12.08
310.753	12.4
311.128	12.56
311.502	12.58
311.877	12.56
312.252	12.76
312.626	12.74
313.001	12.69
313.375	12.97
313.75	13.14
314.124	13.14
314.498	13.24
314.873	13.79
315.247	14.33
315.621	13.71
315.995	13.74
316.369	14.64
316.743	14.04
317.117	14.43
317.491	14.22
317.865	14.64
318.239	15.06
318.613	15.26
318.987	15.64
319.361	15.81
319.734	15.29
320.108	16.06
320.482	16.18
320.855	15.99
321.229	15.81
321.602	16.41
321.976	16.08
322.349	16.8
322.723	16.87
323.096	16.67
323.469	17.1
323.843	17
324.216	17.26
324.589	17.3
324.962	17.86
325.335	17.82
325.708	17.47
326.081	17.52
326.454	18.17
326.827	17.97
327.2	17.86
327.573	18.22
327.945	18.66
328.318	18.85
328.691	18.36
329.063	18.22
329.436	18.63
329.809	19.22
330.181	18.16
330.553	19.15
330.926	19.15
331.298	19.49
331.671	19.51
332.043	19.73
332.415	20.43
332.787	19.16
333.159	19.8
333.532	20.93
333.904	20.34
334.276	20.11
334.648	20.75
335.02	20.81
335.391	20.57
335.763	20.5
336.135	20.9
336.507	20.57
336.879	20.56
337.25	21.02
337.622	21.08
337.993	21.51
338.365	21.68
338.736	22.09
339.108	21.28
339.479	21.59
339.851	22.43
340.222	21.84
340.593	22.01
340.964	22.28
341.336	22.01
341.707	22.77
342.078	22.45
342.449	22.64
342.82	23.44
343.191	23.19
343.562	22.6
343.933	23.17
344.303	23.05
344.674	23.94
345.045	23.42
345.416	23.46
345.786	24.22
346.157	23.92
346.527	23.51
346.898	23.68
347.268	23.56
347.639	24.27
348.009	24.01
348.38	24.71
348.75	24.35
349.12	25.29
349.49	24.55
349.861	24.78
350.231	25.38
350.601	25.18
350.971	25.55
351.341	25.37
351.711	25.12
352.081	25.44
352.45	25.57
352.82	25.99
353.19	25.76
353.56	26.16
353.929	26.19
354.299	25.83
354.669	26.33
355.038	26.64
355.408	26.34
355.777	26.87
356.147	26.64
356.516	26.53
356.885	26.62
357.254	26.57
357.624	26.81
357.993	27.29
358.362	27.14
358.731	27.19
359.1	27.81
359.469	27.96
359.838	27.45
360.207	27.5
360.576	28.13
360.945	28.23
361.314	27.87
361.682	27.94
362.051	28.33
362.42	28.41
362.788	28.39
363.157	28.02
363.525	28.55
363.894	28.67
364.262	28.73
364.631	28.58
364.999	28.91
365.367	29.38
365.735	29.66
366.104	28.87
366.472	29.25
366.84	29.57
367.208	29.79
367.576	29.54
367.944	29.85
368.312	29.76
368.68	29.84
369.048	29.62
369.416	30.23
369.783	29.93
370.151	30.7
370.519	30.86
370.886	30.57
371.254	30.68
371.621	31.07
371.989	31.17
372.356	31.06
372.724	31.38
373.091	31.51
373.458	31.36
373.826	31.47
374.193	31.6
374.56	31.3
374.927	31.83
375.294	32.03
375.661	32.06
376.028	32.33
376.395	32.33
376.762	32.83
377.129	32.47
377.496	32.54
377.863	32.83
378.229	32.61
378.596	32.97
378.963	33.23
379.329	32.99
379.696	33.28
380.062	33.24
380.429	33.27
380.795	33.7
381.161	33.74
381.528	34.06
381.894	34.23
382.26	34.09
382.626	34.42
382.993	34.22
383.359	34.23
383.725	34.57
384.091	34.71
384.457	34.34
384.823	35.01
385.188	35.13
385.554	34.47
385.92	35.34
386.286	35.18
386.651	35.08
387.017	35.5
387.383	35.71
387.748	35.64
388.114	35.7
388.479	35.47
388.845	36.12
389.21	35.98
389.575	36.25
389.94	36.11
390.306	36.53
390.671	36.43
391.036	36.44
391.401	36.86
391.766	36.77
392.131	36.54
392.496	36.77
392.861	37.2
393.226	36.95
393.591	37.1
393.956	37.23
394.32	37.44
394.685	37.31
395.05	37.58
395.414	37.62
395.779	37.81
396.143	38.13
396.508	37.8
396.872	38.31
397.236	38.27
397.601	38.44
397.965	38.39
398.329	38.51
398.694	38.25
399.058	39.05
399.422	38.76
399.786	39.34
400.15	39.05
400.514	39.11
400.878	39.6
401.242	39.21
401.605	39.67
401.969	39.44
402.333	39.35
402.697	39.39
403.06	40.03
403.424	40.26
403.787	40.01
404.151	39.87
404.514	40.24
404.878	40.25
405.241	40.63
405.604	40.46
405.968	40.58
406.331	40.67
406.694	40.23
407.057	40.66
407.42	40.6
407.783	40.87
408.146	41.21
408.509	41.28
408.872	40.98
409.235	41.51
409.598	41.67
409.961	41.65
410.323	41.99
410.686	42.03
411.049	41.85
411.411	42.02
411.774	41.9
412.136	41.96
412.499	42.22
412.861	42.42
413.223	42.43
413.586	42.34
413.948	42.89
414.31	42.92
414.672	43.13
415.035	43.01
415.397	42.7
415.759	43.18
416.121	43.42
416.483	43.23
416.845	43.63
417.206	43.64
417.568	43.57
417.93	43.48
418.292	43.43
418.653	43.65
419.015	43.82
419.377	43.75
419.738	44.01
420.1	43.79
420.461	43.62
420.822	43.73
421.184	43.88
421.545	44.02
421.906	44.04
422.267	43.99
422.629	44.03
422.99	43.98
423.351	44.16
423.712	44.04
424.073	44.37
424.434	44.5
424.795	44.68
425.155	44.85
425.516	44.72
425.877	44.8
426.238	44.99
426.598	44.89
426.959	45.13
427.32	44.84
427.68	45.11
428.041	45.38
428.401	45.46
428.761	46.01
429.122	45.97
429.482	46.31
429.842	46.37
430.202	46.56
430.563	46.54
430.923	46.65
431.283	46.6
431.643	46.99
432.003	47.12
432.363	47.19
432.722	47.14
433.082	47.15
433.442	47.49
433.802	47.38
434.161	47.67
434.521	47.49
434.881	47.39
435.24	47.54
435.6	47.62
435.959	47.37
436.319	47.83
436.678	47.95
437.037	48.09
437.396	48.39
437.756	48.26
438.115	48.51
438.474	48.54
438.833	48.69
439.192	48.98
439.551	48.62
439.91	48.8
440.269	48.97
440.628	48.88
440.987	48.85
441.345	48.96
441.704	49.05
442.063	48.83
442.421	48.84
442.78	49.23
443.138	49.32
443.497	49.39
443.855	49.34
444.214	49.51
444.572	49.73
444.93	49.72
445.288	49.91
445.647	50.08
446.005	50.1
446.363	50.09
446.721	50.16
447.079	50.12
447.437	50.23
447.795	50.14
448.153	50.03
448.51	49.96
448.868	50.21
449.226	50.21
449.584	50.41
449.941	50.59
450.299	50.91
450.656	50.87
451.014	51.25
451.371	51.16
451.729	51.38
452.086	51.49
452.443	51.7
452.801	51.96
453.158	52.14
453.515	52.14
453.872	51.91
454.229	52.27
454.586	52.33
454.943	52.26
455.3	52.13
455.657	52.09
456.014	52.32
456.371	52.28
456.727	52.52
457.084	52.36
457.441	52.97
457.797	52.74
458.154	53.07
458.51	53.17
458.867	53.26
459.223	52.92
459.58	53.24
459.936	53.64
460.292	53.48
460.648	53.39
461.005	53.32
461.361	53.01
461.717	52.98
462.073	53.06
462.429	52.93
462.785	53.13
463.141	53.24
463.496	53.51
463.852	53.8
464.208	54.29
464.564	54.37
464.919	54.34
465.275	54.59
465.631	54.39
465.986	55.11
466.342	55.06
466.697	54.55
467.052	54.86
467.408	54.79
467.763	55.19
468.118	54.77
468.473	55.14
468.829	55.21
469.184	55.4
469.539	55.1
469.894	55.22
470.249	55.35
470.603	55.44
470.958	55.64
471.313	55.75
471.668	55.86
472.023	56.17
472.377	55.92
472.732	56.19
473.086	56.19
473.441	56.07
473.795	56.36
474.15	56.08
474.504	56.66
474.859	56.58
475.213	56.57
475.567	56.56
475.921	56.94
476.275	56.71
476.63	57.04
476.984	56.87
477.338	57.07
477.692	56.87
478.045	57.23
478.399	57.06
478.753	57.12
479.107	57.13
479.461	57.21
479.814	57.51
480.168	57.39
480.521	57.51
480.875	57.7
481.228	57.4
481.582	57.42
481.935	57.65
482.289	57.63
482.642	58.03
482.995	58.16
483.348	57.92
483.701	58.12
484.055	57.84
484.408	57.65
484.761	57.52
485.114	57.54
485.466	57.32
485.819	57.66
486.172	57.58
486.525	57.59
486.878	57.35
487.23	57.24
487.583	57.54
487.936	57.79
488.288	58.07
488.641	58.26
488.993	58.39
489.345	58.17
489.698	58.04
490.05	58.14
490.402	58.14
490.754	58.2
491.107	58.24
491.459	58.43
491.811	58.73
492.163	59.04
492.515	59.24
492.866	59.24
493.218	58.99
493.57	58.91
493.922	58.92
494.274	58.89
494.625	58.79
494.977	58.97
495.328	59.25
495.68	59.66
496.031	60.13
496.383	60.2
496.734	60.51
497.086	60.51
497.437	60.54
497.788	60.91
498.139	60.75
498.49	61.08
498.842	60.89
499.193	60.57
499.544	60.47
499.894	60.58
500.245	60.95
500.596	60.84
500.947	60.87
501.298	61.12
501.648	61.39
501.999	61.4
502.35	61.56
502.7	61.59
503.051	61.75
503.401	61.51
503.752	61.73
504.102	61.78
504.452	61.91
504.803	61.8
505.153	62.15
505.503	62.05
505.853	62.13
506.203	62.39
506.553	62.13
506.903	62.32
507.253	62.55
507.603	62.19
507.953	62.45
508.303	62.58
508.652	62.86
509.002	62.73
509.352	62.76
509.701	62.77
510.051	63.03
510.4	62.62
510.75	62.7
511.099	62.7
511.449	62.7
511.798	62.8
512.147	62.96
512.496	63.02
512.846	63.19
513.195	63.41
513.544	63.31
513.893	63.32
514.242	63.37
514.591	63.44
514.939	63.41
515.288	63.68
515.637	63.84
515.986	63.9
516.334	63.9
516.683	63.97
517.032	63.99
517.38	64.18
517.729	64.05
518.077	64.41
518.426	64.27
518.774	64.67
519.122	64.35
519.47	64.23
519.819	64.33
520.167	64.15
520.515	63.9
520.863	63.81
521.211	64.12
521.559	63.9
521.907	64.02
522.255	64.11
522.602	64.64
522.95	64.59
523.298	65.02
523.645	65.04
523.993	65.22
524.341	65.23
524.688	65.4
525.036	65.26
525.383	65.44
525.73	65.47
526.078	65.45
526.425	65.36
526.772	65.57
527.119	65.41
527.466	65.15
527.814	64.95
528.161	65.05
528.508	65.09
528.854	65.21
529.201	65.45
529.548	65.38
529.895	65.37
530.242	65.36
530.588	65.39
530.935	65.52
531.282	65.32
531.628	65.14
531.975	64.91
532.321	65.41
532.667	65.29
533.014	65.52
533.36	65.84
533.706	65.97
534.052	66.16
534.399	66.07
534.745	66.2
535.091	66.03
535.437	66.1
535.783	66.11
536.129	65.97
536.474	66.13
536.82	66.13
537.166	66.43
537.512	66.71
537.857	66.74
538.203	66.8
538.549	66.74
538.894	66.65
539.239	66.76
539.585	66.83
539.93	66.82
540.276	67.06
540.621	67.28
540.966	67.55
541.311	67.64
541.656	67.87
542.001	67.83
542.346	68.04
542.691	67.63
543.036	67.52
543.381	67.2
543.726	67.14
544.071	67.22
544.415	67.19
544.76	67.28
545.105	67.49
545.449	67.64
545.794	67.67
546.138	67.72
546.483	68.01
546.827	68.17
547.171	68.56
547.516	68.35
547.86	68.5
548.204	68.68
548.548	68.34
548.892	68.48
549.236	68.57
549.58	68.6
549.924	68.62
550.268	68.98
550.612	69.17
550.956	69.17
551.3	69.23
551.643	69.58
551.987	69.52
552.33	69.48
552.674	69.65
553.017	69.9
553.361	70.03
553.704	69.78
554.048	69.96
554.391	69.89
554.734	70.09
555.077	69.93
555.42	69.69
555.764	70.05
556.107	69.95
556.45	70.04
556.793	70.28
557.135	70.6
557.478	70.56
557.821	70.53
558.164	70.59
558.507	70.79
558.849	70.6
559.192	70.83
559.534	70.59
559.877	70.78
560.219	70.91
560.562	70.79
560.904	71
561.246	71.08
561.589	71.2
561.931	70.74
562.273	71.17
562.615	71.23
562.957	71.09
563.299	71.3
563.641	71.09
563.983	71.08
564.325	71.22
564.667	71.23
565.008	71.5
565.35	71.72
565.692	71.6
566.033	71.54
566.375	71.37
566.716	71.56
567.058	72.21
567.399	71.67
567.741	71.95
568.082	71.6
568.423	71.52
568.764	71.45
569.105	71.74
569.447	71.57
569.788	71.53
570.129	71.81
570.47	72.38
570.811	72.45
571.151	72.23
571.492	72.3
571.833	72.04
572.174	72.33
572.514	72.44
572.855	72.51
573.195	72.5
573.536	72.17
573.876	72.43
574.217	72.67
574.557	72.33
574.898	72.79
575.238	72.33
575.578	72.88
575.918	72.49
576.258	72.64
576.598	72.99
576.938	72.45
577.278	73.15
577.618	73.37
577.958	73.03
578.298	73.18
578.638	73.34
578.977	73.04
579.317	73.26
579.657	73.42
579.996	73.48
580.336	73.34
580.675	73.77
581.014	74.05
581.354	73.86
581.693	74.37
582.032	74.2
582.372	74.34
582.711	74.1
583.05	74.31
583.389	74.43
583.728	74.44
584.067	74.64
584.406	74.4
584.745	74.14
585.083	74.64
585.422	74.29
585.761	74.46
586.1	74.63
586.438	74.84
586.777	74.7
587.115	74.48
587.454	74.5
587.792	75.09
588.13	75.03
588.469	74.96
588.807	74.93
589.145	75.25
589.483	75.09
589.821	75.28
590.159	75.23
590.497	75.4
590.835	75.07
591.173	75.01
591.511	75.24
591.849	74.8
592.187	74.98
592.524	75.06
592.862	75.16
593.2	74.68
593.537	75.13
593.875	75.75
594.212	75.86
594.55	75.64
594.887	75.77
595.224	75.78
595.561	76.13
595.899	75.81
596.236	75.97
596.573	75.92
596.91	76.18
597.247	75.85
597.584	75.91
597.921	76.08
598.258	75.87
598.594	75.74
598.931	75.64
599.268	75.57
599.604	75.65
599.941	75.5
600.277	75.54
600.614	75.95
600.95	76.17
601.287	75.81
601.623	76.71
601.959	76.33
602.296	76.49
602.632	76.59
602.968	76.45
603.304	76.72
603.64	76.82
603.976	76.38
604.312	76.77
604.648	76.82
604.984	76.78
605.319	76.66
605.655	76.8
605.991	76.97
606.326	76.97
606.662	76.46
606.998	76.36
607.333	76.71
607.668	76.62
608.004	76.2
608.339	76.73
608.674	77.11
609.01	77.06
609.345	77.24
609.68	77.08
610.015	77.21
610.35	77.55
610.685	77.42
611.02	77.46
611.355	77.61
611.689	76.99
612.024	77.35
612.359	77.67
612.694	77.36
613.028	77.53
613.363	77.42
613.697	77.94
614.032	78.12
614.366	77.62
614.7	77.94
615.035	77.94
615.369	78.07
615.703	77.77
616.037	78.27
616.371	78.14
616.705	78.75
617.039	78.41
617.373	78.09
617.707	78.55
618.041	78.25
618.375	78.38
618.709	77.94
619.042	78.33
619.376	79.18
619.71	78.43
620.043	78.81
620.377	78.67
620.71	78.95
621.043	78.91
621.377	78.26
621.71	78.52
622.043	78.6
622.376	78.84
622.709	78.68
623.043	79.05
623.376	79.12
623.709	78.69
624.041	79.79
624.374	78.87
624.707	79.06
625.04	79.45
625.373	78.95
625.705	79.42
626.038	79.26
626.37	79.11
626.703	79.18
627.035	78.94
627.368	79.23
627.7	79.33
628.032	79.63
628.365	79.55
628.697	79.43
629.029	79.38
629.361	79.68
629.693	79.45
630.025	79.37
630.357	79.68
630.689	79.64
631.021	79.78
631.353	79.88
631.684	79.13
632.016	79.83
632.348	80.22
632.679	79.71
633.011	79.72
633.342	79.61
633.674	79.67
634.005	80.6
634.336	79.91
634.668	79.97
634.999	80.4
635.33	80.12
635.661	80.43
635.992	79.68
636.323	80.44
636.654	80.17
636.985	80.3
637.316	80.1
637.647	80.54
637.977	80.7
638.308	80.26
638.639	80.59
638.969	80.21
639.3	80.41
639.63	80.84
639.961	80.54
640.291	80.09
640.622	81.33
640.952	81.17
641.282	80.9
641.612	80.58
641.943	81
642.273	81.73
642.603	80.46
642.933	81.47
643.263	80.79
643.592	80.86
643.922	81.07
644.252	81.31
644.582	81.57
644.911	81.56
645.241	81.23
645.571	81.49
645.9	81.74
646.23	80.63
646.559	81.54
646.888	81.97
647.218	81.38
647.547	81.36
647.876	81.94
648.205	82.49
648.534	82.75
648.863	81.78
649.192	82.15
649.521	81.67
649.85	82.11
650.179	82.25
650.508	82.09
650.837	81.62
651.165	81.35
651.494	82.06
651.822	82.05
652.151	81.93
652.479	81.63
652.808	82.92
653.136	82.07
653.465	82.16
653.793	82.36
654.121	82.55
654.449	82.9
654.777	82.39
655.105	82.86
655.433	82.19
655.761	81.91
656.089	82.45
656.417	82.43
656.745	82.65
657.073	82.62
657.4	82.69
657.728	82.6
658.056	83.61
658.383	83.25
658.711	83.05
659.038	82.64
659.365	83.44
659.693	82.58
660.02	83.14
660.347	82.92
660.674	82.9
661.001	82.49
661.329	82.63
661.656	83.08
661.982	82.86
662.309	82.58
662.636	82.55
662.963	83.03
663.29	83.85
663.616	83.31
663.943	83.29
664.27	83.59
664.596	83.77
664.923	83.09
665.249	83.52
665.576	83.9
665.902	83.17
666.228	83.19
666.554	83.66
666.881	83.84
667.207	82.74
667.533	83.31
667.859	83.3
668.185	84.66
668.511	83.52
668.837	83.93
669.162	83.62
669.488	84.03
669.814	83.48
670.139	83.56
670.465	84.7
670.791	84.25
671.116	84.18
671.442	84.39
671.767	83.78
672.092	84.18
672.418	83.6
672.743	84.61
673.068	84.73
673.393	84.02
673.718	84.08
674.043	83.76
674.368	84.97
674.693	84.25
675.018	84
675.343	84.25
675.667	84.41
675.992	84.86
676.317	84.15
676.641	84.31
676.966	84.53
677.29	84.07
677.615	84.96
677.939	84.75
678.264	83.61
678.588	83.37
678.912	84.66
679.236	84.11
679.56	84.8
679.885	84.81
680.209	84.33
680.532	84.64
680.856	85.12
681.18	84.98
681.504	84.72
681.828	84.49
682.152	84.69
682.475	84.57
682.799	85.43
683.122	85.52
683.446	84.31
683.769	85.5
684.093	85.06
684.416	86.19
684.739	85.03
685.062	85.21
685.386	86.42
685.709	85.63
686.032	84.95
686.355	84.96
686.678	84.89
687.001	84.83
687.324	84.27
687.646	85.06
687.969	85.22
688.292	85.12
688.614	85.89
688.937	85.12
689.26	85.67
689.582	84.69
689.904	85.32
690.227	85.27
690.549	85.44
690.871	85.35
691.194	85.54
691.516	85.68
691.838	85.84
692.16	84.81
692.482	86.2
692.804	85.43
693.126	85.97
693.448	86.37
693.769	86.35
694.091	86.3
694.413	86.59
694.735	85.42
695.056	85.34
695.378	85.34
695.699	86.11
696.021	85.41
696.342	85.58
696.663	85.88
696.984	85.67
697.306	85.38
697.627	87.06
697.948	86.72
698.269	86.56
698.59	86.79
698.911	86.06
699.232	87.69
699.553	85.62
699.873	85.42
700.194	86.54
700.515	87.11
700.835	86.89
701.156	85.81
701.477	86.25
701.797	86.9
702.117	86.47
702.438	87.63
702.758	86.21
703.078	87
703.398	85.94
703.719	86.12
704.039	85.69
704.359	86.11
704.679	85.56
704.999	87.37
705.319	85.89
705.638	87.26
705.958	86.96
706.278	87.34
706.597	86.58
706.917	87.82
707.237	86.59
707.556	86.66
707.876	85.67
708.195	86.98
708.514	87.4
708.834	87.83
709.153	87.43
709.472	88.15
709.791	86.89
710.11	87.47
710.429	87.31
710.748	88.06
711.067	85.36
711.386	87.48
711.705	87.88
712.023	87.94
712.342	86.87
712.661	86.48
712.979	86.59
713.298	88.28
713.616	87.13
713.935	88.22
714.253	87.84
714.572	87.48
714.89	87.94
715.208	88.09
715.526	86.48
715.844	87.77
716.162	88.22
716.48	86.9
716.798	88.05
717.116	88.13
717.434	86.74
717.752	87.45
718.069	87.13
718.387	88.22
718.705	88.11
719.022	86.74
719.34	86.73
719.657	88
719.975	89.13
720.292	88.96
720.609	87.92
720.927	88.1
721.244	87.45
721.561	87.72
721.878	89.34
722.195	87.63
722.512	87.7
722.829	86.89
723.146	88.2
723.463	86.5
723.779	88.65
724.096	87.65
724.413	89.31
724.729	89.03
725.046	88.12
725.362	87.99
725.679	88.51
725.995	85.89
726.311	88.82
726.628	88.31
726.944	88.55
727.26	88.22
727.576	89.09
727.892	88.04
728.208	88.46
728.524	89.16
728.84	90.15
729.156	88.04
729.472	89.17
729.787	87.7
730.103	88.51
730.419	89.03
730.734	87.61
731.05	87.63
731.365	88.59
731.681	89.04
731.996	90.36
732.311	88.27
732.626	88.23
732.942	88.54
733.257	89.67
733.572	88.73
733.887	88.73
734.202	89.4
734.517	89.48
734.832	89.21
735.146	88.64
735.461	90.78
735.776	88.26
736.091	88.09
736.405	87.29
736.72	90.7
737.034	87.43
737.349	88.9
737.663	89.11
737.977	90.81
738.292	88.98
738.606	89.1
738.92	87.36
739.234	89.74
739.548	89.01
739.862	87.1
740.176	88.03
740.49	88.75
740.804	90.03
741.117	88.61
741.431	88.7
741.745	89.72
742.058	90.5
742.372	91.12
742.685	90.03
742.999	88.5
743.312	89.86
743.626	90.28
743.939	91.79
744.252	90.86
744.565	88.68
744.878	87.94
745.191	91.19
745.505	90.1
745.817	90.04
746.13	88.27
746.443	90.84
746.756	88.9
747.069	89.04
747.381	92.47
747.694	89.3
748.007	89.1
748.319	89.39
748.632	91.74
748.944	90.47
749.256	88.04
749.569	91.07
749.881	88.79
750.193	91.69
750.505	91.68
750.817	91.38
751.129	89.44
751.441	93.52
751.753	91.01
752.065	91.34
752.377	88.98
752.689	92.59
753	91.61
753.312	90.89
753.624	91.06
753.935	90.76
754.247	90.21
754.558	91.15
754.869	91.08
755.181	94.04
755.492	91.12
755.803	91.21
756.114	89.54
756.425	88.44
756.736	91.91
757.047	88.11
757.358	91.99
757.669	91.64
757.98	93.71
758.291	89.06
758.601	92.37
758.912	90.61
759.223	90.76
759.533	89.17
759.844	92.58
760.154	92.46
760.464	91.14
760.775	91.24
761.085	92.86
761.395	90.21
761.705	91.98
762.016	90.02
762.326	93.12
762.636	90.63
762.945	89.62
763.255	90.93
763.565	89.57
763.875	90.77
764.185	88.72
764.494	91.22
764.804	92.45
765.113	89.42
765.423	91.74
765.732	92.76
766.042	90.98
766.351	91.58
766.66	90.44
766.97	91.87
767.279	90.43
767.588	91.74
767.897	92.22
768.206	91.33
768.515	92.24
768.824	91.68
769.133	91.07
769.441	89.56
769.75	92.38
770.059	90.44
770.367	91.76
770.676	88.32
770.984	92.08
771.293	89.61
771.601	92.07
771.91	91.02
772.218	93.35
772.526	89.51
772.834	91.13
773.142	92.56
773.45	90.98
773.758	90.65
774.066	93.42
774.374	91.02
774.682	92.03
774.99	90.05
775.298	93.95
775.605	91.21
775.913	91.43
776.22	89.56
776.528	95.41
776.835	90.93
777.143	92.7
777.45	92.28
777.757	90.21
778.065	93.61
778.372	93.21
778.679	91.41
778.986	90.8
779.293	92.22
779.6	93.18
779.907	90.88
780.214	94.15
780.52	90.27
780.827	93.55
781.134	93.26
781.44	91.72
781.747	94.31
782.053	92.39
782.36	92.05
782.666	92.28
782.973	92.4
783.279	90.83
783.585	90.46
783.891	89.58
784.197	89.89
784.503	88.98
784.809	94.08
785.115	89.43
785.421	88.93
785.727	96.81
786.033	91.29
786.339	87.38
786.644	92.47
786.95	95.82
787.255	93.75
787.561	90.4
787.866	89.14
788.172	94.29
788.477	90.8
788.782	97.23
789.088	93.81
789.393	95.67
789.698	92.31
790.003	94.91
790.308	92.93
790.613	92.49
790.918	91.62
791.223	92.13
791.527	92.52
791.832	89.8
792.137	93.25
792.441	93.25
792.746	88.56
793.05	94.1
793.355	94.34
793.659	88.88
793.963	92.92
794.268	92.17
794.572	92.66
794.876	91.14
795.18	91.79
795.484	87.89
795.788	85.49
796.092	89.58
796.396	91.58
796.7	97.63
797.004	90.53
797.307	94.17
797.611	89.45
797.915	91.31
798.218	93.5
798.522	93.89
798.825	91.87
799.128	94.52
799.432	93.45
799.735	92.24
800.038	91.06
800.341	91.77
800.644	90.6
800.947	89.29
801.25	93.51
801.553	89.1
801.856	90.11
802.159	92.02
802.462	93.26
802.764	87.75
803.067	96.68
803.37	96.49
803.672	99.16
803.975	91.28
804.277	95.07
804.579	90.32
804.882	95.12
805.184	91.29
805.486	95.45
805.788	91.85
806.09	100.46
806.392	88.26
806.694	91.94
806.996	91.89
807.298	93.92
807.6	91.65
807.902	90.73
808.203	94.29
808.505	93.61
808.807	94.71
809.108	92.15
809.409	96.99
809.711	97.68
810.012	89.3
810.313	91.52
810.615	97.46
810.916	90.95
811.217	97.84
811.518	95.69
811.819	92.03
812.12	92.83
812.421	95.18
812.722	92.73
813.023	96.29
813.323	92.59
813.624	97.95
813.925	95.62
814.225	86.23
814.526	94.53
814.826	91.5
815.126	90.12
815.427	90.39
815.727	99.02
816.027	99.34
816.327	97.21
816.627	91.05
816.927	95.08
817.227	95.25
817.527	91.54
817.827	97.33
818.127	92.65
818.427	91.94
818.727	96.72
819.026	90.83
819.326	89.34
819.625	90.35
819.925	100.46
820.224	99.71
820.524	98.93
820.823	95.29
821.122	89.28
821.421	86.22
821.72	92.58
822.019	91.34
822.318	98.78
822.617	91.92
822.916	89.24
823.215	96.59
823.514	89.72
823.813	95.81
824.111	97.88
824.41	96.81
824.709	96.53
825.007	96.13
825.306	96.73
825.604	97.15
825.902	96.79
826.201	95.46
826.499	96.63
826.797	94.26
827.095	96.26
827.393	95.49
827.691	94.16
827.989	94.98
828.287	94.68
828.585	95.51
828.882	96.26
829.18	96.54
829.478	94.67
829.775	94.6
830.073	93.12
830.37	94.9
830.668	95.36
830.965	97.11
831.263	93.36
831.56	97.33
831.857	97.03
832.154	93.51
832.451	92.78
832.748	92.19
833.045	94.81
833.342	94.75
833.639	95.99
833.936	90.2
834.232	89.3
834.529	91.11
834.826	87.06
835.122	97.11
835.419	89.22
835.715	99.87
836.012	102.18
836.308	96.9
836.604	98.7
836.901	94.04
837.197	97.9
837.493	96.48
837.789	96.03
838.085	93.1
838.381	94.55
838.677	94.91
838.972	96.46
839.268	93.36
839.564	91.43
839.86	96.55
840.155	88
840.451	94.71
840.746	92.07
841.042	92.98
841.337	93.93
841.632	101.26
841.928	97.02
842.223	97.96
842.518	93.53
842.813	91.06
843.108	99.36
843.403	96.07
843.698	92.4
843.993	86.1
844.287	94.41
844.582	90.24
844.877	103.27
845.171	86.69
845.466	94.6
845.761	89.73
846.055	92.4
846.349	101.47
846.644	96.76
846.938	88.07
847.232	87.31
847.526	92.68
847.82	89.32
848.114	87.36
848.408	96.73
848.702	111.7
848.996	85.67
849.29	86.33
849.584	83.31
849.877	85.31
850.171	95.4
850.465	90.21
850.758	97.18
851.052	106.01
851.345	93.28
851.638	93.07
851.932	81.38
852.225	93.97
852.518	90.84
852.811	95.69
853.104	92.9
853.397	85.13
853.69	94.77
853.983	107.25
854.276	98.03
854.569	95.13
854.861	80.65
855.154	79.62
855.447	92.8
855.739	95.59
856.032	107.61
856.324	75.58
856.616	65.8
856.909	80.32
857.201	90.1
857.493	89.62
857.785	91.38
858.077	82.65
858.369	76.75
858.661	91.76
858.953	90.68
859.245	98.55
859.537	105.35
859.829	86.73
860.12	107.55
860.412	61.66
860.703	93.86
860.995	93.3
861.286	92.52
861.578	73.62
861.869	83.69
862.16	89.3
862.452	109.03
862.743	89.18
863.034	81.04
863.325	88.16
863.616	88.26
863.907	105.13
864.198	91.12
864.488	132.56
864.779	92.55
865.07	100.28
865.36	79.8
865.651	121.27
865.941	90.72
866.232	62.38
866.522	101.97
866.813	107.32
867.103	79.29
867.393	103.9
867.683	73.42
867.973	84.91
868.263	105.8
868.553	80.63
868.843	119
869.133	91.18
869.423	103.29
869.713	79.01
870.002	76.96
870.292	106.84
870.582	119.21
870.871	109.7
871.161	93.66
871.45	84.02
871.739	81.28
872.029	91.32
872.318	98.24
872.607	94.43
872.896	89.59
873.185	74.38
873.474	83.9
873.763	88.94
874.052	83.8
874.341	110.72
874.63	100.66
874.918	90.73
875.207	81.89
875.496	95.51
875.784	91.46
876.073	102.85
876.361	100.74
876.649	81.9
876.938	82.78
877.226	86.45
877.514	92.79
877.802	90.6
878.09	69.53
878.378	88.22
878.666	70.81
878.954	66.09
879.242	69.47
879.53	102.45
879.817	96.01
880.105	110.73
880.392	98.24
880.68	64.78
880.967	120.1
881.255	125.09
881.542	95.29
881.83	87.8
882.117	92.59
882.404	97.11
882.691	81.45
882.978	85.98
883.265	89.32
883.552	104.39
883.839	110.62
884.126	100.87
884.413	99.15
884.699	93.4
884.986	100.84
885.273	98.67
885.559	98.67
885.846	98.67
