Data from 0185_forehead_Reflection_Reflection__3__003.txt Node

Date: Mon Aug 28 18:36:47 CDT 2023
User: ToomeyLab
Spectrometer: FLMS14357
Trigger mode: 0
Integration Time (sec): 1.000000E-2
Scans to average: 100
Electric dark correction enabled: true
Nonlinearity correction enabled: false
Boxcar width: 0
XAxis mode: Wavelengths
Number of Pixels in Spectrum: 2048
>>>>>Begin Spectral Data<<<<<
189.047	26.03
189.435	26.03
189.823	26.03
190.211	-4200
190.599	263.6
190.987	-155.5
191.375	-61.33
191.763	108.25
192.151	91.79
192.538	144.28
192.926	179.62
193.314	571.11
193.702	103.36
194.089	181.08
194.477	-134.12
194.864	-441.21
195.252	25.02
195.639	-2627.35
196.027	120.56
196.414	24.05
196.801	58.71
197.189	-25.98
197.576	-529.65
197.963	129.1
198.351	41.23
198.738	103.25
199.125	12.74
199.512	76.51
199.899	91.9
200.286	112.58
200.673	20.99
201.06	3.07
201.447	72.89
201.833	83.26
202.22	52.64
202.607	19.5
202.994	53.31
203.38	125.11
203.767	30.51
204.154	8.39
204.54	17.34
204.927	15.78
205.313	41.62
205.699	35.17
206.086	76.3
206.472	59.34
206.858	58.1
207.245	36.53
207.631	69.39
208.017	42.92
208.403	34.63
208.789	45.64
209.175	27.1
209.561	49
209.947	47.23
210.333	44.71
210.719	15.62
211.105	32.29
211.491	29.04
211.876	66.98
212.262	69.03
212.648	66.87
213.034	13.71
213.419	26.53
213.805	41.29
214.19	35.77
214.576	41.32
214.961	25.89
215.346	41.71
215.732	58.66
216.117	29.89
216.502	36.98
216.888	65.45
217.273	26.74
217.658	84.76
218.043	45.95
218.428	16.12
218.813	44.38
219.198	90.17
219.583	26.73
219.968	42.77
220.353	19.08
220.738	24.21
221.122	29.13
221.507	40.54
221.892	13.69
222.276	36.18
222.661	33.14
223.046	13.65
223.43	27.87
223.815	27.57
224.199	19.04
224.583	14.3
224.968	15.94
225.352	24.45
225.736	20.94
226.121	11.47
226.505	15.12
226.889	20.4
227.273	24.76
227.657	14.4
228.041	15.72
228.425	11.23
228.809	8.36
229.193	10.38
229.577	13.68
229.961	7.11
230.344	10.59
230.728	8.83
231.112	7.91
231.495	8.24
231.879	7.19
232.263	8.64
232.646	9.56
233.03	10.42
233.413	10.85
233.797	9.59
234.18	10.09
234.563	12.7
234.946	14.64
235.33	8.91
235.713	9.13
236.096	10.47
236.479	8.11
236.862	9.72
237.245	7.75
237.628	10.63
238.011	11.65
238.394	9.64
238.777	11.03
239.16	8.43
239.543	6.89
239.925	12.48
240.308	9.37
240.691	9.82
241.073	7.45
241.456	10.16
241.838	8.52
242.221	10.81
242.603	8.43
242.986	9.92
243.368	9.37
243.75	8.5
244.133	8.37
244.515	7.44
244.897	8.52
245.279	8.52
245.661	8.22
246.043	9.25
246.425	8.95
246.807	9.58
247.189	8.05
247.571	9.59
247.953	9
248.335	8.4
248.717	7.93
249.098	8.16
249.48	8.03
249.862	8
250.243	7.94
250.625	8.42
251.006	8.19
251.388	9.14
251.769	9
252.151	9.78
252.532	9.06
252.913	10.4
253.295	7.98
253.676	9.02
254.057	8.48
254.438	8.28
254.819	8.28
255.2	7.97
255.581	9.6
255.962	9.34
256.343	10.73
256.724	8.78
257.105	8.33
257.486	9.36
257.867	8.92
258.247	8.65
258.628	9.25
259.009	8.33
259.389	8.67
259.77	8.58
260.15	8.02
260.531	8.21
260.911	8.11
261.292	8.25
261.672	8
262.052	7.76
262.432	7.88
262.813	7.92
263.193	7.54
263.573	8.62
263.953	8.52
264.333	8.22
264.713	8.33
265.093	8.35
265.473	8.38
265.853	8.69
266.233	8.33
266.612	8.51
266.992	7.83
267.372	8.96
267.752	9.41
268.131	8.35
268.511	8.03
268.89	8.42
269.27	8.23
269.649	8.24
270.029	8.26
270.408	7.92
270.787	8.16
271.167	8.03
271.546	8.1
271.925	8.19
272.304	8.05
272.683	7.74
273.062	7.82
273.441	7.77
273.82	7.7
274.199	7.47
274.578	7.7
274.957	8.07
275.336	8.22
275.715	8.27
276.093	7.4
276.472	8.35
276.851	7.73
277.229	7.94
277.608	7.79
277.986	7.43
278.365	8.16
278.743	8.24
279.122	7.64
279.5	7.49
279.878	7.72
280.257	7.89
280.635	7.71
281.013	8.1
281.391	7.26
281.769	7.98
282.147	7.95
282.525	8.01
282.903	8.25
283.281	7.95
283.659	8.42
284.037	8.3
284.415	8.1
284.792	8.42
285.17	7.74
285.548	7.49
285.925	8.4
286.303	7.63
286.68	8.34
287.058	8.28
287.435	7.91
287.813	7.98
288.19	8.22
288.567	8.09
288.945	8.07
289.322	8.08
289.699	8.58
290.076	8.44
290.453	8.24
290.83	7.96
291.207	7.97
291.584	8.73
291.961	8.86
292.338	8.43
292.715	8.36
293.092	8.21
293.469	8.41
293.845	8.64
294.222	8.48
294.599	8.75
294.975	9.24
295.352	8.9
295.728	9.35
296.105	9.31
296.481	9.5
296.858	9.73
297.234	9.62
297.61	9.87
297.986	9.21
298.363	9.83
298.739	9.89
299.115	9.15
299.491	9.68
299.867	9.4
300.243	9.81
300.619	9.77
300.995	10.51
301.371	9.96
301.746	10.32
302.122	10.09
302.498	10.25
302.874	10.33
303.249	10.72
303.625	11.02
304	10.45
304.376	10.54
304.751	11.1
305.127	11.69
305.502	11.11
305.878	11.33
306.253	11.43
306.628	11.58
307.003	11.29
307.378	12.12
307.754	12.16
308.129	11.89
308.504	12
308.879	12.38
309.254	12.01
309.629	12.7
310.003	12.53
310.378	12.28
310.753	12.48
311.128	12.71
311.502	13.49
311.877	13.1
312.252	13.83
312.626	13.62
313.001	13.6
313.375	13.99
313.75	13.69
314.124	13.79
314.498	14.02
314.873	14.44
315.247	14.58
315.621	14.57
315.995	14.69
316.369	15.63
316.743	15.05
317.117	15.52
317.491	14.62
317.865	15.03
318.239	15.34
318.613	15.98
318.987	15.84
319.361	15.96
319.734	16.38
320.108	16.55
320.482	16.92
320.855	16.54
321.229	16.07
321.602	17.37
321.976	15.95
322.349	17.38
322.723	17.39
323.096	17.49
323.469	17.05
323.843	17.63
324.216	18.47
324.589	18.4
324.962	18.57
325.335	18.25
325.708	18.13
326.081	18.21
326.454	18.86
326.827	18.58
327.2	18.34
327.573	18.76
327.945	19.52
328.318	19.63
328.691	19.22
329.063	18.78
329.436	19.01
329.809	19.63
330.181	19.58
330.553	19.65
330.926	19.79
331.298	20.43
331.671	20.15
332.043	20.46
332.415	20.52
332.787	19.59
333.159	21.07
333.532	21.29
333.904	20.81
334.276	20.32
334.648	21.22
335.02	21.61
335.391	21.65
335.763	21.37
336.135	21.65
336.507	21.26
336.879	21.64
337.25	22.31
337.622	21.85
337.993	22.54
338.365	21.81
338.736	22.11
339.108	21.82
339.479	22
339.851	22.68
340.222	23.1
340.593	22.58
340.964	22.99
341.336	23.06
341.707	22.89
342.078	22.99
342.449	23.42
342.82	23.65
343.191	22.8
343.562	23.32
343.933	23.55
344.303	23.59
344.674	23.98
345.045	23.97
345.416	24.37
345.786	24.62
346.157	24.8
346.527	24.26
346.898	24.44
347.268	24.57
347.639	24.07
348.009	24.78
348.38	25.22
348.75	25
349.12	25.21
349.49	25.32
349.861	25.2
350.231	25.48
350.601	26.16
350.971	26.28
351.341	25.82
351.711	26.36
352.081	25.79
352.45	26.26
352.82	25.88
353.19	26.37
353.56	26.54
353.929	26.98
354.299	26.49
354.669	26.92
355.038	26.76
355.408	26.8
355.777	26.93
356.147	27.54
356.516	27.16
356.885	27.29
357.254	26.88
357.624	27.24
357.993	27.39
358.362	27.8
358.731	27.72
359.1	27.77
359.469	28.04
359.838	28.03
360.207	28.11
360.576	28.1
360.945	28.4
361.314	28.14
361.682	28.43
362.051	29.15
362.42	28.69
362.788	28.54
363.157	28.94
363.525	28.83
363.894	28.92
364.262	28.98
364.631	29.01
364.999	29.02
365.367	29.51
365.735	29.5
366.104	29.58
366.472	29.41
366.84	30.01
367.208	29.89
367.576	29.92
367.944	29.92
368.312	30.39
368.68	30.23
369.048	30.65
369.416	30.71
369.783	30.69
370.151	30.91
370.519	31.08
370.886	30.86
371.254	31.11
371.621	31.08
371.989	31.49
372.356	31.21
372.724	31.68
373.091	31.79
373.458	31.76
373.826	31.81
374.193	32.07
374.56	31.87
374.927	32.2
375.294	31.99
375.661	32.21
376.028	32.06
376.395	32.44
376.762	32.86
377.129	32.57
377.496	32.6
377.863	33.18
378.229	32.98
378.596	33.03
378.963	33.45
379.329	33.81
379.696	33.32
380.062	33.53
380.429	33.47
380.795	33.72
381.161	33.71
381.528	34.11
381.894	34.25
382.26	34.15
382.626	34.37
382.993	34.7
383.359	34.78
383.725	34.82
384.091	34.66
384.457	34.93
384.823	34.95
385.188	35
385.554	34.78
385.92	35.28
386.286	35.55
386.651	35.55
387.017	35.45
387.383	35.74
387.748	35.48
388.114	35.61
388.479	35.83
388.845	36.01
389.21	35.73
389.575	35.91
389.94	36.02
390.306	36.28
390.671	36.64
391.036	36.43
391.401	36.88
391.766	36.92
392.131	37.08
392.496	37.02
392.861	36.99
393.226	37.36
393.591	37.18
393.956	37.64
394.32	37.37
394.685	37.38
395.05	37.86
395.414	37.78
395.779	37.55
396.143	37.72
396.508	37.97
396.872	38.18
397.236	38.1
397.601	37.79
397.965	38.27
398.329	38.44
398.694	38.61
399.058	38.8
399.422	38.72
399.786	38.73
400.15	39.04
400.514	39.12
400.878	39.41
401.242	39.59
401.605	39.41
401.969	39.34
402.333	39.58
402.697	39.62
403.06	39.48
403.424	39.57
403.787	39.67
404.151	39.69
404.514	40.08
404.878	40
405.241	40.54
405.604	40.51
405.968	40.33
406.331	40.59
406.694	40.26
407.057	40.4
407.42	40.46
407.783	40.62
408.146	40.82
408.509	41.08
408.872	40.6
409.235	40.63
409.598	40.97
409.961	41.09
410.323	41.11
410.686	41.3
411.049	41.22
411.411	41.38
411.774	41.53
412.136	41.6
412.499	41.72
412.861	42.1
413.223	41.93
413.586	41.7
413.948	42.15
414.31	42.37
414.672	42.23
415.035	42.24
415.397	42.53
415.759	42.57
416.121	42.75
416.483	42.77
416.845	42.86
417.206	43
417.568	42.76
417.93	42.86
418.292	43.02
418.653	42.98
419.015	43.03
419.377	43.11
419.738	43.39
420.1	43.25
420.461	43.28
420.822	43.23
421.184	43.21
421.545	43.37
421.906	43.42
422.267	43.27
422.629	43.35
422.99	43.43
423.351	43.51
423.712	43.38
424.073	43.46
424.434	43.82
424.795	43.92
425.155	43.81
425.516	43.79
425.877	43.89
426.238	43.99
426.598	44.11
426.959	44.22
427.32	44.25
427.68	44.35
428.041	44.69
428.401	44.41
428.761	44.81
429.122	44.78
429.482	45.04
429.842	45.1
430.202	45.39
430.563	45.43
430.923	45.6
431.283	45.85
431.643	45.75
432.003	45.75
432.363	46.17
432.722	46.1
433.082	46.1
433.442	46.43
433.802	46.2
434.161	46.23
434.521	46.43
434.881	46.45
435.24	46.69
435.6	47.05
435.959	46.55
436.319	46.58
436.678	47
437.037	46.79
437.396	46.83
437.756	46.82
438.115	47.25
438.474	47.11
438.833	47.39
439.192	47.49
439.551	47.38
439.91	47.75
440.269	47.5
440.628	47.65
440.987	47.71
441.345	47.69
441.704	47.87
442.063	47.84
442.421	47.8
442.78	47.94
443.138	47.88
443.497	47.84
443.855	47.82
444.214	48.05
444.572	48.14
444.93	48.22
445.288	48.36
445.647	48.37
446.005	48.69
446.363	48.84
446.721	48.91
447.079	48.89
447.437	48.84
447.795	48.71
448.153	48.85
448.51	48.86
448.868	49.09
449.226	49.06
449.584	48.92
449.941	49.22
450.299	49.08
450.656	49.18
451.014	49.41
451.371	49.28
451.729	49.73
452.086	49.76
452.443	49.89
452.801	50.3
453.158	50.06
453.515	50.22
453.872	50.08
454.229	50.4
454.586	50.59
454.943	50.59
455.3	50.57
455.657	50.58
456.014	50.77
456.371	50.83
456.727	51.02
457.084	51.4
457.441	51.29
457.797	50.98
458.154	51.09
458.51	51.56
458.867	51.38
459.223	51.22
459.58	51.58
459.936	51.91
460.292	51.77
460.648	51.67
461.005	51.55
461.361	51.59
461.717	51.44
462.073	51.52
462.429	51.47
462.785	51.38
463.141	51.54
463.496	51.6
463.852	51.9
464.208	52.3
464.564	52.38
464.919	52.3
465.275	52.54
465.631	52.62
465.986	52.8
466.342	52.75
466.697	52.74
467.052	52.99
467.408	52.78
467.763	53.34
468.118	53.15
468.473	53.13
468.829	53.49
469.184	53.22
469.539	53.75
469.894	53.44
470.249	53.6
470.603	53.53
470.958	54.02
471.313	53.88
471.668	53.86
472.023	54
472.377	54.05
472.732	54.15
473.086	54.17
473.441	54.55
473.795	54.26
474.15	54.51
474.504	54.65
474.859	54.62
475.213	54.62
475.567	54.86
475.921	54.85
476.275	54.63
476.63	54.86
476.984	54.88
477.338	54.91
477.692	55.05
478.045	55.03
478.399	55.01
478.753	54.79
479.107	55.2
479.461	55.04
479.814	55.12
480.168	55.23
480.521	55.19
480.875	55.1
481.228	55.3
481.582	55.35
481.935	55.28
482.289	55.43
482.642	55.65
482.995	55.53
483.348	55.51
483.701	55.55
484.055	55.46
484.408	55.38
484.761	55.14
485.114	55.31
485.466	54.99
485.819	55.35
486.172	55.48
486.525	55.4
486.878	55.16
487.23	54.78
487.583	54.88
487.936	54.88
488.288	55.24
488.641	55.58
488.993	55.61
489.345	55.77
489.698	55.7
490.05	55.81
490.402	55.57
490.754	55.68
491.107	55.59
491.459	55.59
491.811	55.98
492.163	56.22
492.515	56.44
492.866	56.19
493.218	56.55
493.57	56.56
493.922	56.53
494.274	56.57
494.625	56.45
494.977	56.27
495.328	56.71
495.68	57.03
496.031	57.29
496.383	57.45
496.734	57.9
497.086	57.96
497.437	57.73
497.788	57.88
498.139	58.27
498.49	58.11
498.842	58.12
499.193	58.15
499.544	57.79
499.894	58.03
500.245	58.21
500.596	58.23
500.947	58.36
501.298	58.52
501.648	58.62
501.999	58.63
502.35	58.72
502.7	58.84
503.051	59.08
503.401	58.89
503.752	58.86
504.102	59.27
504.452	59.37
504.803	59.06
505.153	59.33
505.503	59.31
505.853	59.25
506.203	59.79
506.553	59.59
506.903	59.57
507.253	59.58
507.603	59.54
507.953	59.79
508.303	59.74
508.652	59.79
509.002	60.12
509.352	59.77
509.701	60.08
510.051	60.14
510.4	60.19
510.75	59.95
511.099	60
511.449	59.93
511.798	59.99
512.147	60.03
512.496	60.01
512.846	60.19
513.195	60.21
513.544	60.46
513.893	60.29
514.242	60.51
514.591	60.33
514.939	60.49
515.288	60.67
515.637	60.73
515.986	60.68
516.334	60.77
516.683	60.93
517.032	60.98
517.38	61.02
517.729	60.87
518.077	60.91
518.426	60.89
518.774	60.99
519.122	61.07
519.47	61.29
519.819	61.18
520.167	61.22
520.515	60.82
520.863	61.03
521.211	61.17
521.559	61.09
521.907	60.9
522.255	60.99
522.602	61.32
522.95	61.45
523.298	61.71
523.645	61.81
523.993	61.64
524.341	61.86
524.688	62.31
525.036	62.31
525.383	62.03
525.73	62.25
526.078	62.04
526.425	62.27
526.772	61.94
527.119	61.98
527.466	61.79
527.814	61.86
528.161	61.69
528.508	61.61
528.854	61.48
529.201	61.74
529.548	61.53
529.895	61.53
530.242	61.61
530.588	61.92
530.935	62.22
531.282	62.05
531.628	61.76
531.975	61.52
532.321	61.48
532.667	61.54
533.014	62.07
533.36	62.31
533.706	62.3
534.052	62.5
534.399	62.61
534.745	62.49
535.091	62.64
535.437	62.55
535.783	62.7
536.129	62.53
536.474	62.38
536.82	62.38
537.166	62.64
537.512	62.78
537.857	63.13
538.203	63.12
538.549	63.09
538.894	63.22
539.239	63.28
539.585	63.14
539.93	63.19
540.276	63.19
540.621	63.56
540.966	63.74
541.311	63.92
541.656	64.17
542.001	63.98
542.346	63.98
542.691	63.69
543.036	63.64
543.381	63.65
543.726	63.64
544.071	63.56
544.415	63.62
544.76	63.57
545.105	63.44
545.449	63.8
545.794	63.97
546.138	64.01
546.483	64.35
546.827	64.28
547.171	64.6
547.516	64.79
547.86	64.83
548.204	64.81
548.548	64.9
548.892	64.69
549.236	64.73
549.58	64.88
549.924	64.95
550.268	65.05
550.612	65.12
550.956	65.37
551.3	65.05
551.643	65.7
551.987	65.64
552.33	65.68
552.674	65.76
553.017	66.27
553.361	65.95
553.704	65.66
554.048	66.08
554.391	66.17
554.734	66.58
555.077	65.94
555.42	66.07
555.764	66.41
556.107	66.17
556.45	66.26
556.793	66.43
557.135	66.23
557.478	66.51
557.821	66.81
558.164	66.92
558.507	66.93
558.849	66.79
559.192	66.8
559.534	66.74
559.877	66.96
560.219	67.26
560.562	67.14
560.904	67.13
561.246	67.54
561.589	67.24
561.931	67.08
562.273	66.96
562.615	67.22
562.957	67.16
563.299	67.56
563.641	67.32
563.983	67.7
564.325	67.52
564.667	67.49
565.008	67.53
565.35	67.57
565.692	67.77
566.033	67.45
566.375	67.43
566.716	67.73
567.058	67.79
567.399	67.52
567.741	67.96
568.082	67.51
568.423	67.67
568.764	67.3
569.105	67.61
569.447	67.56
569.788	67.58
570.129	68.22
570.47	68.25
570.811	68.21
571.151	68.34
571.492	67.99
571.833	67.79
572.174	68.02
572.514	68.48
572.855	68.27
573.195	68.22
573.536	68.08
573.876	68.26
574.217	68.29
574.557	68.23
574.898	68.51
575.238	68.16
575.578	68.52
575.918	68.13
576.258	68.43
576.598	68.71
576.938	68.79
577.278	68.69
577.618	68.89
577.958	68.73
578.298	68.8
578.638	68.73
578.977	68.69
579.317	68.97
579.657	69
579.996	69.17
580.336	69.15
580.675	69.14
581.014	69.94
581.354	69.73
581.693	69.71
582.032	69.95
582.372	69.7
582.711	69.85
583.05	69.82
583.389	70.16
583.728	69.6
584.067	70.3
584.406	70.45
584.745	69.48
585.083	69.98
585.422	70.2
585.761	70.09
586.1	69.89
586.438	70.54
586.777	70.74
587.115	70.24
587.454	71.02
587.792	70.77
588.13	70.14
588.469	70.59
588.807	70.58
589.145	70.99
589.483	70.58
589.821	70.56
590.159	70.67
590.497	70.68
590.835	70.65
591.173	70.42
591.511	70.77
591.849	70.48
592.187	70.79
592.524	70.87
592.862	70.93
593.2	70.59
593.537	70.62
593.875	71.29
594.212	71.01
594.55	71.1
594.887	71.28
595.224	71.21
595.561	71.13
595.899	70.9
596.236	70.89
596.573	71.55
596.91	71.18
597.247	71.34
597.584	71.02
597.921	71.08
598.258	70.92
598.594	71.04
598.931	70.74
599.268	70.78
599.604	71
599.941	71.12
600.277	70.51
600.614	71.01
600.95	71.18
601.287	71.22
601.623	71.58
601.959	71.59
602.296	71.35
602.632	71.51
602.968	71.68
603.304	71.39
603.64	71.71
603.976	71.7
604.312	71.95
604.648	71.6
604.984	71.99
605.319	71.83
605.655	71.85
605.991	71.79
606.326	71.64
606.662	71.42
606.998	71.24
607.333	71.28
607.668	71.75
608.004	71.43
608.339	71.71
608.674	71.93
609.01	71.93
609.345	72.15
609.68	72.25
610.015	72.66
610.35	72.59
610.685	72.3
611.02	72.1
611.355	72.72
611.689	72.29
612.024	72.67
612.359	72.29
612.694	72.31
613.028	72.3
613.363	72.6
613.697	72.53
614.032	72.77
614.366	72.61
614.7	72.67
615.035	72.88
615.369	72.89
615.703	72.84
616.037	72.99
616.371	73.13
616.705	72.84
617.039	73.43
617.373	73.4
617.707	73.29
618.041	73.52
618.375	73.38
618.709	72.75
619.042	73.65
619.376	73.94
619.71	73.14
620.043	73.66
620.377	74.05
620.71	73.59
621.043	73.82
621.377	73.53
621.71	73.57
622.043	73.4
622.376	73.88
622.709	73.7
623.043	73.52
623.376	73.88
623.709	73.47
624.041	74.02
624.374	73.59
624.707	73.82
625.04	74.42
625.373	74.09
625.705	73.94
626.038	74.05
626.37	74.42
626.703	73.7
627.035	73.95
627.368	74.52
627.7	74.45
628.032	74.11
628.365	73.93
628.697	73.95
629.029	74.59
629.361	74.16
629.693	74.03
630.025	73.97
630.357	74.03
630.689	73.98
631.021	74.31
631.353	74.76
631.684	74.08
632.016	74.66
632.348	74.61
632.679	74.28
633.011	74.24
633.342	74.47
633.674	74.24
634.005	74.76
634.336	74.3
634.668	74.77
634.999	74.79
635.33	74.52
635.661	74.64
635.992	74.41
636.323	74.79
636.654	74.39
636.985	74.75
637.316	74.41
637.647	74.66
637.977	74.99
638.308	74.66
638.639	74.54
638.969	75.3
639.3	75.05
639.63	75.29
639.961	75.17
640.291	75.02
640.622	75.42
640.952	75.38
641.282	75.33
641.612	75.77
641.943	75.62
642.273	75.72
642.603	75.36
642.933	75.42
643.263	75.54
643.592	75.43
643.922	75.73
644.252	75.63
644.582	75.87
644.911	76.18
645.241	75.52
645.571	75.73
645.9	76.48
646.23	75.38
646.559	75.87
646.888	76.72
647.218	76.27
647.547	75.69
647.876	76.27
648.205	76.35
648.534	76.56
648.863	76.17
649.192	76.25
649.521	76.68
649.85	76.74
650.179	75.83
650.508	76.26
650.837	76.16
651.165	76.33
651.494	76.04
651.822	75.89
652.151	76.19
652.479	76.48
652.808	76.3
653.136	75.83
653.465	76.6
653.793	76.33
654.121	76.75
654.449	76.86
654.777	76.5
655.105	76.53
655.433	77.35
655.761	75.71
656.089	76.47
656.417	76.68
656.745	76.43
657.073	75.84
657.4	76.74
657.728	76.89
658.056	76.85
658.383	76.53
658.711	77.32
659.038	76.78
659.365	77.06
659.693	76.93
660.02	76.66
660.347	76.92
660.674	77.19
661.001	76.46
661.329	77.24
661.656	76.86
661.982	76.35
662.309	76.45
662.636	76.56
662.963	76.93
663.29	77.43
663.616	77.14
663.943	76.8
664.27	77.36
664.596	77.53
664.923	77.22
665.249	77.51
665.576	77.29
665.902	76.51
666.228	77.71
666.554	77.98
666.881	77.13
667.207	76.72
667.533	77.43
667.859	77.6
668.185	78.13
668.511	77.7
668.837	77.55
669.162	77.38
669.488	77.99
669.814	77.47
670.139	77.73
670.465	78.72
670.791	78.19
671.116	78.53
671.442	77.92
671.767	77.54
672.092	77.92
672.418	77.51
672.743	78.85
673.068	78.18
673.393	77.83
673.718	77.29
674.043	78.17
674.368	78.65
674.693	78.87
675.018	77.62
675.343	78.14
675.667	78.32
675.992	78.11
676.317	77.41
676.641	78.4
676.966	77.93
677.29	77.88
677.615	78.61
677.939	78.61
678.264	78.14
678.588	78.04
678.912	77.98
679.236	77.98
679.56	79.19
679.885	78.03
680.209	78.21
680.532	79.57
680.856	79.02
681.18	79.07
681.504	77.5
681.828	78.22
682.152	78.55
682.475	78.64
682.799	78.96
683.122	78.56
683.446	78.52
683.769	78.86
684.093	78.96
684.416	78.66
684.739	78
685.062	79.03
685.386	79.6
685.709	78.75
686.032	78.3
686.355	78.24
686.678	78.7
687.001	78.57
687.324	79.19
687.646	78.91
687.969	78.26
688.292	78.92
688.614	79.11
688.937	78.61
689.26	79.55
689.582	78.49
689.904	78.55
690.227	79.23
690.549	78.29
690.871	79.23
691.194	78.96
691.516	79.68
691.838	79.67
692.16	79.01
692.482	79.31
692.804	78.65
693.126	79.21
693.448	79.66
693.769	79.14
694.091	78.95
694.413	79.88
694.735	79.7
695.056	79.36
695.378	78.88
695.699	79.94
696.021	79.27
696.342	78.96
696.663	78.81
696.984	79.34
697.306	78.28
697.627	79.16
697.948	78.64
698.269	79.85
698.59	79.56
698.911	80.51
699.232	79.71
699.553	79.04
699.873	78.91
700.194	79.65
700.515	79.81
700.835	80.02
701.156	79.21
701.477	79.1
701.797	79.2
702.117	79.04
702.438	80.1
702.758	78.85
703.078	80.02
703.398	79.88
703.719	79.66
704.039	79.23
704.359	79.73
704.679	78.99
704.999	79.4
705.319	79.99
705.638	79.48
705.958	80.04
706.278	80.3
706.597	79.65
706.917	80.1
707.237	80.49
707.556	80.45
707.876	80.16
708.195	80.5
708.514	80.56
708.834	81.24
709.153	81.38
709.472	79.71
709.791	80.03
710.11	80.96
710.429	80.37
710.748	81.19
711.067	78.8
711.386	81.16
711.705	81.31
712.023	81.48
712.342	80.83
712.661	80.8
712.979	79.96
713.298	81.1
713.616	80.03
713.935	81.4
714.253	81
714.572	80.41
714.89	80.78
715.208	81.51
715.526	81.33
715.844	82.03
716.162	81.2
716.48	81.88
716.798	81.36
717.116	81.2
717.434	80.22
717.752	80.4
718.069	80.12
718.387	80.59
718.705	81.26
719.022	80.37
719.34	80.51
719.657	80.63
719.975	81.62
720.292	80.82
720.609	82.12
720.927	80.25
721.244	81.27
721.561	80.52
721.878	82.36
722.195	81
722.512	80.73
722.829	81.34
723.146	81.22
723.463	81.09
723.779	80.81
724.096	80.93
724.413	81.87
724.729	81.49
725.046	80.79
725.362	80.33
725.679	80.77
725.995	80.52
726.311	81.86
726.628	80.72
726.944	81.26
727.26	81.13
727.576	80.66
727.892	80.5
728.208	80.95
728.524	81.38
728.84	82.15
729.156	80.31
729.472	81.55
729.787	79.97
730.103	81.64
730.419	82.05
730.734	80.36
731.05	80.57
731.365	82.02
731.681	83.04
731.996	81.18
732.311	81.15
732.626	80.77
732.942	81.2
733.257	81.5
733.572	82.4
733.887	82.54
734.202	82.74
734.517	82.49
734.832	82.22
735.146	82.88
735.461	81.91
735.776	81.7
736.091	81.31
736.405	81.03
736.72	82.23
737.034	82.09
737.349	81.9
737.663	82.45
737.977	81.65
738.292	82.76
738.606	82.75
738.92	80.03
739.234	82.97
739.548	82.44
739.862	81.36
740.176	81.39
740.49	81.72
740.804	82.2
741.117	80.91
741.431	82.02
741.745	81.97
742.058	82.96
742.372	81.83
742.685	82.54
742.999	82.04
743.312	81.2
743.626	83.16
743.939	84.54
744.252	81.21
744.565	82.06
744.878	82.39
745.191	81.23
745.505	82.52
745.817	82.9
746.13	82.5
746.443	82.47
746.756	83.02
747.069	81.68
747.381	84.93
747.694	83.15
748.007	84.14
748.319	80.83
748.632	83.27
748.944	84.25
749.256	84.33
749.569	84.1
749.881	82.73
750.193	82.92
750.505	84.36
750.817	82.87
751.129	83.93
751.441	84.06
751.753	83.03
752.065	83.4
752.377	81.91
752.689	81.8
753	83.21
753.312	83.01
753.624	82.4
753.935	83.24
754.247	84.77
754.558	84.01
754.869	84.22
755.181	86.8
755.492	81.89
755.803	83.81
756.114	82.4
756.425	84.1
756.736	84.23
757.047	82.28
757.358	84.84
757.669	84.9
757.98	85.59
758.291	83.61
758.601	83.75
758.912	83.26
759.223	82.64
759.533	82.41
759.844	82.35
760.154	83.21
760.464	82.92
760.775	81.87
761.085	85.89
761.395	83.78
761.705	83.36
762.016	82.99
762.326	85.3
762.636	83.25
762.945	82.91
763.255	85.66
763.565	83.89
763.875	83.57
764.185	82.99
764.494	83.61
764.804	84.82
765.113	82.82
765.423	83.31
765.732	84.37
766.042	83.36
766.351	84.5
766.66	83.9
766.97	85.14
767.279	83.86
767.588	84.84
767.897	84.77
768.206	84.77
768.515	85.31
768.824	84.25
769.133	84.28
769.441	83.72
769.75	83.84
770.059	84.08
770.367	84.54
770.676	81.36
770.984	86.39
771.293	83.97
771.601	83.84
771.91	83.27
772.218	85.79
772.526	85.12
772.834	84.19
773.142	84.78
773.45	83.63
773.758	85.2
774.066	86.97
774.374	86.49
774.682	85.89
774.99	83.36
775.298	85.38
775.605	86.35
775.913	85.14
776.22	83.08
776.528	86.06
776.835	84.6
777.143	84.48
777.45	85.4
777.757	82.74
778.065	84.98
778.372	85.2
778.679	81.7
778.986	80.31
779.293	84.3
779.6	85.28
779.907	83.71
780.214	84.26
780.52	83.55
780.827	85.15
781.134	84.2
781.44	85.41
781.747	83.9
782.053	88.18
782.36	83.11
782.666	86.93
782.973	82.41
783.279	84.68
783.585	85.04
783.891	83.31
784.197	82.3
784.503	84.93
784.809	84.23
785.115	85.17
785.421	84.53
785.727	87.31
786.033	83.64
786.339	84.31
786.644	84.65
786.95	89.86
787.255	86.6
787.561	87.43
787.866	85.18
788.172	84.38
788.477	81.9
788.782	89
789.088	84.82
789.393	85.77
789.698	85.04
790.003	87.24
790.308	85.55
790.613	85.72
790.918	84.08
791.223	83.36
791.527	86.81
791.832	80.95
792.137	86.85
792.441	83.03
792.746	87.22
793.05	83.95
793.355	87.93
793.659	85.91
793.963	87.29
794.268	85.82
794.572	81.48
794.876	82.33
795.18	85.04
795.484	84.95
795.788	84.38
796.092	83.79
796.396	83.96
796.7	85.39
797.004	84.53
797.307	85.16
797.611	83.03
797.915	85.56
798.218	89.67
798.522	87.39
798.825	83.4
799.128	90.14
799.432	84.87
799.735	83.96
800.038	83.18
800.341	91.06
800.644	82.26
800.947	82.19
801.25	86.9
801.553	82.35
801.856	82.36
802.159	83.63
802.462	86.3
802.764	82.08
803.067	91.52
803.37	90.28
803.672	88.96
803.975	83.01
804.277	88.7
804.579	83.39
804.882	85.56
805.184	83.02
805.486	93.33
805.788	86.97
806.09	90.09
806.392	83.15
806.694	87.35
806.996	83.58
807.298	84.76
807.6	83.56
807.902	84.17
808.203	85.99
808.505	85.03
808.807	82.77
809.108	88.18
809.409	89.39
809.711	85.44
810.012	85.89
810.313	87.52
810.615	89.08
810.916	87.2
811.217	91.91
811.518	89.61
811.819	84.27
812.12	84.43
812.421	89.57
812.722	88.21
813.023	89.96
813.323	86.63
813.624	92.11
813.925	83.84
814.225	80.88
814.526	88.85
814.826	87.23
815.126	84.58
815.427	87.95
815.727	86.92
816.027	88.37
816.327	91.33
816.627	84.16
816.927	83.58
817.227	82.29
817.527	85.65
817.827	86.97
818.127	93.39
818.427	87.81
818.727	87.21
819.026	84.67
819.326	86.46
819.625	84.1
819.925	83.05
820.224	88.6
820.524	88.33
820.823	93.34
821.122	83.68
821.421	85.25
821.72	87.95
822.019	88.87
822.318	86.23
822.617	84.25
822.916	87.99
823.215	85.68
823.514	84.03
823.813	84.92
824.111	88.15
824.41	88.46
824.709	88.43
825.007	88.15
825.306	87.65
825.604	87.37
825.902	89.5
826.201	88.05
826.499	88.34
826.797	87.47
827.095	89.59
827.393	87.62
827.691	86.98
827.989	88.28
828.287	85.76
828.585	89.01
828.882	88.06
829.18	89.8
829.478	86.73
829.775	86.57
830.073	86.45
830.37	87.44
830.668	88.39
830.965	88.1
831.263	87.27
831.56	86.98
831.857	88.41
832.154	88.09
832.451	88.35
832.748	87.94
833.045	87.15
833.342	91.94
833.639	85.64
833.936	79.88
834.232	85.29
834.529	87.47
834.826	84.59
835.122	88.07
835.419	90.22
835.715	92.23
836.012	93.39
836.308	91.23
836.604	88.22
836.901	86.07
837.197	89.84
837.493	89.24
837.789	86.69
838.085	86.93
838.381	89.35
838.677	87.2
838.972	92.15
839.268	84.78
839.564	83.92
839.86	82.21
840.155	82.66
840.451	84.81
840.746	86.12
841.042	84.32
841.337	79.14
841.632	87.75
841.928	89.58
842.223	87.01
842.518	89.8
842.813	79.37
843.108	96.67
843.403	93.3
843.698	84.28
843.993	83.37
844.287	91.62
844.582	89.13
844.877	100.27
845.171	92.92
845.466	86.06
845.761	88.8
846.055	86.54
846.349	95.43
846.644	88.43
846.938	77.11
847.232	89.34
847.526	78.17
847.82	83.29
848.114	82.62
848.408	94.47
848.702	107.76
848.996	86.28
849.29	94.38
849.584	89.09
849.877	77.89
850.171	75.3
850.465	89.7
850.758	81.02
851.052	100.68
851.345	86.71
851.638	106.04
851.932	85.47
852.225	87.35
852.518	90.87
852.811	88.21
853.104	91.78
853.397	87.19
853.69	98.64
853.983	80.19
854.276	80.33
854.569	96.94
854.861	79.01
855.154	82.2
855.447	94.48
855.739	76.23
856.032	85.76
856.324	89.79
856.616	77.7
856.909	75.99
857.201	85.42
857.493	79.2
857.785	91.65
858.077	84.19
858.369	83.8
858.661	83.17
858.953	75.23
859.245	97.51
859.537	94.66
859.829	67.28
860.12	100.92
860.412	78.84
860.703	83.17
860.995	97.29
861.286	70.77
861.578	70.23
861.869	87.13
862.16	98.94
862.452	99.97
862.743	84.48
863.034	79.97
863.325	76.04
863.616	74.98
863.907	95.46
864.198	103.2
864.488	120.51
864.779	83.5
865.07	90.14
865.36	97.12
865.651	100.23
865.941	106.19
866.232	71.32
866.522	77.77
866.813	91.02
867.103	69.71
867.393	95.97
867.683	70.43
867.973	94.18
868.263	90.36
868.553	82.41
868.843	106.01
869.133	80.07
869.423	99.28
869.713	83.95
870.002	76.2
870.292	104.65
870.582	129.93
870.871	92.06
871.161	72.88
871.45	91
871.739	73.13
872.029	99.87
872.318	74.28
872.607	85.32
872.896	85.52
873.185	91.83
873.474	64.98
873.763	105.16
874.052	73.19
874.341	81.78
874.63	81.1
874.918	94.92
875.207	88.18
875.496	94.77
875.784	59.83
876.073	94.92
876.361	127.38
876.649	74.45
876.938	90.46
877.226	99.97
877.514	83.82
877.802	99.03
878.09	77.22
878.378	92.33
878.666	73.49
878.954	116.06
879.242	93.39
879.53	75.37
879.817	102.13
880.105	90.97
880.392	112.85
880.68	85.16
880.967	100.13
881.255	123.23
881.542	86.87
881.83	107.5
882.117	84.57
882.404	103.23
882.691	85.65
882.978	70.72
883.265	86.15
883.552	79.35
883.839	113.17
884.126	99.04
884.413	93.02
884.699	89.75
884.986	105.82
885.273	90.34
885.559	90.34
885.846	90.34
