Data from 0185_crown_Reflection__3__008.txt Node

Date: Mon Aug 28 18:39:46 CDT 2023
User: ToomeyLab
Spectrometer: FLMS14357
Trigger mode: 0
Integration Time (sec): 1.000000E-2
Scans to average: 100
Electric dark correction enabled: true
Nonlinearity correction enabled: false
Boxcar width: 0
XAxis mode: Wavelengths
Number of Pixels in Spectrum: 2048
>>>>>Begin Spectral Data<<<<<
189.047	-88.96
189.435	-88.96
189.823	-88.96
190.211	1500
190.599	172.1
190.987	185.64
191.375	-10.75
191.763	137.16
192.151	-105.02
192.538	148.81
192.926	67.55
193.314	-208.35
193.702	101.44
194.089	114.27
194.477	-1643.53
194.864	-3.14
195.252	38.96
195.639	-1125.64
196.027	79.07
196.414	52.95
196.801	-51.22
197.189	129.36
197.576	-132.86
197.963	-8.57
198.351	-8.96
198.738	40.39
199.125	-38.55
199.512	54.26
199.899	45.36
200.286	-137.38
200.673	-8.83
201.06	-6.48
201.447	-59.38
201.833	-65.71
202.22	-17.18
202.607	9.65
202.994	-0.28
203.38	30.8
203.767	12.66
204.154	29.29
204.54	-5.25
204.927	5.88
205.313	-4.3
205.699	-31.96
206.086	15.4
206.472	-28.66
206.858	-16.93
207.245	-5.46
207.631	22.58
208.017	-2.81
208.403	-8.15
208.789	-20.14
209.175	-51.64
209.561	-7.23
209.947	2.45
210.333	-13.7
210.719	14.01
211.105	23.67
211.491	-10.64
211.876	8.4
212.262	-43.57
212.648	40.68
213.034	-14.94
213.419	2.93
213.805	-20.89
214.19	-0.46
214.576	11.26
214.961	-29.49
215.346	-1.45
215.732	20.21
216.117	-20.05
216.502	3.12
216.888	-10.17
217.273	-5.42
217.658	-14.8
218.043	-24.34
218.428	-8.36
218.813	9.94
219.198	26.03
219.583	8.2
219.968	-0.02
220.353	-3.72
220.738	9.06
221.122	-7.41
221.507	-24.88
221.892	-1.48
222.276	1.95
222.661	-10.64
223.046	0.38
223.43	10.43
223.815	20.25
224.199	7.58
224.583	-0.41
224.968	0.7
225.352	8.69
225.736	8.35
226.121	-1.4
226.505	-11.73
226.889	-2.92
227.273	10.21
227.657	-0.19
228.041	6.68
228.425	5.05
228.809	1.44
229.193	5.26
229.577	7.62
229.961	2.87
230.344	5.41
230.728	5.31
231.112	3.45
231.495	5.21
231.879	4.32
232.263	4.78
232.646	5.07
233.03	5.67
233.413	6.21
233.797	4.68
234.18	4.51
234.563	4.69
234.946	8.1
235.33	2.03
235.713	2.77
236.096	3.79
236.479	5.19
236.862	4.23
237.245	4.53
237.628	5.11
238.011	6.69
238.394	4.77
238.777	4.44
239.16	3.66
239.543	2.22
239.925	6.7
240.308	3.52
240.691	5.13
241.073	1.67
241.456	3.47
241.838	4.53
242.221	5.79
242.603	5.39
242.986	5.33
243.368	4.81
243.75	4.43
244.133	4.2
244.515	3.92
244.897	5.13
245.279	4.16
245.661	3.8
246.043	4.25
246.425	4.16
246.807	5.98
247.189	3.31
247.571	5.23
247.953	4.5
248.335	3.99
248.717	4.23
249.098	4.18
249.48	4.37
249.862	4.21
250.243	4.1
250.625	4.8
251.006	4.45
251.388	4.08
251.769	4.65
252.151	4.22
252.532	3.77
252.913	4.81
253.295	3.15
253.676	3.89
254.057	4.25
254.438	3.71
254.819	3.93
255.2	4.06
255.581	4.23
255.962	3.96
256.343	5.29
256.724	3.69
257.105	2.05
257.486	4.81
257.867	3.37
258.247	3.35
258.628	4.45
259.009	3.56
259.389	3.37
259.77	4.38
260.15	4.07
260.531	3.44
260.911	3.97
261.292	4.01
261.672	3.83
262.052	3.59
262.432	3.87
262.813	4.05
263.193	3.66
263.573	3.5
263.953	3.33
264.333	3.56
264.713	3.86
265.093	4.46
265.473	3.72
265.853	2.88
266.233	3.23
266.612	4.59
266.992	3.82
267.372	3.32
267.752	4.03
268.131	3.9
268.511	3.63
268.89	3.27
269.27	3.32
269.649	3.51
270.029	4.04
270.408	3.51
270.787	3.51
271.167	3.83
271.546	3.92
271.925	4.24
272.304	4.14
272.683	3.84
273.062	3.15
273.441	3.58
273.82	3.51
274.199	3.46
274.578	3.69
274.957	3.92
275.336	4.18
275.715	3.88
276.093	3.49
276.472	3.54
276.851	2.77
277.229	3.71
277.608	3.61
277.986	3.63
278.365	4.01
278.743	3.48
279.122	3.71
279.5	3.74
279.878	3.59
280.257	3.64
280.635	3.5
281.013	3.61
281.391	2.85
281.769	3.41
282.147	3.55
282.525	3.65
282.903	3.63
283.281	3.44
283.659	3.89
284.037	4.23
284.415	3.27
284.792	3.44
285.17	3.05
285.548	3.2
285.925	3.99
286.303	3.42
286.68	3.56
287.058	3.46
287.435	2.94
287.813	3.23
288.19	3.72
288.567	3.66
288.945	3.59
289.322	3.87
289.699	3.52
290.076	3.84
290.453	3.63
290.83	3.14
291.207	3.2
291.584	3.61
291.961	3.8
292.338	3.31
292.715	2.97
293.092	3.77
293.469	3.7
293.845	3.3
294.222	3.18
294.599	3.02
294.975	3.38
295.352	3.06
295.728	3.28
296.105	3.57
296.481	3.54
296.858	3.53
297.234	3.73
297.61	3.92
297.986	3.59
298.363	3.49
298.739	3.41
299.115	3.27
299.491	3.49
299.867	3.53
300.243	3.47
300.619	3.42
300.995	3.77
301.371	3.49
301.746	3.83
302.122	3.34
302.498	3.55
302.874	3.91
303.249	3.19
303.625	3.56
304	3.73
304.376	3.28
304.751	3.24
305.127	3.69
305.502	3.72
305.878	3.3
306.253	3.23
306.628	3.22
307.003	3.47
307.378	3.85
307.754	3.52
308.129	3.23
308.504	4.06
308.879	3.62
309.254	3.7
309.629	3.43
310.003	3.49
310.378	3.38
310.753	3.31
311.128	3.68
311.502	4.21
311.877	3.38
312.252	3.69
312.626	3.72
313.001	3.34
313.375	3.5
313.75	3.9
314.124	3.37
314.498	3.74
314.873	3.56
315.247	3.95
315.621	3.22
315.995	4.19
316.369	4.15
316.743	3.29
317.117	3.3
317.491	2.58
317.865	3.28
318.239	3.06
318.613	3.51
318.987	3.37
319.361	3.58
319.734	3.25
320.108	3.62
320.482	3.82
320.855	3.42
321.229	3.43
321.602	3.42
321.976	3.23
322.349	3.78
322.723	3.45
323.096	3.75
323.469	2.81
323.843	3.37
324.216	3.45
324.589	3.7
324.962	3.79
325.335	3.3
325.708	3.21
326.081	3.37
326.454	3.92
326.827	3.54
327.2	3.01
327.573	3.24
327.945	4.06
328.318	3.4
328.691	3.3
329.063	3.4
329.436	3.35
329.809	3.82
330.181	3.49
330.553	3.09
330.926	3.99
331.298	3.92
331.671	3.04
332.043	3.44
332.415	4.49
332.787	2.91
333.159	3.58
333.532	4.11
333.904	3.68
334.276	3.19
334.648	3.61
335.02	3.79
335.391	3.68
335.763	3.27
336.135	3.84
336.507	3.61
336.879	3.04
337.25	3.56
337.622	3.43
337.993	3.79
338.365	3.45
338.736	3.8
339.108	3.42
339.479	3.34
339.851	3.81
340.222	3.58
340.593	3.32
340.964	3.82
341.336	3.55
341.707	3.75
342.078	3.44
342.449	3.5
342.82	3.6
343.191	3.41
343.562	3.26
343.933	3.41
344.303	3.09
344.674	3.49
345.045	3.37
345.416	3.29
345.786	3.46
346.157	3.9
346.527	2.89
346.898	3.6
347.268	3.15
347.639	3.35
348.009	3.33
348.38	3.42
348.75	3.73
349.12	3.73
349.49	3.23
349.861	3.18
350.231	3.03
350.601	3.91
350.971	3.66
351.341	3.41
351.711	3.23
352.081	2.97
352.45	3.83
352.82	3.52
353.19	4.01
353.56	3.69
353.929	3.17
354.299	3.37
354.669	3.53
355.038	3.67
355.408	4.03
355.777	3.54
356.147	3.37
356.516	3.78
356.885	3.64
357.254	3.46
357.624	3.36
357.993	3.81
358.362	3.63
358.731	3.78
359.1	3.63
359.469	3.84
359.838	3.47
360.207	3.41
360.576	3.87
360.945	3.54
361.314	3.18
361.682	3.23
362.051	3.92
362.42	3.57
362.788	3.36
363.157	3.45
363.525	3.27
363.894	3.6
364.262	3.85
364.631	3.27
364.999	3.54
365.367	3.85
365.735	3.78
366.104	3.38
366.472	3.45
366.84	3.49
367.208	3.67
367.576	3.35
367.944	3.6
368.312	3.95
368.68	3.54
369.048	3.54
369.416	3.85
369.783	3.41
370.151	3.71
370.519	3.73
370.886	3.45
371.254	3.43
371.621	3.43
371.989	3.66
372.356	3.41
372.724	3.84
373.091	3.56
373.458	3.51
373.826	3.57
374.193	3.75
374.56	3.85
374.927	3.39
375.294	3.8
375.661	3.7
376.028	3.47
376.395	3.57
376.762	3.65
377.129	3.49
377.496	3.53
377.863	4.01
378.229	3.6
378.596	3.86
378.963	3.59
379.329	3.56
379.696	3.53
380.062	3.6
380.429	3.62
380.795	3.61
381.161	3.85
381.528	4.31
381.894	3.73
382.26	3.95
382.626	3.75
382.993	3.68
383.359	3.81
383.725	3.94
384.091	3.67
384.457	3.61
384.823	3.7
385.188	3.67
385.554	3.51
385.92	3.64
386.286	3.98
386.651	3.69
387.017	3.81
387.383	3.86
387.748	3.68
388.114	3.69
388.479	3.39
388.845	3.73
389.21	3.63
389.575	4
389.94	3.64
390.306	3.94
390.671	3.58
391.036	3.72
391.401	3.98
391.766	4.17
392.131	3.73
392.496	3.51
392.861	3.68
393.226	3.52
393.591	3.54
393.956	3.81
394.32	3.67
394.685	3.69
395.05	3.8
395.414	3.65
395.779	3.74
396.143	3.61
396.508	3.71
396.872	3.85
397.236	3.82
397.601	3.8
397.965	3.77
398.329	3.67
398.694	3.89
399.058	3.63
399.422	3.92
399.786	3.85
400.15	3.89
400.514	3.61
400.878	3.63
401.242	3.87
401.605	3.7
401.969	3.56
402.333	3.76
402.697	3.77
403.06	3.99
403.424	3.85
403.787	3.86
404.151	3.74
404.514	3.9
404.878	3.75
405.241	3.92
405.604	3.8
405.968	3.69
406.331	4.01
406.694	3.88
407.057	3.87
407.42	3.54
407.783	3.68
408.146	3.63
408.509	3.94
408.872	3.95
409.235	3.74
409.598	3.76
409.961	3.55
410.323	3.84
410.686	4.03
411.049	3.98
411.411	3.82
411.774	3.83
412.136	3.78
412.499	3.84
412.861	4.02
413.223	3.9
413.586	3.81
413.948	3.97
414.31	3.9
414.672	3.67
415.035	3.73
415.397	3.78
415.759	3.88
416.121	4.19
416.483	3.9
416.845	3.92
417.206	4.15
417.568	4.03
417.93	3.73
418.292	3.93
418.653	3.77
419.015	3.87
419.377	3.56
419.738	3.92
420.1	3.73
420.461	3.92
420.822	3.73
421.184	3.87
421.545	3.77
421.906	3.81
422.267	3.82
422.629	3.79
422.99	3.71
423.351	3.82
423.712	3.74
424.073	3.74
424.434	3.85
424.795	3.79
425.155	3.81
425.516	3.87
425.877	3.73
426.238	3.66
426.598	3.74
426.959	3.77
427.32	3.81
427.68	3.87
428.041	3.73
428.401	3.93
428.761	3.79
429.122	3.85
429.482	3.91
429.842	3.96
430.202	3.8
430.563	3.94
430.923	3.91
431.283	3.8
431.643	3.8
432.003	3.83
432.363	3.94
432.722	3.88
433.082	3.97
433.442	3.96
433.802	3.96
434.161	4.04
434.521	4.02
434.881	3.95
435.24	3.9
435.6	3.9
435.959	3.94
436.319	4.03
436.678	3.97
437.037	3.84
437.396	4.01
437.756	3.96
438.115	4.03
438.474	4.15
438.833	3.94
439.192	4.04
439.551	3.74
439.91	4.01
440.269	3.88
440.628	3.84
440.987	3.91
441.345	3.94
441.704	3.9
442.063	3.86
442.421	3.88
442.78	4.01
443.138	3.89
443.497	3.95
443.855	4.09
444.214	4.02
444.572	4.03
444.93	4.09
445.288	3.81
445.647	3.97
446.005	4.03
446.363	4.1
446.721	3.94
447.079	3.93
447.437	3.93
447.795	3.88
448.153	3.99
448.51	3.87
448.868	3.98
449.226	3.92
449.584	3.89
449.941	3.94
450.299	4.06
450.656	3.92
451.014	3.96
451.371	3.91
451.729	3.85
452.086	4.02
452.443	4.1
452.801	4.03
453.158	4.08
453.515	4.07
453.872	4.02
454.229	4.04
454.586	4.14
454.943	4.07
455.3	4.01
455.657	4.12
456.014	4.18
456.371	4.09
456.727	4.03
457.084	4.01
457.441	4.21
457.797	4.04
458.154	4.09
458.51	4.14
458.867	4.06
459.223	4.04
459.58	4.06
459.936	4.07
460.292	4.11
460.648	4.09
461.005	3.97
461.361	4.07
461.717	3.97
462.073	4.02
462.429	3.94
462.785	3.97
463.141	3.99
463.496	4.15
463.852	4.03
464.208	4.01
464.564	4.08
464.919	4.35
465.275	4.15
465.631	4.1
465.986	4.21
466.342	4.08
466.697	4.13
467.052	4.03
467.408	4.14
467.763	4.15
468.118	4.07
468.473	4.07
468.829	4.01
469.184	3.93
469.539	4.15
469.894	4.17
470.249	4.12
470.603	4.18
470.958	4.05
471.313	4.21
471.668	4.15
472.023	4.2
472.377	4.2
472.732	4.1
473.086	4.24
473.441	4.19
473.795	4.2
474.15	4.28
474.504	4.28
474.859	4.18
475.213	4.21
475.567	4.22
475.921	4.42
476.275	4.11
476.63	4.28
476.984	4.19
477.338	4.09
477.692	4.2
478.045	4.26
478.399	4.2
478.753	4.03
479.107	4.09
479.461	4.09
479.814	4.27
480.168	4.32
480.521	4.1
480.875	4.22
481.228	4.14
481.582	4.17
481.935	4.2
482.289	4.17
482.642	4.33
482.995	4.29
483.348	4.19
483.701	4.16
484.055	4.01
484.408	4.1
484.761	4.13
485.114	4.04
485.466	3.99
485.819	3.86
486.172	3.86
486.525	3.9
486.878	3.96
487.23	4.04
487.583	4.14
487.936	4.12
488.288	4.14
488.641	4.19
488.993	4.1
489.345	4.06
489.698	4.04
490.05	4.01
490.402	4.02
490.754	4.07
491.107	4.16
491.459	4.15
491.811	4.16
492.163	4.25
492.515	4.2
492.866	4.22
493.218	4.15
493.57	4.12
493.922	4
494.274	4.05
494.625	4.12
494.977	4.27
495.328	4.26
495.68	4.3
496.031	4.35
496.383	4.21
496.734	4.2
497.086	4.52
497.437	4.37
497.788	4.38
498.139	4.28
498.49	4.22
498.842	4.17
499.193	4.28
499.544	4.29
499.894	4.23
500.245	4.28
500.596	4.29
500.947	4.33
501.298	4.41
501.648	4.26
501.999	4.4
502.35	4.29
502.7	4.33
503.051	4.39
503.401	4.45
503.752	4.34
504.102	4.36
504.452	4.28
504.803	4.49
505.153	4.35
505.503	4.2
505.853	4.32
506.203	4.41
506.553	4.35
506.903	4.41
507.253	4.44
507.603	4.29
507.953	4.44
508.303	4.49
508.652	4.39
509.002	4.52
509.352	4.4
509.701	4.43
510.051	4.22
510.4	4.53
510.75	4.42
511.099	4.42
511.449	4.36
511.798	4.32
512.147	4.38
512.496	4.49
512.846	4.44
513.195	4.47
513.544	4.47
513.893	4.36
514.242	4.45
514.591	4.51
514.939	4.3
515.288	4.49
515.637	4.51
515.986	4.42
516.334	4.6
516.683	4.51
517.032	4.51
517.38	4.52
517.729	4.51
518.077	4.4
518.426	4.47
518.774	4.51
519.122	4.5
519.47	4.41
519.819	4.41
520.167	4.38
520.515	4.38
520.863	4.29
521.211	4.29
521.559	4.46
521.907	4.49
522.255	4.32
522.602	4.4
522.95	4.66
523.298	4.53
523.645	4.57
523.993	4.4
524.341	4.56
524.688	4.54
525.036	4.66
525.383	4.55
525.73	4.56
526.078	4.68
526.425	4.53
526.772	4.57
527.119	4.52
527.466	4.4
527.814	4.47
528.161	4.42
528.508	4.42
528.854	4.42
529.201	4.5
529.548	4.43
529.895	4.43
530.242	4.35
530.588	4.26
530.935	4.28
531.282	4.29
531.628	4.29
531.975	4.36
532.321	4.4
532.667	4.43
533.014	4.52
533.36	4.53
533.706	4.51
534.052	4.43
534.399	4.53
534.745	4.57
535.091	4.41
535.437	4.38
535.783	4.45
536.129	4.43
536.474	4.46
536.82	4.59
537.166	4.61
537.512	4.59
537.857	4.62
538.203	4.49
538.549	4.48
538.894	4.48
539.239	4.42
539.585	4.56
539.93	4.56
540.276	4.54
540.621	4.57
540.966	4.55
541.311	4.71
541.656	4.72
542.001	4.67
542.346	4.7
542.691	4.58
543.036	4.54
543.381	4.45
543.726	4.38
544.071	4.5
544.415	4.51
544.76	4.6
545.105	4.53
545.449	4.56
545.794	4.61
546.138	4.56
546.483	4.59
546.827	4.69
547.171	4.67
547.516	4.75
547.86	4.61
548.204	4.64
548.548	4.71
548.892	4.58
549.236	4.64
549.58	4.59
549.924	4.67
550.268	4.79
550.612	4.76
550.956	4.84
551.3	4.83
551.643	4.88
551.987	4.54
552.33	4.85
552.674	4.77
553.017	4.89
553.361	4.91
553.704	4.83
554.048	4.94
554.391	4.71
554.734	4.79
555.077	4.85
555.42	4.79
555.764	4.8
556.107	4.78
556.45	4.91
556.793	4.85
557.135	4.93
557.478	4.82
557.821	4.9
558.164	5
558.507	4.95
558.849	5.03
559.192	4.8
559.534	4.72
559.877	4.71
560.219	5.12
560.562	5.01
560.904	5.07
561.246	4.86
561.589	4.96
561.931	5.06
562.273	4.63
562.615	4.81
562.957	5
563.299	4.96
563.641	4.79
563.983	4.89
564.325	4.96
564.667	4.75
565.008	4.82
565.35	5.27
565.692	5.05
566.033	4.98
566.375	4.82
566.716	4.88
567.058	4.97
567.399	4.85
567.741	4.99
568.082	4.83
568.423	4.91
568.764	4.76
569.105	5.13
569.447	5.01
569.788	4.84
570.129	4.94
570.47	4.94
570.811	5.09
571.151	4.78
571.492	4.98
571.833	5.01
572.174	5.15
572.514	4.97
572.855	4.95
573.195	5.04
573.536	5.04
573.876	4.87
574.217	4.85
574.557	5.06
574.898	5.01
575.238	4.94
575.578	4.92
575.918	5
576.258	5.07
576.598	5.04
576.938	4.99
577.278	4.97
577.618	4.93
577.958	4.97
578.298	5.09
578.638	4.88
578.977	5.08
579.317	4.89
579.657	4.98
579.996	5.13
580.336	5.06
580.675	5.17
581.014	5.28
581.354	5.27
581.693	5.03
582.032	5.32
582.372	5.32
582.711	5.24
583.05	5.19
583.389	5.11
583.728	5.17
584.067	5.31
584.406	5.09
584.745	5.17
585.083	5.18
585.422	5.12
585.761	5.02
586.1	5.1
586.438	4.94
586.777	5.02
587.115	5.33
587.454	5.27
587.792	4.99
588.13	5.38
588.469	5.28
588.807	5.26
589.145	5.33
589.483	5.3
589.821	4.99
590.159	5.52
590.497	5.2
590.835	5.18
591.173	5.18
591.511	4.98
591.849	5.18
592.187	5.36
592.524	5.26
592.862	5.36
593.2	5.19
593.537	5.04
593.875	5.23
594.212	5.44
594.55	5.53
594.887	5.24
595.224	5.1
595.561	5.11
595.899	5.04
596.236	5.18
596.573	5.41
596.91	5.27
597.247	5.4
597.584	5.41
597.921	5.26
598.258	5.28
598.594	5.12
598.931	5.09
599.268	5.1
599.604	5.14
599.941	5.32
600.277	5.14
600.614	5.35
600.95	5.47
601.287	5.43
601.623	5.75
601.959	5.43
602.296	5.4
602.632	5.32
602.968	5.36
603.304	5.29
603.64	5.35
603.976	5.36
604.312	5.55
604.648	5.17
604.984	5.33
605.319	5.25
605.655	5.51
605.991	5.39
606.326	5.33
606.662	5.29
606.998	5.34
607.333	5.28
607.668	5.29
608.004	5.21
608.339	5.41
608.674	5.23
609.01	5.35
609.345	5.35
609.68	5.38
610.015	5.34
610.35	5.61
610.685	5.32
611.02	5.43
611.355	5.74
611.689	5.23
612.024	5.41
612.359	5.45
612.694	5.58
613.028	5.33
613.363	5.47
613.697	5.5
614.032	5.35
614.366	5.45
614.7	5.25
615.035	5.32
615.369	5.48
615.703	5.4
616.037	5.51
616.371	5.34
616.705	5.53
617.039	5.6
617.373	5.39
617.707	5.28
618.041	5.51
618.375	5.3
618.709	5.79
619.042	5.45
619.376	5.43
619.71	5.44
620.043	5.58
620.377	5.93
620.71	5.45
621.043	5.54
621.377	5.66
621.71	5.35
622.043	5
622.376	5.89
622.709	5.21
623.043	5.36
623.376	5.72
623.709	5.79
624.041	5.83
624.374	5.19
624.707	5.38
625.04	5.38
625.373	5.6
625.705	5.81
626.038	5.46
626.37	5.46
626.703	5.86
627.035	5.99
627.368	5.57
627.7	5.49
628.032	5.5
628.365	5.1
628.697	5.76
629.029	5.65
629.361	5.64
629.693	5.49
630.025	5.48
630.357	5.4
630.689	5.65
631.021	5.73
631.353	5.7
631.684	5.74
632.016	5.57
632.348	5.48
632.679	5.56
633.011	5.47
633.342	5.29
633.674	5.74
634.005	5.99
634.336	5.54
634.668	5.87
634.999	5.58
635.33	5.85
635.661	6.03
635.992	5.72
636.323	6.01
636.654	5.34
636.985	5.56
637.316	5.82
637.647	5.72
637.977	5.77
638.308	5.71
638.639	5.45
638.969	6.09
639.3	5.72
639.63	5.68
639.961	5.86
640.291	5.78
640.622	5.9
640.952	5.45
641.282	6.02
641.612	5.71
641.943	5.51
642.273	6.06
642.603	5.48
642.933	5.69
643.263	6.04
643.592	5.49
643.922	5.84
644.252	5.59
644.582	5.5
644.911	6.07
645.241	6.33
645.571	5.53
645.9	5.55
646.23	5.61
646.559	5.89
646.888	6.33
647.218	5.27
647.547	5.79
647.876	5.91
648.205	5.53
648.534	6.13
648.863	5.42
649.192	6.14
649.521	5.86
649.85	6.12
650.179	6.47
650.508	5.95
650.837	5.91
651.165	5.79
651.494	6.02
651.822	5.61
652.151	5.69
652.479	6.48
652.808	5.88
653.136	5.91
653.465	6.04
653.793	6.11
654.121	6.3
654.449	6.16
654.777	5.32
655.105	5.79
655.433	5.85
655.761	5.5
656.089	6.14
656.417	5.64
656.745	6.23
657.073	5.66
657.4	6.15
657.728	6.37
658.056	6.24
658.383	6.18
658.711	6.17
659.038	6.4
659.365	6.32
659.693	6.15
660.02	5.61
660.347	6.19
660.674	5.97
661.001	6.38
661.329	5.86
661.656	5.94
661.982	5.65
662.309	6.21
662.636	6.04
662.963	6.24
663.29	6.32
663.616	6.03
663.943	5.94
664.27	6.38
664.596	5.84
664.923	6.47
665.249	6.11
665.576	6.07
665.902	6.12
666.228	5.83
666.554	6.04
666.881	6.31
667.207	5.81
667.533	6.73
667.859	5.17
668.185	6.05
668.511	6.44
668.837	5.55
669.162	5.9
669.488	5.93
669.814	5.5
670.139	6.15
670.465	6.27
670.791	6.32
671.116	5.76
671.442	5.89
671.767	5.54
672.092	6.41
672.418	6.42
672.743	6.23
673.068	5.48
673.393	6.55
673.718	5.61
674.043	6.08
674.368	6.18
674.693	6.82
675.018	7.15
675.343	6.16
675.667	6.7
675.992	6.4
676.317	6.32
676.641	6.22
676.966	6.72
677.29	6.12
677.615	6.46
677.939	5.88
678.264	5.92
678.588	6.69
678.912	6.34
679.236	6.13
679.56	6.18
679.885	6.85
680.209	5.94
680.532	6.26
680.856	6.23
681.18	6.2
681.504	6.34
681.828	6.36
682.152	6.31
682.475	6.38
682.799	6.21
683.122	6.47
683.446	6.28
683.769	6.45
684.093	6.52
684.416	7.1
684.739	6.23
685.062	6.65
685.386	6.34
685.709	7.56
686.032	6.47
686.355	6.28
686.678	6.55
687.001	5.1
687.324	6.22
687.646	6.34
687.969	6.89
688.292	6.51
688.614	6.77
688.937	6.96
689.26	6.66
689.582	5.8
689.904	6.45
690.227	6.89
690.549	6.3
690.871	7.16
691.194	6.43
691.516	6.48
691.838	7.09
692.16	7.23
692.482	6.54
692.804	6.53
693.126	6.41
693.448	5.74
693.769	6.5
694.091	5.33
694.413	6.17
694.735	7.06
695.056	7.24
695.378	7.08
695.699	6.79
696.021	7
696.342	7.12
696.663	6.36
696.984	6.47
697.306	6.52
697.627	5.81
697.948	5.99
698.269	6.49
698.59	6.14
698.911	6.25
699.232	5.65
699.553	5.99
699.873	6.14
700.194	6.14
700.515	7.14
700.835	6.99
701.156	6.83
701.477	6.86
701.797	6.85
702.117	5.82
702.438	6.7
702.758	6.44
703.078	6.78
703.398	6.6
703.719	7.71
704.039	7.03
704.359	6.28
704.679	6.15
704.999	6.85
705.319	6.32
705.638	7.36
705.958	6.34
706.278	6.6
706.597	6.11
706.917	7.2
707.237	6.81
707.556	6.91
707.876	7.15
708.195	6.95
708.514	7.39
708.834	6.91
709.153	7.77
709.472	7.55
709.791	6.39
710.11	7.23
710.429	6.54
710.748	7.95
711.067	6.74
711.386	7.84
711.705	8.05
712.023	6.79
712.342	8.14
712.661	6.56
712.979	7.64
713.298	6.51
713.616	7.77
713.935	6.06
714.253	7.08
714.572	7.36
714.89	7.26
715.208	8.05
715.526	6.71
715.844	6.6
716.162	6.04
716.48	5.66
716.798	7.03
717.116	7.09
717.434	7.3
717.752	6.27
718.069	6.92
718.387	6.83
718.705	7.59
719.022	6.86
719.34	7.52
719.657	6.99
719.975	7.13
720.292	6.52
720.609	7.04
720.927	7.54
721.244	7.79
721.561	7.19
721.878	7.18
722.195	7.69
722.512	6.61
722.829	7.59
723.146	8.2
723.463	6.79
723.779	8.46
724.096	7.72
724.413	7.35
724.729	8.64
725.046	6.11
725.362	7.6
725.679	8.89
725.995	7.82
726.311	9.29
726.628	8.55
726.944	7.13
727.26	7.24
727.576	6.57
727.892	6.93
728.208	7.59
728.524	7.19
728.84	7.17
729.156	8.24
729.472	7.79
729.787	6.82
730.103	6.88
730.419	8.04
730.734	6.75
731.05	6.76
731.365	7.17
731.681	6.47
731.996	6.85
732.311	9.07
732.626	8.43
732.942	7.44
733.257	7.57
733.572	7.35
733.887	7.19
734.202	7.47
734.517	7.37
734.832	7.27
735.146	9.03
735.461	6.66
735.776	5.99
736.091	6.9
736.405	7.93
736.72	8.05
737.034	7.53
737.349	8.73
737.663	6.84
737.977	7.12
738.292	6.96
738.606	7.55
738.92	7.07
739.234	7.64
739.548	7.17
739.862	8.31
740.176	7.34
740.49	7.2
740.804	6.46
741.117	7.36
741.431	7.64
741.745	7.09
742.058	8.18
742.372	9.16
742.685	8.02
742.999	6.94
743.312	6.91
743.626	8.01
743.939	7.13
744.252	5.91
744.565	6.9
744.878	9.5
745.191	6.73
745.505	8.72
745.817	10.69
746.13	7.2
746.443	8.88
746.756	7.91
747.069	8.87
747.381	8.42
747.694	8.06
748.007	6.94
748.319	6.83
748.632	6.9
748.944	7.9
749.256	8.3
749.569	7.19
749.881	10.5
750.193	6.6
750.505	8.43
750.817	8.31
751.129	5.2
751.441	8.03
751.753	8.78
752.065	7.8
752.377	8.71
752.689	8.4
753	6.77
753.312	9.79
753.624	8.51
753.935	7.87
754.247	8.96
754.558	7.39
754.869	7.42
755.181	8.74
755.492	7.77
755.803	7.86
756.114	7.64
756.425	6.68
756.736	9.23
757.047	5.93
757.358	7.67
757.669	8.81
757.98	8.04
758.291	6.13
758.601	7.42
758.912	8.41
759.223	7.23
759.533	7.83
759.844	7.71
760.154	9.32
760.464	8.65
760.775	8.23
761.085	8.61
761.395	7.04
761.705	7.14
762.016	9.52
762.326	8.81
762.636	7.17
762.945	8.2
763.255	8.63
763.565	7.17
763.875	9.1
764.185	7.1
764.494	8.65
764.804	7.35
765.113	7.52
765.423	7.87
765.732	8.37
766.042	8.77
766.351	8.7
766.66	9.03
766.97	6.49
767.279	9.29
767.588	6.42
767.897	6.92
768.206	7.69
768.515	7.44
768.824	9.05
769.133	7.81
769.441	7.97
769.75	7.74
770.059	7.88
770.367	10.09
770.676	6.62
770.984	8.19
771.293	7.77
771.601	9.54
771.91	9.93
772.218	8.83
772.526	10.8
772.834	7.53
773.142	9.37
773.45	6.04
773.758	9.36
774.066	7.51
774.374	8.42
774.682	11.06
774.99	6.33
775.298	7.82
775.605	8.12
775.913	7.69
776.22	7.88
776.528	12.57
776.835	7.26
777.143	8.86
777.45	9
777.757	7.81
778.065	9.63
778.372	10.54
778.679	7.36
778.986	8.3
779.293	11.75
779.6	6.88
779.907	8.6
780.214	7.32
780.52	12.38
780.827	6.27
781.134	9.54
781.44	11.13
781.747	7.24
782.053	8.9
782.36	7
782.666	6.78
782.973	9.83
783.279	7.92
783.585	9.89
783.891	10.74
784.197	5.54
784.503	6.99
784.809	6.11
785.115	7.77
785.421	11.63
785.727	10.52
786.033	9.82
786.339	8.28
786.644	8.53
786.95	9.83
787.255	11.39
787.561	11.9
787.866	10.25
788.172	11.01
788.477	3.56
788.782	11.55
789.088	8.97
789.393	9.42
789.698	12.04
790.003	9.97
790.308	9.39
790.613	9.62
790.918	8.28
791.223	11.83
791.527	7.06
791.832	5.87
792.137	9.78
792.441	12.32
792.746	5.52
793.05	10.38
793.355	8.14
793.659	6.83
793.963	7.42
794.268	10.23
794.572	2.18
794.876	7.66
795.18	7.85
795.484	3.14
795.788	5.97
796.092	5.49
796.396	9.47
796.7	10.96
797.004	11.35
797.307	9.74
797.611	8.54
797.915	7.08
798.218	9.04
798.522	9.14
798.825	11.3
799.128	7.75
799.432	10.79
799.735	11.7
800.038	7.27
800.341	6.06
800.644	10.11
800.947	12.8
801.25	11.12
801.553	12.56
801.856	10.66
802.159	8.17
802.462	8.38
802.764	8.83
803.067	8.11
803.37	4.49
803.672	7.13
803.975	7.89
804.277	9.54
804.579	11.2
804.882	7.62
805.184	8.63
805.486	7.31
805.788	11.09
806.09	12.27
806.392	9.32
806.694	4.93
806.996	12.36
807.298	11.63
807.6	11.32
807.902	9.07
808.203	14
808.505	10.02
808.807	9.16
809.108	10.91
809.409	6.44
809.711	6.31
810.012	11.18
810.313	12.61
810.615	7.82
810.916	17.7
811.217	12.42
811.518	10.66
811.819	8.77
812.12	11.53
812.421	9.08
812.722	13.27
813.023	9.48
813.323	10.12
813.624	6.92
813.925	8.69
814.225	10.72
814.526	18.05
814.826	14.45
815.126	8.96
815.427	9.03
815.727	9.54
816.027	6.17
816.327	14.6
816.627	7.36
816.927	15.26
817.227	12.7
817.527	13.13
817.827	18.14
818.127	12.94
818.427	7.39
818.727	12.64
819.026	10.73
819.326	7.4
819.625	6.1
819.925	6.89
820.224	9.39
820.524	13.27
820.823	8.42
821.122	10.25
821.421	8.38
821.72	8.64
822.019	13.2
822.318	6.04
822.617	7.66
822.916	10.47
823.215	9.3
823.514	7.2
823.813	11.3
824.111	11.73
824.41	9.47
824.709	9.37
825.007	9.86
825.306	9.93
825.604	11.4
825.902	10.59
826.201	11.33
826.499	11.4
826.797	9.74
827.095	11.04
827.393	10.78
827.691	9.52
827.989	12.01
828.287	10.59
828.585	10.28
828.882	10.32
829.18	9.61
829.478	10.83
829.775	11.71
830.073	11.72
830.37	11.32
830.668	11.32
830.965	12.24
831.263	10.53
831.56	9.52
831.857	11.68
832.154	10.87
832.451	8.64
832.748	12.96
833.045	4.87
833.342	11.83
833.639	10.5
833.936	13.32
834.232	13.64
834.529	10.94
834.826	14.98
835.122	7.93
835.419	14.69
835.715	13.83
836.012	9.49
836.308	10.06
836.604	10.76
836.901	9.16
837.197	11.88
837.493	10.89
837.789	11.28
838.085	14.32
838.381	13.22
838.677	9.26
838.972	10.45
839.268	10.27
839.564	11.48
839.86	10.85
840.155	6.93
840.451	6.4
840.746	12.06
841.042	10.78
841.337	9.97
841.632	4.73
841.928	9.79
842.223	9.48
842.518	10.2
842.813	15.68
843.108	15.5
843.403	15.67
843.698	11.44
843.993	9.88
844.287	11.25
844.582	17.04
844.877	5.29
845.171	12.53
845.466	3.84
845.761	13.33
846.055	10.25
846.349	-1.74
846.644	10.19
846.938	-3.1
847.232	-2.26
847.526	10.24
847.82	-0.76
848.114	-4.17
848.408	5.25
848.702	-0.74
848.996	17.77
849.29	5.86
849.584	7.71
849.877	22.57
850.171	-6.42
850.465	16.45
850.758	10.94
851.052	11.59
851.345	2.58
851.638	-4.59
851.932	4.52
852.225	15.16
852.518	13.42
852.811	-8.34
853.104	13.58
853.397	-10.98
853.69	-2.5
853.983	8.88
854.276	7.43
854.569	3.18
854.861	9.96
855.154	6.98
855.447	25.04
855.739	15.1
856.032	2.93
856.324	17.87
856.616	6.93
856.909	2.36
857.201	6.7
857.493	9.37
857.785	-3.21
858.077	1.17
858.369	16.56
858.661	12.67
858.953	19.81
859.245	1.02
859.537	19.02
859.829	25.92
860.12	4.78
860.412	9.42
860.703	13.04
860.995	-4.02
861.286	11.43
861.578	5.75
861.869	-10.73
862.16	24.58
862.452	21.6
862.743	-2.41
863.034	17.77
863.325	15.98
863.616	-2.45
863.907	3.2
864.198	-20.96
864.488	-4.33
864.779	8.04
865.07	15.48
865.36	21.4
865.651	17.42
865.941	6.19
866.232	11.46
866.522	4.81
866.813	-7.13
867.103	23.8
867.393	-26.06
867.683	5.09
867.973	25.97
868.263	15.56
868.553	3.75
868.843	8.7
869.133	-12.68
869.423	24.3
869.713	-4.78
870.002	-7.6
870.292	16.53
870.582	15.49
870.871	20.54
871.161	13.33
871.45	12.12
871.739	1.82
872.029	-10.64
872.318	14.04
872.607	14.47
872.896	26.18
873.185	-8.95
873.474	13.22
873.763	-22.6
874.052	9.09
874.341	3.49
874.63	10.5
874.918	14.27
875.207	30.54
875.496	10.63
875.784	17.65
876.073	-11.56
876.361	31.62
876.649	13.16
876.938	2.82
877.226	-8.65
877.514	0.35
877.802	25.29
878.09	21.54
878.378	9.48
878.666	1.35
878.954	-4.45
879.242	-7.83
879.53	4.2
879.817	7.34
880.105	15.92
880.392	10.14
880.68	5.38
880.967	-3.97
881.255	13.38
881.542	14.36
881.83	23.49
882.117	16.07
882.404	23.68
882.691	-18.55
882.978	6.9
883.265	16.98
883.552	15.49
883.839	7.99
884.126	26.2
884.413	-1.24
884.699	10.02
884.986	15.71
885.273	15.54
885.559	15.54
885.846	15.54
