Data from 21-1_crown_Reflection__2__158.txt Node

Date: Thu Dec 15 17:44:06 CST 2022
User: ToomeyLab
Spectrometer: FLMS14357
Trigger mode: 0
Integration Time (sec): 1.000000E-2
Scans to average: 100
Electric dark correction enabled: true
Nonlinearity correction enabled: false
Boxcar width: 0
XAxis mode: Wavelengths
Number of Pixels in Spectrum: 2048
>>>>>Begin Spectral Data<<<<<
189.047	-57.33
189.435	-57.33
189.823	-57.33
190.211	-31.19
190.599	1626.43
190.987	-33.11
191.375	135.6
191.763	-489.38
192.151	381.84
192.538	137.24
192.926	166.79
193.314	-9.7
193.702	-376.77
194.089	-48.94
194.477	36.57
194.864	135
195.252	-406.16
195.639	77.14
196.027	-3084.48
196.414	70.71
196.801	21.51
197.189	54.51
197.576	47.73
197.963	1496.52
198.351	7.11
198.738	-86.85
199.125	-16.58
199.512	18.25
199.899	-36.2
200.286	-47.63
200.673	35.88
201.06	-20.19
201.447	18.42
201.833	-1.12
202.22	-16.36
202.607	-10.1
202.994	-5.72
203.38	37.68
203.767	-49.33
204.154	16.6
204.54	19.53
204.927	24.98
205.313	28.69
205.699	14.13
206.086	-13.87
206.472	24.24
206.858	10.73
207.245	-9.94
207.631	-6.3
208.017	45.33
208.403	-56.25
208.789	27.52
209.175	2.82
209.561	-101.32
209.947	6.93
210.333	-14.03
210.719	21.61
211.105	26.55
211.491	4.67
211.876	-27.9
212.262	-24.52
212.648	-11.46
213.034	12.32
213.419	-14.1
213.805	-28.25
214.19	-7.28
214.576	-33.97
214.961	18.86
215.346	-32.54
215.732	-0.08
216.117	-0.77
216.502	-8.41
216.888	1.82
217.273	24.3
217.658	-4.74
218.043	-21.56
218.428	-13.37
218.813	15.51
219.198	-27.98
219.583	24.6
219.968	-6.26
220.353	-9
220.738	11.11
221.122	-0.62
221.507	-9.88
221.892	-34.67
222.276	-8.23
222.661	-19.31
223.046	-5.86
223.43	16.01
223.815	-5.67
224.199	2.97
224.583	-1.53
224.968	-1.03
225.352	0.07
225.736	12.46
226.121	5.76
226.505	-4.26
226.889	5.42
227.273	-0.22
227.657	5.43
228.041	5.38
228.425	2.11
228.809	3.29
229.193	5.98
229.577	6.34
229.961	6.15
230.344	6.94
230.728	7.63
231.112	7.23
231.495	5.18
231.879	7.73
232.263	5.75
232.646	6.84
233.03	8.64
233.413	5.59
233.797	3.64
234.18	9.06
234.563	7.48
234.946	4.69
235.33	6.83
235.713	7.49
236.096	6.92
236.479	8.45
236.862	6.34
237.245	4.66
237.628	6.35
238.011	8.17
238.394	5.73
238.777	6.77
239.16	8.08
239.543	7.08
239.925	6.83
240.308	5.78
240.691	6.15
241.073	5.43
241.456	6.83
241.838	6.12
242.221	6.21
242.603	7.46
242.986	6.54
243.368	6.55
243.75	6.66
244.133	6.83
244.515	6.31
244.897	6.64
245.279	6.26
245.661	5.96
246.043	6.74
246.425	6.27
246.807	5.8
247.189	5.9
247.571	6.19
247.953	6.13
248.335	6.36
248.717	6.4
249.098	6.28
249.48	6.28
249.862	5.86
250.243	6.31
250.625	6.68
251.006	6.17
251.388	6.06
251.769	5.07
252.151	6.43
252.532	5.08
252.913	6.18
253.295	5.59
253.676	5.8
254.057	5.81
254.438	6.13
254.819	6.05
255.2	6.9
255.581	6.72
255.962	5.81
256.343	6.09
256.724	5.88
257.105	6.4
257.486	4.72
257.867	5.47
258.247	5.58
258.628	6.48
259.009	5.72
259.389	5.04
259.77	5.69
260.15	6.26
260.531	5.62
260.911	5.61
261.292	5.76
261.672	5.64
262.052	5.65
262.432	5.6
262.813	6.09
263.193	5.87
263.573	5.85
263.953	5.3
264.333	5.7
264.713	6.39
265.093	5.88
265.473	4.74
265.853	6.05
266.233	6.25
266.612	4.77
266.992	5.25
267.372	6.13
267.752	6.01
268.131	5.25
268.511	5.43
268.89	6.08
269.27	4.99
269.649	5.28
270.029	5.82
270.408	5.37
270.787	5.17
271.167	5.47
271.546	5.92
271.925	6.05
272.304	5.31
272.683	4.91
273.062	5.34
273.441	4.84
273.82	5.49
274.199	5.48
274.578	5.79
274.957	5.7
275.336	5.41
275.715	5.82
276.093	5.13
276.472	4.61
276.851	5.23
277.229	5.54
277.608	4.79
277.986	5.3
278.365	5.66
278.743	5.6
279.122	4.86
279.5	5.32
279.878	4.75
280.257	5.53
280.635	5.02
281.013	5.13
281.391	5.67
281.769	5.92
282.147	4.79
282.525	5.15
282.903	4.82
283.281	5.23
283.659	5.37
284.037	5.12
284.415	4.88
284.792	4.96
285.17	5.41
285.548	5.18
285.925	5.16
286.303	5.56
286.68	5.17
287.058	5.33
287.435	4.89
287.813	4.83
288.19	4.82
288.567	5.1
288.945	5.1
289.322	5.53
289.699	5.03
290.076	5.15
290.453	4.72
290.83	5.5
291.207	5.3
291.584	5.12
291.961	5.18
292.338	4.85
292.715	4.81
293.092	5.15
293.469	4.98
293.845	4.91
294.222	5.24
294.599	4.69
294.975	4.22
295.352	4.78
295.728	4.94
296.105	4.56
296.481	5.14
296.858	5
297.234	4.47
297.61	5.21
297.986	5.36
298.363	5.12
298.739	5.17
299.115	4.98
299.491	5.26
299.867	4.51
300.243	4.87
300.619	4.57
300.995	4.91
301.371	4.86
301.746	5.15
302.122	4.9
302.498	4.6
302.874	5.32
303.249	4.91
303.625	4.94
304	5.05
304.376	5.27
304.751	4.69
305.127	4.9
305.502	5.23
305.878	5.1
306.253	4.59
306.628	5.01
307.003	4.73
307.378	4.78
307.754	4.99
308.129	4.6
308.504	5.21
308.879	5.08
309.254	4.83
309.629	5.02
310.003	4.68
310.378	5.19
310.753	5.03
311.128	4.77
311.502	5.22
311.877	4.92
312.252	5.1
312.626	5.07
313.001	5.02
313.375	5.18
313.75	5.03
314.124	5
314.498	5.4
314.873	4.52
315.247	5.06
315.621	4.66
315.995	4.83
316.369	4.65
316.743	4.73
317.117	4.81
317.491	5.07
317.865	4.32
318.239	5.3
318.613	4.95
318.987	4.09
319.361	4.99
319.734	4.93
320.108	4.92
320.482	5.26
320.855	4.69
321.229	4.67
321.602	5.05
321.976	4.39
322.349	5.75
322.723	5.47
323.096	5.23
323.469	4.89
323.843	4.25
324.216	4.71
324.589	5.14
324.962	4.48
325.335	4.68
325.708	4.83
326.081	5.16
326.454	5.35
326.827	5.08
327.2	4.55
327.573	5.44
327.945	4.72
328.318	4.9
328.691	4.89
329.063	4.66
329.436	4.41
329.809	4.99
330.181	5.63
330.553	5.35
330.926	5.29
331.298	4.78
331.671	4.72
332.043	4.91
332.415	4.68
332.787	4.92
333.159	4.6
333.532	4.84
333.904	5.36
334.276	5.11
334.648	5.34
335.02	5.31
335.391	4.88
335.763	4.93
336.135	5.18
336.507	4.87
336.879	4.95
337.25	5.3
337.622	5.25
337.993	4.94
338.365	5.24
338.736	5.08
339.108	4.5
339.479	4.93
339.851	5.22
340.222	4.79
340.593	4.75
340.964	5.2
341.336	4.85
341.707	4.44
342.078	4.79
342.449	5.12
342.82	5.08
343.191	4.58
343.562	4.68
343.933	4.57
344.303	4.94
344.674	4.53
345.045	5.03
345.416	5.12
345.786	5.18
346.157	4.61
346.527	4.97
346.898	4.91
347.268	5.13
347.639	5.01
348.009	4.94
348.38	4.84
348.75	4.76
349.12	5.26
349.49	5.21
349.861	5.19
350.231	5.25
350.601	4.97
350.971	4.97
351.341	5.19
351.711	5.15
352.081	4.74
352.45	4.73
352.82	4.81
353.19	4.83
353.56	5.14
353.929	5.13
354.299	4.91
354.669	5.3
355.038	5.32
355.408	5.04
355.777	5.02
356.147	5.26
356.516	5.17
356.885	5.27
357.254	4.86
357.624	4.85
357.993	5.43
358.362	5.25
358.731	5.41
359.1	5.3
359.469	5.18
359.838	5.23
360.207	5.54
360.576	5.43
360.945	5.57
361.314	5.23
361.682	5.16
362.051	5.19
362.42	5.19
362.788	5.28
363.157	5.17
363.525	5.21
363.894	4.99
364.262	5.36
364.631	5.22
364.999	5.15
365.367	5.03
365.735	4.98
366.104	5.19
366.472	4.9
366.84	5.26
367.208	5.6
367.576	5.17
367.944	5.06
368.312	5.24
368.68	5.37
369.048	5.17
369.416	5.27
369.783	5.19
370.151	5.48
370.519	5.79
370.886	5.37
371.254	5.48
371.621	5.48
371.989	5.28
372.356	5.07
372.724	5.16
373.091	5.17
373.458	4.95
373.826	5.71
374.193	5.41
374.56	5.56
374.927	5.24
375.294	5.35
375.661	5.43
376.028	5.21
376.395	5.5
376.762	5.17
377.129	5.33
377.496	5.37
377.863	5.42
378.229	5.57
378.596	5.42
378.963	5.5
379.329	5.32
379.696	5.1
380.062	5.57
380.429	5.45
380.795	5.8
381.161	4.97
381.528	4.96
381.894	5.32
382.26	5.4
382.626	5.58
382.993	5.6
383.359	5.4
383.725	5.07
384.091	5.55
384.457	5.4
384.823	5.62
385.188	5.53
385.554	5.5
385.92	5.23
386.286	5.41
386.651	5.54
387.017	5.69
387.383	5.61
387.748	5.41
388.114	5.45
388.479	5.33
388.845	5.23
389.21	5.69
389.575	5.6
389.94	5.7
390.306	5.36
390.671	5.48
391.036	5.53
391.401	5.76
391.766	5.43
392.131	5.66
392.496	5.48
392.861	5.53
393.226	5.5
393.591	5.34
393.956	5.5
394.32	5.7
394.685	5.56
395.05	5.45
395.414	5.79
395.779	5.65
396.143	5.66
396.508	5.38
396.872	5.29
397.236	5.79
397.601	5.53
397.965	5.64
398.329	5.69
398.694	5.59
399.058	5.71
399.422	5.82
399.786	5.65
400.15	5.47
400.514	5.62
400.878	5.5
401.242	5.62
401.605	5.5
401.969	5.51
402.333	5.67
402.697	5.85
403.06	5.46
403.424	5.59
403.787	5.54
404.151	5.68
404.514	5.83
404.878	5.51
405.241	5.59
405.604	5.64
405.968	5.63
406.331	5.79
406.694	5.79
407.057	5.56
407.42	5.73
407.783	5.64
408.146	5.79
408.509	5.66
408.872	5.64
409.235	5.82
409.598	5.54
409.961	5.61
410.323	5.64
410.686	5.59
411.049	5.69
411.411	5.75
411.774	5.66
412.136	5.96
412.499	5.88
412.861	5.44
413.223	5.59
413.586	5.79
413.948	6.01
414.31	5.78
414.672	5.64
415.035	5.75
415.397	5.74
415.759	5.62
416.121	5.72
416.483	5.86
416.845	5.81
417.206	5.64
417.568	5.79
417.93	5.96
418.292	5.6
418.653	5.62
419.015	5.81
419.377	5.65
419.738	5.88
420.1	5.78
420.461	5.55
420.822	5.79
421.184	5.61
421.545	5.81
421.906	5.75
422.267	5.7
422.629	5.57
422.99	5.61
423.351	5.65
423.712	5.68
424.073	5.69
424.434	5.8
424.795	5.78
425.155	5.66
425.516	5.67
425.877	5.76
426.238	5.68
426.598	5.79
426.959	5.79
427.32	5.68
427.68	5.89
428.041	5.87
428.401	5.66
428.761	5.92
429.122	5.81
429.482	5.81
429.842	6.07
430.202	5.98
430.563	5.87
430.923	5.93
431.283	6.04
431.643	6
432.003	5.93
432.363	6.19
432.722	5.9
433.082	5.93
433.442	5.93
433.802	5.91
434.161	5.93
434.521	5.83
434.881	6.06
435.24	5.98
435.6	5.98
435.959	5.83
436.319	5.87
436.678	6
437.037	5.83
437.396	5.89
437.756	5.73
438.115	5.97
438.474	6.09
438.833	5.89
439.192	5.98
439.551	5.82
439.91	5.92
440.269	5.98
440.628	5.78
440.987	6.02
441.345	5.92
441.704	5.81
442.063	5.89
442.421	5.94
442.78	6.07
443.138	5.91
443.497	5.93
443.855	6.09
444.214	5.82
444.572	6.14
444.93	5.93
445.288	6.02
445.647	5.9
446.005	6.1
446.363	5.95
446.721	6.05
447.079	5.89
447.437	5.97
447.795	5.98
448.153	5.98
448.51	5.97
448.868	5.88
449.226	5.98
449.584	5.98
449.941	5.93
450.299	5.94
450.656	6
451.014	6
451.371	6.07
451.729	6.05
452.086	6.05
452.443	6
452.801	6.06
453.158	6.1
453.515	6.13
453.872	5.96
454.229	5.92
454.586	5.95
454.943	6.08
455.3	6.1
455.657	6.06
456.014	6.12
456.371	6.03
456.727	6.21
457.084	6.22
457.441	6.04
457.797	6.14
458.154	6.04
458.51	6.13
458.867	6.02
459.223	5.96
459.58	6.08
459.936	6.02
460.292	6.09
460.648	5.97
461.005	5.92
461.361	5.93
461.717	5.91
462.073	6.12
462.429	6.16
462.785	6.09
463.141	6.03
463.496	6.2
463.852	6.26
464.208	6.13
464.564	6.15
464.919	6.01
465.275	6.11
465.631	6.08
465.986	6.13
466.342	6.11
466.697	6.17
467.052	6.2
467.408	6.16
467.763	6.03
468.118	6.01
468.473	6.02
468.829	6.13
469.184	6.14
469.539	6.07
469.894	6.2
470.249	6.17
470.603	6.18
470.958	6.26
471.313	6.16
471.668	5.92
472.023	6.31
472.377	6.14
472.732	6.27
473.086	6.16
473.441	6.05
473.795	6.38
474.15	6.03
474.504	6.1
474.859	6.06
475.213	6.18
475.567	6.19
475.921	6.18
476.275	6.28
476.63	6.15
476.984	5.95
477.338	6.35
477.692	6.14
478.045	6.26
478.399	6.14
478.753	6.16
479.107	6.21
479.461	6.13
479.814	6.11
480.168	6.2
480.521	6.17
480.875	6.11
481.228	6.19
481.582	6.07
481.935	6.29
482.289	6.16
482.642	6.32
482.995	6.02
483.348	6.1
483.701	6.11
484.055	6.07
484.408	6.01
484.761	5.96
485.114	5.84
485.466	5.79
485.819	5.81
486.172	5.82
486.525	5.92
486.878	5.92
487.23	5.96
487.583	6.01
487.936	6.01
488.288	6.01
488.641	5.91
488.993	5.87
489.345	5.93
489.698	5.9
490.05	5.9
490.402	5.97
490.754	6
491.107	6.08
491.459	6.14
491.811	6.06
492.163	6.05
492.515	5.97
492.866	5.91
493.218	5.92
493.57	6.05
493.922	6
494.274	6.13
494.625	6.15
494.977	6.12
495.328	6.05
495.68	6.16
496.031	6.19
496.383	6.09
496.734	6.15
497.086	6.21
497.437	6.29
497.788	6.25
498.139	6.18
498.49	6.21
498.842	6.26
499.193	6.11
499.544	6.07
499.894	6.05
500.245	6.24
500.596	6.24
500.947	6.15
501.298	6.14
501.648	6.22
501.999	6.21
502.35	6.13
502.7	6.4
503.051	6.11
503.401	6.26
503.752	6.18
504.102	6.23
504.452	6.04
504.803	6.16
505.153	6.41
505.503	6.28
505.853	6.27
506.203	6.19
506.553	6.23
506.903	6.27
507.253	6.17
507.603	6.26
507.953	6.2
508.303	6.31
508.652	6.16
509.002	6.3
509.352	6.25
509.701	6.06
510.051	6.22
510.4	6.27
510.75	6.2
511.099	6.13
511.449	6.2
511.798	6.08
512.147	6.14
512.496	6.22
512.846	6.28
513.195	6.19
513.544	6.33
513.893	6.23
514.242	6.18
514.591	6.19
514.939	6.31
515.288	6.22
515.637	6.33
515.986	6.15
516.334	6.33
516.683	6.28
517.032	6.37
517.38	6.16
517.729	6.26
518.077	6.23
518.426	6.43
518.774	6.23
519.122	6.21
519.47	6.13
519.819	6.23
520.167	6.14
520.515	6.18
520.863	6.13
521.211	6.14
521.559	6.16
521.907	6.26
522.255	6.09
522.602	6.21
522.95	6.43
523.298	6.24
523.645	6.27
523.993	6.2
524.341	6.24
524.688	6.25
525.036	6.25
525.383	6.37
525.73	6.16
526.078	6.38
526.425	6.17
526.772	6.19
527.119	6.18
527.466	6.22
527.814	6.17
528.161	6.22
528.508	6.22
528.854	6.15
529.201	6.08
529.548	6.07
529.895	6.02
530.242	6
530.588	5.99
530.935	6.04
531.282	6.02
531.628	6.11
531.975	6.04
532.321	6.18
532.667	6.15
533.014	6.18
533.36	6.21
533.706	6.23
534.052	6.26
534.399	6.2
534.745	6.12
535.091	6.08
535.437	6.01
535.783	6.09
536.129	6.22
536.474	6.25
536.82	6.25
537.166	6.24
537.512	6.18
537.857	6.17
538.203	6.23
538.549	6.2
538.894	6.2
539.239	6.35
539.585	6.3
539.93	6.32
540.276	6.3
540.621	6.36
540.966	6.29
541.311	6.44
541.656	6.22
542.001	6.1
542.346	6.15
542.691	6.1
543.036	6.12
543.381	6.07
543.726	6.15
544.071	6.12
544.415	6.2
544.76	6.16
545.105	6.17
545.449	6.21
545.794	6.14
546.138	6.15
546.483	6.22
546.827	6.22
547.171	6.33
547.516	6.38
547.86	6.3
548.204	6.24
548.548	6.2
548.892	6.23
549.236	6.19
549.58	6.2
549.924	6.33
550.268	6.33
550.612	6.34
550.956	6.42
551.3	6.54
551.643	6.54
551.987	6.5
552.33	6.56
552.674	6.36
553.017	6.52
553.361	6.36
553.704	6.48
554.048	6.31
554.391	6.44
554.734	6.32
555.077	6.4
555.42	6.35
555.764	6.5
556.107	6.49
556.45	6.46
556.793	6.44
557.135	6.37
557.478	6.48
557.821	6.45
558.164	6.33
558.507	6.49
558.849	6.52
559.192	6.52
559.534	6.44
559.877	6.42
560.219	6.47
560.562	6.24
560.904	6.67
561.246	6.17
561.589	6.46
561.931	6.42
562.273	6.35
562.615	6.33
562.957	6.39
563.299	6.35
563.641	6.5
563.983	6.28
564.325	6.46
564.667	6.48
565.008	6.46
565.35	6.32
565.692	6.24
566.033	6.38
566.375	6.44
566.716	6.2
567.058	6.44
567.399	6.4
567.741	6.46
568.082	6.44
568.423	6.4
568.764	6.49
569.105	6.45
569.447	6.43
569.788	6.36
570.129	6.46
570.47	6.48
570.811	6.27
571.151	6.36
571.492	6.42
571.833	6.38
572.174	6.43
572.514	6.5
572.855	6.47
573.195	6.41
573.536	6.55
573.876	6.3
574.217	6.32
574.557	6.4
574.898	6.5
575.238	6.46
575.578	6.51
575.918	6.32
576.258	6.62
576.598	6.46
576.938	6.37
577.278	6.44
577.618	6.4
577.958	6.48
578.298	6.44
578.638	6.3
578.977	6.42
579.317	6.48
579.657	6.55
579.996	6.43
580.336	6.46
580.675	6.37
581.014	6.4
581.354	6.11
581.693	6.63
582.032	6.55
582.372	6.63
582.711	6.49
583.05	6.33
583.389	6.52
583.728	6.56
584.067	6.22
584.406	6.47
584.745	6.5
585.083	6.54
585.422	6.57
585.761	6.53
586.1	6.55
586.438	6.37
586.777	6.51
587.115	6.66
587.454	6.45
587.792	6.66
588.13	6.5
588.469	6.36
588.807	6.66
589.145	6.48
589.483	6.13
589.821	6.57
590.159	6.52
590.497	6.47
590.835	6.46
591.173	6.74
591.511	6.71
591.849	6.52
592.187	6.53
592.524	6.45
592.862	6.47
593.2	6.57
593.537	6.46
593.875	6.61
594.212	6.57
594.55	6.45
594.887	6.69
595.224	6.54
595.561	6.52
595.899	6.57
596.236	6.6
596.573	6.49
596.91	6.6
597.247	6.8
597.584	6.48
597.921	6.53
598.258	6.67
598.594	6.48
598.931	6.32
599.268	6.34
599.604	6.57
599.941	6.64
600.277	6.44
600.614	6.39
600.95	6.45
601.287	6.28
601.623	6.34
601.959	6.98
602.296	6.74
602.632	6.55
602.968	6.36
603.304	6.6
603.64	6.3
603.976	6.5
604.312	6.47
604.648	6.58
604.984	6.78
605.319	6.48
605.655	6.44
605.991	6.45
606.326	6.34
606.662	6.3
606.998	6.56
607.333	6.64
607.668	6.45
608.004	6.47
608.339	6.27
608.674	6.77
609.01	6.92
609.345	6.51
609.68	6.58
610.015	6.63
610.35	6.81
610.685	6.39
611.02	6.37
611.355	6.58
611.689	6.42
612.024	6.58
612.359	6.74
612.694	6.63
613.028	6.35
613.363	6.5
613.697	6.69
614.032	6.37
614.366	6.32
614.7	6.6
615.035	6.51
615.369	6.47
615.703	6.75
616.037	6.46
616.371	6.41
616.705	6.72
617.039	6.8
617.373	6.73
617.707	6.35
618.041	6.49
618.375	6.16
618.709	6.78
619.042	6.55
619.376	6.7
619.71	6.48
620.043	6.87
620.377	6.69
620.71	6.44
621.043	6.54
621.377	6.67
621.71	6.79
622.043	6.36
622.376	6.28
622.709	6.82
623.043	6.71
623.376	6.67
623.709	6.67
624.041	6.35
624.374	7.12
624.707	6.88
625.04	6.62
625.373	6.54
625.705	6.83
626.038	6.84
626.37	6.26
626.703	6.96
627.035	6.38
627.368	6.64
627.7	6.71
628.032	6.53
628.365	6.66
628.697	6.77
629.029	6.67
629.361	6.88
629.693	6.68
630.025	6.5
630.357	6.81
630.689	6.63
631.021	6.64
631.353	6.73
631.684	6.73
632.016	6.47
632.348	6.43
632.679	6.46
633.011	6.38
633.342	6.32
633.674	6.44
634.005	6.67
634.336	6.78
634.668	6.45
634.999	6.51
635.33	6.8
635.661	6.78
635.992	6.96
636.323	6.48
636.654	6.51
636.985	6.49
637.316	6.48
637.647	6.74
637.977	6.78
638.308	7.18
638.639	6.65
638.969	6.45
639.3	6.83
639.63	6.34
639.961	6.78
640.291	6.39
640.622	6.74
640.952	6.58
641.282	6.44
641.612	6.52
641.943	6.43
642.273	6.26
642.603	7.03
642.933	6.82
643.263	6.42
643.592	6.82
643.922	6.61
644.252	6.71
644.582	6.65
644.911	6.76
645.241	6.43
645.571	6.58
645.9	6.32
646.23	6.61
646.559	6.66
646.888	6.91
647.218	6.71
647.547	6.43
647.876	6.71
648.205	6.27
648.534	6.9
648.863	6.11
649.192	6.8
649.521	6.62
649.85	6.72
650.179	6.86
650.508	6.57
650.837	6.78
651.165	6.74
651.494	6.05
651.822	6.62
652.151	6.12
652.479	6.79
652.808	6.58
653.136	6.24
653.465	6.35
653.793	6.72
654.121	6.86
654.449	6.51
654.777	6.75
655.105	6.56
655.433	6.73
655.761	6.43
656.089	6.66
656.417	7.38
656.745	7
657.073	6.85
657.4	6.52
657.728	6.29
658.056	6.61
658.383	6.62
658.711	6.88
659.038	7.3
659.365	6.78
659.693	6.74
660.02	6.38
660.347	6.58
660.674	6.62
661.001	6.78
661.329	6.4
661.656	6.45
661.982	6.38
662.309	6.52
662.636	6.22
662.963	6.75
663.29	6.75
663.616	6.35
663.943	6.66
664.27	6.25
664.596	6.63
664.923	6.65
665.249	6.59
665.576	6.6
665.902	6.18
666.228	6.8
666.554	7.34
666.881	6.35
667.207	6.78
667.533	6.64
667.859	6.3
668.185	6.8
668.511	7.35
668.837	6.66
669.162	6.56
669.488	6.11
669.814	6.76
670.139	6.75
670.465	6.7
670.791	6.42
671.116	6.32
671.442	6.06
671.767	6.7
672.092	6.33
672.418	6.88
672.743	6.37
673.068	6.23
673.393	6.69
673.718	6.43
674.043	6.65
674.368	6.55
674.693	6.79
675.018	6.48
675.343	7.01
675.667	6.3
675.992	7.05
676.317	5.97
676.641	7.24
676.966	7.29
677.29	6.4
677.615	6.49
677.939	7.03
678.264	6.4
678.588	6.26
678.912	6.95
679.236	6.35
679.56	6.32
679.885	6.1
680.209	7.11
680.532	7.07
680.856	7.13
681.18	6.93
681.504	6.63
681.828	6.6
682.152	6.98
682.475	6.66
682.799	6.36
683.122	6.47
683.446	6.6
683.769	7.06
684.093	6.61
684.416	6.19
684.739	6.19
685.062	7.03
685.386	6.63
685.709	6.75
686.032	7.01
686.355	6.39
686.678	6.84
687.001	6.46
687.324	6.61
687.646	6.67
687.969	6.71
688.292	6.75
688.614	7.26
688.937	7.1
689.26	6.86
689.582	6.81
689.904	6.82
690.227	6.75
690.549	6.5
690.871	6.56
691.194	6.51
691.516	6.46
691.838	6.54
692.16	6.52
692.482	6.92
692.804	6.35
693.126	6.21
693.448	7.13
693.769	6.56
694.091	6.56
694.413	6.5
694.735	6.83
695.056	7.06
695.378	6.82
695.699	7.35
696.021	7
696.342	5.75
696.663	6.63
696.984	6.13
697.306	6.11
697.627	6.89
697.948	6.59
698.269	7.37
698.59	6.65
698.911	6.2
699.232	7.35
699.553	7
699.873	6.79
700.194	7.11
700.515	6.5
700.835	6.7
701.156	7.06
701.477	6.69
701.797	6.67
702.117	6.79
702.438	6.58
702.758	6.04
703.078	6.61
703.398	6.18
703.719	6.87
704.039	7.22
704.359	6.12
704.679	7.07
704.999	7.65
705.319	6.11
705.638	6.61
705.958	6.74
706.278	6.97
706.597	6.52
706.917	7.5
707.237	6.87
707.556	7.09
707.876	7.46
708.195	7.31
708.514	6.82
708.834	6.1
709.153	7.36
709.472	7.59
709.791	5.87
710.11	6.66
710.429	7.39
710.748	6.83
711.067	7.44
711.386	6.8
711.705	7.01
712.023	7.52
712.342	6.86
712.661	7.2
712.979	6.63
713.298	7.12
713.616	6.85
713.935	6.78
714.253	6.44
714.572	5.9
714.89	7.11
715.208	7.12
715.526	6.9
715.844	6.16
716.162	7.67
716.48	7.25
716.798	6.47
717.116	6.74
717.434	6.65
717.752	6.81
718.069	6.57
718.387	6.73
718.705	6.4
719.022	7.59
719.34	6.91
719.657	7.26
719.975	6.98
720.292	6.85
720.609	5.56
720.927	6.97
721.244	7.27
721.561	5.84
721.878	7.17
722.195	7.91
722.512	7.34
722.829	6.58
723.146	6.69
723.463	7.91
723.779	5.75
724.096	5.82
724.413	6.61
724.729	7.16
725.046	6.35
725.362	6.98
725.679	6.38
725.995	5.96
726.311	7.09
726.628	6.61
726.944	7.4
727.26	7.46
727.576	6.47
727.892	5.86
728.208	6.69
728.524	6.56
728.84	6.79
729.156	5.61
729.472	5.67
729.787	5.9
730.103	7.08
730.419	5.93
730.734	6.25
731.05	6.71
731.365	7.63
731.681	7.33
731.996	8.01
732.311	6.08
732.626	6.94
732.942	6.36
733.257	6.94
733.572	7.67
733.887	7.47
734.202	6.92
734.517	6.72
734.832	5.69
735.146	7.58
735.461	6.19
735.776	7.73
736.091	7.79
736.405	6.64
736.72	6.23
737.034	8.5
737.349	6.93
737.663	8.6
737.977	7.6
738.292	6.2
738.606	7.45
738.92	7.04
739.234	6.61
739.548	6.62
739.862	7.12
740.176	5.96
740.49	6.9
740.804	6.21
741.117	7.37
741.431	7.43
741.745	6.56
742.058	6.44
742.372	6.5
742.685	7.85
742.999	6.51
743.312	7.41
743.626	8.39
743.939	6.81
744.252	7.26
744.565	7.22
744.878	5.93
745.191	8.17
745.505	6
745.817	7.15
746.13	6.83
746.443	6.46
746.756	7.04
747.069	8.56
747.381	6.43
747.694	7.73
748.007	5.54
748.319	7.36
748.632	8.14
748.944	5.33
749.256	6.59
749.569	6.18
749.881	4.73
750.193	6.88
750.505	7.18
750.817	7.71
751.129	6.53
751.441	7.65
751.753	7.91
752.065	7.2
752.377	9.28
752.689	5.95
753	8.29
753.312	6.73
753.624	5.16
753.935	5.69
754.247	6.29
754.558	6.18
754.869	8.29
755.181	5.76
755.492	4.81
755.803	7.5
756.114	4.74
756.425	4.1
756.736	7.38
757.047	7.79
757.358	5.96
757.669	6.52
757.98	6.08
758.291	6.31
758.601	7.39
758.912	5.43
759.223	7.18
759.533	7.19
759.844	5.07
760.154	7.16
760.464	6.75
760.775	7.12
761.085	7.3
761.395	5.16
761.705	6.06
762.016	6.14
762.326	7.74
762.636	7.63
762.945	6.01
763.255	4.99
763.565	6.91
763.875	5.81
764.185	6.61
764.494	6.19
764.804	6.85
765.113	7.64
765.423	7.39
765.732	7.17
766.042	7.62
766.351	7.14
766.66	7.28
766.97	8.1
767.279	6.95
767.588	4.95
767.897	6.59
768.206	6.97
768.515	7.13
768.824	8.18
769.133	4.94
769.441	6.41
769.75	6.12
770.059	5.94
770.367	7.04
770.676	4.89
770.984	2.18
771.293	5.99
771.601	4.69
771.91	5
772.218	6.89
772.526	6.5
772.834	5.7
773.142	5.06
773.45	6.7
773.758	6.33
774.066	6.52
774.374	11.32
774.682	8.8
774.99	3.75
775.298	4.33
775.605	4.54
775.913	2.92
776.22	4.68
776.528	6.72
776.835	8.55
777.143	7.43
777.45	4.28
777.757	10.91
778.065	4.77
778.372	3.21
778.679	6.99
778.986	7.85
779.293	3.94
779.6	5.89
779.907	10.37
780.214	7.07
780.52	9.62
780.827	5.38
781.134	9.21
781.44	8.9
781.747	6.59
782.053	4.04
782.36	4.49
782.666	1.7
782.973	4.21
783.279	10.41
783.585	8.29
783.891	5.84
784.197	7.28
784.503	8.36
784.809	9.49
785.115	7.95
785.421	11.43
785.727	8.35
786.033	7.35
786.339	9.46
786.644	3.76
786.95	7.05
787.255	2.82
787.561	5.52
787.866	7.24
788.172	5.17
788.477	5.97
788.782	4.37
789.088	2.28
789.393	6.82
789.698	2.06
790.003	8.26
790.308	7.05
790.613	8.1
790.918	8.59
791.223	3.81
791.527	10.38
791.832	9.14
792.137	9.34
792.441	6.34
792.746	7.15
793.05	4.34
793.355	4.76
793.659	8.61
793.963	3.69
794.268	8.66
794.572	2.22
794.876	5.43
795.18	9.03
795.484	8.65
795.788	10.44
796.092	3.17
796.396	-1.19
796.7	3.52
797.004	6.63
797.307	6.52
797.611	10.44
797.915	6.38
798.218	5.53
798.522	4.5
798.825	10.99
799.128	9.42
799.432	2.33
799.735	6.19
800.038	5.26
800.341	5.83
800.644	2.52
800.947	6.35
801.25	5.8
801.553	9.72
801.856	6.11
802.159	3.49
802.462	7.88
802.764	9.73
803.067	7.7
803.37	2.66
803.672	5.48
803.975	6.57
804.277	7.27
804.579	6.22
804.882	7.98
805.184	8.57
805.486	12.55
805.788	10.71
806.09	7.88
806.392	7.84
806.694	3.5
806.996	8.29
807.298	6.92
807.6	8.52
807.902	7.31
808.203	4.29
808.505	4.33
808.807	9.3
809.108	4.41
809.409	1.9
809.711	5.28
810.012	5.12
810.313	11.32
810.615	6.61
810.916	7.34
811.217	2.33
811.518	6.71
811.819	7.93
812.12	7.31
812.421	7.35
812.722	6.12
813.023	9.14
813.323	8.02
813.624	10.74
813.925	9.34
814.225	8.83
814.526	-3.77
814.826	-1.1
815.126	2.61
815.427	3.38
815.727	-0.7
816.027	9.03
816.327	10.31
816.627	1.07
816.927	5.62
817.227	4.56
817.527	6.93
817.827	6.85
818.127	-0.93
818.427	1.2
818.727	0.84
819.026	10.55
819.326	9.51
819.625	4.45
819.925	7.48
820.224	8.73
820.524	5.78
820.823	9.11
821.122	-0.59
821.421	5.3
821.72	6.45
822.019	0.29
822.318	6.88
822.617	10.71
822.916	4.85
823.215	10.49
823.514	6.55
823.813	4.48
824.111	6.5
824.41	8.83
824.709	8.31
825.007	8.23
825.306	8.38
825.604	8.39
825.902	8.38
826.201	8.04
826.499	7.5
826.797	6.54
827.095	7.12
827.393	8.63
827.691	9.34
827.989	6.93
828.287	7.27
828.585	6.46
828.882	7.12
829.18	7.53
829.478	8.81
829.775	9.28
830.073	8.78
830.37	7.36
830.668	7.53
830.965	8.77
831.263	6.38
831.56	11.76
831.857	8.72
832.154	7.85
832.451	10.9
832.748	8.2
833.045	8.88
833.342	8.15
833.639	10.88
833.936	3.93
834.232	4.52
834.529	2.57
834.826	12.47
835.122	0.07
835.419	10.47
835.715	5.18
836.012	6.76
836.308	9.87
836.604	6.67
836.901	3.41
837.197	9.49
837.493	8.08
837.789	8.07
838.085	2.71
838.381	6.87
838.677	7.07
838.972	2.47
839.268	7.38
839.564	7.48
839.86	6.7
840.155	10.01
840.451	5.38
840.746	7.15
841.042	0.89
841.337	3.97
841.632	-1.45
841.928	10.21
842.223	4.56
842.518	0.15
842.813	6.45
843.108	2.04
843.403	7.56
843.698	0.95
843.993	9.84
844.287	5.63
844.582	10.07
844.877	11.61
845.171	13.4
845.466	-1.25
845.761	3.49
846.055	20.63
846.349	4.4
846.644	7.74
846.938	3.87
847.232	10.87
847.526	0.82
847.82	-1.12
848.114	12.68
848.408	3.77
848.702	24.76
848.996	22.58
849.29	16.93
849.584	2.25
849.877	-13.4
850.171	-0.63
850.465	1.22
850.758	0.07
851.052	-16.99
851.345	-2.3
851.638	-11.68
851.932	3.17
852.225	2.48
852.518	-4.2
852.811	-19.51
853.104	5.51
853.397	-13.78
853.69	7.92
853.983	-10.8
854.276	1.14
854.569	-8.13
854.861	-1.27
855.154	31.95
855.447	-18.07
855.739	-2.06
856.032	15.07
856.324	-2.61
856.616	0.07
856.909	-21.18
857.201	-11.07
857.493	-13.18
857.785	-11.69
858.077	5.36
858.369	2.51
858.661	2.23
858.953	21.33
859.245	18
859.537	-15.39
859.829	-4.22
860.12	1.1
860.412	-14.84
860.703	11.66
860.995	17.29
861.286	-22.83
861.578	1.13
861.869	6.37
862.16	-9.34
862.452	-19.2
862.743	9.54
863.034	9.64
863.325	15.57
863.616	4.39
863.907	6.84
864.198	-10.45
864.488	-6.17
864.779	19.66
865.07	3.8
865.36	7.5
865.651	21.35
865.941	-1.56
866.232	13.12
866.522	15.78
866.813	-2.6
867.103	-16.32
867.393	8.21
867.683	5.63
867.973	-2.72
868.263	-16.41
868.553	12.27
868.843	-20.64
869.133	-22.51
869.423	9.08
869.713	-9.53
870.002	11.47
870.292	1.6
870.582	-0.58
870.871	-7
871.161	16.63
871.45	-20.91
871.739	3.93
872.029	5
872.318	8.5
872.607	21.4
872.896	11.5
873.185	11.01
873.474	-16.59
873.763	17.7
874.052	15.22
874.341	0.49
874.63	-7.82
874.918	-1.08
875.207	-3.83
875.496	5.54
875.784	-14.56
876.073	-8.09
876.361	36.98
876.649	-21.94
876.938	0.85
877.226	8.23
877.514	15.84
877.802	-15.88
878.09	3.35
878.378	2.73
878.666	13.62
878.954	11.16
879.242	14.88
879.53	-3.76
879.817	-13.06
880.105	9.92
880.392	-9.8
880.68	8.03
880.967	-0.29
881.255	14.24
881.542	-24.94
881.83	15.48
882.117	-10.01
882.404	-15.06
882.691	-2.5
882.978	6.59
883.265	-0.57
883.552	4.78
883.839	13
884.126	-1.93
884.413	8.9
884.699	11.16
884.986	-0.35
885.273	9.93
885.559	9.93
885.846	9.93
