Data from 21-1_crown_Reflection__3__159.txt Node

Date: Thu Dec 15 17:44:16 CST 2022
User: ToomeyLab
Spectrometer: FLMS14357
Trigger mode: 0
Integration Time (sec): 1.000000E-2
Scans to average: 100
Electric dark correction enabled: true
Nonlinearity correction enabled: false
Boxcar width: 0
XAxis mode: Wavelengths
Number of Pixels in Spectrum: 2048
>>>>>Begin Spectral Data<<<<<
189.047	-58.3
189.435	-58.3
189.823	-58.3
190.211	-117.14
190.599	2239.49
190.987	8.72
191.375	540.8
191.763	-579.69
192.151	258.64
192.538	54.89
192.926	236.68
193.314	42.04
193.702	147.37
194.089	-7.43
194.477	11.46
194.864	119.4
195.252	-706.85
195.639	22.26
196.027	-5586.21
196.414	-33.05
196.801	-81.87
197.189	33.44
197.576	63.59
197.963	-258.82
198.351	-0.64
198.738	-75.97
199.125	-80.56
199.512	15.62
199.899	-65.47
200.286	26.34
200.673	54
201.06	-13.11
201.447	21.1
201.833	10.71
202.22	42.31
202.607	2.65
202.994	-12.08
203.38	35.06
203.767	-14.19
204.154	-11.16
204.54	39.19
204.927	-6.55
205.313	6.91
205.699	71.12
206.086	15.43
206.472	7.07
206.858	-20.29
207.245	6.9
207.631	21.41
208.017	22.62
208.403	-2.23
208.789	13.65
209.175	25.59
209.561	-68.77
209.947	-52.02
210.333	20
210.719	22.68
211.105	14.98
211.491	6.47
211.876	-15.22
212.262	36.06
212.648	4.69
213.034	2.54
213.419	-2.25
213.805	-9.53
214.19	2.38
214.576	-7.44
214.961	7.68
215.346	2.52
215.732	5.95
216.117	-7.34
216.502	9.22
216.888	-2.28
217.273	2.71
217.658	14.06
218.043	-13.18
218.428	-8.71
218.813	5.76
219.198	-20.31
219.583	-12.79
219.968	-0.62
220.353	-23.56
220.738	2.42
221.122	-9.35
221.507	-15.13
221.892	-14.45
222.276	-23.56
222.661	-12.91
223.046	3.51
223.43	20.3
223.815	8.42
224.199	7.08
224.583	-1.72
224.968	0.11
225.352	-7.98
225.736	9.76
226.121	6
226.505	1.03
226.889	9.1
227.273	-1.39
227.657	2.03
228.041	1.59
228.425	1.37
228.809	0.52
229.193	2.15
229.577	2.39
229.961	2.91
230.344	4.22
230.728	4.34
231.112	3.61
231.495	2.86
231.879	2.18
232.263	2.98
232.646	2.29
233.03	4.42
233.413	3.56
233.797	2.16
234.18	2.11
234.563	3.2
234.946	3.13
235.33	3.03
235.713	3.55
236.096	3.72
236.479	4.57
236.862	2.67
237.245	1.78
237.628	4.01
238.011	1.69
238.394	3.27
238.777	3.26
239.16	5.94
239.543	3.66
239.925	2.23
240.308	2.16
240.691	3.82
241.073	4.27
241.456	2.84
241.838	3.08
242.221	2.88
242.603	3.32
242.986	3.74
243.368	4.09
243.75	3.47
244.133	3.73
244.515	3.32
244.897	3.28
245.279	3.61
245.661	3.49
246.043	3.76
246.425	3.46
246.807	2.87
247.189	2.99
247.571	3.16
247.953	3.38
248.335	3.5
248.717	3.41
249.098	3.39
249.48	3.41
249.862	3.83
250.243	3.7
250.625	3.73
251.006	3.88
251.388	2.57
251.769	3.36
252.151	3.06
252.532	3.57
252.913	3.24
253.295	3.23
253.676	3.47
254.057	3.43
254.438	2.79
254.819	3.32
255.2	3.79
255.581	4.4
255.962	4.24
256.343	3.93
256.724	2.62
257.105	2.84
257.486	2.65
257.867	3.56
258.247	3.72
258.628	3.3
259.009	2.95
259.389	3.42
259.77	3.44
260.15	4.08
260.531	3.49
260.911	3.25
261.292	3.45
261.672	3.35
262.052	3.28
262.432	3.22
262.813	3.33
263.193	3.38
263.573	3.14
263.953	3.58
264.333	3.6
264.713	3.01
265.093	3.11
265.473	2.53
265.853	3.98
266.233	3.15
266.612	2.67
266.992	2.69
267.372	3.12
267.752	3.25
268.131	3.43
268.511	3.07
268.89	3.63
269.27	2.67
269.649	2.89
270.029	3.33
270.408	2.98
270.787	3.85
271.167	3.09
271.546	3.81
271.925	3.19
272.304	2.95
272.683	3.4
273.062	2.99
273.441	3.21
273.82	3.12
274.199	3
274.578	3.14
274.957	3.05
275.336	3.12
275.715	3.3
276.093	2.39
276.472	2.66
276.851	3.01
277.229	3.15
277.608	2.41
277.986	3.53
278.365	3.36
278.743	3.14
279.122	2.72
279.5	3.32
279.878	2.83
280.257	3.33
280.635	3.43
281.013	2.64
281.391	2.52
281.769	3.49
282.147	3.24
282.525	2.65
282.903	2.5
283.281	3.29
283.659	3.32
284.037	3.01
284.415	3.02
284.792	2.83
285.17	2.76
285.548	3.09
285.925	2.65
286.303	3.06
286.68	3.18
287.058	2.78
287.435	2.7
287.813	2.93
288.19	2.77
288.567	2.92
288.945	3.02
289.322	3.02
289.699	3.25
290.076	2.83
290.453	2.47
290.83	3.34
291.207	3.26
291.584	3.31
291.961	3.15
292.338	3.2
292.715	2.9
293.092	3.48
293.469	3.08
293.845	2.75
294.222	3.08
294.599	3
294.975	2.75
295.352	3.65
295.728	3.25
296.105	3.3
296.481	3.27
296.858	2.76
297.234	2.74
297.61	2.82
297.986	3.49
298.363	3.06
298.739	3.53
299.115	3.02
299.491	3.35
299.867	2.89
300.243	2.96
300.619	3.1
300.995	3.11
301.371	3.32
301.746	3.2
302.122	2.68
302.498	3.11
302.874	3.08
303.249	3.18
303.625	2.97
304	3.24
304.376	3.27
304.751	2.84
305.127	2.81
305.502	3.28
305.878	3.4
306.253	2.71
306.628	2.93
307.003	2.57
307.378	2.64
307.754	3.25
308.129	3.33
308.504	3.28
308.879	3.14
309.254	3.14
309.629	3
310.003	2.72
310.378	3.35
310.753	2.94
311.128	2.76
311.502	3.59
311.877	2.79
312.252	2.93
312.626	3.3
313.001	3.27
313.375	3.42
313.75	3.3
314.124	3.19
314.498	3.61
314.873	2.96
315.247	2.85
315.621	2.72
315.995	3.07
316.369	2.72
316.743	2.98
317.117	2.58
317.491	3.45
317.865	2.46
318.239	3.63
318.613	2.57
318.987	2.78
319.361	2.92
319.734	3.14
320.108	3.03
320.482	3.2
320.855	2.7
321.229	3.31
321.602	3.5
321.976	2.59
322.349	3.22
322.723	3.01
323.096	2.81
323.469	2.47
323.843	2.62
324.216	2.61
324.589	3.57
324.962	3.1
325.335	3.03
325.708	3.2
326.081	3.25
326.454	3.15
326.827	3.46
327.2	3.23
327.573	3.68
327.945	2.77
328.318	3.39
328.691	3.22
329.063	2.8
329.436	3.28
329.809	3.16
330.181	3.38
330.553	3.27
330.926	3.47
331.298	3.04
331.671	2.91
332.043	3.07
332.415	3.55
332.787	3.24
333.159	2.42
333.532	3.25
333.904	3.23
334.276	3.11
334.648	3.06
335.02	2.83
335.391	2.85
335.763	3.07
336.135	3.4
336.507	3.32
336.879	3.25
337.25	2.96
337.622	3.05
337.993	3.25
338.365	2.99
338.736	2.98
339.108	2.96
339.479	2.84
339.851	3.13
340.222	3.53
340.593	3.25
340.964	3.01
341.336	2.9
341.707	3.07
342.078	2.96
342.449	2.91
342.82	3.12
343.191	3.15
343.562	3.03
343.933	3.28
344.303	3.18
344.674	3.13
345.045	2.84
345.416	3.03
345.786	3.36
346.157	3.29
346.527	2.93
346.898	2.79
347.268	3.03
347.639	3.31
348.009	2.97
348.38	2.85
348.75	3.08
349.12	3.29
349.49	2.71
349.861	3.14
350.231	3.18
350.601	2.87
350.971	3.04
351.341	3.1
351.711	3.23
352.081	2.73
352.45	2.88
352.82	2.88
353.19	3.21
353.56	2.61
353.929	3.09
354.299	3.08
354.669	3.08
355.038	3.12
355.408	3
355.777	3.47
356.147	3.11
356.516	2.88
356.885	3.24
357.254	2.69
357.624	2.37
357.993	3.18
358.362	3.24
358.731	3.28
359.1	3.01
359.469	3.27
359.838	2.83
360.207	3.25
360.576	3.26
360.945	2.98
361.314	3.05
361.682	2.92
362.051	3.03
362.42	3.12
362.788	3
363.157	2.91
363.525	3.09
363.894	3.06
364.262	2.98
364.631	3.08
364.999	3.3
365.367	3.06
365.735	3.01
366.104	2.97
366.472	3.32
366.84	3.05
367.208	3.27
367.576	3.11
367.944	2.97
368.312	3.12
368.68	3.46
369.048	2.87
369.416	2.89
369.783	3.32
370.151	3.54
370.519	3.52
370.886	3.28
371.254	3.39
371.621	3.35
371.989	2.98
372.356	3.36
372.724	2.79
373.091	2.67
373.458	3.03
373.826	3.56
374.193	3.15
374.56	3.23
374.927	2.86
375.294	3.55
375.661	3.33
376.028	3.19
376.395	3.28
376.762	2.96
377.129	3.14
377.496	3.25
377.863	3.09
378.229	3.22
378.596	3.46
378.963	3.41
379.329	3.14
379.696	3.13
380.062	3.3
380.429	2.82
380.795	3.3
381.161	3.04
381.528	2.88
381.894	3.29
382.26	3.54
382.626	3.25
382.993	3.43
383.359	3.26
383.725	3.05
384.091	3.3
384.457	3.09
384.823	3.17
385.188	3.51
385.554	3.18
385.92	3.19
386.286	3.3
386.651	3.47
387.017	3.41
387.383	3.17
387.748	3.32
388.114	3.28
388.479	3.21
388.845	2.84
389.21	3.51
389.575	3.45
389.94	3.5
390.306	3.45
390.671	3.28
391.036	3.14
391.401	3.21
391.766	3.13
392.131	3.29
392.496	3.02
392.861	3.38
393.226	3.23
393.591	3.4
393.956	3.3
394.32	3.3
394.685	3.08
395.05	3.16
395.414	3.17
395.779	3.31
396.143	3.21
396.508	3.22
396.872	3.27
397.236	3.63
397.601	3.46
397.965	3.36
398.329	3.2
398.694	3.17
399.058	3.35
399.422	3.23
399.786	3.38
400.15	3.47
400.514	3.39
400.878	3.43
401.242	3.4
401.605	3.35
401.969	3.31
402.333	3.17
402.697	3.48
403.06	3.22
403.424	3.37
403.787	3.3
404.151	3.5
404.514	3.34
404.878	3.09
405.241	3.55
405.604	3.29
405.968	3.36
406.331	3.43
406.694	3.47
407.057	3.32
407.42	3.38
407.783	3.54
408.146	3.51
408.509	3.51
408.872	3.26
409.235	3.38
409.598	3.37
409.961	3.25
410.323	3.45
410.686	3.38
411.049	3.46
411.411	3.69
411.774	3.49
412.136	3.47
412.499	3.64
412.861	3.14
413.223	3.27
413.586	3.38
413.948	3.53
414.31	3.45
414.672	3.31
415.035	3.81
415.397	3.35
415.759	3.21
416.121	3.4
416.483	3.54
416.845	3.46
417.206	3.37
417.568	3.48
417.93	3.4
418.292	3.24
418.653	3.24
419.015	3.48
419.377	3.2
419.738	3.5
420.1	3.36
420.461	3.3
420.822	3.35
421.184	3.36
421.545	3.42
421.906	3.43
422.267	3.33
422.629	3.31
422.99	3.3
423.351	3.29
423.712	3.33
424.073	3.48
424.434	3.58
424.795	3.34
425.155	3.25
425.516	3.33
425.877	3.34
426.238	3.39
426.598	3.39
426.959	3.46
427.32	3.37
427.68	3.52
428.041	3.57
428.401	3.44
428.761	3.58
429.122	3.48
429.482	3.47
429.842	3.44
430.202	3.55
430.563	3.66
430.923	3.52
431.283	3.53
431.643	3.62
432.003	3.61
432.363	3.68
432.722	3.64
433.082	3.51
433.442	3.63
433.802	3.54
434.161	3.64
434.521	3.58
434.881	3.45
435.24	3.51
435.6	3.56
435.959	3.6
436.319	3.6
436.678	3.62
437.037	3.51
437.396	3.59
437.756	3.48
438.115	3.6
438.474	3.6
438.833	3.45
439.192	3.49
439.551	3.65
439.91	3.59
440.269	3.5
440.628	3.44
440.987	3.55
441.345	3.56
441.704	3.55
442.063	3.37
442.421	3.6
442.78	3.51
443.138	3.59
443.497	3.59
443.855	3.68
444.214	3.38
444.572	3.72
444.93	3.59
445.288	3.61
445.647	3.42
446.005	3.69
446.363	3.57
446.721	3.55
447.079	3.54
447.437	3.58
447.795	3.61
448.153	3.51
448.51	3.62
448.868	3.46
449.226	3.72
449.584	3.59
449.941	3.7
450.299	3.59
450.656	3.65
451.014	3.63
451.371	3.83
451.729	3.72
452.086	3.59
452.443	3.75
452.801	3.72
453.158	3.9
453.515	3.68
453.872	3.7
454.229	3.51
454.586	3.47
454.943	3.77
455.3	3.67
455.657	3.62
456.014	3.71
456.371	3.85
456.727	3.69
457.084	3.82
457.441	3.82
457.797	3.66
458.154	3.72
458.51	3.57
458.867	3.64
459.223	3.58
459.58	3.69
459.936	3.69
460.292	3.62
460.648	3.59
461.005	3.61
461.361	3.65
461.717	3.56
462.073	3.65
462.429	3.85
462.785	3.79
463.141	3.77
463.496	3.7
463.852	3.84
464.208	3.8
464.564	3.64
464.919	3.68
465.275	3.68
465.631	4.04
465.986	3.76
466.342	3.65
466.697	3.78
467.052	3.77
467.408	3.94
467.763	3.82
468.118	3.63
468.473	3.87
468.829	3.66
469.184	3.9
469.539	3.68
469.894	3.88
470.249	3.75
470.603	3.88
470.958	3.98
471.313	3.97
471.668	3.87
472.023	3.89
472.377	3.82
472.732	3.94
473.086	3.82
473.441	3.96
473.795	4.02
474.15	3.76
474.504	3.76
474.859	3.62
475.213	3.84
475.567	3.72
475.921	3.88
476.275	3.85
476.63	3.81
476.984	3.79
477.338	3.96
477.692	3.87
478.045	3.94
478.399	3.86
478.753	3.73
479.107	3.88
479.461	3.9
479.814	3.88
480.168	3.86
480.521	3.89
480.875	3.94
481.228	3.75
481.582	3.83
481.935	3.98
482.289	3.85
482.642	3.93
482.995	3.76
483.348	3.8
483.701	3.88
484.055	3.81
484.408	3.77
484.761	3.68
485.114	3.57
485.466	3.55
485.819	3.56
486.172	3.67
486.525	3.7
486.878	3.79
487.23	3.81
487.583	3.79
487.936	3.79
488.288	3.76
488.641	3.64
488.993	3.67
489.345	3.63
489.698	3.65
490.05	3.69
490.402	3.78
490.754	3.8
491.107	3.79
491.459	3.89
491.811	3.86
492.163	3.85
492.515	3.71
492.866	3.68
493.218	3.66
493.57	3.75
493.922	3.79
494.274	3.93
494.625	3.92
494.977	3.88
495.328	3.92
495.68	3.96
496.031	3.94
496.383	3.83
496.734	3.88
497.086	4.04
497.437	4.11
497.788	4.08
498.139	3.89
498.49	3.89
498.842	4.04
499.193	3.94
499.544	3.97
499.894	3.96
500.245	4.01
500.596	4
500.947	3.9
501.298	4.12
501.648	3.96
501.999	4.08
502.35	3.9
502.7	4.16
503.051	4.02
503.401	4.07
503.752	3.99
504.102	3.94
504.452	4.02
504.803	3.86
505.153	3.91
505.503	3.97
505.853	4.12
506.203	4
506.553	4.1
506.903	4.01
507.253	4.08
507.603	4.16
507.953	4.13
508.303	4.14
508.652	3.96
509.002	4.09
509.352	4.07
509.701	3.88
510.051	4.05
510.4	4.07
510.75	3.86
511.099	3.94
511.449	4.1
511.798	3.97
512.147	3.95
512.496	4.13
512.846	4.08
513.195	4.13
513.544	4.23
513.893	4.07
514.242	4.1
514.591	4.01
514.939	4.08
515.288	4.17
515.637	4.15
515.986	4.09
516.334	4.15
516.683	4.08
517.032	4.07
517.38	4.1
517.729	4.12
518.077	4.1
518.426	4.16
518.774	4.17
519.122	4.14
519.47	4.04
519.819	4.07
520.167	3.98
520.515	4.09
520.863	4.1
521.211	4.08
521.559	4.04
521.907	4.16
522.255	4.09
522.602	4.06
522.95	4.16
523.298	4.13
523.645	4.09
523.993	4.23
524.341	4.25
524.688	4.09
525.036	4.05
525.383	4.15
525.73	4.05
526.078	4.2
526.425	4.09
526.772	4.01
527.119	4.13
527.466	4.05
527.814	4.1
528.161	4.16
528.508	4.18
528.854	4.15
529.201	4
529.548	4
529.895	3.89
530.242	3.91
530.588	3.95
530.935	4
531.282	4.04
531.628	4.09
531.975	4.11
532.321	4.15
532.667	4.15
533.014	4.16
533.36	4.14
533.706	4.18
534.052	4.2
534.399	4.08
534.745	3.95
535.091	4.03
535.437	4.08
535.783	4.12
536.129	4.23
536.474	4.22
536.82	4.23
537.166	4.13
537.512	4.17
537.857	4.2
538.203	4.1
538.549	4.09
538.894	4.17
539.239	4.2
539.585	4.32
539.93	4.3
540.276	4.38
540.621	4.35
540.966	4.32
541.311	4.34
541.656	4.2
542.001	4.16
542.346	4.17
542.691	4
543.036	4.04
543.381	4.03
543.726	4.16
544.071	4.19
544.415	4.18
544.76	4.26
545.105	4.2
545.449	4.23
545.794	4.29
546.138	4.24
546.483	4.21
546.827	4.33
547.171	4.35
547.516	4.3
547.86	4.22
548.204	4.28
548.548	4.26
548.892	4.27
549.236	4.24
549.58	4.37
549.924	4.48
550.268	4.48
550.612	4.34
550.956	4.47
551.3	4.57
551.643	4.42
551.987	4.56
552.33	4.58
552.674	4.51
553.017	4.52
553.361	4.43
553.704	4.48
554.048	4.47
554.391	4.39
554.734	4.32
555.077	4.33
555.42	4.47
555.764	4.46
556.107	4.44
556.45	4.47
556.793	4.55
557.135	4.56
557.478	4.39
557.821	4.48
558.164	4.48
558.507	4.43
558.849	4.6
559.192	4.5
559.534	4.5
559.877	4.22
560.219	4.5
560.562	4.5
560.904	4.85
561.246	4.58
561.589	4.64
561.931	4.52
562.273	4.6
562.615	4.43
562.957	4.49
563.299	4.47
563.641	4.55
563.983	4.47
564.325	4.52
564.667	4.49
565.008	4.54
565.35	4.44
565.692	4.48
566.033	4.45
566.375	4.44
566.716	4.46
567.058	4.56
567.399	4.49
567.741	4.48
568.082	4.54
568.423	4.5
568.764	4.49
569.105	4.59
569.447	4.55
569.788	4.57
570.129	4.43
570.47	4.57
570.811	4.51
571.151	4.5
571.492	4.59
571.833	4.54
572.174	4.54
572.514	4.71
572.855	4.63
573.195	4.3
573.536	4.65
573.876	4.55
574.217	4.5
574.557	4.45
574.898	4.52
575.238	4.68
575.578	4.63
575.918	4.68
576.258	4.73
576.598	4.39
576.938	4.38
577.278	4.55
577.618	4.52
577.958	4.45
578.298	4.58
578.638	4.61
578.977	4.61
579.317	4.73
579.657	4.57
579.996	4.62
580.336	4.77
580.675	4.66
581.014	4.97
581.354	4.63
581.693	4.67
582.032	4.94
582.372	4.8
582.711	4.85
583.05	4.63
583.389	4.7
583.728	4.72
584.067	4.57
584.406	4.77
584.745	4.82
585.083	4.5
585.422	4.75
585.761	4.95
586.1	4.75
586.438	4.65
586.777	4.65
587.115	4.78
587.454	4.43
587.792	4.56
588.13	4.69
588.469	4.58
588.807	4.83
589.145	4.78
589.483	4.41
589.821	4.92
590.159	4.97
590.497	4.79
590.835	5.02
591.173	4.81
591.511	5.13
591.849	4.92
592.187	4.57
592.524	4.88
592.862	4.72
593.2	4.67
593.537	4.68
593.875	4.54
594.212	5.06
594.55	4.87
594.887	4.77
595.224	4.87
595.561	4.73
595.899	4.68
596.236	4.83
596.573	4.59
596.91	4.74
597.247	4.92
597.584	4.91
597.921	4.62
598.258	4.72
598.594	4.69
598.931	4.58
599.268	4.5
599.604	4.87
599.941	4.9
600.277	4.89
600.614	4.69
600.95	4.87
601.287	4.63
601.623	4.49
601.959	5.13
602.296	4.96
602.632	4.66
602.968	4.74
603.304	4.74
603.64	4.79
603.976	4.57
604.312	4.75
604.648	4.81
604.984	4.89
605.319	4.81
605.655	4.71
605.991	4.76
606.326	4.69
606.662	4.67
606.998	4.92
607.333	4.83
607.668	4.73
608.004	4.71
608.339	4.79
608.674	4.61
609.01	5.31
609.345	4.99
609.68	4.71
610.015	4.95
610.35	4.87
610.685	4.65
611.02	4.66
611.355	4.59
611.689	4.87
612.024	4.94
612.359	4.96
612.694	4.93
613.028	4.82
613.363	4.86
613.697	5.1
614.032	5.01
614.366	4.75
614.7	4.86
615.035	4.86
615.369	4.79
615.703	4.99
616.037	4.77
616.371	4.77
616.705	5.15
617.039	5.03
617.373	4.96
617.707	5.42
618.041	4.78
618.375	4.54
618.709	5.1
619.042	5.17
619.376	5.16
619.71	5.15
620.043	5.15
620.377	4.76
620.71	4.78
621.043	5.28
621.377	4.79
621.71	5.2
622.043	5.07
622.376	5.09
622.709	5.5
623.043	4.77
623.376	4.93
623.709	5.25
624.041	5.01
624.374	4.8
624.707	5.01
625.04	4.76
625.373	5.3
625.705	4.92
626.038	5.06
626.37	5
626.703	4.9
627.035	4.95
627.368	5.31
627.7	5.18
628.032	5.09
628.365	5.06
628.697	5.02
629.029	4.96
629.361	5.26
629.693	4.82
630.025	5.28
630.357	5.13
630.689	5.12
631.021	5.26
631.353	4.95
631.684	4.98
632.016	4.89
632.348	4.74
632.679	5.09
633.011	5.08
633.342	5.21
633.674	4.93
634.005	5.1
634.336	5.37
634.668	5.15
634.999	4.81
635.33	5.35
635.661	4.98
635.992	5.38
636.323	5.21
636.654	5.16
636.985	5.18
637.316	5.34
637.647	4.97
637.977	5.08
638.308	5.45
638.639	5.2
638.969	4.93
639.3	5.3
639.63	5.17
639.961	5.22
640.291	4.91
640.622	5.1
640.952	5.32
641.282	4.79
641.612	4.71
641.943	4.92
642.273	5.27
642.603	5.69
642.933	5.38
643.263	5.24
643.592	5.29
643.922	5.56
644.252	5.07
644.582	5.5
644.911	4.98
645.241	5.07
645.571	5.01
645.9	5.49
646.23	5.69
646.559	4.82
646.888	5.62
647.218	5.33
647.547	5.24
647.876	4.78
648.205	5.01
648.534	5.25
648.863	5.31
649.192	4.92
649.521	5
649.85	5.48
650.179	4.9
650.508	4.96
650.837	5.22
651.165	5.25
651.494	5.36
651.822	5.32
652.151	4.65
652.479	5.5
652.808	5.21
653.136	4.96
653.465	4.97
653.793	5.18
654.121	5.11
654.449	5.29
654.777	5.06
655.105	5.02
655.433	5.38
655.761	5.28
656.089	5.28
656.417	5.84
656.745	5.87
657.073	5.6
657.4	5.7
657.728	5.17
658.056	5.66
658.383	5.22
658.711	5.31
659.038	5.8
659.365	5.59
659.693	5.41
660.02	4.98
660.347	5.3
660.674	5.13
661.001	5.19
661.329	5.05
661.656	5.14
661.982	5.24
662.309	5.34
662.636	5.16
662.963	5.23
663.29	5.5
663.616	4.96
663.943	5.36
664.27	5.19
664.596	4.96
664.923	5.46
665.249	5.38
665.576	5.27
665.902	4.76
666.228	5.45
666.554	5.9
666.881	5.5
667.207	5.37
667.533	5.06
667.859	4.99
668.185	5.53
668.511	6.01
668.837	5.58
669.162	5.29
669.488	4.43
669.814	5.58
670.139	4.87
670.465	5.71
670.791	5.02
671.116	5.18
671.442	4.51
671.767	5.32
672.092	5.75
672.418	4.98
672.743	4.79
673.068	5.09
673.393	5.73
673.718	4.48
674.043	5.64
674.368	5.49
674.693	5.44
675.018	5.68
675.343	5.64
675.667	5.58
675.992	5.52
676.317	4.58
676.641	6.23
676.966	5.7
677.29	5.04
677.615	5.47
677.939	5.75
678.264	5.52
678.588	6.08
678.912	5.89
679.236	5.47
679.56	4.7
679.885	4.72
680.209	5.99
680.532	6.28
680.856	5.79
681.18	5.99
681.504	5.34
681.828	5.33
682.152	5.62
682.475	5.49
682.799	5.67
683.122	5.38
683.446	5.05
683.769	5.82
684.093	6.06
684.416	4.94
684.739	5.23
685.062	5.85
685.386	5.62
685.709	5.66
686.032	5.31
686.355	5.12
686.678	5.61
687.001	5.12
687.324	5.39
687.646	6.09
687.969	5.72
688.292	5.15
688.614	6.37
688.937	5.85
689.26	5.98
689.582	5.88
689.904	5.68
690.227	5.55
690.549	5.84
690.871	5.52
691.194	5.3
691.516	5.01
691.838	5.61
692.16	5.49
692.482	5.44
692.804	5.71
693.126	5.68
693.448	5.46
693.769	5.46
694.091	5.2
694.413	5.79
694.735	5.37
695.056	5.51
695.378	5.41
695.699	5.62
696.021	6.03
696.342	5.57
696.663	5.49
696.984	5.18
697.306	5.03
697.627	5.73
697.948	6.02
698.269	5.4
698.59	5.2
698.911	5.87
699.232	5.88
699.553	6.1
699.873	5.58
700.194	5.69
700.515	5.6
700.835	5.45
701.156	5.78
701.477	5.33
701.797	5.51
702.117	5.74
702.438	5.29
702.758	5.25
703.078	6.05
703.398	5.11
703.719	5.18
704.039	6.1
704.359	5.66
704.679	5.26
704.999	6.22
705.319	4.66
705.638	5.45
705.958	5.05
706.278	5.53
706.597	5.79
706.917	5.69
707.237	5.53
707.556	6.04
707.876	5.86
708.195	5.9
708.514	5.13
708.834	6.27
709.153	6.02
709.472	6.58
709.791	4.82
710.11	5.27
710.429	5.53
710.748	6.39
711.067	6.6
711.386	5.91
711.705	6.51
712.023	6.36
712.342	6.06
712.661	6.95
712.979	5.66
713.298	6.71
713.616	6.18
713.935	6.22
714.253	5.34
714.572	5.2
714.89	5.68
715.208	5.64
715.526	5.94
715.844	6.09
716.162	6.32
716.48	5.8
716.798	6.49
717.116	5.08
717.434	5.76
717.752	5.93
718.069	6.14
718.387	6.49
718.705	5.73
719.022	5.62
719.34	5.56
719.657	6.29
719.975	6.17
720.292	5.49
720.609	5.36
720.927	6.04
721.244	6.76
721.561	6.03
721.878	6.32
722.195	6.07
722.512	6.44
722.829	5.91
723.146	5.93
723.463	5.3
723.779	4.58
724.096	5.3
724.413	6.1
724.729	5.88
725.046	5.82
725.362	5.81
725.679	5.98
725.995	6.44
726.311	5.91
726.628	5.79
726.944	6.41
727.26	7.2
727.576	6.21
727.892	6.14
728.208	6.1
728.524	5.86
728.84	5.69
729.156	4.58
729.472	4.72
729.787	6.22
730.103	4.98
730.419	4.62
730.734	5.38
731.05	6.14
731.365	6.67
731.681	7.46
731.996	6.78
732.311	4.72
732.626	6.21
732.942	6.98
733.257	5.91
733.572	6.79
733.887	7.28
734.202	5.5
734.517	6.23
734.832	6.22
735.146	6.8
735.461	5.16
735.776	7.12
736.091	7.68
736.405	6.08
736.72	4.75
737.034	6.04
737.349	6.51
737.663	6.48
737.977	7.17
738.292	4.81
738.606	4.83
738.92	6.86
739.234	6.55
739.548	5.41
739.862	5.81
740.176	5.92
740.49	5.58
740.804	6.01
741.117	6.73
741.431	5.09
741.745	6.04
742.058	6.49
742.372	5.73
742.685	6.54
742.999	5.32
743.312	6.28
743.626	7.02
743.939	4.1
744.252	6.4
744.565	7.04
744.878	6.1
745.191	5.95
745.505	6.04
745.817	7.13
746.13	6.17
746.443	5.95
746.756	4.84
747.069	7.43
747.381	6.82
747.694	7.06
748.007	5.74
748.319	7.19
748.632	6.55
748.944	5.61
749.256	6.89
749.569	6.92
749.881	5.42
750.193	7.54
750.505	6.95
750.817	6.21
751.129	4.97
751.441	7.82
751.753	7.76
752.065	6.51
752.377	7.62
752.689	3.86
753	5.84
753.312	7.72
753.624	5.29
753.935	4.62
754.247	5.91
754.558	7.08
754.869	8.35
755.181	5.47
755.492	6.1
755.803	8.18
756.114	4.87
756.425	5.09
756.736	6.44
757.047	8.51
757.358	7.26
757.669	6.86
757.98	6.46
758.291	5.12
758.601	3.94
758.912	4.42
759.223	6.37
759.533	6.69
759.844	5.71
760.154	6.62
760.464	7.94
760.775	6.54
761.085	5.94
761.395	6.75
761.705	5.64
762.016	5.85
762.326	8.58
762.636	7.78
762.945	6.86
763.255	6.52
763.565	7.58
763.875	5.83
764.185	9.14
764.494	6.25
764.804	5.67
765.113	6.79
765.423	6.98
765.732	5.71
766.042	7.28
766.351	6.3
766.66	6.28
766.97	8.27
767.279	4.33
767.588	5.82
767.897	5.93
768.206	7.25
768.515	6.64
768.824	7.17
769.133	4.79
769.441	3.39
769.75	4.37
770.059	6.99
770.367	7.82
770.676	6.36
770.984	6.74
771.293	7.23
771.601	3.82
771.91	5.84
772.218	5.07
772.526	2.67
772.834	4.56
773.142	6.23
773.45	8.35
773.758	8.66
774.066	6.64
774.374	6.69
774.682	5.06
774.99	6.02
775.298	7.48
775.605	6.62
775.913	4.73
776.22	6.4
776.528	4.42
776.835	9.32
777.143	10.1
777.45	2.37
777.757	6.83
778.065	5.36
778.372	3.65
778.679	8.5
778.986	10.25
779.293	5.32
779.6	5.96
779.907	10.01
780.214	4.08
780.52	5.79
780.827	3.95
781.134	7.15
781.44	7.55
781.747	8.4
782.053	5.88
782.36	4.8
782.666	2.8
782.973	2.78
783.279	8.56
783.585	12.69
783.891	6.9
784.197	7.52
784.503	5.93
784.809	9.83
785.115	6.66
785.421	10.6
785.727	6
786.033	8.71
786.339	11.02
786.644	1.68
786.95	1.87
787.255	4.4
787.561	4.49
787.866	5.55
788.172	6.64
788.477	6.13
788.782	2.85
789.088	0.67
789.393	9.95
789.698	3.73
790.003	6.6
790.308	3.46
790.613	6.47
790.918	6.32
791.223	7.23
791.527	8.92
791.832	6.51
792.137	6.25
792.441	6.84
792.746	7.56
793.05	5.26
793.355	6.41
793.659	8.01
793.963	6.69
794.268	9.64
794.572	6.42
794.876	9.06
795.18	8.95
795.484	7.71
795.788	5.38
796.092	3.02
796.396	2.95
796.7	4.65
797.004	5.09
797.307	6.46
797.611	8.84
797.915	6.36
798.218	6.46
798.522	0.78
798.825	7.24
799.128	9.84
799.432	2.53
799.735	6.35
800.038	10.37
800.341	6.77
800.644	4.21
800.947	7.91
801.25	5.13
801.553	10.54
801.856	9.01
802.159	1.5
802.462	9.51
802.764	6.6
803.067	6.87
803.37	8.14
803.672	5.88
803.975	6.17
804.277	3.33
804.579	7.79
804.882	10.23
805.184	6.12
805.486	11.98
805.788	8.39
806.09	8.84
806.392	7.2
806.694	4.42
806.996	12.67
807.298	2.13
807.6	12.67
807.902	6.17
808.203	4.16
808.505	5.49
808.807	8.53
809.108	11.88
809.409	5.77
809.711	1.57
810.012	3.38
810.313	3.16
810.615	7.54
810.916	3.31
811.217	6.44
811.518	5.26
811.819	10.18
812.12	9.42
812.421	1.3
812.722	1.11
813.023	12.16
813.323	2.38
813.624	8.66
813.925	10.85
814.225	8.31
814.526	-5.1
814.826	5.19
815.126	5.59
815.427	10.16
815.727	6.52
816.027	10.87
816.327	6.4
816.627	11.63
816.927	8.12
817.227	0.01
817.527	3.24
817.827	5.17
818.127	7.72
818.427	2.94
818.727	0.98
819.026	6.68
819.326	7.02
819.625	0.01
819.925	7.47
820.224	11.96
820.524	5.52
820.823	9.44
821.122	1.9
821.421	5.17
821.72	8.19
822.019	2.11
822.318	4.58
822.617	8.42
822.916	3.74
823.215	5.5
823.514	8.75
823.813	5.41
824.111	7.72
824.41	7.78
824.709	7.38
825.007	7.82
825.306	8.28
825.604	8.33
825.902	8.7
826.201	9.02
826.499	8.57
826.797	9.41
827.095	9.7
827.393	9.99
827.691	8.88
827.989	8.7
828.287	7.88
828.585	7.43
828.882	5.02
829.18	8.02
829.478	9.52
829.775	7.7
830.073	10.3
830.37	9.17
830.668	7.86
830.965	10.17
831.263	4.43
831.56	10.77
831.857	8.02
832.154	6.95
832.451	10.71
832.748	9.09
833.045	6.27
833.342	8.88
833.639	11.94
833.936	6.2
834.232	7.73
834.529	4.69
834.826	11.02
835.122	0.74
835.419	12.28
835.715	8.75
836.012	7.65
836.308	10.64
836.604	6.53
836.901	5.04
837.197	5.52
837.493	8.2
837.789	7.52
838.085	2.73
838.381	8.5
838.677	6.2
838.972	4.15
839.268	6.38
839.564	5.75
839.86	7.87
840.155	11.92
840.451	12.06
840.746	10.8
841.042	4.79
841.337	3.77
841.632	5.79
841.928	5.69
842.223	7.37
842.518	10.2
842.813	4.92
843.108	7.24
843.403	5.66
843.698	9.9
843.993	15.06
844.287	5.72
844.582	13.47
844.877	17.58
845.171	7.71
845.466	4.99
845.761	-4.45
846.055	14.04
846.349	6.15
846.644	10.61
846.938	9.37
847.232	0.53
847.526	6.97
847.82	8.16
848.114	10.32
848.408	1.19
848.702	9.68
848.996	17.14
849.29	19.06
849.584	5
849.877	19.41
850.171	8.77
850.465	-0.69
850.758	-14.96
851.052	2.64
851.345	1.93
851.638	18.66
851.932	11.03
852.225	8.76
852.518	9.59
852.811	-11.87
853.104	4.58
853.397	4.24
853.69	16.91
853.983	-5.02
854.276	23.95
854.569	13.71
854.861	-16.04
855.154	19.52
855.447	-14.25
855.739	-15.15
856.032	5.08
856.324	10.05
856.616	24.44
856.909	-12.07
857.201	-22.49
857.493	-7.56
857.785	9.25
858.077	-10.09
858.369	15.42
858.661	3.45
858.953	12.46
859.245	-5.86
859.537	-23.36
859.829	8.36
860.12	14.43
860.412	12.4
860.703	7.44
860.995	11.64
861.286	-23.26
861.578	15.96
861.869	13.58
862.16	-4.41
862.452	-14.35
862.743	-26.88
863.034	11.74
863.325	30.11
863.616	16.74
863.907	13.3
864.198	4.39
864.488	1.26
864.779	14.6
865.07	-6
865.36	21.4
865.651	11.72
865.941	-5.62
866.232	20.79
866.522	-36.85
866.813	20.22
867.103	-10
867.393	21.35
867.683	15.52
867.973	11.85
868.263	-4.96
868.553	6.69
868.843	-22.48
869.133	-10.96
869.423	36.12
869.713	-37.7
870.002	-15.09
870.292	-9.64
870.582	-2.77
870.871	2.22
871.161	-16.47
871.45	-0.06
871.739	36.53
872.029	15.81
872.318	-1.9
872.607	22.74
872.896	4.52
873.185	11.1
873.474	-10.29
873.763	34.69
874.052	2.98
874.341	4.06
874.63	-3.96
874.918	18.25
875.207	-14.86
875.496	20.54
875.784	-14.68
876.073	-28.61
876.361	8.84
876.649	-10.26
876.938	-6.81
877.226	21.58
877.514	36.07
877.802	-6.06
878.09	5.38
878.378	7.82
878.666	1.79
878.954	3.64
879.242	8
879.53	14.49
879.817	-19.03
880.105	34.87
880.392	21.31
880.68	8.95
880.967	4.99
881.255	32.31
881.542	-15.11
881.83	21.25
882.117	-3.43
882.404	-19.62
882.691	29.41
882.978	18.84
883.265	-1.13
883.552	8.07
883.839	4.9
884.126	11.87
884.413	13.86
884.699	9.84
884.986	18.37
885.273	13.99
885.559	13.99
885.846	13.99
