Data from 0202_crown_Reflection__1__331.txt Node

Date: Fri Dec 15 19:41:02 CST 2023
User: ToomeyLab
Spectrometer: FLMS14357
Trigger mode: 0
Integration Time (sec): 1.000000E-2
Scans to average: 100
Electric dark correction enabled: true
Nonlinearity correction enabled: false
Boxcar width: 0
XAxis mode: Wavelengths
Number of Pixels in Spectrum: 2048
>>>>>Begin Spectral Data<<<<<
189.047	-105.33
189.435	-105.33
189.823	-105.33
190.211	-87.16
190.599	50.52
190.987	36.46
191.375	190.79
191.763	978.13
192.151	134.73
192.538	130.46
192.926	20.48
193.314	176.29
193.702	-370.72
194.089	78.29
194.477	569.35
194.864	-52.78
195.252	231.19
195.639	209.3
196.027	139.1
196.414	153.63
196.801	55.75
197.189	151.58
197.576	-484.09
197.963	341.4
198.351	-66.37
198.738	1.49
199.125	69.49
199.512	-42.09
199.899	-66.04
200.286	28.89
200.673	10.5
201.06	3.35
201.447	0.77
201.833	7.52
202.22	20.38
202.607	62.32
202.994	22.99
203.38	19.14
203.767	103.88
204.154	10.69
204.54	13.9
204.927	-9.15
205.313	-74.88
205.699	20.25
206.086	56.78
206.472	-17.53
206.858	9.1
207.245	-53.07
207.631	20.94
208.017	6.53
208.403	-1.71
208.789	26.98
209.175	31.25
209.561	-58.91
209.947	-66.92
210.333	-49.26
210.719	25.4
211.105	71.1
211.491	-51.32
211.876	-35.29
212.262	-6.39
212.648	-11.2
213.034	10.87
213.419	17.56
213.805	36.17
214.19	-62.15
214.576	-26.72
214.961	-39.5
215.346	-94.98
215.732	13.76
216.117	-25.6
216.502	-33.41
216.888	4.23
217.273	6.08
217.658	24.52
218.043	20.88
218.428	-35.04
218.813	-83.43
219.198	-75.92
219.583	-24.45
219.968	7.18
220.353	-32.96
220.738	7.12
221.122	-6.57
221.507	-53.06
221.892	-56.75
222.276	-26.44
222.661	-18.64
223.046	16.55
223.43	-2.26
223.815	-9.38
224.199	-4.71
224.583	-0.48
224.968	-10.02
225.352	2.95
225.736	-0.83
226.121	-16.32
226.505	1.7
226.889	14.03
227.273	-2.78
227.657	5.35
228.041	9.38
228.425	-1.41
228.809	7.54
229.193	3.93
229.577	3.54
229.961	5.22
230.344	6.02
230.728	5.7
231.112	6.99
231.495	6.43
231.879	5.13
232.263	5.44
232.646	7.02
233.03	3.64
233.413	5.73
233.797	5.16
234.18	6.61
234.563	7.13
234.946	3.73
235.33	6.12
235.713	5.79
236.096	6.03
236.479	6.95
236.862	4.63
237.245	6.35
237.628	4.86
238.011	5.56
238.394	6.36
238.777	6.15
239.16	5.29
239.543	3.69
239.925	6.64
240.308	6.16
240.691	8.04
241.073	7.02
241.456	6.25
241.838	4.7
242.221	4.69
242.603	6.28
242.986	6.64
243.368	6.89
243.75	6.51
244.133	6.02
244.515	5.97
244.897	6.21
245.279	6.26
245.661	5.51
246.043	4.88
246.425	4.84
246.807	6.81
247.189	6.59
247.571	5.59
247.953	6.17
248.335	5.77
248.717	5.99
249.098	5.67
249.48	6.15
249.862	6.17
250.243	6.03
250.625	5.78
251.006	6.23
251.388	4.83
251.769	5.66
252.151	5.89
252.532	6.01
252.913	4.7
253.295	5.07
253.676	5.06
254.057	5.38
254.438	5.68
254.819	5.2
255.2	5.03
255.581	5.95
255.962	4.43
256.343	5.53
256.724	4.46
257.105	6.14
257.486	5.68
257.867	5.54
258.247	4.46
258.628	5.38
259.009	3.88
259.389	4.83
259.77	4.17
260.15	4.64
260.531	4.42
260.911	5.92
261.292	5.21
261.672	5.63
262.052	5.42
262.432	5.68
262.813	5.71
263.193	5.32
263.573	4.45
263.953	4.58
264.333	5.73
264.713	5.68
265.093	4.14
265.473	5.34
265.853	4.17
266.233	6.1
266.612	3.57
266.992	4.11
267.372	5.64
267.752	4.55
268.131	4.71
268.511	6.27
268.89	5.53
269.27	4.71
269.649	4.76
270.029	4.87
270.408	5.43
270.787	5.43
271.167	5.59
271.546	6.45
271.925	4.48
272.304	5.08
272.683	5.43
273.062	4.4
273.441	5.42
273.82	4.88
274.199	4.68
274.578	5.53
274.957	5.21
275.336	5.3
275.715	4.89
276.093	4.2
276.472	5.2
276.851	4.85
277.229	4.21
277.608	4.68
277.986	5
278.365	5.14
278.743	4.56
279.122	4.92
279.5	5.62
279.878	5.04
280.257	4.71
280.635	4.13
281.013	4.28
281.391	5.57
281.769	5.09
282.147	4.9
282.525	5.49
282.903	4.7
283.281	4.88
283.659	5.22
284.037	5.25
284.415	5.16
284.792	5.01
285.17	4.55
285.548	4.11
285.925	4.69
286.303	4.72
286.68	4.6
287.058	4.9
287.435	4.58
287.813	4.68
288.19	5.01
288.567	4.64
288.945	5.14
289.322	4.82
289.699	4.72
290.076	4.81
290.453	4.72
290.83	4.43
291.207	4.6
291.584	4.49
291.961	5.03
292.338	4.54
292.715	5.12
293.092	4.85
293.469	4.82
293.845	4.91
294.222	4.17
294.599	4.77
294.975	3.93
295.352	5.28
295.728	3.96
296.105	4.5
296.481	5.05
296.858	5.03
297.234	4.83
297.61	4.54
297.986	4.46
298.363	4.95
298.739	4.71
299.115	4.16
299.491	4.55
299.867	4.54
300.243	4.52
300.619	3.95
300.995	4.51
301.371	4.81
301.746	4.07
302.122	4.8
302.498	4.07
302.874	4.22
303.249	4.67
303.625	4.72
304	4.65
304.376	4.67
304.751	3.4
305.127	5.61
305.502	3.68
305.878	4.13
306.253	4.59
306.628	5.23
307.003	4.6
307.378	4.93
307.754	4.43
308.129	3.81
308.504	4.62
308.879	3.81
309.254	4.94
309.629	4.67
310.003	4.62
310.378	4.7
310.753	4.59
311.128	4.66
311.502	4.34
311.877	5.31
312.252	4.16
312.626	4.42
313.001	4.37
313.375	4.69
313.75	4.44
314.124	4.72
314.498	4.8
314.873	4.57
315.247	4.1
315.621	4.59
315.995	3.61
316.369	4.5
316.743	4.46
317.117	4.81
317.491	4.03
317.865	4.53
318.239	4.79
318.613	4.66
318.987	4.85
319.361	4.39
319.734	4.94
320.108	4.64
320.482	4.14
320.855	4.58
321.229	3.75
321.602	4.75
321.976	4.83
322.349	3.83
322.723	4.78
323.096	5.54
323.469	3.62
323.843	4.77
324.216	4.81
324.589	4.02
324.962	4.55
325.335	4.44
325.708	4.62
326.081	5.01
326.454	4.86
326.827	4.71
327.2	4.8
327.573	5.14
327.945	4.18
328.318	4.28
328.691	3.56
329.063	4.27
329.436	4.27
329.809	5.33
330.181	4.26
330.553	4.84
330.926	4.48
331.298	4.32
331.671	4.4
332.043	4.7
332.415	3.82
332.787	4.44
333.159	5.24
333.532	4.76
333.904	4.96
334.276	4.63
334.648	5.22
335.02	5.08
335.391	4.26
335.763	4.46
336.135	4.97
336.507	4.96
336.879	4.46
337.25	4.7
337.622	4.53
337.993	4.27
338.365	4.39
338.736	4.8
339.108	5.08
339.479	4.44
339.851	4.15
340.222	4.46
340.593	5.02
340.964	4.66
341.336	6.03
341.707	4.03
342.078	4.69
342.449	4.92
342.82	4.33
343.191	4.99
343.562	4.97
343.933	5
344.303	4.89
344.674	4.63
345.045	4.52
345.416	5.11
345.786	4.7
346.157	4.68
346.527	4.23
346.898	4.64
347.268	5.19
347.639	4.87
348.009	4.8
348.38	4.99
348.75	4.86
349.12	4.85
349.49	5.27
349.861	4.49
350.231	4.44
350.601	4.89
350.971	5.15
351.341	5.1
351.711	4.46
352.081	4.73
352.45	4.93
352.82	5.67
353.19	4.79
353.56	4.67
353.929	5.16
354.299	4.9
354.669	4.84
355.038	5.38
355.408	4.94
355.777	5
356.147	5.05
356.516	5.08
356.885	4.87
357.254	4.49
357.624	5.58
357.993	5.39
358.362	4.79
358.731	4.51
359.1	5.16
359.469	5.12
359.838	4.92
360.207	4.93
360.576	4.87
360.945	4.7
361.314	5.14
361.682	4.63
362.051	4.78
362.42	5.34
362.788	4.83
363.157	5.01
363.525	5.53
363.894	5.23
364.262	5.17
364.631	5.08
364.999	4.77
365.367	4.73
365.735	5.79
366.104	5.01
366.472	5.35
366.84	4.88
367.208	4.99
367.576	5.33
367.944	5.18
368.312	5.03
368.68	4.69
369.048	5.17
369.416	4.8
369.783	4.62
370.151	5.43
370.519	5.4
370.886	5.38
371.254	5.11
371.621	5.45
371.989	5.08
372.356	4.75
372.724	5.46
373.091	5.17
373.458	4.84
373.826	4.82
374.193	5.23
374.56	5.15
374.927	5.37
375.294	5.06
375.661	5.04
376.028	4.72
376.395	5.05
376.762	5.25
377.129	5.19
377.496	5.06
377.863	4.98
378.229	4.55
378.596	5.14
378.963	5.26
379.329	5.17
379.696	5.46
380.062	5.13
380.429	5.17
380.795	4.96
381.161	5.16
381.528	5.25
381.894	4.97
382.26	5.12
382.626	5.23
382.993	5
383.359	5.78
383.725	4.84
384.091	5.38
384.457	5.44
384.823	4.87
385.188	5.59
385.554	4.84
385.92	5.35
386.286	5.24
386.651	5.39
387.017	5.23
387.383	5.07
387.748	4.95
388.114	5.24
388.479	5.18
388.845	5.43
389.21	5.27
389.575	5.43
389.94	5.54
390.306	5.25
390.671	5.52
391.036	5.07
391.401	5.12
391.766	5.49
392.131	5.11
392.496	5.51
392.861	5.36
393.226	5.33
393.591	5.37
393.956	5.27
394.32	5.1
394.685	5.34
395.05	5.13
395.414	5.14
395.779	5.11
396.143	5.3
396.508	5.23
396.872	5.4
397.236	5.36
397.601	5.05
397.965	5.5
398.329	5.41
398.694	5.46
399.058	5.39
399.422	5.22
399.786	5.37
400.15	5.47
400.514	5.39
400.878	5.57
401.242	5.7
401.605	5.26
401.969	5.19
402.333	5.41
402.697	5.48
403.06	5.53
403.424	5.46
403.787	5.39
404.151	5.67
404.514	5.66
404.878	5.42
405.241	5.63
405.604	5.47
405.968	5.41
406.331	5.29
406.694	5.55
407.057	5.5
407.42	5.55
407.783	5.44
408.146	5.29
408.509	5.54
408.872	5.16
409.235	5.44
409.598	5.59
409.961	5.24
410.323	5.37
410.686	5.27
411.049	5.2
411.411	5.28
411.774	5.39
412.136	5.33
412.499	5.26
412.861	5.48
413.223	5.38
413.586	5.31
413.948	5.35
414.31	5.37
414.672	5.2
415.035	5.55
415.397	5.72
415.759	5.18
416.121	5.62
416.483	5.18
416.845	5.27
417.206	5.5
417.568	5.49
417.93	5.15
418.292	5.38
418.653	5.25
419.015	5.43
419.377	5.42
419.738	5.39
420.1	5.45
420.461	5.5
420.822	5.53
421.184	5.26
421.545	5.37
421.906	5.27
422.267	5.38
422.629	5.3
422.99	5.37
423.351	5.34
423.712	5.38
424.073	5.35
424.434	5.37
424.795	5.48
425.155	5.47
425.516	5.26
425.877	5.38
426.238	5.29
426.598	5.44
426.959	5.4
427.32	5.25
427.68	5.37
428.041	5.38
428.401	5.49
428.761	5.18
429.122	5.46
429.482	5.19
429.842	5.5
430.202	5.57
430.563	5.46
430.923	5.31
431.283	5.38
431.643	5.33
432.003	5.23
432.363	5.66
432.722	5.44
433.082	5.41
433.442	5.54
433.802	5.25
434.161	5.52
434.521	5.54
434.881	5.51
435.24	5.33
435.6	5.37
435.959	5.27
436.319	5.53
436.678	5.36
437.037	5.27
437.396	5.4
437.756	5.52
438.115	5.43
438.474	5.65
438.833	5.31
439.192	5.31
439.551	5.45
439.91	5.56
440.269	5.46
440.628	5.38
440.987	5.45
441.345	5.3
441.704	5.41
442.063	5.22
442.421	5.3
442.78	5.25
443.138	5.33
443.497	5.32
443.855	5.45
444.214	5.37
444.572	5.57
444.93	5.42
445.288	5.45
445.647	5.47
446.005	5.37
446.363	5.57
446.721	5.45
447.079	5.17
447.437	5.42
447.795	5.42
448.153	5.25
448.51	5.25
448.868	5.37
449.226	5.44
449.584	5.29
449.941	5.45
450.299	5.57
450.656	5.42
451.014	5.35
451.371	5.4
451.729	5.28
452.086	5.7
452.443	5.48
452.801	5.52
453.158	5.22
453.515	5.27
453.872	5.5
454.229	5.36
454.586	5.14
454.943	5.42
455.3	5.68
455.657	5.54
456.014	5.29
456.371	5.3
456.727	5.35
457.084	5.67
457.441	5.29
457.797	5.46
458.154	5.61
458.51	5.53
458.867	5.69
459.223	5.51
459.58	5.39
459.936	5.57
460.292	5.41
460.648	5.36
461.005	5.3
461.361	5.4
461.717	5.29
462.073	5.24
462.429	5.43
462.785	5.53
463.141	5.45
463.496	5.51
463.852	5.51
464.208	5.48
464.564	5.46
464.919	5.57
465.275	5.49
465.631	5.58
465.986	5.55
466.342	5.32
466.697	5.23
467.052	5.45
467.408	5.51
467.763	5.54
468.118	5.59
468.473	5.36
468.829	5.42
469.184	5.32
469.539	5.54
469.894	5.3
470.249	5.55
470.603	5.78
470.958	5.56
471.313	5.72
471.668	5.68
472.023	5.39
472.377	5.43
472.732	5.35
473.086	5.33
473.441	5.57
473.795	5.6
474.15	5.41
474.504	5.44
474.859	5.39
475.213	5.11
475.567	5.39
475.921	5.39
476.275	5.57
476.63	5.52
476.984	5.56
477.338	5.49
477.692	5.23
478.045	5.36
478.399	5.32
478.753	5.44
479.107	5.39
479.461	5.55
479.814	5.3
480.168	5.35
480.521	5.35
480.875	5.39
481.228	5.34
481.582	5.32
481.935	5.31
482.289	5.46
482.642	5.32
482.995	5.34
483.348	5.17
483.701	5.32
484.055	5.25
484.408	5.38
484.761	5.21
485.114	5.11
485.466	4.96
485.819	4.98
486.172	4.98
486.525	5.14
486.878	5.17
487.23	5.23
487.583	5.26
487.936	5.28
488.288	5.25
488.641	5.28
488.993	5.06
489.345	5.04
489.698	5.09
490.05	5.11
490.402	5.16
490.754	5.19
491.107	5.32
491.459	5.22
491.811	5.36
492.163	5.35
492.515	5.36
492.866	5.28
493.218	5.16
493.57	5.07
493.922	5.14
494.274	5.25
494.625	5.39
494.977	5.39
495.328	5.46
495.68	5.44
496.031	5.44
496.383	5.34
496.734	5.5
497.086	5.41
497.437	5.43
497.788	5.42
498.139	5.36
498.49	5.4
498.842	5.3
499.193	5.26
499.544	5.41
499.894	5.42
500.245	5.34
500.596	5.33
500.947	5.36
501.298	5.37
501.648	5.46
501.999	5.42
502.35	5.29
502.7	5.33
503.051	5.24
503.401	5.33
503.752	5.51
504.102	5.31
504.452	5.43
504.803	5.27
505.153	5.35
505.503	5.35
505.853	5.25
506.203	5.36
506.553	5.42
506.903	5.34
507.253	5.29
507.603	5.25
507.953	5.44
508.303	5.3
508.652	5.21
509.002	5.37
509.352	5.36
509.701	5.31
510.051	5.24
510.4	5.12
510.75	5.43
511.099	5.35
511.449	5.24
511.798	5.32
512.147	5.34
512.496	5.14
512.846	5.4
513.195	5.36
513.544	5.28
513.893	5.38
514.242	5.22
514.591	5.54
514.939	5.3
515.288	5.19
515.637	5.48
515.986	5.28
516.334	5.27
516.683	5.37
517.032	5.48
517.38	5.37
517.729	5.16
518.077	5.14
518.426	5.37
518.774	5.45
519.122	5.17
519.47	5.27
519.819	5.08
520.167	5.15
520.515	5.19
520.863	5.26
521.211	5.32
521.559	5.34
521.907	5.31
522.255	5.33
522.602	5.33
522.95	5.3
523.298	5.32
523.645	5.46
523.993	5.29
524.341	5.48
524.688	5.41
525.036	5.22
525.383	5.31
525.73	5.43
526.078	5.28
526.425	5.33
526.772	5.26
527.119	5.24
527.466	5.24
527.814	5.28
528.161	5.24
528.508	5.28
528.854	5.12
529.201	5.11
529.548	5.21
529.895	5.05
530.242	4.94
530.588	4.94
530.935	4.97
531.282	5.09
531.628	5.14
531.975	5.19
532.321	5.24
532.667	5.26
533.014	5.29
533.36	5.18
533.706	5.32
534.052	5.14
534.399	5.09
534.745	5.13
535.091	5.03
535.437	5.09
535.783	5.14
536.129	5.19
536.474	5.29
536.82	5.17
537.166	5.26
537.512	5.26
537.857	5.28
538.203	5.25
538.549	5.09
538.894	5.12
539.239	5.19
539.585	5.21
539.93	5.17
540.276	5.3
540.621	5.29
540.966	5.24
541.311	5.13
541.656	5.14
542.001	5.03
542.346	5.28
542.691	5.04
543.036	5.01
543.381	4.94
543.726	5.09
544.071	5.18
544.415	5.15
544.76	5.13
545.105	5.12
545.449	5.15
545.794	5.26
546.138	5.13
546.483	5.28
546.827	5.35
547.171	5.13
547.516	5.26
547.86	5.11
548.204	5.16
548.548	5.15
548.892	5.24
549.236	5.16
549.58	5.14
549.924	5.31
550.268	5.28
550.612	5.24
550.956	5.39
551.3	5.12
551.643	5.31
551.987	5.26
552.33	5.24
552.674	5.39
553.017	5.18
553.361	5.1
553.704	5.31
554.048	5.12
554.391	5.14
554.734	5.11
555.077	5.23
555.42	5.11
555.764	5.16
556.107	5.25
556.45	5.1
556.793	5.1
557.135	5.26
557.478	5.28
557.821	5.25
558.164	5.16
558.507	5.05
558.849	5.29
559.192	5.45
559.534	5.07
559.877	5.17
560.219	5.23
560.562	5.42
560.904	5.18
561.246	5.19
561.589	5.2
561.931	5.26
562.273	5.2
562.615	5.36
562.957	5.24
563.299	5.06
563.641	5.17
563.983	5.22
564.325	5.2
564.667	5.1
565.008	5.16
565.35	5.08
565.692	4.87
566.033	5.14
566.375	5.29
566.716	5.31
567.058	5.14
567.399	5.23
567.741	4.81
568.082	5.14
568.423	5.03
568.764	5.04
569.105	5.06
569.447	5.22
569.788	5.14
570.129	5.08
570.47	5.31
570.811	5.27
571.151	5.33
571.492	5.29
571.833	5.03
572.174	5.14
572.514	5.14
572.855	5
573.195	4.92
573.536	5.2
573.876	4.95
574.217	5.08
574.557	5.11
574.898	5.29
575.238	5.25
575.578	5.03
575.918	5.3
576.258	5.26
576.598	5.03
576.938	5.04
577.278	5.12
577.618	5.07
577.958	5.07
578.298	5.24
578.638	4.98
578.977	5.11
579.317	5.15
579.657	5.24
579.996	5.06
580.336	5.08
580.675	5.21
581.014	5.12
581.354	5.08
581.693	5.18
582.032	5.18
582.372	4.94
582.711	5.43
583.05	5
583.389	5.25
583.728	5.06
584.067	5.28
584.406	5.14
584.745	5.11
585.083	5.25
585.422	5.15
585.761	5.11
586.1	5.15
586.438	5.23
586.777	5.09
587.115	5.07
587.454	5.05
587.792	5.11
588.13	5.17
588.469	5.18
588.807	5
589.145	4.93
589.483	5.1
589.821	5.03
590.159	5.15
590.497	5.17
590.835	5.45
591.173	5.05
591.511	5.23
591.849	4.87
592.187	5.14
592.524	4.89
592.862	5.16
593.2	5.14
593.537	5.07
593.875	4.82
594.212	4.94
594.55	5.18
594.887	5.21
595.224	4.97
595.561	5.26
595.899	4.96
596.236	5.03
596.573	5.26
596.91	4.82
597.247	4.77
597.584	5.3
597.921	4.94
598.258	4.66
598.594	5.07
598.931	4.75
599.268	4.99
599.604	4.85
599.941	5.06
600.277	4.97
600.614	4.85
600.95	5.03
601.287	5.19
601.623	4.75
601.959	4.9
602.296	4.85
602.632	5
602.968	5.08
603.304	4.83
603.64	4.99
603.976	4.95
604.312	4.88
604.648	4.99
604.984	5.05
605.319	4.72
605.655	4.91
605.991	5.1
606.326	4.93
606.662	4.9
606.998	4.83
607.333	5.08
607.668	4.87
608.004	5.08
608.339	5.34
608.674	5.11
609.01	5.01
609.345	4.91
609.68	5.16
610.015	5.09
610.35	4.71
610.685	4.57
611.02	5.02
611.355	5.07
611.689	5.12
612.024	4.84
612.359	4.81
612.694	4.95
613.028	4.78
613.363	4.82
613.697	5.1
614.032	5.22
614.366	4.84
614.7	5.02
615.035	5.19
615.369	5
615.703	5.17
616.037	5.12
616.371	4.48
616.705	4.7
617.039	4.87
617.373	4.78
617.707	4.8
618.041	4.74
618.375	4.96
618.709	5.12
619.042	4.83
619.376	5.01
619.71	5.07
620.043	5.33
620.377	4.77
620.71	4.88
621.043	4.65
621.377	4.78
621.71	4.8
622.043	4.74
622.376	4.8
622.709	5.17
623.043	5.36
623.376	4.87
623.709	4.71
624.041	5.44
624.374	4.99
624.707	4.65
625.04	5.04
625.373	4.66
625.705	4.83
626.038	4.65
626.37	4.84
626.703	5.1
627.035	5
627.368	4.94
627.7	4.95
628.032	5.12
628.365	5.12
628.697	4.58
629.029	4.83
629.361	5.02
629.693	5.08
630.025	4.7
630.357	4.99
630.689	4.71
631.021	5.1
631.353	5.02
631.684	4.75
632.016	4.9
632.348	5.17
632.679	4.9
633.011	5.1
633.342	5.14
633.674	4.77
634.005	5.14
634.336	4.71
634.668	5.37
634.999	4.85
635.33	4.99
635.661	5.09
635.992	4.85
636.323	5.07
636.654	5.44
636.985	5.02
637.316	4.72
637.647	4.52
637.977	5.2
638.308	4.97
638.639	4.67
638.969	4.54
639.3	4.65
639.63	4.73
639.961	5.3
640.291	5.03
640.622	5.1
640.952	4.76
641.282	5.28
641.612	5.03
641.943	4.77
642.273	4.65
642.603	5.25
642.933	5.2
643.263	5
643.592	4.87
643.922	4.41
644.252	4.62
644.582	5.03
644.911	4.62
645.241	4.83
645.571	4.81
645.9	4.4
646.23	4.7
646.559	4.91
646.888	4.41
647.218	4.51
647.547	5.19
647.876	4.97
648.205	4.46
648.534	4.72
648.863	4.37
649.192	4.48
649.521	4.85
649.85	4.54
650.179	4.92
650.508	4.56
650.837	4.66
651.165	4.08
651.494	4.29
651.822	4.72
652.151	4.94
652.479	5.29
652.808	4.71
653.136	4.76
653.465	4.23
653.793	4.81
654.121	4.46
654.449	4.87
654.777	5.09
655.105	4.56
655.433	4.74
655.761	5.01
656.089	4.53
656.417	4.72
656.745	4.7
657.073	4.59
657.4	5.51
657.728	4.92
658.056	5.21
658.383	5.15
658.711	4.84
659.038	5.09
659.365	4.97
659.693	4.87
660.02	4.73
660.347	5.09
660.674	5.24
661.001	5.2
661.329	4.25
661.656	4.67
661.982	5.05
662.309	4.71
662.636	4.88
662.963	5.15
663.29	5.33
663.616	5.08
663.943	4.38
664.27	4.92
664.596	4.87
664.923	4.95
665.249	4.7
665.576	4.63
665.902	5.4
666.228	4.94
666.554	5.23
666.881	5.29
667.207	4.83
667.533	5.43
667.859	5.45
668.185	4.75
668.511	4.84
668.837	4.17
669.162	4.99
669.488	4.22
669.814	4.89
670.139	4.93
670.465	5.41
670.791	4.92
671.116	5.14
671.442	4.33
671.767	4.82
672.092	5.47
672.418	5.14
672.743	5.05
673.068	4.06
673.393	4.98
673.718	4.21
674.043	4.98
674.368	5.06
674.693	5.88
675.018	5.04
675.343	4.71
675.667	4.55
675.992	4.97
676.317	5.23
676.641	5.17
676.966	5.38
677.29	4.52
677.615	5.08
677.939	5.24
678.264	5.55
678.588	4.95
678.912	5
679.236	5.5
679.56	4.44
679.885	5.12
680.209	4.87
680.532	4.62
680.856	5.73
681.18	4.33
681.504	4.95
681.828	5.37
682.152	4.43
682.475	5.17
682.799	4.73
683.122	4.7
683.446	4.74
683.769	5.68
684.093	4.26
684.416	5.83
684.739	4.53
685.062	4.65
685.386	5.1
685.709	4.26
686.032	4.83
686.355	6.03
686.678	4.34
687.001	4.91
687.324	5.78
687.646	4.1
687.969	4.44
688.292	5.16
688.614	5.73
688.937	5.85
689.26	5.38
689.582	5.36
689.904	4.63
690.227	5.33
690.549	4.76
690.871	5.82
691.194	4.78
691.516	5.21
691.838	5.2
692.16	4.47
692.482	5.15
692.804	5.83
693.126	4.69
693.448	5.11
693.769	4.87
694.091	5.17
694.413	4.72
694.735	5.26
695.056	4.73
695.378	5.6
695.699	4.06
696.021	3.5
696.342	4.37
696.663	3.77
696.984	5.61
697.306	4.4
697.627	4.94
697.948	5.26
698.269	4.7
698.59	5.19
698.911	4.28
699.232	4.8
699.553	4.93
699.873	4.35
700.194	5.96
700.515	5.12
700.835	4.95
701.156	5.79
701.477	5.4
701.797	4.98
702.117	5.54
702.438	6.03
702.758	5.57
703.078	4.82
703.398	4.62
703.719	4.44
704.039	3.63
704.359	5.67
704.679	4.3
704.999	4.7
705.319	4.2
705.638	4.29
705.958	4.7
706.278	5.07
706.597	4.96
706.917	5.42
707.237	4.83
707.556	4.54
707.876	5.83
708.195	4.4
708.514	4.5
708.834	5.72
709.153	4.63
709.472	5.36
709.791	5.43
710.11	4.52
710.429	4.87
710.748	5.22
711.067	5.32
711.386	4.8
711.705	5.01
712.023	4.74
712.342	4.52
712.661	4.65
712.979	4.29
713.298	5.36
713.616	5.8
713.935	4.79
714.253	3.9
714.572	5.66
714.89	5.85
715.208	5.6
715.526	5.31
715.844	3.82
716.162	6.48
716.48	5.7
716.798	5.76
717.116	5.44
717.434	4.99
717.752	3.18
718.069	4.93
718.387	5.36
718.705	4.85
719.022	4.2
719.34	4.42
719.657	5.23
719.975	5.13
720.292	4.77
720.609	4.68
720.927	5.08
721.244	6.9
721.561	4.22
721.878	6.13
722.195	3.6
722.512	5.11
722.829	5.44
723.146	4.69
723.463	4.88
723.779	5.19
724.096	6.38
724.413	4.53
724.729	4.34
725.046	2.66
725.362	6.75
725.679	4.85
725.995	4.61
726.311	4.5
726.628	5.43
726.944	6.26
727.26	5.67
727.576	6.41
727.892	4.53
728.208	5.21
728.524	4.31
728.84	4.44
729.156	5
729.472	4.98
729.787	3.91
730.103	5.72
730.419	4.57
730.734	5.51
731.05	3.99
731.365	5.63
731.681	5.33
731.996	5.75
732.311	5.48
732.626	4.77
732.942	3.62
733.257	5.53
733.572	4.72
733.887	4.91
734.202	5.01
734.517	4.47
734.832	4.97
735.146	4.92
735.461	4.16
735.776	4.28
736.091	5.14
736.405	5.91
736.72	5.35
737.034	4.62
737.349	7.2
737.663	5.29
737.977	5.59
738.292	4.61
738.606	5.65
738.92	6.85
739.234	6.5
739.548	5.1
739.862	4.7
740.176	5.66
740.49	5.46
740.804	7.05
741.117	5.7
741.431	4.92
741.745	4.94
742.058	4.03
742.372	3.51
742.685	4.97
742.999	4.02
743.312	3.89
743.626	3.67
743.939	3.47
744.252	6.07
744.565	3.69
744.878	6.59
745.191	2.25
745.505	3.45
745.817	3.92
746.13	5
746.443	6.88
746.756	6.42
747.069	4.59
747.381	7.82
747.694	6.08
748.007	5.6
748.319	5.31
748.632	5.05
748.944	5.75
749.256	6.51
749.569	3.21
749.881	5.94
750.193	5.39
750.505	4.16
750.817	6.41
751.129	6.91
751.441	6.22
751.753	6.29
752.065	7.56
752.377	4.79
752.689	6.26
753	4.61
753.312	4.3
753.624	3.31
753.935	7.5
754.247	4.76
754.558	3.31
754.869	4.68
755.181	4.73
755.492	4.96
755.803	4.64
756.114	4.67
756.425	5.61
756.736	2.14
757.047	5.61
757.358	6.31
757.669	6.07
757.98	5.25
758.291	7.17
758.601	3.09
758.912	4.04
759.223	5.38
759.533	2.83
759.844	3.54
760.154	4.44
760.464	7.38
760.775	6.23
761.085	3.99
761.395	4.89
761.705	3.96
762.016	6.25
762.326	4.62
762.636	4.94
762.945	4.75
763.255	7.7
763.565	3.97
763.875	6.82
764.185	4.77
764.494	6.34
764.804	3.99
765.113	4.81
765.423	4.97
765.732	5.53
766.042	4.94
766.351	5.84
766.66	5.02
766.97	6.71
767.279	4.62
767.588	5.31
767.897	6.95
768.206	5.7
768.515	6.23
768.824	4.84
769.133	5.15
769.441	4.62
769.75	4.21
770.059	7.23
770.367	5.78
770.676	6.89
770.984	7.57
771.293	3.18
771.601	5.65
771.91	4.4
772.218	6.8
772.526	8.25
772.834	4.02
773.142	5.34
773.45	1.29
773.758	3.57
774.066	4.09
774.374	3.42
774.682	6.47
774.99	6.32
775.298	5.73
775.605	3.62
775.913	0.32
776.22	7.02
776.528	4.18
776.835	7.23
777.143	6.21
777.45	3.04
777.757	9.66
778.065	7.6
778.372	3.46
778.679	1.6
778.986	8.35
779.293	0.2
779.6	4.94
779.907	3.01
780.214	4.16
780.52	8.53
780.827	4.68
781.134	4.01
781.44	1.54
781.747	4.98
782.053	5.82
782.36	2.41
782.666	5.81
782.973	4.11
783.279	6.51
783.585	6.74
783.891	7.94
784.197	4.66
784.503	9.45
784.809	3.61
785.115	7.24
785.421	7.39
785.727	5.66
786.033	8.2
786.339	7.02
786.644	6
786.95	5.21
787.255	8.6
787.561	9.27
787.866	6.73
788.172	4.37
788.477	4.25
788.782	7.26
789.088	5.28
789.393	6.68
789.698	0.61
790.003	5.53
790.308	5.02
790.613	1.49
790.918	4.97
791.223	5.5
791.527	0.71
791.832	5.36
792.137	3.18
792.441	2.43
792.746	2.59
793.05	0.03
793.355	6.07
793.659	6.52
793.963	8.68
794.268	5.34
794.572	5.6
794.876	4.59
795.18	3.69
795.484	4.34
795.788	4.91
796.092	2.96
796.396	3.2
796.7	6.02
797.004	7.8
797.307	-4.75
797.611	7.05
797.915	3.23
798.218	9.22
798.522	5.82
798.825	4.98
799.128	5.11
799.432	3.39
799.735	3.28
800.038	8.43
800.341	4.53
800.644	9.93
800.947	5.53
801.25	6.57
801.553	2.66
801.856	5
802.159	-2.01
802.462	2.77
802.764	0.27
803.067	2.85
803.37	3.83
803.672	2.64
803.975	2.96
804.277	3.65
804.579	1.01
804.882	5.86
805.184	5.92
805.486	4.78
805.788	10.17
806.09	11.56
806.392	-0.34
806.694	7.03
806.996	10.26
807.298	8.57
807.6	4.14
807.902	6.73
808.203	2.46
808.505	10.84
808.807	-0.12
809.108	9.64
809.409	12.25
809.711	4.26
810.012	6.91
810.313	2.12
810.615	5.77
810.916	1.54
811.217	4.44
811.518	9.48
811.819	2.24
812.12	5.49
812.421	2.87
812.722	8.76
813.023	11.37
813.323	1.7
813.624	0.36
813.925	21.13
814.225	4.08
814.526	8.06
814.826	9.72
815.126	2.33
815.427	3.93
815.727	4.67
816.027	9.14
816.327	6.36
816.627	1.59
816.927	4.46
817.227	2.97
817.527	4.84
817.827	8.92
818.127	2.31
818.427	6.11
818.727	8.65
819.026	0.26
819.326	8.09
819.625	7.06
819.925	0.93
820.224	11.18
820.524	2.39
820.823	9.3
821.122	1.09
821.421	8.15
821.72	5.9
822.019	9.92
822.318	6.86
822.617	0.5
822.916	2.8
823.215	1.29
823.514	9.79
823.813	1.85
824.111	7.22
824.41	7.02
824.709	8.73
825.007	7.17
825.306	7.23
825.604	7.9
825.902	5.98
826.201	7.14
826.499	6.48
826.797	5.71
827.095	6.64
827.393	6.84
827.691	9.71
827.989	4.48
828.287	6.1
828.585	4.27
828.882	7.15
829.18	6.23
829.478	7.24
829.775	8.61
830.073	10.2
830.37	8.63
830.668	6.17
830.965	9.47
831.263	3.24
831.56	7.04
831.857	4.06
832.154	6.5
832.451	9.49
832.748	6.22
833.045	11.03
833.342	10.68
833.639	2.24
833.936	5.33
834.232	12.57
834.529	9.94
834.826	7.62
835.122	10.82
835.419	-3.03
835.715	6.08
836.012	5.7
836.308	-3.29
836.604	2.55
836.901	4.32
837.197	5.36
837.493	7.32
837.789	5.68
838.085	8.77
838.381	6.17
838.677	2.91
838.972	2.95
839.268	4.31
839.564	0.16
839.86	5.33
840.155	4.86
840.451	-6.83
840.746	8.75
841.042	9.36
841.337	15.16
841.632	3.41
841.928	4.85
842.223	5.77
842.518	-1.96
842.813	19.87
843.108	7.55
843.403	10.07
843.698	2.16
843.993	0.81
844.287	-1.38
844.582	6.05
844.877	7.51
845.171	7.32
845.466	-8.48
845.761	-0.06
846.055	17.16
846.349	-1.03
846.644	7.74
846.938	-17.93
847.232	-12.31
847.526	-5.93
847.82	0.03
848.114	0.83
848.408	1.28
848.702	-2.84
848.996	-19.17
849.29	5.9
849.584	-2.23
849.877	12.98
850.171	24.56
850.465	-4.88
850.758	-10.81
851.052	-0.44
851.345	1.27
851.638	-1.36
851.932	-31.69
852.225	-13.49
852.518	-0.23
852.811	-5.23
853.104	-29.05
853.397	-7.88
853.69	2.11
853.983	6.52
854.276	12.17
854.569	12.14
854.861	4.03
855.154	-4.15
855.447	-33.76
855.739	-5.4
856.032	10.97
856.324	10.29
856.616	21.16
856.909	15.16
857.201	-11.71
857.493	-13
857.785	-25.49
858.077	8.64
858.369	35.27
858.661	19.47
858.953	-18.77
859.245	0.93
859.537	26.25
859.829	18.57
860.12	24.15
860.412	-3.32
860.703	-6.13
860.995	-23.21
861.286	0.64
861.578	-10.94
861.869	1.08
862.16	-7.64
862.452	12.39
862.743	-30.96
863.034	-16.79
863.325	-11.34
863.616	-29.97
863.907	-26.53
864.198	-14.23
864.488	24.43
864.779	-6.37
865.07	-30.77
865.36	-3.33
865.651	-2.22
865.941	-17.89
866.232	8.41
866.522	-29.29
866.813	-3.06
867.103	-6.21
867.393	-30.93
867.683	16.97
867.973	-25.83
868.263	-17.35
868.553	-12.75
868.843	8.42
869.133	-54.99
869.423	-33.52
869.713	16.8
870.002	3.24
870.292	24.84
870.582	13.04
870.871	-24.38
871.161	22.02
871.45	-3.62
871.739	-2.43
872.029	-51.41
872.318	-5.24
872.607	27.99
872.896	-21.05
873.185	-4.25
873.474	-52.25
873.763	-17.6
874.052	-30.45
874.341	32.29
874.63	1.94
874.918	-5.34
875.207	8.06
875.496	14.57
875.784	-48.04
876.073	-85.88
876.361	-78.77
876.649	-26.78
876.938	-32.29
877.226	-3.84
877.514	34.43
877.802	11.77
878.09	-10.02
878.378	39.57
878.666	-72.9
878.954	-58.89
879.242	-2.11
879.53	-5.52
879.817	20.99
880.105	2.18
880.392	2.12
880.68	-29.18
880.967	-5.11
881.255	7.48
881.542	-17.62
881.83	-59.15
882.117	-11.14
882.404	-19.22
882.691	-11.27
882.978	1.18
883.265	3.28
883.552	7.09
883.839	4.02
884.126	-2.89
884.413	10.39
884.699	20.46
884.986	20.47
885.273	5.48
885.559	5.48
885.846	5.48
