Data from 0050_forehead_Reflection__2__27.txt Node

Date: Fri Dec 16 13:59:53 CST 2022
User: ToomeyLab
Spectrometer: FLMS14357
Trigger mode: 0
Integration Time (sec): 1.000000E-2
Scans to average: 100
Electric dark correction enabled: true
Nonlinearity correction enabled: false
Boxcar width: 0
XAxis mode: Wavelengths
Number of Pixels in Spectrum: 2048
>>>>>Begin Spectral Data<<<<<
189.047	52.85
189.435	52.85
189.823	52.85
190.211	135.83
190.599	49.47
190.987	-319.9
191.375	-33.4
191.763	108.04
192.151	4.8
192.538	24.52
192.926	68.31
193.314	59.02
193.702	1219.45
194.089	-18.92
194.477	-38.62
194.864	-20.45
195.252	-57.64
195.639	171.96
196.027	-41.2
196.414	77.31
196.801	-42.53
197.189	38.05
197.576	714.32
197.963	180.26
198.351	38.81
198.738	13.54
199.125	39.37
199.512	68.54
199.899	-4.24
200.286	21.4
200.673	47.63
201.06	59.24
201.447	53.33
201.833	18.17
202.22	46.24
202.607	27.78
202.994	35.52
203.38	30.63
203.767	-3.5
204.154	6.11
204.54	70.31
204.927	15.74
205.313	45.8
205.699	49.44
206.086	34.81
206.472	4.66
206.858	31.61
207.245	25.84
207.631	34.57
208.017	26.86
208.403	33.12
208.789	9.33
209.175	56.85
209.561	42.45
209.947	4.78
210.333	-17.93
210.719	32.4
211.105	19.56
211.491	44.77
211.876	43.05
212.262	-4.91
212.648	16.59
213.034	9.51
213.419	34.63
213.805	11.22
214.19	7.51
214.576	19.86
214.961	8.78
215.346	-7.56
215.732	24.77
216.117	-0.52
216.502	-8.91
216.888	-2.06
217.273	42.76
217.658	28.76
218.043	26.01
218.428	21.63
218.813	26.23
219.198	-4.61
219.583	5.91
219.968	7.82
220.353	25.95
220.738	18.52
221.122	22.54
221.507	15.96
221.892	24.42
222.276	43.83
222.661	6.23
223.046	24.18
223.43	11.12
223.815	18.74
224.199	16.14
224.583	10.35
224.968	10.41
225.352	17.9
225.736	21.57
226.121	8.28
226.505	8.37
226.889	12.19
227.273	12.23
227.657	9.98
228.041	11.83
228.425	13.4
228.809	6.67
229.193	5.66
229.577	7.55
229.961	7.37
230.344	7.67
230.728	6.34
231.112	5.91
231.495	8.04
231.879	6.11
232.263	5.69
232.646	5.91
233.03	6.56
233.413	6.95
233.797	7.67
234.18	6.05
234.563	9.06
234.946	7.11
235.33	7.48
235.713	8.27
236.096	7.27
236.479	8.33
236.862	7.49
237.245	8.84
237.628	7.37
238.011	7.92
238.394	8.85
238.777	6.24
239.16	6.44
239.543	7.1
239.925	5.07
240.308	8.19
240.691	7.03
241.073	8.06
241.456	6.71
241.838	7.04
242.221	5.92
242.603	6.25
242.986	7.01
243.368	5.72
243.75	5.52
244.133	5.93
244.515	6.39
244.897	6.53
245.279	6.38
245.661	6.75
246.043	7.67
246.425	6.18
246.807	6.27
247.189	6.29
247.571	6.35
247.953	6.13
248.335	6.09
248.717	5.88
249.098	5.92
249.48	5.86
249.862	6.38
250.243	5.86
250.625	5.78
251.006	6.32
251.388	6.44
251.769	6.02
252.151	6.48
252.532	6.77
252.913	6.45
253.295	5.53
253.676	6.56
254.057	5.56
254.438	6.42
254.819	7.2
255.2	6.22
255.581	6.51
255.962	6.47
256.343	7.09
256.724	5.79
257.105	6.32
257.486	6.92
257.867	4.78
258.247	5.76
258.628	6.48
259.009	6.38
259.389	6.79
259.77	5.75
260.15	6.58
260.531	5.9
260.911	5.84
261.292	5.75
261.672	5.43
262.052	5.55
262.432	5.74
262.813	5.92
263.193	5.95
263.573	5.7
263.953	5.34
264.333	5.61
264.713	5.39
265.093	5.98
265.473	7.19
265.853	6.14
266.233	6.11
266.612	5.41
266.992	6.02
267.372	5.62
267.752	5.69
268.131	6.01
268.511	5.69
268.89	6.24
269.27	6.18
269.649	5.99
270.029	6.09
270.408	5.46
270.787	5.6
271.167	5.71
271.546	5.58
271.925	6.21
272.304	5.88
272.683	5.39
273.062	5.77
273.441	5.66
273.82	5.75
274.199	5.62
274.578	5.39
274.957	5.9
275.336	5.48
275.715	5.97
276.093	6.65
276.472	5.88
276.851	5.59
277.229	5.78
277.608	5.76
277.986	5.7
278.365	5.52
278.743	5.89
279.122	5.71
279.5	5.49
279.878	5.07
280.257	6.11
280.635	6.16
281.013	6.34
281.391	5.24
281.769	5.39
282.147	5.78
282.525	5.65
282.903	6.13
283.281	5.76
283.659	5.48
284.037	5.77
284.415	5.84
284.792	5.49
285.17	5.56
285.548	5.76
285.925	5.35
286.303	5.55
286.68	5.66
287.058	5.97
287.435	5.24
287.813	5.96
288.19	5.97
288.567	5.4
288.945	5.35
289.322	6.01
289.699	5.65
290.076	6.28
290.453	5.57
290.83	5.93
291.207	5.7
291.584	5.53
291.961	5.77
292.338	5.82
292.715	6.35
293.092	5.8
293.469	6.48
293.845	5.8
294.222	6.13
294.599	6.47
294.975	6.23
295.352	5.95
295.728	6.24
296.105	6.15
296.481	6.32
296.858	6.17
297.234	6.32
297.61	6.05
297.986	6.03
298.363	5.66
298.739	6.26
299.115	5.93
299.491	5.97
299.867	6.24
300.243	6.26
300.619	6.29
300.995	6.38
301.371	6.84
301.746	6.46
302.122	6.61
302.498	6.85
302.874	6.59
303.249	6.83
303.625	6.41
304	6.3
304.376	6.7
304.751	6.44
305.127	6.72
305.502	6.83
305.878	6.81
306.253	6.9
306.628	6.8
307.003	6.98
307.378	6.34
307.754	7.43
308.129	6.82
308.504	6.89
308.879	6.78
309.254	7.34
309.629	7.23
310.003	7.49
310.378	6.96
310.753	7.18
311.128	6.89
311.502	7.17
311.877	7.38
312.252	7.24
312.626	7.23
313.001	7.43
313.375	7.44
313.75	7.85
314.124	7.9
314.498	7.39
314.873	7.69
315.247	7.54
315.621	8.17
315.995	7.78
316.369	7.89
316.743	7.9
317.117	8.06
317.491	8.15
317.865	7.72
318.239	8.46
318.613	8.38
318.987	8.82
319.361	8.34
319.734	8.67
320.108	8.71
320.482	8.5
320.855	8.61
321.229	9.07
321.602	8.71
321.976	8.35
322.349	7.9
322.723	7.99
323.096	8.13
323.469	8.39
323.843	8.32
324.216	8.57
324.589	9.3
324.962	8.67
325.335	8.89
325.708	9.02
326.081	9.08
326.454	9.1
326.827	9.11
327.2	9.46
327.573	9.25
327.945	9.44
328.318	9.37
328.691	9.37
329.063	9.35
329.436	8.89
329.809	8.91
330.181	9.51
330.553	9.19
330.926	9.44
331.298	9.18
331.671	9.46
332.043	9.7
332.415	9.83
332.787	10.25
333.159	9.23
333.532	9.73
333.904	9.98
334.276	9.99
334.648	9.87
335.02	9.57
335.391	10.19
335.763	9.77
336.135	10.23
336.507	10.51
336.879	10.03
337.25	10.47
337.622	10.14
337.993	10.15
338.365	10.08
338.736	10.23
339.108	9.97
339.479	10.34
339.851	10.36
340.222	10.26
340.593	10.07
340.964	10.42
341.336	9.9
341.707	10.24
342.078	10.37
342.449	10.93
342.82	10.68
343.191	10.22
343.562	10.4
343.933	10.83
344.303	10.92
344.674	10.85
345.045	11.09
345.416	10.86
345.786	10.81
346.157	11.16
346.527	11.04
346.898	10.91
347.268	11.16
347.639	10.86
348.009	11.47
348.38	11.29
348.75	11.22
349.12	11.28
349.49	11.51
349.861	11.85
350.231	11.51
350.601	11.63
350.971	11.51
351.341	11.82
351.711	11.49
352.081	11.69
352.45	11.55
352.82	11.86
353.19	11.67
353.56	11.9
353.929	11.89
354.299	11.93
354.669	12.16
355.038	12.24
355.408	12.55
355.777	12
356.147	12.27
356.516	12.55
356.885	12.21
357.254	12.33
357.624	12.23
357.993	12.3
358.362	12.49
358.731	12.31
359.1	12.64
359.469	12.32
359.838	12.45
360.207	12.41
360.576	12.78
360.945	12.82
361.314	12.85
361.682	12.53
362.051	13.02
362.42	13.15
362.788	13.1
363.157	13.06
363.525	12.85
363.894	12.7
364.262	13.16
364.631	13.83
364.999	12.87
365.367	13.26
365.735	13.05
366.104	13.08
366.472	13.63
366.84	13.74
367.208	13.14
367.576	13.49
367.944	13.72
368.312	13.56
368.68	13.66
369.048	13.86
369.416	13.68
369.783	13.6
370.151	13.73
370.519	13.84
370.886	14.33
371.254	14.12
371.621	14.1
371.989	14.24
372.356	14.19
372.724	14.52
373.091	14.27
373.458	14.36
373.826	14
374.193	14.65
374.56	14.41
374.927	14.62
375.294	14.96
375.661	14.81
376.028	14.66
376.395	14.73
376.762	15.06
377.129	15.13
377.496	15.11
377.863	14.9
378.229	14.88
378.596	14.72
378.963	15.29
379.329	15.29
379.696	14.92
380.062	15.39
380.429	15.43
380.795	15.22
381.161	15.26
381.528	15.13
381.894	15.68
382.26	15.37
382.626	15.85
382.993	15.54
383.359	15.76
383.725	15.77
384.091	15.86
384.457	15.95
384.823	15.93
385.188	16
385.554	15.98
385.92	16.07
386.286	16.16
386.651	16.07
387.017	16.01
387.383	16.4
387.748	16.52
388.114	16.44
388.479	16.37
388.845	16.69
389.21	16.32
389.575	16.43
389.94	16.55
390.306	16.63
390.671	16.53
391.036	16.94
391.401	16.84
391.766	16.91
392.131	16.84
392.496	16.97
392.861	16.73
393.226	16.96
393.591	16.92
393.956	17.04
394.32	17.14
394.685	17.38
395.05	17.07
395.414	17.15
395.779	17.32
396.143	17.31
396.508	17.47
396.872	17.56
397.236	17.43
397.601	17.69
397.965	17.31
398.329	17.91
398.694	17.59
399.058	17.98
399.422	18.08
399.786	17.85
400.15	18
400.514	18.01
400.878	18.33
401.242	18.05
401.605	18.24
401.969	18.4
402.333	18.24
402.697	18.42
403.06	18.58
403.424	18.31
403.787	18.48
404.151	18.32
404.514	18.73
404.878	18.39
405.241	18.61
405.604	18.56
405.968	18.88
406.331	18.68
406.694	18.63
407.057	18.89
407.42	18.85
407.783	18.69
408.146	19.07
408.509	18.89
408.872	19.17
409.235	19.13
409.598	19.35
409.961	19.26
410.323	19.5
410.686	19.33
411.049	19.11
411.411	19.45
411.774	19.37
412.136	19.36
412.499	19.49
412.861	19.59
413.223	19.77
413.586	19.63
413.948	19.88
414.31	19.82
414.672	19.95
415.035	19.79
415.397	20.4
415.759	19.96
416.121	20.32
416.483	20.07
416.845	20.04
417.206	20.28
417.568	20.13
417.93	20.19
418.292	20.14
418.653	20.36
419.015	20.22
419.377	20.14
419.738	20.07
420.1	20.21
420.461	20.03
420.822	20.41
421.184	20.38
421.545	20.43
421.906	20.33
422.267	20.13
422.629	20.27
422.99	20.33
423.351	20.42
423.712	20.42
424.073	20.74
424.434	20.62
424.795	20.59
425.155	20.76
425.516	20.68
425.877	20.67
426.238	20.75
426.598	20.75
426.959	20.95
427.32	21.14
427.68	21.27
428.041	21.27
428.401	21.3
428.761	21.55
429.122	21.57
429.482	21.64
429.842	21.7
430.202	21.57
430.563	21.87
430.923	22.05
431.283	21.86
431.643	22
432.003	22.24
432.363	22.24
432.722	21.98
433.082	22.31
433.442	22.29
433.802	22.37
434.161	22.29
434.521	22.48
434.881	22.36
435.24	22.34
435.6	22.46
435.959	22.47
436.319	22.54
436.678	22.55
437.037	22.84
437.396	22.75
437.756	22.86
438.115	22.79
438.474	23
438.833	23.24
439.192	23.03
439.551	22.95
439.91	23.08
440.269	23.12
440.628	23.01
440.987	23.13
441.345	23
441.704	23.12
442.063	23.11
442.421	23.16
442.78	23.07
443.138	23.27
443.497	23.39
443.855	23.42
444.214	23.7
444.572	23.54
444.93	23.86
445.288	23.73
445.647	23.86
446.005	23.52
446.363	23.69
446.721	23.71
447.079	23.64
447.437	23.75
447.795	23.52
448.153	23.76
448.51	23.79
448.868	23.88
449.226	23.9
449.584	24.05
449.941	24.09
450.299	24.27
450.656	24.48
451.014	24.53
451.371	24.48
451.729	24.52
452.086	24.82
452.443	24.63
452.801	24.64
453.158	24.88
453.515	24.76
453.872	24.92
454.229	24.77
454.586	24.99
454.943	24.98
455.3	25.08
455.657	25.16
456.014	25.14
456.371	25.34
456.727	25.2
457.084	25.38
457.441	25.54
457.797	25.43
458.154	25.5
458.51	25.53
458.867	25.78
459.223	25.86
459.58	25.7
459.936	25.73
460.292	25.83
460.648	25.56
461.005	25.49
461.361	25.6
461.717	25.47
462.073	25.6
462.429	25.76
462.785	26.07
463.141	26.1
463.496	26.08
463.852	26.38
464.208	26.3
464.564	26.45
464.919	26.47
465.275	26.78
465.631	26.77
465.986	26.78
466.342	26.9
466.697	26.79
467.052	26.9
467.408	26.9
467.763	26.93
468.118	27.06
468.473	27.13
468.829	26.9
469.184	27.26
469.539	27.12
469.894	27.24
470.249	27.21
470.603	27.43
470.958	27.42
471.313	27.48
471.668	27.56
472.023	27.74
472.377	27.51
472.732	27.49
473.086	27.79
473.441	27.77
473.795	27.97
474.15	27.93
474.504	27.8
474.859	27.9
475.213	27.78
475.567	27.87
475.921	28.05
476.275	28.18
476.63	28.26
476.984	28.27
477.338	28.45
477.692	28.3
478.045	28.13
478.399	28.43
478.753	28.13
479.107	28.36
479.461	28.36
479.814	28.43
480.168	28.33
480.521	28.67
480.875	28.85
481.228	28.75
481.582	28.74
481.935	28.67
482.289	28.72
482.642	28.78
482.995	28.64
483.348	28.42
483.701	28.43
484.055	28.31
484.408	28.21
484.761	28.01
485.114	27.98
485.466	28.04
485.819	28.04
486.172	28
486.525	28.21
486.878	28.3
487.23	28.56
487.583	28.56
487.936	28.67
488.288	28.7
488.641	28.55
488.993	28.48
489.345	28.52
489.698	28.66
490.05	28.64
490.402	28.9
490.754	29.11
491.107	29.1
491.459	29.44
491.811	29.62
492.163	29.48
492.515	29.27
492.866	29.15
493.218	29.15
493.57	29.28
493.922	29.36
494.274	29.65
494.625	29.89
494.977	29.98
495.328	30.22
495.68	30.56
496.031	30.61
496.383	30.6
496.734	30.63
497.086	30.62
497.437	30.76
497.788	30.76
498.139	30.53
498.49	30.69
498.842	30.57
499.193	30.49
499.544	30.69
499.894	30.84
500.245	30.95
500.596	31.05
500.947	31.3
501.298	31.22
501.648	31.38
501.999	31.38
502.35	31.6
502.7	31.53
503.051	31.79
503.401	31.8
503.752	31.62
504.102	31.73
504.452	31.84
504.803	31.7
505.153	31.87
505.503	31.72
505.853	31.87
506.203	31.85
506.553	32.06
506.903	31.98
507.253	32.15
507.603	32.07
507.953	32.37
508.303	32.14
508.652	32.33
509.002	32.47
509.352	32.39
509.701	32.47
510.051	32.25
510.4	32.18
510.75	32.33
511.099	32.28
511.449	32.35
511.798	32.44
512.147	32.53
512.496	32.64
512.846	32.61
513.195	32.63
513.544	32.6
513.893	32.66
514.242	32.62
514.591	33.02
514.939	32.84
515.288	32.97
515.637	33.2
515.986	33.13
516.334	33.2
516.683	33.25
517.032	33.27
517.38	33.5
517.729	33.56
518.077	33.61
518.426	33.45
518.774	33.42
519.122	33.38
519.47	33.33
519.819	33.29
520.167	33.15
520.515	33.33
520.863	33.42
521.211	33.34
521.559	33.52
521.907	33.65
522.255	33.87
522.602	33.97
522.95	33.94
523.298	34.23
523.645	34.18
523.993	34.4
524.341	34.3
524.688	34.28
525.036	34.53
525.383	34.45
525.73	34.43
526.078	34.28
526.425	34.21
526.772	33.94
527.119	34.01
527.466	34.02
527.814	34.03
528.161	34.2
528.508	34.21
528.854	34.16
529.201	33.86
529.548	33.85
529.895	33.76
530.242	34.02
530.588	33.92
530.935	33.84
531.282	33.97
531.628	34.13
531.975	34.33
532.321	34.63
532.667	34.71
533.014	34.94
533.36	34.81
533.706	34.7
534.052	34.77
534.399	34.73
534.745	34.48
535.091	34.55
535.437	34.74
535.783	34.86
536.129	35.03
536.474	35.12
536.82	35.2
537.166	35.27
537.512	35.44
537.857	35.37
538.203	35.34
538.549	35.29
538.894	35.57
539.239	35.52
539.585	35.71
539.93	35.85
540.276	36.14
540.621	36.18
540.966	36.29
541.311	36.16
541.656	35.86
542.001	35.82
542.346	35.54
542.691	35.57
543.036	35.55
543.381	35.63
543.726	35.68
544.071	35.89
544.415	36.03
544.76	36.05
545.105	36.26
545.449	36.33
545.794	36.49
546.138	36.58
546.483	36.64
546.827	36.67
547.171	36.75
547.516	36.99
547.86	36.63
548.204	36.7
548.548	36.89
548.892	36.91
549.236	37.07
549.58	37.24
549.924	37.49
550.268	37.75
550.612	37.73
550.956	37.69
551.3	37.82
551.643	37.76
551.987	37.81
552.33	37.91
552.674	37.93
553.017	38.01
553.361	37.97
553.704	38.05
554.048	38.08
554.391	37.92
554.734	38.12
555.077	38.04
555.42	38.01
555.764	38.24
556.107	38.23
556.45	38.43
556.793	38.71
557.135	38.65
557.478	38.74
557.821	38.44
558.164	38.69
558.507	38.68
558.849	38.75
559.192	38.94
559.534	38.86
559.877	38.98
560.219	39.07
560.562	39.1
560.904	39.13
561.246	39.19
561.589	39.21
561.931	39.33
562.273	39.04
562.615	39.32
562.957	39.2
563.299	39.31
563.641	39.38
563.983	39.38
564.325	39.28
564.667	39.52
565.008	39.41
565.35	39.5
565.692	39.54
566.033	39.72
566.375	39.75
566.716	39.94
567.058	39.57
567.399	39.7
567.741	39.54
568.082	39.58
568.423	39.56
568.764	39.92
569.105	39.92
569.447	40.09
569.788	40.14
570.129	39.98
570.47	40.08
570.811	40.34
571.151	40.13
571.492	40.29
571.833	40.4
572.174	40.32
572.514	40.21
572.855	40.26
573.195	40
573.536	40.16
573.876	40.16
574.217	40.38
574.557	40.41
574.898	40.32
575.238	40.58
575.578	40.51
575.918	40.6
576.258	40.73
576.598	40.74
576.938	40.81
577.278	40.78
577.618	40.79
577.958	40.98
578.298	41.04
578.638	40.88
578.977	41.11
579.317	41.05
579.657	41.3
579.996	41.31
580.336	41.1
580.675	41.41
581.014	41.48
581.354	41.72
581.693	41.53
582.032	41.53
582.372	41.82
582.711	41.96
583.05	41.72
583.389	42.29
583.728	42.19
584.067	41.84
584.406	42.07
584.745	41.89
585.083	42.19
585.422	42.1
585.761	42.19
586.1	42.14
586.438	42.26
586.777	41.97
587.115	42.22
587.454	42.48
587.792	42.19
588.13	42.69
588.469	42.7
588.807	42.68
589.145	42.97
589.483	42.53
589.821	42.7
590.159	42.63
590.497	42.49
590.835	42.7
591.173	42.65
591.511	42.69
591.849	42.46
592.187	42.95
592.524	42.52
592.862	42.84
593.2	43.05
593.537	42.85
593.875	43.1
594.212	43.47
594.55	43.03
594.887	43.23
595.224	43.35
595.561	43.28
595.899	43.3
596.236	43.27
596.573	43.12
596.91	43.15
597.247	43.07
597.584	43.54
597.921	43.19
598.258	43.34
598.594	43.16
598.931	43.34
599.268	43.32
599.604	43.56
599.941	43.56
600.277	43.31
600.614	43.78
600.95	43.76
601.287	44.21
601.623	44.32
601.959	43.95
602.296	43.95
602.632	44.2
602.968	44.28
603.304	43.94
603.64	43.93
603.976	43.86
604.312	44.06
604.648	44.41
604.984	43.84
605.319	43.91
605.655	44.01
605.991	44.11
606.326	43.96
606.662	44.05
606.998	44.26
607.333	44.12
607.668	43.96
608.004	44.48
608.339	44.26
608.674	44.61
609.01	44.68
609.345	44.66
609.68	44.54
610.015	44.57
610.35	44.78
610.685	44.58
611.02	44.7
611.355	44.95
611.689	44.56
612.024	44.94
612.359	44.85
612.694	44.96
613.028	44.98
613.363	45.12
613.697	44.84
614.032	45.11
614.366	44.94
614.7	45.35
615.035	45.22
615.369	45.68
615.703	45.81
616.037	45.42
616.371	45.95
616.705	46.02
617.039	45.64
617.373	45.8
617.707	45.63
618.041	45.47
618.375	45.67
618.709	45.64
619.042	45.71
619.376	46.1
619.71	45.94
620.043	46.1
620.377	46.54
620.71	46.51
621.043	46
621.377	46.36
621.71	46.25
622.043	46.09
622.376	46.33
622.709	46.29
623.043	46.18
623.376	46.96
623.709	46.1
624.041	46.31
624.374	46.62
624.707	46.29
625.04	46.55
625.373	46.17
625.705	46.32
626.038	47.12
626.37	46.8
626.703	46.38
627.035	46.88
627.368	46.68
627.7	46.77
628.032	46.66
628.365	46.91
628.697	46.9
629.029	46.8
629.361	46.44
629.693	46.62
630.025	46.8
630.357	46.7
630.689	46.83
631.021	47.16
631.353	47.11
631.684	47.25
632.016	46.68
632.348	47.51
632.679	47.32
633.011	47.38
633.342	47.05
633.674	47.33
634.005	47.39
634.336	47.21
634.668	47.48
634.999	47.4
635.33	47.38
635.661	47.42
635.992	47.21
636.323	47.7
636.654	47.85
636.985	47.18
637.316	47.69
637.647	47.75
637.977	47.6
638.308	47.15
638.639	47.9
638.969	47.97
639.3	47.71
639.63	47.93
639.961	48.23
640.291	48.04
640.622	47.81
640.952	48.55
641.282	47.58
641.612	47.91
641.943	48.12
642.273	48.44
642.603	48.29
642.933	48.01
643.263	48.59
643.592	48.54
643.922	48.74
644.252	48.45
644.582	48.52
644.911	48.44
645.241	47.91
645.571	48.47
645.9	49.08
646.23	48.84
646.559	48.71
646.888	49.26
647.218	49.13
647.547	49.47
647.876	48.86
648.205	48.52
648.534	48.77
648.863	49.07
649.192	49.44
649.521	48.65
649.85	49.39
650.179	48.92
650.508	48.56
650.837	48.83
651.165	49.62
651.494	48.81
651.822	48.55
652.151	49.1
652.479	48.67
652.808	49.31
653.136	49
653.465	49.85
653.793	49.5
654.121	49.68
654.449	49.03
654.777	49
655.105	49.4
655.433	49.94
655.761	48.87
656.089	49.04
656.417	49.53
656.745	49.61
657.073	49.89
657.4	49.74
657.728	49.61
658.056	49.84
658.383	49.67
658.711	49.15
659.038	49.3
659.365	49.97
659.693	49.63
660.02	50.55
660.347	50.03
660.674	49.33
661.001	49.8
661.329	49.49
661.656	50.31
661.982	50.1
662.309	49.9
662.636	49.64
662.963	50.46
663.29	50.26
663.616	49.89
663.943	50.72
664.27	50.66
664.596	50.35
664.923	50.56
665.249	50.45
665.576	50.24
665.902	50.27
666.228	50.2
666.554	50.44
666.881	50.94
667.207	50.42
667.533	50.55
667.859	51.07
668.185	50.71
668.511	50.2
668.837	50.83
669.162	50.28
669.488	50.57
669.814	51.13
670.139	50.71
670.465	51.06
670.791	50.74
671.116	51.15
671.442	51.11
671.767	51.2
672.092	51.54
672.418	51.16
672.743	50.38
673.068	50.94
673.393	51.09
673.718	51.16
674.043	50.56
674.368	51.43
674.693	51.08
675.018	51.44
675.343	50.68
675.667	51.26
675.992	51.04
676.317	50.96
676.641	51.22
676.966	51.66
677.29	51.14
677.615	52.53
677.939	51.24
678.264	51.02
678.588	51.53
678.912	52.07
679.236	52.15
679.56	51.34
679.885	51.72
680.209	51.13
680.532	51.77
680.856	51.48
681.18	52.24
681.504	51.3
681.828	51.26
682.152	51.36
682.475	51.58
682.799	51.84
683.122	51.19
683.446	51.65
683.769	51.34
684.093	51.47
684.416	52.08
684.739	51.9
685.062	52.09
685.386	51.99
685.709	51.51
686.032	52.15
686.355	51.91
686.678	51.95
687.001	51.37
687.324	52.5
687.646	51.78
687.969	52.29
688.292	52.48
688.614	51.89
688.937	52.33
689.26	51.44
689.582	52.27
689.904	52.29
690.227	51.79
690.549	51.9
690.871	51.87
691.194	52.23
691.516	52.45
691.838	52.71
692.16	52.3
692.482	53
692.804	52.79
693.126	52.7
693.448	52.57
693.769	52.82
694.091	52.74
694.413	52.92
694.735	52.6
695.056	53.01
695.378	52.12
695.699	53.28
696.021	52.46
696.342	52.34
696.663	53.44
696.984	53.57
697.306	51.81
697.627	52.78
697.948	53.06
698.269	52.96
698.59	52.82
698.911	52.65
699.232	53.72
699.553	52.84
699.873	52.81
700.194	53.22
700.515	53.31
700.835	53.05
701.156	53.26
701.477	52.71
701.797	53.33
702.117	52.39
702.438	53.48
702.758	53.82
703.078	52.58
703.398	53.74
703.719	52.94
704.039	53.13
704.359	52.9
704.679	53.59
704.999	53.55
705.319	53.72
705.638	53.92
705.958	54.11
706.278	53.86
706.597	54.33
706.917	53.53
707.237	53.31
707.556	54.68
707.876	52.8
708.195	52.96
708.514	54.14
708.834	54.27
709.153	53.2
709.472	53.89
709.791	55.36
710.11	54.02
710.429	53.54
710.748	54.18
711.067	54.15
711.386	54.1
711.705	54.26
712.023	53.23
712.342	53.75
712.661	53.85
712.979	55.15
713.298	53.84
713.616	54.87
713.935	54.66
714.253	54.3
714.572	54.24
714.89	53.91
715.208	55.23
715.526	54.21
715.844	54.71
716.162	55.01
716.48	53.61
716.798	54.25
717.116	53.93
717.434	55.03
717.752	54.45
718.069	53.76
718.387	54.28
718.705	53.9
719.022	55.25
719.34	53.47
719.657	54.65
719.975	55.14
720.292	54.75
720.609	54.75
720.927	54.34
721.244	55.17
721.561	54.05
721.878	54.95
722.195	55.97
722.512	55.3
722.829	55.62
723.146	55.29
723.463	53.68
723.779	54.32
724.096	55.12
724.413	55.5
724.729	56.18
725.046	55.82
725.362	54.22
725.679	55.26
725.995	56.26
726.311	55.59
726.628	54.05
726.944	55.14
727.26	56.58
727.576	55.37
727.892	53.68
728.208	54.26
728.524	55.61
728.84	55.25
729.156	57.09
729.472	56.57
729.787	56.46
730.103	55.93
730.419	55.44
730.734	55.55
731.05	56.29
731.365	56.59
731.681	54.52
731.996	55.24
732.311	55.79
732.626	55.64
732.942	54.99
733.257	56.15
733.572	55.79
733.887	55.54
734.202	54.82
734.517	55.79
734.832	55.15
735.146	55.23
735.461	55.48
735.776	54.98
736.091	56.43
736.405	57.37
736.72	56.87
737.034	55.57
737.349	56.72
737.663	54.49
737.977	56.37
738.292	56.56
738.606	57.19
738.92	56.89
739.234	57.01
739.548	56.43
739.862	56.74
740.176	55.56
740.49	56.88
740.804	55.98
741.117	56.18
741.431	54.83
741.745	54.93
742.058	57.45
742.372	56.49
742.685	55.13
742.999	55.18
743.312	56.61
743.626	55.93
743.939	56.64
744.252	57.5
744.565	57.38
744.878	56.09
745.191	56.93
745.505	57.23
745.817	56.21
746.13	56.44
746.443	57.55
746.756	54.67
747.069	55.54
747.381	57.25
747.694	56.49
748.007	58.43
748.319	57.3
748.632	54.57
748.944	56.83
749.256	57.71
749.569	57.1
749.881	55.83
750.193	56.61
750.505	57.4
750.817	57.62
751.129	57.47
751.441	56.78
751.753	56.4
752.065	58.91
752.377	58.82
752.689	55.69
753	56.02
753.312	56.19
753.624	57.54
753.935	55.73
754.247	57.2
754.558	58.56
754.869	57.02
755.181	57.59
755.492	58.64
755.803	56.35
756.114	57.59
756.425	57.23
756.736	56.34
757.047	57.95
757.358	57.86
757.669	58.18
757.98	58.5
758.291	59.39
758.601	56.61
758.912	56.95
759.223	57.63
759.533	57.06
759.844	59.01
760.154	56.3
760.464	59.08
760.775	59.73
761.085	58.19
761.395	58.2
761.705	58.21
762.016	59.05
762.326	57.64
762.636	57.47
762.945	57.03
763.255	55.87
763.565	56.78
763.875	58.16
764.185	58.59
764.494	59.58
764.804	58.24
765.113	57.39
765.423	58.14
765.732	58.14
766.042	58.63
766.351	58.55
766.66	59.09
766.97	57.9
767.279	58.11
767.588	59.09
767.897	58.62
768.206	57.19
768.515	56.87
768.824	57.55
769.133	55.7
769.441	56.87
769.75	58.41
770.059	59.15
770.367	57.22
770.676	56.71
770.984	58.69
771.293	60.19
771.601	56.88
771.91	59.63
772.218	58.56
772.526	55.84
772.834	58.16
773.142	58.42
773.45	58.46
773.758	59.15
774.066	55.83
774.374	58.62
774.682	57.9
774.99	59.64
775.298	56.2
775.605	57.31
775.913	58.28
776.22	59.43
776.528	58.49
776.835	59.27
777.143	58.41
777.45	57.81
777.757	58.38
778.065	60.44
778.372	56.19
778.679	60.55
778.986	58.95
779.293	56.6
779.6	58.14
779.907	59.16
780.214	59.76
780.52	57.43
780.827	59.59
781.134	61.81
781.44	55.69
781.747	57.8
782.053	59.05
782.36	59.22
782.666	58.68
782.973	58.11
783.279	61.4
783.585	58.11
783.891	58.2
784.197	59.29
784.503	58.67
784.809	59.02
785.115	57.42
785.421	57.26
785.727	57.06
786.033	59.3
786.339	58.34
786.644	59.14
786.95	58.92
787.255	59.96
787.561	59.92
787.866	58.19
788.172	58.9
788.477	59.24
788.782	57.85
789.088	58.85
789.393	54.66
789.698	55.95
790.003	58.08
790.308	58.08
790.613	60.18
790.918	57.37
791.223	59.68
791.527	61.74
791.832	59.83
792.137	60.49
792.441	57.9
792.746	58.3
793.05	62.42
793.355	57.54
793.659	59.49
793.963	56.13
794.268	57.46
794.572	61.12
794.876	55.12
795.18	59.38
795.484	58.77
795.788	57.98
796.092	60.38
796.396	60.75
796.7	60.76
797.004	58.7
797.307	60.28
797.611	60.29
797.915	60.9
798.218	62.11
798.522	61.65
798.825	58.71
799.128	59.98
799.432	57.39
799.735	58.9
800.038	56.08
800.341	60.57
800.644	58.54
800.947	57.24
801.25	61.08
801.553	63.28
801.856	59.67
802.159	61.12
802.462	60.87
802.764	55.01
803.067	53.89
803.37	61.23
803.672	59.97
803.975	56.21
804.277	60.35
804.579	62.25
804.882	60.26
805.184	55.02
805.486	60.78
805.788	60.25
806.09	60.58
806.392	59.24
806.694	59.82
806.996	61.35
807.298	53.69
807.6	65.42
807.902	61.58
808.203	58.44
808.505	62.58
808.807	63.26
809.108	61.35
809.409	59.44
809.711	63.65
810.012	61.68
810.313	61.03
810.615	61.68
810.916	58.77
811.217	63.68
811.518	62.7
811.819	54.91
812.12	63.74
812.421	60.24
812.722	61.16
813.023	61.05
813.323	62.68
813.624	63.79
813.925	59.06
814.225	62.53
814.526	58.35
814.826	62.31
815.126	63.97
815.427	58.89
815.727	63.93
816.027	61.95
816.327	52.88
816.627	58.48
816.927	56.61
817.227	62.39
817.527	54.21
817.827	57.27
818.127	60.81
818.427	59.29
818.727	64.1
819.026	59.15
819.326	61.04
819.625	57.84
819.925	67.12
820.224	63.22
820.524	59.46
820.823	59.24
821.122	53.58
821.421	60.81
821.72	61.21
822.019	62.41
822.318	59.34
822.617	61.26
822.916	63.11
823.215	62.24
823.514	58.51
823.813	62.51
824.111	61.93
824.41	61.49
824.709	61.12
825.007	61.29
825.306	61.26
825.604	61.73
825.902	60.76
826.201	60.93
826.499	61.88
826.797	60.36
827.095	58.57
827.393	61.23
827.691	62.18
827.989	62.52
828.287	59.74
828.585	60.8
828.882	61.04
829.18	59.99
829.478	60.51
829.775	62.31
830.073	61.63
830.37	61.68
830.668	60.5
830.965	60.86
831.263	60.27
831.56	59.53
831.857	62.09
832.154	62.29
832.451	60.14
832.748	61.8
833.045	66.48
833.342	55.43
833.639	59.79
833.936	57.39
834.232	60.07
834.529	54.33
834.826	59.09
835.122	62.76
835.419	57.31
835.715	63.24
836.012	61.34
836.308	64.7
836.604	59.5
836.901	63.4
837.197	61.83
837.493	63
837.789	60.69
838.085	61.35
838.381	57.98
838.677	59.39
838.972	62.15
839.268	64.71
839.564	59.48
839.86	56.98
840.155	61.67
840.451	58.71
840.746	63.72
841.042	51.57
841.337	56.06
841.632	61.61
841.928	58.85
842.223	62.52
842.518	54.36
842.813	64.84
843.108	58.88
843.403	61.9
843.698	60.89
843.993	62.26
844.287	60.15
844.582	67.55
844.877	61.93
845.171	65.26
845.466	60.66
845.761	55.25
846.055	61.11
846.349	50.67
846.644	58.47
846.938	59.05
847.232	59.66
847.526	64.9
847.82	47.24
848.114	62.41
848.408	75.52
848.702	67.08
848.996	62.54
849.29	54.55
849.584	53.26
849.877	62.98
850.171	71.04
850.465	47.48
850.758	55.52
851.052	58.18
851.345	66.14
851.638	70.98
851.932	57
852.225	48.38
852.518	61.79
852.811	65.64
853.104	64.5
853.397	63.03
853.69	51.13
853.983	52.48
854.276	62.47
854.569	59.53
854.861	52.59
855.154	67.17
855.447	46.74
855.739	67.37
856.032	60.62
856.324	42.03
856.616	73.56
856.909	66.52
857.201	58.96
857.493	45.44
857.785	45.86
858.077	36.33
858.369	43.54
858.661	56.44
858.953	54.92
859.245	53.93
859.537	57.63
859.829	55.51
860.12	55.48
860.412	53.96
860.703	57.92
860.995	44.3
861.286	48.02
861.578	44.39
861.869	72.25
862.16	55.74
862.452	85.77
862.743	70.97
863.034	79.61
863.325	58.37
863.616	64.01
863.907	50.03
864.198	65.38
864.488	39.93
864.779	62.3
865.07	51.77
865.36	50.59
865.651	71.09
865.941	62.18
866.232	85.67
866.522	65.5
866.813	80.34
867.103	48.74
867.393	57.88
867.683	66.92
867.973	57.51
868.263	85.37
868.553	79.82
868.843	48.18
869.133	53.99
869.423	56.66
869.713	74.76
870.002	46.28
870.292	50
870.582	74.15
870.871	67.86
871.161	55.56
871.45	64.33
871.739	48.12
872.029	72.01
872.318	83.14
872.607	83.2
872.896	53.63
873.185	63.34
873.474	55.01
873.763	82.49
874.052	49.77
874.341	31.62
874.63	81.71
874.918	75.57
875.207	70.44
875.496	64.91
875.784	76.4
876.073	74.24
876.361	72.41
876.649	61.57
876.938	84.94
877.226	35.35
877.514	72.99
877.802	40.88
878.09	63.7
878.378	69.7
878.666	60.46
878.954	60.19
879.242	58.35
879.53	81.8
879.817	78.42
880.105	77.85
880.392	51.58
880.68	61.94
880.967	65.16
881.255	73.67
881.542	71.1
881.83	62.94
882.117	70.3
882.404	39.73
882.691	52.89
882.978	75.39
883.265	53.37
883.552	52.12
883.839	76.19
884.126	60.3
884.413	50.99
884.699	58.25
884.986	66.52
885.273	61.96
885.559	61.96
885.846	61.96
