Data from 0050_chest_Reflection__1__16.txt Node

Date: Fri Dec 16 13:56:32 CST 2022
User: ToomeyLab
Spectrometer: FLMS14357
Trigger mode: 0
Integration Time (sec): 1.000000E-2
Scans to average: 100
Electric dark correction enabled: true
Nonlinearity correction enabled: false
Boxcar width: 0
XAxis mode: Wavelengths
Number of Pixels in Spectrum: 2048
>>>>>Begin Spectral Data<<<<<
189.047	60.04
189.435	60.04
189.823	60.04
190.211	55.18
190.599	33.98
190.987	47.68
191.375	-39.35
191.763	207.91
192.151	213.82
192.538	74.83
192.926	131.43
193.314	75.27
193.702	-744.07
194.089	59.32
194.477	170.06
194.864	119.34
195.252	38.04
195.639	161
196.027	93.5
196.414	-51.11
196.801	188.14
197.189	202.94
197.576	0
197.963	60.88
198.351	-4.01
198.738	-18.63
199.125	14.72
199.512	47.15
199.899	-31.61
200.286	-31.7
200.673	32.46
201.06	42.02
201.447	2.52
201.833	12.03
202.22	23.3
202.607	21.1
202.994	-13.47
203.38	-18.52
203.767	6.34
204.154	-19.11
204.54	15.61
204.927	18.13
205.313	19.92
205.699	9.38
206.086	10.53
206.472	10.36
206.858	16.81
207.245	21.8
207.631	-32.06
208.017	25.25
208.403	8.76
208.789	-1.76
209.175	29.68
209.561	-5.77
209.947	-5.04
210.333	-2.5
210.719	34.95
211.105	-33.03
211.491	-14.85
211.876	43.08
212.262	-27.9
212.648	-1.55
213.034	-11.73
213.419	12.25
213.805	-3.72
214.19	-8.38
214.576	1.61
214.961	-21.19
215.346	0
215.732	-2.4
216.117	-3.18
216.502	-15.76
216.888	2.15
217.273	33.67
217.658	8.05
218.043	27.18
218.428	9.51
218.813	-13.75
219.198	3.06
219.583	19.96
219.968	20.78
220.353	0
220.738	8.93
221.122	6.28
221.507	7.96
221.892	3
222.276	10.41
222.661	-6.93
223.046	-0.52
223.43	-1.35
223.815	4.39
224.199	4.67
224.583	-6.69
224.968	-2.58
225.352	2.14
225.736	12.94
226.121	-6.9
226.505	4.87
226.889	11.3
227.273	3.51
227.657	3.48
228.041	4.94
228.425	4.34
228.809	2.34
229.193	0.51
229.577	1.42
229.961	2.05
230.344	2.35
230.728	2.63
231.112	2.48
231.495	2.55
231.879	3.46
232.263	1.23
232.646	1.93
233.03	1.58
233.413	2.3
233.797	4.78
234.18	3.3
234.563	1.23
234.946	3.57
235.33	3.46
235.713	0.76
236.096	1.67
236.479	3
236.862	1.18
237.245	3.29
237.628	4.28
238.011	0.68
238.394	4.23
238.777	1.76
239.16	0.98
239.543	1.18
239.925	1.42
240.308	2.9
240.691	1.78
241.073	1.85
241.456	2.36
241.838	1.87
242.221	2.86
242.603	2.47
242.986	2.87
243.368	2.37
243.75	2.32
244.133	2.27
244.515	2.9
244.897	2.38
245.279	2.18
245.661	2.94
246.043	2.68
246.425	1.27
246.807	2.51
247.189	1.75
247.571	2.56
247.953	2.22
248.335	2.61
248.717	2.35
249.098	2.49
249.48	1.84
249.862	2.48
250.243	2.39
250.625	2.13
251.006	3.06
251.388	3.13
251.769	2.24
252.151	1.96
252.532	2.27
252.913	2.51
253.295	2.3
253.676	2.66
254.057	2.21
254.438	2.15
254.819	2.39
255.2	2.02
255.581	2.25
255.962	2.81
256.343	2.08
256.724	1.94
257.105	2.87
257.486	2.86
257.867	1.35
258.247	2.71
258.628	2.55
259.009	2.11
259.389	2.48
259.77	2.61
260.15	3.1
260.531	2.12
260.911	2.2
261.292	2.27
261.672	2.13
262.052	2.16
262.432	2.09
262.813	2.3
263.193	1.98
263.573	2.37
263.953	2.56
264.333	2.34
264.713	1.84
265.093	2.24
265.473	3.05
265.853	1.66
266.233	1.69
266.612	2.49
266.992	1.98
267.372	2.08
267.752	1.61
268.131	2.3
268.511	2.67
268.89	2.56
269.27	1.73
269.649	2.58
270.029	2.64
270.408	2.72
270.787	1.87
271.167	2.23
271.546	1.65
271.925	1.99
272.304	2.18
272.683	1.95
273.062	2.74
273.441	2.26
273.82	2.72
274.199	2.54
274.578	1.88
274.957	2.06
275.336	2.32
275.715	2.06
276.093	2.4
276.472	1.98
276.851	2.3
277.229	2.9
277.608	1.87
277.986	2.04
278.365	2.04
278.743	2.12
279.122	1.79
279.5	1.89
279.878	1.47
280.257	2.67
280.635	1.8
281.013	2.76
281.391	2.08
281.769	2.16
282.147	2.19
282.525	1.68
282.903	2.28
283.281	2.22
283.659	2.05
284.037	2.2
284.415	2.69
284.792	2.17
285.17	1.79
285.548	2.19
285.925	2.23
286.303	1.96
286.68	2.37
287.058	1.93
287.435	1.91
287.813	2.37
288.19	2.85
288.567	2.05
288.945	2
289.322	1.73
289.699	2.26
290.076	2.68
290.453	2.33
290.83	2.47
291.207	2.23
291.584	2.1
291.961	2.5
292.338	2.22
292.715	2.63
293.092	2.41
293.469	2.88
293.845	2.51
294.222	2.23
294.599	2.69
294.975	2.59
295.352	1.84
295.728	2.33
296.105	2.29
296.481	2.23
296.858	2.44
297.234	2.38
297.61	2.44
297.986	2.37
298.363	2.08
298.739	2.43
299.115	2.13
299.491	2.2
299.867	2.46
300.243	2.43
300.619	2.07
300.995	2.78
301.371	2.79
301.746	2.32
302.122	2.87
302.498	2.37
302.874	2.52
303.249	2.43
303.625	2.59
304	2.1
304.376	2.68
304.751	2.65
305.127	2.32
305.502	2.65
305.878	2.22
306.253	2.82
306.628	3.09
307.003	2.53
307.378	2.35
307.754	3.03
308.129	2.12
308.504	2.04
308.879	2.73
309.254	2.37
309.629	2.28
310.003	2.54
310.378	2.6
310.753	2.69
311.128	2.48
311.502	2.37
311.877	2.63
312.252	2.62
312.626	2.62
313.001	2.66
313.375	2.56
313.75	2.48
314.124	3.09
314.498	2.66
314.873	2.57
315.247	2
315.621	2.81
315.995	2.36
316.369	2.89
316.743	2.81
317.117	2.26
317.491	2.59
317.865	2.49
318.239	2.77
318.613	2.03
318.987	2.84
319.361	2.56
319.734	2.89
320.108	2.79
320.482	2.84
320.855	2.37
321.229	3.19
321.602	2.41
321.976	2.6
322.349	2.19
322.723	2.55
323.096	2.7
323.469	2.71
323.843	2.88
324.216	2.64
324.589	2.9
324.962	2.75
325.335	2.53
325.708	2.69
326.081	3.13
326.454	2.78
326.827	3.12
327.2	3.27
327.573	3.05
327.945	2.69
328.318	2.86
328.691	2.66
329.063	2.45
329.436	2.58
329.809	2.62
330.181	2.83
330.553	2.81
330.926	2.8
331.298	2.44
331.671	2.59
332.043	2.78
332.415	3.02
332.787	3.64
333.159	2.49
333.532	2.84
333.904	3.15
334.276	2.98
334.648	2.61
335.02	2.46
335.391	3.06
335.763	2.66
336.135	2.37
336.507	3.24
336.879	2.9
337.25	2.41
337.622	2.65
337.993	2.9
338.365	2.87
338.736	2.96
339.108	2.51
339.479	2.69
339.851	3.21
340.222	2.82
340.593	2.67
340.964	2.99
341.336	2.44
341.707	2.97
342.078	2.28
342.449	3.4
342.82	2.4
343.191	2.66
343.562	2.6
343.933	2.55
344.303	3.01
344.674	2.75
345.045	3.11
345.416	3.08
345.786	2.52
346.157	2.59
346.527	2.55
346.898	2.55
347.268	2.91
347.639	2.99
348.009	2.74
348.38	2.79
348.75	3.14
349.12	2.81
349.49	2.5
349.861	3.16
350.231	2.8
350.601	2.89
350.971	2.9
351.341	2.98
351.711	2.55
352.081	2.71
352.45	2.99
352.82	2.72
353.19	2.84
353.56	3.01
353.929	2.74
354.299	2.53
354.669	2.93
355.038	2.94
355.408	3.36
355.777	2.87
356.147	3.25
356.516	3.17
356.885	2.75
357.254	2.77
357.624	3.09
357.993	2.66
358.362	3.25
358.731	2.8
359.1	2.78
359.469	2.94
359.838	2.82
360.207	2.44
360.576	3.08
360.945	2.83
361.314	3.19
361.682	2.7
362.051	2.87
362.42	2.96
362.788	2.9
363.157	2.82
363.525	2.81
363.894	2.57
364.262	2.69
364.631	3.4
364.999	2.31
365.367	3.19
365.735	2.62
366.104	2.69
366.472	3.01
366.84	3.02
367.208	2.49
367.576	2.98
367.944	3.01
368.312	2.54
368.68	3.12
369.048	3.02
369.416	3.12
369.783	3.05
370.151	3.02
370.519	2.98
370.886	2.56
371.254	2.9
371.621	2.96
371.989	2.99
372.356	2.93
372.724	3
373.091	2.96
373.458	3.01
373.826	2.71
374.193	3.12
374.56	2.85
374.927	2.93
375.294	3.39
375.661	3.16
376.028	3.01
376.395	2.83
376.762	3.31
377.129	3.25
377.496	3.11
377.863	3.08
378.229	3
378.596	2.85
378.963	2.99
379.329	2.74
379.696	2.99
380.062	3.38
380.429	3.04
380.795	2.91
381.161	3.04
381.528	2.64
381.894	3.1
382.26	2.91
382.626	2.76
382.993	2.79
383.359	3.01
383.725	3.08
384.091	2.99
384.457	3.14
384.823	2.95
385.188	3.38
385.554	3.07
385.92	3.17
386.286	3.2
386.651	3.05
387.017	3.06
387.383	3.04
387.748	2.85
388.114	3.16
388.479	3.05
388.845	3.03
389.21	3.13
389.575	3.16
389.94	2.98
390.306	3.06
390.671	2.81
391.036	3.32
391.401	3.26
391.766	3.12
392.131	3.08
392.496	3.11
392.861	3
393.226	3.14
393.591	3.16
393.956	3.21
394.32	3
394.685	3.25
395.05	2.95
395.414	3.19
395.779	3.04
396.143	3.23
396.508	3.19
396.872	3.22
397.236	2.81
397.601	3.12
397.965	2.86
398.329	3.3
398.694	2.74
399.058	3.21
399.422	3.43
399.786	3.09
400.15	2.96
400.514	3.24
400.878	3.17
401.242	3.14
401.605	3.2
401.969	3.25
402.333	3.05
402.697	3.46
403.06	3.18
403.424	3.16
403.787	3.23
404.151	3
404.514	3.21
404.878	3.41
405.241	3.15
405.604	3.23
405.968	3.14
406.331	3.02
406.694	3.21
407.057	3.62
407.42	3.3
407.783	3.06
408.146	3.13
408.509	3.16
408.872	3.24
409.235	3.35
409.598	3.3
409.961	3.4
410.323	3.2
410.686	3.25
411.049	3.17
411.411	3.43
411.774	3.23
412.136	3.3
412.499	3.2
412.861	2.99
413.223	3.4
413.586	3.29
413.948	3.35
414.31	3.48
414.672	3.31
415.035	3.44
415.397	3.42
415.759	3.36
416.121	3.46
416.483	3.47
416.845	3.31
417.206	3.48
417.568	3.21
417.93	3.4
418.292	3.36
418.653	3.25
419.015	3.31
419.377	3.37
419.738	3.23
420.1	3.25
420.461	3.22
420.822	3.29
421.184	3.21
421.545	3.27
421.906	3.28
422.267	3.05
422.629	3.24
422.99	3.28
423.351	3.28
423.712	3.34
424.073	3.41
424.434	3.13
424.795	3.19
425.155	3.38
425.516	3.25
425.877	3.28
426.238	3.15
426.598	3.3
426.959	3.22
427.32	3.36
427.68	3.37
428.041	3.48
428.401	3.38
428.761	3.31
429.122	3.45
429.482	3.28
429.842	3.51
430.202	3.51
430.563	3.56
430.923	3.36
431.283	3.38
431.643	3.28
432.003	3.5
432.363	3.39
432.722	3.31
433.082	3.39
433.442	3.48
433.802	3.4
434.161	3.47
434.521	3.47
434.881	3.49
435.24	3.37
435.6	3.44
435.959	3.51
436.319	3.31
436.678	3.46
437.037	3.52
437.396	3.62
437.756	3.54
438.115	3.45
438.474	3.45
438.833	3.53
439.192	3.55
439.551	3.36
439.91	3.6
440.269	3.51
440.628	3.49
440.987	3.4
441.345	3.42
441.704	3.6
442.063	3.44
442.421	3.42
442.78	3.54
443.138	3.49
443.497	3.46
443.855	3.52
444.214	3.54
444.572	3.45
444.93	3.59
445.288	3.56
445.647	3.63
446.005	3.41
446.363	3.47
446.721	3.39
447.079	3.51
447.437	3.39
447.795	3.44
448.153	3.47
448.51	3.44
448.868	3.59
449.226	3.51
449.584	3.52
449.941	3.55
450.299	3.6
450.656	3.55
451.014	3.63
451.371	3.67
451.729	3.67
452.086	3.54
452.443	3.54
452.801	3.63
453.158	3.56
453.515	3.58
453.872	3.71
454.229	3.6
454.586	3.63
454.943	3.56
455.3	3.73
455.657	3.53
456.014	3.77
456.371	3.67
456.727	3.72
457.084	3.54
457.441	3.54
457.797	3.61
458.154	3.68
458.51	3.68
458.867	3.53
459.223	3.45
459.58	3.51
459.936	3.65
460.292	3.78
460.648	3.56
461.005	3.52
461.361	3.56
461.717	3.64
462.073	3.61
462.429	3.7
462.785	3.8
463.141	3.8
463.496	3.69
463.852	3.86
464.208	3.75
464.564	3.68
464.919	3.7
465.275	3.81
465.631	3.77
465.986	3.58
466.342	3.76
466.697	3.63
467.052	3.9
467.408	3.78
467.763	3.64
468.118	3.73
468.473	3.75
468.829	3.89
469.184	3.98
469.539	3.79
469.894	3.75
470.249	3.76
470.603	3.8
470.958	3.8
471.313	3.93
471.668	3.76
472.023	3.98
472.377	3.77
472.732	3.74
473.086	3.74
473.441	3.91
473.795	3.96
474.15	3.81
474.504	4
474.859	3.9
475.213	3.78
475.567	3.76
475.921	4.07
476.275	4
476.63	3.92
476.984	3.84
477.338	4.08
477.692	3.94
478.045	3.75
478.399	4.05
478.753	3.76
479.107	3.85
479.461	3.97
479.814	3.79
480.168	3.9
480.521	3.82
480.875	4.04
481.228	3.93
481.582	3.89
481.935	3.9
482.289	3.85
482.642	3.95
482.995	3.81
483.348	3.87
483.701	3.84
484.055	3.86
484.408	3.75
484.761	3.62
485.114	3.58
485.466	3.65
485.819	3.74
486.172	3.82
486.525	3.87
486.878	3.85
487.23	3.86
487.583	3.85
487.936	3.86
488.288	3.8
488.641	3.78
488.993	3.74
489.345	3.78
489.698	3.82
490.05	3.84
490.402	4
490.754	4.03
491.107	3.98
491.459	4.01
491.811	4.04
492.163	3.97
492.515	3.89
492.866	3.79
493.218	3.87
493.57	3.91
493.922	3.97
494.274	3.99
494.625	4.03
494.977	4.11
495.328	4.21
495.68	4.3
496.031	4.22
496.383	4.1
496.734	4.19
497.086	4.07
497.437	4.2
497.788	4.04
498.139	4.16
498.49	4.11
498.842	4.2
499.193	4.11
499.544	4.18
499.894	4.19
500.245	4.16
500.596	4.21
500.947	4.16
501.298	4.17
501.648	4.27
501.999	4.38
502.35	4.31
502.7	4.38
503.051	4.31
503.401	4.3
503.752	4.21
504.102	4.27
504.452	4.22
504.803	4.07
505.153	4.23
505.503	4.2
505.853	4.25
506.203	4.37
506.553	4.34
506.903	4.31
507.253	4.39
507.603	4.29
507.953	4.43
508.303	4.36
508.652	4.25
509.002	4.36
509.352	4.41
509.701	4.3
510.051	4.24
510.4	4.32
510.75	4.37
511.099	4.3
511.449	4.28
511.798	4.48
512.147	4.34
512.496	4.49
512.846	4.3
513.195	4.4
513.544	4.33
513.893	4.28
514.242	4.48
514.591	4.47
514.939	4.45
515.288	4.43
515.637	4.57
515.986	4.39
516.334	4.59
516.683	4.45
517.032	4.36
517.38	4.49
517.729	4.42
518.077	4.47
518.426	4.48
518.774	4.44
519.122	4.37
519.47	4.41
519.819	4.48
520.167	4.53
520.515	4.41
520.863	4.46
521.211	4.53
521.559	4.54
521.907	4.55
522.255	4.69
522.602	4.67
522.95	4.63
523.298	4.68
523.645	4.67
523.993	4.64
524.341	4.68
524.688	4.68
525.036	4.76
525.383	4.78
525.73	4.57
526.078	4.74
526.425	4.58
526.772	4.53
527.119	4.51
527.466	4.65
527.814	4.6
528.161	4.68
528.508	4.6
528.854	4.55
529.201	4.48
529.548	4.51
529.895	4.42
530.242	4.46
530.588	4.58
530.935	4.61
531.282	4.66
531.628	4.68
531.975	4.68
532.321	4.7
532.667	4.76
533.014	4.84
533.36	4.75
533.706	4.74
534.052	4.68
534.399	4.62
534.745	4.63
535.091	4.67
535.437	4.8
535.783	4.85
536.129	4.9
536.474	4.9
536.82	4.8
537.166	4.88
537.512	4.91
537.857	4.82
538.203	4.85
538.549	4.96
538.894	4.87
539.239	5.09
539.585	4.97
539.93	5.01
540.276	4.96
540.621	5.09
540.966	4.97
541.311	5.06
541.656	4.89
542.001	5.05
542.346	4.9
542.691	4.8
543.036	4.83
543.381	4.96
543.726	5.02
544.071	5.06
544.415	5.02
544.76	5.02
545.105	5.04
545.449	5.07
545.794	5.09
546.138	5.24
546.483	5.22
546.827	5.21
547.171	5.06
547.516	5.23
547.86	5.2
548.204	5.24
548.548	5.27
548.892	5.26
549.236	5.27
549.58	5.2
549.924	5.36
550.268	5.42
550.612	5.48
550.956	5.3
551.3	5.47
551.643	5.45
551.987	5.37
552.33	5.45
552.674	5.46
553.017	5.54
553.361	5.49
553.704	5.47
554.048	5.45
554.391	5.51
554.734	5.59
555.077	5.51
555.42	5.46
555.764	5.68
556.107	5.58
556.45	5.44
556.793	5.7
557.135	5.72
557.478	5.66
557.821	5.68
558.164	5.62
558.507	5.71
558.849	5.64
559.192	5.96
559.534	5.61
559.877	5.72
560.219	5.8
560.562	5.94
560.904	5.72
561.246	5.99
561.589	5.86
561.931	5.99
562.273	5.86
562.615	5.97
562.957	5.81
563.299	6.04
563.641	5.93
563.983	5.86
564.325	5.91
564.667	5.87
565.008	5.87
565.35	6.22
565.692	6.03
566.033	6.13
566.375	5.75
566.716	6.23
567.058	6.11
567.399	6.04
567.741	6.1
568.082	5.95
568.423	6.12
568.764	6.24
569.105	6.14
569.447	6.1
569.788	6.05
570.129	6.09
570.47	6.17
570.811	6.13
571.151	6.21
571.492	6.34
571.833	6.28
572.174	6.29
572.514	6.23
572.855	6.28
573.195	6.11
573.536	6.27
573.876	6.28
574.217	6.33
574.557	6.31
574.898	6.32
575.238	6.33
575.578	6.43
575.918	6.5
576.258	6.32
576.598	6.45
576.938	6.68
577.278	6.4
577.618	6.48
577.958	6.55
578.298	6.44
578.638	6.5
578.977	6.7
579.317	6.87
579.657	6.55
579.996	6.54
580.336	6.4
580.675	6.8
581.014	6.7
581.354	6.77
581.693	6.68
582.032	6.66
582.372	6.95
582.711	6.65
583.05	6.85
583.389	6.85
583.728	6.93
584.067	6.76
584.406	6.93
584.745	6.99
585.083	7.06
585.422	6.84
585.761	6.93
586.1	7.12
586.438	7.25
586.777	6.88
587.115	7.2
587.454	6.99
587.792	6.85
588.13	7.29
588.469	7.22
588.807	7.22
589.145	7.13
589.483	7.03
589.821	7.2
590.159	7.1
590.497	6.97
590.835	7.07
591.173	7.08
591.511	7.21
591.849	7.22
592.187	7.27
592.524	7.32
592.862	7.44
593.2	7.36
593.537	7.33
593.875	7.56
594.212	7.57
594.55	7.3
594.887	7.61
595.224	7.4
595.561	7.3
595.899	7.4
596.236	7.61
596.573	7.37
596.91	7.39
597.247	7.32
597.584	7.41
597.921	7.36
598.258	7.43
598.594	7.4
598.931	7.48
599.268	7.57
599.604	7.66
599.941	7.61
600.277	7.83
600.614	7.64
600.95	7.67
601.287	7.9
601.623	7.85
601.959	7.65
602.296	7.82
602.632	8.09
602.968	7.82
603.304	7.65
603.64	7.82
603.976	7.93
604.312	7.86
604.648	7.92
604.984	7.82
605.319	7.97
605.655	7.93
605.991	7.88
606.326	7.85
606.662	7.68
606.998	8.04
607.333	8
607.668	8.17
608.004	8.07
608.339	8.09
608.674	8.02
609.01	8.28
609.345	8.19
609.68	7.99
610.015	8.26
610.35	8.21
610.685	8.14
611.02	8.25
611.355	8.22
611.689	8.23
612.024	8.38
612.359	8.25
612.694	8.37
613.028	8.37
613.363	8.29
613.697	8.35
614.032	8.45
614.366	8.44
614.7	8.62
615.035	8.39
615.369	8.78
615.703	8.97
616.037	8.76
616.371	8.67
616.705	8.56
617.039	8.76
617.373	8.49
617.707	8.57
618.041	8.87
618.375	8.58
618.709	8.71
619.042	8.75
619.376	8.74
619.71	8.64
620.043	8.52
620.377	8.77
620.71	9.15
621.043	8.58
621.377	8.89
621.71	9.3
622.043	9.15
622.376	8.74
622.709	8.91
623.043	8.83
623.376	9.05
623.709	9.15
624.041	9.02
624.374	9.17
624.707	9.01
625.04	9.29
625.373	9.23
625.705	9.06
626.038	9.35
626.37	9.06
626.703	8.93
627.035	9.34
627.368	9.25
627.7	9.19
628.032	9.31
628.365	9.08
628.697	9.03
629.029	9.77
629.361	9.06
629.693	9.37
630.025	9.64
630.357	9.24
630.689	9.74
631.021	9.42
631.353	9.63
631.684	9.56
632.016	9.38
632.348	9.59
632.679	9.59
633.011	9.69
633.342	9.69
633.674	9.6
634.005	9.79
634.336	9.51
634.668	9.37
634.999	9.57
635.33	9.86
635.661	9.51
635.992	9.69
636.323	9.87
636.654	9.73
636.985	10.13
637.316	9.89
637.647	10.13
637.977	9.83
638.308	9.73
638.639	9.5
638.969	10.05
639.3	9.99
639.63	9.61
639.961	10.15
640.291	10.12
640.622	9.99
640.952	9.82
641.282	9.6
641.612	10.15
641.943	10.65
642.273	10.55
642.603	10.29
642.933	9.77
643.263	10.25
643.592	10.38
643.922	10.75
644.252	9.99
644.582	10.27
644.911	9.78
645.241	10.23
645.571	10.44
645.9	10.67
646.23	10.4
646.559	10.65
646.888	10.24
647.218	11.16
647.547	10.37
647.876	10.84
648.205	10.43
648.534	10.67
648.863	10.8
649.192	10.6
649.521	10.62
649.85	10.7
650.179	10.39
650.508	10.59
650.837	10.94
651.165	11.09
651.494	10.4
651.822	10.75
652.151	11.08
652.479	11.19
652.808	10.37
653.136	10.42
653.465	11.38
653.793	11.42
654.121	11.23
654.449	10.96
654.777	10.9
655.105	11.22
655.433	11.4
655.761	10.72
656.089	11.16
656.417	11.01
656.745	11.45
657.073	11.48
657.4	11.31
657.728	11.25
658.056	11.17
658.383	11.28
658.711	11.51
659.038	11.29
659.365	11.33
659.693	10.89
660.02	11.27
660.347	11.5
660.674	10.96
661.001	10.78
661.329	11.32
661.656	11.15
661.982	11.18
662.309	11.31
662.636	11.16
662.963	11.96
663.29	11.29
663.616	11.75
663.943	11.61
664.27	11.77
664.596	11.19
664.923	11.89
665.249	11.81
665.576	11.59
665.902	11.8
666.228	11.47
666.554	11.43
666.881	12.16
667.207	11.43
667.533	11.81
667.859	11.59
668.185	11.9
668.511	11.21
668.837	11.52
669.162	11.75
669.488	11.75
669.814	12.13
670.139	12.41
670.465	12.23
670.791	12
671.116	12.16
671.442	11.99
671.767	12.21
672.092	12.02
672.418	12.12
672.743	12.19
673.068	11.93
673.393	12.29
673.718	11.68
674.043	11.89
674.368	12.75
674.693	12.11
675.018	12.17
675.343	12.48
675.667	12.31
675.992	11.95
676.317	12.6
676.641	12.64
676.966	12.05
677.29	12.5
677.615	13.24
677.939	12.48
678.264	12.55
678.588	12.08
678.912	12.24
679.236	12.26
679.56	12.16
679.885	12.84
680.209	11.8
680.532	12.31
680.856	12.9
681.18	12.71
681.504	12.51
681.828	12.01
682.152	12.42
682.475	12.45
682.799	12.42
683.122	12.33
683.446	12.52
683.769	12.22
684.093	12.73
684.416	12.69
684.739	13.2
685.062	12.7
685.386	12.91
685.709	12.28
686.032	12.99
686.355	12.43
686.678	12.69
687.001	12.71
687.324	12.7
687.646	13.05
687.969	12.94
688.292	13.47
688.614	13.46
688.937	12.65
689.26	13.03
689.582	12.79
689.904	13.22
690.227	12.93
690.549	13.44
690.871	13.66
691.194	13.54
691.516	13.18
691.838	13.18
692.16	13.46
692.482	13.09
692.804	13.27
693.126	13.37
693.448	13.76
693.769	13.54
694.091	13.33
694.413	13.32
694.735	13.64
695.056	13.43
695.378	12.92
695.699	14.38
696.021	13.13
696.342	13.1
696.663	13.97
696.984	14.39
697.306	13.9
697.627	13
697.948	13.48
698.269	13.2
698.59	13.74
698.911	13.31
699.232	13.95
699.553	14.31
699.873	13.3
700.194	13.82
700.515	13.63
700.835	13.91
701.156	14.04
701.477	13.63
701.797	14.26
702.117	14.1
702.438	14.3
702.758	14.17
703.078	13.36
703.398	13.95
703.719	13.92
704.039	14.01
704.359	13.42
704.679	14
704.999	13.84
705.319	13.74
705.638	14.11
705.958	14.78
706.278	14.41
706.597	14.24
706.917	14.37
707.237	15.39
707.556	14.57
707.876	13.84
708.195	14.04
708.514	14.83
708.834	14.32
709.153	14.48
709.472	13.87
709.791	14.61
710.11	14.99
710.429	13.54
710.748	14.93
711.067	14.89
711.386	15.12
711.705	14.42
712.023	15.43
712.342	14.41
712.661	14.82
712.979	15.66
713.298	14.72
713.616	15.1
713.935	14.86
714.253	15.93
714.572	15.41
714.89	14.21
715.208	15.16
715.526	15.12
715.844	14.87
716.162	14.37
716.48	15.04
716.798	15.27
717.116	15.92
717.434	15.46
717.752	14.58
718.069	15.01
718.387	14.77
718.705	14.91
719.022	15.86
719.34	14.44
719.657	15
719.975	15.74
720.292	15.41
720.609	14.59
720.927	15
721.244	15.28
721.561	15.29
721.878	14.96
722.195	15.16
722.512	15.62
722.829	16.45
723.146	15.04
723.463	15.02
723.779	14.69
724.096	14.99
724.413	15
724.729	15.89
725.046	16.18
725.362	13.88
725.679	15.88
725.995	15.05
726.311	15.5
726.628	14.58
726.944	16.18
727.26	15.13
727.576	16.91
727.892	14.78
728.208	14.42
728.524	17.46
728.84	14.94
729.156	16.25
729.472	17.92
729.787	16.54
730.103	15.79
730.419	16.59
730.734	15.14
731.05	17.17
731.365	15.83
731.681	14.26
731.996	16.17
732.311	16.74
732.626	15.78
732.942	15.43
733.257	16.21
733.572	15.94
733.887	16.68
734.202	15.13
734.517	15.8
734.832	15.96
735.146	16.29
735.461	16.88
735.776	16.74
736.091	16.82
736.405	17.06
736.72	16.07
737.034	15.41
737.349	16.83
737.663	17.09
737.977	17.13
738.292	16.84
738.606	16.47
738.92	16.66
739.234	16.78
739.548	16.72
739.862	16.36
740.176	16.89
740.49	17.42
740.804	16.92
741.117	17.06
741.431	14.86
741.745	15.68
742.058	17.58
742.372	16
742.685	15.18
742.999	16.09
743.312	17.61
743.626	15.73
743.939	16.8
744.252	17.76
744.565	15.94
744.878	15.75
745.191	16.06
745.505	16.51
745.817	16.52
746.13	18.07
746.443	16.74
746.756	17.39
747.069	15.32
747.381	17.55
747.694	16.44
748.007	18.95
748.319	17.42
748.632	16.72
748.944	18.61
749.256	19.88
749.569	16.67
749.881	17.12
750.193	17.95
750.505	17.09
750.817	18.48
751.129	17.42
751.441	16.61
751.753	18.44
752.065	16.08
752.377	14.75
752.689	16.36
753	15.26
753.312	16.85
753.624	17.77
753.935	17.33
754.247	18.4
754.558	19.31
754.869	18.02
755.181	17.21
755.492	18.66
755.803	16.51
756.114	16.66
756.425	16.33
756.736	16.53
757.047	17.62
757.358	16.34
757.669	17.53
757.98	17.84
758.291	18.33
758.601	17.11
758.912	17.45
759.223	17.82
759.533	18.23
759.844	17.13
760.154	18.47
760.464	16.75
760.775	19.06
761.085	16.78
761.395	19.42
761.705	18.42
762.016	18.27
762.326	17.94
762.636	16.79
762.945	16.11
763.255	17.62
763.565	17.24
763.875	19.45
764.185	19.77
764.494	18.13
764.804	17.88
765.113	17.89
765.423	17.99
765.732	17.21
766.042	18.84
766.351	17.49
766.66	18.16
766.97	18.51
767.279	19.47
767.588	19.5
767.897	18.71
768.206	18.7
768.515	17.7
768.824	18.57
769.133	17.28
769.441	19.11
769.75	18.01
770.059	17.1
770.367	17.63
770.676	17.15
770.984	18.57
771.293	20.26
771.601	16.88
771.91	19.75
772.218	17.11
772.526	18.41
772.834	19.84
773.142	16.87
773.45	17.88
773.758	21.03
774.066	17.56
774.374	19.63
774.682	20.14
774.99	19.38
775.298	20.53
775.605	17.81
775.913	17.37
776.22	19.47
776.528	19.39
776.835	19.87
777.143	18.49
777.45	19.03
777.757	18.56
778.065	20.03
778.372	18.76
778.679	18.13
778.986	19.15
779.293	18.79
779.6	19.93
779.907	16.22
780.214	22.28
780.52	19.09
780.827	21.29
781.134	19.86
781.44	18.64
781.747	19.99
782.053	18.59
782.36	18.38
782.666	19.32
782.973	18.3
783.279	19.42
783.585	15.26
783.891	20.7
784.197	21.9
784.503	19.71
784.809	22.94
785.115	15.12
785.421	19.51
785.727	16.38
786.033	15.36
786.339	22.35
786.644	18.34
786.95	18.31
787.255	19.22
787.561	19.5
787.866	15.81
788.172	20.79
788.477	17.35
788.782	15.61
789.088	21.82
789.393	18.16
789.698	19.99
790.003	20.03
790.308	19.37
790.613	19.63
790.918	20.51
791.223	17.09
791.527	24.87
791.832	19.83
792.137	22.08
792.441	19.32
792.746	18.4
793.05	25.09
793.355	20.95
793.659	18.4
793.963	21.67
794.268	16.56
794.572	25.51
794.876	19.49
795.18	18.63
795.484	18.12
795.788	21.37
796.092	17.45
796.396	18.96
796.7	18.89
797.004	21.31
797.307	18.04
797.611	23.24
797.915	15.92
798.218	25.17
798.522	19.28
798.825	21.16
799.128	21.76
799.432	20.21
799.735	18.36
800.038	18.43
800.341	20.23
800.644	18.64
800.947	21.99
801.25	20.57
801.553	21.39
801.856	19.05
802.159	16.83
802.462	17.31
802.764	19.02
803.067	18.56
803.37	19.02
803.672	17.56
803.975	17.72
804.277	23.96
804.579	21.83
804.882	18.06
805.184	17.55
805.486	21.95
805.788	19.08
806.09	19.18
806.392	21.86
806.694	21.6
806.996	22.93
807.298	17.09
807.6	19.44
807.902	26.07
808.203	22.18
808.505	19.4
808.807	21.52
809.108	21.44
809.409	25.27
809.711	20.72
810.012	22.06
810.313	22.16
810.615	19.88
810.916	17.3
811.217	26.33
811.518	21.97
811.819	13.68
812.12	23.37
812.421	20.01
812.722	17.86
813.023	23.39
813.323	25.89
813.624	24.58
813.925	22.13
814.225	24.55
814.526	20.92
814.826	19.43
815.126	20.66
815.427	18.96
815.727	23.1
816.027	23.99
816.327	20.35
816.627	21.15
816.927	19.58
817.227	19.74
817.527	21.38
817.827	20.06
818.127	23.82
818.427	17.84
818.727	25.02
819.026	17.78
819.326	26.36
819.625	24.9
819.925	16.32
820.224	23.71
820.524	22.68
820.823	21.26
821.122	19.28
821.421	22.15
821.72	24.79
822.019	19.73
822.318	20.1
822.617	20.67
822.916	22.69
823.215	23.1
823.514	20.21
823.813	20.87
824.111	21.47
824.41	20.98
824.709	22.81
825.007	21.5
825.306	22.57
825.604	23.47
825.902	22.35
826.201	22.79
826.499	22.57
826.797	23.35
827.095	20.11
827.393	22.59
827.691	22.35
827.989	23.02
828.287	26.02
828.585	21.74
828.882	21.95
829.18	20.83
829.478	21.58
829.775	23.51
830.073	23.42
830.37	21.39
830.668	20.44
830.965	22.33
831.263	26.16
831.56	23.98
831.857	21.18
832.154	25.22
832.451	21.78
832.748	17.56
833.045	26.42
833.342	20.23
833.639	23.16
833.936	18.48
834.232	17.39
834.529	20.12
834.826	22.4
835.122	21.11
835.419	20.23
835.715	21.09
836.012	21.37
836.308	27.31
836.604	23.61
836.901	27.11
837.197	21.75
837.493	24.95
837.789	23.44
838.085	20.47
838.381	20.87
838.677	18.53
838.972	20.92
839.268	17.39
839.564	23.01
839.86	23.18
840.155	28.36
840.451	19.2
840.746	22.67
841.042	19.94
841.337	19.38
841.632	21.6
841.928	21.61
842.223	17.08
842.518	22.73
842.813	21.48
843.108	17.1
843.403	21.22
843.698	15.92
843.993	22.97
844.287	24.96
844.582	20.65
844.877	26.04
845.171	19.81
845.466	20.97
845.761	19.4
846.055	26.21
846.349	7.82
846.644	25.42
846.938	17.46
847.232	24.28
847.526	22.1
847.82	34.07
848.114	14.85
848.408	40.81
848.702	20.62
848.996	24.71
849.29	24.44
849.584	24.87
849.877	28.31
850.171	44.76
850.465	13.62
850.758	20.85
851.052	12.78
851.345	23.16
851.638	26.33
851.932	16.74
852.225	25.17
852.518	39.29
852.811	25.63
853.104	17.9
853.397	29.47
853.69	21.82
853.983	30.69
854.276	33.98
854.569	13.6
854.861	8.47
855.154	34.47
855.447	17.76
855.739	12.97
856.032	19.04
856.324	15.66
856.616	23.29
856.909	42.06
857.201	26.34
857.493	8.78
857.785	46.39
858.077	9.22
858.369	22.59
858.661	31.78
858.953	21.09
859.245	31.94
859.537	34.12
859.829	30.99
860.12	18.85
860.412	17.17
860.703	47.03
860.995	14.9
861.286	30.6
861.578	4.16
861.869	31.13
862.16	24.82
862.452	22.26
862.743	36.28
863.034	15.07
863.325	37
863.616	16.57
863.907	17.35
864.198	27.87
864.488	8.41
864.779	35.48
865.07	35.01
865.36	39.14
865.651	17.46
865.941	50.94
866.232	34.31
866.522	20.47
866.813	43.59
867.103	21.59
867.393	35.74
867.683	12.13
867.973	12.74
868.263	23.5
868.553	30.87
868.843	9.22
869.133	33.99
869.423	30.59
869.713	36.82
870.002	-15.44
870.292	10.09
870.582	54.36
870.871	28.71
871.161	13.07
871.45	33.21
871.739	-9.68
872.029	17.59
872.318	33.09
872.607	35.37
872.896	27.89
873.185	37.53
873.474	20.26
873.763	16.78
874.052	14.16
874.341	-20.27
874.63	20.37
874.918	36.41
875.207	11.51
875.496	42.66
875.784	41.81
876.073	27.49
876.361	9.89
876.649	29.4
876.938	-4.7
877.226	22.06
877.514	4.36
877.802	29.6
878.09	25.66
878.378	-7.22
878.666	26.2
878.954	12.74
879.242	9.63
879.53	13.01
879.817	18.51
880.105	-21.11
880.392	42.51
880.68	23.97
880.967	42.09
881.255	0.47
881.542	17.14
881.83	18.05
882.117	44.82
882.404	19.61
882.691	14.31
882.978	25.43
883.265	33.63
883.552	15.2
883.839	37.08
884.126	17.67
884.413	22.84
884.699	31.16
884.986	24.61
885.273	24.3
885.559	24.3
885.846	24.3
