Data from 0050_chest_Reflection__4__19.txt Node

Date: Fri Dec 16 13:57:21 CST 2022
User: ToomeyLab
Spectrometer: FLMS14357
Trigger mode: 0
Integration Time (sec): 1.000000E-2
Scans to average: 100
Electric dark correction enabled: true
Nonlinearity correction enabled: false
Boxcar width: 0
XAxis mode: Wavelengths
Number of Pixels in Spectrum: 2048
>>>>>Begin Spectral Data<<<<<
189.047	181.96
189.435	181.96
189.823	181.96
190.211	-84.18
190.599	-53.1
190.987	492.25
191.375	-87.12
191.763	172.23
192.151	54.03
192.538	21.5
192.926	-1.2
193.314	73.61
193.702	-632.83
194.089	42.74
194.477	310.19
194.864	-28.37
195.252	-8.41
195.639	206.18
196.027	95.69
196.414	-94.32
196.801	110.44
197.189	68.94
197.576	634.69
197.963	-194.29
198.351	-6.98
198.738	25.8
199.125	31.19
199.512	4.45
199.899	-21.34
200.286	-22.71
200.673	6.8
201.06	29.1
201.447	32.61
201.833	10.33
202.22	10.87
202.607	-1.13
202.994	53.44
203.38	-32.95
203.767	-13.86
204.154	-21.09
204.54	20.51
204.927	18.48
205.313	18.52
205.699	-22.1
206.086	-2.94
206.472	-40.34
206.858	5.86
207.245	19.2
207.631	-3
208.017	-0.78
208.403	14.62
208.789	21.6
209.175	42.87
209.561	0.09
209.947	34.83
210.333	-15.94
210.719	-8.5
211.105	-14.99
211.491	40.01
211.876	10.72
212.262	17.33
212.648	10.18
213.034	36.09
213.419	38.7
213.805	9.14
214.19	30.5
214.576	7.87
214.961	8.79
215.346	-16.01
215.732	12.52
216.117	-0.01
216.502	-9.43
216.888	-4.19
217.273	5.7
217.658	-29.53
218.043	-6.56
218.428	-14.03
218.813	-21.59
219.198	-17.4
219.583	4.9
219.968	4.5
220.353	20.61
220.738	10.15
221.122	-11.29
221.507	-11.06
221.892	4.16
222.276	24.43
222.661	-3.79
223.046	14.43
223.43	-9.93
223.815	16.16
224.199	3.77
224.583	-0.73
224.968	7.31
225.352	9.61
225.736	4.83
226.121	-5.09
226.505	8.72
226.889	7.17
227.273	8.51
227.657	2.8
228.041	7.83
228.425	6.83
228.809	5.16
229.193	2.28
229.577	4.69
229.961	5.95
230.344	4.83
230.728	4.85
231.112	4
231.495	3.24
231.879	4.32
232.263	3.81
232.646	5.63
233.03	2.41
233.413	1.63
233.797	7.59
234.18	5.3
234.563	4.81
234.946	4.1
235.33	5.97
235.713	3.46
236.096	4.48
236.479	4.19
236.862	5.75
237.245	5.45
237.628	5.93
238.011	3.83
238.394	4.35
238.777	6.07
239.16	3.32
239.543	4.59
239.925	4.43
240.308	6.03
240.691	4.14
241.073	4.75
241.456	3.93
241.838	5.71
242.221	5.1
242.603	4.06
242.986	5.16
243.368	3.85
243.75	4.03
244.133	4.38
244.515	4.1
244.897	3.71
245.279	4.62
245.661	4.19
246.043	4.6
246.425	3.4
246.807	4.55
247.189	3.98
247.571	4.65
247.953	3.85
248.335	4.28
248.717	4.12
249.098	4.16
249.48	4.04
249.862	4.07
250.243	4.4
250.625	3.83
251.006	4.18
251.388	4.77
251.769	4.18
252.151	3.91
252.532	3.98
252.913	4.59
253.295	4.05
253.676	4.03
254.057	3.95
254.438	3.3
254.819	3.64
255.2	3.82
255.581	3.6
255.962	2.8
256.343	3.4
256.724	3.99
257.105	3.98
257.486	3.92
257.867	3.55
258.247	3.71
258.628	4.09
259.009	3.9
259.389	4.49
259.77	3.9
260.15	4.57
260.531	3.89
260.911	3.82
261.292	3.84
261.672	3.77
262.052	3.68
262.432	3.68
262.813	4.38
263.193	3.2
263.573	4.12
263.953	3.88
264.333	4.05
264.713	4.02
265.093	3.43
265.473	4.94
265.853	4.16
266.233	3.16
266.612	3.89
266.992	3.83
267.372	3.47
267.752	3.67
268.131	4.01
268.511	3.79
268.89	3.78
269.27	3.97
269.649	4.1
270.029	3.78
270.408	4.28
270.787	3.5
271.167	3.88
271.546	2.79
271.925	3.94
272.304	3.47
272.683	3.59
273.062	3.74
273.441	3.92
273.82	3.83
274.199	3.71
274.578	3.66
274.957	3.75
275.336	4.01
275.715	3.94
276.093	3.89
276.472	4.04
276.851	3.75
277.229	4.57
277.608	3.02
277.986	3.57
278.365	3.68
278.743	3.79
279.122	3.31
279.5	3.69
279.878	3.28
280.257	4.41
280.635	3.17
281.013	4.09
281.391	3.76
281.769	3.17
282.147	3.87
282.525	3.75
282.903	3.89
283.281	3.74
283.659	3.64
284.037	3.82
284.415	3.4
284.792	3.72
285.17	3.51
285.548	3.42
285.925	3.58
286.303	3.41
286.68	3.84
287.058	3.49
287.435	3.38
287.813	3.37
288.19	3.78
288.567	3.44
288.945	3.46
289.322	3.51
289.699	3.43
290.076	4.06
290.453	3.79
290.83	3.36
291.207	3.5
291.584	3.4
291.961	3.79
292.338	3.83
292.715	3.7
293.092	3.53
293.469	3.98
293.845	3.73
294.222	3.01
294.599	3.71
294.975	3.37
295.352	3.32
295.728	3.91
296.105	3.6
296.481	4.24
296.858	3.66
297.234	3.68
297.61	3.42
297.986	3.72
298.363	3.29
298.739	3.76
299.115	3.09
299.491	3.51
299.867	3.64
300.243	3.26
300.619	3.24
300.995	3.62
301.371	3.96
301.746	3.4
302.122	3.47
302.498	3.71
302.874	3.76
303.249	4.14
303.625	3.86
304	3.1
304.376	3.57
304.751	3.44
305.127	3.4
305.502	4.08
305.878	3.42
306.253	3.28
306.628	4.04
307.003	3.64
307.378	2.98
307.754	3.49
308.129	3.06
308.504	3.7
308.879	3.55
309.254	3.94
309.629	3.81
310.003	4.1
310.378	3.88
310.753	3.82
311.128	3.73
311.502	3.16
311.877	3.39
312.252	3.4
312.626	3.57
313.001	3.52
313.375	3.27
313.75	3.31
314.124	4.15
314.498	3.52
314.873	3.65
315.247	3.37
315.621	3.99
315.995	3.83
316.369	3.67
316.743	3.9
317.117	3.69
317.491	3.94
317.865	3.13
318.239	3.61
318.613	3.71
318.987	3.47
319.361	3.6
319.734	3.72
320.108	3.72
320.482	3.5
320.855	3.6
321.229	4.03
321.602	3.66
321.976	3.25
322.349	3.3
322.723	3.27
323.096	3.54
323.469	3.24
323.843	3.71
324.216	3.52
324.589	4.06
324.962	3.61
325.335	3.46
325.708	3.91
326.081	3.96
326.454	3.27
326.827	3.98
327.2	3.96
327.573	3.76
327.945	3.28
328.318	3.62
328.691	3.3
329.063	3.14
329.436	3.15
329.809	3.3
330.181	3.68
330.553	3.19
330.926	3.44
331.298	3.42
331.671	3.6
332.043	3.59
332.415	3.75
332.787	3.42
333.159	3.43
333.532	3.74
333.904	3.73
334.276	3.28
334.648	3.59
335.02	3.65
335.391	3.86
335.763	3.54
336.135	3.3
336.507	4.16
336.879	3.73
337.25	3.54
337.622	3.65
337.993	3.53
338.365	3.67
338.736	3.56
339.108	3.26
339.479	3.7
339.851	3.91
340.222	3.55
340.593	3.5
340.964	3.7
341.336	3.17
341.707	3.28
342.078	3.29
342.449	3.83
342.82	3.61
343.191	3.14
343.562	3.54
343.933	4.16
344.303	3.74
344.674	3.64
345.045	3.95
345.416	3.55
345.786	3.16
346.157	3.69
346.527	3.16
346.898	3.24
347.268	3.14
347.639	3.13
348.009	3.57
348.38	3.27
348.75	3.78
349.12	3.81
349.49	3.3
349.861	3.97
350.231	3.89
350.601	3.68
350.971	3.85
351.341	3.61
351.711	3.73
352.081	3.31
352.45	3.31
352.82	3.67
353.19	3.45
353.56	3.77
353.929	3.75
354.299	3.27
354.669	3.52
355.038	3.66
355.408	4.01
355.777	3.41
356.147	3.68
356.516	3.97
356.885	3.51
357.254	3.73
357.624	3.51
357.993	3.54
358.362	3.56
358.731	3.85
359.1	3.71
359.469	3.71
359.838	3.32
360.207	3.42
360.576	3.46
360.945	3.7
361.314	3.73
361.682	3.33
362.051	3.46
362.42	3.65
362.788	3.44
363.157	3.58
363.525	3.57
363.894	3.43
364.262	3.4
364.631	4.25
364.999	3.45
365.367	3.76
365.735	3.33
366.104	3.65
366.472	3.83
366.84	3.66
367.208	3.46
367.576	3.65
367.944	3.88
368.312	3.43
368.68	3.71
369.048	3.71
369.416	3.47
369.783	3.61
370.151	3.7
370.519	3.57
370.886	3.5
371.254	3.62
371.621	3.64
371.989	3.79
372.356	3.63
372.724	3.58
373.091	3.58
373.458	3.57
373.826	3.7
374.193	4.01
374.56	3.28
374.927	3.5
375.294	3.93
375.661	3.71
376.028	3.68
376.395	3.57
376.762	3.74
377.129	3.8
377.496	3.71
377.863	3.5
378.229	3.75
378.596	3.73
378.963	3.45
379.329	3.66
379.696	3.58
380.062	4.1
380.429	3.8
380.795	3.29
381.161	3.63
381.528	3.24
381.894	3.56
382.26	3.54
382.626	3.52
382.993	3.57
383.359	3.78
383.725	3.93
384.091	3.75
384.457	3.87
384.823	3.8
385.188	3.87
385.554	3.86
385.92	4.05
386.286	4.13
386.651	3.62
387.017	3.93
387.383	3.71
387.748	3.51
388.114	3.95
388.479	3.68
388.845	3.88
389.21	4.01
389.575	3.86
389.94	3.67
390.306	3.75
390.671	3.58
391.036	3.85
391.401	4.13
391.766	3.72
392.131	3.67
392.496	3.69
392.861	3.7
393.226	3.93
393.591	3.8
393.956	3.88
394.32	3.75
394.685	3.76
395.05	3.68
395.414	3.88
395.779	3.63
396.143	3.94
396.508	3.89
396.872	3.65
397.236	3.64
397.601	3.96
397.965	3.62
398.329	3.95
398.694	3.55
399.058	3.66
399.422	3.92
399.786	3.84
400.15	3.64
400.514	3.64
400.878	3.82
401.242	4
401.605	3.92
401.969	3.89
402.333	3.78
402.697	4.06
403.06	4.05
403.424	3.72
403.787	4.08
404.151	3.68
404.514	3.91
404.878	3.94
405.241	3.7
405.604	3.95
405.968	3.83
406.331	3.81
406.694	3.87
407.057	4.05
407.42	3.81
407.783	3.83
408.146	3.94
408.509	3.78
408.872	3.8
409.235	4.1
409.598	3.95
409.961	4.06
410.323	3.94
410.686	4.13
411.049	3.81
411.411	3.8
411.774	3.83
412.136	3.99
412.499	3.79
412.861	3.64
413.223	4.01
413.586	3.82
413.948	4.06
414.31	4.23
414.672	4.01
415.035	4.07
415.397	3.94
415.759	3.89
416.121	4.01
416.483	3.87
416.845	3.99
417.206	3.89
417.568	3.92
417.93	3.81
418.292	3.94
418.653	4.03
419.015	3.94
419.377	3.96
419.738	3.78
420.1	3.88
420.461	3.7
420.822	4.01
421.184	3.79
421.545	3.84
421.906	3.83
422.267	3.79
422.629	3.87
422.99	3.85
423.351	3.88
423.712	3.9
424.073	3.97
424.434	3.79
424.795	3.83
425.155	3.89
425.516	3.85
425.877	3.83
426.238	3.74
426.598	3.92
426.959	3.92
427.32	3.89
427.68	4.01
428.041	4.02
428.401	3.95
428.761	3.86
429.122	3.9
429.482	3.86
429.842	4.04
430.202	3.86
430.563	3.87
430.923	4.04
431.283	4
431.643	4.03
432.003	4
432.363	4.09
432.722	3.99
433.082	4.08
433.442	4.1
433.802	4.05
434.161	3.94
434.521	3.94
434.881	3.98
435.24	3.96
435.6	4.01
435.959	3.96
436.319	3.83
436.678	4.16
437.037	4.16
437.396	4
437.756	4.01
438.115	4.03
438.474	4.07
438.833	4.05
439.192	4.2
439.551	4.1
439.91	4.16
440.269	4.18
440.628	4.1
440.987	3.9
441.345	3.93
441.704	4
442.063	4.08
442.421	4
442.78	3.95
443.138	4.03
443.497	4.08
443.855	4.11
444.214	4.13
444.572	4.09
444.93	4.11
445.288	4.09
445.647	4.19
446.005	4.01
446.363	4.01
446.721	3.97
447.079	3.98
447.437	4.05
447.795	3.94
448.153	3.94
448.51	3.94
448.868	4.11
449.226	4.02
449.584	4.12
449.941	4.21
450.299	4.13
450.656	4.11
451.014	4
451.371	4.26
451.729	3.96
452.086	4
452.443	4.04
452.801	4.16
453.158	4.04
453.515	4.18
453.872	4.17
454.229	4.1
454.586	4.15
454.943	4.03
455.3	4.24
455.657	4.03
456.014	4.22
456.371	4.24
456.727	4.1
457.084	4.13
457.441	3.95
457.797	4.1
458.154	4.1
458.51	4.24
458.867	4.06
459.223	4.3
459.58	4.1
459.936	4
460.292	4.25
460.648	4.03
461.005	4.01
461.361	4.1
461.717	4.13
462.073	4.12
462.429	4.1
462.785	4.28
463.141	4.21
463.496	4.17
463.852	4.34
464.208	4.18
464.564	4.17
464.919	4.24
465.275	4.25
465.631	4.26
465.986	4.06
466.342	4.33
466.697	4.2
467.052	4.2
467.408	4.32
467.763	4.09
468.118	4.25
468.473	4.45
468.829	4.25
469.184	4.36
469.539	4.2
469.894	4.19
470.249	4.33
470.603	4.29
470.958	4.41
471.313	4.12
471.668	4.49
472.023	4.31
472.377	4.25
472.732	4.35
473.086	4.19
473.441	4.33
473.795	4.4
474.15	4.23
474.504	4.23
474.859	4.25
475.213	4.28
475.567	4.28
475.921	4.3
476.275	4.29
476.63	4.27
476.984	4.37
477.338	4.56
477.692	4.24
478.045	4.25
478.399	4.38
478.753	4.29
479.107	4.34
479.461	4.26
479.814	4.37
480.168	4.34
480.521	4.4
480.875	4.41
481.228	4.46
481.582	4.34
481.935	4.33
482.289	4.26
482.642	4.37
482.995	4.27
483.348	4.27
483.701	4.33
484.055	4.17
484.408	4.19
484.761	4.03
485.114	3.99
485.466	4.06
485.819	4.11
486.172	4.19
486.525	4.27
486.878	4.29
487.23	4.28
487.583	4.21
487.936	4.27
488.288	4.23
488.641	4.16
488.993	4.04
489.345	4.15
489.698	4.24
490.05	4.23
490.402	4.32
490.754	4.37
491.107	4.28
491.459	4.42
491.811	4.42
492.163	4.38
492.515	4.28
492.866	4.12
493.218	4.17
493.57	4.3
493.922	4.28
494.274	4.44
494.625	4.42
494.977	4.48
495.328	4.55
495.68	4.63
496.031	4.59
496.383	4.38
496.734	4.57
497.086	4.36
497.437	4.54
497.788	4.44
498.139	4.49
498.49	4.48
498.842	4.47
499.193	4.44
499.544	4.66
499.894	4.54
500.245	4.54
500.596	4.48
500.947	4.55
501.298	4.43
501.648	4.54
501.999	4.73
502.35	4.69
502.7	4.61
503.051	4.69
503.401	4.59
503.752	4.44
504.102	4.57
504.452	4.69
504.803	4.54
505.153	4.72
505.503	4.58
505.853	4.57
506.203	4.72
506.553	4.71
506.903	4.68
507.253	4.63
507.603	4.6
507.953	4.77
508.303	4.66
508.652	4.64
509.002	4.65
509.352	4.58
509.701	4.61
510.051	4.64
510.4	4.65
510.75	4.68
511.099	4.67
511.449	4.75
511.798	4.81
512.147	4.7
512.496	4.78
512.846	4.71
513.195	4.78
513.544	4.71
513.893	4.65
514.242	4.68
514.591	4.85
514.939	4.58
515.288	4.73
515.637	4.86
515.986	4.83
516.334	4.87
516.683	4.78
517.032	4.71
517.38	4.84
517.729	4.86
518.077	4.84
518.426	4.71
518.774	4.76
519.122	4.68
519.47	4.79
519.819	4.77
520.167	4.77
520.515	4.74
520.863	4.86
521.211	4.75
521.559	4.89
521.907	4.83
522.255	4.93
522.602	4.93
522.95	4.96
523.298	4.97
523.645	4.89
523.993	5.05
524.341	4.85
524.688	5.02
525.036	5.08
525.383	5.04
525.73	5.07
526.078	4.93
526.425	4.94
526.772	4.83
527.119	4.84
527.466	4.92
527.814	4.9
528.161	4.97
528.508	4.95
528.854	4.9
529.201	4.87
529.548	4.8
529.895	4.73
530.242	4.7
530.588	4.84
530.935	4.9
531.282	4.98
531.628	4.91
531.975	5.03
532.321	5.07
532.667	5.09
533.014	5.12
533.36	5.02
533.706	5.1
534.052	4.98
534.399	4.94
534.745	4.89
535.091	4.92
535.437	5.04
535.783	5.18
536.129	5.22
536.474	5.2
536.82	5.13
537.166	5.25
537.512	5.1
537.857	5.07
538.203	5.16
538.549	5.23
538.894	5.25
539.239	5.36
539.585	5.35
539.93	5.31
540.276	5.24
540.621	5.28
540.966	5.38
541.311	5.39
541.656	5.23
542.001	5.39
542.346	5.23
542.691	5.08
543.036	5.13
543.381	5.24
543.726	5.3
544.071	5.37
544.415	5.32
544.76	5.29
545.105	5.42
545.449	5.41
545.794	5.41
546.138	5.55
546.483	5.52
546.827	5.54
547.171	5.56
547.516	5.62
547.86	5.43
548.204	5.52
548.548	5.58
548.892	5.62
549.236	5.58
549.58	5.62
549.924	5.7
550.268	5.8
550.612	5.66
550.956	5.72
551.3	5.66
551.643	5.79
551.987	5.66
552.33	5.82
552.674	5.89
553.017	5.93
553.361	5.65
553.704	5.68
554.048	5.81
554.391	5.79
554.734	5.85
555.077	5.85
555.42	5.87
555.764	5.95
556.107	5.9
556.45	5.95
556.793	6.09
557.135	6.12
557.478	6.06
557.821	5.86
558.164	6.07
558.507	5.93
558.849	6
559.192	6.26
559.534	5.98
559.877	6.02
560.219	6.42
560.562	6.3
560.904	6.15
561.246	6.36
561.589	6.25
561.931	6.3
562.273	6.24
562.615	6.28
562.957	6.32
563.299	6.31
563.641	6.57
563.983	6.32
564.325	6.27
564.667	6.38
565.008	6.23
565.35	6.54
565.692	6.54
566.033	6.47
566.375	6.14
566.716	6.51
567.058	6.55
567.399	6.45
567.741	6.43
568.082	6.49
568.423	6.52
568.764	6.64
569.105	6.66
569.447	6.58
569.788	6.74
570.129	6.64
570.47	6.66
570.811	6.78
571.151	6.7
571.492	6.78
571.833	6.86
572.174	6.61
572.514	6.68
572.855	6.79
573.195	6.67
573.536	6.67
573.876	6.77
574.217	6.87
574.557	6.93
574.898	6.82
575.238	6.71
575.578	6.96
575.918	6.86
576.258	6.91
576.598	6.81
576.938	7.07
577.278	6.84
577.618	7.05
577.958	7.08
578.298	7.13
578.638	7.13
578.977	7.26
579.317	7.29
579.657	7.21
579.996	7.22
580.336	6.95
580.675	7.4
581.014	7.35
581.354	7.36
581.693	7.32
582.032	7.11
582.372	7.42
582.711	7.45
583.05	7.5
583.389	7.55
583.728	7.64
584.067	7.53
584.406	7.67
584.745	7.52
585.083	7.76
585.422	7.34
585.761	7.7
586.1	7.63
586.438	7.68
586.777	7.84
587.115	7.8
587.454	7.57
587.792	7.64
588.13	8.14
588.469	7.85
588.807	7.83
589.145	8.01
589.483	7.69
589.821	7.91
590.159	7.76
590.497	7.68
590.835	7.98
591.173	8.06
591.511	8.04
591.849	8.14
592.187	8.06
592.524	7.99
592.862	8.2
593.2	8.12
593.537	8.17
593.875	8.03
594.212	8.21
594.55	8.29
594.887	8.37
595.224	8.34
595.561	8.32
595.899	8.37
596.236	8.45
596.573	8.2
596.91	8.32
597.247	8.32
597.584	8.44
597.921	8.28
598.258	8.27
598.594	8.21
598.931	8.37
599.268	8.54
599.604	8.68
599.941	8.52
600.277	8.76
600.614	8.89
600.95	8.77
601.287	8.71
601.623	8.63
601.959	8.64
602.296	8.75
602.632	9.12
602.968	8.76
603.304	8.69
603.64	8.74
603.976	8.83
604.312	9.01
604.648	8.97
604.984	8.85
605.319	9.04
605.655	8.88
605.991	8.87
606.326	8.99
606.662	8.83
606.998	9.05
607.333	9.14
607.668	9.33
608.004	9.19
608.339	8.98
608.674	9.31
609.01	9.32
609.345	9.37
609.68	9.19
610.015	9.42
610.35	9.24
610.685	9.18
611.02	9.47
611.355	9.35
611.689	9.31
612.024	9.46
612.359	9.49
612.694	9.71
613.028	9.77
613.363	9.71
613.697	9.65
614.032	9.77
614.366	9.75
614.7	9.93
615.035	9.87
615.369	9.78
615.703	9.95
616.037	9.9
616.371	10.05
616.705	9.98
617.039	10.12
617.373	10.1
617.707	10.2
618.041	10.08
618.375	9.86
618.709	9.98
619.042	10.43
619.376	10.47
619.71	10.2
620.043	9.87
620.377	10.41
620.71	10.3
621.043	10.02
621.377	10.26
621.71	10.53
622.043	10.64
622.376	10.11
622.709	10.48
623.043	10.3
623.376	10.66
623.709	10.65
624.041	10.39
624.374	10.52
624.707	10.56
625.04	10.99
625.373	10.79
625.705	10.83
626.038	10.84
626.37	10.99
626.703	10.73
627.035	10.56
627.368	10.96
627.7	10.64
628.032	11.02
628.365	10.89
628.697	10.91
629.029	11.25
629.361	11.04
629.693	11.13
630.025	11.2
630.357	10.95
630.689	11.13
631.021	11.11
631.353	11.25
631.684	11.38
632.016	11
632.348	11.48
632.679	11.25
633.011	11.3
633.342	11.05
633.674	11.12
634.005	11.65
634.336	11.39
634.668	11.07
634.999	11.43
635.33	11.17
635.661	11.7
635.992	11.6
636.323	11.56
636.654	11.49
636.985	11.61
637.316	11.93
637.647	11.87
637.977	11.52
638.308	11.72
638.639	11.85
638.969	11.76
639.3	11.74
639.63	11.83
639.961	12.04
640.291	12.08
640.622	11.94
640.952	12.11
641.282	11.61
641.612	11.64
641.943	12.13
642.273	12.31
642.603	12.41
642.933	12.07
643.263	12.6
643.592	12.36
643.922	12.6
644.252	11.8
644.582	12.87
644.911	12.5
645.241	12.22
645.571	12.37
645.9	12.77
646.23	12.28
646.559	12.79
646.888	12.64
647.218	12.39
647.547	12.99
647.876	12.84
648.205	12.34
648.534	12.83
648.863	13.46
649.192	12.64
649.521	12.27
649.85	13.24
650.179	13.09
650.508	12.81
650.837	12.84
651.165	13.04
651.494	13.06
651.822	12.66
652.151	13.33
652.479	13.29
652.808	12.78
653.136	13.08
653.465	13.45
653.793	13.72
654.121	13.67
654.449	12.84
654.777	13.24
655.105	13.81
655.433	13.29
655.761	13.09
656.089	13.25
656.417	13.13
656.745	14.1
657.073	13.72
657.4	13.72
657.728	13.57
658.056	13.69
658.383	13.71
658.711	13.68
659.038	14.36
659.365	13.68
659.693	13.65
660.02	13.47
660.347	13.79
660.674	13.66
661.001	13.49
661.329	14.3
661.656	14.18
661.982	14.14
662.309	14.18
662.636	14.1
662.963	14.37
663.29	14.45
663.616	14.06
663.943	14.49
664.27	14.55
664.596	14.34
664.923	14.8
665.249	14.64
665.576	14.12
665.902	14.37
666.228	14.54
666.554	14.37
666.881	14.93
667.207	14.95
667.533	15.15
667.859	14.46
668.185	14.48
668.511	14.56
668.837	14.2
669.162	14.7
669.488	14.87
669.814	15.43
670.139	15.33
670.465	14.82
670.791	15.04
671.116	14.73
671.442	14.39
671.767	15.71
672.092	14.79
672.418	15.91
672.743	14.84
673.068	15.2
673.393	15.51
673.718	15.17
674.043	15.14
674.368	15.65
674.693	15.48
675.018	15.06
675.343	15.46
675.667	15.4
675.992	15.51
676.317	15.5
676.641	16.02
676.966	15.06
677.29	15.45
677.615	15.97
677.939	15.6
678.264	15.85
678.588	15.98
678.912	16.02
679.236	16.32
679.56	15.67
679.885	15.92
680.209	15.37
680.532	15.97
680.856	16.48
681.18	15.64
681.504	15.77
681.828	15.78
682.152	15.98
682.475	15.76
682.799	16.33
683.122	15.71
683.446	16.2
683.769	16.19
684.093	16.75
684.416	16.2
684.739	17.12
685.062	16.1
685.386	16.19
685.709	16.64
686.032	16.2
686.355	16.57
686.678	16.45
687.001	15.56
687.324	15.94
687.646	16.33
687.969	16.43
688.292	17.3
688.614	16.83
688.937	16.55
689.26	16.7
689.582	17.02
689.904	16.87
690.227	16.48
690.549	16.94
690.871	16.74
691.194	17.29
691.516	17.32
691.838	17
692.16	17
692.482	17.1
692.804	16.32
693.126	16.83
693.448	16.63
693.769	17.27
694.091	17.7
694.413	17.3
694.735	17.51
695.056	17.96
695.378	17.89
695.699	18.53
696.021	17.84
696.342	17.27
696.663	17.33
696.984	18.08
697.306	17.05
697.627	16.97
697.948	17.59
698.269	17.92
698.59	18.12
698.911	17.56
699.232	18.2
699.553	18.04
699.873	17.67
700.194	18.07
700.515	17.62
700.835	18.04
701.156	18.01
701.477	17.9
701.797	18.57
702.117	18.36
702.438	18.4
702.758	18.01
703.078	17.72
703.398	18.55
703.719	18.24
704.039	18.25
704.359	18.57
704.679	18.46
704.999	18.27
705.319	18.5
705.638	18.84
705.958	19.06
706.278	18.9
706.597	18.68
706.917	19.2
707.237	18.42
707.556	19.32
707.876	18.5
708.195	18.28
708.514	17.86
708.834	19.2
709.153	19.24
709.472	19.89
709.791	19.27
710.11	19.68
710.429	17.92
710.748	19.36
711.067	19.03
711.386	20.17
711.705	18.13
712.023	19.6
712.342	18.48
712.661	19.22
712.979	20.15
713.298	19.56
713.616	19.58
713.935	18.89
714.253	20.04
714.572	19.2
714.89	20.14
715.208	20.2
715.526	19.7
715.844	20.16
716.162	19.49
716.48	19.34
716.798	19.96
717.116	19.93
717.434	20.43
717.752	19.3
718.069	19.17
718.387	20.8
718.705	19.93
719.022	20.11
719.34	20.53
719.657	20.43
719.975	19.99
720.292	19.52
720.609	20.61
720.927	20.11
721.244	20.28
721.561	20.01
721.878	21.54
722.195	20.76
722.512	21.27
722.829	19.99
723.146	18.5
723.463	19.8
723.779	20.02
724.096	19.95
724.413	20.03
724.729	19.71
725.046	22.38
725.362	20
725.679	21.91
725.995	20.56
726.311	21.4
726.628	20.63
726.944	21.21
727.26	20.62
727.576	22.06
727.892	21.18
728.208	22.15
728.524	21.49
728.84	21.37
729.156	21.81
729.472	23.35
729.787	22.11
730.103	22.27
730.419	21.55
730.734	20.71
731.05	21.89
731.365	21.92
731.681	20.49
731.996	21.5
732.311	21.53
732.626	22.45
732.942	22.28
733.257	21.63
733.572	21.97
733.887	20.95
734.202	21.88
734.517	22.28
734.832	21.51
735.146	21.53
735.461	22.08
735.776	22.28
736.091	22.37
736.405	22.43
736.72	21.44
737.034	21.23
737.349	22.44
737.663	21.04
737.977	22.53
738.292	22.66
738.606	22.11
738.92	23.85
739.234	22.71
739.548	22.64
739.862	22.23
740.176	20.51
740.49	21.47
740.804	22.77
741.117	22.41
741.431	21.97
741.745	22.43
742.058	21.45
742.372	22.93
742.685	20.2
742.999	22.07
743.312	21.93
743.626	21.77
743.939	22.92
744.252	23.49
744.565	23.49
744.878	22.96
745.191	23.45
745.505	22.21
745.817	23.87
746.13	24.04
746.443	21.56
746.756	23.53
747.069	22.75
747.381	24.34
747.694	22.43
748.007	25.05
748.319	22.79
748.632	22.65
748.944	23.2
749.256	24.42
749.569	23.39
749.881	21.92
750.193	23.21
750.505	24.03
750.817	24.03
751.129	22.87
751.441	22.84
751.753	24.14
752.065	23.34
752.377	24.13
752.689	23.51
753	22.23
753.312	22.38
753.624	24.07
753.935	22.95
754.247	25.08
754.558	25.41
754.869	26.04
755.181	23.89
755.492	24.85
755.803	24.04
756.114	23.97
756.425	24.88
756.736	22.4
757.047	25.32
757.358	24.63
757.669	25.63
757.98	23.47
758.291	25.49
758.601	24.46
758.912	23.39
759.223	26.09
759.533	24.63
759.844	25.61
760.154	24.4
760.464	26.81
760.775	25.28
761.085	23.58
761.395	24.53
761.705	25.99
762.016	24.09
762.326	24.96
762.636	25.04
762.945	23.79
763.255	24.75
763.565	25.93
763.875	25.65
764.185	27.57
764.494	23.03
764.804	25.66
765.113	25.15
765.423	25.68
765.732	25.74
766.042	25.51
766.351	26.05
766.66	25.58
766.97	25.42
767.279	26.8
767.588	26.84
767.897	26.95
768.206	26.48
768.515	25.05
768.824	27.61
769.133	25.88
769.441	26.25
769.75	26.6
770.059	24.51
770.367	26.32
770.676	25.54
770.984	26.55
771.293	25.94
771.601	26.46
771.91	29.04
772.218	27.18
772.526	25.88
772.834	27.48
773.142	26.22
773.45	24.66
773.758	27.02
774.066	23.56
774.374	24.83
774.682	25.71
774.99	25.28
775.298	28.52
775.605	25.32
775.913	24.65
776.22	25.45
776.528	25.86
776.835	28.39
777.143	29.27
777.45	24.29
777.757	27.88
778.065	27.76
778.372	28
778.679	29.14
778.986	25.03
779.293	25.38
779.6	25.46
779.907	25.3
780.214	26.43
780.52	29.51
780.827	27.08
781.134	28.96
781.44	24.15
781.747	25.47
782.053	29.1
782.36	27.6
782.666	26.38
782.973	26.02
783.279	25.8
783.585	27.63
783.891	26.19
784.197	27.91
784.503	29.75
784.809	29.23
785.115	29.56
785.421	25.37
785.727	27.62
786.033	24.02
786.339	29.84
786.644	27.2
786.95	27.14
787.255	25.9
787.561	28.87
787.866	29.01
788.172	26.5
788.477	25.16
788.782	26.07
789.088	30.74
789.393	30.39
789.698	26.86
790.003	29.06
790.308	29.42
790.613	26.15
790.918	28.69
791.223	29.96
791.527	29.03
791.832	29.48
792.137	28.26
792.441	29.87
792.746	27.84
793.05	32.46
793.355	32.47
793.659	28.9
793.963	27.54
794.268	27.89
794.572	31.45
794.876	24.84
795.18	29.03
795.484	28.64
795.788	27.65
796.092	32.05
796.396	27.27
796.7	29.05
797.004	30.42
797.307	29.37
797.611	30.97
797.915	27.22
798.218	33.53
798.522	28.05
798.825	25.75
799.128	30.28
799.432	28.75
799.735	25.8
800.038	28.6
800.341	27.89
800.644	34.12
800.947	34.06
801.25	32.96
801.553	31.48
801.856	28.1
802.159	28.68
802.462	30.31
802.764	26.36
803.067	27.06
803.37	26.82
803.672	29.09
803.975	28.21
804.277	33.56
804.579	31.5
804.882	30.84
805.184	28.28
805.486	29.06
805.788	28.18
806.09	25.05
806.392	30.8
806.694	27.1
806.996	33.41
807.298	29.01
807.6	29.98
807.902	33.6
808.203	29.37
808.505	29.01
808.807	33.77
809.108	31.97
809.409	32.43
809.711	30.6
810.012	33.07
810.313	32.6
810.615	32.22
810.916	31.91
811.217	34.09
811.518	30.15
811.819	28.57
812.12	31.2
812.421	30.29
812.722	23.87
813.023	31.09
813.323	37.18
813.624	34.9
813.925	31.72
814.225	31.24
814.526	30.25
814.826	35.9
815.126	37.46
815.427	31.82
815.727	34.09
816.027	32.67
816.327	22.21
816.627	23.78
816.927	30.45
817.227	29.59
817.527	33.48
817.827	32.33
818.127	34.48
818.427	30.56
818.727	34.32
819.026	31.35
819.326	34.6
819.625	31.99
819.925	32.12
820.224	30.36
820.524	29.12
820.823	31.57
821.122	28.07
821.421	36.96
821.72	30.88
822.019	35.11
822.318	32.61
822.617	34.16
822.916	33.98
823.215	33.07
823.514	32.14
823.813	33.86
824.111	34.76
824.41	32.76
824.709	33.96
825.007	33.97
825.306	33.95
825.604	33.74
825.902	33.87
826.201	34.23
826.499	32.88
826.797	34.44
827.095	33.77
827.393	33.36
827.691	35.74
827.989	35.55
828.287	36.66
828.585	32.85
828.882	35.03
829.18	32.77
829.478	32.54
829.775	35.49
830.073	33.26
830.37	34.68
830.668	33.1
830.965	33.03
831.263	32.43
831.56	35.25
831.857	34.54
832.154	34.35
832.451	34.56
832.748	32.6
833.045	37.89
833.342	38.13
833.639	28.44
833.936	31.21
834.232	33.35
834.529	36.37
834.826	30.39
835.122	33.67
835.419	30.22
835.715	32.6
836.012	31.97
836.308	35.62
836.604	32.76
836.901	37.64
837.197	34.84
837.493	35.26
837.789	34.9
838.085	35.01
838.381	34.52
838.677	34.07
838.972	34.98
839.268	33.83
839.564	35.22
839.86	34.4
840.155	29.9
840.451	25.61
840.746	29.79
841.042	37.51
841.337	37.8
841.632	24.84
841.928	33.95
842.223	30.9
842.518	32.4
842.813	33.04
843.108	29.03
843.403	38.48
843.698	40.06
843.993	24.06
844.287	39.12
844.582	38.16
844.877	32.16
845.171	37.55
845.466	29.78
845.761	30.25
846.055	37.71
846.349	14.62
846.644	38.24
846.938	27.08
847.232	38.69
847.526	30.45
847.82	19.52
848.114	35.03
848.408	46.42
848.702	39.79
848.996	36.11
849.29	28.94
849.584	25.8
849.877	31.17
850.171	26.25
850.465	24.84
850.758	29.06
851.052	23.92
851.345	32.79
851.638	34.85
851.932	31.24
852.225	20.92
852.518	29.78
852.811	31.96
853.104	22.15
853.397	25.82
853.69	30.37
853.983	54.17
854.276	37.53
854.569	30.42
854.861	33.2
855.154	44.08
855.447	41.47
855.739	33.84
856.032	29.82
856.324	16.92
856.616	46.84
856.909	35.86
857.201	23.62
857.493	20.63
857.785	16.31
858.077	13.22
858.369	19.34
858.661	37.31
858.953	3.71
859.245	32.51
859.537	42.97
859.829	35.09
860.12	36.46
860.412	11.08
860.703	49.44
860.995	33.09
861.286	49.65
861.578	12.62
861.869	18.79
862.16	36.15
862.452	49.68
862.743	37.74
863.034	35.66
863.325	30.2
863.616	34.42
863.907	39.5
864.198	39.58
864.488	41.98
864.779	18.04
865.07	32.99
865.36	26.95
865.651	29.18
865.941	48.68
866.232	44.29
866.522	32.29
866.813	53.33
867.103	34.4
867.393	15.91
867.683	13.09
867.973	22.92
868.263	48.48
868.553	39.52
868.843	11.9
869.133	39.38
869.423	52.16
869.713	44.47
870.002	28.12
870.292	24.06
870.582	56.77
870.871	38.01
871.161	25.89
871.45	37.67
871.739	7.23
872.029	55.51
872.318	25.93
872.607	38.64
872.896	40.33
873.185	34.35
873.474	48.98
873.763	34.11
874.052	20.07
874.341	-0.37
874.63	28.69
874.918	36.34
875.207	44.66
875.496	32.98
875.784	16.7
876.073	35.75
876.361	37.08
876.649	33.35
876.938	54.91
877.226	35.91
877.514	19.62
877.802	35.8
878.09	46.95
878.378	34.85
878.666	36.29
878.954	31.52
879.242	32.59
879.53	34.11
879.817	58.07
880.105	32.76
880.392	35.44
880.68	34.72
880.967	33.48
881.255	36.12
881.542	43.39
881.83	37.97
882.117	36.6
882.404	26.6
882.691	26.77
882.978	31.25
883.265	44.94
883.552	30.54
883.839	46.42
884.126	24.76
884.413	39.97
884.699	38.92
884.986	44.22
885.273	38.53
885.559	38.53
885.846	38.53
