Data from 002-16_forehead_Reflection__1__154.txt Node

Date: Fri Nov 11 17:16:13 CST 2022
User: ToomeyLab
Spectrometer: FLMS14357
Trigger mode: 0
Integration Time (sec): 1.000000E-2
Scans to average: 100
Electric dark correction enabled: true
Nonlinearity correction enabled: false
Boxcar width: 0
XAxis mode: Wavelengths
Number of Pixels in Spectrum: 2048
>>>>>Begin Spectral Data<<<<<
189.047	171.91
189.435	171.91
189.823	171.91
190.211	353.07
190.599	59.24
190.987	-60.53
191.375	-136.45
191.763	32.08
192.151	78.86
192.538	-67.68
192.926	-55.65
193.314	119.59
193.702	748.83
194.089	-44.45
194.477	195.21
194.864	593.08
195.252	954.64
195.639	65.55
196.027	14.29
196.414	143.6
196.801	30354.55
197.189	54.1
197.576	138.39
197.963	14.97
198.351	-3.44
198.738	-54.67
199.125	32.64
199.512	1.4
199.899	-14.52
200.286	71.85
200.673	63.12
201.06	-1.02
201.447	72.6
201.833	31.64
202.22	20.73
202.607	92.88
202.994	46.48
203.38	23.85
203.767	33.2
204.154	51.62
204.54	62.28
204.927	44.47
205.313	27.43
205.699	64.62
206.086	25.03
206.472	68.88
206.858	21
207.245	52.8
207.631	44.88
208.017	48.66
208.403	15.52
208.789	23.43
209.175	45.25
209.561	47.81
209.947	26.94
210.333	47.66
210.719	33.35
211.105	52.34
211.491	-170.28
211.876	39.67
212.262	26.04
212.648	7.6
213.034	60.65
213.419	44.56
213.805	16.32
214.19	3.38
214.576	35.96
214.961	44.01
215.346	26.13
215.732	-22.6
216.117	37.74
216.502	16.76
216.888	-12.71
217.273	27.1
217.658	31.74
218.043	-3.63
218.428	-20.4
218.813	86.38
219.198	3.99
219.583	34.92
219.968	26.35
220.353	10.18
220.738	-6.77
221.122	-14.43
221.507	26.59
221.892	17.46
222.276	21.72
222.661	20.61
223.046	20.05
223.43	11.87
223.815	11.46
224.199	13.35
224.583	2.23
224.968	15.46
225.352	-2.4
225.736	9.23
226.121	10.33
226.505	9.46
226.889	11.4
227.273	6.05
227.657	-0.19
228.041	1.79
228.425	7.64
228.809	10.68
229.193	4.57
229.577	6.1
229.961	2.92
230.344	3.33
230.728	2.91
231.112	3.55
231.495	2.75
231.879	3.77
232.263	3.23
232.646	5.61
233.03	3.65
233.413	5.17
233.797	5.71
234.18	5.67
234.563	2.42
234.946	3.62
235.33	4.93
235.713	4.92
236.096	2.49
236.479	6.35
236.862	4.15
237.245	5.5
237.628	4.62
238.011	4.26
238.394	7.05
238.777	2.68
239.16	4.69
239.543	4.87
239.925	6.09
240.308	2.39
240.691	2.37
241.073	3.74
241.456	3.06
241.838	5.4
242.221	3.92
242.603	3.33
242.986	3.49
243.368	3.32
243.75	3.77
244.133	3.33
244.515	3.83
244.897	3.57
245.279	3.1
245.661	4.16
246.043	4.5
246.425	4.23
246.807	3.27
247.189	3.23
247.571	2.57
247.953	4.04
248.335	3.96
248.717	3.58
249.098	3.64
249.48	3.86
249.862	3.97
250.243	3.9
250.625	3.79
251.006	3.95
251.388	4.01
251.769	4.88
252.151	5.05
252.532	3.8
252.913	3.9
253.295	3.5
253.676	3.44
254.057	3.3
254.438	3.98
254.819	3.86
255.2	4.91
255.581	5.67
255.962	4.54
256.343	4.9
256.724	5.41
257.105	4.68
257.486	5.37
257.867	3.24
258.247	4.77
258.628	3.38
259.009	3.68
259.389	4.28
259.77	4.7
260.15	3.86
260.531	4.06
260.911	3.66
261.292	4.12
261.672	3.55
262.052	3.7
262.432	4.11
262.813	4.12
263.193	4.37
263.573	4.79
263.953	4.23
264.333	4.32
264.713	2.58
265.093	4.2
265.473	4.93
265.853	3.79
266.233	3.87
266.612	3.32
266.992	3.58
267.372	4.21
267.752	4.08
268.131	4.04
268.511	4.4
268.89	4.42
269.27	3.51
269.649	3.37
270.029	2.96
270.408	3.55
270.787	4.3
271.167	3.72
271.546	3.97
271.925	4.25
272.304	4.14
272.683	3.97
273.062	4
273.441	3.53
273.82	3.32
274.199	3.53
274.578	3.73
274.957	3.27
275.336	4.09
275.715	3.85
276.093	4.1
276.472	3.97
276.851	3.66
277.229	3.9
277.608	3.52
277.986	3.51
278.365	4.38
278.743	3.8
279.122	3.06
279.5	3.57
279.878	3.4
280.257	3.61
280.635	4.52
281.013	3.78
281.391	3.6
281.769	4.72
282.147	4.14
282.525	3.67
282.903	3.8
283.281	3.91
283.659	3.28
284.037	3.79
284.415	3.52
284.792	4.07
285.17	4.23
285.548	4.07
285.925	4.26
286.303	3.71
286.68	3.63
287.058	3.36
287.435	3.7
287.813	3.75
288.19	3.93
288.567	4.03
288.945	3.81
289.322	3.76
289.699	4.28
290.076	4
290.453	3.9
290.83	4.27
291.207	4.08
291.584	3.8
291.961	3.98
292.338	4.34
292.715	4.01
293.092	4.14
293.469	4.68
293.845	5.1
294.222	4.73
294.599	5.12
294.975	4.95
295.352	4.44
295.728	4.38
296.105	4.47
296.481	4.54
296.858	4.8
297.234	4.53
297.61	4.69
297.986	4.43
298.363	4.71
298.739	4.91
299.115	4.69
299.491	4.84
299.867	4.62
300.243	4.62
300.619	5.01
300.995	4.7
301.371	4.91
301.746	5.26
302.122	5.38
302.498	4.57
302.874	5.14
303.249	5.61
303.625	5.13
304	5.16
304.376	5.77
304.751	6.23
305.127	5.84
305.502	6.08
305.878	6.03
306.253	6.07
306.628	5.97
307.003	5.8
307.378	6.6
307.754	6.12
308.129	6.34
308.504	5.74
308.879	6.3
309.254	6.04
309.629	5.93
310.003	6.06
310.378	5.82
310.753	6.04
311.128	6.18
311.502	6.45
311.877	6.65
312.252	6.02
312.626	6.3
313.001	6.71
313.375	6.81
313.75	6.95
314.124	7.07
314.498	7.19
314.873	7.22
315.247	7.49
315.621	6.78
315.995	6.99
316.369	7.62
316.743	7.44
317.117	7.56
317.491	7.61
317.865	8.33
318.239	7.58
318.613	7.85
318.987	7.88
319.361	7.77
319.734	7.36
320.108	8.23
320.482	7.57
320.855	7.74
321.229	7.82
321.602	8.07
321.976	8.4
322.349	8.06
322.723	8.37
323.096	8.68
323.469	8.4
323.843	8.74
324.216	8.6
324.589	8.65
324.962	8.7
325.335	9.39
325.708	8.71
326.081	8.45
326.454	8.74
326.827	9.04
327.2	8.91
327.573	9.5
327.945	8.69
328.318	9.6
328.691	9.26
329.063	9.43
329.436	9.49
329.809	8.86
330.181	9.69
330.553	10.2
330.926	9.23
331.298	9.7
331.671	9.66
332.043	9.84
332.415	9.7
332.787	9.79
333.159	9.9
333.532	9.32
333.904	9.72
334.276	9.74
334.648	9.8
335.02	10.47
335.391	10.11
335.763	10.04
336.135	10.31
336.507	10
336.879	10.35
337.25	10.21
337.622	10.55
337.993	10.02
338.365	10.27
338.736	10.9
339.108	10.07
339.479	10.55
339.851	9.86
340.222	10.53
340.593	10.22
340.964	10.69
341.336	10.81
341.707	10.5
342.078	10.64
342.449	10.55
342.82	10.54
343.191	11.32
343.562	10.99
343.933	10.66
344.303	11.46
344.674	11.22
345.045	11.24
345.416	11.28
345.786	11.24
346.157	11.2
346.527	11.37
346.898	11.27
347.268	11.34
347.639	11.34
348.009	11.65
348.38	11.44
348.75	11.89
349.12	11.66
349.49	11.48
349.861	11.82
350.231	11.9
350.601	12.28
350.971	12.15
351.341	11.77
351.711	11.81
352.081	11.17
352.45	12.3
352.82	12.41
353.19	11.87
353.56	11.85
353.929	12.56
354.299	12.44
354.669	12.73
355.038	12.2
355.408	11.99
355.777	12.59
356.147	12.6
356.516	12.38
356.885	12.48
357.254	12.59
357.624	12.35
357.993	12.76
358.362	12.47
358.731	12.56
359.1	12.47
359.469	12.6
359.838	13.02
360.207	13.08
360.576	13.05
360.945	13.35
361.314	13.27
361.682	13.03
362.051	12.95
362.42	13.01
362.788	13.05
363.157	13.15
363.525	13.29
363.894	13.11
364.262	12.83
364.631	13.2
364.999	13.49
365.367	13.88
365.735	13.79
366.104	13.67
366.472	13.59
366.84	13.39
367.208	13.73
367.576	13.75
367.944	14.26
368.312	14.01
368.68	14.08
369.048	13.77
369.416	13.78
369.783	13.92
370.151	13.96
370.519	14.51
370.886	14.36
371.254	14.14
371.621	14.52
371.989	13.99
372.356	14.02
372.724	14.57
373.091	14.24
373.458	14.62
373.826	14.69
374.193	14.78
374.56	14.58
374.927	14.4
375.294	14.43
375.661	15.08
376.028	14.78
376.395	15.16
376.762	14.84
377.129	15
377.496	14.78
377.863	14.92
378.229	14.78
378.596	15
378.963	15
379.329	15.2
379.696	15.11
380.062	15.39
380.429	15.14
380.795	15.28
381.161	15.46
381.528	15.25
381.894	15.8
382.26	15.31
382.626	15.73
382.993	15.58
383.359	15.75
383.725	15.86
384.091	15.54
384.457	15.66
384.823	15.86
385.188	15.97
385.554	15.62
385.92	15.56
386.286	15.4
386.651	15.75
387.017	15.85
387.383	15.98
387.748	15.66
388.114	15.9
388.479	16.26
388.845	16.03
389.21	16.05
389.575	15.98
389.94	16.42
390.306	16.24
390.671	16.33
391.036	16.43
391.401	16.34
391.766	16.45
392.131	16.26
392.496	16.74
392.861	16.45
393.226	16.54
393.591	16.26
393.956	16.51
394.32	16.55
394.685	16.65
395.05	16.81
395.414	16.97
395.779	16.84
396.143	16.79
396.508	16.45
396.872	16.62
397.236	16.92
397.601	16.96
397.965	17.22
398.329	16.87
398.694	16.65
399.058	16.9
399.422	17.21
399.786	17.16
400.15	16.98
400.514	17.12
400.878	17.25
401.242	17.26
401.605	17.43
401.969	17.3
402.333	17.24
402.697	17.28
403.06	17.33
403.424	17.28
403.787	17.36
404.151	17.17
404.514	17.23
404.878	17.5
405.241	17.38
405.604	17.46
405.968	17.61
406.331	17.32
406.694	17.45
407.057	17.5
407.42	17.44
407.783	17.69
408.146	17.81
408.509	17.67
408.872	17.96
409.235	17.72
409.598	17.8
409.961	17.83
410.323	18.12
410.686	18.02
411.049	17.89
411.411	17.7
411.774	17.87
412.136	17.81
412.499	18.04
412.861	17.9
413.223	17.82
413.586	17.82
413.948	18.01
414.31	18.26
414.672	18.24
415.035	18.27
415.397	18.31
415.759	18.26
416.121	18.18
416.483	18.19
416.845	18.34
417.206	18.21
417.568	18.49
417.93	18.57
418.292	18.25
418.653	18.46
419.015	18.26
419.377	18.54
419.738	18.71
420.1	18.43
420.461	18.56
420.822	18.6
421.184	18.46
421.545	18.64
421.906	18.74
422.267	18.7
422.629	18.66
422.99	18.64
423.351	18.58
423.712	18.75
424.073	19.08
424.434	18.88
424.795	19.11
425.155	19.19
425.516	19.19
425.877	19.18
426.238	19.11
426.598	19.27
426.959	19.35
427.32	19.53
427.68	19.5
428.041	19.88
428.401	19.75
428.761	19.91
429.122	20.08
429.482	20.44
429.842	20.12
430.202	20.42
430.563	20.44
430.923	20.55
431.283	20.52
431.643	20.63
432.003	20.73
432.363	20.81
432.722	20.52
433.082	20.81
433.442	20.79
433.802	20.78
434.161	20.84
434.521	20.89
434.881	20.85
435.24	21.02
435.6	20.91
435.959	21.09
436.319	21.06
436.678	21.17
437.037	21.3
437.396	21.3
437.756	21.52
438.115	21.41
438.474	21.66
438.833	21.61
439.192	21.72
439.551	21.63
439.91	21.82
440.269	21.76
440.628	21.81
440.987	21.95
441.345	21.83
441.704	21.89
442.063	21.93
442.421	21.82
442.78	21.63
443.138	21.89
443.497	22.05
443.855	22.3
444.214	22.29
444.572	22.41
444.93	22.37
445.288	22.58
445.647	22.35
446.005	22.66
446.363	22.46
446.721	22.51
447.079	22.47
447.437	22.48
447.795	22.41
448.153	22.43
448.51	22.52
448.868	22.61
449.226	22.6
449.584	22.81
449.941	22.84
450.299	22.98
450.656	23.11
451.014	23.2
451.371	23.14
451.729	23.26
452.086	23.39
452.443	23.66
452.801	23.67
453.158	23.61
453.515	23.49
453.872	23.58
454.229	23.73
454.586	23.83
454.943	23.86
455.3	23.79
455.657	24.01
456.014	23.97
456.371	24.1
456.727	24.22
457.084	24.31
457.441	24.33
457.797	24.18
458.154	24.39
458.51	24.35
458.867	24.55
459.223	24.44
459.58	24.53
459.936	24.45
460.292	24.33
460.648	24.56
461.005	24.52
461.361	24.31
461.717	24.2
462.073	24.41
462.429	24.48
462.785	24.63
463.141	24.75
463.496	24.94
463.852	25.09
464.208	25.02
464.564	25.23
464.919	25.27
465.275	25.24
465.631	25.42
465.986	25.4
466.342	25.5
466.697	25.49
467.052	25.61
467.408	25.53
467.763	25.65
468.118	25.6
468.473	25.71
468.829	25.79
469.184	25.96
469.539	25.82
469.894	25.78
470.249	25.83
470.603	25.82
470.958	26.18
471.313	26.13
471.668	26.15
472.023	26.29
472.377	26.48
472.732	26.56
473.086	26.33
473.441	26.21
473.795	26.75
474.15	26.53
474.504	26.52
474.859	26.59
475.213	26.57
475.567	26.83
475.921	26.79
476.275	26.94
476.63	26.95
476.984	26.81
477.338	26.95
477.692	26.98
478.045	26.93
478.399	26.74
478.753	26.94
479.107	27.07
479.461	27.08
479.814	26.93
480.168	27.25
480.521	27.25
480.875	27.27
481.228	27.29
481.582	27.44
481.935	27.27
482.289	27.34
482.642	27.31
482.995	27.48
483.348	27.14
483.701	27.33
484.055	27.08
484.408	27.05
484.761	26.82
485.114	26.65
485.466	26.52
485.819	26.63
486.172	26.74
486.525	26.79
486.878	27.12
487.23	27.03
487.583	27.3
487.936	27.21
488.288	27.27
488.641	27.27
488.993	27.23
489.345	27.19
489.698	27.22
490.05	27.32
490.402	27.42
490.754	27.66
491.107	27.71
491.459	27.97
491.811	28.07
492.163	28.21
492.515	28.1
492.866	27.89
493.218	27.67
493.57	27.74
493.922	28.01
494.274	28.15
494.625	28.25
494.977	28.42
495.328	28.68
495.68	28.72
496.031	29
496.383	29.04
496.734	29.11
497.086	29.17
497.437	29.22
497.788	29.27
498.139	29.13
498.49	28.98
498.842	29.02
499.193	29.03
499.544	29.19
499.894	29.24
500.245	29.41
500.596	29.46
500.947	29.37
501.298	29.7
501.648	29.67
501.999	29.66
502.35	29.8
502.7	29.8
503.051	29.96
503.401	29.97
503.752	30.15
504.102	30.27
504.452	30.11
504.803	30.11
505.153	30.23
505.503	30.18
505.853	30.16
506.203	30.26
506.553	30.29
506.903	30.2
507.253	30.36
507.603	30.69
507.953	30.65
508.303	30.49
508.652	30.46
509.002	30.59
509.352	30.43
509.701	30.86
510.051	30.77
510.4	30.47
510.75	30.52
511.099	30.52
511.449	30.63
511.798	30.65
512.147	30.78
512.496	30.87
512.846	30.78
513.195	30.85
513.544	31.1
513.893	30.94
514.242	31.06
514.591	31.12
514.939	31.19
515.288	31.16
515.637	31.27
515.986	31.38
516.334	31.55
516.683	31.61
517.032	31.68
517.38	31.68
517.729	31.66
518.077	31.64
518.426	31.69
518.774	31.76
519.122	31.49
519.47	31.41
519.819	31.44
520.167	31.21
520.515	31.33
520.863	31.47
521.211	31.5
521.559	31.68
521.907	31.87
522.255	32.03
522.602	31.94
522.95	31.98
523.298	32.27
523.645	32.15
523.993	32.31
524.341	32.3
524.688	32.49
525.036	32.41
525.383	32.43
525.73	32.38
526.078	32.49
526.425	32.33
526.772	32.28
527.119	32.14
527.466	31.93
527.814	32.06
528.161	32.04
528.508	32.29
528.854	32.37
529.201	32.19
529.548	32.18
529.895	31.89
530.242	31.88
530.588	31.92
530.935	32.11
531.282	32.26
531.628	32.33
531.975	32.35
532.321	32.7
532.667	32.77
533.014	32.87
533.36	32.87
533.706	32.9
534.052	32.79
534.399	32.77
534.745	32.79
535.091	32.46
535.437	32.7
535.783	32.93
536.129	33.02
536.474	33.19
536.82	33.38
537.166	33.45
537.512	33.43
537.857	33.53
538.203	33.22
538.549	33.23
538.894	33.5
539.239	33.67
539.585	33.59
539.93	33.95
540.276	34.01
540.621	34.24
540.966	34.33
541.311	34.29
541.656	34.23
542.001	34.05
542.346	33.99
542.691	33.66
543.036	33.45
543.381	33.51
543.726	33.88
544.071	33.78
544.415	33.98
544.76	34.09
545.105	34.17
545.449	34.34
545.794	34.38
546.138	34.55
546.483	34.59
546.827	34.75
547.171	34.62
547.516	34.64
547.86	34.84
548.204	34.79
548.548	34.71
548.892	34.89
549.236	35
549.58	35.24
549.924	35.26
550.268	35.35
550.612	35.53
550.956	35.62
551.3	35.79
551.643	35.83
551.987	35.78
552.33	36
552.674	35.9
553.017	35.93
553.361	35.88
553.704	36.07
554.048	36.09
554.391	35.86
554.734	35.94
555.077	36.08
555.42	36.13
555.764	36.36
556.107	36.14
556.45	36.38
556.793	36.25
557.135	36.34
557.478	36.59
557.821	36.72
558.164	36.69
558.507	36.75
558.849	36.91
559.192	36.86
559.534	36.79
559.877	36.8
560.219	36.92
560.562	36.95
560.904	37.07
561.246	37.19
561.589	37.07
561.931	37.17
562.273	37.22
562.615	37.05
562.957	37.26
563.299	37.31
563.641	37.19
563.983	37.18
564.325	37.12
564.667	37.52
565.008	37.36
565.35	37.63
565.692	37.49
566.033	37.67
566.375	37.58
566.716	37.55
567.058	37.63
567.399	37.57
567.741	37.52
568.082	37.35
568.423	37.56
568.764	37.67
569.105	37.91
569.447	37.9
569.788	37.58
570.129	37.96
570.47	38.13
570.811	38.14
571.151	38.15
571.492	38.19
571.833	38.29
572.174	38.16
572.514	38.29
572.855	38.16
573.195	38.28
573.536	38.42
573.876	38.4
574.217	38.22
574.557	38.17
574.898	38.5
575.238	38.71
575.578	38.29
575.918	38.41
576.258	38.58
576.598	38.68
576.938	38.72
577.278	38.63
577.618	38.82
577.958	38.82
578.298	39.03
578.638	38.94
578.977	38.75
579.317	38.87
579.657	39.21
579.996	39.14
580.336	39.35
580.675	39.31
581.014	39.42
581.354	39.31
581.693	39.66
582.032	39.81
582.372	39.72
582.711	39.63
583.05	39.74
583.389	39.67
583.728	39.8
584.067	39.83
584.406	40.13
584.745	39.99
585.083	39.97
585.422	40
585.761	40.08
586.1	39.99
586.438	40.29
586.777	40.27
587.115	40.48
587.454	40.51
587.792	40.62
588.13	40.51
588.469	40.53
588.807	40.6
589.145	40.37
589.483	40.9
589.821	40.73
590.159	40.71
590.497	40.52
590.835	40.49
591.173	40.77
591.511	41
591.849	40.52
592.187	40.58
592.524	40.85
592.862	40.73
593.2	40.95
593.537	40.66
593.875	41.11
594.212	41.25
594.55	41.24
594.887	41.3
595.224	41.22
595.561	41.26
595.899	41.22
596.236	41.22
596.573	41.46
596.91	41.24
597.247	41.2
597.584	41.1
597.921	41.27
598.258	41.27
598.594	41.04
598.931	41.27
599.268	41.14
599.604	41.64
599.941	41.41
600.277	41.51
600.614	41.71
600.95	42.19
601.287	42.28
601.623	41.94
601.959	41.93
602.296	41.95
602.632	42.05
602.968	41.92
603.304	42.26
603.64	42.24
603.976	42.33
604.312	42.05
604.648	42.38
604.984	42.13
605.319	42.13
605.655	42.03
605.991	42.09
606.326	42.09
606.662	41.81
606.998	41.99
607.333	42.12
607.668	42.57
608.004	42.6
608.339	42.66
608.674	42.72
609.01	42.41
609.345	42.69
609.68	42.98
610.015	43.02
610.35	42.86
610.685	42.71
611.02	42.81
611.355	42.63
611.689	42.53
612.024	42.88
612.359	42.67
612.694	42.99
613.028	43.17
613.363	43.07
613.697	43.03
614.032	43.43
614.366	42.86
614.7	43.29
615.035	43.48
615.369	43.64
615.703	43.2
616.037	43.59
616.371	43.7
616.705	43.79
617.039	44.09
617.373	43.81
617.707	43.82
618.041	43.94
618.375	43.76
618.709	43.89
619.042	44.42
619.376	43.76
619.71	44.22
620.043	44.13
620.377	44.34
620.71	44.32
621.043	44.3
621.377	44.29
621.71	44.53
622.043	44.25
622.376	44.36
622.709	44.44
623.043	44.42
623.376	44.8
623.709	44.37
624.041	44.24
624.374	44.63
624.707	44.4
625.04	44.34
625.373	44.95
625.705	44.63
626.038	44.84
626.37	44.96
626.703	45.12
627.035	44.21
627.368	44.65
627.7	44.78
628.032	44.73
628.365	45.06
628.697	45
629.029	44.75
629.361	44.82
629.693	45.16
630.025	45.39
630.357	45.46
630.689	45.1
631.021	45.22
631.353	45.37
631.684	45.52
632.016	45.21
632.348	45.63
632.679	45.28
633.011	45.42
633.342	45.35
633.674	45.51
634.005	45.74
634.336	45.82
634.668	45.7
634.999	45.8
635.33	45.62
635.661	45.74
635.992	45.49
636.323	45.9
636.654	46.01
636.985	45.88
637.316	46.06
637.647	46.04
637.977	46.37
638.308	45.87
638.639	46.1
638.969	46.26
639.3	46.05
639.63	46.2
639.961	46.02
640.291	46.28
640.622	46.05
640.952	46.08
641.282	46.5
641.612	46.43
641.943	46.53
642.273	46.13
642.603	46.24
642.933	46.58
643.263	46.4
643.592	46.68
643.922	46.61
644.252	47.02
644.582	46.59
644.911	46.91
645.241	46.96
645.571	47.41
645.9	46.86
646.23	46.72
646.559	46.84
646.888	47.37
647.218	46.82
647.547	47.36
647.876	47.1
648.205	46.98
648.534	47.24
648.863	47.23
649.192	47.37
649.521	47.61
649.85	47.32
650.179	47.22
650.508	47.45
650.837	47.34
651.165	47.39
651.494	47.82
651.822	47.75
652.151	47.14
652.479	47.96
652.808	47.74
653.136	47.96
653.465	47.82
653.793	47.74
654.121	48.1
654.449	47.94
654.777	47.45
655.105	47.83
655.433	47.78
655.761	47.57
656.089	47.7
656.417	47.69
656.745	47.46
657.073	47.78
657.4	47.92
657.728	47.98
658.056	48.02
658.383	48.39
658.711	47.89
659.038	47.77
659.365	48.41
659.693	48.7
660.02	48.4
660.347	48.1
660.674	47.79
661.001	48.02
661.329	48.33
661.656	48.21
661.982	48.55
662.309	48.46
662.636	48.31
662.963	48.66
663.29	48.85
663.616	48.34
663.943	49.12
664.27	49.24
664.596	48.85
664.923	48.79
665.249	49.16
665.576	49.25
665.902	49.58
666.228	48.44
666.554	49.09
666.881	48.71
667.207	49.05
667.533	49.34
667.859	49.04
668.185	49.2
668.511	49.07
668.837	49.32
669.162	49.53
669.488	49.59
669.814	49.67
670.139	49.24
670.465	49.46
670.791	49.01
671.116	48.95
671.442	48.88
671.767	49.13
672.092	49.41
672.418	49.2
672.743	49.05
673.068	49.78
673.393	49.69
673.718	50.1
674.043	49.75
674.368	50.11
674.693	49.44
675.018	50.05
675.343	49.99
675.667	49.41
675.992	50.1
676.317	49.32
676.641	50.35
676.966	49.81
677.29	49.53
677.615	50.21
677.939	49.67
678.264	49.78
678.588	50.12
678.912	49.81
679.236	49.97
679.56	50.02
679.885	50.09
680.209	50.34
680.532	50.12
680.856	50.88
681.18	49.74
681.504	50.03
681.828	50.07
682.152	50.36
682.475	50.38
682.799	50.15
683.122	50.63
683.446	51.07
683.769	50.41
684.093	50.76
684.416	50.59
684.739	50.48
685.062	50.22
685.386	51.14
685.709	50.96
686.032	50.67
686.355	50.55
686.678	50.47
687.001	50.96
687.324	50.5
687.646	50.72
687.969	50.89
688.292	50.77
688.614	50.83
688.937	50.91
689.26	50.7
689.582	50.63
689.904	50.5
690.227	51.73
690.549	51.34
690.871	50.6
691.194	50.96
691.516	50.98
691.838	51.68
692.16	51.72
692.482	51.28
692.804	50.97
693.126	51.13
693.448	51.63
693.769	50.8
694.091	51.14
694.413	51.52
694.735	51.17
695.056	51.55
695.378	51.84
695.699	51.18
696.021	51.87
696.342	51.18
696.663	51.86
696.984	51.41
697.306	51.86
697.627	51.12
697.948	51.87
698.269	51.43
698.59	51.84
698.911	51.65
699.232	51.26
699.553	51.47
699.873	51.75
700.194	51.52
700.515	51.56
700.835	51.58
701.156	51.77
701.477	51.53
701.797	51.36
702.117	51.5
702.438	52.53
702.758	52.27
703.078	52.66
703.398	52.71
703.719	51.45
704.039	51.51
704.359	52.62
704.679	51.58
704.999	51.96
705.319	51.2
705.638	51.91
705.958	51.92
706.278	53.01
706.597	52.51
706.917	52.36
707.237	52.75
707.556	53.41
707.876	53.08
708.195	52.36
708.514	52.34
708.834	52.17
709.153	52.55
709.472	52.43
709.791	53.1
710.11	52.53
710.429	51.54
710.748	53.02
711.067	51.79
711.386	52.78
711.705	52.37
712.023	53.72
712.342	52.43
712.661	52.3
712.979	52.52
713.298	53.23
713.616	53.99
713.935	53.24
714.253	52.43
714.572	52.82
714.89	52.49
715.208	52.88
715.526	52.66
715.844	51.6
716.162	52.81
716.48	53.07
716.798	53.18
717.116	53.15
717.434	53.03
717.752	52.86
718.069	53.48
718.387	53.31
718.705	52.7
719.022	53.34
719.34	53.56
719.657	52.19
719.975	53.17
720.292	52.79
720.609	54.24
720.927	54.07
721.244	53.62
721.561	54.21
721.878	52.99
722.195	53.77
722.512	53.08
722.829	52.65
723.146	51.92
723.463	53.66
723.779	53.23
724.096	54.58
724.413	54.21
724.729	52.99
725.046	54.72
725.362	54.37
725.679	53.18
725.995	53.63
726.311	54.21
726.628	53.15
726.944	54.31
727.26	54.23
727.576	53.82
727.892	52.89
728.208	53.68
728.524	54.41
728.84	53.87
729.156	55.02
729.472	53.93
729.787	53.52
730.103	55.04
730.419	53.97
730.734	54.57
731.05	54.33
731.365	54.43
731.681	54.83
731.996	53.76
732.311	54.5
732.626	54.22
732.942	54.14
733.257	53.35
733.572	54.54
733.887	53.79
734.202	54.55
734.517	54.76
734.832	55.03
735.146	53.76
735.461	54.98
735.776	55.13
736.091	54.83
736.405	54.87
736.72	54.82
737.034	55.77
737.349	54.51
737.663	53.78
737.977	54.04
738.292	54.73
738.606	54.59
738.92	55.11
739.234	56.04
739.548	55.37
739.862	55.36
740.176	54.51
740.49	55.24
740.804	54.61
741.117	54.36
741.431	55.01
741.745	55.11
742.058	55.96
742.372	56.25
742.685	54.49
742.999	54.33
743.312	56.13
743.626	55.35
743.939	53.97
744.252	54.16
744.565	56.59
744.878	56.39
745.191	55.99
745.505	55.65
745.817	55.13
746.13	54.66
746.443	54.67
746.756	56.92
747.069	56.1
747.381	54.82
747.694	56.06
748.007	56.75
748.319	54.14
748.632	56.05
748.944	56.92
749.256	55.7
749.569	54.38
749.881	56.36
750.193	56.12
750.505	55.55
750.817	54.86
751.129	55.18
751.441	57.04
751.753	54.48
752.065	55.26
752.377	56.29
752.689	56.48
753	56.95
753.312	54.76
753.624	53.88
753.935	55.67
754.247	55.67
754.558	54.94
754.869	55.39
755.181	55.82
755.492	56.32
755.803	56.31
756.114	56.46
756.425	55.97
756.736	55.71
757.047	56.94
757.358	54.79
757.669	57.97
757.98	56.32
758.291	54.39
758.601	56.09
758.912	56.97
759.223	56.41
759.533	56.11
759.844	56.12
760.154	56.33
760.464	55.69
760.775	56.87
761.085	55.14
761.395	54.15
761.705	55.26
762.016	58.25
762.326	56.38
762.636	57.2
762.945	55.46
763.255	58.1
763.565	56.88
763.875	58.22
764.185	56.38
764.494	55.86
764.804	55.52
765.113	56.85
765.423	56.71
765.732	57.8
766.042	56.29
766.351	57.13
766.66	57.5
766.97	56.53
767.279	59.08
767.588	58.28
767.897	57.81
768.206	57.21
768.515	57.71
768.824	56.33
769.133	57.74
769.441	56.14
769.75	55.48
770.059	56.72
770.367	57.57
770.676	58.37
770.984	58.47
771.293	56.96
771.601	57.7
771.91	57.08
772.218	57.83
772.526	57.06
772.834	58.88
773.142	57.85
773.45	56.03
773.758	56.02
774.066	57.17
774.374	57.2
774.682	56.9
774.99	58.22
775.298	58.48
775.605	57.91
775.913	54.68
776.22	57.93
776.528	57.68
776.835	55.97
777.143	57.55
777.45	53.86
777.757	56.28
778.065	56.61
778.372	59.26
778.679	59.37
778.986	56.62
779.293	57.72
779.6	55.39
779.907	57.03
780.214	56.66
780.52	58.8
780.827	58.26
781.134	54.63
781.44	57.89
781.747	59.7
782.053	59.29
782.36	58.51
782.666	56.11
782.973	57.54
783.279	51.71
783.585	60.99
783.891	57.92
784.197	56.42
784.503	60.14
784.809	57.06
785.115	59.09
785.421	56.34
785.727	53.5
786.033	58.57
786.339	57.23
786.644	59.49
786.95	55.12
787.255	57.55
787.561	60.53
787.866	58.88
788.172	64.62
788.477	60.76
788.782	58.81
789.088	58.25
789.393	58.62
789.698	60.46
790.003	57.15
790.308	57.2
790.613	60.42
790.918	58.9
791.223	58.02
791.527	56.57
791.832	57.1
792.137	58.68
792.441	60.76
792.746	58.31
793.05	59.67
793.355	56.75
793.659	59.28
793.963	57.12
794.268	62.72
794.572	59.57
794.876	60.25
795.18	58.39
795.484	62.04
795.788	57.29
796.092	60.86
796.396	59.18
796.7	58.52
797.004	55.88
797.307	61.6
797.611	57.84
797.915	58.42
798.218	59.45
798.522	60.63
798.825	53.73
799.128	62.07
799.432	60.57
799.735	59.93
800.038	61.01
800.341	63.8
800.644	58.08
800.947	59.38
801.25	61.13
801.553	57.62
801.856	59.94
802.159	61.85
802.462	59.51
802.764	60.22
803.067	57.44
803.37	59.79
803.672	57.44
803.975	58.6
804.277	60.45
804.579	58.65
804.882	56.32
805.184	58.95
805.486	62.32
805.788	61.67
806.09	58.69
806.392	56.1
806.694	56.17
806.996	57.09
807.298	55.21
807.6	58.86
807.902	61.37
808.203	55.44
808.505	57.91
808.807	58.73
809.108	53.92
809.409	58.28
809.711	60.96
810.012	57.33
810.313	58.87
810.615	61.6
810.916	65.16
811.217	64.5
811.518	61.8
811.819	60.43
812.12	55.56
812.421	57.15
812.722	55.41
813.023	56
813.323	58.46
813.624	57.15
813.925	52.63
814.225	60.8
814.526	60.25
814.826	64.42
815.126	59.42
815.427	68.04
815.727	63.21
816.027	58.44
816.327	64.19
816.627	62.29
816.927	62.76
817.227	59.86
817.527	61.8
817.827	57.3
818.127	60.03
818.427	64.98
818.727	54.43
819.026	58.5
819.326	60.29
819.625	59.19
819.925	62.12
820.224	57.68
820.524	55.94
820.823	66.49
821.122	64.86
821.421	59.78
821.72	59.24
822.019	67.2
822.318	60.32
822.617	56.97
822.916	62.01
823.215	60.06
823.514	59.94
823.813	59.5
824.111	59.44
824.41	59.8
824.709	61.35
825.007	59.85
825.306	61.07
825.604	61.12
825.902	61.55
826.201	61.49
826.499	61.98
826.797	60.64
827.095	62.1
827.393	60.7
827.691	62.17
827.989	61.19
828.287	62.9
828.585	62.74
828.882	61.29
829.18	59.64
829.478	61.15
829.775	60.89
830.073	60.24
830.37	59.86
830.668	62.19
830.965	62.99
831.263	62.83
831.56	62.4
831.857	61.11
832.154	63.61
832.451	60.87
832.748	62.13
833.045	58.01
833.342	64
833.639	62.19
833.936	64.83
834.232	62.92
834.529	64.91
834.826	65.22
835.122	65.23
835.419	62.37
835.715	56.24
836.012	62.7
836.308	60.43
836.604	59.29
836.901	59.51
837.197	64.02
837.493	63.58
837.789	62.85
838.085	62.58
838.381	61.89
838.677	64.56
838.972	68.41
839.268	61.42
839.564	63.09
839.86	68.35
840.155	63.16
840.451	66.32
840.746	70.61
841.042	65.2
841.337	52.12
841.632	58.17
841.928	66.15
842.223	55.81
842.518	64.89
842.813	46.88
843.108	66.68
843.403	60.66
843.698	58.55
843.993	54.6
844.287	69.69
844.582	65.46
844.877	70.82
845.171	70.41
845.466	64.05
845.761	63.56
846.055	61.91
846.349	59.64
846.644	62.82
846.938	59.72
847.232	49.02
847.526	55.76
847.82	70.66
848.114	68.32
848.408	58.13
848.702	68.59
848.996	58.31
849.29	57.09
849.584	80.55
849.877	58.43
850.171	66.56
850.465	53.53
850.758	55.99
851.052	64.54
851.345	58.89
851.638	55.68
851.932	69.92
852.225	69.11
852.518	62.91
852.811	89.06
853.104	56.91
853.397	49.63
853.69	56.62
853.983	34.98
854.276	56.87
854.569	49.61
854.861	52.16
855.154	51.49
855.447	57.91
855.739	52.38
856.032	53.79
856.324	66.94
856.616	71.38
856.909	51.13
857.201	44.02
857.493	59.46
857.785	61.1
858.077	85.83
858.369	64.73
858.661	55.73
858.953	79.38
859.245	52.87
859.537	75.24
859.829	53.42
860.12	72.15
860.412	60.45
860.703	68.37
860.995	61.31
861.286	46
861.578	50.75
861.869	53.37
862.16	24.83
862.452	74.75
862.743	64.53
863.034	73.54
863.325	57.3
863.616	44.56
863.907	72.48
864.198	50.13
864.488	51.88
864.779	58.49
865.07	41.78
865.36	34.6
865.651	51.26
865.941	68.82
866.232	68.04
866.522	73.72
866.813	52.49
867.103	54.09
867.393	57.12
867.683	47.16
867.973	49.79
868.263	82.17
868.553	60.31
868.843	71.82
869.133	50.09
869.423	50.79
869.713	77.12
870.002	91.42
870.292	59.04
870.582	53.98
870.871	55.88
871.161	84.48
871.45	22.45
871.739	61.4
872.029	85.81
872.318	74.55
872.607	19.92
872.896	73.63
873.185	68.12
873.474	44.13
873.763	74.87
874.052	69.34
874.341	78.28
874.63	69.79
874.918	61.93
875.207	41.08
875.496	60.7
875.784	56.09
876.073	64.91
876.361	70.74
876.649	54.21
876.938	60.94
877.226	80.95
877.514	50.19
877.802	39.13
878.09	63.33
878.378	39.2
878.666	59.26
878.954	50.43
879.242	64.75
879.53	79.04
879.817	48.56
880.105	92.28
880.392	60.85
880.68	60.65
880.967	37.22
881.255	60.36
881.542	61.95
881.83	75.87
882.117	38.56
882.404	58.18
882.691	59.02
882.978	77
883.265	55.45
883.552	64.17
883.839	70.32
884.126	80
884.413	59.07
884.699	66.48
884.986	61.41
885.273	65.09
885.559	65.09
885.846	65.09
