Data from 002-16_crown_Reflection__5__151.txt Node

Date: Fri Nov 11 17:15:18 CST 2022
User: ToomeyLab
Spectrometer: FLMS14357
Trigger mode: 0
Integration Time (sec): 1.000000E-2
Scans to average: 100
Electric dark correction enabled: true
Nonlinearity correction enabled: false
Boxcar width: 0
XAxis mode: Wavelengths
Number of Pixels in Spectrum: 2048
>>>>>Begin Spectral Data<<<<<
189.047	-71.94
189.435	-71.94
189.823	-71.94
190.211	207.52
190.599	49.98
190.987	25.28
191.375	3735.47
191.763	72.24
192.151	126.28
192.538	-1.85
192.926	27.99
193.314	771.02
193.702	106.07
194.089	-481.6
194.477	38.7
194.864	164.91
195.252	-61.82
195.639	49.19
196.027	70.23
196.414	44.1
196.801	18027.27
197.189	323.35
197.576	131.39
197.963	44.96
198.351	22.73
198.738	-126
199.125	-0.12
199.512	52.36
199.899	-16.44
200.286	21.78
200.673	32.67
201.06	-50.22
201.447	26.55
201.833	16.79
202.22	80.49
202.607	51.58
202.994	9.97
203.38	-5.82
203.767	26.56
204.154	-62.18
204.54	5.2
204.927	31.91
205.313	23.01
205.699	-3.32
206.086	22.66
206.472	40.38
206.858	-13.31
207.245	3.51
207.631	24.07
208.017	-1.05
208.403	26.07
208.789	-85.85
209.175	-2.22
209.561	22.95
209.947	-22.9
210.333	49.91
210.719	24.64
211.105	-38.67
211.491	-104.94
211.876	37.4
212.262	-46.63
212.648	-18.28
213.034	-5.34
213.419	23.43
213.805	25.95
214.19	3.49
214.576	-12.86
214.961	-11.35
215.346	-26.85
215.732	-49.9
216.117	20.49
216.502	5.52
216.888	25.89
217.273	-2.34
217.658	19.85
218.043	23
218.428	-83.15
218.813	34.55
219.198	-6.16
219.583	4.14
219.968	9.88
220.353	-32.53
220.738	-21.83
221.122	-21.44
221.507	23
221.892	9.63
222.276	6.18
222.661	20.94
223.046	19.16
223.43	2.56
223.815	6.4
224.199	-4
224.583	3.65
224.968	13.2
225.352	-0.62
225.736	-1.16
226.121	7.64
226.505	-0.47
226.889	6.94
227.273	4.13
227.657	-1.37
228.041	1.24
228.425	7.22
228.809	8.59
229.193	1.84
229.577	6.88
229.961	6.37
230.344	5.9
230.728	5.72
231.112	6.06
231.495	6.7
231.879	3.93
232.263	4.75
232.646	5.2
233.03	5.1
233.413	4.45
233.797	3.64
234.18	7.07
234.563	5.15
234.946	5.04
235.33	6.01
235.713	5.65
236.096	2.54
236.479	4.31
236.862	5.25
237.245	4.36
237.628	4.42
238.011	6.55
238.394	5.8
238.777	3.77
239.16	6.9
239.543	4.76
239.925	7.97
240.308	3.78
240.691	4.43
241.073	4.22
241.456	4.06
241.838	4.62
242.221	4.36
242.603	5.38
242.986	4.96
243.368	4.97
243.75	5.08
244.133	4.96
244.515	5.63
244.897	5.12
245.279	4.69
245.661	5.38
246.043	5.88
246.425	5.8
246.807	5.13
247.189	4.98
247.571	4.1
247.953	4.53
248.335	5.46
248.717	5.19
249.098	5.15
249.48	5.13
249.862	4.98
250.243	5.18
250.625	4.75
251.006	5.46
251.388	5.31
251.769	5.77
252.151	4.85
252.532	4.6
252.913	3.57
253.295	4.43
253.676	5.49
254.057	4.73
254.438	5.24
254.819	4.64
255.2	5.42
255.581	3.79
255.962	3.61
256.343	6.82
256.724	4.69
257.105	5.78
257.486	5.23
257.867	4.16
258.247	4.73
258.628	4.25
259.009	4.62
259.389	4.58
259.77	5.41
260.15	5.04
260.531	4.81
260.911	4.55
261.292	4.72
261.672	4.63
262.052	4.85
262.432	5.17
262.813	4.85
263.193	4.66
263.573	5.04
263.953	4.08
264.333	4.46
264.713	4.31
265.093	4.86
265.473	5.5
265.853	4.6
266.233	3.91
266.612	4.14
266.992	4.39
267.372	5.32
267.752	4.51
268.131	4.54
268.511	4.4
268.89	5.17
269.27	3.72
269.649	3.69
270.029	3.89
270.408	4.03
270.787	5.36
271.167	4.14
271.546	4.52
271.925	4.97
272.304	4.87
272.683	4.67
273.062	4.7
273.441	4.17
273.82	3.83
274.199	4.61
274.578	5.03
274.957	4.42
275.336	4.44
275.715	4.06
276.093	4.7
276.472	4.05
276.851	3.95
277.229	4.01
277.608	4.31
277.986	4.81
278.365	4.79
278.743	4.39
279.122	3.97
279.5	4.05
279.878	4.43
280.257	4.45
280.635	4.28
281.013	4.11
281.391	4.32
281.769	4.61
282.147	3.46
282.525	4.01
282.903	4.49
283.281	4.22
283.659	3.97
284.037	4.24
284.415	4.46
284.792	3.93
285.17	3.93
285.548	4.86
285.925	4.21
286.303	3.8
286.68	4.08
287.058	4.38
287.435	4.39
287.813	4.26
288.19	4.44
288.567	4.27
288.945	3.71
289.322	4.06
289.699	4.61
290.076	3.7
290.453	3.35
290.83	4.26
291.207	4.02
291.584	4.22
291.961	3.61
292.338	4.23
292.715	3.82
293.092	3.62
293.469	4.28
293.845	3.82
294.222	3.79
294.599	3.78
294.975	3.26
295.352	3.73
295.728	4.06
296.105	3.72
296.481	3.55
296.858	3.7
297.234	3.51
297.61	3.76
297.986	3.39
298.363	3.65
298.739	3.8
299.115	3.8
299.491	3.96
299.867	3.73
300.243	3.42
300.619	4.11
300.995	3.61
301.371	3.29
301.746	3.85
302.122	3.37
302.498	3.36
302.874	3.75
303.249	3.44
303.625	3.38
304	3.38
304.376	3.76
304.751	3.85
305.127	3.89
305.502	4.05
305.878	4.01
306.253	3.49
306.628	4.04
307.003	3.57
307.378	3.86
307.754	4.06
308.129	3.62
308.504	3.55
308.879	3.09
309.254	3.19
309.629	3.15
310.003	3.1
310.378	2.96
310.753	3.04
311.128	3.48
311.502	3.04
311.877	3.76
312.252	3.45
312.626	3.43
313.001	3.51
313.375	3.42
313.75	3.54
314.124	3.37
314.498	3.72
314.873	3.16
315.247	3.21
315.621	3.22
315.995	2.89
316.369	3.32
316.743	3.53
317.117	3.35
317.491	3.82
317.865	3.66
318.239	3.42
318.613	3.17
318.987	3.9
319.361	3.12
319.734	3.38
320.108	3.42
320.482	2.39
320.855	3.01
321.229	3.92
321.602	3.05
321.976	2.89
322.349	3.16
322.723	2.87
323.096	3.41
323.469	3.29
323.843	3.49
324.216	2.66
324.589	3.09
324.962	3.49
325.335	3.46
325.708	3.26
326.081	3.31
326.454	3.22
326.827	2.79
327.2	3.09
327.573	3.04
327.945	3.35
328.318	3.38
328.691	3.69
329.063	3.45
329.436	3.67
329.809	3.01
330.181	3.41
330.553	3.46
330.926	2.83
331.298	2.66
331.671	3.28
332.043	3.49
332.415	3.53
332.787	3.39
333.159	3.19
333.532	2.84
333.904	3.34
334.276	2.94
334.648	3.09
335.02	3.55
335.391	2.93
335.763	2.86
336.135	3.23
336.507	3.38
336.879	3
337.25	2.16
337.622	3.46
337.993	3.26
338.365	2.95
338.736	3.59
339.108	3.17
339.479	3.3
339.851	2.81
340.222	2.93
340.593	2.6
340.964	3.21
341.336	2.95
341.707	2.94
342.078	2.76
342.449	3.16
342.82	3.27
343.191	3.76
343.562	3.21
343.933	2.87
344.303	3.57
344.674	3.8
345.045	2.81
345.416	3.26
345.786	2.98
346.157	2.89
346.527	3.25
346.898	2.99
347.268	3.06
347.639	3.34
348.009	3.07
348.38	3.39
348.75	3.58
349.12	3.35
349.49	3.13
349.861	2.76
350.231	3.28
350.601	3.82
350.971	3.61
351.341	2.99
351.711	3.07
352.081	2.63
352.45	3.2
352.82	3.4
353.19	3.29
353.56	3.41
353.929	3.5
354.299	3.37
354.669	3.3
355.038	3.14
355.408	3.02
355.777	3.76
356.147	3.16
356.516	3.55
356.885	3.23
357.254	3.08
357.624	3.5
357.993	3.61
358.362	3.23
358.731	3.43
359.1	3.09
359.469	3.03
359.838	3.39
360.207	3.66
360.576	3.26
360.945	3.59
361.314	3.34
361.682	3.38
362.051	3.42
362.42	3.15
362.788	3.2
363.157	3.44
363.525	3.53
363.894	3.11
364.262	3.06
364.631	3.25
364.999	3.32
365.367	3.54
365.735	3.4
366.104	3.16
366.472	3.41
366.84	3.17
367.208	3.23
367.576	3.19
367.944	3.63
368.312	3.51
368.68	3.31
369.048	3.3
369.416	3.41
369.783	3.41
370.151	3.45
370.519	3.53
370.886	3.14
371.254	3.18
371.621	3.22
371.989	3.15
372.356	3.04
372.724	3.72
373.091	3.24
373.458	3.27
373.826	3.42
374.193	3.46
374.56	3.08
374.927	3.55
375.294	3.67
375.661	3.69
376.028	3.51
376.395	3.7
376.762	3.44
377.129	3.47
377.496	3.64
377.863	3.53
378.229	3.58
378.596	3.72
378.963	3.4
379.329	3.39
379.696	3.57
380.062	3.56
380.429	3.41
380.795	3.31
381.161	3.56
381.528	3.35
381.894	3.54
382.26	3.44
382.626	3.37
382.993	3.77
383.359	3.49
383.725	3.73
384.091	3.37
384.457	3.68
384.823	3.24
385.188	3.72
385.554	3.59
385.92	3.34
386.286	3.23
386.651	3.48
387.017	3.13
387.383	3.48
387.748	3.54
388.114	3.51
388.479	3.45
388.845	3.51
389.21	3.54
389.575	3.48
389.94	3.83
390.306	3.52
390.671	3.3
391.036	3.76
391.401	3.41
391.766	3.58
392.131	3.42
392.496	3.53
392.861	3.56
393.226	3.72
393.591	3.52
393.956	3.65
394.32	3.77
394.685	3.75
395.05	3.87
395.414	3.71
395.779	3.46
396.143	3.54
396.508	3.45
396.872	3.76
397.236	3.48
397.601	3.45
397.965	3.81
398.329	3.62
398.694	3.61
399.058	3.7
399.422	3.75
399.786	3.98
400.15	3.48
400.514	3.67
400.878	3.7
401.242	3.79
401.605	3.63
401.969	3.81
402.333	3.75
402.697	3.71
403.06	3.59
403.424	3.48
403.787	3.79
404.151	3.74
404.514	3.71
404.878	3.77
405.241	3.64
405.604	3.82
405.968	3.92
406.331	3.68
406.694	3.75
407.057	3.77
407.42	3.85
407.783	3.81
408.146	3.8
408.509	3.94
408.872	3.79
409.235	3.87
409.598	3.68
409.961	3.77
410.323	4
410.686	3.84
411.049	3.97
411.411	3.77
411.774	3.7
412.136	3.83
412.499	3.91
412.861	3.63
413.223	3.68
413.586	3.89
413.948	3.9
414.31	3.77
414.672	3.97
415.035	3.93
415.397	3.88
415.759	3.82
416.121	4.02
416.483	3.75
416.845	3.92
417.206	3.93
417.568	3.87
417.93	3.82
418.292	3.74
418.653	3.78
419.015	3.67
419.377	4
419.738	3.98
420.1	3.76
420.461	3.79
420.822	3.79
421.184	3.85
421.545	3.73
421.906	3.8
422.267	3.9
422.629	3.82
422.99	3.75
423.351	3.78
423.712	3.84
424.073	3.87
424.434	3.81
424.795	3.96
425.155	3.9
425.516	3.85
425.877	3.82
426.238	3.78
426.598	3.81
426.959	3.84
427.32	3.97
427.68	3.91
428.041	3.95
428.401	3.98
428.761	3.89
429.122	3.85
429.482	4.12
429.842	3.91
430.202	3.99
430.563	3.9
430.923	3.99
431.283	4.01
431.643	4.09
432.003	4.15
432.363	4.03
432.722	4.01
433.082	3.99
433.442	4.13
433.802	4.04
434.161	4.12
434.521	3.95
434.881	3.91
435.24	4.03
435.6	3.85
435.959	3.95
436.319	3.98
436.678	3.96
437.037	4.1
437.396	3.88
437.756	4.07
438.115	3.88
438.474	3.96
438.833	3.98
439.192	3.95
439.551	3.88
439.91	3.98
440.269	4.05
440.628	4.06
440.987	4.15
441.345	4.07
441.704	4
442.063	4.08
442.421	3.96
442.78	4.01
443.138	3.97
443.497	4.01
443.855	3.99
444.214	4.07
444.572	4.07
444.93	4.09
445.288	4.24
445.647	3.98
446.005	4.06
446.363	3.97
446.721	4
447.079	4.03
447.437	4.04
447.795	3.97
448.153	4
448.51	3.98
448.868	3.99
449.226	4.1
449.584	4.04
449.941	4.09
450.299	4.1
450.656	4.1
451.014	4.16
451.371	4.05
451.729	4.06
452.086	4.08
452.443	4.17
452.801	4.14
453.158	4.14
453.515	4.01
453.872	4.08
454.229	4.03
454.586	4.1
454.943	4.11
455.3	4.09
455.657	4.11
456.014	4.1
456.371	4.05
456.727	4.06
457.084	4.18
457.441	4.27
457.797	4.31
458.154	4.08
458.51	4.27
458.867	4.26
459.223	4.08
459.58	4.25
459.936	4.31
460.292	4.12
460.648	4.11
461.005	4.2
461.361	4.13
461.717	4.05
462.073	4.18
462.429	4.13
462.785	4.18
463.141	4.28
463.496	4.16
463.852	4.35
464.208	4.26
464.564	4.3
464.919	4.26
465.275	4.34
465.631	4.14
465.986	4.16
466.342	4.42
466.697	4.29
467.052	4.3
467.408	4.28
467.763	4.24
468.118	4.25
468.473	4.24
468.829	4.18
469.184	4.25
469.539	4.39
469.894	4.22
470.249	4.29
470.603	4.15
470.958	4.43
471.313	4.34
471.668	4.4
472.023	4.41
472.377	4.36
472.732	4.33
473.086	4.23
473.441	4.21
473.795	4.28
474.15	4.22
474.504	4.4
474.859	4.4
475.213	4.35
475.567	4.39
475.921	4.46
476.275	4.39
476.63	4.22
476.984	4.31
477.338	4.26
477.692	4.4
478.045	4.28
478.399	4.35
478.753	4.38
479.107	4.31
479.461	4.25
479.814	4.36
480.168	4.37
480.521	4.39
480.875	4.4
481.228	4.34
481.582	4.4
481.935	4.32
482.289	4.43
482.642	4.36
482.995	4.35
483.348	4.2
483.701	4.32
484.055	4.29
484.408	4.16
484.761	4.11
485.114	4.03
485.466	3.93
485.819	3.99
486.172	4.04
486.525	4.1
486.878	4.19
487.23	4.21
487.583	4.25
487.936	4.21
488.288	4.11
488.641	4.15
488.993	4.03
489.345	4.07
489.698	4.08
490.05	4.05
490.402	4.12
490.754	4.26
491.107	4.23
491.459	4.32
491.811	4.28
492.163	4.22
492.515	4.3
492.866	4.15
493.218	4.08
493.57	4.08
493.922	4.16
494.274	4.26
494.625	4.25
494.977	4.38
495.328	4.4
495.68	4.43
496.031	4.33
496.383	4.42
496.734	4.42
497.086	4.4
497.437	4.35
497.788	4.42
498.139	4.31
498.49	4.28
498.842	4.36
499.193	4.3
499.544	4.35
499.894	4.37
500.245	4.33
500.596	4.34
500.947	4.36
501.298	4.46
501.648	4.48
501.999	4.5
502.35	4.38
502.7	4.4
503.051	4.36
503.401	4.25
503.752	4.35
504.102	4.35
504.452	4.51
504.803	4.36
505.153	4.47
505.503	4.49
505.853	4.49
506.203	4.46
506.553	4.54
506.903	4.35
507.253	4.42
507.603	4.6
507.953	4.54
508.303	4.31
508.652	4.26
509.002	4.29
509.352	4.42
509.701	4.38
510.051	4.44
510.4	4.33
510.75	4.37
511.099	4.26
511.449	4.35
511.798	4.29
512.147	4.51
512.496	4.38
512.846	4.31
513.195	4.32
513.544	4.4
513.893	4.31
514.242	4.43
514.591	4.34
514.939	4.34
515.288	4.41
515.637	4.37
515.986	4.41
516.334	4.41
516.683	4.49
517.032	4.33
517.38	4.36
517.729	4.55
518.077	4.3
518.426	4.52
518.774	4.39
519.122	4.37
519.47	4.21
519.819	4.31
520.167	4.19
520.515	4.35
520.863	4.32
521.211	4.37
521.559	4.33
521.907	4.39
522.255	4.48
522.602	4.4
522.95	4.34
523.298	4.4
523.645	4.48
523.993	4.46
524.341	4.43
524.688	4.3
525.036	4.38
525.383	4.37
525.73	4.35
526.078	4.3
526.425	4.33
526.772	4.32
527.119	4.33
527.466	4.29
527.814	4.24
528.161	4.24
528.508	4.21
528.854	4.27
529.201	4.24
529.548	4.25
529.895	4.11
530.242	4.04
530.588	4.04
530.935	4.08
531.282	4.2
531.628	4.2
531.975	4.22
532.321	4.26
532.667	4.32
533.014	4.31
533.36	4.26
533.706	4.29
534.052	4.23
534.399	4.18
534.745	4.21
535.091	4.12
535.437	4.15
535.783	4.17
536.129	4.22
536.474	4.27
536.82	4.3
537.166	4.31
537.512	4.31
537.857	4.38
538.203	4.23
538.549	4.2
538.894	4.26
539.239	4.26
539.585	4.27
539.93	4.35
540.276	4.34
540.621	4.33
540.966	4.4
541.311	4.38
541.656	4.23
542.001	4.33
542.346	4.17
542.691	4.1
543.036	4.06
543.381	4.09
543.726	4.17
544.071	4.11
544.415	4.21
544.76	4.18
545.105	4.29
545.449	4.19
545.794	4.22
546.138	4.22
546.483	4.23
546.827	4.35
547.171	4.27
547.516	4.13
547.86	4.29
548.204	4.17
548.548	4.21
548.892	4.3
549.236	4.37
549.58	4.34
549.924	4.35
550.268	4.41
550.612	4.34
550.956	4.39
551.3	4.45
551.643	4.49
551.987	4.41
552.33	4.22
552.674	4.14
553.017	4.35
553.361	4.27
553.704	4.25
554.048	4.29
554.391	4.36
554.734	4.29
555.077	4.21
555.42	4.22
555.764	4.27
556.107	4.41
556.45	4.21
556.793	4.49
557.135	4.27
557.478	4.32
557.821	4.31
558.164	4.34
558.507	4.33
558.849	4.22
559.192	4.42
559.534	4.3
559.877	4.45
560.219	4.44
560.562	4.35
560.904	4.26
561.246	4.24
561.589	4.44
561.931	4.39
562.273	4.34
562.615	4.28
562.957	4.2
563.299	4.38
563.641	4.34
563.983	4.19
564.325	4.2
564.667	4.35
565.008	4.22
565.35	4.34
565.692	4.22
566.033	4.47
566.375	4.36
566.716	4.25
567.058	4.07
567.399	4.14
567.741	4.33
568.082	4.3
568.423	4.18
568.764	4.17
569.105	4.16
569.447	4.16
569.788	4.1
570.129	4.24
570.47	4.08
570.811	4.29
571.151	4.28
571.492	4.35
571.833	4.25
572.174	4.37
572.514	4.29
572.855	4.15
573.195	4.18
573.536	4.12
573.876	4.16
574.217	4.08
574.557	4.09
574.898	4.13
575.238	4.08
575.578	4.1
575.918	4.16
576.258	4.3
576.598	4.33
576.938	4.19
577.278	4.33
577.618	4.26
577.958	4.34
578.298	4.11
578.638	4.13
578.977	4.19
579.317	4.17
579.657	4.32
579.996	4.25
580.336	4.2
580.675	4.18
581.014	4.29
581.354	4.33
581.693	3.99
582.032	4.41
582.372	4.41
582.711	4.27
583.05	4.32
583.389	4.21
583.728	4.08
584.067	4.23
584.406	4.32
584.745	4.2
585.083	4.25
585.422	4.25
585.761	4.44
586.1	4.06
586.438	4.29
586.777	4.39
587.115	4.18
587.454	4.31
587.792	4.22
588.13	4.22
588.469	4.18
588.807	4.3
589.145	4.34
589.483	4.22
589.821	4.13
590.159	4.13
590.497	4.32
590.835	4.04
591.173	4.25
591.511	4.15
591.849	4.04
592.187	4.14
592.524	4.11
592.862	4.28
593.2	4.33
593.537	3.92
593.875	4.19
594.212	4.24
594.55	4.35
594.887	4.28
595.224	4.27
595.561	4.13
595.899	4.12
596.236	4.14
596.573	3.92
596.91	3.93
597.247	4.01
597.584	4.07
597.921	3.99
598.258	4.29
598.594	4.02
598.931	4.13
599.268	4.08
599.604	4.29
599.941	4.1
600.277	3.88
600.614	4.3
600.95	4.18
601.287	4.04
601.623	4.18
601.959	3.94
602.296	4.1
602.632	4.13
602.968	4.03
603.304	4.09
603.64	4.04
603.976	4.06
604.312	4.06
604.648	3.64
604.984	4.16
605.319	3.97
605.655	4.08
605.991	3.95
606.326	3.94
606.662	3.95
606.998	4.04
607.333	4.01
607.668	4.13
608.004	4.02
608.339	4.26
608.674	4.02
609.01	3.98
609.345	3.9
609.68	4.34
610.015	4.15
610.35	4.17
610.685	3.94
611.02	4.3
611.355	3.85
611.689	4.03
612.024	3.94
612.359	3.84
612.694	3.97
613.028	3.83
613.363	4.12
613.697	4.12
614.032	4.18
614.366	3.89
614.7	4
615.035	4.1
615.369	4.35
615.703	4.21
616.037	4.11
616.371	3.71
616.705	4.27
617.039	3.88
617.373	4.35
617.707	3.97
618.041	3.7
618.375	4.28
618.709	3.86
619.042	4.12
619.376	3.93
619.71	3.88
620.043	4.3
620.377	3.92
620.71	3.78
621.043	4.08
621.377	4.04
621.71	4.12
622.043	4.01
622.376	3.82
622.709	4.24
623.043	3.72
623.376	3.94
623.709	3.97
624.041	4.28
624.374	4
624.707	3.89
625.04	3.9
625.373	3.96
625.705	3.87
626.038	4.01
626.37	4.01
626.703	4.18
627.035	3.89
627.368	4.07
627.7	3.93
628.032	3.99
628.365	4.22
628.697	4.01
629.029	3.74
629.361	3.88
629.693	3.92
630.025	3.78
630.357	3.69
630.689	4.09
631.021	3.89
631.353	4.08
631.684	4.09
632.016	4
632.348	4.28
632.679	4.14
633.011	3.73
633.342	3.78
633.674	3.91
634.005	3.94
634.336	3.81
634.668	4.05
634.999	3.95
635.33	3.91
635.661	3.95
635.992	4.15
636.323	4
636.654	3.92
636.985	4.03
637.316	3.96
637.647	3.76
637.977	3.98
638.308	3.83
638.639	3.87
638.969	4.21
639.3	4.12
639.63	3.86
639.961	3.94
640.291	4.36
640.622	3.99
640.952	4.04
641.282	3.87
641.612	3.91
641.943	3.91
642.273	4.11
642.603	3.78
642.933	3.99
643.263	3.93
643.592	4.42
643.922	3.85
644.252	3.82
644.582	4.08
644.911	4.04
645.241	4.09
645.571	4.18
645.9	3.77
646.23	3.94
646.559	3.64
646.888	4.27
647.218	3.54
647.547	3.83
647.876	3.71
648.205	4.02
648.534	3.96
648.863	4.02
649.192	4.05
649.521	3.91
649.85	3.63
650.179	3.62
650.508	3.85
650.837	4.26
651.165	3.93
651.494	3.98
651.822	3.83
652.151	3.97
652.479	4.3
652.808	3.99
653.136	3.77
653.465	4.27
653.793	4.1
654.121	3.89
654.449	3.67
654.777	3.91
655.105	4.23
655.433	3.72
655.761	3.73
656.089	3.82
656.417	3.86
656.745	3.68
657.073	3.87
657.4	4.08
657.728	4.11
658.056	4.06
658.383	3.88
658.711	4.07
659.038	4
659.365	3.63
659.693	3.64
660.02	4.44
660.347	4.23
660.674	3.75
661.001	4.14
661.329	3.97
661.656	3.95
661.982	3.85
662.309	3.64
662.636	3.7
662.963	3.93
663.29	4.04
663.616	4.23
663.943	4.47
664.27	3.86
664.596	4.05
664.923	3.73
665.249	3.68
665.576	3.19
665.902	4.06
666.228	3.58
666.554	4.19
666.881	3.71
667.207	3.44
667.533	4.39
667.859	3.45
668.185	3.75
668.511	4.04
668.837	4
669.162	4.34
669.488	4.26
669.814	3.89
670.139	4.07
670.465	4.15
670.791	3.97
671.116	3.62
671.442	3.34
671.767	3.86
672.092	3.93
672.418	4.06
672.743	3.65
673.068	3.84
673.393	3.56
673.718	4.04
674.043	3.92
674.368	3.84
674.693	3.91
675.018	4.18
675.343	4.02
675.667	4.13
675.992	4.08
676.317	4.07
676.641	3.85
676.966	3.07
677.29	3.23
677.615	4.23
677.939	3.78
678.264	3.81
678.588	4.1
678.912	3.92
679.236	4.26
679.56	4.01
679.885	4.16
680.209	3.67
680.532	3.7
680.856	4.49
681.18	3.83
681.504	4.35
681.828	3.79
682.152	4.41
682.475	3.8
682.799	3.86
683.122	4.09
683.446	3.74
683.769	3.9
684.093	3.86
684.416	4.27
684.739	4.03
685.062	3.91
685.386	4.58
685.709	3.69
686.032	3.27
686.355	3.75
686.678	4.12
687.001	4.48
687.324	3.12
687.646	3.99
687.969	3.74
688.292	4.28
688.614	3.23
688.937	3.76
689.26	3.69
689.582	3.59
689.904	4.25
690.227	4.4
690.549	3.59
690.871	3.78
691.194	3.5
691.516	4.43
691.838	3.62
692.16	3.43
692.482	4.34
692.804	3.99
693.126	3.82
693.448	4.19
693.769	4.81
694.091	3.66
694.413	4.24
694.735	3.99
695.056	3.69
695.378	3.4
695.699	3.91
696.021	3.88
696.342	4.2
696.663	4.5
696.984	3.91
697.306	3.94
697.627	3.82
697.948	4.74
698.269	4.41
698.59	3.92
698.911	4.43
699.232	3.85
699.553	3.55
699.873	3.57
700.194	3.8
700.515	3.53
700.835	3.83
701.156	4.16
701.477	3.86
701.797	4.03
702.117	4.02
702.438	3.66
702.758	4.22
703.078	4.46
703.398	3.29
703.719	3.5
704.039	3.97
704.359	4.17
704.679	3.82
704.999	3.54
705.319	3.77
705.638	3.96
705.958	3.14
706.278	4.45
706.597	4.31
706.917	2.85
707.237	3.31
707.556	4.36
707.876	4.11
708.195	3.78
708.514	3.85
708.834	4.31
709.153	3.8
709.472	4
709.791	3.16
710.11	3.71
710.429	3.72
710.748	4.33
711.067	3.98
711.386	4.16
711.705	3.89
712.023	3.7
712.342	4.44
712.661	4.06
712.979	4.54
713.298	3.55
713.616	3.42
713.935	3.76
714.253	4.44
714.572	3.73
714.89	4.22
715.208	3.31
715.526	3.61
715.844	3.6
716.162	3.2
716.48	3.47
716.798	4.3
717.116	4.4
717.434	3.94
717.752	4.19
718.069	4.54
718.387	5.36
718.705	4.12
719.022	4.32
719.34	4.44
719.657	3.9
719.975	4.39
720.292	3.05
720.609	3.6
720.927	4.45
721.244	5.04
721.561	4.04
721.878	3.7
722.195	4.08
722.512	3.71
722.829	4.25
723.146	3.93
723.463	4.6
723.779	3.71
724.096	3.01
724.413	3.95
724.729	2.67
725.046	4.48
725.362	3.93
725.679	4.17
725.995	4.4
726.311	3.84
726.628	3.18
726.944	4.05
727.26	5.16
727.576	4.27
727.892	3.23
728.208	4.56
728.524	3.4
728.84	5.52
729.156	3.77
729.472	3.9
729.787	4.32
730.103	4.37
730.419	4.42
730.734	3.29
731.05	3.47
731.365	3.61
731.681	3.11
731.996	2.95
732.311	4.12
732.626	3.56
732.942	3.19
733.257	2.89
733.572	5.91
733.887	3.52
734.202	3.5
734.517	3.78
734.832	4.12
735.146	3.75
735.461	3.27
735.776	4.17
736.091	4.2
736.405	4.5
736.72	2.46
737.034	3.67
737.349	4.34
737.663	3.77
737.977	5.29
738.292	3.03
738.606	4.32
738.92	2.76
739.234	4.01
739.548	4.35
739.862	4.35
740.176	3.25
740.49	4.14
740.804	3.11
741.117	3.61
741.431	3.64
741.745	3.63
742.058	4.68
742.372	4.71
742.685	3
742.999	4.39
743.312	5.43
743.626	4.51
743.939	4.7
744.252	3.1
744.565	5.18
744.878	4.5
745.191	3.95
745.505	5.84
745.817	2.45
746.13	4.9
746.443	3.35
746.756	2.65
747.069	4.13
747.381	5.1
747.694	4.69
748.007	3.43
748.319	4.87
748.632	4.16
748.944	4.27
749.256	3.64
749.569	3.97
749.881	5.67
750.193	3.32
750.505	4.09
750.817	2.69
751.129	3.77
751.441	5.03
751.753	4.77
752.065	5.74
752.377	4.11
752.689	2.84
753	4.92
753.312	4.27
753.624	3.23
753.935	3.86
754.247	2.87
754.558	2.63
754.869	2.67
755.181	4.68
755.492	4.18
755.803	5.8
756.114	2.78
756.425	5.99
756.736	4.16
757.047	1.69
757.358	5.24
757.669	5.12
757.98	4.71
758.291	4.76
758.601	4.31
758.912	3.21
759.223	4.29
759.533	3.85
759.844	4.28
760.154	4.49
760.464	4.23
760.775	5.33
761.085	3.72
761.395	3.53
761.705	4.54
762.016	3.06
762.326	5.21
762.636	3.97
762.945	4.88
763.255	5.5
763.565	4.05
763.875	4.34
764.185	4.61
764.494	3.95
764.804	3.9
765.113	4.91
765.423	4.7
765.732	4.81
766.042	3.72
766.351	4.74
766.66	4.08
766.97	4.36
767.279	4.52
767.588	6.37
767.897	5.02
768.206	5.54
768.515	5.14
768.824	4.05
769.133	5.08
769.441	4.8
769.75	3.69
770.059	4.79
770.367	2.8
770.676	3.4
770.984	4.6
771.293	4.11
771.601	3.9
771.91	5.49
772.218	6.77
772.526	4.21
772.834	1.44
773.142	2.72
773.45	6.69
773.758	6.3
774.066	2.15
774.374	2
774.682	4.56
774.99	4.8
775.298	3.47
775.605	4.61
775.913	2.53
776.22	4.7
776.528	5.45
776.835	4.42
777.143	3.35
777.45	5.62
777.757	3.07
778.065	6.21
778.372	5.53
778.679	4.19
778.986	2.6
779.293	4.44
779.6	4.83
779.907	3.59
780.214	2.24
780.52	4.96
780.827	5.34
781.134	1.76
781.44	2.22
781.747	5.03
782.053	1.4
782.36	3.38
782.666	5.54
782.973	2.29
783.279	-2.83
783.585	3.04
783.891	5
784.197	0.67
784.503	4.06
784.809	5.01
785.115	4.15
785.421	4.51
785.727	2.59
786.033	2.15
786.339	2.28
786.644	4.48
786.95	3.87
787.255	5.17
787.561	6
787.866	4.81
788.172	3.81
788.477	-0.28
788.782	3.2
789.088	6.41
789.393	4.35
789.698	5.47
790.003	3.94
790.308	3.42
790.613	5.25
790.918	2.29
791.223	7.14
791.527	-0.02
791.832	2.58
792.137	4.07
792.441	5.6
792.746	1.64
793.05	5.17
793.355	6.92
793.659	6.82
793.963	3.67
794.268	2.57
794.572	4.01
794.876	2.13
795.18	2.84
795.484	6.2
795.788	6.22
796.092	7.56
796.396	3.68
796.7	4.03
797.004	4.45
797.307	5.94
797.611	5.08
797.915	4.82
798.218	9.43
798.522	4.13
798.825	0.3
799.128	6.44
799.432	5.96
799.735	7.04
800.038	3.88
800.341	3.73
800.644	1.07
800.947	4.6
801.25	6.18
801.553	2.75
801.856	4.43
802.159	5.79
802.462	4.25
802.764	10.28
803.067	4.87
803.37	2.02
803.672	6.34
803.975	6.02
804.277	0.51
804.579	3.09
804.882	6.27
805.184	3.2
805.486	3.16
805.788	4.36
806.09	4.19
806.392	2.75
806.694	1.17
806.996	1.98
807.298	6.53
807.6	5.23
807.902	2.22
808.203	2.62
808.505	0
808.807	3.85
809.108	5.08
809.409	11.72
809.711	3.81
810.012	3.87
810.313	6.82
810.615	-2.79
810.916	3.11
811.217	2.49
811.518	-1.78
811.819	4.44
812.12	5.93
812.421	7.11
812.722	-0.43
813.023	-0.39
813.323	2.58
813.624	2.37
813.925	5.64
814.225	8.93
814.526	5.02
814.826	11.67
815.126	2.19
815.427	8.12
815.727	6.64
816.027	5.4
816.327	7.12
816.627	-0.7
816.927	4.57
817.227	2.19
817.527	0.17
817.827	-1.96
818.127	8.24
818.427	1.91
818.727	2.64
819.026	-0.89
819.326	2.74
819.625	-1.94
819.925	8.84
820.224	11.46
820.524	4.26
820.823	5.05
821.122	3.36
821.421	4.31
821.72	3.06
822.019	-0.83
822.318	5.06
822.617	1.41
822.916	3.88
823.215	4.23
823.514	1.46
823.813	7.27
824.111	5.88
824.41	3.68
824.709	5.19
825.007	4.34
825.306	5.82
825.604	5.56
825.902	6.52
826.201	7.16
826.499	6.46
826.797	5.65
827.095	5.44
827.393	5.88
827.691	5.94
827.989	4.76
828.287	5.53
828.585	5.34
828.882	4.3
829.18	4.5
829.478	5.27
829.775	5.17
830.073	4.18
830.37	5.94
830.668	5.71
830.965	7.43
831.263	7.09
831.56	5.7
831.857	1.69
832.154	7.16
832.451	6.72
832.748	4.07
833.045	2.83
833.342	9.21
833.639	5.74
833.936	8.6
834.232	8.62
834.529	2.56
834.826	2.55
835.122	6.12
835.419	5
835.715	4.39
836.012	5.52
836.308	5.54
836.604	2.22
836.901	5.59
837.197	5.35
837.493	3.44
837.789	5.98
838.085	5.27
838.381	4.04
838.677	7.1
838.972	4.94
839.268	6.49
839.564	8.45
839.86	4.59
840.155	-0.12
840.451	9.57
840.746	1.21
841.042	12.47
841.337	-0.7
841.632	1.55
841.928	10.78
842.223	6.5
842.518	0.76
842.813	-7.14
843.108	12.17
843.403	7.35
843.698	1.59
843.993	1.22
844.287	12.69
844.582	19.35
844.877	17.16
845.171	15.42
845.466	4.81
845.761	-9.53
846.055	2.72
846.349	5.6
846.644	8.6
846.938	-12.59
847.232	2.05
847.526	-3.27
847.82	-11.13
848.114	8.05
848.408	19.09
848.702	-2.73
848.996	3.96
849.29	10.68
849.584	-1.88
849.877	11.47
850.171	-2.44
850.465	-3.76
850.758	-28.68
851.052	-7.19
851.345	4.39
851.638	20.59
851.932	15.96
852.225	17.73
852.518	15.26
852.811	-3.17
853.104	-3.75
853.397	4.62
853.69	-11.89
853.983	-23.51
854.276	7.12
854.569	-0.59
854.861	11.2
855.154	-3.43
855.447	11.84
855.739	16.33
856.032	18.76
856.324	-24.68
856.616	19.55
856.909	-10.06
857.201	11.2
857.493	2.96
857.785	-22.37
858.077	-8.7
858.369	-0.87
858.661	22.23
858.953	15.57
859.245	4.5
859.537	-24.68
859.829	8
860.12	3.16
860.412	-9.1
860.703	24.19
860.995	16.31
861.286	-16.63
861.578	4.68
861.869	-2.69
862.16	-16.88
862.452	8.42
862.743	-6.64
863.034	0.68
863.325	23.38
863.616	11.58
863.907	14.58
864.198	-10.91
864.488	-10.61
864.779	-14.77
865.07	-1.24
865.36	-24.19
865.651	0.15
865.941	20.79
866.232	-24.63
866.522	-9.42
866.813	20.95
867.103	8.3
867.393	-12.23
867.683	-8.25
867.973	-5.53
868.263	8.59
868.553	-10.26
868.843	-10.07
869.133	-28.26
869.423	20.33
869.713	-14.15
870.002	8.27
870.292	-7.01
870.582	6.22
870.871	3.31
871.161	18.59
871.45	-36.78
871.739	-0.93
872.029	-16.43
872.318	2.91
872.607	5.87
872.896	-12.52
873.185	-6.81
873.474	-6.17
873.763	4.45
874.052	15.34
874.341	4.84
874.63	1.03
874.918	4.14
875.207	11.43
875.496	21.53
875.784	-4.41
876.073	-21.45
876.361	10.79
876.649	-30.03
876.938	-27.03
877.226	18.67
877.514	-29.25
877.802	-11.66
878.09	7.39
878.378	10.02
878.666	-48.35
878.954	5.02
879.242	6.08
879.53	-3.07
879.817	-5.87
880.105	2.43
880.392	-20.85
880.68	-33.08
880.967	-32.48
881.255	1.74
881.542	27.58
881.83	-3.21
882.117	-11.87
882.404	2.22
882.691	-2.43
882.978	-9.23
883.265	-0.73
883.552	2.52
883.839	9.38
884.126	6.03
884.413	-4.47
884.699	1.48
884.986	3.85
885.273	0.64
885.559	0.64
885.846	0.64
