Data from 0177_forehead_Reflection__1__057.txt Node

Date: Mon Aug 28 19:06:02 CDT 2023
User: ToomeyLab
Spectrometer: FLMS14357
Trigger mode: 0
Integration Time (sec): 1.000000E-2
Scans to average: 100
Electric dark correction enabled: true
Nonlinearity correction enabled: false
Boxcar width: 0
XAxis mode: Wavelengths
Number of Pixels in Spectrum: 2048
>>>>>Begin Spectral Data<<<<<
189.047	-32.52
189.435	-32.52
189.823	-32.52
190.211	3825.58
190.599	43.97
190.987	346.05
191.375	25.61
191.763	42.03
192.151	56.84
192.538	1.46
192.926	124.03
193.314	569.98
193.702	188.85
194.089	156.92
194.477	-3140
194.864	-147.5
195.252	57.03
195.639	2805.98
196.027	97.44
196.414	265.05
196.801	111.48
197.189	-15.12
197.576	-417.33
197.963	-34.09
198.351	-9.23
198.738	106.45
199.125	5.05
199.512	55.09
199.899	-29.38
200.286	19.04
200.673	4.7
201.06	4.72
201.447	6.1
201.833	-17.4
202.22	27.26
202.607	14.96
202.994	26.93
203.38	41.76
203.767	12.39
204.154	46.57
204.54	-16.61
204.927	-42.2
205.313	25.86
205.699	-10.92
206.086	33.96
206.472	12.43
206.858	21.6
207.245	22.71
207.631	47.59
208.017	-5.55
208.403	27.92
208.789	12
209.175	16.59
209.561	0.19
209.947	11.59
210.333	-17.26
210.719	20.89
211.105	28.34
211.491	-20.27
211.876	25.68
212.262	107.36
212.648	20.12
213.034	1.56
213.419	13.24
213.805	-9.76
214.19	7.16
214.576	-2.57
214.961	5.33
215.346	13.46
215.732	38.27
216.117	3.4
216.502	16.17
216.888	-62.12
217.273	10.99
217.658	11.81
218.043	33.07
218.428	6.84
218.813	11.73
219.198	-8.36
219.583	13.62
219.968	19.49
220.353	10.53
220.738	12.88
221.122	21.97
221.507	22.16
221.892	-16.87
222.276	-11.5
222.661	7.76
223.046	12.36
223.43	-2.42
223.815	15.78
224.199	16.03
224.583	6.03
224.968	9.62
225.352	11.02
225.736	4.27
226.121	-4.98
226.505	-2.07
226.889	10.35
227.273	13.57
227.657	3.41
228.041	-3.32
228.425	2.08
228.809	0.75
229.193	7.43
229.577	4.92
229.961	0.53
230.344	1.85
230.728	1.61
231.112	1.08
231.495	1.92
231.879	1.38
232.263	1.87
232.646	1.62
233.03	3.16
233.413	4.23
233.797	1.54
234.18	3.64
234.563	1.6
234.946	4.96
235.33	2.58
235.713	-0.22
236.096	3.54
236.479	2.22
236.862	2.95
237.245	1.28
237.628	-0.07
238.011	3.27
238.394	2.67
238.777	3.66
239.16	0.93
239.543	0.7
239.925	4.34
240.308	0.21
240.691	0.89
241.073	-0.51
241.456	1.52
241.838	0.93
242.221	2.95
242.603	3.13
242.986	2.31
243.368	2.29
243.75	2.15
244.133	1.72
244.515	1.32
244.897	1.63
245.279	2.29
245.661	2.13
246.043	2.45
246.425	2.2
246.807	3.39
247.189	1.34
247.571	2.41
247.953	2.32
248.335	1.91
248.717	1.78
249.098	1.77
249.48	2.14
249.862	1.9
250.243	1.86
250.625	2.47
251.006	2.25
251.388	2.53
251.769	3.52
252.151	1.88
252.532	2.31
252.913	1.98
253.295	0.68
253.676	2.78
254.057	1.75
254.438	1.96
254.819	2.21
255.2	2.35
255.581	1.81
255.962	2.62
256.343	3.71
256.724	0.61
257.105	1.58
257.486	3.07
257.867	2.17
258.247	2.23
258.628	3.54
259.009	1.28
259.389	1.49
259.77	1.83
260.15	1.68
260.531	1.48
260.911	2.36
261.292	2.11
261.672	1.81
262.052	1.8
262.432	1.77
262.813	2.15
263.193	1.69
263.573	1.41
263.953	2.29
264.333	1.93
264.713	1.72
265.093	2.46
265.473	1.87
265.853	1.36
266.233	1.95
266.612	3.64
266.992	2.42
267.372	2.37
267.752	2.62
268.131	2.15
268.511	1.81
268.89	2.3
269.27	1.6
269.649	1.24
270.029	2.46
270.408	2.45
270.787	2.41
271.167	2.16
271.546	1.6
271.925	2.78
272.304	2.15
272.683	1.81
273.062	1.81
273.441	1.99
273.82	1.85
274.199	1.85
274.578	1.92
274.957	2.08
275.336	2.7
275.715	2.15
276.093	1.45
276.472	2.03
276.851	1.7
277.229	2.24
277.608	2.31
277.986	1.53
278.365	2.3
278.743	1.84
279.122	1.82
279.5	1.34
279.878	1.7
280.257	2.07
280.635	2.04
281.013	1.82
281.391	2.03
281.769	2.23
282.147	2.44
282.525	2.16
282.903	2.57
283.281	2.33
283.659	2.51
284.037	2.27
284.415	1.85
284.792	1.81
285.17	1.48
285.548	1.71
285.925	2.25
286.303	1.86
286.68	2.46
287.058	1.88
287.435	1.44
287.813	1.73
288.19	2.23
288.567	1.81
288.945	2.15
289.322	2.23
289.699	2.21
290.076	2.46
290.453	2.49
290.83	1.97
291.207	2.02
291.584	2.37
291.961	2.72
292.338	2.09
292.715	2.05
293.092	2.55
293.469	2.13
293.845	2.03
294.222	2.39
294.599	2.03
294.975	2.43
295.352	1.89
295.728	2.52
296.105	2.83
296.481	2.44
296.858	2.73
297.234	2.56
297.61	2.57
297.986	2.45
298.363	2.8
298.739	2.61
299.115	2.32
299.491	2.82
299.867	2.28
300.243	2.91
300.619	2.77
300.995	2.97
301.371	2.62
301.746	3.21
302.122	2.52
302.498	2.98
302.874	3.22
303.249	2.88
303.625	2.99
304	2.9
304.376	3.32
304.751	2.72
305.127	2.55
305.502	3.13
305.878	2.87
306.253	2.55
306.628	2.77
307.003	2.74
307.378	2.99
307.754	3.32
308.129	2.96
308.504	3.85
308.879	3.32
309.254	3.21
309.629	3.45
310.003	3.55
310.378	3.01
310.753	3.34
311.128	3.53
311.502	3.42
311.877	3.33
312.252	3.64
312.626	3.49
313.001	3.62
313.375	3.7
313.75	3.49
314.124	3.19
314.498	3.94
314.873	3.84
315.247	3.93
315.621	3.22
315.995	4.28
316.369	3.62
316.743	3.45
317.117	3.96
317.491	3.53
317.865	3.42
318.239	3.55
318.613	3.65
318.987	3.39
319.361	3.88
319.734	4.1
320.108	4.24
320.482	4.34
320.855	3.96
321.229	4.09
321.602	3.95
321.976	3.37
322.349	4.15
322.723	3.93
323.096	4.42
323.469	4.13
323.843	4.24
324.216	4.28
324.589	4.35
324.962	4.53
325.335	4.57
325.708	4.39
326.081	4.21
326.454	4.67
326.827	4.63
327.2	4.5
327.573	4.8
327.945	4.99
328.318	4.52
328.691	3.97
329.063	4.18
329.436	3.88
329.809	4.6
330.181	4.54
330.553	4.37
330.926	4.89
331.298	4.78
331.671	4.52
332.043	4.73
332.415	5.23
332.787	4.33
333.159	4.92
333.532	5.16
333.904	4.97
334.276	3.95
334.648	5.3
335.02	4.55
335.391	5.35
335.763	4.69
336.135	5.06
336.507	4.95
336.879	4.62
337.25	5.67
337.622	4.74
337.993	5.32
338.365	4.55
338.736	5.24
339.108	4.61
339.479	4.49
339.851	5.65
340.222	5.31
340.593	4.78
340.964	5.33
341.336	5.08
341.707	4.48
342.078	4.77
342.449	5.06
342.82	5.39
343.191	4.74
343.562	4.68
343.933	5.23
344.303	5.42
344.674	5.19
345.045	5.25
345.416	5.07
345.786	5.81
346.157	5.37
346.527	4.99
346.898	5.42
347.268	5.02
347.639	4.91
348.009	5.36
348.38	5.55
348.75	5.24
349.12	5.74
349.49	5.54
349.861	4.88
350.231	5.39
350.601	5.71
350.971	5.65
351.341	5.68
351.711	5.82
352.081	5.47
352.45	5.57
352.82	5.69
353.19	6.02
353.56	5.72
353.929	6.08
354.299	5.51
354.669	5.95
355.038	5.76
355.408	6.01
355.777	5.53
356.147	5.86
356.516	5.9
356.885	6
357.254	5.53
357.624	5.83
357.993	5.88
358.362	6.01
358.731	6.13
359.1	6.04
359.469	6.07
359.838	5.84
360.207	5.89
360.576	6.26
360.945	6.13
361.314	5.84
361.682	5.92
362.051	6.36
362.42	6.17
362.788	6.38
363.157	6.07
363.525	5.98
363.894	6.12
364.262	6.14
364.631	5.96
364.999	6.17
365.367	6.24
365.735	6.2
366.104	6.14
366.472	6.2
366.84	6.26
367.208	6.34
367.576	6.21
367.944	6.53
368.312	6.64
368.68	6.37
369.048	6.41
369.416	6.35
369.783	6.25
370.151	6.48
370.519	6.77
370.886	6.49
371.254	6.47
371.621	6.57
371.989	6.76
372.356	6.69
372.724	7.06
373.091	6.84
373.458	6.69
373.826	6.9
374.193	6.69
374.56	6.82
374.927	6.49
375.294	6.91
375.661	7.1
376.028	6.98
376.395	6.7
376.762	7.26
377.129	6.82
377.496	6.93
377.863	7.24
378.229	7.27
378.596	7.66
378.963	7.26
379.329	7.17
379.696	7.33
380.062	6.95
380.429	6.92
380.795	7.09
381.161	7.39
381.528	7.54
381.894	7.45
382.26	7.32
382.626	7.6
382.993	7.38
383.359	7.43
383.725	7.58
384.091	7.23
384.457	7.57
384.823	7.44
385.188	7.36
385.554	7.17
385.92	7.21
386.286	7.67
386.651	7.29
387.017	7.55
387.383	7.57
387.748	7.5
388.114	7.48
388.479	7.18
388.845	7.82
389.21	7.54
389.575	7.9
389.94	7.71
390.306	7.79
390.671	7.64
391.036	7.66
391.401	8
391.766	7.85
392.131	7.89
392.496	7.48
392.861	7.98
393.226	7.95
393.591	7.64
393.956	7.8
394.32	7.84
394.685	8.18
395.05	8.02
395.414	8.14
395.779	7.93
396.143	8.14
396.508	8.04
396.872	8.32
397.236	8
397.601	7.96
397.965	8.25
398.329	8.27
398.694	8.44
399.058	8.11
399.422	8.31
399.786	8.31
400.15	8.54
400.514	8.37
400.878	8.33
401.242	8.44
401.605	8.39
401.969	8.27
402.333	8.58
402.697	8.46
403.06	8.67
403.424	8.69
403.787	8.3
404.151	8.43
404.514	8.51
404.878	8.66
405.241	8.59
405.604	8.75
405.968	8.37
406.331	8.92
406.694	8.71
407.057	8.74
407.42	8.47
407.783	8.71
408.146	8.72
408.509	8.72
408.872	8.88
409.235	8.69
409.598	8.81
409.961	8.77
410.323	8.92
410.686	9.11
411.049	9.31
411.411	8.88
411.774	9.05
412.136	8.78
412.499	9.1
412.861	9.06
413.223	8.87
413.586	9.06
413.948	9.11
414.31	9.38
414.672	9.19
415.035	9.35
415.397	9.08
415.759	9.2
416.121	9.42
416.483	9.34
416.845	9.33
417.206	9.58
417.568	9.38
417.93	9.29
418.292	9.24
418.653	9.08
419.015	9.02
419.377	9.12
419.738	9.5
420.1	9.29
420.461	9.29
420.822	9.29
421.184	9.4
421.545	9.31
421.906	9.37
422.267	9.39
422.629	9.3
422.99	9.25
423.351	9.26
423.712	9.31
424.073	9.26
424.434	9.5
424.795	9.41
425.155	9.38
425.516	9.41
425.877	9.4
426.238	9.38
426.598	9.38
426.959	9.51
427.32	9.49
427.68	9.74
428.041	9.58
428.401	9.73
428.761	9.81
429.122	9.77
429.482	9.79
429.842	10.03
430.202	9.92
430.563	9.99
430.923	10.22
431.283	10.07
431.643	9.99
432.003	10.04
432.363	10.22
432.722	10.12
433.082	10.1
433.442	10.29
433.802	10.14
434.161	10.23
434.521	10.25
434.881	10.21
435.24	10.16
435.6	10.29
435.959	10.18
436.319	10.45
436.678	10.36
437.037	10.34
437.396	10.5
437.756	10.45
438.115	10.51
438.474	10.64
438.833	10.4
439.192	10.76
439.551	10.43
439.91	10.65
440.269	10.52
440.628	10.59
440.987	10.54
441.345	10.42
441.704	10.58
442.063	10.53
442.421	10.58
442.78	10.61
443.138	10.67
443.497	10.68
443.855	10.71
444.214	10.72
444.572	10.67
444.93	10.89
445.288	10.87
445.647	10.95
446.005	11.07
446.363	10.97
446.721	11.01
447.079	10.92
447.437	10.86
447.795	10.81
448.153	10.82
448.51	10.77
448.868	10.89
449.226	10.83
449.584	10.86
449.941	10.97
450.299	11.09
450.656	10.94
451.014	11.07
451.371	11.06
451.729	11.06
452.086	11.32
452.443	11.34
452.801	11.4
453.158	11.39
453.515	11.35
453.872	11.31
454.229	11.56
454.586	11.51
454.943	11.31
455.3	11.4
455.657	11.49
456.014	11.57
456.371	11.59
456.727	11.45
457.084	11.52
457.441	11.77
457.797	11.58
458.154	11.78
458.51	11.89
458.867	11.74
459.223	11.73
459.58	11.74
459.936	11.84
460.292	11.92
460.648	11.68
461.005	11.79
461.361	11.64
461.717	11.62
462.073	11.62
462.429	11.46
462.785	11.69
463.141	11.68
463.496	11.9
463.852	11.97
464.208	12.07
464.564	12.01
464.919	11.99
465.275	12.13
465.631	12.15
465.986	12.41
466.342	12.23
466.697	12.03
467.052	12.23
467.408	12.29
467.763	12.3
468.118	12.1
468.473	12.37
468.829	12.29
469.184	12.04
469.539	12.25
469.894	12.33
470.249	12.16
470.603	12.36
470.958	12.32
471.313	12.57
471.668	12.34
472.023	12.56
472.377	12.57
472.732	12.58
473.086	12.51
473.441	12.55
473.795	12.66
474.15	12.73
474.504	12.8
474.859	12.59
475.213	12.6
475.567	12.65
475.921	12.84
476.275	12.7
476.63	12.93
476.984	12.85
477.338	12.99
477.692	12.94
478.045	13.02
478.399	12.97
478.753	12.79
479.107	12.86
479.461	12.78
479.814	13.05
480.168	13.05
480.521	12.98
480.875	13.01
481.228	12.92
481.582	13.08
481.935	13.04
482.289	13.16
482.642	13.12
482.995	13.19
483.348	13.05
483.701	13.09
484.055	13
484.408	13.04
484.761	13.08
485.114	13
485.466	12.71
485.819	12.58
486.172	12.43
486.525	12.44
486.878	12.43
487.23	12.51
487.583	12.76
487.936	12.85
488.288	13.04
488.641	13.02
488.993	13.09
489.345	12.88
489.698	12.87
490.05	12.86
490.402	12.82
490.754	12.89
491.107	12.92
491.459	13.09
491.811	13.22
492.163	13.48
492.515	13.5
492.866	13.4
493.218	13.4
493.57	13.22
493.922	13.07
494.274	13.1
494.625	13.1
494.977	13.34
495.328	13.47
495.68	13.64
496.031	13.72
496.383	13.79
496.734	13.89
497.086	14.04
497.437	14.04
497.788	14.04
498.139	14.08
498.49	14.08
498.842	14
499.193	13.81
499.544	13.93
499.894	13.92
500.245	14
500.596	14.15
500.947	14.15
501.298	14.17
501.648	14.23
501.999	14.23
502.35	14.24
502.7	14.38
503.051	14.52
503.401	14.39
503.752	14.45
504.102	14.61
504.452	14.47
504.803	14.57
505.153	14.47
505.503	14.55
505.853	14.49
506.203	14.68
506.553	14.5
506.903	14.64
507.253	14.7
507.603	14.57
507.953	14.68
508.303	14.7
508.652	14.78
509.002	14.82
509.352	14.69
509.701	14.65
510.051	14.73
510.4	14.75
510.75	14.71
511.099	14.81
511.449	14.71
511.798	14.78
512.147	14.85
512.496	14.79
512.846	14.81
513.195	14.93
513.544	15.2
513.893	15.05
514.242	15.11
514.591	15.04
514.939	14.97
515.288	15.1
515.637	15.16
515.986	15.1
516.334	15.27
516.683	15.25
517.032	15.34
517.38	15.3
517.729	15.45
518.077	15.22
518.426	15.22
518.774	15.49
519.122	15.51
519.47	15.41
519.819	15.37
520.167	15.28
520.515	15.22
520.863	15.14
521.211	15.14
521.559	15.11
521.907	15.2
522.255	15.23
522.602	15.36
522.95	15.59
523.298	15.63
523.645	15.69
523.993	15.69
524.341	15.69
524.688	15.68
525.036	15.89
525.383	15.97
525.73	15.78
526.078	15.96
526.425	15.89
526.772	15.93
527.119	15.8
527.466	15.79
527.814	15.69
528.161	15.5
528.508	15.58
528.854	15.65
529.201	15.77
529.548	15.74
529.895	15.83
530.242	15.64
530.588	15.44
530.935	15.28
531.282	15.27
531.628	15.26
531.975	15.34
532.321	15.44
532.667	15.52
533.014	15.78
533.36	15.89
533.706	15.99
534.052	15.99
534.399	16.08
534.745	16.28
535.091	16.07
535.437	15.93
535.783	15.8
536.129	15.84
536.474	15.79
536.82	16.01
537.166	16.05
537.512	16.24
537.857	16.48
538.203	16.37
538.549	16.29
538.894	16.25
539.239	16.25
539.585	16.31
539.93	16.32
540.276	16.39
540.621	16.68
540.966	16.72
541.311	16.92
541.656	16.8
542.001	16.78
542.346	16.94
542.691	16.83
543.036	16.72
543.381	16.49
543.726	16.31
544.071	16.29
544.415	16.25
544.76	16.37
545.105	16.44
545.449	16.64
545.794	16.66
546.138	16.72
546.483	16.91
546.827	16.9
547.171	16.92
547.516	17.04
547.86	17.09
548.204	17.27
548.548	17.1
548.892	16.99
549.236	17.05
549.58	16.95
549.924	17.17
550.268	17.19
550.612	17.4
550.956	17.55
551.3	17.5
551.643	17.64
551.987	17.58
552.33	17.8
552.674	17.58
553.017	17.59
553.361	17.71
553.704	17.83
554.048	17.8
554.391	17.81
554.734	17.82
555.077	17.69
555.42	17.72
555.764	17.84
556.107	17.8
556.45	17.8
556.793	18.03
557.135	17.98
557.478	17.89
557.821	18.08
558.164	18.19
558.507	18.04
558.849	18.45
559.192	18.16
559.534	18.08
559.877	18.23
560.219	18.42
560.562	18.3
560.904	18.31
561.246	18.49
561.589	18.39
561.931	18.31
562.273	18.07
562.615	18.44
562.957	18.42
563.299	18.5
563.641	18.26
563.983	18.4
564.325	18.44
564.667	18.37
565.008	18.44
565.35	18.59
565.692	18.69
566.033	18.48
566.375	18.44
566.716	18.46
567.058	18.76
567.399	18.42
567.741	18.72
568.082	18.59
568.423	18.62
568.764	18.44
569.105	18.71
569.447	18.73
569.788	18.76
570.129	18.69
570.47	18.8
570.811	18.84
571.151	18.88
571.492	18.74
571.833	18.93
572.174	18.88
572.514	19
572.855	18.97
573.195	18.97
573.536	19.09
573.876	18.93
574.217	19.19
574.557	18.93
574.898	19.2
575.238	19.09
575.578	18.97
575.918	19.15
576.258	19.21
576.598	19.23
576.938	19.34
577.278	19.15
577.618	19.36
577.958	19.17
578.298	19.41
578.638	19.42
578.977	19.28
579.317	19.36
579.657	19.25
579.996	19.39
580.336	19.22
580.675	19.75
581.014	19.78
581.354	19.79
581.693	19.68
582.032	19.74
582.372	19.75
582.711	19.85
583.05	19.66
583.389	19.81
583.728	19.91
584.067	19.86
584.406	19.64
584.745	19.97
585.083	19.85
585.422	19.75
585.761	20.12
586.1	19.84
586.438	19.99
586.777	19.8
587.115	19.88
587.454	20.42
587.792	20.35
588.13	20.12
588.469	20.23
588.807	20.09
589.145	20.15
589.483	20.12
589.821	20.07
590.159	20.4
590.497	20.33
590.835	20.32
591.173	20.28
591.511	20.26
591.849	20.04
592.187	20.46
592.524	20.24
592.862	20.43
593.2	20.14
593.537	20.28
593.875	20.48
594.212	20.68
594.55	20.58
594.887	20.58
595.224	20.72
595.561	20.43
595.899	20.47
596.236	20.5
596.573	20.83
596.91	20.57
597.247	20.65
597.584	20.68
597.921	20.6
598.258	20.74
598.594	20.52
598.931	20.69
599.268	20.56
599.604	20.52
599.941	20.69
600.277	20.44
600.614	20.73
600.95	20.67
601.287	20.77
601.623	21.11
601.959	21.01
602.296	21.1
602.632	20.92
602.968	21.28
603.304	21.19
603.64	20.93
603.976	21.25
604.312	21.22
604.648	21.29
604.984	21.05
605.319	21.31
605.655	21.1
605.991	21.41
606.326	21.14
606.662	20.96
606.998	20.98
607.333	20.9
607.668	21.06
608.004	21.01
608.339	21.15
608.674	21.02
609.01	21.29
609.345	21.41
609.68	21.31
610.015	21.47
610.35	21.79
610.685	21.56
611.02	21.66
611.355	21.65
611.689	21.33
612.024	21.46
612.359	21.43
612.694	21.37
613.028	21.23
613.363	21.35
613.697	21.45
614.032	21.83
614.366	21.34
614.7	21.54
615.035	21.68
615.369	21.99
615.703	21.69
616.037	21.63
616.371	21.56
616.705	21.86
617.039	21.92
617.373	22.02
617.707	22.17
618.041	21.91
618.375	21.91
618.709	22
619.042	21.77
619.376	21.98
619.71	22.02
620.043	22.18
620.377	22.32
620.71	21.9
621.043	22.27
621.377	21.95
621.71	22.14
622.043	21.9
622.376	22.45
622.709	22.1
623.043	22.3
623.376	22.28
623.709	22.15
624.041	22.49
624.374	22.09
624.707	22.05
625.04	22.35
625.373	22.39
625.705	22.23
626.038	22.63
626.37	22.8
626.703	22.47
627.035	22.61
627.368	22.95
627.7	23.01
628.032	22.67
628.365	22.53
628.697	22.57
629.029	22.65
629.361	22.53
629.693	22.53
630.025	22.46
630.357	22.65
630.689	22.48
631.021	22.91
631.353	22.45
631.684	22.58
632.016	22.9
632.348	22.95
632.679	22.63
633.011	22.66
633.342	22.64
633.674	22.77
634.005	22.86
634.336	22.88
634.668	22.97
634.999	23.04
635.33	23.08
635.661	23.01
635.992	22.87
636.323	23.28
636.654	22.82
636.985	23.01
637.316	23.21
637.647	23.03
637.977	22.94
638.308	23.19
638.639	22.87
638.969	23.49
639.3	23.17
639.63	23.23
639.961	23.09
640.291	23.33
640.622	23.38
640.952	23.46
641.282	23.38
641.612	23.22
641.943	23.5
642.273	23.95
642.603	23.29
642.933	22.9
643.263	24.01
643.592	23.26
643.922	23.51
644.252	23.2
644.582	23.67
644.911	23.62
645.241	23.72
645.571	23.9
645.9	23.44
646.23	23.73
646.559	23.51
646.888	23.83
647.218	23.7
647.547	23.51
647.876	23.68
648.205	23.73
648.534	24.5
648.863	23.79
649.192	23.76
649.521	24.16
649.85	24.47
650.179	24.02
650.508	24.25
650.837	23.61
651.165	23.61
651.494	23.76
651.822	23.8
652.151	24.29
652.479	24.34
652.808	24.15
653.136	23.83
653.465	24.37
653.793	24.49
654.121	24.62
654.449	24.22
654.777	23.73
655.105	23.89
655.433	24.22
655.761	23.29
656.089	24.19
656.417	23.96
656.745	24.38
657.073	24.08
657.4	24.43
657.728	24.36
658.056	24.62
658.383	24.07
658.711	24.39
659.038	24.29
659.365	24.61
659.693	24.67
660.02	24.3
660.347	24.96
660.674	24.85
661.001	24.55
661.329	24.58
661.656	24.39
661.982	24.33
662.309	24.45
662.636	24.61
662.963	24.76
663.29	24.54
663.616	24.42
663.943	24.63
664.27	24.8
664.596	25.22
664.923	24.81
665.249	25.06
665.576	24.64
665.902	24.1
666.228	24.43
666.554	24.94
666.881	24.92
667.207	24.4
667.533	25.54
667.859	24.53
668.185	24.77
668.511	25.65
668.837	24.21
669.162	25.1
669.488	24.14
669.814	25.38
670.139	24.74
670.465	26.24
670.791	25.2
671.116	25.38
671.442	25.31
671.767	24.58
672.092	24.9
672.418	24.65
672.743	25.32
673.068	25.35
673.393	25.65
673.718	24.84
674.043	25.02
674.368	25.2
674.693	25.25
675.018	25.22
675.343	24.9
675.667	25.68
675.992	25.7
676.317	25.7
676.641	25.41
676.966	25.3
677.29	24.98
677.615	26.07
677.939	25.18
678.264	24.89
678.588	25.41
678.912	25
679.236	24.96
679.56	24.78
679.885	25.95
680.209	25.16
680.532	25.68
680.856	25.7
681.18	25.78
681.504	24.69
681.828	25.76
682.152	25.65
682.475	25.44
682.799	25.97
683.122	25.61
683.446	25.63
683.769	25.91
684.093	25.8
684.416	26.18
684.739	25.56
685.062	26.25
685.386	25.23
685.709	25.75
686.032	25.25
686.355	25.88
686.678	25.87
687.001	25.63
687.324	25.79
687.646	25.9
687.969	25.39
688.292	25.78
688.614	25.61
688.937	25.42
689.26	25.94
689.582	25.7
689.904	25.61
690.227	26.27
690.549	26.38
690.871	25.94
691.194	25.37
691.516	26
691.838	26.41
692.16	26.31
692.482	26.27
692.804	26.16
693.126	25.87
693.448	26.23
693.769	26.49
694.091	25.77
694.413	25.5
694.735	26.81
695.056	26.15
695.378	27.01
695.699	27.24
696.021	25.76
696.342	26.25
696.663	26.83
696.984	26.08
697.306	26.16
697.627	26.1
697.948	26.24
698.269	26.16
698.59	25.97
698.911	25.88
699.232	26.9
699.553	27.03
699.873	26.08
700.194	26.3
700.515	26.78
700.835	26.86
701.156	26.67
701.477	26.52
701.797	26.65
702.117	25.91
702.438	26.89
702.758	26.34
703.078	27.24
703.398	26.39
703.719	27.94
704.039	27.25
704.359	27.1
704.679	26.21
704.999	27.12
705.319	26.51
705.638	26.9
705.958	26.69
706.278	26.97
706.597	26.02
706.917	27.45
707.237	26.38
707.556	26.37
707.876	27.22
708.195	27.35
708.514	27.42
708.834	26.74
709.153	26.87
709.472	27.46
709.791	26.41
710.11	26.96
710.429	26.56
710.748	28.44
711.067	27.07
711.386	27.68
711.705	27.65
712.023	27.42
712.342	27.34
712.661	26.69
712.979	26.53
713.298	26.76
713.616	26.47
713.935	26.97
714.253	26.75
714.572	26.66
714.89	27.12
715.208	27.3
715.526	27.22
715.844	27.82
716.162	26.71
716.48	27.27
716.798	27.65
717.116	27.57
717.434	27.4
717.752	26.9
718.069	27.06
718.387	27.15
718.705	27.79
719.022	27.11
719.34	27.54
719.657	26.68
719.975	27.57
720.292	27.91
720.609	27.54
720.927	28.06
721.244	27.62
721.561	26.96
721.878	28.61
722.195	27.34
722.512	26.88
722.829	28
723.146	27.4
723.463	27.29
723.779	28.49
724.096	28.4
724.413	28.59
724.729	29.44
725.046	26.62
725.362	28.22
725.679	28.55
725.995	28.32
726.311	28.47
726.628	29.16
726.944	27.76
727.26	26.54
727.576	26.71
727.892	27.14
728.208	29.09
728.524	27.13
728.84	29.25
729.156	26.59
729.472	28.3
729.787	27.64
730.103	27.43
730.419	27.83
730.734	28.06
731.05	26.83
731.365	28.18
731.681	27.71
731.996	28.68
732.311	27.81
732.626	26.77
732.942	27.5
733.257	28.42
733.572	27.23
733.887	28.08
734.202	27.85
734.517	27.92
734.832	28.18
735.146	30.11
735.461	27.38
735.776	27.62
736.091	27.34
736.405	28.23
736.72	28.98
737.034	27.84
737.349	29.16
737.663	28.6
737.977	28.49
738.292	28.24
738.606	29.39
738.92	26.92
739.234	28.24
739.548	28.3
739.862	28.26
740.176	27.82
740.49	29
740.804	28.02
741.117	28.98
741.431	28.72
741.745	28.54
742.058	28.27
742.372	27.82
742.685	29.83
742.999	28.66
743.312	27.95
743.626	28.66
743.939	30.55
744.252	28.17
744.565	27.94
744.878	28.66
745.191	27.52
745.505	28.57
745.817	29.94
746.13	27.83
746.443	29.79
746.756	29.44
747.069	28.17
747.381	30.19
747.694	28.25
748.007	29.09
748.319	27.67
748.632	28.64
748.944	26.9
749.256	29.87
749.569	28.84
749.881	29.18
750.193	29.56
750.505	29.68
750.817	30.66
751.129	27.19
751.441	29.54
751.753	30.23
752.065	28.14
752.377	27.55
752.689	28.98
753	29.38
753.312	29.34
753.624	29.48
753.935	29.1
754.247	30.63
754.558	27.74
754.869	30.99
755.181	30.81
755.492	30.01
755.803	30.34
756.114	30.13
756.425	28.69
756.736	29.4
757.047	28.42
757.358	28.55
757.669	31.49
757.98	29.9
758.291	28.74
758.601	29.97
758.912	29.39
759.223	28.92
759.533	29.63
759.844	28.93
760.154	29.11
760.464	31.13
760.775	30.32
761.085	29.4
761.395	29.43
761.705	28.88
762.016	30.2
762.326	30.96
762.636	28.09
762.945	29.1
763.255	29.17
763.565	29.63
763.875	31.88
764.185	28.16
764.494	28.73
764.804	27.61
765.113	29.08
765.423	29.76
765.732	30.76
766.042	29.65
766.351	29.22
766.66	29.72
766.97	28.96
767.279	29.56
767.588	29.68
767.897	29.96
768.206	29.85
768.515	27.93
768.824	29.76
769.133	29.64
769.441	29.48
769.75	29.7
770.059	31.44
770.367	30.98
770.676	28.14
770.984	29.99
771.293	29.68
771.601	29.74
771.91	30.9
772.218	31.89
772.526	31.46
772.834	31.04
773.142	31.52
773.45	29.38
773.758	29.43
774.066	28.52
774.374	29.89
774.682	30.28
774.99	28.92
775.298	27.56
775.605	29.21
775.913	29.39
776.22	30.22
776.528	32.67
776.835	28.68
777.143	30.72
777.45	32.76
777.757	28.28
778.065	32.03
778.372	29.59
778.679	30.45
778.986	28.87
779.293	31.11
779.6	31.13
779.907	30.72
780.214	29.63
780.52	31.6
780.827	30.13
781.134	32.59
781.44	31.3
781.747	31.98
782.053	33.95
782.36	29.58
782.666	28.29
782.973	29.59
783.279	26.92
783.585	28.75
783.891	29.74
784.197	28.2
784.503	30.01
784.809	28.71
785.115	28.47
785.421	30.38
785.727	33.72
786.033	32.77
786.339	30.35
786.644	30.74
786.95	30.84
787.255	30.73
787.561	31.42
787.866	30.94
788.172	31.26
788.477	30.52
788.782	35.14
789.088	28.08
789.393	32.8
789.698	31.03
790.003	33.3
790.308	33.21
790.613	32.81
790.918	28.09
791.223	31.81
791.527	30.58
791.832	27.59
792.137	30.46
792.441	31.91
792.746	32.55
793.05	26.47
793.355	32.83
793.659	27.46
793.963	29.5
794.268	31.48
794.572	28.91
794.876	27.12
795.18	30.61
795.484	31.29
795.788	27.61
796.092	27.67
796.396	29.62
796.7	32.09
797.004	32.09
797.307	33.66
797.611	31.98
797.915	31.92
798.218	28.74
798.522	32.97
798.825	33.36
799.128	31.03
799.432	31.29
799.735	35.61
800.038	33.72
800.341	29.85
800.644	30.38
800.947	27.97
801.25	33.11
801.553	33.72
801.856	32.15
802.159	30.73
802.462	31.93
802.764	28.78
803.067	32.9
803.37	27.85
803.672	29.48
803.975	28.82
804.277	30.85
804.579	34.16
804.882	33.45
805.184	28.57
805.486	31.28
805.788	33.81
806.09	33.57
806.392	34.36
806.694	30.13
806.996	32.81
807.298	36.22
807.6	33.18
807.902	32.79
808.203	28.41
808.505	32.89
808.807	27.07
809.108	29.84
809.409	31.42
809.711	29.43
810.012	32.91
810.313	30.98
810.615	31.19
810.916	29.5
811.217	31.86
811.518	29.54
811.819	30.55
812.12	33.86
812.421	29.89
812.722	34.86
813.023	35.66
813.323	25.48
813.624	34.45
813.925	29.52
814.225	31.67
814.526	33.11
814.826	35.02
815.126	39.85
815.427	33.68
815.727	32.64
816.027	33.25
816.327	32.18
816.627	34.57
816.927	30.87
817.227	32.89
817.527	28.98
817.827	32.35
818.127	29.15
818.427	28.44
818.727	31.54
819.026	35.51
819.326	26.8
819.625	32.25
819.925	33.54
820.224	35.02
820.524	31.32
820.823	30.65
821.122	32.84
821.421	28.78
821.72	31.78
822.019	30.71
822.318	30.93
822.617	32.71
822.916	32.29
823.215	31.61
823.514	27.93
823.813	32.51
824.111	35.59
824.41	30.85
824.709	32.34
825.007	30.52
825.306	31.69
825.604	32.9
825.902	33.3
826.201	32.55
826.499	32.17
826.797	31.2
827.095	31.11
827.393	32.27
827.691	30.43
827.989	32.74
828.287	32.67
828.585	31.34
828.882	31.82
829.18	31.36
829.478	32.72
829.775	33.88
830.073	31.55
830.37	33.47
830.668	32.35
830.965	32.5
831.263	29.99
831.56	32.28
831.857	31.93
832.154	32.17
832.451	30.9
832.748	32.55
833.045	29.27
833.342	33.95
833.639	31.62
833.936	31.6
834.232	33.71
834.529	37.12
834.826	32.38
835.122	35.13
835.419	34.24
835.715	33.76
836.012	31.75
836.308	33.07
836.604	34.84
836.901	32.1
837.197	33.72
837.493	32.96
837.789	33.37
838.085	34.51
838.381	32.4
838.677	30.96
838.972	31.52
839.268	30.83
839.564	30.09
839.86	30.42
840.155	31.22
840.451	29.9
840.746	32.86
841.042	27.44
841.337	28.62
841.632	32.87
841.928	30.48
842.223	27.18
842.518	35.35
842.813	30.72
843.108	37.33
843.403	35.09
843.698	32.76
843.993	29.14
844.287	42.58
844.582	38.83
844.877	38.73
845.171	37.06
845.466	27.8
845.761	41.97
846.055	24.77
846.349	25.6
846.644	28.51
846.938	30.22
847.232	28.8
847.526	24.49
847.82	22.47
848.114	24.56
848.408	31.9
848.702	30.11
848.996	30.79
849.29	41.11
849.584	34.25
849.877	53.92
850.171	23.21
850.465	33.2
850.758	23.6
851.052	41.86
851.345	29.7
851.638	31.83
851.932	15.01
852.225	34.86
852.518	45.05
852.811	39.88
853.104	17.51
853.397	20.4
853.69	17.16
853.983	28.48
854.276	37.56
854.569	37.64
854.861	31.51
855.154	31.38
855.447	46.05
855.739	30.04
856.032	30.06
856.324	58.2
856.616	26.22
856.909	19.89
857.201	34.18
857.493	37.02
857.785	23.49
858.077	32
858.369	42.63
858.661	43.36
858.953	25.25
859.245	9.8
859.537	58.93
859.829	45.13
860.12	31.58
860.412	27.65
860.703	31.95
860.995	22.31
861.286	29.85
861.578	13.98
861.869	19.81
862.16	34.38
862.452	46.43
862.743	32.01
863.034	40.48
863.325	48.37
863.616	23.51
863.907	22.13
864.198	24.05
864.488	38.82
864.779	7.44
865.07	35.71
865.36	35.24
865.651	49.32
865.941	22.93
866.232	31.7
866.522	44.3
866.813	19.82
867.103	33.46
867.393	10.37
867.683	28.23
867.973	42.77
868.263	-9.35
868.553	32.35
868.843	34.98
869.133	31.89
869.423	30.05
869.713	45.28
870.002	14.34
870.292	29.41
870.582	45.26
870.871	65.48
871.161	28.08
871.45	37.68
871.739	33.78
872.029	21.51
872.318	33.17
872.607	47.59
872.896	32.02
873.185	34.85
873.474	25.28
873.763	36.78
874.052	11.25
874.341	27.3
874.63	35.61
874.918	40.83
875.207	32.28
875.496	34.89
875.784	42.91
876.073	26.68
876.361	50.31
876.649	39.25
876.938	23.26
877.226	24.81
877.514	27.34
877.802	35.27
878.09	14.26
878.378	51.03
878.666	41.59
878.954	37.53
879.242	24.45
879.53	23.38
879.817	41.35
880.105	47.48
880.392	24.52
880.68	35.1
880.967	32.45
881.255	9.2
881.542	45.04
881.83	36.32
882.117	34.88
882.404	32.72
882.691	42.37
882.978	35.15
883.265	26.21
883.552	30.01
883.839	27.55
884.126	30.65
884.413	45.49
884.699	34.09
884.986	33.85
885.273	43.94
885.559	43.94
885.846	43.94
