Data from 0177_crown_Reflection__1__052.txt Node

Date: Mon Aug 28 19:04:46 CDT 2023
User: ToomeyLab
Spectrometer: FLMS14357
Trigger mode: 0
Integration Time (sec): 1.000000E-2
Scans to average: 100
Electric dark correction enabled: true
Nonlinearity correction enabled: false
Boxcar width: 0
XAxis mode: Wavelengths
Number of Pixels in Spectrum: 2048
>>>>>Begin Spectral Data<<<<<
189.047	-148.51
189.435	-148.51
189.823	-148.51
190.211	2827.91
190.599	-41.93
190.987	-440.88
191.375	97.09
191.763	-10.82
192.151	-33.02
192.538	178.3
192.926	221.41
193.314	361.17
193.702	128.85
194.089	81.3
194.477	5458.82
194.864	-9.31
195.252	103.27
195.639	-2092.31
196.027	103.75
196.414	356.09
196.801	49.82
197.189	82.63
197.576	-347.11
197.963	-124.72
198.351	-18.9
198.738	-55.57
199.125	-13.61
199.512	-5.2
199.899	5.62
200.286	-99.33
200.673	6.62
201.06	-52.6
201.447	-82.01
201.833	-31.94
202.22	10.22
202.607	-36.16
202.994	23.32
203.38	-38.42
203.767	-60.15
204.154	22.15
204.54	-22.13
204.927	-72
205.313	2.26
205.699	-1.72
206.086	8.33
206.472	-36.94
206.858	-25.13
207.245	-1.66
207.631	10.32
208.017	-15.8
208.403	-4.92
208.789	-19.17
209.175	-43.53
209.561	-35.61
209.947	-5.47
210.333	-12.33
210.719	5.9
211.105	30.73
211.491	-24.33
211.876	47.62
212.262	-1.23
212.648	23.09
213.034	-4.01
213.419	-12.88
213.805	-25.41
214.19	-37.05
214.576	19.61
214.961	-25.76
215.346	-16.38
215.732	13.86
216.117	-47.03
216.502	-21.6
216.888	-67.69
217.273	-6.93
217.658	-8.82
218.043	-14.44
218.428	3.81
218.813	0.87
219.198	0.12
219.583	13.14
219.968	10.35
220.353	2.95
220.738	5.52
221.122	1.53
221.507	-6.54
221.892	-20.28
222.276	8.65
222.661	9.46
223.046	-7.17
223.43	-3.03
223.815	3.05
224.199	3.21
224.583	-12.05
224.968	1.52
225.352	-2.03
225.736	-2.67
226.121	-5.27
226.505	-9.88
226.889	1.02
227.273	3.32
227.657	-7.88
228.041	-0.52
228.425	-0.45
228.809	-1.19
229.193	-0.81
229.577	2.28
229.961	-0.56
230.344	1.19
230.728	1.32
231.112	0.64
231.495	1.86
231.879	2.24
232.263	0.19
232.646	-0.82
233.03	0.68
233.413	3.87
233.797	0.12
234.18	0.46
234.563	-0.25
234.946	4.76
235.33	2.04
235.713	0.09
236.096	2.97
236.479	2.57
236.862	1.99
237.245	0.76
237.628	1.2
238.011	3.62
238.394	3.29
238.777	1.83
239.16	-1.53
239.543	-1.54
239.925	3.69
240.308	0.95
240.691	-0.6
241.073	0.63
241.456	0.89
241.838	-0.24
242.221	3.14
242.603	2.38
242.986	2.22
243.368	1.28
243.75	1.47
244.133	1.37
244.515	1.63
244.897	1.94
245.279	1.81
245.661	1.16
246.043	2
246.425	1.09
246.807	1.95
247.189	1.01
247.571	0.77
247.953	1.55
248.335	1.39
248.717	1.69
249.098	1.82
249.48	1.71
249.862	1.65
250.243	1.47
250.625	1.77
251.006	1.93
251.388	1.9
251.769	2.19
252.151	1.78
252.532	0.34
252.913	2.71
253.295	0.08
253.676	1.01
254.057	1.1
254.438	1.65
254.819	0.65
255.2	1.87
255.581	0.93
255.962	2.33
256.343	1.96
256.724	0.77
257.105	1
257.486	1.96
257.867	1.16
258.247	1.6
258.628	2.3
259.009	0.66
259.389	0.59
259.77	1.32
260.15	0.97
260.531	0.82
260.911	1.83
261.292	1.65
261.672	1.39
262.052	1.36
262.432	1.43
262.813	1.74
263.193	1.73
263.573	1.57
263.953	1.88
264.333	0.97
264.713	0.94
265.093	2.15
265.473	1.77
265.853	0.56
266.233	0.6
266.612	2.49
266.992	1.57
267.372	0.65
267.752	1.92
268.131	0.84
268.511	1.03
268.89	1.26
269.27	1.05
269.649	1.3
270.029	1.42
270.408	1.21
270.787	1.57
271.167	1.3
271.546	1.27
271.925	1.9
272.304	1.08
272.683	1.48
273.062	0.87
273.441	1.73
273.82	1.61
274.199	0.98
274.578	1.08
274.957	1.68
275.336	1.93
275.715	1.62
276.093	1.01
276.472	1.27
276.851	1.26
277.229	1.11
277.608	1.6
277.986	1.56
278.365	1.21
278.743	1.56
279.122	1.15
279.5	1.25
279.878	0.5
280.257	1.43
280.635	1.57
281.013	1.38
281.391	1.47
281.769	1.39
282.147	1.72
282.525	1.44
282.903	1.3
283.281	1.36
283.659	1.76
284.037	1.79
284.415	1.1
284.792	1.49
285.17	1.16
285.548	0.88
285.925	1.84
286.303	1.61
286.68	1.35
287.058	1.56
287.435	1.44
287.813	1.17
288.19	1.86
288.567	1.55
288.945	1.74
289.322	1.36
289.699	1.59
290.076	1.35
290.453	1.19
290.83	0.77
291.207	0.93
291.584	1.42
291.961	1.89
292.338	1.25
292.715	1.14
293.092	1.46
293.469	1.16
293.845	0.99
294.222	1.36
294.599	1.06
294.975	1.64
295.352	0.98
295.728	1.28
296.105	1.64
296.481	1.45
296.858	1.87
297.234	1.41
297.61	1.41
297.986	1.65
298.363	1.61
298.739	1.4
299.115	1.3
299.491	1.59
299.867	1.4
300.243	1.7
300.619	1.73
300.995	1.48
301.371	1.23
301.746	1.46
302.122	1.19
302.498	1.89
302.874	1.68
303.249	1.59
303.625	1.54
304	1.49
304.376	1.69
304.751	1.14
305.127	1.52
305.502	1.33
305.878	1.39
306.253	1.33
306.628	1.41
307.003	1.8
307.378	1.62
307.754	2.22
308.129	1.3
308.504	1.98
308.879	1.61
309.254	1.53
309.629	1.51
310.003	1.39
310.378	1.22
310.753	1.47
311.128	1.57
311.502	1.87
311.877	1.62
312.252	1.72
312.626	1.83
313.001	1.51
313.375	1.59
313.75	1.7
314.124	1.75
314.498	1.74
314.873	1.79
315.247	1.71
315.621	1.61
315.995	1.99
316.369	1.55
316.743	1.46
317.117	2.2
317.491	0.91
317.865	1.08
318.239	1.29
318.613	1.83
318.987	1.97
319.361	1.85
319.734	1.67
320.108	1.95
320.482	1.79
320.855	1.29
321.229	1.69
321.602	1.75
321.976	1.4
322.349	1.74
322.723	1.77
323.096	1.97
323.469	1.26
323.843	1.21
324.216	2.35
324.589	2.01
324.962	2.02
325.335	2.01
325.708	1.54
326.081	1.55
326.454	2.09
326.827	1.81
327.2	1.17
327.573	1.47
327.945	1.99
328.318	1.62
328.691	1.4
329.063	1.4
329.436	0.89
329.809	2.33
330.181	1.57
330.553	1.96
330.926	2.07
331.298	1.47
331.671	1.88
332.043	1.45
332.415	2.37
332.787	1.25
333.159	1.8
333.532	2.13
333.904	1.88
334.276	1.35
334.648	1.38
335.02	2.08
335.391	1.34
335.763	1.31
336.135	1.83
336.507	1.38
336.879	1.24
337.25	2.14
337.622	1.19
337.993	1.99
338.365	1.08
338.736	1.72
339.108	0.97
339.479	1.28
339.851	1.54
340.222	1.84
340.593	1.58
340.964	1.74
341.336	1.23
341.707	1.49
342.078	1.14
342.449	1.9
342.82	2.22
343.191	1.7
343.562	1.57
343.933	1.27
344.303	1.46
344.674	1.68
345.045	1.55
345.416	1.75
345.786	1.95
346.157	1.9
346.527	1.38
346.898	1.51
347.268	1.26
347.639	1.44
348.009	1.36
348.38	1.76
348.75	1.98
349.12	1.57
349.49	1.62
349.861	1.04
350.231	1.35
350.601	2.13
350.971	1.95
351.341	1.68
351.711	1.84
352.081	1.91
352.45	1.78
352.82	1.44
353.19	2.21
353.56	1.9
353.929	1.73
354.299	1.55
354.669	1.69
355.038	1.84
355.408	2.04
355.777	1.29
356.147	1.8
356.516	1.94
356.885	1.64
357.254	1.57
357.624	1.57
357.993	1.86
358.362	1.42
358.731	1.94
359.1	1.85
359.469	1.74
359.838	1.48
360.207	1.81
360.576	1.77
360.945	1.65
361.314	1.71
361.682	1.61
362.051	1.89
362.42	1.72
362.788	1.59
363.157	1.6
363.525	1.58
363.894	1.73
364.262	1.94
364.631	1.7
364.999	1.56
365.367	1.87
365.735	1.38
366.104	1.66
366.472	1.37
366.84	1.91
367.208	1.66
367.576	1.83
367.944	1.73
368.312	2.2
368.68	1.81
369.048	1.89
369.416	1.33
369.783	1.59
370.151	1.71
370.519	1.59
370.886	1.55
371.254	1.76
371.621	1.56
371.989	1.77
372.356	1.34
372.724	2.03
373.091	1.51
373.458	1.34
373.826	1.78
374.193	1.55
374.56	1.7
374.927	1.11
375.294	1.91
375.661	2
376.028	1.5
376.395	1.44
376.762	1.89
377.129	1.19
377.496	1.64
377.863	1.81
378.229	1.42
378.596	2
378.963	1.65
379.329	1.83
379.696	1.67
380.062	1.43
380.429	1.71
380.795	1.67
381.161	1.8
381.528	2.27
381.894	1.44
382.26	1.5
382.626	1.83
382.993	1.55
383.359	2.01
383.725	1.92
384.091	1.99
384.457	1.73
384.823	1.61
385.188	1.76
385.554	1.51
385.92	1.58
386.286	1.89
386.651	1.66
387.017	1.95
387.383	1.67
387.748	1.78
388.114	1.67
388.479	1.8
388.845	1.74
389.21	1.65
389.575	1.87
389.94	1.94
390.306	1.74
390.671	1.54
391.036	1.69
391.401	1.74
391.766	1.85
392.131	1.83
392.496	1.78
392.861	1.64
393.226	1.96
393.591	1.84
393.956	1.82
394.32	1.75
394.685	1.7
395.05	1.91
395.414	1.69
395.779	1.65
396.143	1.54
396.508	1.63
396.872	1.85
397.236	1.82
397.601	1.86
397.965	1.32
398.329	1.76
398.694	1.9
399.058	1.57
399.422	1.99
399.786	1.79
400.15	2.11
400.514	1.67
400.878	1.73
401.242	1.65
401.605	1.74
401.969	1.62
402.333	1.67
402.697	1.7
403.06	1.89
403.424	1.91
403.787	1.65
404.151	1.71
404.514	1.7
404.878	1.69
405.241	1.88
405.604	1.84
405.968	1.57
406.331	1.94
406.694	1.64
407.057	1.91
407.42	1.75
407.783	1.66
408.146	1.65
408.509	1.91
408.872	1.86
409.235	1.82
409.598	1.75
409.961	1.69
410.323	1.79
410.686	1.87
411.049	1.9
411.411	1.81
411.774	1.73
412.136	1.51
412.499	1.71
412.861	1.79
413.223	1.77
413.586	1.53
413.948	1.74
414.31	1.85
414.672	1.7
415.035	1.7
415.397	1.66
415.759	1.92
416.121	1.97
416.483	1.59
416.845	1.93
417.206	1.85
417.568	1.87
417.93	1.74
418.292	1.96
418.653	1.77
419.015	1.72
419.377	1.6
419.738	1.8
420.1	1.87
420.461	1.81
420.822	1.78
421.184	1.81
421.545	1.85
421.906	1.85
422.267	1.77
422.629	1.74
422.99	1.74
423.351	1.75
423.712	1.65
424.073	1.76
424.434	1.85
424.795	1.82
425.155	1.8
425.516	1.78
425.877	1.79
426.238	1.73
426.598	1.71
426.959	1.73
427.32	1.74
427.68	1.8
428.041	1.72
428.401	1.86
428.761	1.75
429.122	1.85
429.482	1.92
429.842	1.85
430.202	1.85
430.563	1.71
430.923	2
431.283	1.76
431.643	1.56
432.003	1.8
432.363	1.82
432.722	1.85
433.082	1.57
433.442	1.87
433.802	1.84
434.161	1.91
434.521	1.77
434.881	1.66
435.24	1.82
435.6	1.84
435.959	1.96
436.319	1.85
436.678	1.78
437.037	1.91
437.396	1.82
437.756	1.65
438.115	1.91
438.474	2
438.833	1.7
439.192	1.89
439.551	1.76
439.91	1.99
440.269	1.84
440.628	1.77
440.987	1.91
441.345	1.8
441.704	1.76
442.063	1.82
442.421	1.89
442.78	1.88
443.138	1.81
443.497	1.75
443.855	1.97
444.214	1.82
444.572	1.86
444.93	1.97
445.288	1.7
445.647	2.02
446.005	1.94
446.363	1.82
446.721	1.94
447.079	1.81
447.437	1.71
447.795	1.83
448.153	1.92
448.51	1.75
448.868	1.96
449.226	1.8
449.584	1.79
449.941	1.81
450.299	1.96
450.656	1.77
451.014	1.83
451.371	1.83
451.729	1.72
452.086	1.88
452.443	2.07
452.801	1.92
453.158	1.96
453.515	1.96
453.872	1.79
454.229	1.93
454.586	1.97
454.943	1.84
455.3	1.89
455.657	2
456.014	1.86
456.371	1.91
456.727	1.93
457.084	1.83
457.441	1.91
457.797	1.92
458.154	1.87
458.51	2.18
458.867	1.83
459.223	1.93
459.58	1.8
459.936	2.03
460.292	1.94
460.648	1.95
461.005	1.84
461.361	1.88
461.717	1.87
462.073	1.9
462.429	1.78
462.785	1.81
463.141	1.86
463.496	2.01
463.852	1.87
464.208	1.93
464.564	1.98
464.919	1.92
465.275	2.02
465.631	1.95
465.986	2.18
466.342	1.93
466.697	1.8
467.052	1.85
467.408	1.91
467.763	1.71
468.118	1.84
468.473	1.77
468.829	1.82
469.184	1.81
469.539	1.93
469.894	1.89
470.249	1.9
470.603	1.94
470.958	1.69
471.313	1.96
471.668	1.84
472.023	2.05
472.377	1.89
472.732	1.89
473.086	1.98
473.441	1.87
473.795	2.03
474.15	2.09
474.504	1.9
474.859	1.97
475.213	1.91
475.567	2.01
475.921	2.02
476.275	1.8
476.63	2.07
476.984	1.98
477.338	1.88
477.692	1.92
478.045	2.04
478.399	1.96
478.753	1.81
479.107	1.89
479.461	2.03
479.814	2.05
480.168	1.96
480.521	1.98
480.875	1.9
481.228	1.93
481.582	1.96
481.935	1.99
482.289	2.04
482.642	2.09
482.995	1.99
483.348	1.81
483.701	1.89
484.055	1.9
484.408	1.88
484.761	1.85
485.114	1.93
485.466	1.84
485.819	1.78
486.172	1.75
486.525	1.79
486.878	1.8
487.23	1.91
487.583	1.96
487.936	1.95
488.288	2.01
488.641	1.9
488.993	1.94
489.345	1.87
489.698	1.91
490.05	1.81
490.402	1.81
490.754	1.87
491.107	1.96
491.459	1.92
491.811	1.92
492.163	1.99
492.515	2.06
492.866	1.94
493.218	1.9
493.57	1.95
493.922	1.78
494.274	1.89
494.625	1.89
494.977	2.02
495.328	1.95
495.68	1.99
496.031	1.99
496.383	1.99
496.734	2.05
497.086	2.11
497.437	2.13
497.788	2
498.139	2.03
498.49	1.92
498.842	1.93
499.193	1.9
499.544	1.99
499.894	1.95
500.245	1.92
500.596	2
500.947	1.97
501.298	1.94
501.648	1.99
501.999	2.01
502.35	1.9
502.7	2.11
503.051	2.03
503.401	2.05
503.752	1.81
504.102	1.92
504.452	2.08
504.803	2.18
505.153	1.97
505.503	1.89
505.853	1.99
506.203	2.12
506.553	1.97
506.903	2.11
507.253	2.07
507.603	1.91
507.953	2.05
508.303	2.07
508.652	2.03
509.002	2.07
509.352	1.97
509.701	1.99
510.051	1.97
510.4	2.09
510.75	2
511.099	2.04
511.449	2
511.798	1.95
512.147	1.98
512.496	2.02
512.846	2.07
513.195	2.08
513.544	2.07
513.893	2.03
514.242	2.03
514.591	2.12
514.939	1.95
515.288	2.12
515.637	2.13
515.986	2
516.334	2.11
516.683	2.14
517.032	2.04
517.38	2.16
517.729	2.22
518.077	2.02
518.426	2.03
518.774	2
519.122	2.06
519.47	2.12
519.819	1.97
520.167	2
520.515	2.05
520.863	1.94
521.211	2.01
521.559	1.95
521.907	1.98
522.255	1.99
522.602	2.03
522.95	2.1
523.298	2.02
523.645	2.1
523.993	2.01
524.341	2.2
524.688	2.15
525.036	2.14
525.383	2.1
525.73	2.17
526.078	2.18
526.425	2.27
526.772	2.09
527.119	2.07
527.466	1.91
527.814	2.03
528.161	1.98
528.508	2.01
528.854	2
529.201	2.05
529.548	1.96
529.895	2.06
530.242	1.97
530.588	1.92
530.935	1.89
531.282	1.92
531.628	1.95
531.975	1.97
532.321	2.06
532.667	2.06
533.014	2.04
533.36	2.12
533.706	2.15
534.052	2
534.399	2.11
534.745	2.09
535.091	1.99
535.437	1.92
535.783	2.02
536.129	2
536.474	2
536.82	2.17
537.166	2.06
537.512	2.08
537.857	2.16
538.203	2.08
538.549	1.98
538.894	2.02
539.239	1.91
539.585	2.07
539.93	2.05
540.276	2.12
540.621	2.17
540.966	2.06
541.311	2.16
541.656	2.28
542.001	2.1
542.346	2.14
542.691	2.12
543.036	2.02
543.381	1.97
543.726	1.95
544.071	2
544.415	2.09
544.76	2.1
545.105	2.11
545.449	2.12
545.794	2.14
546.138	2.08
546.483	2.09
546.827	2.09
547.171	2.07
547.516	2.03
547.86	2.08
548.204	2.24
548.548	2.15
548.892	2.04
549.236	2.01
549.58	2.05
549.924	2.04
550.268	2.13
550.612	2.13
550.956	2.23
551.3	2.17
551.643	2.18
551.987	2.07
552.33	2.2
552.674	2.12
553.017	2.18
553.361	2.26
553.704	2.09
554.048	2.16
554.391	1.99
554.734	2.19
555.077	2.14
555.42	2.12
555.764	2.17
556.107	2.11
556.45	2.05
556.793	2.12
557.135	2.21
557.478	2.09
557.821	2.22
558.164	2.33
558.507	2.15
558.849	2.26
559.192	2.16
559.534	2.09
559.877	2.23
560.219	2.34
560.562	2.24
560.904	2.25
561.246	2.19
561.589	2.15
561.931	2.16
562.273	2.09
562.615	1.96
562.957	2.32
563.299	2.29
563.641	2.15
563.983	2.22
564.325	2.2
564.667	1.95
565.008	2.15
565.35	2.29
565.692	2.15
566.033	2.05
566.375	2.15
566.716	2.14
567.058	2.32
567.399	2.19
567.741	2.11
568.082	2.21
568.423	2.25
568.764	2.04
569.105	2.25
569.447	2.22
569.788	2.21
570.129	2.18
570.47	2.16
570.811	2.31
571.151	2.02
571.492	2.19
571.833	2.07
572.174	2.37
572.514	2.23
572.855	2.12
573.195	2.33
573.536	2.26
573.876	2.03
574.217	2.24
574.557	2.16
574.898	2.29
575.238	2.14
575.578	2.15
575.918	2.18
576.258	2.23
576.598	2.21
576.938	2.23
577.278	2.05
577.618	1.98
577.958	2.14
578.298	2.46
578.638	2.13
578.977	2.24
579.317	1.98
579.657	2.12
579.996	2.25
580.336	2.14
580.675	2.15
581.014	2.3
581.354	2.24
581.693	2.25
582.032	2.25
582.372	2.25
582.711	2.33
583.05	2.32
583.389	2.51
583.728	2.25
584.067	2.41
584.406	2.27
584.745	2.16
585.083	2.37
585.422	2.25
585.761	2.41
586.1	2.4
586.438	2.04
586.777	2.14
587.115	2.37
587.454	2.3
587.792	2.2
588.13	2.41
588.469	2.41
588.807	2.13
589.145	2.32
589.483	2.16
589.821	2.22
590.159	2.24
590.497	2.45
590.835	2.26
591.173	2.2
591.511	2.1
591.849	2.03
592.187	2.37
592.524	2.52
592.862	2.49
593.2	2.09
593.537	2.27
593.875	2.58
594.212	2.42
594.55	2.41
594.887	2.14
595.224	2.37
595.561	2.2
595.899	2.13
596.236	2.31
596.573	2.32
596.91	2.15
597.247	2.38
597.584	2.11
597.921	2.23
598.258	2.23
598.594	2.19
598.931	2.31
599.268	2.22
599.604	2.12
599.941	2.42
600.277	2.06
600.614	2.43
600.95	2.33
601.287	2.44
601.623	2.46
601.959	2.21
602.296	2.31
602.632	2.23
602.968	2.44
603.304	2.16
603.64	2.32
603.976	2.4
604.312	2.29
604.648	2.18
604.984	2.16
605.319	2.48
605.655	2.49
605.991	2.38
606.326	2.27
606.662	2.39
606.998	2.45
607.333	2.35
607.668	2.23
608.004	2.33
608.339	2.41
608.674	2.25
609.01	2.49
609.345	2.47
609.68	2.29
610.015	2.59
610.35	2.55
610.685	2.47
611.02	2.21
611.355	2.43
611.689	2.32
612.024	2.32
612.359	2.41
612.694	2.42
613.028	2.33
613.363	2.26
613.697	2.21
614.032	2.29
614.366	2.25
614.7	2.68
615.035	2.25
615.369	2.37
615.703	2.24
616.037	2.33
616.371	1.88
616.705	2.27
617.039	2.51
617.373	2.31
617.707	2.24
618.041	2.38
618.375	2.36
618.709	2.91
619.042	2.29
619.376	2.03
619.71	2.45
620.043	2.32
620.377	2.73
620.71	2.3
621.043	2.54
621.377	2.62
621.71	2.37
622.043	1.98
622.376	2.24
622.709	2.26
623.043	2.39
623.376	2.38
623.709	2.38
624.041	2.74
624.374	2.56
624.707	1.99
625.04	2.31
625.373	2.24
625.705	2.58
626.038	2.45
626.37	2.29
626.703	2.55
627.035	2.69
627.368	2.76
627.7	2.52
628.032	2.13
628.365	2.22
628.697	2.3
629.029	2.5
629.361	2.57
629.693	2.46
630.025	2.46
630.357	2.2
630.689	2.21
631.021	2.75
631.353	2.4
631.684	2.47
632.016	2.56
632.348	2.72
632.679	2.42
633.011	2.27
633.342	2.28
633.674	2.44
634.005	2.41
634.336	2.24
634.668	2.4
634.999	2.51
635.33	2.67
635.661	2.71
635.992	2.14
636.323	2.57
636.654	2.38
636.985	2.28
637.316	2.56
637.647	2.72
637.977	2.43
638.308	2.55
638.639	2.09
638.969	2.86
639.3	2.23
639.63	2.35
639.961	2.47
640.291	2.52
640.622	2.18
640.952	2.32
641.282	2.44
641.612	2.32
641.943	2.58
642.273	2.58
642.603	1.98
642.933	2.17
643.263	2.71
643.592	2.09
643.922	2.75
644.252	2.3
644.582	2.15
644.911	2.63
645.241	2.39
645.571	2.24
645.9	2.64
646.23	2.26
646.559	2.39
646.888	3.07
647.218	2.54
647.547	2.47
647.876	2.87
648.205	2.41
648.534	3.19
648.863	2.42
649.192	2.43
649.521	2.93
649.85	2.57
650.179	2.56
650.508	2.7
650.837	2.4
651.165	2.48
651.494	2.6
651.822	2.29
652.151	2.29
652.479	3.03
652.808	2.33
653.136	2.56
653.465	2.24
653.793	2.72
654.121	2.62
654.449	2.23
654.777	2.69
655.105	2.5
655.433	2.32
655.761	2.32
656.089	2.48
656.417	2.05
656.745	3.23
657.073	1.68
657.4	2.89
657.728	3.38
658.056	2.52
658.383	2.1
658.711	2.7
659.038	2.67
659.365	2.48
659.693	2.62
660.02	2.64
660.347	2.91
660.674	2.35
661.001	2.67
661.329	2.51
661.656	2.06
661.982	2.38
662.309	2.88
662.636	2.56
662.963	2.8
663.29	2.66
663.616	2.27
663.943	2.29
664.27	2.62
664.596	2.43
664.923	2.68
665.249	2.42
665.576	2.3
665.902	2.16
666.228	2.47
666.554	2.29
666.881	2.12
667.207	2.33
667.533	2.38
667.859	1.92
668.185	2.4
668.511	2.56
668.837	2.07
669.162	2.43
669.488	1.91
669.814	2.75
670.139	2.84
670.465	3.03
670.791	2.89
671.116	2.54
671.442	2.62
671.767	1.6
672.092	2.49
672.418	2.61
672.743	2.74
673.068	2.64
673.393	2.71
673.718	2.11
674.043	2.14
674.368	2.69
674.693	3.02
675.018	2.89
675.343	2.46
675.667	2.89
675.992	2.48
676.317	1.64
676.641	2.67
676.966	2.28
677.29	2.41
677.615	3.12
677.939	2.72
678.264	2.02
678.588	2.71
678.912	3.21
679.236	2.3
679.56	2.31
679.885	3.11
680.209	1.78
680.532	2.77
680.856	2.42
681.18	1.97
681.504	2.09
681.828	2.4
682.152	2.58
682.475	3.01
682.799	3.14
683.122	2.97
683.446	2.56
683.769	3.15
684.093	2.53
684.416	2.83
684.739	2.35
685.062	3.01
685.386	2.53
685.709	2.9
686.032	1.71
686.355	2.68
686.678	2.46
687.001	2.16
687.324	2.26
687.646	2.93
687.969	2.46
688.292	2.45
688.614	2.64
688.937	2.55
689.26	2.9
689.582	2.74
689.904	2.27
690.227	2.66
690.549	2.48
690.871	2.77
691.194	2.71
691.516	2.64
691.838	2.86
692.16	3.03
692.482	2.28
692.804	2.25
693.126	2.31
693.448	1.7
693.769	3.61
694.091	2.2
694.413	1.84
694.735	2.94
695.056	3.08
695.378	2.88
695.699	3.36
696.021	3.08
696.342	2.9
696.663	2.02
696.984	2.51
697.306	2.74
697.627	2.03
697.948	2.17
698.269	2.66
698.59	2.62
698.911	2.43
699.232	2.81
699.553	2.43
699.873	2.37
700.194	2.34
700.515	2.78
700.835	2.99
701.156	2.61
701.477	2.63
701.797	2.84
702.117	2.29
702.438	3.4
702.758	2.85
703.078	2.86
703.398	2.77
703.719	3.66
704.039	3.41
704.359	1.39
704.679	1.85
704.999	2.82
705.319	1.64
705.638	2.5
705.958	2.1
706.278	2.94
706.597	1.91
706.917	3.25
707.237	2.6
707.556	2.49
707.876	4.16
708.195	2.86
708.514	2.41
708.834	1.41
709.153	3.13
709.472	3.65
709.791	2.42
710.11	3.32
710.429	1.51
710.748	3.08
711.067	2.67
711.386	2.56
711.705	3.37
712.023	2.69
712.342	3.07
712.661	2.29
712.979	2.99
713.298	1.59
713.616	2.12
713.935	2.13
714.253	2.64
714.572	3.36
714.89	2.26
715.208	3.4
715.526	2.51
715.844	3.68
716.162	2.71
716.48	1.81
716.798	2.06
717.116	3.12
717.434	2.95
717.752	2.76
718.069	3.25
718.387	2.19
718.705	2.09
719.022	2.17
719.34	2.87
719.657	2.97
719.975	2.98
720.292	2.66
720.609	3.42
720.927	1.79
721.244	2.43
721.561	3.07
721.878	2.95
722.195	2.29
722.512	2.14
722.829	3.66
723.146	2.06
723.463	1.85
723.779	2.98
724.096	2.98
724.413	3.39
724.729	2.69
725.046	1.61
725.362	3.56
725.679	4.15
725.995	2.51
726.311	3.17
726.628	4.15
726.944	2.63
727.26	1.32
727.576	1.44
727.892	2.43
728.208	3.68
728.524	2.53
728.84	4.43
729.156	3.07
729.472	3
729.787	3.36
730.103	2.35
730.419	4.18
730.734	2.11
731.05	1.82
731.365	2.25
731.681	1.46
731.996	2.06
732.311	3.03
732.626	3.07
732.942	4.48
733.257	2.17
733.572	2.51
733.887	1.92
734.202	2.69
734.517	2.96
734.832	3.2
735.146	4.68
735.461	2.93
735.776	3.17
736.091	2.93
736.405	3.77
736.72	3.6
737.034	3.82
737.349	4.33
737.663	2.71
737.977	3.08
738.292	3.19
738.606	3.18
738.92	0.51
739.234	3.33
739.548	2.78
739.862	3.8
740.176	3.06
740.49	2.03
740.804	1.88
741.117	2.23
741.431	4.35
741.745	2.29
742.058	3.37
742.372	3.77
742.685	4.4
742.999	3.06
743.312	4.14
743.626	2.38
743.939	2.85
744.252	2.54
744.565	2.47
744.878	3.02
745.191	1.46
745.505	3.93
745.817	3.68
746.13	3.07
746.443	3.78
746.756	4.93
747.069	4.63
747.381	3.01
747.694	3.28
748.007	3.76
748.319	1.04
748.632	2.02
748.944	3.25
749.256	3.16
749.569	1.44
749.881	4.71
750.193	2.7
750.505	4.72
750.817	3.4
751.129	1.48
751.441	3.57
751.753	2.31
752.065	2.63
752.377	1.99
752.689	3.03
753	1.98
753.312	4.93
753.624	2.49
753.935	1.76
754.247	2.92
754.558	2.44
754.869	2
755.181	3.58
755.492	2.42
755.803	3.35
756.114	2.42
756.425	2.52
756.736	3.89
757.047	1.87
757.358	3.89
757.669	4.12
757.98	3.96
758.291	1.42
758.601	3.13
758.912	2.17
759.223	1.84
759.533	4.62
759.844	3.42
760.154	2.89
760.464	2.99
760.775	3.14
761.085	1.34
761.395	2.09
761.705	3.32
762.016	4.76
762.326	4.07
762.636	3.29
762.945	4.39
763.255	4.04
763.565	2.55
763.875	4.8
764.185	1.17
764.494	3.72
764.804	1.94
765.113	1.49
765.423	1.73
765.732	3.18
766.042	3.41
766.351	3.2
766.66	3.76
766.97	3.96
767.279	4.61
767.588	2.31
767.897	2.14
768.206	3.46
768.515	2.93
768.824	3.67
769.133	2.85
769.441	3.97
769.75	3.11
770.059	2.62
770.367	5.25
770.676	1.18
770.984	3.66
771.293	3.1
771.601	3.58
771.91	3.3
772.218	3.24
772.526	4.33
772.834	0.81
773.142	2.63
773.45	4.18
773.758	2.74
774.066	1.45
774.374	3.07
774.682	4.67
774.99	1.85
775.298	5.68
775.605	3.49
775.913	-0.49
776.22	0.54
776.528	6.26
776.835	2.57
777.143	5.18
777.45	3.91
777.757	1.34
778.065	0.31
778.372	4.83
778.679	2.85
778.986	2.34
779.293	4.01
779.6	1.2
779.907	1.54
780.214	3.44
780.52	3.41
780.827	6.04
781.134	6.51
781.44	5.5
781.747	4.3
782.053	3.97
782.36	1.48
782.666	0.57
782.973	3.75
783.279	1.29
783.585	1.66
783.891	2.27
784.197	-0.85
784.503	1.1
784.809	0.07
785.115	1.44
785.421	3.86
785.727	6.04
786.033	0.96
786.339	5.68
786.644	1.61
786.95	5.69
787.255	0.72
787.561	2.48
787.866	3.52
788.172	5.41
788.477	1.17
788.782	4.73
789.088	1.97
789.393	1.01
789.698	2.9
790.003	2.58
790.308	4.64
790.613	2.35
790.918	1.02
791.223	3.28
791.527	-0.49
791.832	1.21
792.137	4.16
792.441	3.48
792.746	1.42
793.05	-0.27
793.355	3.39
793.659	1.92
793.963	1.57
794.268	2.38
794.572	-2.18
794.876	1.38
795.18	3.62
795.484	0.78
795.788	-2.48
796.092	0.51
796.396	3.56
796.7	2.91
797.004	1.21
797.307	4.72
797.611	5.19
797.915	3.12
798.218	-1.67
798.522	2.39
798.825	5.54
799.128	0.75
799.432	4.1
799.735	3.94
800.038	2.62
800.341	0.72
800.644	2.25
800.947	3.46
801.25	5.74
801.553	4.43
801.856	1.09
802.159	1.71
802.462	5.92
802.764	3.92
803.067	2.37
803.37	0.13
803.672	-2.38
803.975	0.29
804.277	3.75
804.579	7.33
804.882	7.49
805.184	3.7
805.486	3.07
805.788	2.98
806.09	6.21
806.392	1.92
806.694	3.11
806.996	3.4
807.298	8.6
807.6	5.03
807.902	2.52
808.203	0.44
808.505	0.49
808.807	4.74
809.108	-0.07
809.409	5.92
809.711	3.76
810.012	2.48
810.313	1.32
810.615	2.21
810.916	8.17
811.217	7.78
811.518	0.23
811.819	5.37
812.12	3.07
812.421	2.7
812.722	0.91
813.023	0.19
813.323	1.31
813.624	-1.65
813.925	1.34
814.225	6.63
814.526	6.29
814.826	6.86
815.126	3.66
815.427	3.22
815.727	7.02
816.027	3.41
816.327	7.58
816.627	4.01
816.927	6.38
817.227	1.71
817.527	0.09
817.827	6.44
818.127	2.36
818.427	-4.77
818.727	5.06
819.026	7.92
819.326	-1.46
819.625	1.38
819.925	3.42
820.224	8.62
820.524	2.37
820.823	-0.09
821.122	2.28
821.421	2.07
821.72	2.71
822.019	4.92
822.318	2.08
822.617	3.29
822.916	6.85
823.215	-0.24
823.514	-3.04
823.813	5.66
824.111	4.06
824.41	2.5
824.709	4.59
825.007	3.71
825.306	4.12
825.604	5.22
825.902	5.34
826.201	4.87
826.499	5.25
826.797	3.14
827.095	5.03
827.393	5.77
827.691	3.64
827.989	5.37
828.287	4.78
828.585	5.34
828.882	3.97
829.18	4.23
829.478	2.3
829.775	6.38
830.073	3.27
830.37	3.58
830.668	4.21
830.965	3.38
831.263	3.03
831.56	4.31
831.857	5.84
832.154	1.72
832.451	3.41
832.748	5.28
833.045	0.17
833.342	4.44
833.639	0
833.936	5.51
834.232	0.71
834.529	5.89
834.826	4.97
835.122	3.5
835.419	4.92
835.715	4.38
836.012	4.48
836.308	1.21
836.604	3.31
836.901	3.74
837.197	7.35
837.493	5.52
837.789	4.2
838.085	5.74
838.381	3.56
838.677	6.25
838.972	3.09
839.268	1.82
839.564	1.81
839.86	0.62
840.155	4.94
840.451	-1.62
840.746	11.52
841.042	2.92
841.337	0.02
841.632	-10.22
841.928	-6.04
842.223	6.28
842.518	2.43
842.813	5.79
843.108	6.28
843.403	2.75
843.698	-1.91
843.993	0.72
844.287	8.96
844.582	1.85
844.877	3.86
845.171	4.96
845.466	-7.81
845.761	2.46
846.055	-2.84
846.349	-8.69
846.644	8.49
846.938	-12.7
847.232	-8.31
847.526	-0.04
847.82	-10.44
848.114	-12.88
848.408	5.18
848.702	-0.73
848.996	4.92
849.29	-3.19
849.584	-12.6
849.877	12.47
850.171	-21.08
850.465	12.19
850.758	-3.16
851.052	-7.39
851.345	-4.01
851.638	1.97
851.932	-22.14
852.225	-7.15
852.518	10.24
852.811	-5.67
853.104	-2.84
853.397	-9.49
853.69	-11.94
853.983	-21.47
854.276	-2.48
854.569	-11.09
854.861	1.32
855.154	-6.89
855.447	11.26
855.739	2.66
856.032	-3.35
856.324	5.02
856.616	-11.14
856.909	-6.64
857.201	2.79
857.493	1.19
857.785	7.72
858.077	-3.25
858.369	9.57
858.661	1.17
858.953	-2.17
859.245	-12.7
859.537	11.3
859.829	2.93
860.12	-27.92
860.412	-1.92
860.703	5.95
860.995	-6.93
861.286	-1.42
861.578	6.3
861.869	0.44
862.16	11.41
862.452	27.33
862.743	3.25
863.034	-1.86
863.325	16.66
863.616	-8.85
863.907	-12.95
864.198	-4.26
864.488	-15.29
864.779	6.66
865.07	7.36
865.36	4.53
865.651	-1.24
865.941	-5.13
866.232	-4.32
866.522	20.27
866.813	1.68
867.103	12.75
867.393	-11.68
867.683	-22.97
867.973	9.82
868.263	-19.6
868.553	-8.72
868.843	9.84
869.133	13.74
869.423	-5.99
869.713	-12.21
870.002	-21.08
870.292	-14.29
870.582	-5.37
870.871	16.88
871.161	-5.54
871.45	8.37
871.739	-16.6
872.029	-30.77
872.318	2.43
872.607	6.66
872.896	13.32
873.185	-0.72
873.474	-10
873.763	-44.11
874.052	-17.81
874.341	-11.75
874.63	1.29
874.918	-13.79
875.207	-9.29
875.496	5.6
875.784	21.59
876.073	-32.78
876.361	0.83
876.649	13.53
876.938	13.04
877.226	0.49
877.514	-18.88
877.802	20.52
878.09	-14.81
878.378	19.33
878.666	6.41
878.954	-0.32
879.242	-22.41
879.53	-2.14
879.817	1.8
880.105	-7.09
880.392	-15.32
880.68	-6.72
880.967	-32.04
881.255	-19.64
881.542	19.8
881.83	7.41
882.117	-4.56
882.404	14.63
882.691	-6.25
882.978	-8.51
883.265	5.93
883.552	11.6
883.839	-23.36
884.126	4.06
884.413	-0.7
884.699	0.91
884.986	8.75
885.273	3.85
885.559	3.85
885.846	3.85
