Data from 0177_forehead_Reflection__3__059.txt Node

Date: Mon Aug 28 19:06:25 CDT 2023
User: ToomeyLab
Spectrometer: FLMS14357
Trigger mode: 0
Integration Time (sec): 1.000000E-2
Scans to average: 100
Electric dark correction enabled: true
Nonlinearity correction enabled: false
Boxcar width: 0
XAxis mode: Wavelengths
Number of Pixels in Spectrum: 2048
>>>>>Begin Spectral Data<<<<<
189.047	49.39
189.435	49.39
189.823	49.39
190.211	-9132.56
190.599	-123.53
190.987	58.86
191.375	19.84
191.763	157.67
192.151	49.13
192.538	158.63
192.926	266.71
193.314	233.18
193.702	273.69
194.089	45.48
194.477	2135.29
194.864	315.83
195.252	-4.91
195.639	-445.3
196.027	130.62
196.414	156.01
196.801	90.07
197.189	58.37
197.576	-997.05
197.963	-37.98
198.351	-26.09
198.738	70.18
199.125	22.74
199.512	96.72
199.899	19.78
200.286	-42.78
200.673	14.89
201.06	38.43
201.447	1.62
201.833	1.85
202.22	21.7
202.607	35.56
202.994	33.53
203.38	2.93
203.767	34.24
204.154	5.79
204.54	-26.41
204.927	7.51
205.313	25.01
205.699	-15.26
206.086	16.71
206.472	28.54
206.858	-31.98
207.245	17.91
207.631	11.15
208.017	3.92
208.403	27.29
208.789	-2.2
209.175	-14.74
209.561	23.54
209.947	-24.07
210.333	-10.22
210.719	26.81
211.105	37.9
211.491	2.47
211.876	21.54
212.262	15.24
212.648	42.3
213.034	-9.26
213.419	9.7
213.805	-10.7
214.19	-33.63
214.576	8.56
214.961	-25.4
215.346	-19.01
215.732	6.88
216.117	14.4
216.502	-2.63
216.888	-28.08
217.273	6.58
217.658	24.27
218.043	37.77
218.428	19.09
218.813	-7.48
219.198	43.69
219.583	39.76
219.968	28.63
220.353	2.81
220.738	-13.59
221.122	11.12
221.507	-8.46
221.892	19.04
222.276	2.51
222.661	3.93
223.046	3.67
223.43	8.78
223.815	2.46
224.199	8.81
224.583	3.96
224.968	5.13
225.352	1.3
225.736	15.21
226.121	6.29
226.505	-8.7
226.889	3.89
227.273	-0.14
227.657	4.33
228.041	9.47
228.425	3.35
228.809	3.18
229.193	3.45
229.577	5.63
229.961	2.68
230.344	2.55
230.728	2.88
231.112	2.35
231.495	2.88
231.879	2.24
232.263	2.1
232.646	2.27
233.03	3.68
233.413	5
233.797	2.71
234.18	3.76
234.563	2.1
234.946	7.19
235.33	3.35
235.713	-0.23
236.096	4.54
236.479	3.91
236.862	4.02
237.245	3.12
237.628	6.32
238.011	5.81
238.394	5.58
238.777	5.8
239.16	1.9
239.543	0.64
239.925	5.38
240.308	1.15
240.691	3.42
241.073	1.7
241.456	3.32
241.838	2.13
242.221	3.86
242.603	4.28
242.986	3.57
243.368	3.13
243.75	2.41
244.133	2.86
244.515	2.91
244.897	2.9
245.279	3
245.661	2.07
246.043	2.41
246.425	3.11
246.807	4.51
247.189	2.4
247.571	3.58
247.953	3.39
248.335	2.77
248.717	3.04
249.098	2.85
249.48	2.93
249.862	2.66
250.243	3
250.625	3.33
251.006	3.09
251.388	3.46
251.769	3.67
252.151	3.24
252.532	2.59
252.913	3.97
253.295	1.42
253.676	2.58
254.057	3.06
254.438	2.36
254.819	2.58
255.2	3.7
255.581	2.55
255.962	4.28
256.343	4.19
256.724	2.26
257.105	3.08
257.486	3.42
257.867	3.1
258.247	2.93
258.628	3.43
259.009	0.98
259.389	2.3
259.77	3.5
260.15	3.39
260.531	3.13
260.911	2.71
261.292	2.9
261.672	3
262.052	2.51
262.432	2.8
262.813	2.98
263.193	3.04
263.573	2.72
263.953	3.25
264.333	2.33
264.713	3.18
265.093	3.96
265.473	3.18
265.853	2.86
266.233	2.27
266.612	2.91
266.992	3.01
267.372	3.44
267.752	2.82
268.131	3.18
268.511	2.64
268.89	2.62
269.27	2.65
269.649	2.72
270.029	3.69
270.408	2.78
270.787	3.08
271.167	3.57
271.546	2.76
271.925	3.48
272.304	2.92
272.683	3.11
273.062	2.78
273.441	2.62
273.82	2.63
274.199	2.51
274.578	2.67
274.957	2.86
275.336	3.04
275.715	2.84
276.093	2.58
276.472	2.92
276.851	2.61
277.229	3.15
277.608	3
277.986	2.6
278.365	3.31
278.743	2.42
279.122	2.65
279.5	2.58
279.878	2.56
280.257	2.97
280.635	3.18
281.013	2.54
281.391	2.4
281.769	3.18
282.147	2.7
282.525	3.07
282.903	3.46
283.281	2.78
283.659	3.62
284.037	3.4
284.415	2.72
284.792	3.2
285.17	2.79
285.548	2.98
285.925	3.17
286.303	2.44
286.68	3.1
287.058	2.63
287.435	2.98
287.813	2.64
288.19	2.99
288.567	3.02
288.945	2.85
289.322	2.88
289.699	2.76
290.076	2.97
290.453	3.44
290.83	2.49
291.207	2.79
291.584	2.97
291.961	3.09
292.338	2.79
292.715	2.36
293.092	3.05
293.469	3.22
293.845	3
294.222	2.96
294.599	3.1
294.975	3.67
295.352	2.73
295.728	3.06
296.105	3.44
296.481	3.58
296.858	3.66
297.234	3.87
297.61	3.5
297.986	3.29
298.363	3.86
298.739	3.24
299.115	3.26
299.491	3.51
299.867	3.35
300.243	3.57
300.619	3.47
300.995	3.92
301.371	3.16
301.746	3.73
302.122	3.8
302.498	3.7
302.874	3.82
303.249	4.03
303.625	3.64
304	3.31
304.376	3.79
304.751	3.56
305.127	3.94
305.502	4.31
305.878	3.53
306.253	3.62
306.628	3.88
307.003	3.92
307.378	3.74
307.754	4.41
308.129	3.64
308.504	4.6
308.879	4.39
309.254	4.15
309.629	4.08
310.003	3.96
310.378	4.21
310.753	4.24
311.128	4.62
311.502	4.57
311.877	3.89
312.252	4.35
312.626	4.34
313.001	4.27
313.375	4.34
313.75	4.37
314.124	4.02
314.498	4.34
314.873	4.6
315.247	4.98
315.621	4.18
315.995	4.86
316.369	5.06
316.743	4.64
317.117	4.75
317.491	4.37
317.865	4.25
318.239	4.87
318.613	4.78
318.987	4.73
319.361	4.94
319.734	4.86
320.108	5.55
320.482	5.36
320.855	4.67
321.229	4.85
321.602	5.23
321.976	4.79
322.349	5.1
322.723	5.19
323.096	5.25
323.469	4.85
323.843	4.69
324.216	5.71
324.589	5.47
324.962	5.33
325.335	5.42
325.708	5.36
326.081	5.47
326.454	5.67
326.827	5.36
327.2	4.79
327.573	5.45
327.945	5.76
328.318	5.74
328.691	5.3
329.063	5.03
329.436	5.26
329.809	5.82
330.181	5.1
330.553	5.32
330.926	5.74
331.298	5.97
331.671	5.68
332.043	5.81
332.415	6.54
332.787	5.7
333.159	5.58
333.532	6.44
333.904	6.26
334.276	5.79
334.648	5.77
335.02	6.07
335.391	6.35
335.763	6.5
336.135	6.53
336.507	5.93
336.879	5.83
337.25	6.46
337.622	6.05
337.993	6.48
338.365	6.05
338.736	6.86
339.108	5.82
339.479	6.51
339.851	6.86
340.222	6.32
340.593	6.2
340.964	6.62
341.336	6.41
341.707	6.04
342.078	6.26
342.449	6.7
342.82	6.62
343.191	6.47
343.562	6.36
343.933	6.5
344.303	7.05
344.674	6.44
345.045	6.9
345.416	6.8
345.786	6.86
346.157	6.93
346.527	6.49
346.898	6.57
347.268	6.57
347.639	6.25
348.009	6.82
348.38	7.27
348.75	6.6
349.12	7.19
349.49	6.87
349.861	6.7
350.231	6.69
350.601	7.6
350.971	7.29
351.341	7.02
351.711	7.12
352.081	7.11
352.45	7.29
352.82	7.42
353.19	7.66
353.56	7.2
353.929	7.6
354.299	6.84
354.669	7.17
355.038	7.54
355.408	7.44
355.777	7.22
356.147	7.26
356.516	7.82
356.885	7.5
357.254	7.3
357.624	7.53
357.993	7.75
358.362	7.22
358.731	7.52
359.1	7.87
359.469	7.99
359.838	7.53
360.207	7.69
360.576	7.71
360.945	7.9
361.314	7.85
361.682	7.69
362.051	7.6
362.42	7.83
362.788	7.57
363.157	7.6
363.525	7.77
363.894	7.87
364.262	8.01
364.631	7.73
364.999	8.12
365.367	8.08
365.735	7.88
366.104	7.75
366.472	7.91
366.84	8.02
367.208	8.36
367.576	8.23
367.944	8.45
368.312	8.63
368.68	8.36
369.048	8.26
369.416	8.29
369.783	8.65
370.151	8.25
370.519	8.65
370.886	8.38
371.254	8.53
371.621	8.35
371.989	8.6
372.356	8.68
372.724	9
373.091	8.83
373.458	8.41
373.826	9.15
374.193	8.8
374.56	9.1
374.927	8.59
375.294	9.16
375.661	9.24
376.028	8.94
376.395	8.93
376.762	9.03
377.129	8.81
377.496	8.83
377.863	9.47
378.229	9.1
378.596	9.23
378.963	9.43
379.329	9.18
379.696	9.25
380.062	9.05
380.429	9.26
380.795	9.34
381.161	9.26
381.528	9.58
381.894	9.5
382.26	9.52
382.626	9.65
382.993	9.19
383.359	9.77
383.725	9.85
384.091	9.53
384.457	9.72
384.823	9.45
385.188	9.91
385.554	9.43
385.92	9.55
386.286	9.82
386.651	10.03
387.017	9.82
387.383	9.61
387.748	9.84
388.114	9.69
388.479	9.64
388.845	9.7
389.21	9.97
389.575	10.03
389.94	10
390.306	10.07
390.671	10.05
391.036	10.05
391.401	10.01
391.766	10.28
392.131	10.15
392.496	10.11
392.861	10.13
393.226	10.15
393.591	10.01
393.956	10.26
394.32	10.13
394.685	10.2
395.05	10.33
395.414	10.33
395.779	10.31
396.143	10.13
396.508	10.11
396.872	10.45
397.236	10.22
397.601	10.44
397.965	10.58
398.329	10.74
398.694	10.62
399.058	10.51
399.422	10.63
399.786	10.92
400.15	10.67
400.514	10.73
400.878	10.64
401.242	10.75
401.605	10.64
401.969	10.56
402.333	10.78
402.697	10.6
403.06	10.72
403.424	10.9
403.787	10.81
404.151	10.73
404.514	10.94
404.878	10.73
405.241	10.95
405.604	10.62
405.968	10.52
406.331	10.95
406.694	10.76
407.057	10.74
407.42	10.78
407.783	10.72
408.146	10.93
408.509	10.78
408.872	10.84
409.235	11.02
409.598	11
409.961	10.96
410.323	10.94
410.686	11.21
411.049	11.34
411.411	11.26
411.774	11.12
412.136	11.01
412.499	11.01
412.861	11.22
413.223	11.04
413.586	11.01
413.948	11.17
414.31	11.28
414.672	11.16
415.035	11.34
415.397	11.17
415.759	11.43
416.121	11.43
416.483	11.3
416.845	11.4
417.206	11.49
417.568	11.39
417.93	11.15
418.292	11.54
418.653	11.26
419.015	11.44
419.377	11.15
419.738	11.59
420.1	11.53
420.461	11.49
420.822	11.48
421.184	11.49
421.545	11.43
421.906	11.59
422.267	11.48
422.629	11.6
422.99	11.35
423.351	11.54
423.712	11.39
424.073	11.67
424.434	11.79
424.795	11.95
425.155	11.88
425.516	11.9
425.877	11.77
426.238	11.82
426.598	11.93
426.959	11.87
427.32	12.01
427.68	12.27
428.041	12.37
428.401	12.4
428.761	12.48
429.122	12.69
429.482	12.54
429.842	12.92
430.202	12.55
430.563	12.93
430.923	13
431.283	12.81
431.643	12.9
432.003	12.89
432.363	13.15
432.722	13.14
433.082	13.01
433.442	13.08
433.802	13.15
434.161	13.26
434.521	13.16
434.881	13.16
435.24	13.24
435.6	13.13
435.959	13.2
436.319	13.39
436.678	13.34
437.037	13.56
437.396	13.71
437.756	13.52
438.115	13.82
438.474	13.82
438.833	13.87
439.192	13.86
439.551	13.8
439.91	14.04
440.269	13.86
440.628	13.8
440.987	13.82
441.345	13.78
441.704	13.75
442.063	13.79
442.421	13.89
442.78	13.86
443.138	13.89
443.497	14.13
443.855	14.29
444.214	14.37
444.572	14.35
444.93	14.39
445.288	14.33
445.647	14.47
446.005	14.7
446.363	14.49
446.721	14.51
447.079	14.44
447.437	14.39
447.795	14.27
448.153	14.33
448.51	14.21
448.868	14.31
449.226	14.45
449.584	14.44
449.941	14.63
450.299	14.74
450.656	14.77
451.014	14.83
451.371	15.08
451.729	14.87
452.086	15.13
452.443	15.3
452.801	15.58
453.158	15.45
453.515	15.32
453.872	15.25
454.229	15.5
454.586	15.4
454.943	15.16
455.3	15.45
455.657	15.52
456.014	15.5
456.371	15.58
456.727	15.48
457.084	15.61
457.441	15.8
457.797	15.76
458.154	15.76
458.51	16.15
458.867	15.8
459.223	15.97
459.58	15.75
459.936	16
460.292	15.9
460.648	15.92
461.005	15.93
461.361	15.83
461.717	15.69
462.073	15.45
462.429	15.58
462.785	15.74
463.141	16.2
463.496	16.31
463.852	16.32
464.208	16.38
464.564	16.57
464.919	16.51
465.275	16.68
465.631	16.56
465.986	16.86
466.342	16.89
466.697	16.66
467.052	16.57
467.408	16.67
467.763	16.69
468.118	16.59
468.473	16.69
468.829	16.78
469.184	16.75
469.539	16.97
469.894	17
470.249	16.87
470.603	16.98
470.958	17.11
471.313	17.24
471.668	16.99
472.023	17.25
472.377	17.09
472.732	17.28
473.086	17.32
473.441	17.29
473.795	17.34
474.15	17.47
474.504	17.71
474.859	17.55
475.213	17.54
475.567	17.37
475.921	17.57
476.275	17.49
476.63	17.85
476.984	17.85
477.338	17.88
477.692	17.83
478.045	17.94
478.399	17.76
478.753	17.79
479.107	17.89
479.461	17.92
479.814	18.01
480.168	17.98
480.521	17.99
480.875	18.01
481.228	17.94
481.582	18.06
481.935	18.08
482.289	18.24
482.642	18.22
482.995	18.32
483.348	18.04
483.701	18.09
484.055	18.06
484.408	17.97
484.761	17.79
485.114	17.73
485.466	17.44
485.819	17.08
486.172	16.9
486.525	17.05
486.878	17.43
487.23	17.7
487.583	18.08
487.936	18.25
488.288	18.35
488.641	18.25
488.993	17.98
489.345	17.7
489.698	17.67
490.05	17.68
490.402	17.75
490.754	18.02
491.107	18.27
491.459	18.54
491.811	18.74
492.163	18.8
492.515	19
492.866	18.86
493.218	18.47
493.57	18.13
493.922	17.89
494.274	18.11
494.625	18.35
494.977	18.77
495.328	19.16
495.68	19.44
496.031	19.56
496.383	19.54
496.734	19.58
497.086	19.63
497.437	19.67
497.788	19.71
498.139	19.74
498.49	19.42
498.842	19.45
499.193	19.23
499.544	19.35
499.894	19.42
500.245	19.67
500.596	19.58
500.947	19.7
501.298	19.57
501.648	19.78
501.999	19.85
502.35	19.94
502.7	19.97
503.051	20.14
503.401	20.08
503.752	20.12
504.102	20.14
504.452	20.18
504.803	20.31
505.153	20.19
505.503	20.06
505.853	20.23
506.203	20.41
506.553	20.27
506.903	20.4
507.253	20.5
507.603	20.32
507.953	20.55
508.303	20.59
508.652	20.72
509.002	20.66
509.352	20.39
509.701	20.47
510.051	20.44
510.4	20.43
510.75	20.26
511.099	20.43
511.449	20.33
511.798	20.36
512.147	20.64
512.496	20.57
512.846	20.89
513.195	20.75
513.544	20.8
513.893	20.68
514.242	20.75
514.591	20.86
514.939	20.72
515.288	20.84
515.637	21.06
515.986	20.98
516.334	21.05
516.683	21.11
517.032	21.16
517.38	21.34
517.729	21.42
518.077	21.17
518.426	21.19
518.774	21.31
519.122	21.24
519.47	21.15
519.819	21.06
520.167	20.85
520.515	20.93
520.863	20.63
521.211	20.71
521.559	20.84
521.907	21.08
522.255	21.09
522.602	21.39
522.95	21.66
523.298	21.65
523.645	21.61
523.993	21.65
524.341	21.67
524.688	21.77
525.036	21.8
525.383	21.84
525.73	21.88
526.078	21.84
526.425	21.81
526.772	21.76
527.119	21.67
527.466	21.37
527.814	21.15
528.161	21.18
528.508	21.44
528.854	21.55
529.201	21.69
529.548	21.68
529.895	21.59
530.242	21.21
530.588	20.71
530.935	20.56
531.282	20.62
531.628	21.05
531.975	21.4
532.321	21.63
532.667	21.8
533.014	22.04
533.36	21.98
533.706	22.13
534.052	21.93
534.399	21.94
534.745	22.02
535.091	21.58
535.437	21.32
535.783	21.28
536.129	21.61
536.474	21.91
536.82	22.22
537.166	22.44
537.512	22.6
537.857	22.6
538.203	22.34
538.549	22.01
538.894	21.88
539.239	22.1
539.585	22.27
539.93	22.51
540.276	22.63
540.621	22.94
540.966	22.99
541.311	23.12
541.656	22.99
542.001	22.86
542.346	22.94
542.691	22.61
543.036	22.29
543.381	21.79
543.726	21.56
544.071	21.86
544.415	22.32
544.76	22.56
545.105	22.67
545.449	22.74
545.794	22.81
546.138	22.88
546.483	23.09
546.827	23.24
547.171	23.3
547.516	23.28
547.86	23.16
548.204	23.23
548.548	23.07
548.892	22.82
549.236	22.95
549.58	23.3
549.924	23.4
550.268	23.63
550.612	23.89
550.956	23.99
551.3	24.04
551.643	24.19
551.987	23.96
552.33	24.09
552.674	24.06
553.017	24.17
553.361	24.16
553.704	23.98
554.048	24.2
554.391	23.92
554.734	23.85
555.077	23.67
555.42	23.99
555.764	24.13
556.107	24.28
556.45	24.28
556.793	24.3
557.135	24.7
557.478	24.37
557.821	24.58
558.164	24.72
558.507	24.47
558.849	24.69
559.192	24.52
559.534	24.52
559.877	24.81
560.219	24.82
560.562	24.74
560.904	24.74
561.246	24.74
561.589	24.84
561.931	24.96
562.273	24.85
562.615	24.65
562.957	25
563.299	24.76
563.641	24.81
563.983	24.97
564.325	24.97
564.667	25.13
565.008	24.92
565.35	25.3
565.692	25.07
566.033	25.05
566.375	24.75
566.716	25.09
567.058	25.01
567.399	25.21
567.741	25.25
568.082	25
568.423	24.64
568.764	24.67
569.105	25
569.447	25.06
569.788	25.31
570.129	25.32
570.47	25.7
570.811	25.64
571.151	25.3
571.492	25.23
571.833	25.22
572.174	25.55
572.514	25.58
572.855	25.53
573.195	25.5
573.536	25.37
573.876	25.27
574.217	25.23
574.557	25.43
574.898	25.58
575.238	25.45
575.578	25.72
575.918	25.75
576.258	25.98
576.598	25.8
576.938	25.6
577.278	25.59
577.618	25.7
577.958	25.88
578.298	26.12
578.638	26.13
578.977	25.98
579.317	26.01
579.657	26.05
579.996	26.12
580.336	26.06
580.675	26.34
581.014	26.64
581.354	26.41
581.693	26.44
582.032	26.58
582.372	26.66
582.711	26.55
583.05	26.55
583.389	26.79
583.728	26.49
584.067	26.93
584.406	26.77
584.745	26.61
585.083	26.71
585.422	26.59
585.761	26.85
586.1	26.95
586.438	27.03
586.777	26.87
587.115	26.85
587.454	27.04
587.792	26.86
588.13	26.96
588.469	27.02
588.807	26.96
589.145	26.92
589.483	27.16
589.821	27.07
590.159	27.23
590.497	27.15
590.835	26.95
591.173	26.92
591.511	27.24
591.849	27.07
592.187	27.24
592.524	27.15
592.862	27.25
593.2	26.85
593.537	27.16
593.875	27.4
594.212	27.58
594.55	27.61
594.887	27.35
595.224	27.62
595.561	27.32
595.899	27.42
596.236	27.44
596.573	27.8
596.91	27.39
597.247	27.61
597.584	27.46
597.921	27.51
598.258	27.62
598.594	27.61
598.931	27.37
599.268	27.21
599.604	27.14
599.941	27.58
600.277	27.4
600.614	27.99
600.95	27.86
601.287	28.16
601.623	28.31
601.959	28.03
602.296	28.04
602.632	28.11
602.968	28.29
603.304	28.24
603.64	28.22
603.976	28.14
604.312	28.17
604.648	27.79
604.984	28.06
605.319	28.13
605.655	27.89
605.991	28.04
606.326	28.01
606.662	27.83
606.998	27.74
607.333	27.77
607.668	28.05
608.004	28.12
608.339	28.2
608.674	28.37
609.01	28.65
609.345	28.78
609.68	28.76
610.015	28.97
610.35	28.92
610.685	28.57
611.02	28.48
611.355	28.58
611.689	28.05
612.024	28.34
612.359	28.5
612.694	28.74
613.028	28.63
613.363	28.88
613.697	28.8
614.032	28.84
614.366	29.17
614.7	29.18
615.035	29.18
615.369	28.93
615.703	29.08
616.037	29.27
616.371	29.2
616.705	29.21
617.039	29.28
617.373	29.26
617.707	29.16
618.041	29.15
618.375	29.39
618.709	29.32
619.042	29.26
619.376	29.51
619.71	29.43
620.043	29.54
620.377	29.77
620.71	29.39
621.043	29.53
621.377	29.67
621.71	29.6
622.043	29.34
622.376	29.43
622.709	29.56
623.043	29.91
623.376	29.53
623.709	29.97
624.041	29.73
624.374	29.76
624.707	29.64
625.04	29.91
625.373	29.97
625.705	30.03
626.038	30.09
626.37	29.9
626.703	30.17
627.035	29.9
627.368	30.2
627.7	30.18
628.032	30.1
628.365	29.77
628.697	29.86
629.029	29.66
629.361	29.82
629.693	30.08
630.025	30.2
630.357	30.1
630.689	30.26
631.021	30.34
631.353	30.56
631.684	30.42
632.016	30.31
632.348	30.12
632.679	30.38
633.011	30.3
633.342	30.63
633.674	30.71
634.005	30.41
634.336	30.36
634.668	30.85
634.999	30.64
635.33	30.93
635.661	30.85
635.992	30.66
636.323	30.62
636.654	30.05
636.985	30.61
637.316	30.41
637.647	30.84
637.977	30.83
638.308	30.44
638.639	30.92
638.969	31.02
639.3	30.8
639.63	31.15
639.961	31.41
640.291	30.71
640.622	31.31
640.952	30.74
641.282	31.22
641.612	30.9
641.943	31.18
642.273	31.55
642.603	31.21
642.933	30.74
643.263	31.55
643.592	31.52
643.922	31.45
644.252	31.45
644.582	31.33
644.911	31.76
645.241	31.12
645.571	31.26
645.9	31.6
646.23	31.02
646.559	31.29
646.888	32.06
647.218	31.25
647.547	31.52
647.876	32.1
648.205	31.54
648.534	31.5
648.863	31.85
649.192	31.97
649.521	32.08
649.85	31.73
650.179	31.72
650.508	31.93
650.837	31.62
651.165	32.02
651.494	31.23
651.822	31.99
652.151	32.1
652.479	32.13
652.808	32.1
653.136	32.08
653.465	32.37
653.793	32.25
654.121	32.36
654.449	32.45
654.777	31.9
655.105	32.11
655.433	32.08
655.761	32.54
656.089	32.51
656.417	32.18
656.745	32.75
657.073	32.37
657.4	32.26
657.728	32.62
658.056	32.98
658.383	32.65
658.711	32.61
659.038	32.42
659.365	32.6
659.693	32.55
660.02	32.27
660.347	32.8
660.674	32.31
661.001	32.57
661.329	32.16
661.656	32.03
661.982	32.28
662.309	32.3
662.636	32.91
662.963	32.98
663.29	33.17
663.616	33.15
663.943	33
664.27	33.18
664.596	32.7
664.923	32.74
665.249	33.19
665.576	33.07
665.902	32.73
666.228	32.67
666.554	33.32
666.881	33.42
667.207	32.53
667.533	33.37
667.859	32.58
668.185	32.53
668.511	33.12
668.837	33.09
669.162	33.49
669.488	32.99
669.814	33.04
670.139	33.54
670.465	33.63
670.791	33.58
671.116	33.16
671.442	33.12
671.767	32.75
672.092	33.47
672.418	33.82
672.743	33.27
673.068	33.33
673.393	33.78
673.718	33.44
674.043	33.3
674.368	33.7
674.693	33.31
675.018	33.85
675.343	34.1
675.667	33.87
675.992	33.61
676.317	33.4
676.641	34.27
676.966	33.33
677.29	33.26
677.615	34.78
677.939	33.87
678.264	33.55
678.588	34.09
678.912	34.54
679.236	33.71
679.56	33.89
679.885	34.03
680.209	33.77
680.532	33.97
680.856	33.27
681.18	34.39
681.504	34.19
681.828	33.99
682.152	34.3
682.475	34.05
682.799	33.82
683.122	33.89
683.446	34.19
683.769	34.24
684.093	34.42
684.416	34.83
684.739	33.84
685.062	34.5
685.386	34.08
685.709	34.27
686.032	34.02
686.355	34.34
686.678	34.41
687.001	34.15
687.324	33.97
687.646	34.34
687.969	34.34
688.292	34.69
688.614	34.66
688.937	34.58
689.26	35.14
689.582	33.97
689.904	34.31
690.227	34.51
690.549	33.97
690.871	34.96
691.194	34.34
691.516	34.98
691.838	35.42
692.16	35.71
692.482	34.68
692.804	34.54
693.126	35.1
693.448	35.5
693.769	34.9
694.091	34.54
694.413	34.39
694.735	35.5
695.056	34.93
695.378	35.79
695.699	34.94
696.021	35.02
696.342	34.19
696.663	35.1
696.984	35.99
697.306	34.79
697.627	34.5
697.948	35.14
698.269	35.12
698.59	35.23
698.911	34.68
699.232	35.25
699.553	35.24
699.873	34.77
700.194	35.7
700.515	35.27
700.835	35
701.156	35.24
701.477	35.67
701.797	35.46
702.117	34.48
702.438	36.08
702.758	35.4
703.078	35.83
703.398	35.84
703.719	36.13
704.039	35.6
704.359	35.02
704.679	35.41
704.999	36.39
705.319	34.84
705.638	35.63
705.958	35.64
706.278	35.52
706.597	34.98
706.917	36.71
707.237	34.96
707.556	35.55
707.876	36.53
708.195	35.83
708.514	36.02
708.834	36.1
709.153	36.75
709.472	36.21
709.791	36.08
710.11	35.85
710.429	36.83
710.748	36.73
711.067	35.63
711.386	37.1
711.705	36.66
712.023	36.49
712.342	35.89
712.661	35.76
712.979	36.97
713.298	36.02
713.616	36.37
713.935	35.77
714.253	36.61
714.572	36.09
714.89	36.2
715.208	36.49
715.526	35.89
715.844	36.58
716.162	35.66
716.48	36.29
716.798	36.47
717.116	36.03
717.434	35.76
717.752	36.33
718.069	37.49
718.387	35.87
718.705	36.63
719.022	36.99
719.34	37.32
719.657	35.78
719.975	36.66
720.292	36.88
720.609	37.23
720.927	36.12
721.244	37.14
721.561	36.35
721.878	38.4
722.195	37.17
722.512	35.93
722.829	36.77
723.146	36.97
723.463	36.03
723.779	36.85
724.096	36.55
724.413	37.54
724.729	37.74
725.046	35.85
725.362	37.42
725.679	36.93
725.995	36.38
726.311	36.25
726.628	37.48
726.944	36.75
727.26	37.49
727.576	36.91
727.892	36.01
728.208	38.05
728.524	35.58
728.84	37.78
729.156	36.81
729.472	37.07
729.787	36.57
730.103	37.56
730.419	38.41
730.734	36.29
731.05	37.11
731.365	36.84
731.681	37.31
731.996	37.63
732.311	37.83
732.626	37.24
732.942	36.7
733.257	37.43
733.572	36.64
733.887	37.85
734.202	37.5
734.517	37.27
734.832	37.94
735.146	38.17
735.461	37.05
735.776	37.85
736.091	36.2
736.405	37.01
736.72	38.77
737.034	37.9
737.349	37.76
737.663	36.69
737.977	38.02
738.292	35.64
738.606	37.55
738.92	35.62
739.234	38.35
739.548	38.29
739.862	37.02
740.176	36.31
740.49	36.73
740.804	36.57
741.117	37.1
741.431	38.65
741.745	38.6
742.058	38.55
742.372	39.82
742.685	39.4
742.999	38.96
743.312	39.32
743.626	38.8
743.939	38.45
744.252	37.93
744.565	37.71
744.878	38.26
745.191	37.05
745.505	38.98
745.817	39.4
746.13	37.87
746.443	39.19
746.756	38.5
747.069	39.26
747.381	40.02
747.694	39.05
748.007	38.54
748.319	37.18
748.632	37.32
748.944	38.19
749.256	39.6
749.569	38.86
749.881	39.72
750.193	39.23
750.505	40.3
750.817	38.96
751.129	37.88
751.441	38.55
751.753	37.44
752.065	38.22
752.377	38.37
752.689	40.03
753	38.34
753.312	40.43
753.624	38.54
753.935	38.68
754.247	39.47
754.558	38.9
754.869	38.57
755.181	40.14
755.492	38.07
755.803	39.22
756.114	37.39
756.425	38.46
756.736	38.14
757.047	36.73
757.358	39.19
757.669	38.81
757.98	40.16
758.291	37.34
758.601	39.84
758.912	38.96
759.223	39.02
759.533	39.32
759.844	39.64
760.154	38.92
760.464	37.9
760.775	39
761.085	39.42
761.395	39.75
761.705	39.69
762.016	40.15
762.326	42.11
762.636	37.29
762.945	38.32
763.255	39.7
763.565	38.8
763.875	40.81
764.185	38.65
764.494	39.54
764.804	39.65
765.113	39.77
765.423	39
765.732	39.65
766.042	39.13
766.351	39.65
766.66	39.41
766.97	38.81
767.279	40.26
767.588	39.23
767.897	39.98
768.206	39.89
768.515	40.42
768.824	38.64
769.133	40.58
769.441	39.23
769.75	40.28
770.059	40.46
770.367	40.45
770.676	38.61
770.984	42.11
771.293	39.52
771.601	40.8
771.91	40.5
772.218	41.35
772.526	41.36
772.834	38.77
773.142	40
773.45	38.68
773.758	39.91
774.066	41.21
774.374	38.8
774.682	40.91
774.99	41.22
775.298	42.41
775.605	38.29
775.913	40.13
776.22	39.66
776.528	39.95
776.835	39.59
777.143	39.03
777.45	41.81
777.757	38.83
778.065	41.54
778.372	42.92
778.679	37.11
778.986	40.06
779.293	42.55
779.6	40.47
779.907	38.34
780.214	40.29
780.52	41.7
780.827	41.45
781.134	43.94
781.44	42.82
781.747	39.19
782.053	41.75
782.36	39.15
782.666	37.75
782.973	38.62
783.279	39.76
783.585	39.16
783.891	39.38
784.197	38.36
784.503	42.45
784.809	38.37
785.115	38.15
785.421	42.14
785.727	41.71
786.033	40.43
786.339	43.51
786.644	39.82
786.95	42.28
787.255	39.43
787.561	40.81
787.866	41.69
788.172	41.04
788.477	42.21
788.782	44.29
789.088	41.86
789.393	41.38
789.698	41.02
790.003	42.58
790.308	39.31
790.613	40.41
790.918	38.89
791.223	39.1
791.527	40.36
791.832	41.11
792.137	38.76
792.441	42.52
792.746	37.16
793.05	39.36
793.355	43.88
793.659	38.25
793.963	39.58
794.268	41.15
794.572	38.71
794.876	37.24
795.18	41.2
795.484	37.76
795.788	37.54
796.092	41.22
796.396	42.63
796.7	45.96
797.004	37.66
797.307	42.94
797.611	39.81
797.915	41.88
798.218	38.3
798.522	43.87
798.825	38.5
799.128	39.77
799.432	40.33
799.735	45.72
800.038	43.02
800.341	40.65
800.644	42.85
800.947	39.99
801.25	39.78
801.553	40.44
801.856	40.6
802.159	41.86
802.462	41.41
802.764	43.12
803.067	41.01
803.37	38.9
803.672	44.11
803.975	37.6
804.277	41.12
804.579	41.87
804.882	40.62
805.184	37.91
805.486	42.74
805.788	42.77
806.09	45.05
806.392	41.38
806.694	43.64
806.996	42.81
807.298	42.67
807.6	42.79
807.902	41.8
808.203	39.29
808.505	42.1
808.807	40.25
809.108	41.51
809.409	47.21
809.711	45.17
810.012	38.77
810.313	41.5
810.615	42.34
810.916	40.33
811.217	41.86
811.518	41.88
811.819	40.49
812.12	44.39
812.421	37.79
812.722	45.13
813.023	41.96
813.323	45.1
813.624	40.43
813.925	41.24
814.225	39.86
814.526	45.07
814.826	43.42
815.126	41.94
815.427	43.34
815.727	43.55
816.027	40.15
816.327	46.46
816.627	41.19
816.927	35.14
817.227	40.13
817.527	36.25
817.827	47.86
818.127	41.55
818.427	42.96
818.727	42.59
819.026	46.13
819.326	41.13
819.625	43.52
819.925	49.86
820.224	43.41
820.524	41.16
820.823	38.21
821.122	40.07
821.421	41.98
821.72	42.16
822.019	44.54
822.318	40.48
822.617	40.52
822.916	43.02
823.215	40.49
823.514	37.1
823.813	43.8
824.111	42.06
824.41	42.36
824.709	42.21
825.007	42.53
825.306	43.13
825.604	43.45
825.902	44.94
826.201	43.15
826.499	44.03
826.797	43.75
827.095	43.5
827.393	43.73
827.691	41.59
827.989	44.25
828.287	42.68
828.585	45
828.882	44.78
829.18	44.65
829.478	44.43
829.775	45.52
830.073	42
830.37	42.8
830.668	43.09
830.965	43.27
831.263	44.75
831.56	44.91
831.857	43.63
832.154	42.81
832.451	45.74
832.748	43.12
833.045	39.44
833.342	44.31
833.639	42.19
833.936	43.92
834.232	46.07
834.529	40.66
834.826	46.22
835.122	47.13
835.419	45.16
835.715	47.07
836.012	45.65
836.308	45.87
836.604	46.18
836.901	42.68
837.197	42.45
837.493	42.77
837.789	42.36
838.085	47.35
838.381	44.1
838.677	41.13
838.972	45
839.268	46.2
839.564	42.52
839.86	46.84
840.155	41.03
840.451	40.71
840.746	44.48
841.042	43.78
841.337	41.47
841.632	37.71
841.928	34.99
842.223	41.94
842.518	46.97
842.813	46.34
843.108	54.51
843.403	52.09
843.698	44.97
843.993	40.79
844.287	52.84
844.582	48.08
844.877	42.48
845.171	43.98
845.466	46.83
845.761	48.82
846.055	43.15
846.349	44.66
846.644	46.09
846.938	36.64
847.232	41.74
847.526	34.98
847.82	39.09
848.114	22.33
848.408	41.02
848.702	67.67
848.996	52.49
849.29	39.46
849.584	45.11
849.877	48.76
850.171	29.52
850.465	47.82
850.758	46.54
851.052	57.3
851.345	36.04
851.638	52.01
851.932	34.57
852.225	41.86
852.518	53.08
852.811	40.05
853.104	31.96
853.397	21.18
853.69	48.81
853.983	15.21
854.276	41.8
854.569	37.05
854.861	44.6
855.154	40.57
855.447	56.97
855.739	38.32
856.032	44.24
856.324	41.12
856.616	31.95
856.909	28.33
857.201	38.76
857.493	38.82
857.785	53.65
858.077	30.26
858.369	38.1
858.661	58.24
858.953	34.61
859.245	52.71
859.537	52.86
859.829	50.38
860.12	36.67
860.412	44.73
860.703	33.06
860.995	47.36
861.286	31.91
861.578	49.46
861.869	31.41
862.16	55.45
862.452	66.91
862.743	46.82
863.034	38.07
863.325	33.49
863.616	42.38
863.907	39.39
864.198	26.19
864.488	40.09
864.779	41.44
865.07	31.61
865.36	48.32
865.651	40.32
865.941	48.47
866.232	29.03
866.522	26.15
866.813	40.44
867.103	45.81
867.393	40.18
867.683	33.42
867.973	44.92
868.263	31.6
868.553	15.36
868.843	52.12
869.133	36.72
869.423	59.22
869.713	24.76
870.002	32.21
870.292	26.28
870.582	22.49
870.871	44.57
871.161	25.37
871.45	40.15
871.739	33.86
872.029	21.09
872.318	22.42
872.607	49.27
872.896	31.08
873.185	27.78
873.474	24.15
873.763	30.37
874.052	21.3
874.341	50.09
874.63	28.99
874.918	30.96
875.207	53.32
875.496	57.38
875.784	49.2
876.073	64.08
876.361	45.89
876.649	24.02
876.938	56.66
877.226	48.76
877.514	31.58
877.802	49.7
878.09	48
878.378	58.02
878.666	44.35
878.954	39.24
879.242	12.9
879.53	23.27
879.817	59.33
880.105	33.46
880.392	62.2
880.68	38.96
880.967	35.78
881.255	58.2
881.542	63.33
881.83	55.5
882.117	64.24
882.404	63.85
882.691	38.1
882.978	34.82
883.265	40.16
883.552	48.72
883.839	46.75
884.126	59.95
884.413	53.21
884.699	40.45
884.986	52.06
885.273	50.85
885.559	50.85
885.846	50.85
