Data from 20-4_forehead_Reflection__3__88.txt Node

Date: Fri Nov 11 20:49:06 CST 2022
User: ToomeyLab
Spectrometer: FLMS14357
Trigger mode: 0
Integration Time (sec): 1.000000E-2
Scans to average: 100
Electric dark correction enabled: true
Nonlinearity correction enabled: false
Boxcar width: 0
XAxis mode: Wavelengths
Number of Pixels in Spectrum: 2048
>>>>>Begin Spectral Data<<<<<
189.047	210.69
189.435	210.69
189.823	210.69
190.211	-6.33
190.599	-13.12
190.987	-1.69
191.375	245.47
191.763	-223.88
192.151	-1253.33
192.538	26.87
192.926	112.47
193.314	72.34
193.702	114.87
194.089	4.49
194.477	99.52
194.864	32.06
195.252	528.37
195.639	208.64
196.027	-38.82
196.414	84.33
196.801	278.92
197.189	547.68
197.576	-434.6
197.963	-59.89
198.351	-14.32
198.738	-0.47
199.125	-9.88
199.512	23.32
199.899	-15.27
200.286	25.83
200.673	-15.25
201.06	9.13
201.447	21.58
201.833	14.57
202.22	-32.94
202.607	63.86
202.994	51.7
203.38	15.33
203.767	21.86
204.154	5.61
204.54	-11.88
204.927	25.68
205.313	24.38
205.699	5.1
206.086	36.87
206.472	9.17
206.858	16.62
207.245	31.64
207.631	19.25
208.017	11.53
208.403	4.98
208.789	-4.04
209.175	16.53
209.561	48.41
209.947	5.85
210.333	1.41
210.719	54.77
211.105	50.3
211.491	42.11
211.876	9.17
212.262	32.58
212.648	-6.17
213.034	-39.16
213.419	11.62
213.805	-6.55
214.19	23.61
214.576	1.36
214.961	-30.78
215.346	-29.27
215.732	-16.31
216.117	22.69
216.502	-5.35
216.888	-7.06
217.273	4.78
217.658	-19.08
218.043	36.97
218.428	13.22
218.813	-3.58
219.198	-1.27
219.583	-0.41
219.968	-1.35
220.353	-9.4
220.738	-6.01
221.122	6.82
221.507	-5.51
221.892	-7.05
222.276	11.16
222.661	17.26
223.046	-16.97
223.43	-1.05
223.815	6.1
224.199	4.26
224.583	-4.11
224.968	-4.07
225.352	1.17
225.736	1.3
226.121	0.78
226.505	1.42
226.889	-0.51
227.273	0.28
227.657	-4.52
228.041	-1.29
228.425	-2.11
228.809	2.07
229.193	4.61
229.577	3.09
229.961	1.78
230.344	1.64
230.728	0.51
231.112	0.89
231.495	2.3
231.879	0.06
232.263	2.6
232.646	-0.06
233.03	1.24
233.413	3.02
233.797	2.48
234.18	-0.09
234.563	2.72
234.946	1.84
235.33	2.48
235.713	1.5
236.096	2.1
236.479	3.93
236.862	2.26
237.245	1.6
237.628	1.42
238.011	1.63
238.394	1.64
238.777	2.71
239.16	5.08
239.543	0.87
239.925	3.03
240.308	2.43
240.691	3.19
241.073	2.41
241.456	1.39
241.838	4.14
242.221	2.66
242.603	2.17
242.986	2.71
243.368	2.53
243.75	2.75
244.133	2.3
244.515	2.46
244.897	2.91
245.279	1.95
245.661	1.9
246.043	2.87
246.425	2.74
246.807	2.2
247.189	2.2
247.571	2.51
247.953	1.94
248.335	2.58
248.717	2.73
249.098	2.8
249.48	2.31
249.862	2.76
250.243	2.51
250.625	2.77
251.006	3.57
251.388	2.81
251.769	1.84
252.151	1.91
252.532	2.91
252.913	2.94
253.295	2.08
253.676	1.71
254.057	2.48
254.438	2.42
254.819	2.83
255.2	3.19
255.581	2.07
255.962	2.15
256.343	3.08
256.724	1.95
257.105	1.86
257.486	3.38
257.867	3.15
258.247	1.88
258.628	2.05
259.009	2.01
259.389	2.09
259.77	3.34
260.15	2.58
260.531	2.31
260.911	2.44
261.292	2.69
261.672	2.25
262.052	2.23
262.432	2.68
262.813	2.59
263.193	2.64
263.573	2
263.953	3.34
264.333	2.65
264.713	2.68
265.093	2.57
265.473	2.16
265.853	2.76
266.233	2.53
266.612	1.81
266.992	2.63
267.372	3.23
267.752	2.57
268.131	2.18
268.511	2.25
268.89	2.34
269.27	2.74
269.649	1.81
270.029	2.82
270.408	2.88
270.787	2.22
271.167	2.04
271.546	2.21
271.925	2.38
272.304	1.88
272.683	2.42
273.062	2.03
273.441	2.15
273.82	2.26
274.199	2.17
274.578	1.82
274.957	2.51
275.336	2.47
275.715	2.67
276.093	2.08
276.472	1.49
276.851	2.48
277.229	2.38
277.608	2.42
277.986	2.52
278.365	2.21
278.743	2.07
279.122	2.47
279.5	2.53
279.878	2.61
280.257	3.18
280.635	2.07
281.013	2.12
281.391	2.24
281.769	2.13
282.147	2.37
282.525	1.53
282.903	1.94
283.281	2.11
283.659	2.43
284.037	2.49
284.415	2.19
284.792	2.22
285.17	2.6
285.548	1.8
285.925	2.03
286.303	2.07
286.68	2.86
287.058	2.63
287.435	2.57
287.813	2.42
288.19	2.02
288.567	2.06
288.945	2.57
289.322	3.18
289.699	2.73
290.076	2.67
290.453	2.52
290.83	2.23
291.207	2.64
291.584	2.87
291.961	2.26
292.338	2.56
292.715	2.79
293.092	2.73
293.469	2.25
293.845	2.55
294.222	2.96
294.599	2.58
294.975	2.91
295.352	2.83
295.728	2.52
296.105	2.85
296.481	2.6
296.858	2.44
297.234	2.73
297.61	2.3
297.986	3.08
298.363	3.09
298.739	2.86
299.115	3.05
299.491	3.2
299.867	2.79
300.243	2.6
300.619	3.11
300.995	3.2
301.371	3.78
301.746	3.52
302.122	3.01
302.498	3.4
302.874	3.05
303.249	3.17
303.625	3.34
304	2.79
304.376	2.99
304.751	3.12
305.127	3.61
305.502	3.85
305.878	3.24
306.253	3.46
306.628	3.23
307.003	3.8
307.378	3.25
307.754	4.27
308.129	4.25
308.504	3.68
308.879	3.41
309.254	4
309.629	3.82
310.003	3.88
310.378	3.64
310.753	3.67
311.128	4.08
311.502	4.26
311.877	3.71
312.252	4.1
312.626	4.07
313.001	3.92
313.375	4.05
313.75	3.95
314.124	3.99
314.498	4.08
314.873	4.33
315.247	4.41
315.621	4.41
315.995	4.66
316.369	4.57
316.743	3.97
317.117	4.6
317.491	5.09
317.865	4.72
318.239	4.47
318.613	4.99
318.987	4.63
319.361	4.19
319.734	5.04
320.108	4.43
320.482	5.3
320.855	4.28
321.229	4.86
321.602	4.44
321.976	4.86
322.349	5
322.723	4.82
323.096	4.89
323.469	4.94
323.843	4.69
324.216	4.71
324.589	5.42
324.962	5.13
325.335	5.14
325.708	5.26
326.081	5.43
326.454	5.06
326.827	4.97
327.2	5.59
327.573	5.98
327.945	5.39
328.318	5.06
328.691	5.53
329.063	5.45
329.436	5.29
329.809	5.05
330.181	5.69
330.553	4.65
330.926	5.42
331.298	4.95
331.671	4.87
332.043	5.02
332.415	5.49
332.787	6.28
333.159	5.39
333.532	5.69
333.904	5.96
334.276	5.86
334.648	5.56
335.02	5.58
335.391	5.88
335.763	5.52
336.135	5.36
336.507	5.66
336.879	6.19
337.25	5.95
337.622	5.98
337.993	5.96
338.365	6.17
338.736	6.23
339.108	5.78
339.479	6.18
339.851	5.96
340.222	5.94
340.593	6.17
340.964	6.02
341.336	6.17
341.707	6.08
342.078	6.05
342.449	6.16
342.82	6.24
343.191	6.47
343.562	6.22
343.933	5.97
344.303	6.11
344.674	5.84
345.045	6.06
345.416	6.54
345.786	5.88
346.157	6.2
346.527	5.95
346.898	5.68
347.268	6.03
347.639	6.39
348.009	6.37
348.38	6.49
348.75	6.41
349.12	6.75
349.49	6.53
349.861	6.17
350.231	6.44
350.601	6.67
350.971	6.49
351.341	6.96
351.711	6.46
352.081	6.64
352.45	6.46
352.82	6.26
353.19	6.48
353.56	6.39
353.929	6.59
354.299	6.38
354.669	6.53
355.038	6.97
355.408	6.63
355.777	6.92
356.147	6.82
356.516	6.78
356.885	6.96
357.254	6.47
357.624	6.09
357.993	6.57
358.362	7.02
358.731	6.26
359.1	6.75
359.469	6.7
359.838	6.8
360.207	7.01
360.576	6.87
360.945	7.08
361.314	6.75
361.682	6.96
362.051	7.26
362.42	6.93
362.788	6.91
363.157	6.99
363.525	6.84
363.894	7
364.262	7.22
364.631	7.18
364.999	7.21
365.367	7.27
365.735	7.24
366.104	7.19
366.472	7.09
366.84	7.11
367.208	7.29
367.576	7.62
367.944	7.28
368.312	7.21
368.68	7.22
369.048	7.64
369.416	7.06
369.783	7.49
370.151	7.6
370.519	7.45
370.886	7.43
371.254	7.87
371.621	7.38
371.989	7.58
372.356	7.76
372.724	7.47
373.091	7.74
373.458	7.37
373.826	7.41
374.193	7.62
374.56	7.5
374.927	7.38
375.294	7.71
375.661	8.25
376.028	7.54
376.395	7.7
376.762	8.02
377.129	7.94
377.496	7.88
377.863	8.14
378.229	7.87
378.596	7.68
378.963	7.6
379.329	7.88
379.696	8.01
380.062	7.88
380.429	8.06
380.795	8.41
381.161	8.42
381.528	7.77
381.894	8.01
382.26	8.31
382.626	8.36
382.993	8.1
383.359	8.29
383.725	8.01
384.091	7.95
384.457	8.22
384.823	8.13
385.188	8.25
385.554	8.32
385.92	7.84
386.286	8.12
386.651	8.36
387.017	8.16
387.383	8.39
387.748	8.19
388.114	8.12
388.479	8.35
388.845	8.11
389.21	8.36
389.575	8.52
389.94	8.24
390.306	8.51
390.671	8.55
391.036	8.64
391.401	8.55
391.766	8.45
392.131	8.55
392.496	8.57
392.861	8.64
393.226	8.49
393.591	8.51
393.956	8.79
394.32	8.5
394.685	8.64
395.05	8.97
395.414	8.53
395.779	8.8
396.143	8.73
396.508	8.79
396.872	8.86
397.236	8.64
397.601	8.79
397.965	8.92
398.329	8.81
398.694	8.9
399.058	8.85
399.422	8.93
399.786	8.94
400.15	8.95
400.514	8.84
400.878	8.96
401.242	8.84
401.605	9.19
401.969	8.97
402.333	8.79
402.697	8.98
403.06	9.25
403.424	8.95
403.787	8.97
404.151	9.16
404.514	8.93
404.878	8.98
405.241	9.08
405.604	8.88
405.968	9.11
406.331	8.87
406.694	8.95
407.057	9.21
407.42	9.12
407.783	9.21
408.146	9.44
408.509	9.37
408.872	9.3
409.235	9.17
409.598	9.48
409.961	9.46
410.323	9.33
410.686	9.38
411.049	9.22
411.411	9.45
411.774	9.31
412.136	9.24
412.499	9.42
412.861	9.38
413.223	9.5
413.586	9.51
413.948	9.58
414.31	9.62
414.672	9.4
415.035	9.61
415.397	9.67
415.759	9.64
416.121	9.59
416.483	9.34
416.845	9.49
417.206	9.54
417.568	9.52
417.93	9.63
418.292	9.54
418.653	9.68
419.015	9.68
419.377	9.53
419.738	9.68
420.1	9.6
420.461	9.71
420.822	9.62
421.184	9.73
421.545	9.71
421.906	9.7
422.267	9.52
422.629	9.52
422.99	9.63
423.351	9.61
423.712	9.7
424.073	9.85
424.434	9.8
424.795	9.87
425.155	9.67
425.516	9.85
425.877	9.82
426.238	9.81
426.598	9.9
426.959	9.93
427.32	10.1
427.68	10.07
428.041	10.17
428.401	9.91
428.761	10.35
429.122	10.15
429.482	10.21
429.842	10.12
430.202	10.31
430.563	10.39
430.923	10.58
431.283	10.27
431.643	10.29
432.003	10.47
432.363	10.41
432.722	10.56
433.082	10.56
433.442	10.7
433.802	10.62
434.161	10.45
434.521	10.48
434.881	10.61
435.24	10.57
435.6	10.47
435.959	10.53
436.319	10.61
436.678	10.71
437.037	10.67
437.396	10.83
437.756	10.69
438.115	10.77
438.474	10.71
438.833	10.88
439.192	10.85
439.551	10.82
439.91	10.96
440.269	10.93
440.628	10.94
440.987	10.88
441.345	10.91
441.704	10.88
442.063	10.87
442.421	10.92
442.78	10.88
443.138	11
443.497	10.92
443.855	11.02
444.214	11.02
444.572	11.25
444.93	11.16
445.288	11.17
445.647	11.14
446.005	11.3
446.363	11.25
446.721	11.24
447.079	11.27
447.437	11.21
447.795	11.1
448.153	11.12
448.51	11.05
448.868	11.24
449.226	11.15
449.584	11.3
449.941	11.35
450.299	11.28
450.656	11.48
451.014	11.52
451.371	11.49
451.729	11.54
452.086	11.64
452.443	11.62
452.801	11.72
453.158	11.48
453.515	11.77
453.872	11.63
454.229	11.61
454.586	11.63
454.943	11.73
455.3	11.82
455.657	11.95
456.014	11.83
456.371	11.97
456.727	12.02
457.084	11.75
457.441	12.17
457.797	12.09
458.154	11.85
458.51	12.22
458.867	11.94
459.223	12.06
459.58	12.1
459.936	12.03
460.292	12.07
460.648	12.01
461.005	11.94
461.361	11.97
461.717	11.93
462.073	12
462.429	11.99
462.785	12.08
463.141	12.09
463.496	12.16
463.852	12.38
464.208	12.18
464.564	12.34
464.919	12.3
465.275	12.26
465.631	12.31
465.986	12.55
466.342	12.5
466.697	12.35
467.052	12.53
467.408	12.45
467.763	12.46
468.118	12.66
468.473	12.37
468.829	12.55
469.184	12.72
469.539	12.75
469.894	12.74
470.249	12.78
470.603	12.79
470.958	12.86
471.313	13.01
471.668	12.89
472.023	12.65
472.377	13.04
472.732	12.79
473.086	12.86
473.441	12.85
473.795	12.81
474.15	13.03
474.504	12.97
474.859	12.9
475.213	13.15
475.567	13.01
475.921	13.06
476.275	13.11
476.63	13.09
476.984	13.11
477.338	13.05
477.692	13.02
478.045	13.17
478.399	13.27
478.753	13.11
479.107	13.06
479.461	13.13
479.814	13.23
480.168	13.3
480.521	13.31
480.875	13.25
481.228	13.38
481.582	13.28
481.935	13.31
482.289	13.31
482.642	13.5
482.995	13.3
483.348	13.26
483.701	13.38
484.055	13.23
484.408	13.28
484.761	13
485.114	12.8
485.466	12.7
485.819	12.71
486.172	12.84
486.525	12.97
486.878	13.11
487.23	13.15
487.583	13.3
487.936	13.3
488.288	13.28
488.641	13.18
488.993	13.19
489.345	13.13
489.698	13.1
490.05	13.19
490.402	13.3
490.754	13.46
491.107	13.49
491.459	13.69
491.811	13.77
492.163	13.69
492.515	13.73
492.866	13.53
493.218	13.36
493.57	13.45
493.922	13.51
494.274	13.69
494.625	13.87
494.977	14.13
495.328	14.05
495.68	14.16
496.031	14.15
496.383	14.31
496.734	14.29
497.086	14.45
497.437	14.41
497.788	14.32
498.139	14.35
498.49	14.33
498.842	14.21
499.193	14.5
499.544	14.48
499.894	14.39
500.245	14.52
500.596	14.49
500.947	14.58
501.298	14.57
501.648	14.69
501.999	14.66
502.35	14.95
502.7	14.77
503.051	14.79
503.401	14.77
503.752	14.79
504.102	14.9
504.452	14.86
504.803	15.05
505.153	14.82
505.503	15.04
505.853	14.97
506.203	14.97
506.553	14.88
506.903	15.12
507.253	15.07
507.603	15.03
507.953	15.25
508.303	15.07
508.652	15.2
509.002	15.2
509.352	15.11
509.701	15.11
510.051	15.1
510.4	15.23
510.75	15.04
511.099	15.12
511.449	15.22
511.798	15.12
512.147	15.24
512.496	15.21
512.846	15.38
513.195	15.4
513.544	15.29
513.893	15.24
514.242	15.42
514.591	15.47
514.939	15.49
515.288	15.51
515.637	15.63
515.986	15.64
516.334	15.54
516.683	15.61
517.032	15.78
517.38	15.8
517.729	15.76
518.077	15.85
518.426	15.71
518.774	15.81
519.122	15.89
519.47	15.74
519.819	15.7
520.167	15.63
520.515	15.67
520.863	15.76
521.211	15.73
521.559	15.75
521.907	15.86
522.255	15.85
522.602	16.05
522.95	16.14
523.298	16.33
523.645	16.32
523.993	16.33
524.341	16.2
524.688	16.25
525.036	16.32
525.383	16.33
525.73	16.29
526.078	16.32
526.425	16.31
526.772	16.19
527.119	16.06
527.466	16.14
527.814	16.21
528.161	16.14
528.508	16.23
528.854	16.17
529.201	16.18
529.548	16.04
529.895	15.87
530.242	15.81
530.588	15.86
530.935	15.93
531.282	16.06
531.628	16.22
531.975	16.33
532.321	16.37
532.667	16.59
533.014	16.63
533.36	16.69
533.706	16.73
534.052	16.65
534.399	16.52
534.745	16.46
535.091	16.38
535.437	16.44
535.783	16.56
536.129	16.76
536.474	16.81
536.82	16.87
537.166	16.99
537.512	17.06
537.857	17
538.203	16.9
538.549	16.93
538.894	16.91
539.239	17.17
539.585	17.27
539.93	17.37
540.276	17.62
540.621	17.5
540.966	17.64
541.311	17.6
541.656	17.45
542.001	17.42
542.346	17.38
542.691	17.08
543.036	16.91
543.381	16.97
543.726	17.05
544.071	17.19
544.415	17.37
544.76	17.47
545.105	17.54
545.449	17.44
545.794	17.7
546.138	17.72
546.483	17.81
546.827	17.8
547.171	18.02
547.516	17.76
547.86	17.84
548.204	18.02
548.548	17.9
548.892	18.05
549.236	18.05
549.58	18.14
549.924	18.34
550.268	18.46
550.612	18.38
550.956	18.6
551.3	18.46
551.643	18.35
551.987	18.57
552.33	18.6
552.674	18.74
553.017	18.69
553.361	18.62
553.704	18.68
554.048	18.75
554.391	18.88
554.734	18.82
555.077	18.89
555.42	18.95
555.764	19
556.107	18.93
556.45	19.21
556.793	19.05
557.135	19.22
557.478	19.05
557.821	19.26
558.164	19.12
558.507	19.26
558.849	19.32
559.192	19.32
559.534	19.47
559.877	19.42
560.219	19.38
560.562	19.37
560.904	19.5
561.246	19.41
561.589	19.55
561.931	19.51
562.273	19.62
562.615	19.5
562.957	19.38
563.299	19.35
563.641	19.52
563.983	19.67
564.325	19.75
564.667	19.79
565.008	19.92
565.35	19.8
565.692	19.73
566.033	19.85
566.375	20.09
566.716	19.99
567.058	19.93
567.399	19.89
567.741	19.97
568.082	19.99
568.423	19.93
568.764	20.01
569.105	20.1
569.447	20.12
569.788	20.37
570.129	20.09
570.47	20.21
570.811	20.34
571.151	20.55
571.492	20.35
571.833	20.26
572.174	20.48
572.514	20.52
572.855	20.36
573.195	20.42
573.536	20.38
573.876	20.54
574.217	20.71
574.557	20.51
574.898	20.37
575.238	20.69
575.578	20.69
575.918	20.81
576.258	20.68
576.598	20.73
576.938	20.72
577.278	20.69
577.618	20.83
577.958	20.94
578.298	21.06
578.638	20.78
578.977	21.2
579.317	21.14
579.657	21.28
579.996	21.19
580.336	20.97
580.675	21.24
581.014	21.39
581.354	21.19
581.693	21.49
582.032	21.47
582.372	21.45
582.711	21.54
583.05	21.48
583.389	21.54
583.728	21.31
584.067	21.57
584.406	21.77
584.745	21.7
585.083	21.55
585.422	21.68
585.761	21.67
586.1	21.74
586.438	21.69
586.777	21.97
587.115	21.71
587.454	21.79
587.792	22.14
588.13	22.12
588.469	21.89
588.807	22.06
589.145	21.94
589.483	22.11
589.821	22.11
590.159	22.02
590.497	22.48
590.835	22.11
591.173	22.07
591.511	21.99
591.849	22.18
592.187	22.19
592.524	22.23
592.862	22.2
593.2	22.34
593.537	22.71
593.875	22.69
594.212	22.5
594.55	22.64
594.887	22.6
595.224	22.66
595.561	22.8
595.899	22.51
596.236	22.87
596.573	22.61
596.91	23.07
597.247	22.76
597.584	22.82
597.921	22.92
598.258	22.57
598.594	22.63
598.931	22.74
599.268	22.89
599.604	22.89
599.941	23.06
600.277	23.06
600.614	23.23
600.95	22.87
601.287	23.14
601.623	23.48
601.959	23.28
602.296	22.97
602.632	23.52
602.968	23.38
603.304	23.23
603.64	23.56
603.976	23.37
604.312	23.47
604.648	23.27
604.984	23.47
605.319	23.26
605.655	23.24
605.991	23.46
606.326	23.62
606.662	23.55
606.998	23.39
607.333	23.52
607.668	23.46
608.004	23.89
608.339	23.73
608.674	23.88
609.01	23.99
609.345	23.85
609.68	23.91
610.015	24
610.35	23.93
610.685	24.21
611.02	23.75
611.355	23.89
611.689	23.88
612.024	23.78
612.359	23.96
612.694	23.93
613.028	24.06
613.363	24.24
613.697	24.61
614.032	24.47
614.366	24.28
614.7	24.2
615.035	24.55
615.369	24.57
615.703	24.72
616.037	24.53
616.371	24.6
616.705	24.89
617.039	24.83
617.373	24.68
617.707	24.72
618.041	24.99
618.375	24.49
618.709	25.17
619.042	25.21
619.376	24.87
619.71	25.12
620.043	25.15
620.377	24.69
620.71	24.66
621.043	24.91
621.377	25.33
621.71	25.12
622.043	25.04
622.376	25.05
622.709	24.85
623.043	25.39
623.376	25.03
623.709	25.16
624.041	25.48
624.374	25.17
624.707	25.34
625.04	25.22
625.373	25.41
625.705	25.38
626.038	25.92
626.37	25.65
626.703	25.37
627.035	25.55
627.368	25.61
627.7	25.26
628.032	25.7
628.365	25.71
628.697	25.45
629.029	25.73
629.361	25.8
629.693	25.6
630.025	26.14
630.357	26
630.689	26.25
631.021	26.15
631.353	26.43
631.684	25.81
632.016	26.08
632.348	26.11
632.679	26.23
633.011	26.25
633.342	26.34
633.674	26.16
634.005	26.44
634.336	26.16
634.668	26.46
634.999	26.56
635.33	26.74
635.661	26.35
635.992	26.61
636.323	26.57
636.654	26.47
636.985	26.75
637.316	26.44
637.647	26.83
637.977	26.9
638.308	26.9
638.639	26.71
638.969	26.62
639.3	26.71
639.63	26.94
639.961	26.66
640.291	27.2
640.622	27.25
640.952	26.78
641.282	26.94
641.612	26.86
641.943	26.94
642.273	27.09
642.603	27.17
642.933	27.57
643.263	27.14
643.592	27.52
643.922	27.27
644.252	27.36
644.582	27.72
644.911	27.2
645.241	27.63
645.571	27.28
645.9	27.63
646.23	28.17
646.559	27.97
646.888	27.9
647.218	27.58
647.547	27.53
647.876	27.62
648.205	27.65
648.534	28.05
648.863	27.5
649.192	27.37
649.521	27.54
649.85	27.68
650.179	27.82
650.508	27.65
650.837	28.16
651.165	28.09
651.494	28.21
651.822	28.02
652.151	28.06
652.479	27.97
652.808	28.16
653.136	28.14
653.465	28.33
653.793	28.49
654.121	28.04
654.449	27.89
654.777	28.65
655.105	28.13
655.433	28.4
655.761	28.5
656.089	28.55
656.417	28.21
656.745	28.74
657.073	28.64
657.4	28.71
657.728	28.49
658.056	28.35
658.383	28.64
658.711	28.22
659.038	28.52
659.365	28.21
659.693	28.83
660.02	29.31
660.347	28.78
660.674	28.85
661.001	29.18
661.329	28.63
661.656	28.84
661.982	29.08
662.309	28.61
662.636	29.37
662.963	28.91
663.29	29.18
663.616	29.01
663.943	28.86
664.27	29.03
664.596	29.42
664.923	29.6
665.249	29.52
665.576	29.32
665.902	29.73
666.228	29.59
666.554	29.3
666.881	29.36
667.207	29.42
667.533	29.36
667.859	30.39
668.185	29.84
668.511	29.34
668.837	29.46
669.162	29.89
669.488	29.8
669.814	29.58
670.139	29.88
670.465	29.46
670.791	29.63
671.116	29.72
671.442	29.62
671.767	29.89
672.092	30.29
672.418	30.13
672.743	30.1
673.068	30.33
673.393	31.07
673.718	29.57
674.043	30.46
674.368	30.27
674.693	30.36
675.018	30.88
675.343	29.69
675.667	30.93
675.992	31.52
676.317	30.22
676.641	30.41
676.966	30.1
677.29	30.27
677.615	30.01
677.939	30.58
678.264	30.75
678.588	30.56
678.912	30.21
679.236	30.32
679.56	30.57
679.885	30.66
680.209	31.09
680.532	30.88
680.856	31.25
681.18	31.08
681.504	30.13
681.828	30.7
682.152	30.98
682.475	31.18
682.799	30.81
683.122	30.84
683.446	31.21
683.769	30.64
684.093	31.06
684.416	31.25
684.739	30.84
685.062	31.09
685.386	31.3
685.709	31.29
686.032	30.93
686.355	31.39
686.678	31.69
687.001	30.74
687.324	32.03
687.646	31.29
687.969	32.06
688.292	32.11
688.614	31.83
688.937	31.06
689.26	30.3
689.582	31.53
689.904	31.83
690.227	31.02
690.549	31.69
690.871	32.01
691.194	31.24
691.516	31.39
691.838	31.71
692.16	32.41
692.482	31.7
692.804	31.87
693.126	31.38
693.448	31.62
693.769	32.57
694.091	32.28
694.413	32.16
694.735	31.54
695.056	31.77
695.378	32.27
695.699	31.97
696.021	31.96
696.342	31.66
696.663	32.05
696.984	31.98
697.306	32.04
697.627	31.61
697.948	32.65
698.269	32.63
698.59	31.86
698.911	32.07
699.232	32.06
699.553	32.54
699.873	32.88
700.194	32.69
700.515	31.99
700.835	32.37
701.156	32.92
701.477	32.71
701.797	32.22
702.117	32.31
702.438	32.96
702.758	32.78
703.078	32.31
703.398	33.61
703.719	32.61
704.039	33.44
704.359	32.81
704.679	33.3
704.999	32.69
705.319	32.17
705.638	32.47
705.958	32.61
706.278	33.1
706.597	33.51
706.917	32.94
707.237	32.86
707.556	32.17
707.876	33.37
708.195	33.36
708.514	34.2
708.834	33.25
709.153	32.81
709.472	33.01
709.791	33.39
710.11	32.5
710.429	33.45
710.748	32.59
711.067	33.13
711.386	32.84
711.705	33.45
712.023	34.1
712.342	33.4
712.661	33.58
712.979	33.17
713.298	34.14
713.616	33.72
713.935	33.03
714.253	33.54
714.572	33.26
714.89	33.43
715.208	33.59
715.526	34.33
715.844	33.94
716.162	33.43
716.48	34.09
716.798	34.02
717.116	33.58
717.434	33.81
717.752	32.82
718.069	34.17
718.387	33.53
718.705	34.44
719.022	33.85
719.34	33.49
719.657	34.18
719.975	34.34
720.292	33.61
720.609	34.2
720.927	33.14
721.244	35.36
721.561	34.69
721.878	34.78
722.195	35.18
722.512	33.29
722.829	34.44
723.146	34.01
723.463	32.83
723.779	34.3
724.096	35.29
724.413	34.81
724.729	33.41
725.046	35.7
725.362	35.88
725.679	35.62
725.995	33.89
726.311	34.49
726.628	33.41
726.944	34.31
727.26	34.27
727.576	35.03
727.892	35.97
728.208	34.72
728.524	34.58
728.84	34.73
729.156	34.04
729.472	34.75
729.787	34.69
730.103	34.36
730.419	35.91
730.734	35.42
731.05	34.28
731.365	35.82
731.681	33.75
731.996	34.9
732.311	34
732.626	34.76
732.942	35.33
733.257	34.36
733.572	35.16
733.887	34.82
734.202	35.03
734.517	35.1
734.832	35.83
735.146	34.12
735.461	34.63
735.776	36.56
736.091	35.37
736.405	35.43
736.72	34.03
737.034	34.16
737.349	35.6
737.663	34.51
737.977	36.04
738.292	34.81
738.606	35
738.92	36.62
739.234	36.03
739.548	36.16
739.862	35.68
740.176	36.31
740.49	35.54
740.804	35.78
741.117	35.02
741.431	36.98
741.745	36.1
742.058	35.5
742.372	35.36
742.685	35.81
742.999	35.54
743.312	36.11
743.626	35.29
743.939	35.99
744.252	35.55
744.565	35.91
744.878	37.14
745.191	35.87
745.505	36.74
745.817	35.55
746.13	36.9
746.443	36.03
746.756	35.83
747.069	34.51
747.381	38.09
747.694	35.62
748.007	36.66
748.319	35.4
748.632	36.67
748.944	36.16
749.256	36.99
749.569	35.62
749.881	36.55
750.193	36.03
750.505	37.72
750.817	35.54
751.129	37.13
751.441	34.88
751.753	37.65
752.065	36.09
752.377	36.71
752.689	35.67
753	35.67
753.312	36.28
753.624	35.83
753.935	36.92
754.247	36.77
754.558	37.15
754.869	37.65
755.181	36.31
755.492	37.32
755.803	34.58
756.114	37.55
756.425	37.51
756.736	36.84
757.047	36.1
757.358	35.73
757.669	36.13
757.98	37.58
758.291	36.3
758.601	37.78
758.912	37.85
759.223	37.62
759.533	37.01
759.844	36.59
760.154	36.74
760.464	38.16
760.775	35.98
761.085	37.07
761.395	35.99
761.705	37.37
762.016	37.68
762.326	38.41
762.636	36.16
762.945	37.28
763.255	38.03
763.565	36.61
763.875	37.63
764.185	38.74
764.494	37.54
764.804	36.32
765.113	37.59
765.423	37.66
765.732	37.79
766.042	38.46
766.351	37.59
766.66	36.21
766.97	36.54
767.279	36.73
767.588	39.05
767.897	37.22
768.206	38.42
768.515	37.62
768.824	36.26
769.133	36.72
769.441	37.61
769.75	39.13
770.059	36.61
770.367	37.05
770.676	36.8
770.984	36.52
771.293	35.92
771.601	38.26
771.91	36.66
772.218	37.75
772.526	38
772.834	38.69
773.142	37.49
773.45	38.2
773.758	39.53
774.066	38.12
774.374	38.85
774.682	38.67
774.99	38.2
775.298	39.01
775.605	36.37
775.913	38.9
776.22	38.68
776.528	39.95
776.835	39.6
777.143	37.39
777.45	38.75
777.757	36.76
778.065	34.17
778.372	37.67
778.679	38.94
778.986	38.8
779.293	38.18
779.6	36.11
779.907	35.53
780.214	35.7
780.52	40
780.827	38.12
781.134	40.66
781.44	39.49
781.747	39.32
782.053	41.62
782.36	39.23
782.666	36.68
782.973	35.78
783.279	39.82
783.585	35.47
783.891	37.71
784.197	40.68
784.503	41.99
784.809	39.42
785.115	42.6
785.421	38.55
785.727	40.39
786.033	41.88
786.339	36.54
786.644	37.78
786.95	35.74
787.255	38.27
787.561	36.24
787.866	35.28
788.172	38.74
788.477	38.99
788.782	37.72
789.088	38.79
789.393	36.59
789.698	36.42
790.003	39.18
790.308	36.28
790.613	38.36
790.918	38.24
791.223	41.7
791.527	36.47
791.832	38.11
792.137	39.66
792.441	35.79
792.746	35.06
793.05	36.74
793.355	39.65
793.659	37.52
793.963	38.13
794.268	37.22
794.572	37.29
794.876	36.83
795.18	37.82
795.484	36.33
795.788	39.16
796.092	38.81
796.396	40.21
796.7	37.07
797.004	36.55
797.307	37.7
797.611	40.02
797.915	38.68
798.218	39.48
798.522	40.28
798.825	40.11
799.128	37.77
799.432	37.02
799.735	37.97
800.038	37.78
800.341	38.04
800.644	40.25
800.947	36.89
801.25	37.77
801.553	38.22
801.856	41.7
802.159	37.1
802.462	39.26
802.764	39.15
803.067	42.06
803.37	35.27
803.672	41.94
803.975	36.63
804.277	37.44
804.579	42.49
804.882	41.91
805.184	39.39
805.486	42.18
805.788	36.7
806.09	39.34
806.392	37.53
806.694	39.54
806.996	39.26
807.298	39.87
807.6	42.64
807.902	40.4
808.203	40.99
808.505	40.28
808.807	40.84
809.108	40.13
809.409	42.94
809.711	45.01
810.012	42.22
810.313	42.25
810.615	44.02
810.916	40.62
811.217	40.26
811.518	34.17
811.819	33.95
812.12	35.77
812.421	46.01
812.722	43.65
813.023	36.25
813.323	43.4
813.624	44.64
813.925	41.92
814.225	41.54
814.526	41.9
814.826	34.88
815.126	31.24
815.427	41.46
815.727	41.06
816.027	44.88
816.327	36.81
816.627	39.35
816.927	36.23
817.227	42.49
817.527	33.85
817.827	41.64
818.127	41.31
818.427	36.56
818.727	37.14
819.026	46.06
819.326	38.52
819.625	36.08
819.925	45.93
820.224	36.25
820.524	42.44
820.823	45.01
821.122	39.68
821.421	36.74
821.72	36.91
822.019	37.88
822.318	41.18
822.617	40.36
822.916	42.25
823.215	40.76
823.514	39.93
823.813	42.24
824.111	40.5
824.41	40.88
824.709	40.95
825.007	41.33
825.306	42.13
825.604	42.48
825.902	42.28
826.201	42.47
826.499	39.93
826.797	42.07
827.095	40.59
827.393	40.76
827.691	43.62
827.989	43.19
828.287	39.49
828.585	41.14
828.882	37.74
829.18	40.76
829.478	41.72
829.775	41.46
830.073	41.31
830.37	40.91
830.668	40.68
830.965	40.66
831.263	41.84
831.56	43.36
831.857	42.12
832.154	39.92
832.451	41.18
832.748	37.25
833.045	42.97
833.342	48.73
833.639	43.67
833.936	34.56
834.232	38.88
834.529	40.89
834.826	41
835.122	36.82
835.419	42.83
835.715	44.32
836.012	41.67
836.308	39.94
836.604	40.04
836.901	41.29
837.197	41.22
837.493	41.66
837.789	38.64
838.085	40.73
838.381	42.31
838.677	43
838.972	39.46
839.268	45.5
839.564	47.33
839.86	36.3
840.155	44.02
840.451	42.28
840.746	34.79
841.042	38.3
841.337	47.84
841.632	45.84
841.928	36.99
842.223	41.78
842.518	31.28
842.813	35.11
843.108	33.45
843.403	41.92
843.698	37.47
843.993	35.89
844.287	35.11
844.582	33.86
844.877	40.21
845.171	33.25
845.466	40.43
845.761	36.35
846.055	43.66
846.349	24.24
846.644	33.75
846.938	38.71
847.232	27.26
847.526	42.2
847.82	41.21
848.114	29.86
848.408	32.22
848.702	45.96
848.996	35.3
849.29	28.42
849.584	50.19
849.877	42.92
850.171	47.12
850.465	38.93
850.758	44.49
851.052	46.22
851.345	40.33
851.638	40.57
851.932	32.63
852.225	29.6
852.518	51.04
852.811	35.96
853.104	41.46
853.397	29.8
853.69	23.06
853.983	50.59
854.276	26.14
854.569	42.47
854.861	52.27
855.154	54.72
855.447	41.43
855.739	30.18
856.032	37.57
856.324	33.77
856.616	43.82
856.909	25.42
857.201	48.7
857.493	57.98
857.785	46.71
858.077	38.8
858.369	41.37
858.661	30.6
858.953	54.72
859.245	28.41
859.537	33.26
859.829	22.02
860.12	40.59
860.412	29.06
860.703	32.87
860.995	36.36
861.286	33.36
861.578	1.48
861.869	48.49
862.16	12.46
862.452	54.78
862.743	39.2
863.034	48.99
863.325	26.83
863.616	48.66
863.907	64.33
864.198	26.53
864.488	50.62
864.779	46.13
865.07	19.1
865.36	30.83
865.651	39.08
865.941	47.56
866.232	54.22
866.522	31.28
866.813	30.47
867.103	22.19
867.393	55.5
867.683	22.37
867.973	58.43
868.263	47.49
868.553	52.61
868.843	40.29
869.133	23.91
869.423	46.63
869.713	28.3
870.002	62.61
870.292	13.16
870.582	46.52
870.871	37.44
871.161	35.71
871.45	33.06
871.739	0.28
872.029	33.41
872.318	21.19
872.607	45.06
872.896	42.2
873.185	40.46
873.474	25.37
873.763	17.18
874.052	62.13
874.341	28.96
874.63	46.86
874.918	53.1
875.207	42.71
875.496	34.71
875.784	76.19
876.073	32.36
876.361	31.66
876.649	32.88
876.938	30.5
877.226	54.72
877.514	35.74
877.802	56.55
878.09	33.35
878.378	46.96
878.666	33.63
878.954	19.47
879.242	15.18
879.53	90.01
879.817	32.66
880.105	28.32
880.392	46.29
880.68	27.94
880.967	42.27
881.255	41.38
881.542	31.61
881.83	44.2
882.117	41.11
882.404	64.55
882.691	65.36
882.978	46.71
883.265	44.16
883.552	43.42
883.839	37.23
884.126	38.88
884.413	48.28
884.699	36.77
884.986	38.41
885.273	40.04
885.559	40.04
885.846	40.04
