Data from 20-4_forehead_Reflection__4__89.txt Node

Date: Fri Nov 11 20:49:17 CST 2022
User: ToomeyLab
Spectrometer: FLMS14357
Trigger mode: 0
Integration Time (sec): 1.000000E-2
Scans to average: 100
Electric dark correction enabled: true
Nonlinearity correction enabled: false
Boxcar width: 0
XAxis mode: Wavelengths
Number of Pixels in Spectrum: 2048
>>>>>Begin Spectral Data<<<<<
189.047	94.35
189.435	94.35
189.823	94.35
190.211	-73.17
190.599	59.4
190.987	129.3
191.375	-145.05
191.763	315.19
192.151	-57.58
192.538	48.1
192.926	25.31
193.314	72.05
193.702	-801.83
194.089	41.9
194.477	70.29
194.864	74.66
195.252	503.08
195.639	273.23
196.027	-30.87
196.414	43.27
196.801	202.14
197.189	843.53
197.576	-596.6
197.963	85.86
198.351	-18.32
198.738	9.67
199.125	-2.92
199.512	-17.59
199.899	-127.01
200.286	4.03
200.673	-18.13
201.06	50.63
201.447	2.64
201.833	33.96
202.22	-57.65
202.607	70.66
202.994	23.43
203.38	4.62
203.767	18.82
204.154	41.75
204.54	-4.3
204.927	-8.71
205.313	33.74
205.699	-25.23
206.086	29.35
206.472	53.19
206.858	29.38
207.245	38.41
207.631	-20.9
208.017	17.06
208.403	13.87
208.789	13.36
209.175	10.02
209.561	24.47
209.947	27.34
210.333	-20.39
210.719	20.12
211.105	21.93
211.491	0.66
211.876	-5.64
212.262	22.82
212.648	-13.71
213.034	-5.92
213.419	1.18
213.805	16.92
214.19	-27.08
214.576	-7.88
214.961	-107.07
215.346	-16.56
215.732	-18.35
216.117	32.51
216.502	3.84
216.888	-9.8
217.273	-0
217.658	-49.34
218.043	-18.85
218.428	-5.64
218.813	2.8
219.198	14.59
219.583	6.24
219.968	-3.88
220.353	-17.35
220.738	-10.3
221.122	2.7
221.507	-19.1
221.892	16.96
222.276	8.73
222.661	20.84
223.046	-20.51
223.43	-5.24
223.815	9
224.199	-1.62
224.583	-2.04
224.968	-18.82
225.352	-1.06
225.736	-1.21
226.121	6.08
226.505	-0
226.889	-7.37
227.273	1.19
227.657	-2.64
228.041	0.62
228.425	-1.24
228.809	1.52
229.193	4.45
229.577	3.07
229.961	2.42
230.344	2.83
230.728	1.28
231.112	1.88
231.495	1.17
231.879	1.21
232.263	1.93
232.646	2.4
233.03	1.73
233.413	1.87
233.797	-0.22
234.18	1.29
234.563	2.51
234.946	0.61
235.33	2.21
235.713	2.34
236.096	1.64
236.479	1.44
236.862	3.25
237.245	0.93
237.628	3.31
238.011	1.99
238.394	2.75
238.777	3.82
239.16	3.48
239.543	-0.2
239.925	3.06
240.308	2.13
240.691	4.42
241.073	3
241.456	1.92
241.838	3.77
242.221	2.4
242.603	3.07
242.986	2.22
243.368	2.45
243.75	2.61
244.133	2.84
244.515	2.63
244.897	3.06
245.279	3.09
245.661	3.06
246.043	2.61
246.425	3.65
246.807	3.35
247.189	2.71
247.571	2.9
247.953	2.79
248.335	3.16
248.717	3.01
249.098	3.25
249.48	2.9
249.862	3.39
250.243	2.63
250.625	2.84
251.006	3.81
251.388	2.68
251.769	2.87
252.151	2.81
252.532	3.01
252.913	3.54
253.295	3.28
253.676	2.16
254.057	2.88
254.438	3.34
254.819	2.77
255.2	4.22
255.581	2.62
255.962	3.4
256.343	3.34
256.724	2.4
257.105	2.41
257.486	3.08
257.867	3.42
258.247	1.51
258.628	2.16
259.009	2.28
259.389	2.7
259.77	3.95
260.15	2.76
260.531	3.13
260.911	2.83
261.292	3.15
261.672	2.89
262.052	2.98
262.432	3.21
262.813	3.06
263.193	2.47
263.573	2.64
263.953	3.27
264.333	2.97
264.713	3.07
265.093	3.4
265.473	2.03
265.853	2.91
266.233	2.82
266.612	2.98
266.992	2.97
267.372	3.89
267.752	2.31
268.131	2.73
268.511	2.79
268.89	2.94
269.27	3.05
269.649	2.68
270.029	3.12
270.408	2.63
270.787	2.91
271.167	1.96
271.546	3.56
271.925	2.79
272.304	2.79
272.683	2.77
273.062	2.56
273.441	3.08
273.82	3.04
274.199	2.44
274.578	2.92
274.957	3.27
275.336	2.87
275.715	3.24
276.093	2.53
276.472	2.46
276.851	2.39
277.229	2.4
277.608	2.89
277.986	3.1
278.365	2.55
278.743	2.47
279.122	3.01
279.5	3.24
279.878	3.19
280.257	3.04
280.635	3.38
281.013	2.45
281.391	2.63
281.769	2.55
282.147	2.68
282.525	2.64
282.903	2.32
283.281	3.09
283.659	2.8
284.037	3.23
284.415	2.47
284.792	2.99
285.17	3.04
285.548	2.92
285.925	2.16
286.303	2.66
286.68	3.06
287.058	3.09
287.435	2.81
287.813	3.06
288.19	2.88
288.567	2.73
288.945	3.09
289.322	3.63
289.699	2.51
290.076	3.53
290.453	3
290.83	2.68
291.207	3.02
291.584	3.26
291.961	3.23
292.338	3.31
292.715	3.44
293.092	3.6
293.469	3.13
293.845	3.52
294.222	2.92
294.599	3.4
294.975	3.02
295.352	3.5
295.728	3.47
296.105	3.52
296.481	3.01
296.858	3.09
297.234	3.59
297.61	3.06
297.986	3.66
298.363	3.61
298.739	3.55
299.115	3.93
299.491	3.82
299.867	3.46
300.243	3.88
300.619	3.97
300.995	3.85
301.371	4.3
301.746	4.18
302.122	4.18
302.498	3.77
302.874	3.85
303.249	4.18
303.625	3.82
304	3.5
304.376	4.11
304.751	3.57
305.127	3.79
305.502	4.4
305.878	4.69
306.253	4.67
306.628	4.6
307.003	4.82
307.378	4.37
307.754	4.7
308.129	4.78
308.504	4.16
308.879	4.54
309.254	4.64
309.629	4.46
310.003	4.61
310.378	4.98
310.753	4.93
311.128	4.91
311.502	4.59
311.877	4.8
312.252	4.59
312.626	4.84
313.001	4.85
313.375	4.73
313.75	4.98
314.124	4.66
314.498	4.85
314.873	4.74
315.247	5.57
315.621	5.46
315.995	5.4
316.369	5.21
316.743	5.16
317.117	5.41
317.491	5.64
317.865	4.61
318.239	5.49
318.613	5.28
318.987	5.67
319.361	4.88
319.734	5.82
320.108	5.1
320.482	5.51
320.855	5.35
321.229	5.61
321.602	6.19
321.976	5.7
322.349	6.15
322.723	6.17
323.096	5.35
323.469	5.5
323.843	6.1
324.216	5.9
324.589	5.95
324.962	6.13
325.335	5.83
325.708	6.03
326.081	6.19
326.454	5.99
326.827	5.89
327.2	6.36
327.573	7.11
327.945	6.02
328.318	6.2
328.691	6.63
329.063	6.18
329.436	5.83
329.809	6.23
330.181	6.27
330.553	5.83
330.926	6.5
331.298	6.44
331.671	6.06
332.043	6.11
332.415	6.46
332.787	7.3
333.159	6.26
333.532	6.84
333.904	6.56
334.276	5.99
334.648	6.94
335.02	6.49
335.391	6.9
335.763	6.75
336.135	6.43
336.507	6.38
336.879	7.22
337.25	6.97
337.622	7.1
337.993	7.1
338.365	7.12
338.736	7.05
339.108	7.25
339.479	6.69
339.851	6.93
340.222	6.81
340.593	7.46
340.964	7.04
341.336	7.33
341.707	7.19
342.078	6.9
342.449	7.17
342.82	6.89
343.191	7.54
343.562	7.46
343.933	7.19
344.303	7.38
344.674	7.77
345.045	7.37
345.416	7.39
345.786	7.08
346.157	7.31
346.527	7.27
346.898	6.84
347.268	7.39
347.639	7.48
348.009	7.21
348.38	7.5
348.75	7.5
349.12	8.23
349.49	8.01
349.861	7.61
350.231	7.91
350.601	7.2
350.971	7.95
351.341	8.17
351.711	7.77
352.081	7.83
352.45	7.96
352.82	7.73
353.19	7.96
353.56	8.16
353.929	7.81
354.299	7.98
354.669	7.93
355.038	7.78
355.408	7.76
355.777	8.16
356.147	8.33
356.516	8.27
356.885	8.03
357.254	7.99
357.624	7.85
357.993	8.55
358.362	8.19
358.731	7.72
359.1	8.11
359.469	7.63
359.838	7.95
360.207	8.22
360.576	8.09
360.945	8.29
361.314	8
361.682	8.17
362.051	8.28
362.42	8.73
362.788	8.51
363.157	8.42
363.525	8.03
363.894	8.17
364.262	8.68
364.631	8.68
364.999	8.33
365.367	8.51
365.735	8.6
366.104	8.58
366.472	8.5
366.84	8.34
367.208	8.49
367.576	8.73
367.944	9.05
368.312	8.46
368.68	8.85
369.048	9
369.416	8.77
369.783	9.16
370.151	8.54
370.519	8.54
370.886	8.73
371.254	9.28
371.621	8.64
371.989	8.57
372.356	9.36
372.724	9.05
373.091	9.41
373.458	9.14
373.826	8.93
374.193	9.01
374.56	9.21
374.927	9.05
375.294	9.43
375.661	9.45
376.028	8.98
376.395	9.34
376.762	9.21
377.129	9.19
377.496	9.25
377.863	9.59
378.229	9.31
378.596	9.13
378.963	9.4
379.329	9.4
379.696	9.49
380.062	9.55
380.429	9.41
380.795	9.93
381.161	9.75
381.528	9.64
381.894	9.54
382.26	9.61
382.626	9.8
382.993	9.47
383.359	9.88
383.725	9.46
384.091	9.69
384.457	9.49
384.823	9.82
385.188	9.86
385.554	9.51
385.92	9.64
386.286	9.89
386.651	9.83
387.017	9.67
387.383	10.1
387.748	9.81
388.114	9.71
388.479	9.73
388.845	9.69
389.21	9.74
389.575	9.91
389.94	10.16
390.306	10.09
390.671	10.15
391.036	10.18
391.401	10.25
391.766	10.09
392.131	9.96
392.496	10.16
392.861	10.07
393.226	10.09
393.591	10.13
393.956	10.29
394.32	9.98
394.685	10.36
395.05	10.39
395.414	10.29
395.779	10.42
396.143	10.2
396.508	10.42
396.872	10.58
397.236	10.21
397.601	10.49
397.965	10.49
398.329	10.43
398.694	10.67
399.058	10.74
399.422	10.87
399.786	10.73
400.15	10.7
400.514	10.65
400.878	10.62
401.242	10.91
401.605	10.89
401.969	11.01
402.333	10.85
402.697	10.66
403.06	10.85
403.424	10.67
403.787	10.74
404.151	10.77
404.514	10.65
404.878	10.89
405.241	10.75
405.604	10.75
405.968	10.97
406.331	10.86
406.694	10.74
407.057	10.92
407.42	11.17
407.783	11.03
408.146	11.03
408.509	11
408.872	10.74
409.235	11.12
409.598	11.21
409.961	11.1
410.323	11.08
410.686	11.06
411.049	11.15
411.411	11.11
411.774	11.04
412.136	11.1
412.499	11.32
412.861	11.36
413.223	10.96
413.586	11.31
413.948	11.48
414.31	11.33
414.672	11.4
415.035	11.41
415.397	11.26
415.759	11.16
416.121	11.58
416.483	11.41
416.845	11.56
417.206	11.23
417.568	11.35
417.93	11.55
418.292	11.32
418.653	11.57
419.015	11.56
419.377	11.39
419.738	11.59
420.1	11.38
420.461	11.53
420.822	11.41
421.184	11.52
421.545	11.64
421.906	11.59
422.267	11.52
422.629	11.43
422.99	11.5
423.351	11.62
423.712	11.52
424.073	11.82
424.434	11.79
424.795	11.8
425.155	11.7
425.516	11.74
425.877	11.75
426.238	11.71
426.598	11.69
426.959	11.82
427.32	12.02
427.68	12.07
428.041	12.15
428.401	11.85
428.761	12.15
429.122	12.06
429.482	12.21
429.842	12.11
430.202	12.29
430.563	12.44
430.923	12.47
431.283	12.32
431.643	12.38
432.003	12.51
432.363	12.34
432.722	12.54
433.082	12.43
433.442	12.57
433.802	12.57
434.161	12.44
434.521	12.62
434.881	12.68
435.24	12.71
435.6	12.61
435.959	12.61
436.319	12.51
436.678	12.65
437.037	12.68
437.396	12.86
437.756	12.65
438.115	12.93
438.474	12.8
438.833	12.89
439.192	12.87
439.551	12.96
439.91	13.08
440.269	12.99
440.628	12.97
440.987	13.09
441.345	12.96
441.704	12.88
442.063	12.91
442.421	12.96
442.78	12.97
443.138	13.17
443.497	13.1
443.855	13.14
444.214	13.1
444.572	13.24
444.93	13.29
445.288	13.17
445.647	13.37
446.005	13.48
446.363	13.34
446.721	13.38
447.079	13.36
447.437	13.38
447.795	13.32
448.153	13.33
448.51	13.34
448.868	13.38
449.226	13.45
449.584	13.47
449.941	13.49
450.299	13.58
450.656	13.73
451.014	13.81
451.371	13.84
451.729	13.8
452.086	13.81
452.443	13.89
452.801	13.75
453.158	13.84
453.515	14.04
453.872	14.07
454.229	13.97
454.586	13.94
454.943	14.06
455.3	14.06
455.657	14.17
456.014	14.21
456.371	14.11
456.727	14.36
457.084	14.07
457.441	14.56
457.797	14.23
458.154	14.38
458.51	14.42
458.867	14.32
459.223	14.38
459.58	14.36
459.936	14.35
460.292	14.38
460.648	14.53
461.005	14.38
461.361	14.19
461.717	14.24
462.073	14.31
462.429	14.35
462.785	14.37
463.141	14.5
463.496	14.5
463.852	14.65
464.208	14.89
464.564	14.63
464.919	14.78
465.275	14.72
465.631	14.88
465.986	15.12
466.342	14.9
466.697	14.91
467.052	14.91
467.408	15.07
467.763	14.88
468.118	14.91
468.473	15.26
468.829	15.14
469.184	15.03
469.539	15.16
469.894	15.23
470.249	15.16
470.603	15.17
470.958	15.24
471.313	15.32
471.668	15.34
472.023	15.14
472.377	15.39
472.732	15.26
473.086	15.32
473.441	15.53
473.795	15.33
474.15	15.59
474.504	15.59
474.859	15.45
475.213	15.63
475.567	15.64
475.921	15.54
476.275	15.69
476.63	15.7
476.984	15.71
477.338	15.84
477.692	15.68
478.045	15.73
478.399	15.89
478.753	15.72
479.107	15.78
479.461	15.78
479.814	15.69
480.168	16
480.521	15.94
480.875	15.87
481.228	15.98
481.582	15.98
481.935	15.89
482.289	16.06
482.642	16.05
482.995	15.83
483.348	15.99
483.701	15.93
484.055	15.9
484.408	15.79
484.761	15.6
485.114	15.39
485.466	15.29
485.819	15.35
486.172	15.42
486.525	15.58
486.878	15.63
487.23	15.76
487.583	15.95
487.936	15.89
488.288	15.86
488.641	15.86
488.993	15.75
489.345	15.68
489.698	15.8
490.05	15.81
490.402	15.93
490.754	16.01
491.107	16.14
491.459	16.3
491.811	16.32
492.163	16.32
492.515	16.37
492.866	16.17
493.218	16.06
493.57	16.04
493.922	16.16
494.274	16.36
494.625	16.53
494.977	16.72
495.328	16.76
495.68	16.94
496.031	17.11
496.383	16.9
496.734	17.08
497.086	17.11
497.437	17.15
497.788	17.2
498.139	17.27
498.49	17.01
498.842	16.97
499.193	17.09
499.544	17.2
499.894	17.14
500.245	17.31
500.596	17.3
500.947	17.25
501.298	17.47
501.648	17.47
501.999	17.48
502.35	17.62
502.7	17.8
503.051	17.64
503.401	17.64
503.752	17.67
504.102	17.59
504.452	17.84
504.803	17.82
505.153	17.68
505.503	17.78
505.853	17.96
506.203	17.95
506.553	17.84
506.903	17.85
507.253	18.03
507.603	18.12
507.953	18.05
508.303	18.12
508.652	18.13
509.002	18.21
509.352	18.14
509.701	18
510.051	18
510.4	18.11
510.75	17.95
511.099	18.08
511.449	18.19
511.798	18.17
512.147	18.26
512.496	18.18
512.846	18.44
513.195	18.33
513.544	18.34
513.893	18.35
514.242	18.49
514.591	18.42
514.939	18.47
515.288	18.56
515.637	18.61
515.986	18.65
516.334	18.64
516.683	18.75
517.032	18.85
517.38	18.73
517.729	19
518.077	18.83
518.426	18.83
518.774	18.8
519.122	18.85
519.47	18.71
519.819	18.68
520.167	18.63
520.515	18.73
520.863	18.79
521.211	18.91
521.559	18.83
521.907	18.86
522.255	18.98
522.602	19.17
522.95	19.1
523.298	19.31
523.645	19.34
523.993	19.49
524.341	19.46
524.688	19.48
525.036	19.59
525.383	19.57
525.73	19.59
526.078	19.31
526.425	19.44
526.772	19.36
527.119	19.15
527.466	19.24
527.814	19.33
528.161	19.27
528.508	19.3
528.854	19.32
529.201	19.38
529.548	19.13
529.895	18.95
530.242	18.92
530.588	18.98
530.935	19.14
531.282	19.19
531.628	19.27
531.975	19.47
532.321	19.46
532.667	19.75
533.014	19.75
533.36	19.8
533.706	19.85
534.052	19.85
534.399	19.67
534.745	19.58
535.091	19.52
535.437	19.65
535.783	19.75
536.129	19.94
536.474	20.16
536.82	20.16
537.166	20.19
537.512	20.23
537.857	20.19
538.203	20.12
538.549	20.31
538.894	20.21
539.239	20.35
539.585	20.58
539.93	20.52
540.276	20.86
540.621	20.91
540.966	20.75
541.311	20.87
541.656	20.77
542.001	20.76
542.346	20.55
542.691	20.37
543.036	20.26
543.381	20.3
543.726	20.27
544.071	20.45
544.415	20.72
544.76	20.71
545.105	20.8
545.449	20.86
545.794	21.04
546.138	21.06
546.483	21.17
546.827	21.33
547.171	21.23
547.516	21.34
547.86	21.33
548.204	21.35
548.548	21.31
548.892	21.4
549.236	21.41
549.58	21.61
549.924	21.74
550.268	21.87
550.612	21.89
550.956	22.17
551.3	21.96
551.643	22.04
551.987	22.04
552.33	22.15
552.674	22.19
553.017	22.26
553.361	22.22
553.704	22.18
554.048	22.28
554.391	22.28
554.734	22.23
555.077	22.33
555.42	22.3
555.764	22.46
556.107	22.49
556.45	22.59
556.793	22.67
557.135	22.53
557.478	22.47
557.821	22.91
558.164	22.97
558.507	22.88
558.849	22.81
559.192	22.95
559.534	23.16
559.877	23
560.219	22.85
560.562	22.96
560.904	23.21
561.246	23.04
561.589	23.21
561.931	23.19
562.273	23.24
562.615	23.04
562.957	23.18
563.299	23.37
563.641	23.22
563.983	23.37
564.325	23.5
564.667	23.48
565.008	23.54
565.35	23.42
565.692	23.47
566.033	23.47
566.375	23.66
566.716	23.68
567.058	23.46
567.399	23.78
567.741	23.71
568.082	23.77
568.423	23.63
568.764	23.68
569.105	23.78
569.447	24.02
569.788	23.92
570.129	23.92
570.47	24.1
570.811	24.17
571.151	24.21
571.492	23.97
571.833	24.32
572.174	24.19
572.514	24.3
572.855	24.25
573.195	24.21
573.536	24.23
573.876	24.12
574.217	24.35
574.557	24.28
574.898	24.5
575.238	24.19
575.578	24.54
575.918	24.56
576.258	24.7
576.598	24.48
576.938	24.48
577.278	24.38
577.618	24.76
577.958	24.6
578.298	24.74
578.638	25.03
578.977	25.08
579.317	25.11
579.657	25
579.996	25.02
580.336	25.18
580.675	25.33
581.014	25.16
581.354	25.03
581.693	25.37
582.032	25.35
582.372	25.36
582.711	25.67
583.05	25.62
583.389	25.42
583.728	25.64
584.067	25.71
584.406	25.67
584.745	25.74
585.083	25.78
585.422	25.71
585.761	25.97
586.1	25.75
586.438	25.99
586.777	25.69
587.115	25.93
587.454	25.75
587.792	26.11
588.13	26.05
588.469	26.24
588.807	25.96
589.145	26.21
589.483	26.4
589.821	26.24
590.159	26.23
590.497	26.36
590.835	26.22
591.173	26.38
591.511	26.4
591.849	26.49
592.187	26.23
592.524	26.32
592.862	26.35
593.2	26.91
593.537	26.86
593.875	26.79
594.212	26.72
594.55	26.81
594.887	27.12
595.224	26.86
595.561	26.9
595.899	26.75
596.236	26.85
596.573	26.82
596.91	27.33
597.247	26.95
597.584	26.74
597.921	27.3
598.258	26.9
598.594	27.03
598.931	26.85
599.268	27.02
599.604	26.75
599.941	27.16
600.277	27.27
600.614	27.39
600.95	27.44
601.287	27.46
601.623	27.81
601.959	27.74
602.296	27.57
602.632	27.51
602.968	27.92
603.304	27.52
603.64	27.85
603.976	27.91
604.312	27.76
604.648	27.71
604.984	27.7
605.319	27.84
605.655	27.78
605.991	27.55
606.326	27.97
606.662	27.81
606.998	27.75
607.333	27.93
607.668	27.77
608.004	28.04
608.339	27.84
608.674	28.18
609.01	28.24
609.345	28.03
609.68	28.38
610.015	28.54
610.35	28.53
610.685	28.58
611.02	28.26
611.355	28.35
611.689	28.52
612.024	28.51
612.359	28.52
612.694	28.76
613.028	28.67
613.363	28.81
613.697	29.12
614.032	28.78
614.366	28.49
614.7	28.67
615.035	29.22
615.369	29.11
615.703	28.99
616.037	29.01
616.371	29.35
616.705	29.56
617.039	29.28
617.373	29.26
617.707	29.34
618.041	29.32
618.375	29.17
618.709	29.74
619.042	29.58
619.376	29.77
619.71	29.9
620.043	29.7
620.377	29.74
620.71	29.45
621.043	29.38
621.377	30.15
621.71	29.56
622.043	30.17
622.376	29.79
622.709	29.59
623.043	29.71
623.376	30.21
623.709	30.35
624.041	30.13
624.374	29.87
624.707	30.42
625.04	30.18
625.373	29.85
625.705	30.36
626.038	30.38
626.37	30.2
626.703	30.24
627.035	30.24
627.368	30.2
627.7	30.48
628.032	30.59
628.365	30.49
628.697	30.43
629.029	30.67
629.361	30.58
629.693	30.28
630.025	30.69
630.357	30.76
630.689	30.34
631.021	31.15
631.353	30.86
631.684	31.03
632.016	30.79
632.348	30.91
632.679	31.07
633.011	31.29
633.342	31.37
633.674	30.77
634.005	31.07
634.336	31.05
634.668	31.34
634.999	31.19
635.33	31.25
635.661	31.74
635.992	31.57
636.323	31.4
636.654	31.49
636.985	31.52
637.316	31.56
637.647	31.86
637.977	31.98
638.308	32.27
638.639	31.76
638.969	31.67
639.3	32.18
639.63	32.3
639.961	31.88
640.291	32.14
640.622	32.07
640.952	32.01
641.282	32.08
641.612	32.12
641.943	32.85
642.273	32.72
642.603	32.78
642.933	32.34
643.263	32.07
643.592	32.49
643.922	32.56
644.252	32.69
644.582	33.31
644.911	32.48
645.241	33.05
645.571	32.73
645.9	32.96
646.23	32.86
646.559	33.1
646.888	33.38
647.218	33.09
647.547	32.94
647.876	33
648.205	32.97
648.534	33.57
648.863	33.08
649.192	33.01
649.521	33.18
649.85	33.23
650.179	32.9
650.508	32.98
650.837	33.31
651.165	33.36
651.494	33.7
651.822	33.27
652.151	33.48
652.479	33.58
652.808	33.55
653.136	33.12
653.465	33.59
653.793	33.53
654.121	33.57
654.449	33.18
654.777	34.06
655.105	33.76
655.433	33.78
655.761	34.3
656.089	34.16
656.417	33.26
656.745	34.13
657.073	34.24
657.4	34.45
657.728	34.53
658.056	34.5
658.383	33.68
658.711	33.91
659.038	34.17
659.365	34.26
659.693	34.07
660.02	34.72
660.347	34.56
660.674	34.36
661.001	35.04
661.329	33.98
661.656	34.14
661.982	34.89
662.309	34.43
662.636	35.36
662.963	35
663.29	34.95
663.616	34.54
663.943	34.6
664.27	34.6
664.596	34.82
664.923	35.31
665.249	35.04
665.576	35.23
665.902	35
666.228	35.45
666.554	35.05
666.881	35.2
667.207	34.88
667.533	35.58
667.859	35.72
668.185	35.28
668.511	35.15
668.837	35.76
669.162	35.51
669.488	36.01
669.814	35.45
670.139	35.52
670.465	35.04
670.791	35.18
671.116	35.71
671.442	35.81
671.767	35.65
672.092	35.4
672.418	35.9
672.743	35.75
673.068	36.27
673.393	36.07
673.718	35.99
674.043	36.12
674.368	36.09
674.693	36.63
675.018	36.71
675.343	36.49
675.667	36.99
675.992	37.11
676.317	36.4
676.641	36.17
676.966	36.86
677.29	36.64
677.615	36.24
677.939	36.38
678.264	36.52
678.588	36.36
678.912	36.83
679.236	36.6
679.56	37.29
679.885	36.27
680.209	36.62
680.532	36.69
680.856	37.54
681.18	36.53
681.504	36.9
681.828	36.95
682.152	36.87
682.475	37.04
682.799	36.86
683.122	36.71
683.446	37.33
683.769	37.25
684.093	37.16
684.416	36.93
684.739	37.55
685.062	37.43
685.386	37.2
685.709	37.73
686.032	36.97
686.355	37.62
686.678	36.94
687.001	36.83
687.324	37.77
687.646	36.82
687.969	37.3
688.292	38.68
688.614	37.25
688.937	38.31
689.26	36.38
689.582	39.01
689.904	37.95
690.227	37.55
690.549	38.34
690.871	37.68
691.194	37.57
691.516	38.3
691.838	38.21
692.16	37.87
692.482	38.38
692.804	38.81
693.126	38.19
693.448	37.94
693.769	37.8
694.091	38.35
694.413	38.42
694.735	38.88
695.056	38.73
695.378	38.59
695.699	38.73
696.021	38.18
696.342	38.31
696.663	39.46
696.984	39.27
697.306	37.62
697.627	38.46
697.948	39.29
698.269	39.28
698.59	38.52
698.911	38.8
699.232	39.18
699.553	39.31
699.873	38.84
700.194	39.38
700.515	38.75
700.835	38.86
701.156	39.08
701.477	39.46
701.797	39.38
702.117	39.06
702.438	39.32
702.758	39.46
703.078	39.64
703.398	40.03
703.719	40.16
704.039	39.37
704.359	39.99
704.679	40.38
704.999	40.26
705.319	39.63
705.638	39.32
705.958	39.36
706.278	39.71
706.597	39.91
706.917	39.34
707.237	39.74
707.556	40.14
707.876	40.1
708.195	39.68
708.514	40.29
708.834	40.31
709.153	38.87
709.472	39.74
709.791	40.96
710.11	40.18
710.429	40.31
710.748	40.43
711.067	40.05
711.386	40.33
711.705	40.59
712.023	40.8
712.342	40.82
712.661	40.84
712.979	40.3
713.298	41.65
713.616	40.86
713.935	40.16
714.253	40.77
714.572	40.4
714.89	40.22
715.208	41.71
715.526	40.62
715.844	40.03
716.162	39.89
716.48	40.7
716.798	40.84
717.116	40.88
717.434	41.42
717.752	39.74
718.069	41.19
718.387	41.7
718.705	39.96
719.022	41.8
719.34	41.25
719.657	41.19
719.975	42.76
720.292	41.62
720.609	41.04
720.927	39.68
721.244	41.38
721.561	43.06
721.878	41.22
722.195	40.65
722.512	41.33
722.829	40.51
723.146	41.33
723.463	41.21
723.779	41.48
724.096	42.48
724.413	42.68
724.729	41.5
725.046	42.69
725.362	42.71
725.679	42.28
725.995	41.5
726.311	41.44
726.628	41.3
726.944	41.33
727.26	41.07
727.576	41.58
727.892	42.63
728.208	41.9
728.524	42.9
728.84	42.72
729.156	41.43
729.472	41.7
729.787	42.52
730.103	43.35
730.419	43.46
730.734	42.44
731.05	42.77
731.365	42.91
731.681	42.14
731.996	42.07
732.311	42
732.626	41.75
732.942	41.97
733.257	42.26
733.572	41.94
733.887	41.5
734.202	42.45
734.517	42.59
734.832	43.63
735.146	41.84
735.461	42.29
735.776	43.97
736.091	43.48
736.405	43.15
736.72	42.75
737.034	41.79
737.349	41.91
737.663	42.96
737.977	42.6
738.292	43.31
738.606	43.04
738.92	42.79
739.234	42.8
739.548	43.58
739.862	43.6
740.176	42.78
740.49	42.17
740.804	43.05
741.117	43.98
741.431	43.8
741.745	44.08
742.058	43.23
742.372	43.19
742.685	43.2
742.999	44
743.312	44.43
743.626	44.27
743.939	43.18
744.252	42.83
744.565	46.48
744.878	43.42
745.191	45.51
745.505	42.1
745.817	43.52
746.13	45.17
746.443	43.67
746.756	44.76
747.069	43.25
747.381	44.48
747.694	44.09
748.007	45.6
748.319	44.12
748.632	45.71
748.944	44.08
749.256	44.11
749.569	43.68
749.881	42.12
750.193	43.79
750.505	44.02
750.817	44.62
751.129	45.77
751.441	43.58
751.753	44.03
752.065	45.29
752.377	46.12
752.689	43.86
753	43.32
753.312	42.98
753.624	44.59
753.935	45.79
754.247	43.99
754.558	43.79
754.869	45.03
755.181	44.14
755.492	43.5
755.803	43.63
756.114	44.32
756.425	43.84
756.736	43.59
757.047	44.98
757.358	43.54
757.669	45.33
757.98	45.19
758.291	45.43
758.601	45.52
758.912	43.61
759.223	46.19
759.533	43.9
759.844	45.24
760.154	44.61
760.464	45.06
760.775	44.17
761.085	45.26
761.395	45.18
761.705	46.74
762.016	44.72
762.326	46.22
762.636	45.79
762.945	44.88
763.255	45.15
763.565	44.06
763.875	46.74
764.185	46.05
764.494	47.11
764.804	46.78
765.113	47.03
765.423	46.17
765.732	45.77
766.042	45.21
766.351	45.95
766.66	44.67
766.97	44.89
767.279	45.64
767.588	47.68
767.897	46.11
768.206	45.57
768.515	44.65
768.824	45.35
769.133	43.24
769.441	46.01
769.75	46.72
770.059	43.8
770.367	45.01
770.676	45.34
770.984	47.79
771.293	45.31
771.601	47.15
771.91	46.68
772.218	46.01
772.526	48.55
772.834	43.97
773.142	44.51
773.45	45.84
773.758	49.4
774.066	48.96
774.374	44.08
774.682	45.86
774.99	46.92
775.298	45.47
775.605	45.3
775.913	47.9
776.22	45.69
776.528	46.96
776.835	46.72
777.143	44.92
777.45	44.65
777.757	46.85
778.065	46.86
778.372	43.97
778.679	45.99
778.986	49.59
779.293	48.01
779.6	47.45
779.907	44.92
780.214	48.23
780.52	48.09
780.827	46.81
781.134	48.86
781.44	46.52
781.747	47.71
782.053	47.14
782.36	47.67
782.666	43.91
782.973	47.49
783.279	51
783.585	48.7
783.891	45.86
784.197	50.53
784.503	48.94
784.809	46.3
785.115	47.04
785.421	49.46
785.727	51.18
786.033	51.08
786.339	44.99
786.644	49.8
786.95	49.6
787.255	49.7
787.561	46.85
787.866	46.48
788.172	45.66
788.477	46.67
788.782	47.82
789.088	43.89
789.393	44.2
789.698	46.35
790.003	47.61
790.308	46.66
790.613	48.22
790.918	47.88
791.223	47.21
791.527	45.09
791.832	46.77
792.137	45.85
792.441	46.07
792.746	42.82
793.05	50.65
793.355	50.34
793.659	50.21
793.963	47.01
794.268	48.79
794.572	46.54
794.876	46.24
795.18	45.91
795.484	46.83
795.788	44.62
796.092	48.46
796.396	47.14
796.7	49.4
797.004	46.03
797.307	50.37
797.611	46.44
797.915	48.02
798.218	50.56
798.522	50.34
798.825	52.09
799.128	47.49
799.432	46.41
799.735	48.32
800.038	48.32
800.341	44.75
800.644	50.62
800.947	44.14
801.25	45.81
801.553	50.05
801.856	47.49
802.159	46.37
802.462	43.11
802.764	48.25
803.067	51.34
803.37	44.75
803.672	48.72
803.975	50.65
804.277	46.06
804.579	49.78
804.882	48.47
805.184	44.92
805.486	50.02
805.788	49.55
806.09	48.42
806.392	48.01
806.694	49.92
806.996	53.35
807.298	49.75
807.6	45.79
807.902	49.39
808.203	44.15
808.505	47.73
808.807	47.37
809.108	47.16
809.409	50.72
809.711	52.38
810.012	52.08
810.313	52.16
810.615	51.66
810.916	49.83
811.217	46.45
811.518	49.36
811.819	49.57
812.12	45.32
812.421	53.3
812.722	47.65
813.023	49.43
813.323	48.35
813.624	50.87
813.925	47.54
814.225	44.83
814.526	48.58
814.826	45.46
815.126	44.58
815.427	51.48
815.727	47.63
816.027	48.12
816.327	51.2
816.627	55.26
816.927	44.64
817.227	49.56
817.527	46.34
817.827	51.79
818.127	50.38
818.427	54.12
818.727	50.05
819.026	50.08
819.326	48.33
819.625	50.14
819.925	51.53
820.224	46.4
820.524	45.84
820.823	49.69
821.122	54.61
821.421	52.65
821.72	49.19
822.019	49.76
822.318	53.73
822.617	48.27
822.916	48.48
823.215	50.91
823.514	50.31
823.813	53.33
824.111	49.72
824.41	51.56
824.709	52.28
825.007	51.51
825.306	51.83
825.604	51.45
825.902	53.03
826.201	52.59
826.499	51.72
826.797	52.49
827.095	52.34
827.393	52.48
827.691	51.03
827.989	52.53
828.287	53.52
828.585	52.88
828.882	48.61
829.18	52.67
829.478	51.4
829.775	53.26
830.073	52.41
830.37	52.25
830.668	50.49
830.965	50.27
831.263	52.98
831.56	52.45
831.857	50.24
832.154	51.12
832.451	52.13
832.748	48.68
833.045	47.51
833.342	53.95
833.639	50.93
833.936	52.98
834.232	47.39
834.529	52.11
834.826	47.91
835.122	52.35
835.419	50.12
835.715	51.51
836.012	53.04
836.308	50.16
836.604	55.9
836.901	55.58
837.197	51.81
837.493	51.37
837.789	50.71
838.085	51.22
838.381	54.35
838.677	51.85
838.972	53.81
839.268	57.38
839.564	51.3
839.86	47.05
840.155	49.72
840.451	46.64
840.746	43.5
841.042	33.97
841.337	47.7
841.632	47.66
841.928	51.73
842.223	45.65
842.518	45.22
842.813	47.66
843.108	54.29
843.403	44.58
843.698	58.84
843.993	55.66
844.287	52.46
844.582	49.51
844.877	46.89
845.171	44.98
845.466	52.68
845.761	46.17
846.055	57.87
846.349	41.49
846.644	50.66
846.938	39.01
847.232	46.93
847.526	59.57
847.82	38.1
848.114	40.27
848.408	59.15
848.702	35.21
848.996	54.45
849.29	46.65
849.584	42.33
849.877	43.27
850.171	50.8
850.465	51.22
850.758	57.15
851.052	50.53
851.345	57.01
851.638	51.7
851.932	34.05
852.225	53.5
852.518	49.32
852.811	48.56
853.104	41.01
853.397	56.28
853.69	47.5
853.983	40.76
854.276	35.61
854.569	49.7
854.861	63.96
855.154	50.99
855.447	55.04
855.739	36.13
856.032	62.63
856.324	44.86
856.616	44.47
856.909	46.72
857.201	63.46
857.493	70.76
857.785	61.39
858.077	30.53
858.369	39.65
858.661	46.05
858.953	72.6
859.245	48.26
859.537	21.07
859.829	52.78
860.12	59.18
860.412	43.6
860.703	28.59
860.995	67.71
861.286	34.24
861.578	41.54
861.869	50.74
862.16	38.57
862.452	74.82
862.743	54.84
863.034	35.8
863.325	42.79
863.616	64.78
863.907	30.44
864.198	4.75
864.488	36.25
864.779	48.95
865.07	26.69
865.36	39.64
865.651	57.17
865.941	39.17
866.232	58.26
866.522	53.17
866.813	79.48
867.103	32.7
867.393	75.91
867.683	55.17
867.973	71.17
868.263	37.08
868.553	47.36
868.843	34.28
869.133	47.79
869.423	36.27
869.713	63.31
870.002	32.4
870.292	28.63
870.582	56.31
870.871	35.17
871.161	40.98
871.45	49.88
871.739	38.67
872.029	57.64
872.318	28.45
872.607	48.22
872.896	33.26
873.185	68.22
873.474	17.52
873.763	24.91
874.052	39.7
874.341	57.03
874.63	43.08
874.918	47.61
875.207	30.7
875.496	54.54
875.784	105.8
876.073	36.93
876.361	43.86
876.649	41.97
876.938	29.3
877.226	60.41
877.514	44.57
877.802	64.88
878.09	54.96
878.378	55.94
878.666	41.93
878.954	55.58
879.242	70.63
879.53	32.49
879.817	51.6
880.105	33.72
880.392	60.89
880.68	44
880.967	61.1
881.255	43.3
881.542	29.14
881.83	34.02
882.117	52.87
882.404	59.07
882.691	66.52
882.978	41.13
883.265	47.5
883.552	62
883.839	46.85
884.126	45.1
884.413	57.43
884.699	58.55
884.986	50.71
885.273	58.02
885.559	58.02
885.846	58.02
