Data from 20-4_chest_Reflection__0__75.txt Node

Date: Fri Nov 11 20:45:46 CST 2022
User: ToomeyLab
Spectrometer: FLMS14357
Trigger mode: 0
Integration Time (sec): 1.000000E-2
Scans to average: 100
Electric dark correction enabled: true
Nonlinearity correction enabled: false
Boxcar width: 0
XAxis mode: Wavelengths
Number of Pixels in Spectrum: 2048
>>>>>Begin Spectral Data<<<<<
189.047	33.07
189.435	33.07
189.823	33.07
190.211	199.3
190.599	70.5
190.987	46.54
191.375	119.01
191.763	-108.22
192.151	-122.42
192.538	15.38
192.926	-1.15
193.314	114.89
193.702	145.42
194.089	108.31
194.477	82.6
194.864	-20.35
195.252	243.65
195.639	-132.56
196.027	-23.63
196.414	35.02
196.801	582.92
197.189	496.54
197.576	175.7
197.963	11.06
198.351	-57.45
198.738	12.85
199.125	43.04
199.512	49.1
199.899	-18.4
200.286	20.67
200.673	31.94
201.06	29.63
201.447	77.63
201.833	36.08
202.22	-8.65
202.607	48.61
202.994	7.9
203.38	32.67
203.767	69.77
204.154	50.91
204.54	16.65
204.927	41.5
205.313	-19.11
205.699	4.9
206.086	34.27
206.472	47.26
206.858	33.08
207.245	47.62
207.631	6.19
208.017	53.74
208.403	40.51
208.789	39.28
209.175	30.62
209.561	45.88
209.947	6.04
210.333	-1.42
210.719	7.56
211.105	57.89
211.491	40.82
211.876	54.04
212.262	31.73
212.648	22.2
213.034	12.82
213.419	-18.74
213.805	2.77
214.19	12.93
214.576	5.07
214.961	-14.45
215.346	-15.65
215.732	-4.95
216.117	31.76
216.502	-4.76
216.888	-4.99
217.273	10.77
217.658	6.2
218.043	29.82
218.428	17.17
218.813	5.93
219.198	-0.29
219.583	4.93
219.968	6.2
220.353	-36.14
220.738	7.23
221.122	19
221.507	-22.76
221.892	1.02
222.276	7.83
222.661	10.93
223.046	-1.18
223.43	-7.74
223.815	0.36
224.199	17.56
224.583	2.91
224.968	-2.19
225.352	6.87
225.736	8.33
226.121	7.02
226.505	3.01
226.889	-2.75
227.273	-1.42
227.657	3.7
228.041	0.83
228.425	5.21
228.809	4.93
229.193	7.3
229.577	7.38
229.961	5.46
230.344	5.94
230.728	3.6
231.112	4.41
231.495	4.91
231.879	4.99
232.263	4.72
232.646	4.66
233.03	6.21
233.413	5.45
233.797	4.96
234.18	3.49
234.563	6.92
234.946	6.62
235.33	5.15
235.713	4.74
236.096	4.81
236.479	5.56
236.862	7.58
237.245	4.97
237.628	5.73
238.011	5.37
238.394	5.3
238.777	5.17
239.16	8.45
239.543	5.35
239.925	3.67
240.308	3.18
240.691	6.75
241.073	4.58
241.456	4.56
241.838	5.68
242.221	5.56
242.603	5.73
242.986	4.97
243.368	5.37
243.75	5.11
244.133	4.94
244.515	4.71
244.897	5.45
245.279	4.45
245.661	5.57
246.043	5.33
246.425	6.81
246.807	5.6
247.189	4.62
247.571	5.18
247.953	5.03
248.335	5.05
248.717	5.08
249.098	5.18
249.48	4.72
249.862	5.45
250.243	4.71
250.625	5.28
251.006	5.81
251.388	5.67
251.769	6.43
252.151	6.16
252.532	5.47
252.913	5.49
253.295	5.16
253.676	4.61
254.057	4.78
254.438	5.26
254.819	5.03
255.2	6.2
255.581	6.22
255.962	5.33
256.343	5.43
256.724	4.98
257.105	5.73
257.486	5.38
257.867	5.77
258.247	4.16
258.628	4.6
259.009	5.07
259.389	4.95
259.77	5.11
260.15	5.4
260.531	4.89
260.911	4.54
261.292	4.98
261.672	4.34
262.052	4.82
262.432	4.99
262.813	4.68
263.193	4.93
263.573	5.13
263.953	5.79
264.333	5.18
264.713	4.87
265.093	5.36
265.473	3.84
265.853	4.78
266.233	5.16
266.612	3.45
266.992	4.71
267.372	5.32
267.752	4.5
268.131	5.06
268.511	4.37
268.89	4.54
269.27	4.35
269.649	4.1
270.029	4.82
270.408	4.6
270.787	4.51
271.167	4.71
271.546	4.67
271.925	4.64
272.304	4.88
272.683	4.87
273.062	4.53
273.441	4.53
273.82	4.7
274.199	4.45
274.578	4.19
274.957	4.84
275.336	4.89
275.715	4.7
276.093	4.62
276.472	4.07
276.851	4.55
277.229	4.46
277.608	4.72
277.986	4.92
278.365	3.83
278.743	4.73
279.122	5.01
279.5	4.59
279.878	4.78
280.257	4.65
280.635	4.47
281.013	4.61
281.391	4.12
281.769	4.33
282.147	4.31
282.525	4.35
282.903	4.15
283.281	4.61
283.659	4.77
284.037	4.53
284.415	4.55
284.792	4.65
285.17	4.95
285.548	4.4
285.925	4.2
286.303	4.49
286.68	4.73
287.058	4.72
287.435	4.55
287.813	4.55
288.19	4.21
288.567	4.39
288.945	5.03
289.322	5.05
289.699	4.01
290.076	4.87
290.453	4.39
290.83	4.57
291.207	4.9
291.584	4.98
291.961	4.84
292.338	4.61
292.715	4.4
293.092	4.53
293.469	4.16
293.845	4.97
294.222	4.52
294.599	5.02
294.975	4.73
295.352	4.68
295.728	4.49
296.105	4.49
296.481	4.08
296.858	4.28
297.234	4.43
297.61	4.85
297.986	4.82
298.363	4.86
298.739	4.73
299.115	4.76
299.491	4.78
299.867	4.62
300.243	4.73
300.619	5.27
300.995	4.96
301.371	4.98
301.746	4.87
302.122	4.85
302.498	5.21
302.874	4.9
303.249	4.83
303.625	4.76
304	4.63
304.376	5.14
304.751	4.64
305.127	4.41
305.502	4.89
305.878	5.12
306.253	4.87
306.628	4.58
307.003	5.29
307.378	5.17
307.754	5.07
308.129	4.9
308.504	4.99
308.879	5.15
309.254	5.36
309.629	4.89
310.003	4.98
310.378	5.15
310.753	5.14
311.128	5.56
311.502	5.62
311.877	4.9
312.252	5.12
312.626	5.22
313.001	5.17
313.375	4.97
313.75	5.1
314.124	4.94
314.498	5.16
314.873	5.21
315.247	5.5
315.621	5.41
315.995	5.34
316.369	5.02
316.743	5.15
317.117	5.31
317.491	5.46
317.865	5.2
318.239	5.44
318.613	5.28
318.987	5.18
319.361	5.31
319.734	5.75
320.108	5.29
320.482	5.36
320.855	5.37
321.229	4.81
321.602	5.21
321.976	5.14
322.349	5.78
322.723	5.32
323.096	5.22
323.469	5.53
323.843	5.73
324.216	5.3
324.589	5.69
324.962	5.76
325.335	5.47
325.708	5.21
326.081	5.1
326.454	5.45
326.827	4.94
327.2	5.97
327.573	5.96
327.945	5.11
328.318	5.27
328.691	5.33
329.063	5.5
329.436	5.02
329.809	5.27
330.181	5.12
330.553	5.24
330.926	5.04
331.298	5.52
331.671	5.37
332.043	5.46
332.415	5.45
332.787	5.91
333.159	5.42
333.532	5.68
333.904	5.9
334.276	5.37
334.648	5.63
335.02	5.12
335.391	5.68
335.763	5.47
336.135	5.38
336.507	5.64
336.879	5.4
337.25	5.05
337.622	5.48
337.993	5.57
338.365	5.74
338.736	5.85
339.108	5.52
339.479	5.17
339.851	5.83
340.222	5.27
340.593	5.87
340.964	5.5
341.336	5.39
341.707	5.25
342.078	5.33
342.449	5.4
342.82	5.78
343.191	5.57
343.562	5.22
343.933	5.03
344.303	5.2
344.674	5.54
345.045	5.36
345.416	5.69
345.786	4.86
346.157	5.19
346.527	5.48
346.898	5.2
347.268	5.1
347.639	5.8
348.009	5.08
348.38	5.53
348.75	5.42
349.12	5.98
349.49	5.66
349.861	5.31
350.231	5.48
350.601	5.31
350.971	5.53
351.341	5.34
351.711	5.54
352.081	5.43
352.45	5.53
352.82	5.09
353.19	5.6
353.56	5.94
353.929	5.59
354.299	5.36
354.669	5.57
355.038	5.68
355.408	5.62
355.777	5.92
356.147	5.33
356.516	5.78
356.885	5.69
357.254	5.44
357.624	5.07
357.993	5.39
358.362	5.72
358.731	5.14
359.1	5.4
359.469	5.19
359.838	5.43
360.207	5.76
360.576	5.57
360.945	5.73
361.314	5.26
361.682	5.56
362.051	5.53
362.42	5.71
362.788	5.7
363.157	5.37
363.525	5.49
363.894	5.22
364.262	5.65
364.631	5.65
364.999	5.38
365.367	5.58
365.735	5.52
366.104	5.27
366.472	5.28
366.84	5.31
367.208	5.49
367.576	5.82
367.944	5.92
368.312	5.42
368.68	5.58
369.048	5.54
369.416	5.22
369.783	5.7
370.151	5.68
370.519	5.88
370.886	5.64
371.254	5.53
371.621	5.73
371.989	5.64
372.356	5.56
372.724	6.05
373.091	5.48
373.458	5.61
373.826	5.45
374.193	5.45
374.56	5.35
374.927	5.74
375.294	5.84
375.661	6.21
376.028	5.26
376.395	5.52
376.762	5.75
377.129	5.61
377.496	5.7
377.863	5.88
378.229	5.47
378.596	5.71
378.963	5.76
379.329	5.74
379.696	5.61
380.062	5.59
380.429	5.9
380.795	6.11
381.161	5.86
381.528	5.51
381.894	5.77
382.26	6.02
382.626	6.02
382.993	5.71
383.359	5.95
383.725	5.61
384.091	5.79
384.457	5.51
384.823	5.6
385.188	5.75
385.554	5.88
385.92	5.63
386.286	5.73
386.651	5.87
387.017	5.65
387.383	5.79
387.748	5.6
388.114	5.76
388.479	5.44
388.845	5.46
389.21	5.75
389.575	5.53
389.94	5.82
390.306	5.4
390.671	5.78
391.036	5.64
391.401	5.71
391.766	5.82
392.131	5.67
392.496	5.71
392.861	5.82
393.226	5.66
393.591	5.76
393.956	5.79
394.32	5.58
394.685	5.8
395.05	5.94
395.414	5.74
395.779	5.65
396.143	5.56
396.508	5.92
396.872	5.93
397.236	5.71
397.601	5.76
397.965	5.65
398.329	5.87
398.694	5.85
399.058	5.93
399.422	5.82
399.786	5.8
400.15	5.92
400.514	5.84
400.878	5.79
401.242	5.71
401.605	5.89
401.969	5.79
402.333	5.4
402.697	5.97
403.06	5.99
403.424	5.58
403.787	5.93
404.151	5.81
404.514	5.61
404.878	5.88
405.241	5.8
405.604	5.71
405.968	5.76
406.331	5.57
406.694	5.86
407.057	5.75
407.42	5.9
407.783	5.73
408.146	5.74
408.509	6.09
408.872	5.88
409.235	5.73
409.598	5.87
409.961	5.97
410.323	5.85
410.686	5.84
411.049	5.89
411.411	5.8
411.774	5.71
412.136	5.83
412.499	5.93
412.861	5.87
413.223	5.68
413.586	5.97
413.948	6.06
414.31	6
414.672	5.73
415.035	5.81
415.397	5.82
415.759	5.8
416.121	5.79
416.483	5.67
416.845	5.89
417.206	5.72
417.568	5.71
417.93	5.79
418.292	5.81
418.653	5.79
419.015	5.92
419.377	5.93
419.738	6.01
420.1	5.81
420.461	5.76
420.822	5.69
421.184	5.76
421.545	5.71
421.906	5.76
422.267	5.64
422.629	5.69
422.99	5.69
423.351	5.69
423.712	5.63
424.073	5.8
424.434	5.83
424.795	5.79
425.155	5.71
425.516	5.76
425.877	5.76
426.238	5.73
426.598	5.62
426.959	5.71
427.32	5.76
427.68	5.91
428.041	5.95
428.401	5.64
428.761	5.98
429.122	5.89
429.482	5.86
429.842	5.91
430.202	6.03
430.563	6.15
430.923	6.07
431.283	5.83
431.643	5.68
432.003	6.1
432.363	5.96
432.722	6.27
433.082	5.93
433.442	6.01
433.802	6.1
434.161	5.92
434.521	6
434.881	6.1
435.24	5.93
435.6	5.77
435.959	5.88
436.319	5.78
436.678	5.94
437.037	5.98
437.396	6.09
437.756	6.01
438.115	6.04
438.474	5.97
438.833	6.17
439.192	6.03
439.551	5.97
439.91	6
440.269	5.98
440.628	5.98
440.987	5.92
441.345	5.92
441.704	6.04
442.063	5.88
442.421	5.88
442.78	5.82
443.138	6.07
443.497	5.96
443.855	6.02
444.214	5.9
444.572	6.11
444.93	6.04
445.288	6.04
445.647	6.17
446.005	6.05
446.363	6.05
446.721	6.03
447.079	6.11
447.437	5.92
447.795	5.99
448.153	5.92
448.51	5.95
448.868	5.99
449.226	5.89
449.584	6
449.941	6
450.299	6.01
450.656	6
451.014	6.19
451.371	6.07
451.729	6.03
452.086	6.13
452.443	6.21
452.801	6.25
453.158	6.08
453.515	6.19
453.872	6.03
454.229	6.01
454.586	6.01
454.943	6.15
455.3	6.02
455.657	6.06
456.014	6.22
456.371	6.21
456.727	6.24
457.084	5.92
457.441	6.39
457.797	6.19
458.154	6.15
458.51	6.31
458.867	6.22
459.223	6.16
459.58	6.14
459.936	6.15
460.292	6.15
460.648	6.2
461.005	6.1
461.361	6.05
461.717	6.01
462.073	6.06
462.429	5.96
462.785	6.11
463.141	6.17
463.496	6.18
463.852	6.33
464.208	6.29
464.564	6.16
464.919	6.24
465.275	6.32
465.631	6.4
465.986	6.42
466.342	6.18
466.697	6.19
467.052	6.28
467.408	6.3
467.763	6.12
468.118	6.33
468.473	6.27
468.829	6.42
469.184	6.33
469.539	6.39
469.894	6.38
470.249	6.31
470.603	6.26
470.958	6.32
471.313	6.53
471.668	6.54
472.023	6.14
472.377	6.42
472.732	6.48
473.086	6.31
473.441	6.34
473.795	6.5
474.15	6.48
474.504	6.5
474.859	6.6
475.213	6.44
475.567	6.44
475.921	6.45
476.275	6.25
476.63	6.41
476.984	6.55
477.338	6.42
477.692	6.14
478.045	6.32
478.399	6.48
478.753	6.44
479.107	6.45
479.461	6.48
479.814	6.35
480.168	6.51
480.521	6.45
480.875	6.54
481.228	6.5
481.582	6.42
481.935	6.39
482.289	6.24
482.642	6.36
482.995	6.32
483.348	6.36
483.701	6.37
484.055	6.33
484.408	6.26
484.761	6.12
485.114	6.03
485.466	5.93
485.819	5.99
486.172	6.03
486.525	6.15
486.878	6.21
487.23	6.17
487.583	6.28
487.936	6.28
488.288	6.29
488.641	6.19
488.993	6.16
489.345	6.09
489.698	6.16
490.05	6.15
490.402	6.25
490.754	6.31
491.107	6.24
491.459	6.32
491.811	6.36
492.163	6.41
492.515	6.35
492.866	6.3
493.218	6.24
493.57	6.16
493.922	6.24
494.274	6.33
494.625	6.42
494.977	6.51
495.328	6.51
495.68	6.42
496.031	6.48
496.383	6.67
496.734	6.72
497.086	6.63
497.437	6.64
497.788	6.6
498.139	6.57
498.49	6.39
498.842	6.5
499.193	6.51
499.544	6.59
499.894	6.54
500.245	6.54
500.596	6.55
500.947	6.54
501.298	6.67
501.648	6.62
501.999	6.64
502.35	6.86
502.7	6.72
503.051	6.75
503.401	6.73
503.752	6.71
504.102	6.63
504.452	6.84
504.803	6.65
505.153	6.75
505.503	6.68
505.853	6.75
506.203	6.82
506.553	6.44
506.903	6.57
507.253	6.72
507.603	6.8
507.953	6.74
508.303	6.7
508.652	6.76
509.002	6.64
509.352	6.7
509.701	6.85
510.051	6.73
510.4	6.81
510.75	6.7
511.099	6.7
511.449	6.73
511.798	6.81
512.147	6.69
512.496	6.73
512.846	6.92
513.195	6.82
513.544	6.83
513.893	6.73
514.242	6.82
514.591	6.83
514.939	6.9
515.288	6.83
515.637	6.88
515.986	6.83
516.334	6.85
516.683	6.91
517.032	6.83
517.38	6.9
517.729	7.02
518.077	6.96
518.426	6.98
518.774	7.02
519.122	6.97
519.47	6.97
519.819	6.88
520.167	6.81
520.515	6.91
520.863	6.88
521.211	6.84
521.559	6.93
521.907	7
522.255	6.9
522.602	7.02
522.95	6.98
523.298	7.1
523.645	7.09
523.993	7.02
524.341	7.22
524.688	7.18
525.036	7.21
525.383	7.14
525.73	7.03
526.078	7.05
526.425	7
526.772	7.04
527.119	6.95
527.466	7
527.814	7.03
528.161	7
528.508	7.09
528.854	7.03
529.201	7.06
529.548	6.94
529.895	6.88
530.242	6.84
530.588	6.8
530.935	6.85
531.282	6.94
531.628	6.95
531.975	7.07
532.321	7.07
532.667	7.18
533.014	7.26
533.36	7.19
533.706	7.29
534.052	7.16
534.399	7.06
534.745	7.12
535.091	7.09
535.437	7.1
535.783	7.14
536.129	7.2
536.474	7.32
536.82	7.27
537.166	7.24
537.512	7.3
537.857	7.27
538.203	7.21
538.549	7.31
538.894	7.3
539.239	7.3
539.585	7.41
539.93	7.46
540.276	7.65
540.621	7.52
540.966	7.6
541.311	7.55
541.656	7.51
542.001	7.47
542.346	7.46
542.691	7.32
543.036	7.18
543.381	7.23
543.726	7.22
544.071	7.32
544.415	7.44
544.76	7.45
545.105	7.45
545.449	7.41
545.794	7.55
546.138	7.62
546.483	7.59
546.827	7.69
547.171	7.7
547.516	7.58
547.86	7.55
548.204	7.73
548.548	7.69
548.892	7.75
549.236	7.72
549.58	7.94
549.924	7.83
550.268	7.88
550.612	7.99
550.956	8.02
551.3	8.05
551.643	8
551.987	7.86
552.33	8
552.674	7.91
553.017	7.97
553.361	8.12
553.704	8.06
554.048	8.07
554.391	8.07
554.734	8
555.077	8.1
555.42	8.19
555.764	8.19
556.107	8.11
556.45	8.24
556.793	8.2
557.135	8.24
557.478	8.37
557.821	8.24
558.164	8.15
558.507	8.27
558.849	8.21
559.192	8.32
559.534	8.4
559.877	8.43
560.219	8.42
560.562	8.19
560.904	8.42
561.246	8.3
561.589	8.47
561.931	8.21
562.273	8.32
562.615	8.27
562.957	8.55
563.299	8.54
563.641	8.39
563.983	8.25
564.325	8.39
564.667	8.65
565.008	8.79
565.35	8.59
565.692	8.38
566.033	8.53
566.375	8.62
566.716	8.78
567.058	8.56
567.399	8.84
567.741	8.72
568.082	8.65
568.423	8.61
568.764	8.62
569.105	8.55
569.447	8.86
569.788	8.87
570.129	8.7
570.47	8.85
570.811	8.81
571.151	8.95
571.492	8.81
571.833	8.97
572.174	8.99
572.514	8.93
572.855	8.94
573.195	8.68
573.536	8.92
573.876	8.97
574.217	9.05
574.557	8.9
574.898	9
575.238	8.95
575.578	9.08
575.918	9.08
576.258	9.25
576.598	9.18
576.938	9.16
577.278	9.04
577.618	9.29
577.958	9.33
578.298	9.27
578.638	9.35
578.977	9.37
579.317	9.27
579.657	9.42
579.996	9.41
580.336	9.46
580.675	9.47
581.014	9.47
581.354	9.41
581.693	9.54
582.032	9.34
582.372	9.61
582.711	9.65
583.05	9.46
583.389	9.57
583.728	9.6
584.067	9.69
584.406	9.58
584.745	9.91
585.083	9.61
585.422	9.67
585.761	9.99
586.1	9.93
586.438	9.57
586.777	9.91
587.115	9.94
587.454	9.69
587.792	9.85
588.13	10.02
588.469	10.12
588.807	10.03
589.145	10.23
589.483	10.27
589.821	10.19
590.159	10.07
590.497	10.18
590.835	10.29
591.173	9.94
591.511	9.82
591.849	10.3
592.187	10.08
592.524	10.22
592.862	10.04
593.2	10.46
593.537	10.31
593.875	10.43
594.212	10.09
594.55	10.27
594.887	10.19
595.224	10.19
595.561	10.32
595.899	10.16
596.236	10.51
596.573	10.43
596.91	10.39
597.247	10.4
597.584	10.32
597.921	10.54
598.258	10.29
598.594	10.44
598.931	10.29
599.268	10.54
599.604	10.54
599.941	10.7
600.277	10.58
600.614	10.73
600.95	10.45
601.287	10.61
601.623	11.03
601.959	10.88
602.296	10.75
602.632	10.81
602.968	10.94
603.304	10.78
603.64	11.24
603.976	10.77
604.312	10.93
604.648	10.69
604.984	10.73
605.319	11
605.655	10.91
605.991	10.84
606.326	11.11
606.662	10.91
606.998	10.99
607.333	10.99
607.668	10.93
608.004	11.18
608.339	11.3
608.674	11.13
609.01	11.35
609.345	10.94
609.68	11.19
610.015	11.25
610.35	11.14
610.685	11.48
611.02	11.42
611.355	11.41
611.689	11.2
612.024	11.28
612.359	11.33
612.694	11.47
613.028	11.48
613.363	11.46
613.697	11.77
614.032	11.86
614.366	11.52
614.7	11.52
615.035	11.67
615.369	11.67
615.703	11.86
616.037	11.84
616.371	12.03
616.705	11.99
617.039	12.12
617.373	11.93
617.707	11.79
618.041	12.16
618.375	11.68
618.709	12.36
619.042	12.44
619.376	12.01
619.71	12.24
620.043	12.04
620.377	11.98
620.71	12.42
621.043	11.79
621.377	12.22
621.71	11.97
622.043	12.33
622.376	12.68
622.709	12.21
623.043	12.51
623.376	12.44
623.709	12.4
624.041	12.63
624.374	12.06
624.707	12.92
625.04	12.69
625.373	12.17
625.705	12.3
626.038	12.35
626.37	12.44
626.703	12.28
627.035	12.52
627.368	12.37
627.7	12.67
628.032	12.72
628.365	12.72
628.697	12.67
629.029	12.66
629.361	12.81
629.693	12.59
630.025	12.52
630.357	12.91
630.689	12.7
631.021	13.14
631.353	13.31
631.684	12.9
632.016	12.91
632.348	12.81
632.679	12.71
633.011	13.45
633.342	13.41
633.674	12.8
634.005	13.26
634.336	13.03
634.668	13.34
634.999	13.2
635.33	13.31
635.661	13.59
635.992	12.92
636.323	13.18
636.654	13.53
636.985	13.29
637.316	13.5
637.647	13.6
637.977	13.57
638.308	13.7
638.639	13.38
638.969	13.66
639.3	13.72
639.63	13.7
639.961	13.19
640.291	13.96
640.622	13.66
640.952	13.93
641.282	13.69
641.612	13.61
641.943	14.21
642.273	13.87
642.603	14.18
642.933	13.79
643.263	13.71
643.592	13.88
643.922	14.18
644.252	14.07
644.582	14.29
644.911	13.99
645.241	14.4
645.571	14.19
645.9	14.24
646.23	14.58
646.559	14.45
646.888	14.14
647.218	13.72
647.547	13.91
647.876	13.94
648.205	14.26
648.534	14.37
648.863	14.28
649.192	14.17
649.521	14.45
649.85	14.6
650.179	14.6
650.508	14.89
650.837	14.53
651.165	14.67
651.494	15.18
651.822	14.31
652.151	14.44
652.479	14.34
652.808	14.4
653.136	14.35
653.465	15
653.793	15.05
654.121	14.57
654.449	14.66
654.777	15.36
655.105	14.91
655.433	14.78
655.761	15.28
656.089	15.21
656.417	14.78
656.745	15.4
657.073	15.42
657.4	15.2
657.728	15.8
658.056	15.46
658.383	15
658.711	15.48
659.038	15.2
659.365	15.57
659.693	15.12
660.02	15.56
660.347	15.36
660.674	15.46
661.001	15.47
661.329	15.56
661.656	15.5
661.982	16.19
662.309	15.49
662.636	15.84
662.963	15.71
663.29	15.72
663.616	15.65
663.943	15.62
664.27	15.88
664.596	16.06
664.923	15.86
665.249	16.37
665.576	16.48
665.902	15.86
666.228	16.03
666.554	15.57
666.881	15.7
667.207	16.1
667.533	16.54
667.859	16.52
668.185	16.33
668.511	16.09
668.837	16.47
669.162	17.01
669.488	16.07
669.814	16.19
670.139	16.22
670.465	16.11
670.791	16.57
671.116	16.56
671.442	16.14
671.767	16.57
672.092	16.4
672.418	16.71
672.743	16.16
673.068	16.82
673.393	16.57
673.718	16.76
674.043	16.92
674.368	16.94
674.693	16.82
675.018	16.93
675.343	17.23
675.667	17.31
675.992	17.66
676.317	17.09
676.641	16.66
676.966	17.55
677.29	16.61
677.615	17.03
677.939	17.04
678.264	16.48
678.588	16.94
678.912	17.21
679.236	16.94
679.56	17.64
679.885	17.34
680.209	17.4
680.532	17.25
680.856	18.26
681.18	17.56
681.504	17.09
681.828	17.34
682.152	17.52
682.475	17.48
682.799	17.27
683.122	17.33
683.446	17.74
683.769	17.74
684.093	17.85
684.416	17.54
684.739	18.39
685.062	17.36
685.386	17.64
685.709	18.08
686.032	17.75
686.355	18.12
686.678	17.95
687.001	17.38
687.324	18.18
687.646	17.87
687.969	18.11
688.292	19.22
688.614	18.03
688.937	18.48
689.26	17.52
689.582	18.63
689.904	18.25
690.227	18.7
690.549	18.5
690.871	18.42
691.194	18.66
691.516	17.96
691.838	19.03
692.16	18.95
692.482	18.58
692.804	19.08
693.126	18.27
693.448	18.26
693.769	18.53
694.091	18.96
694.413	19.6
694.735	18.12
695.056	18.94
695.378	19.74
695.699	19.08
696.021	19.01
696.342	18.24
696.663	19.04
696.984	19.71
697.306	18.84
697.627	18.95
697.948	19.44
698.269	19.71
698.59	19.3
698.911	18.44
699.232	19.41
699.553	19.28
699.873	20.25
700.194	19.04
700.515	19.53
700.835	19.28
701.156	19.64
701.477	19.34
701.797	19.64
702.117	19.92
702.438	20.03
702.758	19.25
703.078	20.19
703.398	19.96
703.719	20.14
704.039	19.67
704.359	19.85
704.679	20.32
704.999	19.34
705.319	19.63
705.638	20.09
705.958	19.85
706.278	20.38
706.597	20.53
706.917	20.23
707.237	20.31
707.556	20.37
707.876	20.27
708.195	19.96
708.514	20.94
708.834	21.33
709.153	20.81
709.472	20.32
709.791	21.33
710.11	20.82
710.429	21.25
710.748	21.23
711.067	20.54
711.386	20.66
711.705	20.77
712.023	21.26
712.342	20.43
712.661	20.69
712.979	21.5
713.298	21.23
713.616	20.62
713.935	20.2
714.253	21.63
714.572	20.1
714.89	21.39
715.208	21.74
715.526	20.87
715.844	20.53
716.162	21.63
716.48	21.86
716.798	21.03
717.116	21.46
717.434	21.66
717.752	20.9
718.069	21.32
718.387	22.03
718.705	20
719.022	21.26
719.34	21.49
719.657	21.54
719.975	21.27
720.292	21.07
720.609	21.85
720.927	21.22
721.244	21.57
721.561	21.3
721.878	22.41
722.195	21.73
722.512	21.53
722.829	22.11
723.146	21.09
723.463	21.99
723.779	22.49
724.096	21.47
724.413	22.66
724.729	20.99
725.046	22.52
725.362	22.1
725.679	23.3
725.995	22.31
726.311	21.78
726.628	21.81
726.944	23.46
727.26	22.39
727.576	20.83
727.892	22.18
728.208	24.19
728.524	22.97
728.84	23.01
729.156	22.08
729.472	23.58
729.787	22.95
730.103	21.81
730.419	23.63
730.734	21.47
731.05	23.02
731.365	23.09
731.681	22.95
731.996	22.81
732.311	21.6
732.626	23.4
732.942	22.2
733.257	21.1
733.572	21.82
733.887	22.1
734.202	22.54
734.517	23.89
734.832	23.55
735.146	21.75
735.461	21.9
735.776	24.46
736.091	23.28
736.405	23.57
736.72	22.83
737.034	22.9
737.349	23.84
737.663	22.15
737.977	23.11
738.292	23.9
738.606	24.08
738.92	24.14
739.234	23.56
739.548	24.79
739.862	23.29
740.176	23.87
740.49	22.4
740.804	23.38
741.117	23.19
741.431	22.54
741.745	24.36
742.058	24.36
742.372	22.92
742.685	24.79
742.999	25.03
743.312	24.56
743.626	25.32
743.939	23.14
744.252	24.65
744.565	25.51
744.878	23.15
745.191	25.14
745.505	24.37
745.817	23.96
746.13	25.54
746.443	23.71
746.756	24.55
747.069	23.81
747.381	25.54
747.694	24.73
748.007	24.48
748.319	23.59
748.632	24.99
748.944	23.06
749.256	25.85
749.569	24.98
749.881	26.35
750.193	25.91
750.505	24.5
750.817	26.66
751.129	25.85
751.441	25.46
751.753	25.35
752.065	25.07
752.377	24.18
752.689	25.73
753	25.17
753.312	25.03
753.624	24.95
753.935	26.08
754.247	25.4
754.558	26.1
754.869	25
755.181	25.62
755.492	25.89
755.803	23.41
756.114	25.37
756.425	25.22
756.736	24.37
757.047	25.26
757.358	24.5
757.669	25.9
757.98	25.74
758.291	25.81
758.601	26.43
758.912	26.14
759.223	28.73
759.533	25.8
759.844	25.84
760.154	26.6
760.464	26.69
760.775	26.08
761.085	25.53
761.395	25.6
761.705	26.15
762.016	27.36
762.326	27.8
762.636	26.2
762.945	25.77
763.255	27.79
763.565	24.78
763.875	25.41
764.185	26.9
764.494	27.09
764.804	25.51
765.113	27.72
765.423	25.9
765.732	26.07
766.042	27.51
766.351	26.89
766.66	26.19
766.97	26.02
767.279	26.32
767.588	26.99
767.897	26.99
768.206	27.19
768.515	25.95
768.824	25.27
769.133	27.5
769.441	25.83
769.75	27.05
770.059	27.14
770.367	25.01
770.676	26.58
770.984	28.42
771.293	24.86
771.601	28.83
771.91	27.82
772.218	27.65
772.526	26.39
772.834	27.8
773.142	25.37
773.45	26.05
773.758	28.2
774.066	29.7
774.374	30.58
774.682	27.19
774.99	27.43
775.298	28.04
775.605	27.02
775.913	30.79
776.22	26.64
776.528	29.72
776.835	28.03
777.143	25.49
777.45	26.58
777.757	26.79
778.065	25.35
778.372	27.41
778.679	30.48
778.986	26.17
779.293	32.01
779.6	29.05
779.907	26.21
780.214	27.68
780.52	29
780.827	25.6
781.134	31.8
781.44	28.68
781.747	26.83
782.053	26.39
782.36	30.52
782.666	27.15
782.973	26.24
783.279	29.9
783.585	25.75
783.891	29.06
784.197	31.26
784.503	25.67
784.809	31.67
785.115	27.01
785.421	27.3
785.727	30.21
786.033	27.47
786.339	23.9
786.644	30.33
786.95	24.63
787.255	27.36
787.561	29.68
787.866	25.87
788.172	29.09
788.477	26.47
788.782	30.41
789.088	28.35
789.393	28.04
789.698	26.35
790.003	30.18
790.308	29.15
790.613	26.84
790.918	29.26
791.223	31.89
791.527	29.37
791.832	29.92
792.137	30.88
792.441	30.47
792.746	26.26
793.05	29.8
793.355	29.8
793.659	32.3
793.963	27.4
794.268	28.39
794.572	26.19
794.876	27.7
795.18	29.67
795.484	29.83
795.788	28.03
796.092	33.77
796.396	31.41
796.7	31.81
797.004	29.34
797.307	29.13
797.611	30.11
797.915	32.95
798.218	29.79
798.522	33.7
798.825	32.12
799.128	31.09
799.432	28.13
799.735	28.18
800.038	30.42
800.341	26.61
800.644	32.42
800.947	27.05
801.25	29.53
801.553	29.09
801.856	30.03
802.159	29.35
802.462	26.5
802.764	26.02
803.067	31.33
803.37	29.81
803.672	29.4
803.975	31.61
804.277	28.45
804.579	33.13
804.882	29
805.184	31.06
805.486	31.25
805.788	37.35
806.09	29.33
806.392	29.6
806.694	29.37
806.996	29.26
807.298	32.62
807.6	26.13
807.902	29.3
808.203	28.08
808.505	24.84
808.807	29.44
809.108	31.85
809.409	35.79
809.711	35.79
810.012	37.14
810.313	33.97
810.615	32.23
810.916	32.03
811.217	33.8
811.518	31.05
811.819	28.2
812.12	29.35
812.421	36.66
812.722	36.41
813.023	31.26
813.323	33.79
813.624	32.27
813.925	29.22
814.225	33.85
814.526	31.12
814.826	29.2
815.126	29.03
815.427	36.9
815.727	32.67
816.027	29.28
816.327	35.12
816.627	34.71
816.927	28.81
817.227	32.82
817.527	30.11
817.827	38.95
818.127	31.96
818.427	35.82
818.727	35.74
819.026	40.31
819.326	27.95
819.625	31.62
819.925	32.8
820.224	27.05
820.524	29.32
820.823	28.76
821.122	28.94
821.421	28.16
821.72	30.51
822.019	33.16
822.318	28.85
822.617	31.47
822.916	32.12
823.215	34.67
823.514	31.96
823.813	33.1
824.111	32.61
824.41	33.38
824.709	33.37
825.007	32.33
825.306	33.28
825.604	32.63
825.902	33.83
826.201	32.34
826.499	32.15
826.797	33.68
827.095	32.4
827.393	32.62
827.691	32.56
827.989	35.98
828.287	33.13
828.585	31.98
828.882	30.82
829.18	33.25
829.478	33.1
829.775	32.77
830.073	33.21
830.37	34.42
830.668	34.73
830.965	36.17
831.263	35.2
831.56	32.79
831.857	33.77
832.154	31.08
832.451	33.2
832.748	31.78
833.045	32.96
833.342	36.53
833.639	30.57
833.936	33.01
834.232	28.49
834.529	33.25
834.826	34.63
835.122	31.51
835.419	35.07
835.715	34.05
836.012	34.45
836.308	37.02
836.604	33.43
836.901	33.7
837.197	32.01
837.493	33.59
837.789	32.91
838.085	32.65
838.381	31.61
838.677	33.41
838.972	35.77
839.268	32.81
839.564	35.22
839.86	26.91
840.155	36.36
840.451	30.46
840.746	37.42
841.042	30.83
841.337	39.4
841.632	36.39
841.928	25.16
842.223	31.56
842.518	36.13
842.813	24.56
843.108	31.05
843.403	33.86
843.698	40.74
843.993	34.07
844.287	38.11
844.582	36.7
844.877	38.28
845.171	31.04
845.466	40.31
845.761	23.96
846.055	44.32
846.349	26.81
846.644	27.48
846.938	36.27
847.232	28.84
847.526	27.88
847.82	33.76
848.114	36.83
848.408	28.37
848.702	43.85
848.996	61.04
849.29	39.29
849.584	36.64
849.877	29.1
850.171	39.05
850.465	35.85
850.758	37.01
851.052	40.37
851.345	45.57
851.638	49.32
851.932	37.08
852.225	48.2
852.518	24.18
852.811	40.11
853.104	33.21
853.397	26.93
853.69	37.08
853.983	35.19
854.276	45.32
854.569	39.67
854.861	46.18
855.154	48.57
855.447	48.65
855.739	26.58
856.032	40.87
856.324	32.59
856.616	34.76
856.909	38.68
857.201	39.36
857.493	60.17
857.785	44.91
858.077	36.05
858.369	48.43
858.661	42.43
858.953	53.39
859.245	28.34
859.537	44.75
859.829	33.34
860.12	41.68
860.412	14.28
860.703	32.66
860.995	59.4
861.286	37.83
861.578	16.9
861.869	35.18
862.16	3.38
862.452	43.15
862.743	40.25
863.034	15.06
863.325	48.05
863.616	43.06
863.907	45.26
864.198	11.03
864.488	37.22
864.779	60.22
865.07	39.67
865.36	30.14
865.651	35.1
865.941	38.86
866.232	51.77
866.522	31.3
866.813	42.99
867.103	21.53
867.393	47.58
867.683	30.24
867.973	52.34
868.263	39.4
868.553	44.94
868.843	49.6
869.133	23.18
869.423	42.82
869.713	27.46
870.002	-7.78
870.292	14.49
870.582	22.91
870.871	38.96
871.161	17.07
871.45	68.8
871.739	17.79
872.029	14.35
872.318	20.93
872.607	49.59
872.896	53.47
873.185	54.04
873.474	35.85
873.763	31.43
874.052	31.41
874.341	44.17
874.63	35.08
874.918	49.68
875.207	26.43
875.496	24.58
875.784	13.73
876.073	15.43
876.361	42.81
876.649	23.32
876.938	55.59
877.226	34.64
877.514	36.75
877.802	33.68
878.09	25.81
878.378	43.27
878.666	32.98
878.954	22.24
879.242	28.53
879.53	39.96
879.817	23.78
880.105	24.8
880.392	47.94
880.68	24.27
880.967	59.76
881.255	40.94
881.542	30.97
881.83	60.45
882.117	41.07
882.404	50.51
882.691	50.38
882.978	33.53
883.265	33.4
883.552	43.17
883.839	31.85
884.126	25.28
884.413	43.04
884.699	42.44
884.986	35.06
885.273	42.48
885.559	42.48
885.846	42.48
