Data from 0039_chest_Reflection__0__75.txt Node

Date: Fri Nov 04 15:24:11 CDT 2022
User: ToomeyLab
Spectrometer: FLMS14357
Trigger mode: 0
Integration Time (sec): 1.000000E-2
Scans to average: 100
Electric dark correction enabled: true
Nonlinearity correction enabled: false
Boxcar width: 0
XAxis mode: Wavelengths
Number of Pixels in Spectrum: 2048
>>>>>Begin Spectral Data<<<<<
189.047	157.35
189.435	157.35
189.823	157.35
190.211	213.42
190.599	5.72
190.987	230.92
191.375	-111.29
191.763	193.92
192.151	58.21
192.538	-138.19
192.926	87.89
193.314	122.26
193.702	111.45
194.089	58.72
194.477	-306.47
194.864	674.59
195.252	34.44
195.639	109.65
196.027	195.68
196.414	-147.66
196.801	175.92
197.189	106.52
197.576	41.29
197.963	-63.92
198.351	-11.13
198.738	12.42
199.125	15.8
199.512	-10.12
199.899	-46.38
200.286	-15.31
200.673	1.84
201.06	5.08
201.447	-36.47
201.833	-5.13
202.22	6.92
202.607	-7.24
202.994	30.71
203.38	15.64
203.767	-18.17
204.154	30.05
204.54	-10.11
204.927	45.9
205.313	16.84
205.699	22.06
206.086	17.96
206.472	-4.57
206.858	20.03
207.245	0.42
207.631	-2.24
208.017	17.14
208.403	17.84
208.789	33.41
209.175	-22.16
209.561	-78.49
209.947	-97.21
210.333	19.75
210.719	-18.09
211.105	-46.25
211.491	-1.93
211.876	-11.16
212.262	-25.65
212.648	-19.06
213.034	33.9
213.419	13.19
213.805	-16.19
214.19	-29.86
214.576	-20.41
214.961	38
215.346	-19.83
215.732	30.1
216.117	5.34
216.502	3.53
216.888	-13.77
217.273	8.4
217.658	-12.04
218.043	-18.66
218.428	31.24
218.813	7.36
219.198	1.39
219.583	-7.37
219.968	29.24
220.353	-3.7
220.738	-13.08
221.122	-1.35
221.507	5.97
221.892	-13.55
222.276	-4.72
222.661	-0.7
223.046	-2.24
223.43	8.62
223.815	0.29
224.199	3.66
224.583	-4.31
224.968	4.17
225.352	6.17
225.736	-2.24
226.121	-5.1
226.505	0.63
226.889	-0.85
227.273	3.21
227.657	-0.32
228.041	5.22
228.425	4.18
228.809	4.22
229.193	2.58
229.577	2.9
229.961	2.33
230.344	2.84
230.728	3.09
231.112	2.79
231.495	3.34
231.879	3.73
232.263	1.93
232.646	2.77
233.03	3.01
233.413	2.03
233.797	2.52
234.18	2.8
234.563	3.19
234.946	4.27
235.33	5.81
235.713	2.84
236.096	3.6
236.479	3.68
236.862	2.69
237.245	1.47
237.628	3.88
238.011	2.01
238.394	3.35
238.777	3.8
239.16	4.52
239.543	1.85
239.925	2.67
240.308	3.63
240.691	2.82
241.073	2.88
241.456	2.96
241.838	2.44
242.221	3.1
242.603	3.12
242.986	2.72
243.368	3.37
243.75	3.03
244.133	3.32
244.515	3.54
244.897	3.26
245.279	3.64
245.661	3.58
246.043	4
246.425	3.31
246.807	3.92
247.189	3.39
247.571	3.5
247.953	2.82
248.335	3.3
248.717	3.21
249.098	3.1
249.48	3.21
249.862	3.31
250.243	2.88
250.625	2.99
251.006	3.15
251.388	3.56
251.769	3.43
252.151	3.87
252.532	3.46
252.913	3.54
253.295	2.93
253.676	3.41
254.057	3.08
254.438	2.72
254.819	3.11
255.2	2.93
255.581	3.21
255.962	3.98
256.343	2
256.724	3.61
257.105	2.45
257.486	4.18
257.867	4.77
258.247	3.69
258.628	1.37
259.009	2.3
259.389	2.86
259.77	3.12
260.15	2.39
260.531	2.92
260.911	2.72
261.292	2.7
261.672	3
262.052	3.13
262.432	3.09
262.813	2.87
263.193	2.44
263.573	2.8
263.953	2.77
264.333	3.33
264.713	3.37
265.093	2.77
265.473	3.38
265.853	2.31
266.233	3.23
266.612	3.34
266.992	3.14
267.372	2.86
267.752	3.25
268.131	2.94
268.511	2.77
268.89	3.41
269.27	2.93
269.649	3.02
270.029	2.87
270.408	2.72
270.787	2.9
271.167	2.57
271.546	3.4
271.925	2.43
272.304	3.51
272.683	2.71
273.062	2.82
273.441	3.3
273.82	2.83
274.199	3.06
274.578	2.88
274.957	2.72
275.336	2.7
275.715	2.91
276.093	2.45
276.472	2.27
276.851	2.39
277.229	2.78
277.608	2.84
277.986	2.78
278.365	2.91
278.743	3.42
279.122	2.55
279.5	3.03
279.878	2.99
280.257	2.6
280.635	2.76
281.013	2.75
281.391	3.14
281.769	3.18
282.147	2.53
282.525	3.26
282.903	2.64
283.281	3.5
283.659	2.91
284.037	2.98
284.415	2.93
284.792	2.91
285.17	2.77
285.548	3.15
285.925	2.92
286.303	3.01
286.68	3.21
287.058	2.96
287.435	2.83
287.813	3.03
288.19	2.8
288.567	3.08
288.945	3.11
289.322	3.18
289.699	2.77
290.076	3
290.453	2.46
290.83	2.94
291.207	3
291.584	3.18
291.961	3.33
292.338	2.9
292.715	2.81
293.092	3.02
293.469	3.19
293.845	2.62
294.222	3.15
294.599	2.69
294.975	3.41
295.352	2.81
295.728	3
296.105	3.11
296.481	2.86
296.858	3.12
297.234	3.19
297.61	3.28
297.986	2.58
298.363	2.73
298.739	3.26
299.115	3.28
299.491	2.75
299.867	3.02
300.243	2.97
300.619	3.23
300.995	3.35
301.371	3.28
301.746	2.81
302.122	2.73
302.498	2.85
302.874	2.93
303.249	2.96
303.625	2.96
304	3.09
304.376	3.04
304.751	3.15
305.127	2.5
305.502	3.17
305.878	3.15
306.253	2.77
306.628	2.8
307.003	3.08
307.378	2.92
307.754	2.71
308.129	2.78
308.504	3.01
308.879	3.21
309.254	3.46
309.629	3.06
310.003	3.16
310.378	3.06
310.753	3.58
311.128	2.64
311.502	3.23
311.877	3.02
312.252	3.05
312.626	3.17
313.001	2.93
313.375	3.12
313.75	2.93
314.124	3.19
314.498	2.97
314.873	3.35
315.247	2.93
315.621	3.04
315.995	3.23
316.369	3
316.743	3.14
317.117	3.68
317.491	3.31
317.865	2.91
318.239	3.02
318.613	3.64
318.987	3.34
319.361	2.92
319.734	3.21
320.108	2.78
320.482	2.89
320.855	3
321.229	2.92
321.602	2.72
321.976	3.4
322.349	3.71
322.723	3.51
323.096	3.53
323.469	3.26
323.843	3.44
324.216	3.62
324.589	3
324.962	3.72
325.335	3.24
325.708	2.71
326.081	3.16
326.454	2.54
326.827	2.82
327.2	2.84
327.573	2.45
327.945	3.08
328.318	3.21
328.691	2.93
329.063	2.84
329.436	3.39
329.809	3.09
330.181	2.97
330.553	3.12
330.926	3.31
331.298	3.4
331.671	3.19
332.043	3.18
332.415	2.9
332.787	2.76
333.159	2.84
333.532	2.5
333.904	3.08
334.276	3.03
334.648	3.31
335.02	2.78
335.391	3.36
335.763	3.43
336.135	3.05
336.507	3.21
336.879	3.09
337.25	2.92
337.622	2.99
337.993	3.46
338.365	2.88
338.736	3.28
339.108	3.64
339.479	3.12
339.851	2.8
340.222	2.84
340.593	3.22
340.964	3.31
341.336	2.8
341.707	2.59
342.078	3.2
342.449	3.08
342.82	3.39
343.191	3.03
343.562	3.28
343.933	3.4
344.303	3.52
344.674	3.25
345.045	2.95
345.416	2.85
345.786	3.31
346.157	3.39
346.527	3.56
346.898	3.4
347.268	3.02
347.639	3.32
348.009	3.43
348.38	3.22
348.75	2.65
349.12	2.77
349.49	3.81
349.861	2.91
350.231	3.51
350.601	3.15
350.971	2.82
351.341	3.26
351.711	3.04
352.081	3.18
352.45	3.48
352.82	3.5
353.19	3.4
353.56	3.27
353.929	2.93
354.299	3.74
354.669	3.38
355.038	3.48
355.408	2.94
355.777	3.17
356.147	3.01
356.516	2.95
356.885	3.25
357.254	3.16
357.624	2.98
357.993	2.93
358.362	3.15
358.731	3.21
359.1	3.18
359.469	3.28
359.838	3.24
360.207	3.17
360.576	3.23
360.945	3.4
361.314	3.57
361.682	3.13
362.051	3.2
362.42	3.38
362.788	3.08
363.157	3.18
363.525	3.32
363.894	3.28
364.262	3.31
364.631	3.23
364.999	3.13
365.367	3.06
365.735	3.27
366.104	2.92
366.472	3.2
366.84	2.92
367.208	3.39
367.576	3.26
367.944	3.27
368.312	3.53
368.68	2.99
369.048	3.22
369.416	2.97
369.783	3.06
370.151	3.01
370.519	3.67
370.886	2.92
371.254	3.23
371.621	3.52
371.989	3.13
372.356	3.36
372.724	3.19
373.091	3.37
373.458	2.97
373.826	3.23
374.193	3.1
374.56	3.09
374.927	3.54
375.294	3.24
375.661	3.21
376.028	3.43
376.395	3.44
376.762	3.27
377.129	3.19
377.496	3.38
377.863	3.37
378.229	3.21
378.596	3.31
378.963	3.16
379.329	2.99
379.696	3.16
380.062	3.68
380.429	3.36
380.795	3.32
381.161	3.26
381.528	3.41
381.894	2.82
382.26	3.31
382.626	3.05
382.993	3.37
383.359	3.39
383.725	3.41
384.091	3.15
384.457	3.5
384.823	3.39
385.188	3.43
385.554	3.2
385.92	3.05
386.286	3.17
386.651	3.22
387.017	3.05
387.383	3.39
387.748	3.2
388.114	3.09
388.479	3.85
388.845	3.33
389.21	3.47
389.575	3.6
389.94	3.32
390.306	3.43
390.671	3.27
391.036	3.05
391.401	3.47
391.766	3.28
392.131	3.14
392.496	3.58
392.861	3.61
393.226	3.27
393.591	3.37
393.956	3.41
394.32	3.34
394.685	3.31
395.05	3.51
395.414	3.43
395.779	3.24
396.143	3.39
396.508	3.48
396.872	3.41
397.236	3.37
397.601	3.34
397.965	3.32
398.329	3.37
398.694	3.6
399.058	3.41
399.422	3.4
399.786	3.3
400.15	3.03
400.514	3.43
400.878	3.31
401.242	3.45
401.605	3.26
401.969	3.46
402.333	3.53
402.697	3.48
403.06	3.53
403.424	3.36
403.787	3.38
404.151	3.32
404.514	3.55
404.878	3.22
405.241	3.42
405.604	3.48
405.968	3.39
406.331	3.27
406.694	3.25
407.057	3.25
407.42	3.43
407.783	3.23
408.146	3.31
408.509	3.41
408.872	3.36
409.235	3.59
409.598	3.51
409.961	3.59
410.323	3.42
410.686	3.3
411.049	3.44
411.411	3.22
411.774	3.48
412.136	3.49
412.499	3.37
412.861	3.51
413.223	3.25
413.586	3.51
413.948	3.53
414.31	3.39
414.672	3.63
415.035	3.47
415.397	3.34
415.759	3.49
416.121	3.29
416.483	3.39
416.845	3.31
417.206	3.32
417.568	3.57
417.93	3.38
418.292	3.28
418.653	3.54
419.015	3.42
419.377	3.46
419.738	3.37
420.1	3.51
420.461	3.46
420.822	3.29
421.184	3.41
421.545	3.23
421.906	3.49
422.267	3.35
422.629	3.45
422.99	3.36
423.351	3.24
423.712	3.37
424.073	3.52
424.434	3.34
424.795	3.41
425.155	3.43
425.516	3.39
425.877	3.43
426.238	3.35
426.598	3.36
426.959	3.36
427.32	3.39
427.68	3.39
428.041	3.41
428.401	3.56
428.761	3.51
429.122	3.4
429.482	3.52
429.842	3.26
430.202	3.47
430.563	3.55
430.923	3.54
431.283	3.42
431.643	3.57
432.003	3.67
432.363	3.54
432.722	3.6
433.082	3.62
433.442	3.39
433.802	3.45
434.161	3.45
434.521	3.36
434.881	3.43
435.24	3.4
435.6	3.4
435.959	3.52
436.319	3.5
436.678	3.43
437.037	3.4
437.396	3.59
437.756	3.69
438.115	3.41
438.474	3.59
438.833	3.49
439.192	3.46
439.551	3.53
439.91	3.54
440.269	3.48
440.628	3.62
440.987	3.58
441.345	3.52
441.704	3.45
442.063	3.5
442.421	3.48
442.78	3.49
443.138	3.51
443.497	3.45
443.855	3.5
444.214	3.56
444.572	3.42
444.93	3.49
445.288	3.58
445.647	3.36
446.005	3.56
446.363	3.49
446.721	3.52
447.079	3.45
447.437	3.43
447.795	3.47
448.153	3.46
448.51	3.53
448.868	3.44
449.226	3.39
449.584	3.48
449.941	3.52
450.299	3.56
450.656	3.53
451.014	3.49
451.371	3.67
451.729	3.69
452.086	3.59
452.443	3.55
452.801	3.61
453.158	3.56
453.515	3.52
453.872	3.52
454.229	3.72
454.586	3.6
454.943	3.64
455.3	3.58
455.657	3.69
456.014	3.65
456.371	3.62
456.727	3.66
457.084	3.71
457.441	3.67
457.797	3.67
458.154	3.83
458.51	3.69
458.867	3.64
459.223	3.73
459.58	3.93
459.936	3.6
460.292	3.68
460.648	3.6
461.005	3.56
461.361	3.65
461.717	3.53
462.073	3.58
462.429	3.58
462.785	3.6
463.141	3.66
463.496	3.53
463.852	3.59
464.208	3.65
464.564	3.58
464.919	3.85
465.275	3.68
465.631	3.69
465.986	3.8
466.342	3.75
466.697	3.83
467.052	3.71
467.408	3.44
467.763	3.72
468.118	3.86
468.473	3.72
468.829	3.56
469.184	3.48
469.539	3.67
469.894	3.85
470.249	3.58
470.603	3.74
470.958	3.55
471.313	3.59
471.668	3.46
472.023	3.66
472.377	3.71
472.732	3.69
473.086	3.74
473.441	3.74
473.795	3.67
474.15	3.67
474.504	3.65
474.859	3.56
475.213	3.77
475.567	3.61
475.921	3.69
476.275	3.93
476.63	3.73
476.984	3.82
477.338	3.58
477.692	3.66
478.045	3.65
478.399	3.67
478.753	3.81
479.107	3.74
479.461	3.82
479.814	3.88
480.168	3.68
480.521	3.63
480.875	3.8
481.228	3.76
481.582	3.81
481.935	3.81
482.289	3.76
482.642	3.82
482.995	3.77
483.348	3.75
483.701	3.8
484.055	3.76
484.408	3.78
484.761	3.69
485.114	3.66
485.466	3.56
485.819	3.54
486.172	3.56
486.525	3.54
486.878	3.61
487.23	3.66
487.583	3.62
487.936	3.69
488.288	3.67
488.641	3.73
488.993	3.64
489.345	3.58
489.698	3.61
490.05	3.65
490.402	3.64
490.754	3.75
491.107	3.77
491.459	3.81
491.811	3.73
492.163	3.83
492.515	3.88
492.866	3.77
493.218	3.72
493.57	3.66
493.922	3.76
494.274	3.68
494.625	3.76
494.977	3.84
495.328	3.85
495.68	3.75
496.031	3.8
496.383	3.89
496.734	3.88
497.086	4.08
497.437	3.87
497.788	4.02
498.139	3.85
498.49	3.85
498.842	3.94
499.193	3.91
499.544	3.87
499.894	3.85
500.245	3.95
500.596	3.9
500.947	3.9
501.298	3.84
501.648	3.88
501.999	4.11
502.35	3.88
502.7	3.9
503.051	4
503.401	4
503.752	4.02
504.102	4.05
504.452	3.98
504.803	4.05
505.153	3.95
505.503	4.06
505.853	4.05
506.203	3.99
506.553	4.05
506.903	4.12
507.253	3.99
507.603	4.07
507.953	4.06
508.303	3.97
508.652	4.13
509.002	4.2
509.352	4.17
509.701	4.03
510.051	4.05
510.4	3.92
510.75	4.05
511.099	3.99
511.449	4
511.798	4.04
512.147	4.02
512.496	3.99
512.846	3.94
513.195	4.12
513.544	4.04
513.893	4.08
514.242	4.1
514.591	4
514.939	4.18
515.288	4.2
515.637	4.19
515.986	4.03
516.334	4.11
516.683	4.13
517.032	4.14
517.38	4.24
517.729	4.13
518.077	4.19
518.426	4.19
518.774	4.29
519.122	4.11
519.47	4.23
519.819	4.09
520.167	4.11
520.515	4.08
520.863	4.1
521.211	4.09
521.559	4.21
521.907	4.17
522.255	4.19
522.602	4.21
522.95	4.28
523.298	4.29
523.645	4.27
523.993	4.26
524.341	4.21
524.688	4.43
525.036	4.31
525.383	4.33
525.73	4.4
526.078	4.37
526.425	4.3
526.772	4.2
527.119	4.2
527.466	4.22
527.814	4.27
528.161	4.24
528.508	4.27
528.854	4.32
529.201	4.25
529.548	4.29
529.895	4.26
530.242	4.18
530.588	4.18
530.935	4.19
531.282	4.19
531.628	4.15
531.975	4.24
532.321	4.31
532.667	4.4
533.014	4.37
533.36	4.37
533.706	4.53
534.052	4.4
534.399	4.36
534.745	4.47
535.091	4.28
535.437	4.27
535.783	4.37
536.129	4.44
536.474	4.46
536.82	4.47
537.166	4.5
537.512	4.5
537.857	4.53
538.203	4.46
538.549	4.44
538.894	4.52
539.239	4.54
539.585	4.41
539.93	4.53
540.276	4.57
540.621	4.54
540.966	4.77
541.311	4.57
541.656	4.67
542.001	4.68
542.346	4.63
542.691	4.6
543.036	4.44
543.381	4.57
543.726	4.56
544.071	4.56
544.415	4.55
544.76	4.62
545.105	4.66
545.449	4.68
545.794	4.8
546.138	4.73
546.483	4.74
546.827	4.73
547.171	4.86
547.516	4.84
547.86	4.83
548.204	4.85
548.548	4.82
548.892	4.79
549.236	4.82
549.58	4.91
549.924	4.91
550.268	4.93
550.612	4.9
550.956	4.89
551.3	4.9
551.643	5.08
551.987	4.97
552.33	5.06
552.674	5.05
553.017	5.11
553.361	5.17
553.704	5.06
554.048	5.04
554.391	5.13
554.734	5.14
555.077	5.18
555.42	5.18
555.764	5.34
556.107	5.15
556.45	5.33
556.793	5.24
557.135	5.21
557.478	5.12
557.821	5.46
558.164	5.41
558.507	5.19
558.849	5.52
559.192	5.43
559.534	5.17
559.877	5.38
560.219	5.47
560.562	5.37
560.904	5.44
561.246	5.3
561.589	5.38
561.931	5.4
562.273	5.62
562.615	5.41
562.957	5.44
563.299	5.6
563.641	5.59
563.983	5.62
564.325	5.39
564.667	5.49
565.008	5.49
565.35	5.68
565.692	5.65
566.033	5.69
566.375	5.46
566.716	5.77
567.058	5.6
567.399	5.81
567.741	5.72
568.082	5.76
568.423	5.64
568.764	5.72
569.105	5.82
569.447	5.75
569.788	5.72
570.129	5.76
570.47	5.82
570.811	5.9
571.151	5.89
571.492	5.88
571.833	5.82
572.174	6.03
572.514	5.8
572.855	5.8
573.195	5.94
573.536	5.93
573.876	5.9
574.217	5.96
574.557	5.97
574.898	6.12
575.238	5.95
575.578	6.13
575.918	6.08
576.258	6.19
576.598	6.26
576.938	6.22
577.278	5.98
577.618	5.99
577.958	6.18
578.298	6.31
578.638	6.3
578.977	6.38
579.317	6.42
579.657	6.38
579.996	6.4
580.336	6.22
580.675	6.39
581.014	6.56
581.354	6.33
581.693	6.7
582.032	6.59
582.372	6.59
582.711	6.46
583.05	6.59
583.389	6.56
583.728	6.58
584.067	6.81
584.406	6.44
584.745	6.82
585.083	6.55
585.422	6.78
585.761	6.66
586.1	6.67
586.438	6.69
586.777	6.78
587.115	6.71
587.454	7.07
587.792	7.02
588.13	7
588.469	6.94
588.807	7.16
589.145	7.02
589.483	6.79
589.821	7.02
590.159	6.92
590.497	7.14
590.835	7.08
591.173	7.11
591.511	7.27
591.849	7.14
592.187	7.18
592.524	7.22
592.862	7.14
593.2	7.02
593.537	7.12
593.875	7.39
594.212	7.09
594.55	7.27
594.887	7.54
595.224	7.57
595.561	7.08
595.899	7.44
596.236	7.58
596.573	7.43
596.91	7.37
597.247	7.4
597.584	7.48
597.921	7.72
598.258	7.54
598.594	7.31
598.931	7.66
599.268	7.63
599.604	7.63
599.941	7.51
600.277	7.43
600.614	7.64
600.95	7.91
601.287	7.78
601.623	7.8
601.959	7.86
602.296	7.9
602.632	7.9
602.968	7.83
603.304	7.92
603.64	7.89
603.976	7.75
604.312	8.14
604.648	8.04
604.984	8.08
605.319	7.88
605.655	7.94
605.991	8.07
606.326	7.93
606.662	7.98
606.998	8.05
607.333	8.06
607.668	8.11
608.004	7.95
608.339	8.16
608.674	8.2
609.01	8.31
609.345	8.28
609.68	8.54
610.015	8.48
610.35	8.48
610.685	8.57
611.02	8.48
611.355	8.35
611.689	8.39
612.024	8.49
612.359	8.38
612.694	8.37
613.028	8.7
613.363	8.87
613.697	8.65
614.032	8.82
614.366	8.62
614.7	8.71
615.035	8.79
615.369	8.87
615.703	8.84
616.037	8.59
616.371	8.98
616.705	8.83
617.039	9.06
617.373	9.11
617.707	9.26
618.041	9.18
618.375	9.08
618.709	9.23
619.042	9.47
619.376	9.19
619.71	9.42
620.043	9.53
620.377	9.46
620.71	9.41
621.043	9.39
621.377	9.43
621.71	9.6
622.043	9.77
622.376	9.71
622.709	9.61
623.043	9.39
623.376	9.85
623.709	9.49
624.041	9.5
624.374	9.46
624.707	9.28
625.04	9.71
625.373	10.06
625.705	9.44
626.038	9.56
626.37	9.91
626.703	9.86
627.035	9.6
627.368	9.87
627.7	9.67
628.032	9.78
628.365	10.24
628.697	9.95
629.029	9.89
629.361	9.93
629.693	10.24
630.025	10.09
630.357	9.89
630.689	10.26
631.021	10.05
631.353	9.88
631.684	10.1
632.016	10.34
632.348	10.18
632.679	10.09
633.011	10.32
633.342	10.44
633.674	10.36
634.005	10.43
634.336	10.45
634.668	10.51
634.999	10.39
635.33	10.18
635.661	10.66
635.992	10.55
636.323	10.55
636.654	10.33
636.985	10.7
637.316	10.61
637.647	10.62
637.977	10.55
638.308	10.92
638.639	10.76
638.969	10.55
639.3	10.79
639.63	10.93
639.961	10.86
640.291	11.32
640.622	11.27
640.952	10.64
641.282	11.08
641.612	11.47
641.943	10.95
642.273	10.89
642.603	11
642.933	10.99
643.263	11.03
643.592	11.44
643.922	11.66
644.252	11.2
644.582	11.84
644.911	11.26
645.241	11.16
645.571	11.79
645.9	11.61
646.23	11.31
646.559	11.83
646.888	11.38
647.218	12.04
647.547	11.5
647.876	11.49
648.205	11.08
648.534	11.42
648.863	11.71
649.192	12.02
649.521	11.55
649.85	11.78
650.179	11.88
650.508	11.9
650.837	12.22
651.165	11.88
651.494	11.99
651.822	12.21
652.151	12.11
652.479	12.35
652.808	11.84
653.136	12.06
653.465	12.3
653.793	12.6
654.121	12.28
654.449	12.16
654.777	11.85
655.105	12.41
655.433	12.19
655.761	12.14
656.089	12.4
656.417	12.65
656.745	12.17
657.073	12.51
657.4	12.14
657.728	12.51
658.056	12.15
658.383	13
658.711	12.3
659.038	12.47
659.365	13.23
659.693	13.43
660.02	13.02
660.347	12.37
660.674	12.84
661.001	13.04
661.329	12.86
661.656	13.03
661.982	12.75
662.309	13.03
662.636	13.27
662.963	12.82
663.29	12.77
663.616	13.1
663.943	13.29
664.27	13.81
664.596	13.21
664.923	13.03
665.249	13.65
665.576	13.82
665.902	12.69
666.228	12.96
666.554	13.76
666.881	12.61
667.207	13.29
667.533	13.77
667.859	13.67
668.185	13.33
668.511	13.79
668.837	13.44
669.162	13.69
669.488	13.57
669.814	13.48
670.139	14.11
670.465	13.88
670.791	13.81
671.116	13.88
671.442	13.63
671.767	13.85
672.092	13.49
672.418	14.36
672.743	14.31
673.068	14.72
673.393	14.48
673.718	13.56
674.043	14.63
674.368	13.82
674.693	14.73
675.018	14.54
675.343	14.16
675.667	14.21
675.992	14.25
676.317	14.49
676.641	14.61
676.966	14.55
677.29	14.14
677.615	14.49
677.939	14.51
678.264	14.65
678.588	14.68
678.912	14.78
679.236	14.66
679.56	14.55
679.885	14.84
680.209	14.7
680.532	14.2
680.856	15.13
681.18	14.75
681.504	15.41
681.828	14.8
682.152	15.4
682.475	15.03
682.799	15.23
683.122	15.29
683.446	15.01
683.769	14.89
684.093	15.6
684.416	15.02
684.739	14.84
685.062	16.06
685.386	15.27
685.709	16.11
686.032	15.29
686.355	15.99
686.678	15.49
687.001	15.27
687.324	15.71
687.646	16.19
687.969	15.8
688.292	14.98
688.614	15.46
688.937	15.82
689.26	15.81
689.582	16.46
689.904	16.55
690.227	15.42
690.549	16.11
690.871	15.69
691.194	15.84
691.516	15.35
691.838	16.24
692.16	16.62
692.482	16.06
692.804	15.9
693.126	15.34
693.448	15.82
693.769	16.41
694.091	16.75
694.413	15.52
694.735	16.41
695.056	16.05
695.378	16.33
695.699	17.61
696.021	17.34
696.342	17.44
696.663	16.23
696.984	16.26
697.306	15.92
697.627	16.52
697.948	15.39
698.269	16.48
698.59	16.82
698.911	17.36
699.232	16.7
699.553	17.68
699.873	16.04
700.194	17.02
700.515	16.59
700.835	17.11
701.156	16.92
701.477	16.94
701.797	17.25
702.117	16.69
702.438	17.21
702.758	17.37
703.078	17.34
703.398	17.14
703.719	16.88
704.039	17.3
704.359	18.05
704.679	17.12
704.999	17.43
705.319	16.51
705.638	17.28
705.958	17.17
706.278	17.1
706.597	16.86
706.917	17.14
707.237	17.19
707.556	18.1
707.876	17.11
708.195	18.11
708.514	18.99
708.834	18.03
709.153	17.91
709.472	18.74
709.791	18.5
710.11	17.59
710.429	18.05
710.748	18.44
711.067	18.72
711.386	17.97
711.705	17.25
712.023	18.93
712.342	18.34
712.661	17.79
712.979	18.74
713.298	18.22
713.616	18.37
713.935	17.73
714.253	18.89
714.572	18
714.89	18.89
715.208	18.88
715.526	18.72
715.844	18.48
716.162	18.2
716.48	17.49
716.798	19.38
717.116	19.3
717.434	18.2
717.752	18.79
718.069	18.01
718.387	18.02
718.705	18.83
719.022	18.76
719.34	19.49
719.657	19.39
719.975	18.51
720.292	19.66
720.609	19.12
720.927	18.51
721.244	19.66
721.561	18.86
721.878	18.77
722.195	19.7
722.512	18.87
722.829	20.27
723.146	19.92
723.463	19.82
723.779	19.7
724.096	20.02
724.413	18.84
724.729	19.57
725.046	18.9
725.362	18.65
725.679	20.62
725.995	19.76
726.311	19.62
726.628	20.37
726.944	20.23
727.26	20.38
727.576	20.14
727.892	21.89
728.208	21.1
728.524	19.98
728.84	18.95
729.156	19.59
729.472	20.37
729.787	19.49
730.103	19.85
730.419	21.1
730.734	20.63
731.05	20.47
731.365	20.01
731.681	19.47
731.996	21.58
732.311	21.17
732.626	20.38
732.942	20.65
733.257	20.69
733.572	20.2
733.887	20.78
734.202	20.54
734.517	19.72
734.832	21.98
735.146	20.66
735.461	21.56
735.776	20.25
736.091	20.71
736.405	20.79
736.72	21.09
737.034	21.66
737.349	20
737.663	20.8
737.977	21.35
738.292	21.75
738.606	21.89
738.92	20.51
739.234	21.34
739.548	22.41
739.862	23.33
740.176	22.65
740.49	20.54
740.804	21.67
741.117	21.59
741.431	22.32
741.745	22.2
742.058	21.48
742.372	20.95
742.685	22.82
742.999	21.37
743.312	20.95
743.626	21.27
743.939	21.49
744.252	22.47
744.565	20.44
744.878	22.19
745.191	23.09
745.505	19.71
745.817	22.99
746.13	19.61
746.443	20.4
746.756	20.27
747.069	22.33
747.381	22.66
747.694	21.58
748.007	22.73
748.319	20.25
748.632	21.58
748.944	22.93
749.256	21.11
749.569	22.94
749.881	22.06
750.193	22.85
750.505	22.42
750.817	23.81
751.129	21.75
751.441	21.98
751.753	23.34
752.065	23.37
752.377	22.51
752.689	23.25
753	23.52
753.312	23.24
753.624	23.77
753.935	22.19
754.247	23.34
754.558	21.93
754.869	21.92
755.181	24.17
755.492	24.19
755.803	21.92
756.114	23.69
756.425	22.48
756.736	23.8
757.047	24.84
757.358	22.5
757.669	24.66
757.98	24.21
758.291	24.15
758.601	23.54
758.912	23.03
759.223	22.73
759.533	25.4
759.844	21.87
760.154	24.99
760.464	22.78
760.775	23.75
761.085	24.1
761.395	23.58
761.705	22.25
762.016	25.11
762.326	23.76
762.636	23.65
762.945	24.49
763.255	24
763.565	25.08
763.875	24.05
764.185	24.55
764.494	23.73
764.804	26.24
765.113	26.16
765.423	25.44
765.732	24.32
766.042	24.75
766.351	25.37
766.66	25.63
766.97	25.16
767.279	24.93
767.588	24.94
767.897	22.92
768.206	25.36
768.515	24.48
768.824	24.94
769.133	24.81
769.441	23.96
769.75	25.23
770.059	24.22
770.367	24.49
770.676	24.5
770.984	25.93
771.293	25.73
771.601	24.59
771.91	26.01
772.218	25.54
772.526	24.58
772.834	26.52
773.142	23.69
773.45	24.62
773.758	26.61
774.066	25.79
774.374	25.51
774.682	23.9
774.99	26.63
775.298	26.21
775.605	24.12
775.913	24.08
776.22	26.24
776.528	25.51
776.835	25.98
777.143	25.79
777.45	23.38
777.757	27.24
778.065	26.45
778.372	25.83
778.679	25.17
778.986	26.95
779.293	28.6
779.6	23.35
779.907	26.04
780.214	26.49
780.52	27.71
780.827	27.39
781.134	26.24
781.44	24.43
781.747	25.88
782.053	23.16
782.36	23.48
782.666	20.54
782.973	25.02
783.279	29.97
783.585	23.72
783.891	27.15
784.197	23.75
784.503	23.37
784.809	28.92
785.115	26.92
785.421	25.72
785.727	27.27
786.033	24
786.339	27.48
786.644	27.31
786.95	25.96
787.255	26.53
787.561	24.2
787.866	24.97
788.172	24.19
788.477	31.14
788.782	28.29
789.088	29.51
789.393	27.86
789.698	25.56
790.003	23.81
790.308	28.63
790.613	26.91
790.918	28.32
791.223	30.08
791.527	29.09
791.832	25.91
792.137	25.97
792.441	28.71
792.746	25.64
793.05	25.93
793.355	28.17
793.659	27.28
793.963	27.87
794.268	24.43
794.572	26.01
794.876	24.84
795.18	28.91
795.484	24.67
795.788	27.11
796.092	28.6
796.396	30.59
796.7	30.89
797.004	26.29
797.307	29.15
797.611	24.81
797.915	29.05
798.218	30.51
798.522	26.91
798.825	28.77
799.128	29.42
799.432	28.17
799.735	28.95
800.038	26.45
800.341	28.53
800.644	27.16
800.947	28.75
801.25	29.86
801.553	28.47
801.856	29.64
802.159	31.62
802.462	27.24
802.764	26.46
803.067	26.37
803.37	27.22
803.672	28.89
803.975	27.05
804.277	30.73
804.579	24.41
804.882	28.97
805.184	25.79
805.486	33.84
805.788	28.73
806.09	27.07
806.392	22.16
806.694	22.61
806.996	30.11
807.298	29.48
807.6	31.37
807.902	29.97
808.203	27.23
808.505	29.5
808.807	28.3
809.108	32.77
809.409	30.52
809.711	27.12
810.012	34.56
810.313	31.35
810.615	32.73
810.916	30.84
811.217	32.02
811.518	30.53
811.819	27
812.12	26.64
812.421	29.54
812.722	29.27
813.023	30.3
813.323	27.16
813.624	31.6
813.925	31.34
814.225	29.5
814.526	31.16
814.826	23.69
815.126	24.64
815.427	27.28
815.727	25.86
816.027	24.52
816.327	32.09
816.627	29.68
816.927	27.24
817.227	35.57
817.527	32.14
817.827	26.41
818.127	29.1
818.427	33.31
818.727	30.2
819.026	32.09
819.326	26.12
819.625	30.56
819.925	32.58
820.224	32.72
820.524	33.42
820.823	29.87
821.122	32.54
821.421	32.53
821.72	31.62
822.019	27.7
822.318	33.76
822.617	32.4
822.916	31.34
823.215	32.78
823.514	29.01
823.813	30.38
824.111	31.66
824.41	29.55
824.709	31.26
825.007	33.73
825.306	32.4
825.604	32.7
825.902	31.77
826.201	31.85
826.499	32.85
826.797	32.52
827.095	32.76
827.393	30.26
827.691	32.34
827.989	32.96
828.287	29.93
828.585	31.45
828.882	31.48
829.18	29.31
829.478	30.61
829.775	32.73
830.073	31.71
830.37	34.06
830.668	32.42
830.965	31.84
831.263	31.11
831.56	32.62
831.857	31.11
832.154	32.25
832.451	34.05
832.748	33.79
833.045	34.41
833.342	30.08
833.639	38.43
833.936	31.91
834.232	27.12
834.529	39
834.826	38.5
835.122	36.36
835.419	30.4
835.715	30.07
836.012	34.55
836.308	31.63
836.604	31.28
836.901	32.97
837.197	31.71
837.493	32.87
837.789	33.63
838.085	30.03
838.381	35.75
838.677	36.82
838.972	28.84
839.268	31.13
839.564	31.6
839.86	34.2
840.155	34.92
840.451	33.24
840.746	32.13
841.042	34.93
841.337	34.4
841.632	34.41
841.928	29.22
842.223	35.69
842.518	33.47
842.813	31.43
843.108	41.74
843.403	24.83
843.698	28.55
843.993	27.88
844.287	35.79
844.582	31.32
844.877	32.49
845.171	28.26
845.466	25.03
845.761	30.1
846.055	33.07
846.349	34.14
846.644	32.31
846.938	29.19
847.232	15.57
847.526	15.18
847.82	28.93
848.114	45.55
848.408	32.46
848.702	32.78
848.996	31.6
849.29	42.94
849.584	36.01
849.877	19.01
850.171	27.79
850.465	32.06
850.758	34.22
851.052	36.11
851.345	33.06
851.638	38.86
851.932	27.21
852.225	29.32
852.518	37.56
852.811	43.2
853.104	58.92
853.397	3.79
853.69	38.62
853.983	19.85
854.276	41.44
854.569	54.55
854.861	7
855.154	39.37
855.447	0.17
855.739	17.25
856.032	39.39
856.324	46.94
856.616	33.08
856.909	48.35
857.201	50.22
857.493	54.35
857.785	30.71
858.077	26.81
858.369	27.91
858.661	35.64
858.953	45.92
859.245	36.26
859.537	41.61
859.829	41.6
860.12	36.56
860.412	33.32
860.703	23.51
860.995	1.73
861.286	30.49
861.578	35.01
861.869	53.76
862.16	38.52
862.452	49.06
862.743	36.72
863.034	30.95
863.325	53.71
863.616	37.08
863.907	19.71
864.198	43.05
864.488	30.14
864.779	55.5
865.07	38.84
865.36	42.4
865.651	17.31
865.941	34.96
866.232	19.51
866.522	32.01
866.813	29.98
867.103	20.11
867.393	31.7
867.683	38.42
867.973	21.5
868.263	31.06
868.553	29.33
868.843	32.88
869.133	22.71
869.423	33.11
869.713	35.84
870.002	30.68
870.292	18.22
870.582	37
870.871	11.66
871.161	33.11
871.45	31.77
871.739	18.32
872.029	41.82
872.318	36.12
872.607	4.24
872.896	29.15
873.185	14.15
873.474	24.37
873.763	45.76
874.052	12.24
874.341	33.84
874.63	52.93
874.918	54.27
875.207	52.14
875.496	11.85
875.784	39.76
876.073	50.11
876.361	31.55
876.649	7.98
876.938	0.02
877.226	44.07
877.514	35.91
877.802	32.64
878.09	14.43
878.378	32.68
878.666	14.11
878.954	40.73
879.242	36.17
879.53	31.89
879.817	38.98
880.105	22.44
880.392	33.49
880.68	-12.56
880.967	46.07
881.255	18.02
881.542	42.63
881.83	26.3
882.117	29.91
882.404	26.57
882.691	22.73
882.978	48.84
883.265	28.25
883.552	11.98
883.839	37.81
884.126	30.89
884.413	43.97
884.699	39.26
884.986	36.43
885.273	34.41
885.559	34.41
885.846	34.41
