Data from 0039_forehead_Reflection__2__87.txt Node

Date: Fri Nov 04 15:28:06 CDT 2022
User: ToomeyLab
Spectrometer: FLMS14357
Trigger mode: 0
Integration Time (sec): 1.000000E-2
Scans to average: 100
Electric dark correction enabled: true
Nonlinearity correction enabled: false
Boxcar width: 0
XAxis mode: Wavelengths
Number of Pixels in Spectrum: 2048
>>>>>Begin Spectral Data<<<<<
189.047	166.83
189.435	166.83
189.823	166.83
190.211	944.05
190.599	31.51
190.987	-292.03
191.375	506.18
191.763	110.46
192.151	5.69
192.538	149.84
192.926	125.99
193.314	244.83
193.702	57.52
194.089	86.26
194.477	674.5
194.864	476.8
195.252	86.05
195.639	-84.1
196.027	201.37
196.414	47.21
196.801	204.32
197.189	179.79
197.576	15.89
197.963	82.97
198.351	25.96
198.738	44.4
199.125	87.22
199.512	-39.05
199.899	29.99
200.286	-26.77
200.673	8.38
201.06	10.75
201.447	27.05
201.833	10.57
202.22	58.67
202.607	23.73
202.994	24.84
203.38	25.69
203.767	9.43
204.154	57.17
204.54	14.86
204.927	40.51
205.313	25.92
205.699	49.59
206.086	66.35
206.472	24
206.858	-8.39
207.245	16.07
207.631	29.99
208.017	23.19
208.403	27.52
208.789	30.05
209.175	31.96
209.561	-16.11
209.947	-105.03
210.333	28.32
210.719	21.45
211.105	-14.62
211.491	13.87
211.876	20.78
212.262	13.32
212.648	23.8
213.034	39.95
213.419	20.57
213.805	-3.89
214.19	23.1
214.576	10.17
214.961	23.01
215.346	15.51
215.732	26.09
216.117	-19.22
216.502	31.23
216.888	18.94
217.273	34.08
217.658	21.6
218.043	21.63
218.428	33.77
218.813	25.08
219.198	19.13
219.583	5.24
219.968	18.38
220.353	-7.91
220.738	8.67
221.122	33.21
221.507	19.39
221.892	8.01
222.276	-3.82
222.661	15
223.046	6.44
223.43	13.71
223.815	11.5
224.199	18
224.583	18.57
224.968	9.27
225.352	5.01
225.736	11.22
226.121	5.2
226.505	10.13
226.889	7.04
227.273	12.09
227.657	7.37
228.041	5.71
228.425	8.62
228.809	9.83
229.193	9.72
229.577	6.17
229.961	7.37
230.344	6.4
230.728	6.17
231.112	6.25
231.495	5.82
231.879	6.59
232.263	6.64
232.646	5.66
233.03	4.1
233.413	5.33
233.797	6.07
234.18	6.28
234.563	8.57
234.946	8.38
235.33	9.31
235.713	5.77
236.096	5.9
236.479	6.16
236.862	6.37
237.245	6.84
237.628	7.63
238.011	5.7
238.394	7.31
238.777	6.36
239.16	5.78
239.543	5.54
239.925	8.12
240.308	8.98
240.691	8.12
241.073	7.27
241.456	7.25
241.838	5.34
242.221	6.87
242.603	6.13
242.986	6.41
243.368	6.58
243.75	6.46
244.133	6.66
244.515	6.19
244.897	6.09
245.279	6.78
245.661	6.88
246.043	6.8
246.425	6.5
246.807	7.27
247.189	6.59
247.571	6.82
247.953	6.48
248.335	6.09
248.717	6.41
249.098	5.95
249.48	6.32
249.862	6.44
250.243	6.36
250.625	6.2
251.006	6.22
251.388	7.03
251.769	7.16
252.151	7.04
252.532	7.21
252.913	6.44
253.295	6.67
253.676	6.38
254.057	6.25
254.438	5.88
254.819	6.85
255.2	6.93
255.581	6.85
255.962	7.56
256.343	6.24
256.724	6.63
257.105	6.06
257.486	6.92
257.867	7.63
258.247	7.04
258.628	6.15
259.009	6.37
259.389	6.74
259.77	6.74
260.15	6.31
260.531	6.17
260.911	6.07
261.292	6.13
261.672	5.85
262.052	6.01
262.432	6.12
262.813	6.02
263.193	6.25
263.573	6.25
263.953	6.03
264.333	6.39
264.713	6.4
265.093	5.5
265.473	6.65
265.853	5.59
266.233	6.13
266.612	7.1
266.992	7.16
267.372	5.72
267.752	6.47
268.131	6.29
268.511	6.39
268.89	5.98
269.27	6.15
269.649	5.88
270.029	5.9
270.408	5.65
270.787	6.43
271.167	6.24
271.546	6.77
271.925	6.02
272.304	5.8
272.683	6.21
273.062	6
273.441	6.31
273.82	5.63
274.199	6.03
274.578	5.93
274.957	5.69
275.336	5.68
275.715	6.01
276.093	5.86
276.472	6.07
276.851	5.66
277.229	5.92
277.608	6.39
277.986	6.55
278.365	6.19
278.743	5.97
279.122	5.85
279.5	5.93
279.878	6.07
280.257	5.94
280.635	5.6
281.013	5.87
281.391	6.55
281.769	5.85
282.147	6.14
282.525	5.74
282.903	5.74
283.281	6.17
283.659	5.56
284.037	5.48
284.415	5.87
284.792	6.22
285.17	5.73
285.548	6.11
285.925	6
286.303	6.22
286.68	6.34
287.058	6.23
287.435	5.93
287.813	6.17
288.19	5.97
288.567	5.89
288.945	6.06
289.322	6.23
289.699	6.61
290.076	6.35
290.453	6.24
290.83	5.77
291.207	6.11
291.584	6.79
291.961	5.99
292.338	6.7
292.715	6.48
293.092	6.36
293.469	6.37
293.845	6.51
294.222	6.68
294.599	6.45
294.975	6.63
295.352	6.77
295.728	6.83
296.105	6.94
296.481	6.6
296.858	7.18
297.234	6.86
297.61	6.92
297.986	6.75
298.363	6.67
298.739	6.69
299.115	6.92
299.491	7.05
299.867	7.01
300.243	6.84
300.619	7.11
300.995	7.35
301.371	7.86
301.746	7.14
302.122	7.35
302.498	7.47
302.874	7.61
303.249	7.45
303.625	7.2
304	7.55
304.376	7.36
304.751	7.28
305.127	7.31
305.502	7.7
305.878	7.79
306.253	7.57
306.628	7.63
307.003	8.03
307.378	8.42
307.754	8.05
308.129	7.15
308.504	8.24
308.879	8.21
309.254	8.27
309.629	8.44
310.003	8.09
310.378	8.93
310.753	8.85
311.128	8.56
311.502	8.13
311.877	8.42
312.252	8.57
312.626	8.43
313.001	8.3
313.375	8.58
313.75	8.57
314.124	8.55
314.498	8.74
314.873	9.34
315.247	9.12
315.621	8.89
315.995	9.27
316.369	8.6
316.743	8.7
317.117	9.42
317.491	9.39
317.865	9.43
318.239	9.2
318.613	9.73
318.987	9.41
319.361	9.81
319.734	9.86
320.108	9.93
320.482	9.05
320.855	9.51
321.229	9.83
321.602	9.51
321.976	9.66
322.349	10.46
322.723	10.02
323.096	10.13
323.469	9.95
323.843	10.06
324.216	10.16
324.589	10.36
324.962	10.19
325.335	10.59
325.708	9.63
326.081	10.33
326.454	10.41
326.827	10.82
327.2	10.3
327.573	10.19
327.945	10.28
328.318	10.23
328.691	10.49
329.063	10.69
329.436	10.93
329.809	10.76
330.181	10.53
330.553	11.18
330.926	11.06
331.298	10.67
331.671	10.71
332.043	11.16
332.415	10.71
332.787	10.71
333.159	10.98
333.532	10.57
333.904	11.09
334.276	11.4
334.648	11.47
335.02	10.87
335.391	11.63
335.763	11.54
336.135	11.32
336.507	11.41
336.879	11.31
337.25	12.01
337.622	11.74
337.993	11.74
338.365	11.05
338.736	12.13
339.108	11.76
339.479	11.61
339.851	11.39
340.222	11.42
340.593	11.87
340.964	12.02
341.336	11.95
341.707	11.53
342.078	11.97
342.449	11.64
342.82	11.71
343.191	11.69
343.562	11.85
343.933	12.13
344.303	12.17
344.674	12.2
345.045	12.1
345.416	11.9
345.786	12.23
346.157	12.51
346.527	12.71
346.898	12.43
347.268	12.02
347.639	12.53
348.009	12.89
348.38	12.27
348.75	12.23
349.12	12.34
349.49	12.56
349.861	12.61
350.231	12.82
350.601	12.85
350.971	13.04
351.341	13.16
351.711	12.98
352.081	13.09
352.45	12.93
352.82	13.02
353.19	13.03
353.56	12.91
353.929	13.35
354.299	13.38
354.669	13.58
355.038	13.47
355.408	12.91
355.777	13.53
356.147	13.54
356.516	13.15
356.885	13.37
357.254	13.75
357.624	13.88
357.993	13.59
358.362	13.52
358.731	13.53
359.1	13.47
359.469	13.43
359.838	13.56
360.207	13.68
360.576	14.04
360.945	13.82
361.314	14.16
361.682	13.97
362.051	14.07
362.42	13.94
362.788	13.71
363.157	14
363.525	13.85
363.894	14.01
364.262	14.11
364.631	14.19
364.999	14.44
365.367	14.53
365.735	14.68
366.104	14.33
366.472	14.49
366.84	14.3
367.208	14.91
367.576	14.49
367.944	14.59
368.312	14.82
368.68	14.83
369.048	14.63
369.416	14.46
369.783	14.66
370.151	14.82
370.519	15.23
370.886	15.04
371.254	14.92
371.621	15.39
371.989	15.21
372.356	15.27
372.724	15.45
373.091	15.28
373.458	15.46
373.826	15.46
374.193	15.17
374.56	15.59
374.927	15.68
375.294	15.61
375.661	15.74
376.028	15.93
376.395	15.74
376.762	15.71
377.129	15.8
377.496	15.77
377.863	15.86
378.229	15.7
378.596	15.65
378.963	15.81
379.329	15.66
379.696	15.73
380.062	16.41
380.429	16.07
380.795	15.91
381.161	16.52
381.528	16.47
381.894	15.86
382.26	16.22
382.626	16.48
382.993	16.53
383.359	16.48
383.725	16.63
384.091	16.64
384.457	16.61
384.823	16.55
385.188	17.07
385.554	16.61
385.92	16.76
386.286	17.02
386.651	16.81
387.017	17
387.383	16.75
387.748	17.05
388.114	17.32
388.479	17.45
388.845	17.22
389.21	17.34
389.575	17.28
389.94	17.38
390.306	17.24
390.671	17.75
391.036	17.18
391.401	17.45
391.766	17.42
392.131	17.64
392.496	17.74
392.861	17.73
393.226	17.63
393.591	17.67
393.956	17.81
394.32	17.65
394.685	17.66
395.05	18.05
395.414	18.1
395.779	17.75
396.143	17.91
396.508	18.11
396.872	18.26
397.236	18.21
397.601	18.03
397.965	18.29
398.329	18.26
398.694	18.57
399.058	18.45
399.422	18.35
399.786	18.17
400.15	18.55
400.514	18.66
400.878	18.52
401.242	18.53
401.605	18.55
401.969	18.56
402.333	18.78
402.697	18.66
403.06	18.98
403.424	18.98
403.787	18.82
404.151	18.88
404.514	18.91
404.878	18.93
405.241	19.21
405.604	19.24
405.968	18.86
406.331	18.99
406.694	18.94
407.057	19.09
407.42	19.1
407.783	19.14
408.146	19.28
408.509	19.34
408.872	19.27
409.235	19.41
409.598	19.47
409.961	19.62
410.323	19.67
410.686	19.58
411.049	19.68
411.411	19.39
411.774	19.59
412.136	19.75
412.499	20.03
412.861	19.99
413.223	19.84
413.586	19.9
413.948	20.1
414.31	20.02
414.672	20.2
415.035	20.17
415.397	20.16
415.759	20.24
416.121	19.89
416.483	20.41
416.845	20.51
417.206	20.3
417.568	20.56
417.93	20.38
418.292	20.3
418.653	20.54
419.015	20.32
419.377	20.43
419.738	20.43
420.1	20.56
420.461	20.41
420.822	20.49
421.184	20.49
421.545	20.2
421.906	20.49
422.267	20.46
422.629	20.36
422.99	20.26
423.351	20.4
423.712	20.47
424.073	20.75
424.434	20.67
424.795	20.86
425.155	20.99
425.516	20.88
425.877	20.68
426.238	20.71
426.598	20.79
426.959	20.83
427.32	20.97
427.68	21.24
428.041	21.13
428.401	21.52
428.761	21.51
429.122	21.71
429.482	21.92
429.842	21.56
430.202	22.01
430.563	22.24
430.923	22.05
431.283	22.08
431.643	22.06
432.003	22.4
432.363	22.21
432.722	22.29
433.082	22.25
433.442	22.39
433.802	22.28
434.161	22.3
434.521	22.45
434.881	22.23
435.24	22.27
435.6	22.37
435.959	22.39
436.319	22.33
436.678	22.71
437.037	22.68
437.396	22.87
437.756	22.95
438.115	22.82
438.474	23.13
438.833	23.18
439.192	23.15
439.551	23.17
439.91	23.27
440.269	23.17
440.628	23.13
440.987	23.06
441.345	23.08
441.704	23.13
442.063	23.03
442.421	23.11
442.78	22.99
443.138	23.29
443.497	23.23
443.855	23.33
444.214	23.57
444.572	23.64
444.93	23.62
445.288	23.81
445.647	23.81
446.005	23.85
446.363	23.69
446.721	23.8
447.079	23.67
447.437	23.61
447.795	23.51
448.153	23.46
448.51	23.69
448.868	23.57
449.226	23.71
449.584	23.96
449.941	24
450.299	24.13
450.656	24.2
451.014	24.46
451.371	24.66
451.729	24.55
452.086	24.62
452.443	24.91
452.801	24.69
453.158	25.19
453.515	24.91
453.872	24.9
454.229	24.85
454.586	24.97
454.943	25.08
455.3	25.07
455.657	24.93
456.014	25.25
456.371	25.25
456.727	25.23
457.084	25.16
457.441	25.18
457.797	25.43
458.154	25.47
458.51	25.75
458.867	25.76
459.223	25.65
459.58	25.85
459.936	25.83
460.292	25.82
460.648	25.61
461.005	25.55
461.361	25.6
461.717	25.49
462.073	25.55
462.429	25.52
462.785	25.62
463.141	25.94
463.496	25.86
463.852	26.26
464.208	26.12
464.564	26.23
464.919	26.62
465.275	26.49
465.631	26.66
465.986	26.95
466.342	26.64
466.697	26.82
467.052	26.83
467.408	26.83
467.763	26.8
468.118	26.72
468.473	26.8
468.829	26.62
469.184	26.86
469.539	26.87
469.894	27.09
470.249	26.94
470.603	27.21
470.958	27.04
471.313	27.15
471.668	27.32
472.023	27.47
472.377	27.46
472.732	27.58
473.086	27.6
473.441	27.62
473.795	27.68
474.15	27.69
474.504	27.61
474.859	27.77
475.213	27.78
475.567	27.82
475.921	27.78
476.275	28.07
476.63	28.07
476.984	28.09
477.338	28.31
477.692	28.12
478.045	28.28
478.399	28.17
478.753	28.38
479.107	28.33
479.461	28.51
479.814	28.63
480.168	28.34
480.521	28.41
480.875	28.56
481.228	28.64
481.582	28.74
481.935	28.69
482.289	28.75
482.642	28.83
482.995	28.76
483.348	28.77
483.701	28.85
484.055	28.56
484.408	28.67
484.761	28.48
485.114	28.25
485.466	28.01
485.819	27.93
486.172	28.12
486.525	28
486.878	28.06
487.23	28.19
487.583	28.48
487.936	28.66
488.288	28.69
488.641	28.62
488.993	28.61
489.345	28.53
489.698	28.52
490.05	28.69
490.402	28.63
490.754	28.83
491.107	29.02
491.459	29.28
491.811	29.36
492.163	29.61
492.515	29.7
492.866	29.63
493.218	29.34
493.57	29.26
493.922	29.37
494.274	29.4
494.625	29.5
494.977	29.82
495.328	29.93
495.68	30.25
496.031	30.31
496.383	30.64
496.734	30.74
497.086	30.85
497.437	31.01
497.788	30.91
498.139	30.82
498.49	30.67
498.842	30.79
499.193	30.75
499.544	30.75
499.894	30.7
500.245	30.8
500.596	31
500.947	31.08
501.298	31.28
501.648	31.36
501.999	31.57
502.35	31.52
502.7	31.51
503.051	31.53
503.401	31.71
503.752	31.98
504.102	31.82
504.452	31.83
504.803	31.9
505.153	32.04
505.503	31.97
505.853	32.05
506.203	32.1
506.553	32.1
506.903	32.23
507.253	32.44
507.603	32.29
507.953	32.67
508.303	32.52
508.652	32.35
509.002	32.51
509.352	32.48
509.701	32.62
510.051	32.4
510.4	32.44
510.75	32.51
511.099	32.55
511.449	32.49
511.798	32.49
512.147	32.74
512.496	32.8
512.846	32.95
513.195	32.83
513.544	32.88
513.893	32.84
514.242	33.02
514.591	33.03
514.939	33.14
515.288	33.35
515.637	33.38
515.986	33.45
516.334	33.68
516.683	33.82
517.032	33.84
517.38	33.92
517.729	33.9
518.077	34.03
518.426	33.96
518.774	33.82
519.122	33.72
519.47	33.81
519.819	33.95
520.167	33.59
520.515	33.57
520.863	33.51
521.211	33.62
521.559	33.81
521.907	33.82
522.255	33.89
522.602	34.18
522.95	34.1
523.298	34.41
523.645	34.52
523.993	34.43
524.341	34.63
524.688	34.87
525.036	34.69
525.383	34.91
525.73	34.93
526.078	34.84
526.425	35.22
526.772	34.92
527.119	34.66
527.466	34.62
527.814	34.57
528.161	34.73
528.508	34.54
528.854	34.62
529.201	34.73
529.548	34.87
529.895	34.59
530.242	34.25
530.588	34.25
530.935	34.52
531.282	34.42
531.628	34.17
531.975	34.45
532.321	34.56
532.667	35.06
533.014	35.15
533.36	35.4
533.706	35.4
534.052	35.63
534.399	35.46
534.745	35.48
535.091	35.23
535.437	35.32
535.783	35.39
536.129	35.42
536.474	35.47
536.82	35.7
537.166	35.86
537.512	36.28
537.857	36.14
538.203	36.11
538.549	36.16
538.894	36.33
539.239	36.26
539.585	36.29
539.93	36.46
540.276	36.57
540.621	36.85
540.966	37.34
541.311	37.2
541.656	37.11
542.001	37.23
542.346	37.07
542.691	36.94
543.036	36.36
543.381	36.39
543.726	36.27
544.071	36.38
544.415	36.37
544.76	36.51
545.105	36.64
545.449	36.88
545.794	37.16
546.138	37.23
546.483	37.29
546.827	37.37
547.171	37.62
547.516	37.89
547.86	37.81
548.204	37.83
548.548	37.69
548.892	37.83
549.236	37.76
549.58	37.92
549.924	38.1
550.268	38.22
550.612	38.37
550.956	38.33
551.3	38.71
551.643	38.98
551.987	38.73
552.33	38.97
552.674	39.02
553.017	39.05
553.361	39.33
553.704	39.27
554.048	39.22
554.391	39.25
554.734	39.12
555.077	39.07
555.42	39.15
555.764	39.4
556.107	39.07
556.45	39.44
556.793	39.35
557.135	39.64
557.478	39.72
557.821	39.72
558.164	39.78
558.507	39.83
558.849	39.86
559.192	40.09
559.534	40.04
559.877	40.06
560.219	40.11
560.562	40.33
560.904	40.35
561.246	40.27
561.589	40.6
561.931	40.49
562.273	40.47
562.615	40.64
562.957	40.65
563.299	40.57
563.641	40.44
563.983	40.57
564.325	40.65
564.667	40.82
565.008	40.8
565.35	40.95
565.692	41.21
566.033	41.15
566.375	40.97
566.716	41.04
567.058	41.34
567.399	41.34
567.741	41.14
568.082	40.98
568.423	40.87
568.764	40.87
569.105	41.05
569.447	41.25
569.788	41.39
570.129	41.62
570.47	41.5
570.811	41.7
571.151	41.95
571.492	42.01
571.833	41.9
572.174	41.91
572.514	41.95
572.855	41.81
573.195	42.09
573.536	41.86
573.876	41.91
574.217	41.73
574.557	41.92
574.898	41.81
575.238	42.15
575.578	42.13
575.918	42.07
576.258	42.35
576.598	42.41
576.938	42.55
577.278	42.42
577.618	42.33
577.958	42.32
578.298	42.73
578.638	42.66
578.977	42.62
579.317	42.86
579.657	42.71
579.996	42.83
580.336	43.09
580.675	43.19
581.014	43.19
581.354	43.34
581.693	43.47
582.032	43.32
582.372	43.58
582.711	43.39
583.05	43.64
583.389	43.49
583.728	43.58
584.067	43.55
584.406	43.66
584.745	44.03
585.083	43.49
585.422	43.94
585.761	44.07
586.1	44.11
586.438	44.04
586.777	44.39
587.115	44.16
587.454	44.56
587.792	44.29
588.13	44.57
588.469	44.52
588.807	44.39
589.145	44.56
589.483	44.44
589.821	44.5
590.159	44.43
590.497	45.08
590.835	44.51
591.173	44.84
591.511	44.85
591.849	44.48
592.187	44.91
592.524	44.87
592.862	44.88
593.2	44.91
593.537	44.95
593.875	45.11
594.212	45.12
594.55	45.04
594.887	45.43
595.224	45.52
595.561	45.04
595.899	45.2
596.236	45.45
596.573	45.42
596.91	45.68
597.247	45.28
597.584	45.5
597.921	45.64
598.258	45.62
598.594	45.54
598.931	45.36
599.268	45.27
599.604	45.65
599.941	45.7
600.277	45.54
600.614	45.82
600.95	46.27
601.287	46.06
601.623	46.07
601.959	46.39
602.296	46.49
602.632	46.99
602.968	46.59
603.304	46.81
603.64	46.51
603.976	46.29
604.312	46.47
604.648	46.3
604.984	46.61
605.319	46.57
605.655	46.38
605.991	46.23
606.326	46.35
606.662	46.16
606.998	46.17
607.333	46.43
607.668	46.44
608.004	46.66
608.339	46.7
608.674	46.99
609.01	47.22
609.345	47.24
609.68	47.31
610.015	47.28
610.35	47.46
610.685	47.67
611.02	47
611.355	47.13
611.689	47.15
612.024	47.16
612.359	47.22
612.694	47.06
613.028	47.56
613.363	47.63
613.697	47.58
614.032	48.31
614.366	47.9
614.7	47.89
615.035	48.21
615.369	47.89
615.703	48.08
616.037	48.47
616.371	48.62
616.705	47.8
617.039	48.74
617.373	48.74
617.707	48.64
618.041	48.49
618.375	48.95
618.709	48.46
619.042	48.63
619.376	48.79
619.71	48.86
620.043	48.76
620.377	48.97
620.71	48.88
621.043	48.79
621.377	49.06
621.71	49.28
622.043	49.08
622.376	49.2
622.709	49.09
623.043	49.17
623.376	49.64
623.709	49.53
624.041	49.34
624.374	49.27
624.707	49.3
625.04	49.89
625.373	49.79
625.705	49.77
626.038	49.75
626.37	49.51
626.703	49.8
627.035	49.38
627.368	49.68
627.7	49.83
628.032	49.33
628.365	49.73
628.697	49.82
629.029	49.82
629.361	49.72
629.693	49.47
630.025	49.63
630.357	49.99
630.689	50
631.021	49.76
631.353	49.61
631.684	50.1
632.016	50.04
632.348	50.1
632.679	50.37
633.011	50.56
633.342	50.54
633.674	50.4
634.005	50.87
634.336	50.42
634.668	51.01
634.999	51.08
635.33	50.66
635.661	50.93
635.992	50.72
636.323	50.47
636.654	50.48
636.985	50.74
637.316	50.82
637.647	51.46
637.977	50.94
638.308	51.36
638.639	51.39
638.969	50.82
639.3	51.22
639.63	51.59
639.961	51.13
640.291	51.6
640.622	51.47
640.952	51.21
641.282	51.85
641.612	51.63
641.943	51.79
642.273	51.67
642.603	51.98
642.933	51.76
643.263	51.42
643.592	52.44
643.922	52.1
644.252	52.15
644.582	51.97
644.911	51.92
645.241	52.04
645.571	52.11
645.9	52.17
646.23	52.34
646.559	52.32
646.888	51.93
647.218	52.18
647.547	52.76
647.876	52.71
648.205	52.71
648.534	52.81
648.863	52.42
649.192	52.62
649.521	52.63
649.85	53.06
650.179	52.11
650.508	52.52
650.837	53.05
651.165	53.43
651.494	52.61
651.822	53.09
652.151	53.07
652.479	53.72
652.808	53.32
653.136	52.8
653.465	53.04
653.793	53.43
654.121	52.67
654.449	53.07
654.777	53.15
655.105	53.22
655.433	53.56
655.761	52.88
656.089	53.43
656.417	53.18
656.745	53.49
657.073	53.4
657.4	54.2
657.728	53.54
658.056	53.87
658.383	53.83
658.711	53.5
659.038	54.12
659.365	54.16
659.693	53.71
660.02	54.3
660.347	53.99
660.674	54.08
661.001	53.65
661.329	54.25
661.656	53.99
661.982	53.83
662.309	54.09
662.636	54.49
662.963	53.87
663.29	54.36
663.616	54.01
663.943	54.31
664.27	54.38
664.596	54.28
664.923	53.74
665.249	54.45
665.576	54.47
665.902	54.15
666.228	54.22
666.554	55.06
666.881	54.24
667.207	54.35
667.533	54.53
667.859	54.79
668.185	54.88
668.511	55.12
668.837	55.24
669.162	55.44
669.488	54.91
669.814	55.15
670.139	55.26
670.465	55.14
670.791	55.04
671.116	55.1
671.442	55.29
671.767	55
672.092	55.42
672.418	54.49
672.743	54.87
673.068	55.66
673.393	55.34
673.718	55.57
674.043	56.08
674.368	55.7
674.693	55.64
675.018	55.58
675.343	55.24
675.667	55.96
675.992	55.7
676.317	55.54
676.641	55.67
676.966	55.39
677.29	56
677.615	55.96
677.939	55.77
678.264	56.74
678.588	55.98
678.912	57.05
679.236	56.46
679.56	56.82
679.885	56.74
680.209	56.53
680.532	56.41
680.856	56.54
681.18	56.6
681.504	56.39
681.828	56.75
682.152	57.26
682.475	56.44
682.799	56.18
683.122	55.79
683.446	56.3
683.769	55.92
684.093	56.84
684.416	56.92
684.739	56.61
685.062	56.59
685.386	56.21
685.709	56.8
686.032	57.89
686.355	56.97
686.678	56.41
687.001	56.81
687.324	57
687.646	57.18
687.969	57.18
688.292	56.37
688.614	57.67
688.937	56.93
689.26	56.75
689.582	57.05
689.904	57.36
690.227	56.24
690.549	57.16
690.871	56.44
691.194	57.35
691.516	57.1
691.838	56.85
692.16	57.76
692.482	57.46
692.804	57.23
693.126	57.84
693.448	57.59
693.769	58.01
694.091	58.18
694.413	57.41
694.735	57.59
695.056	57.09
695.378	57.39
695.699	58
696.021	58.29
696.342	58.58
696.663	57.81
696.984	58.19
697.306	58.15
697.627	57.7
697.948	56.58
698.269	58.37
698.59	57.62
698.911	58.58
699.232	58.62
699.553	58.9
699.873	57.74
700.194	59.08
700.515	57.78
700.835	58.24
701.156	58.27
701.477	58.6
701.797	58.56
702.117	58.41
702.438	58.6
702.758	57.97
703.078	58.1
703.398	59.22
703.719	58.32
704.039	58.72
704.359	57.69
704.679	58.47
704.999	59.28
705.319	58.63
705.638	57.49
705.958	58.66
706.278	58.18
706.597	59.06
706.917	58.78
707.237	58.05
707.556	58.86
707.876	58.9
708.195	58.38
708.514	58.87
708.834	59.09
709.153	59.2
709.472	60.12
709.791	59.19
710.11	59.26
710.429	59.25
710.748	59.77
711.067	59.69
711.386	58.92
711.705	58.64
712.023	58.68
712.342	58.62
712.661	60.15
712.979	59.18
713.298	59.41
713.616	59.17
713.935	59.27
714.253	60.11
714.572	59.39
714.89	58.93
715.208	60.19
715.526	60.05
715.844	59.98
716.162	58.95
716.48	60.69
716.798	59.53
717.116	59.63
717.434	59.85
717.752	59.99
718.069	59.67
718.387	60.22
718.705	59.02
719.022	61.09
719.34	61.44
719.657	60.4
719.975	59.69
720.292	59.99
720.609	60.36
720.927	60.62
721.244	60.34
721.561	59.2
721.878	58.64
722.195	61.05
722.512	61.2
722.829	60.05
723.146	61.65
723.463	61.65
723.779	61.99
724.096	60.8
724.413	59.96
724.729	60.8
725.046	59.99
725.362	59.87
725.679	61.06
725.995	61.62
726.311	62.75
726.628	61.3
726.944	60.35
727.26	61.55
727.576	61.14
727.892	62.94
728.208	61.59
728.524	62.07
728.84	61.08
729.156	61.17
729.472	61.49
729.787	61.18
730.103	61.24
730.419	61.33
730.734	62.21
731.05	62.05
731.365	61.28
731.681	61.66
731.996	62.03
732.311	61.26
732.626	62.45
732.942	61.88
733.257	62.5
733.572	60.87
733.887	61.62
734.202	60.98
734.517	61.38
734.832	61.77
735.146	62.18
735.461	62.01
735.776	61.39
736.091	61.07
736.405	60.43
736.72	61.3
737.034	61.53
737.349	60.38
737.663	60.42
737.977	61.69
738.292	61.69
738.606	61.78
738.92	62.28
739.234	60.35
739.548	63.59
739.862	64.1
740.176	62.94
740.49	60.54
740.804	62.14
741.117	61.55
741.431	62.43
741.745	62.93
742.058	62.43
742.372	62.81
742.685	62.72
742.999	60.21
743.312	61.79
743.626	61.81
743.939	62.14
744.252	62.33
744.565	59.73
744.878	62.22
745.191	62.55
745.505	61.86
745.817	61.5
746.13	61.78
746.443	62.35
746.756	61.01
747.069	62.62
747.381	64.09
747.694	62.74
748.007	63.58
748.319	61.88
748.632	62.14
748.944	64.61
749.256	64.29
749.569	62.74
749.881	62
750.193	63.86
750.505	62.22
750.817	64.23
751.129	64
751.441	62.3
751.753	62.86
752.065	64.22
752.377	62.71
752.689	63.73
753	63.68
753.312	65.36
753.624	64.41
753.935	62.37
754.247	64.26
754.558	62.93
754.869	62.35
755.181	63.45
755.492	64.34
755.803	63.53
756.114	64.06
756.425	64.1
756.736	62.12
757.047	64.67
757.358	62.97
757.669	63.86
757.98	61.9
758.291	63.07
758.601	64.01
758.912	65.28
759.223	64.2
759.533	61.42
759.844	61.82
760.154	63.47
760.464	64.34
760.775	65.12
761.085	62.29
761.395	62.23
761.705	63.32
762.016	64.26
762.326	63.29
762.636	64.42
762.945	64.41
763.255	63.58
763.565	64.31
763.875	64.58
764.185	66.21
764.494	63.26
764.804	64.2
765.113	64.04
765.423	64.39
765.732	62.98
766.042	64.63
766.351	64.43
766.66	65.43
766.97	64.63
767.279	63.68
767.588	63.63
767.897	63.17
768.206	64.48
768.515	63.13
768.824	65.42
769.133	63.67
769.441	63.5
769.75	64.76
770.059	64.04
770.367	65.3
770.676	63.66
770.984	65.53
771.293	64.44
771.601	62.59
771.91	65.52
772.218	63.85
772.526	65.86
772.834	63.62
773.142	62.93
773.45	62.31
773.758	62.18
774.066	66.41
774.374	63.58
774.682	63.26
774.99	62.95
775.298	64.23
775.605	65.86
775.913	62.41
776.22	63.25
776.528	64.07
776.835	64.29
777.143	63.69
777.45	68.29
777.757	66.88
778.065	65.16
778.372	64.65
778.679	65.56
778.986	65.1
779.293	66.28
779.6	64.51
779.907	65.29
780.214	60.18
780.52	64.95
780.827	64.34
781.134	65.62
781.44	61.34
781.747	66.82
782.053	62.39
782.36	63.76
782.666	59.39
782.973	63.54
783.279	63.43
783.585	61.47
783.891	63.18
784.197	63.57
784.503	61.93
784.809	66.64
785.115	64.35
785.421	66.78
785.727	64.46
786.033	63.41
786.339	63.21
786.644	65.35
786.95	68.01
787.255	66.24
787.561	64.7
787.866	66.09
788.172	65.77
788.477	67.36
788.782	63.6
789.088	64.37
789.393	63.7
789.698	63.13
790.003	63.85
790.308	67.6
790.613	61.92
790.918	62.76
791.223	67.99
791.527	62.24
791.832	63.71
792.137	66.04
792.441	65.98
792.746	63.87
793.05	64.95
793.355	66
793.659	64.14
793.963	68.25
794.268	65.16
794.572	69.03
794.876	62.26
795.18	64.26
795.484	65.14
795.788	68.33
796.092	63.42
796.396	63.87
796.7	62.93
797.004	64.18
797.307	65.24
797.611	63.91
797.915	66.48
798.218	66.55
798.522	64.51
798.825	66.49
799.128	68.3
799.432	66.06
799.735	67.97
800.038	69.73
800.341	64.74
800.644	67.31
800.947	67.21
801.25	68.27
801.553	69.7
801.856	68.49
802.159	68.57
802.462	64.85
802.764	65.83
803.067	62.86
803.37	64.61
803.672	64.92
803.975	64.75
804.277	66.65
804.579	63.85
804.882	67.5
805.184	61.32
805.486	68.77
805.788	66.93
806.09	63.13
806.392	66.25
806.694	62.62
806.996	63.52
807.298	66.4
807.6	67.23
807.902	70.48
808.203	71.18
808.505	67.38
808.807	69.63
809.108	68.22
809.409	61.93
809.711	65.04
810.012	68.83
810.313	63.14
810.615	62.6
810.916	65.1
811.217	66.66
811.518	67.03
811.819	71.54
812.12	64.51
812.421	65.62
812.722	69.55
813.023	64.77
813.323	67.36
813.624	66.71
813.925	67.17
814.225	67.66
814.526	68.68
814.826	67.8
815.126	62.43
815.427	63.27
815.727	61.21
816.027	63.71
816.327	68.32
816.627	71.82
816.927	64.14
817.227	65.47
817.527	68.8
817.827	64.49
818.127	69.52
818.427	70.11
818.727	71.79
819.026	69.06
819.326	64.14
819.625	70.37
819.925	68.42
820.224	68.82
820.524	71.44
820.823	66.05
821.122	70.44
821.421	66.64
821.72	70.69
822.019	69.21
822.318	65.71
822.617	67.62
822.916	67.71
823.215	69.94
823.514	66.86
823.813	66.49
824.111	66.66
824.41	67.74
824.709	69.85
825.007	68.5
825.306	69.12
825.604	68.3
825.902	68.01
826.201	68.26
826.499	68.47
826.797	67.23
827.095	68.38
827.393	65.77
827.691	67.97
827.989	67.9
828.287	65.59
828.585	68.75
828.882	66.88
829.18	68.63
829.478	67.28
829.775	67
830.073	68.33
830.37	69.77
830.668	67.59
830.965	70.77
831.263	68.29
831.56	65.46
831.857	69.83
832.154	70.58
832.451	69.35
832.748	69.38
833.045	70.35
833.342	71.12
833.639	68.55
833.936	70.31
834.232	69.35
834.529	72.42
834.826	73.84
835.122	67.54
835.419	67.6
835.715	70.96
836.012	70.16
836.308	67.08
836.604	67.44
836.901	66.94
837.197	71.83
837.493	69.02
837.789	67.24
838.085	67.49
838.381	73.07
838.677	65.92
838.972	69.66
839.268	71.34
839.564	71.6
839.86	63.63
840.155	65.74
840.451	68.36
840.746	65.3
841.042	69.74
841.337	64.78
841.632	65.58
841.928	74.16
842.223	73.6
842.518	68.39
842.813	65.71
843.108	73.09
843.403	65.88
843.698	61.71
843.993	73.65
844.287	71.92
844.582	66.19
844.877	67.64
845.171	62.95
845.466	72.37
845.761	72.84
846.055	65.89
846.349	75.31
846.644	62.69
846.938	63.06
847.232	53.4
847.526	80.61
847.82	85.47
848.114	74.53
848.408	67.22
848.702	72.76
848.996	67.58
849.29	79.76
849.584	82.23
849.877	61.12
850.171	82.22
850.465	79.25
850.758	60.16
851.052	76.08
851.345	57.61
851.638	63.3
851.932	55.78
852.225	66.4
852.518	66.87
852.811	73.88
853.104	62.49
853.397	56.82
853.69	80.39
853.983	59.13
854.276	92.71
854.569	81.74
854.861	86.84
855.154	56.81
855.447	55.81
855.739	56.63
856.032	67.38
856.324	86.64
856.616	66.86
856.909	66.31
857.201	70.16
857.493	86.28
857.785	61.67
858.077	65.95
858.369	71.54
858.661	68.18
858.953	44.8
859.245	58.14
859.537	61.79
859.829	66.04
860.12	69.03
860.412	78.85
860.703	33.77
860.995	47.25
861.286	54.64
861.578	71.71
861.869	58.02
862.16	83.17
862.452	79.64
862.743	67.23
863.034	64.29
863.325	75.86
863.616	65.48
863.907	57.85
864.198	90.24
864.488	26.86
864.779	82.43
865.07	84.06
865.36	68.77
865.651	30.06
865.941	75.51
866.232	72.51
866.522	77.75
866.813	60.56
867.103	39.03
867.393	56.37
867.683	67.18
867.973	94.93
868.263	89.19
868.553	77.88
868.843	63.46
869.133	48.2
869.423	52.46
869.713	92.84
870.002	61.94
870.292	52.08
870.582	77.59
870.871	41.39
871.161	75.92
871.45	42.33
871.739	79.39
872.029	50.96
872.318	44.05
872.607	67.41
872.896	46.73
873.185	52.18
873.474	69.96
873.763	71.66
874.052	60.27
874.341	101.71
874.63	74.14
874.918	95.71
875.207	88.98
875.496	67.33
875.784	88.69
876.073	52.45
876.361	56.06
876.649	76.75
876.938	54.54
877.226	71.71
877.514	71.62
877.802	62.04
878.09	52.98
878.378	73.1
878.666	66.42
878.954	100.83
879.242	55.79
879.53	46.3
879.817	61.38
880.105	77.55
880.392	94.41
880.68	61.93
880.967	59.4
881.255	52.63
881.542	66.94
881.83	49.49
882.117	69.32
882.404	74.8
882.691	54.26
882.978	69.24
883.265	81.13
883.552	67.39
883.839	70.86
884.126	76.24
884.413	64.79
884.699	74.18
884.986	69.68
885.273	73.22
885.559	73.22
885.846	73.22
