Data from 0039_forehead_Reflection__3__88.txt Node

Date: Fri Nov 04 15:28:16 CDT 2022
User: ToomeyLab
Spectrometer: FLMS14357
Trigger mode: 0
Integration Time (sec): 1.000000E-2
Scans to average: 100
Electric dark correction enabled: true
Nonlinearity correction enabled: false
Boxcar width: 0
XAxis mode: Wavelengths
Number of Pixels in Spectrum: 2048
>>>>>Begin Spectral Data<<<<<
189.047	58.26
189.435	58.26
189.823	58.26
190.211	-1177.22
190.599	26.11
190.987	3.04
191.375	273.27
191.763	90.72
192.151	46.03
192.538	-1229.13
192.926	123.69
193.314	288.08
193.702	76.77
194.089	54.92
194.477	108.66
194.864	818.78
195.252	64.53
195.639	-24.61
196.027	107.86
196.414	-194.61
196.801	210.92
197.189	-32.96
197.576	47.03
197.963	-414.14
198.351	-44.1
198.738	16.07
199.125	39.37
199.512	-6.44
199.899	18.78
200.286	3.04
200.673	2.61
201.06	-1.14
201.447	7.51
201.833	38.56
202.22	-0.33
202.607	30.22
202.994	36.21
203.38	37.68
203.767	12.22
204.154	45.9
204.54	-12.27
204.927	-1.67
205.313	19.51
205.699	47.23
206.086	36.66
206.472	-8.15
206.858	35.87
207.245	28.35
207.631	2.73
208.017	1.1
208.403	-8.84
208.789	33.3
209.175	30.64
209.561	-39.81
209.947	-89.05
210.333	39.17
210.719	14.65
211.105	-4.15
211.491	25.33
211.876	3.2
212.262	-16.56
212.648	11.86
213.034	43.72
213.419	1.9
213.805	-15
214.19	-48.85
214.576	-11.89
214.961	1.52
215.346	1.99
215.732	18.36
216.117	0.31
216.502	14.89
216.888	31.51
217.273	13.18
217.658	14.36
218.043	15.29
218.428	21.9
218.813	1.07
219.198	10.11
219.583	-1.91
219.968	18.15
220.353	-13.26
220.738	-22.89
221.122	0.56
221.507	3.87
221.892	-3.92
222.276	4.4
222.661	0.27
223.046	0.78
223.43	8.16
223.815	-7.17
224.199	11.71
224.583	-1.55
224.968	2.4
225.352	8.11
225.736	-0.59
226.121	-4.68
226.505	12.85
226.889	4.13
227.273	1.69
227.657	2.01
228.041	4.37
228.425	2.88
228.809	4.26
229.193	5.11
229.577	1.25
229.961	4.02
230.344	3.78
230.728	3.64
231.112	2.89
231.495	3.38
231.879	3.62
232.263	3.43
232.646	2.35
233.03	1.94
233.413	1.05
233.797	3.95
234.18	3.07
234.563	4.4
234.946	2.85
235.33	5.54
235.713	2.68
236.096	3.65
236.479	3.98
236.862	3.88
237.245	2.99
237.628	3.89
238.011	2.38
238.394	4.19
238.777	5.22
239.16	3.19
239.543	2.23
239.925	4.81
240.308	4.65
240.691	3.97
241.073	4.88
241.456	4.82
241.838	3.06
242.221	3.65
242.603	3.39
242.986	3.27
243.368	3.71
243.75	3.52
244.133	3.88
244.515	3.66
244.897	3.8
245.279	3.96
245.661	4.03
246.043	3.96
246.425	3.28
246.807	4.8
247.189	3.67
247.571	3.88
247.953	3.87
248.335	3.51
248.717	3.47
249.098	3.45
249.48	3.64
249.862	3.77
250.243	3.78
250.625	3.39
251.006	3.32
251.388	4.23
251.769	4.34
252.151	4.65
252.532	4.43
252.913	3.64
253.295	3.63
253.676	3.36
254.057	3.34
254.438	3.44
254.819	3.8
255.2	3.95
255.581	4.3
255.962	4.46
256.343	4.16
256.724	3.87
257.105	3.82
257.486	3.95
257.867	5.76
258.247	4.54
258.628	3.79
259.009	3.27
259.389	4.04
259.77	3.74
260.15	3.47
260.531	3.62
260.911	2.97
261.292	3.33
261.672	3.47
262.052	3.32
262.432	3.69
262.813	3.7
263.193	3.45
263.573	3.88
263.953	3.77
264.333	4.06
264.713	4.05
265.093	3.42
265.473	4.13
265.853	3.07
266.233	3.2
266.612	4.05
266.992	4.38
267.372	3.35
267.752	3.72
268.131	3.49
268.511	3.8
268.89	4.27
269.27	3.56
269.649	3.83
270.029	3.13
270.408	3.29
270.787	4.2
271.167	3.76
271.546	4.4
271.925	3.38
272.304	3.49
272.683	3.21
273.062	3.33
273.441	3.84
273.82	3.23
274.199	3.51
274.578	3.11
274.957	3.4
275.336	3.04
275.715	3.24
276.093	3.27
276.472	3.43
276.851	2.94
277.229	3.33
277.608	2.98
277.986	3.92
278.365	3.83
278.743	3.35
279.122	3.44
279.5	3.51
279.878	3.82
280.257	3.67
280.635	3.18
281.013	3.22
281.391	3.5
281.769	3.46
282.147	3.32
282.525	3.7
282.903	3.37
283.281	3.77
283.659	3.31
284.037	3.41
284.415	3.35
284.792	3.83
285.17	3.44
285.548	3.84
285.925	3.72
286.303	3.81
286.68	3.85
287.058	3.38
287.435	3.54
287.813	3.71
288.19	3.6
288.567	3.55
288.945	3.82
289.322	3.69
289.699	3.61
290.076	3.69
290.453	3.43
290.83	3.42
291.207	3.54
291.584	4.04
291.961	3.94
292.338	3.94
292.715	3.92
293.092	4.38
293.469	4
293.845	3.52
294.222	3.85
294.599	3.73
294.975	4.1
295.352	4.22
295.728	3.72
296.105	4.04
296.481	4.16
296.858	3.98
297.234	4.48
297.61	4.15
297.986	4.27
298.363	4.08
298.739	3.92
299.115	4.53
299.491	4.19
299.867	4.45
300.243	4.48
300.619	4.56
300.995	4.55
301.371	4.64
301.746	4.27
302.122	4.69
302.498	4.43
302.874	4.84
303.249	4.67
303.625	4.62
304	4.71
304.376	4.89
304.751	4.99
305.127	4.64
305.502	4.47
305.878	4.99
306.253	5.04
306.628	5.07
307.003	4.66
307.378	5.48
307.754	5.05
308.129	4.22
308.504	4.81
308.879	5.12
309.254	5.44
309.629	5.25
310.003	5.35
310.378	5.35
310.753	5.77
311.128	5.4
311.502	5.27
311.877	5.25
312.252	4.95
312.626	5.62
313.001	5.54
313.375	5.22
313.75	5.38
314.124	5.55
314.498	5.87
314.873	5.76
315.247	6.16
315.621	5.93
315.995	6.26
316.369	6.33
316.743	6.16
317.117	6.26
317.491	6.48
317.865	5.73
318.239	6.38
318.613	7.09
318.987	6.2
319.361	6.38
319.734	6.32
320.108	7
320.482	5.68
320.855	6.39
321.229	6.06
321.602	6.35
321.976	6.66
322.349	6.99
322.723	6.95
323.096	6.64
323.469	6.24
323.843	6.69
324.216	7.15
324.589	6.75
324.962	7.1
325.335	6.84
325.708	6.7
326.081	6.79
326.454	6.84
326.827	7.41
327.2	6.48
327.573	6.91
327.945	7.67
328.318	6.78
328.691	6.98
329.063	7.08
329.436	7.59
329.809	6.87
330.181	7.2
330.553	7.33
330.926	7.57
331.298	7.78
331.671	7.25
332.043	7.47
332.415	7.27
332.787	7.74
333.159	7.18
333.532	6.87
333.904	7.81
334.276	7.7
334.648	7.61
335.02	7.31
335.391	7.68
335.763	8.15
336.135	7.85
336.507	7.93
336.879	7.69
337.25	8.27
337.622	8.07
337.993	8.06
338.365	8.28
338.736	8.65
339.108	8.56
339.479	8.42
339.851	7.86
340.222	8.04
340.593	8.04
340.964	8.54
341.336	8.19
341.707	7.9
342.078	8.41
342.449	8.39
342.82	8.46
343.191	8.05
343.562	8.7
343.933	8.77
344.303	8.86
344.674	8.56
345.045	8.51
345.416	8.34
345.786	8.87
346.157	8.7
346.527	9
346.898	8.84
347.268	8.96
347.639	8.79
348.009	8.98
348.38	8.9
348.75	8.79
349.12	8.46
349.49	8.86
349.861	9.03
350.231	9.69
350.601	9.19
350.971	9.13
351.341	9.03
351.711	9.18
352.081	9.39
352.45	9.43
352.82	9.01
353.19	9.7
353.56	9.71
353.929	9.45
354.299	9.84
354.669	9.66
355.038	9.78
355.408	9.58
355.777	9.95
356.147	9.53
356.516	9.34
356.885	9.42
357.254	9.76
357.624	10.15
357.993	9.67
358.362	9.61
358.731	9.81
359.1	10
359.469	9.94
359.838	9.97
360.207	9.78
360.576	10.06
360.945	10.22
361.314	10.2
361.682	10
362.051	10.06
362.42	10.17
362.788	9.91
363.157	10.03
363.525	10.02
363.894	10.06
364.262	9.97
364.631	10.2
364.999	10.24
365.367	10.13
365.735	10.44
366.104	10.27
366.472	10.82
366.84	10.27
367.208	10.63
367.576	10.68
367.944	10.68
368.312	10.94
368.68	10.68
369.048	11.06
369.416	10.75
369.783	10.56
370.151	10.71
370.519	11.49
370.886	10.95
371.254	11.15
371.621	11.35
371.989	11.23
372.356	11.28
372.724	11.29
373.091	11.12
373.458	11.31
373.826	11.12
374.193	11.16
374.56	11.04
374.927	11.78
375.294	11.63
375.661	12.06
376.028	11.31
376.395	11.85
376.762	11.71
377.129	11.65
377.496	11.79
377.863	11.67
378.229	11.6
378.596	11.49
378.963	11.81
379.329	11.7
379.696	11.62
380.062	12.02
380.429	12.04
380.795	11.96
381.161	12.16
381.528	12.14
381.894	12.06
382.26	12.08
382.626	11.84
382.993	12.31
383.359	12.38
383.725	12.18
384.091	12.37
384.457	12.59
384.823	12.52
385.188	12.63
385.554	12.62
385.92	12.25
386.286	12.34
386.651	12.83
387.017	12.46
387.383	12.59
387.748	12.72
388.114	12.74
388.479	13.12
388.845	13
389.21	13.16
389.575	13.18
389.94	13.11
390.306	12.97
390.671	13.07
391.036	12.96
391.401	13.22
391.766	13.02
392.131	13.24
392.496	13.31
392.861	13.24
393.226	13.31
393.591	13.12
393.956	13.43
394.32	13.24
394.685	13.29
395.05	13.59
395.414	13.58
395.779	13.54
396.143	13.3
396.508	13.52
396.872	13.56
397.236	13.46
397.601	13.58
397.965	13.82
398.329	13.65
398.694	14.04
399.058	14.11
399.422	13.99
399.786	13.89
400.15	13.68
400.514	13.87
400.878	14
401.242	14.28
401.605	14.06
401.969	14.27
402.333	14.26
402.697	14.33
403.06	14.58
403.424	14.3
403.787	14.6
404.151	14.42
404.514	14.44
404.878	14.55
405.241	14.59
405.604	14.5
405.968	14.06
406.331	14.35
406.694	14.54
407.057	14.61
407.42	14.33
407.783	14.35
408.146	14.66
408.509	14.72
408.872	14.65
409.235	14.66
409.598	14.82
409.961	14.93
410.323	15.02
410.686	15.02
411.049	15.01
411.411	14.86
411.774	14.97
412.136	15.07
412.499	15.22
412.861	14.94
413.223	15.17
413.586	15.2
413.948	15.44
414.31	15.16
414.672	15.39
415.035	15.48
415.397	15.33
415.759	15.79
416.121	15.56
416.483	15.42
416.845	15.54
417.206	15.5
417.568	15.59
417.93	15.62
418.292	15.57
418.653	15.71
419.015	15.48
419.377	15.59
419.738	15.47
420.1	15.69
420.461	15.59
420.822	15.47
421.184	15.77
421.545	15.47
421.906	15.61
422.267	15.77
422.629	15.6
422.99	15.53
423.351	15.57
423.712	15.6
424.073	15.84
424.434	15.87
424.795	16.01
425.155	16.08
425.516	15.96
425.877	15.88
426.238	15.87
426.598	16.06
426.959	15.98
427.32	16.08
427.68	16.3
428.041	16.46
428.401	16.54
428.761	16.63
429.122	16.75
429.482	16.99
429.842	16.65
430.202	17.09
430.563	17.02
430.923	17.12
431.283	17.23
431.643	17.08
432.003	17.19
432.363	17.4
432.722	17.28
433.082	17.27
433.442	17.04
433.802	17.23
434.161	17.22
434.521	17.17
434.881	17.28
435.24	17.15
435.6	17.24
435.959	17.27
436.319	17.38
436.678	17.56
437.037	17.5
437.396	17.59
437.756	17.9
438.115	17.69
438.474	17.9
438.833	17.8
439.192	17.85
439.551	17.9
439.91	18.03
440.269	18.02
440.628	17.94
440.987	17.96
441.345	17.85
441.704	17.94
442.063	17.76
442.421	17.82
442.78	17.95
443.138	17.93
443.497	17.97
443.855	18.24
444.214	18.51
444.572	18.31
444.93	18.32
445.288	18.58
445.647	18.67
446.005	18.52
446.363	18.52
446.721	18.42
447.079	18.43
447.437	18.34
447.795	18.33
448.153	18.11
448.51	18.26
448.868	18.31
449.226	18.47
449.584	18.61
449.941	18.54
450.299	18.83
450.656	18.86
451.014	19.19
451.371	19.38
451.729	19.25
452.086	19.28
452.443	19.38
452.801	19.45
453.158	19.64
453.515	19.55
453.872	19.53
454.229	19.47
454.586	19.53
454.943	19.5
455.3	19.6
455.657	19.56
456.014	19.67
456.371	19.63
456.727	19.72
457.084	19.74
457.441	19.89
457.797	19.77
458.154	19.94
458.51	20.27
458.867	20.08
459.223	20.17
459.58	20.26
459.936	20.18
460.292	20.04
460.648	20.01
461.005	20.03
461.361	19.99
461.717	19.78
462.073	19.87
462.429	20.04
462.785	20.14
463.141	20.4
463.496	20.49
463.852	20.49
464.208	20.61
464.564	20.71
464.919	21.18
465.275	21.02
465.631	21.18
465.986	21.12
466.342	21.08
466.697	21.1
467.052	21.14
467.408	21.03
467.763	21.25
468.118	21.21
468.473	21.24
468.829	20.86
469.184	21.24
469.539	21.28
469.894	21.57
470.249	21.47
470.603	21.48
470.958	21.27
471.313	21.39
471.668	21.57
472.023	21.54
472.377	21.9
472.732	21.69
473.086	21.72
473.441	21.89
473.795	21.96
474.15	22.03
474.504	21.86
474.859	22.03
475.213	22.02
475.567	22.07
475.921	22.05
476.275	22.27
476.63	22.25
476.984	22.22
477.338	22.28
477.692	22.47
478.045	22.41
478.399	22.5
478.753	22.61
479.107	22.35
479.461	22.44
479.814	22.67
480.168	22.6
480.521	22.52
480.875	22.71
481.228	22.76
481.582	23
481.935	22.68
482.289	22.78
482.642	22.8
482.995	22.84
483.348	22.76
483.701	22.64
484.055	22.57
484.408	22.72
484.761	22.59
485.114	22.18
485.466	22
485.819	21.72
486.172	21.84
486.525	21.92
486.878	22.29
487.23	22.52
487.583	22.67
487.936	22.88
488.288	22.93
488.641	22.73
488.993	22.54
489.345	22.48
489.698	22.48
490.05	22.57
490.402	22.69
490.754	22.88
491.107	23.12
491.459	23.42
491.811	23.42
492.163	23.85
492.515	23.73
492.866	23.58
493.218	23.23
493.57	23.07
493.922	23.13
494.274	23.22
494.625	23.54
494.977	23.93
495.328	24.18
495.68	24.17
496.031	24.54
496.383	24.66
496.734	24.77
497.086	24.88
497.437	24.85
497.788	24.93
498.139	24.68
498.49	24.4
498.842	24.43
499.193	24.68
499.544	24.66
499.894	24.67
500.245	24.86
500.596	24.98
500.947	25.02
501.298	25.02
501.648	25.27
501.999	25.33
502.35	25.35
502.7	25.41
503.051	25.53
503.401	25.46
503.752	25.81
504.102	25.54
504.452	25.79
504.803	25.85
505.153	25.8
505.503	25.7
505.853	25.83
506.203	25.81
506.553	25.91
506.903	25.89
507.253	25.95
507.603	25.93
507.953	26.19
508.303	26.18
508.652	26.08
509.002	26.11
509.352	26.19
509.701	26.11
510.051	26.08
510.4	26.06
510.75	26.09
511.099	26.11
511.449	26.08
511.798	26.13
512.147	26.39
512.496	26.48
512.846	26.49
513.195	26.56
513.544	26.49
513.893	26.49
514.242	26.55
514.591	26.61
514.939	26.79
515.288	26.95
515.637	26.87
515.986	26.97
516.334	27.14
516.683	27.13
517.032	27.27
517.38	27.52
517.729	27.23
518.077	27.6
518.426	27.42
518.774	27.23
519.122	27.34
519.47	27.23
519.819	27.18
520.167	27.06
520.515	26.82
520.863	26.94
521.211	26.97
521.559	27.23
521.907	27.26
522.255	27.43
522.602	27.62
522.95	27.74
523.298	27.87
523.645	27.94
523.993	27.98
524.341	27.98
524.688	28.23
525.036	28.18
525.383	28.18
525.73	28.3
526.078	28.36
526.425	28.21
526.772	28.15
527.119	28
527.466	27.75
527.814	27.78
528.161	27.87
528.508	27.91
528.854	28.02
529.201	28.12
529.548	28.1
529.895	27.84
530.242	27.37
530.588	27.28
530.935	27.39
531.282	27.6
531.628	27.71
531.975	27.95
532.321	28.15
532.667	28.55
533.014	28.76
533.36	28.71
533.706	28.78
534.052	28.82
534.399	28.76
534.745	28.51
535.091	28.27
535.437	28.31
535.783	28.37
536.129	28.7
536.474	28.97
536.82	29.05
537.166	29.31
537.512	29.55
537.857	29.52
538.203	29.41
538.549	29.08
538.894	29.32
539.239	29.42
539.585	29.49
539.93	29.76
540.276	29.94
540.621	30.08
540.966	30.3
541.311	30.27
541.656	30.39
542.001	30.38
542.346	30.08
542.691	29.75
543.036	29.32
543.381	29.27
543.726	29.25
544.071	29.47
544.415	29.66
544.76	29.85
545.105	29.91
545.449	30.08
545.794	30.31
546.138	30.49
546.483	30.65
546.827	30.73
547.171	30.8
547.516	30.83
547.86	30.8
548.204	30.72
548.548	30.84
548.892	30.68
549.236	30.8
549.58	30.95
549.924	31.31
550.268	31.45
550.612	31.77
550.956	31.57
551.3	31.69
551.643	31.77
551.987	31.69
552.33	31.71
552.674	32.03
553.017	32.19
553.361	32.47
553.704	32.18
554.048	31.9
554.391	31.94
554.734	32.01
555.077	31.92
555.42	32.18
555.764	32.32
556.107	32.25
556.45	32.56
556.793	32.27
557.135	32.43
557.478	32.49
557.821	32.76
558.164	32.78
558.507	32.7
558.849	32.95
559.192	33.19
559.534	32.67
559.877	32.83
560.219	33.06
560.562	33.02
560.904	33.17
561.246	33.15
561.589	33.35
561.931	33.18
562.273	33.33
562.615	33.23
562.957	33.54
563.299	33.2
563.641	33.45
563.983	33.41
564.325	33.34
564.667	33.65
565.008	33.54
565.35	33.72
565.692	33.7
566.033	34.06
566.375	33.82
566.716	33.78
567.058	33.93
567.399	33.86
567.741	33.78
568.082	33.54
568.423	33.73
568.764	33.83
569.105	33.74
569.447	34.03
569.788	34.2
570.129	34.37
570.47	34.11
570.811	34.59
571.151	34.37
571.492	34.37
571.833	34.28
572.174	34.45
572.514	34.36
572.855	34.52
573.195	34.68
573.536	34.39
573.876	34.58
574.217	34.15
574.557	34.3
574.898	34.63
575.238	34.79
575.578	34.82
575.918	34.73
576.258	35.14
576.598	34.91
576.938	34.99
577.278	34.71
577.618	34.89
577.958	35.05
578.298	35.18
578.638	35.28
578.977	35.41
579.317	35.49
579.657	35.42
579.996	35.59
580.336	35.63
580.675	35.76
581.014	36.1
581.354	35.93
581.693	36.03
582.032	36.08
582.372	35.8
582.711	36.08
583.05	36.38
583.389	36.14
583.728	36.14
584.067	36.17
584.406	36.07
584.745	36.91
585.083	36.48
585.422	36.48
585.761	36.57
586.1	36.61
586.438	36.45
586.777	36.78
587.115	36.71
587.454	37.17
587.792	36.93
588.13	36.81
588.469	36.99
588.807	37.43
589.145	37.04
589.483	36.82
589.821	37.2
590.159	37.02
590.497	37.32
590.835	37.24
591.173	37.12
591.511	37.39
591.849	37.34
592.187	37.3
592.524	37.32
592.862	37.31
593.2	37.59
593.537	37.44
593.875	37.67
594.212	37.81
594.55	37.97
594.887	38.31
595.224	37.98
595.561	37.48
595.899	37.8
596.236	37.74
596.573	38.1
596.91	37.79
597.247	37.76
597.584	38
597.921	37.93
598.258	38.03
598.594	37.58
598.931	37.81
599.268	37.88
599.604	37.87
599.941	37.93
600.277	38.22
600.614	38.63
600.95	38.56
601.287	38.46
601.623	38.49
601.959	38.9
602.296	38.37
602.632	39.03
602.968	38.79
603.304	39.09
603.64	38.79
603.976	38.73
604.312	39.09
604.648	38.67
604.984	38.96
605.319	38.68
605.655	38.72
605.991	38.64
606.326	38.47
606.662	38.47
606.998	38.56
607.333	38.71
607.668	38.98
608.004	38.97
608.339	39.21
608.674	39.55
609.01	39.53
609.345	39.54
609.68	39.5
610.015	39.55
610.35	39.59
610.685	39.56
611.02	39.52
611.355	39.33
611.689	39.31
612.024	39.39
612.359	39.43
612.694	39.39
613.028	39.7
613.363	40.09
613.697	40
614.032	40.18
614.366	40.14
614.7	40.33
615.035	40.5
615.369	40.57
615.703	40.62
616.037	40.32
616.371	40.88
616.705	40.26
617.039	40.91
617.373	40.89
617.707	40.87
618.041	40.95
618.375	40.9
618.709	41.18
619.042	41
619.376	40.9
619.71	40.91
620.043	41.32
620.377	41.5
620.71	41.02
621.043	40.87
621.377	40.99
621.71	41.55
622.043	41.37
622.376	41.4
622.709	41.21
623.043	41.5
623.376	41.63
623.709	41.48
624.041	41.24
624.374	41.52
624.707	41.62
625.04	42.01
625.373	41.65
625.705	41.85
626.038	41.84
626.37	41.99
626.703	41.83
627.035	41.7
627.368	41.86
627.7	41.89
628.032	41.49
628.365	41.86
628.697	41.73
629.029	41.99
629.361	41.53
629.693	42.11
630.025	42.18
630.357	41.98
630.689	42.12
631.021	42.55
631.353	42.21
631.684	42.58
632.016	42.18
632.348	43.16
632.679	42.51
633.011	42.59
633.342	42.43
633.674	42.59
634.005	42.75
634.336	42.64
634.668	42.7
634.999	42.88
635.33	42.53
635.661	43.1
635.992	42.57
636.323	42.59
636.654	43.17
636.985	42.82
637.316	43.02
637.647	43.21
637.977	43.36
638.308	43.55
638.639	43.15
638.969	43.23
639.3	43.46
639.63	42.91
639.961	43.54
640.291	43.52
640.622	43.7
640.952	43.36
641.282	43.85
641.612	43.73
641.943	43.9
642.273	43.58
642.603	44.05
642.933	43.62
643.263	43.52
643.592	44.22
643.922	44.64
644.252	44.04
644.582	43.73
644.911	43.91
645.241	44.07
645.571	44.27
645.9	44.15
646.23	44.11
646.559	44.6
646.888	43.72
647.218	43.94
647.547	44.61
647.876	44.78
648.205	44.65
648.534	44.46
648.863	44.54
649.192	44.58
649.521	44.64
649.85	45
650.179	44.52
650.508	44.55
650.837	45.36
651.165	44.84
651.494	44.37
651.822	44.46
652.151	44.84
652.479	44.68
652.808	44.68
653.136	44.98
653.465	44.79
653.793	45.69
654.121	45.02
654.449	44.81
654.777	44.98
655.105	45.17
655.433	44.49
655.761	45.25
656.089	45.3
656.417	45.33
656.745	45.51
657.073	45.52
657.4	45.38
657.728	45.29
658.056	45.07
658.383	45.47
658.711	45.83
659.038	45.62
659.365	46.11
659.693	46.14
660.02	45.4
660.347	45.84
660.674	45.26
661.001	45.41
661.329	46.18
661.656	45.62
661.982	45.5
662.309	46
662.636	46.33
662.963	45.83
663.29	46
663.616	45.64
663.943	46.15
664.27	46.15
664.596	46.28
664.923	46.01
665.249	46.18
665.576	46.45
665.902	46.37
666.228	46.48
666.554	47.11
666.881	46.06
667.207	47.05
667.533	47.19
667.859	46.17
668.185	46.01
668.511	47.26
668.837	45.97
669.162	48.25
669.488	46.87
669.814	46.72
670.139	46.59
670.465	47.08
670.791	45.91
671.116	47.28
671.442	46.99
671.767	46.58
672.092	46.57
672.418	47.25
672.743	47.09
673.068	47.43
673.393	46.82
673.718	47.02
674.043	46.97
674.368	46.67
674.693	47.17
675.018	46.74
675.343	47.12
675.667	47.27
675.992	47.2
676.317	47.33
676.641	47.42
676.966	47.04
677.29	47.56
677.615	48.09
677.939	47.48
678.264	47.38
678.588	47.72
678.912	47.81
679.236	47.36
679.56	47.84
679.885	46.96
680.209	48.87
680.532	47.56
680.856	48.19
681.18	47.76
681.504	47.89
681.828	47.51
682.152	48.35
682.475	47.78
682.799	47.87
683.122	47.93
683.446	47.87
683.769	48.1
684.093	48.32
684.416	47.27
684.739	48.51
685.062	49.14
685.386	48.25
685.709	48.84
686.032	48.29
686.355	49.06
686.678	48.25
687.001	47.96
687.324	48.18
687.646	48.83
687.969	48.41
688.292	47.71
688.614	48.88
688.937	48.65
689.26	48.25
689.582	48.61
689.904	49.46
690.227	48.53
690.549	49.31
690.871	48.55
691.194	49.45
691.516	48.86
691.838	48.95
692.16	49.23
692.482	49.26
692.804	48.19
693.126	48.09
693.448	49.18
693.769	49.36
694.091	49.07
694.413	48.16
694.735	49.45
695.056	48.2
695.378	49.1
695.699	50.61
696.021	49.65
696.342	50.08
696.663	49.68
696.984	49.64
697.306	48.62
697.627	49.42
697.948	49.56
698.269	49.35
698.59	49.02
698.911	49.86
699.232	49.71
699.553	49.73
699.873	49.23
700.194	49.89
700.515	49.15
700.835	49.54
701.156	49.26
701.477	49.94
701.797	49.39
702.117	50.23
702.438	49.48
702.758	49.39
703.078	50.22
703.398	50.4
703.719	50.2
704.039	50.63
704.359	50.89
704.679	49.77
704.999	50.36
705.319	49.87
705.638	50.45
705.958	50.84
706.278	50.87
706.597	50.33
706.917	50.34
707.237	49.5
707.556	50.06
707.876	51.31
708.195	50.31
708.514	50.73
708.834	50.63
709.153	51.01
709.472	50.91
709.791	52.45
710.11	51.83
710.429	51.36
710.748	51.02
711.067	50.57
711.386	49.62
711.705	50.05
712.023	50.83
712.342	51.17
712.661	51.53
712.979	50.73
713.298	50.26
713.616	51.19
713.935	50.27
714.253	51.32
714.572	51.03
714.89	51.31
715.208	51.47
715.526	51.24
715.844	51.38
716.162	51.12
716.48	50.92
716.798	51.73
717.116	51.35
717.434	50.86
717.752	51.11
718.069	51.28
718.387	51.51
718.705	51.44
719.022	52.27
719.34	51.69
719.657	51.52
719.975	50.92
720.292	51.91
720.609	52.25
720.927	51.54
721.244	51.35
721.561	50.91
721.878	50.63
722.195	51.81
722.512	51.95
722.829	52.15
723.146	52.05
723.463	53.31
723.779	51.73
724.096	52.36
724.413	50.91
724.729	51.43
725.046	50.5
725.362	52.27
725.679	52.39
725.995	52.32
726.311	52.84
726.628	52.13
726.944	52.53
727.26	51.93
727.576	52.44
727.892	52.5
728.208	52.99
728.524	52.62
728.84	52.63
729.156	52.59
729.472	52.01
729.787	52.71
730.103	50.59
730.419	52.25
730.734	51.26
731.05	52.3
731.365	52.82
731.681	51.9
731.996	52.21
732.311	53.2
732.626	52.54
732.942	51.53
733.257	52.26
733.572	52.25
733.887	54.07
734.202	52.06
734.517	53.64
734.832	53.35
735.146	52.62
735.461	52.91
735.776	53.37
736.091	51.86
736.405	52.57
736.72	53.34
737.034	52.74
737.349	52.62
737.663	52.49
737.977	53.17
738.292	53.2
738.606	52.59
738.92	52.77
739.234	53.41
739.548	54.27
739.862	52.89
740.176	54.04
740.49	51.63
740.804	53.77
741.117	54.06
741.431	53.2
741.745	53.91
742.058	52.52
742.372	53.95
742.685	53.22
742.999	51.46
743.312	53.72
743.626	52.42
743.939	53.48
744.252	53.8
744.565	52.31
744.878	52.56
745.191	54.6
745.505	52.61
745.817	53.71
746.13	53.99
746.443	54.09
746.756	53.66
747.069	53.47
747.381	55.22
747.694	53.03
748.007	55.34
748.319	54.09
748.632	53.86
748.944	55.22
749.256	52.82
749.569	54.65
749.881	53.54
750.193	54.74
750.505	54.54
750.817	55.4
751.129	54.16
751.441	53.21
751.753	54.53
752.065	53.56
752.377	53.53
752.689	55.16
753	54.66
753.312	54.45
753.624	54.29
753.935	54.63
754.247	54.53
754.558	52.82
754.869	54.36
755.181	55.54
755.492	55.1
755.803	53.5
756.114	55.56
756.425	53.53
756.736	54.68
757.047	55.71
757.358	55.63
757.669	55.46
757.98	52.7
758.291	54.66
758.601	53.91
758.912	54.41
759.223	55.1
759.533	54.69
759.844	54.65
760.154	54.19
760.464	55.12
760.775	56.69
761.085	53.66
761.395	54.24
761.705	55.27
762.016	55.62
762.326	54
762.636	55.5
762.945	54.53
763.255	56.23
763.565	53.74
763.875	52.87
764.185	56.15
764.494	54
764.804	54.64
765.113	58.1
765.423	56.55
765.732	54.37
766.042	55.2
766.351	55.15
766.66	56.42
766.97	56.17
767.279	55.11
767.588	54.89
767.897	54.57
768.206	55.88
768.515	53.42
768.824	57
769.133	56.12
769.441	56.43
769.75	55.39
770.059	56.17
770.367	55.02
770.676	54.83
770.984	56.66
771.293	55.9
771.601	55.57
771.91	56.7
772.218	55.27
772.526	55.64
772.834	55.91
773.142	54.68
773.45	51.15
773.758	53.1
774.066	54.73
774.374	55.43
774.682	56.35
774.99	53.73
775.298	58.23
775.605	55.66
775.913	55.45
776.22	53.77
776.528	56.21
776.835	54.75
777.143	53.21
777.45	56.3
777.757	58.36
778.065	54.38
778.372	53.8
778.679	55.03
778.986	55.96
779.293	56.4
779.6	55.08
779.907	58.01
780.214	54.37
780.52	56.47
780.827	57.32
781.134	56.48
781.44	52.95
781.747	58.03
782.053	53.07
782.36	55.91
782.666	52.68
782.973	54.91
783.279	55.4
783.585	55.09
783.891	57.78
784.197	55.2
784.503	54.15
784.809	54.88
785.115	57.38
785.421	54.98
785.727	57.59
786.033	52.61
786.339	56.37
786.644	59.17
786.95	56.19
787.255	52.66
787.561	54.77
787.866	56.95
788.172	55.8
788.477	55.6
788.782	52.55
789.088	54.65
789.393	57.45
789.698	54.59
790.003	55.91
790.308	54.78
790.613	54.97
790.918	56.33
791.223	58.75
791.527	55.92
791.832	54.6
792.137	55.07
792.441	57.61
792.746	53.68
793.05	55.12
793.355	57.32
793.659	59.52
793.963	58.83
794.268	57.89
794.572	56.53
794.876	55.35
795.18	57.26
795.484	55.74
795.788	58.82
796.092	50.96
796.396	56.96
796.7	56.62
797.004	53.06
797.307	55.2
797.611	56.41
797.915	58.53
798.218	56.41
798.522	57.55
798.825	58.7
799.128	59.13
799.432	57.66
799.735	54.63
800.038	57.65
800.341	53.79
800.644	54.59
800.947	53.98
801.25	56.71
801.553	60.15
801.856	56.94
802.159	58.13
802.462	54.55
802.764	57.89
803.067	54.92
803.37	55.59
803.672	54.82
803.975	57.3
804.277	55.96
804.579	54.89
804.882	57.31
805.184	53.66
805.486	59.24
805.788	58.33
806.09	58.17
806.392	58.27
806.694	53.36
806.996	57.49
807.298	56.97
807.6	53.6
807.902	57.56
808.203	53.76
808.505	55.78
808.807	56.81
809.108	59.08
809.409	55.03
809.711	60.62
810.012	53.89
810.313	61.48
810.615	55.98
810.916	57.07
811.217	53.67
811.518	54.05
811.819	59.05
812.12	55.7
812.421	60.1
812.722	57.84
813.023	60.28
813.323	58.24
813.624	58.1
813.925	53.9
814.225	56.46
814.526	58.62
814.826	55.16
815.126	51.31
815.427	55.74
815.727	54.42
816.027	57.24
816.327	58.34
816.627	57.27
816.927	52.93
817.227	56.47
817.527	53.56
817.827	53.4
818.127	57.84
818.427	58.2
818.727	54.4
819.026	58.65
819.326	56.55
819.625	62.03
819.925	51.58
820.224	61.67
820.524	60.89
820.823	54.46
821.122	60.19
821.421	53.3
821.72	61.12
822.019	57.14
822.318	57.45
822.617	59.19
822.916	59.19
823.215	58.51
823.514	59.46
823.813	61.85
824.111	56.23
824.41	60.09
824.709	59.76
825.007	58.64
825.306	59.82
825.604	60.57
825.902	58.56
826.201	58.93
826.499	59.13
826.797	60.07
827.095	59.53
827.393	58.2
827.691	59.23
827.989	59.23
828.287	58.65
828.585	60.01
828.882	57.49
829.18	56.57
829.478	58.33
829.775	59.29
830.073	58.13
830.37	60.6
830.668	59.43
830.965	61.5
831.263	60.64
831.56	58.65
831.857	57.93
832.154	62.17
832.451	61.65
832.748	57.91
833.045	60.72
833.342	57.78
833.639	59.49
833.936	63.87
834.232	59
834.529	61.86
834.826	62.09
835.122	59.31
835.419	59.55
835.715	60.98
836.012	59.32
836.308	54.79
836.604	60.23
836.901	57.24
837.197	60.58
837.493	62.59
837.789	60.71
838.085	60.31
838.381	57.56
838.677	58.35
838.972	57.56
839.268	59.72
839.564	59.97
839.86	55.34
840.155	60.18
840.451	55.99
840.746	61.81
841.042	58.53
841.337	63.92
841.632	59.33
841.928	61.3
842.223	56.38
842.518	56.03
842.813	53.91
843.108	62.59
843.403	54.36
843.698	54.42
843.993	55.48
844.287	61.23
844.582	60.05
844.877	55.84
845.171	55.13
845.466	49.38
845.761	56.54
846.055	58.11
846.349	48.59
846.644	53.21
846.938	61.63
847.232	51.19
847.526	54.08
847.82	71.82
848.114	62.87
848.408	63.13
848.702	41.82
848.996	51.82
849.29	70.13
849.584	67.72
849.877	54.85
850.171	63.41
850.465	55.21
850.758	59.27
851.052	70.06
851.345	71.97
851.638	37.53
851.932	64.65
852.225	56.36
852.518	59.44
852.811	60.78
853.104	51.2
853.397	42.46
853.69	67.93
853.983	40.89
854.276	49.19
854.569	51.73
854.861	28.72
855.154	38.45
855.447	58.49
855.739	64.3
856.032	43.5
856.324	78.34
856.616	52.04
856.909	57.18
857.201	51.35
857.493	46.47
857.785	54.34
858.077	46.51
858.369	62.21
858.661	78.29
858.953	69.91
859.245	54
859.537	37.12
859.829	56.23
860.12	70.69
860.412	76.75
860.703	41.43
860.995	53.45
861.286	55.22
861.578	55.32
861.869	56.08
862.16	52.39
862.452	60.84
862.743	56.24
863.034	69.28
863.325	50.73
863.616	60.06
863.907	52.83
864.198	69.1
864.488	28.29
864.779	64.14
865.07	69.05
865.36	48.92
865.651	46.4
865.941	61.57
866.232	36.78
866.522	65.32
866.813	31.53
867.103	64.42
867.393	43.53
867.683	23.07
867.973	61.24
868.263	51.35
868.553	56.55
868.843	65.33
869.133	46.36
869.423	54.78
869.713	74.17
870.002	57.95
870.292	48.62
870.582	64.38
870.871	55.86
871.161	67.44
871.45	53.61
871.739	65.82
872.029	30.32
872.318	60.46
872.607	57.13
872.896	46.07
873.185	54.79
873.474	58.38
873.763	55.23
874.052	57.94
874.341	96.05
874.63	57.7
874.918	76.32
875.207	69.68
875.496	90.28
875.784	100.57
876.073	65.82
876.361	47.81
876.649	59.09
876.938	43.68
877.226	57.23
877.514	63.03
877.802	48.25
878.09	63.14
878.378	56.56
878.666	45.3
878.954	92.25
879.242	30.42
879.53	38.13
879.817	59.44
880.105	64.47
880.392	61.08
880.68	52.94
880.967	68.61
881.255	53.84
881.542	73.9
881.83	57.64
882.117	50.88
882.404	46.06
882.691	42.32
882.978	50.35
883.265	64.3
883.552	52.54
883.839	64.98
884.126	65.19
884.413	68.49
884.699	63.5
884.986	55.54
885.273	62.42
885.559	62.42
885.846	62.42
